Data from USB4F104151__248__14-22-35-242.txt Node

Date: Thu Mar 13 14:22:35 EDT 2025
User: louis
Spectrometer: USB4F10415
Trigger mode: 4
Integration Time (sec): 2.000000E-2
Scans to average: 1
Electric dark correction enabled: true
Nonlinearity correction enabled: false
Boxcar width: 0
XAxis mode: Wavelengths
Number of Pixels in Spectrum: 3648
>>>>>Begin Spectral Data<<<<<
178.204	-47.96
178.424	-47.96
178.644	-47.96
178.864	-172.88
179.084	-121.68
179.304	-23.38
179.524	9.39
179.744	-54.1
179.964	64.68
180.184	15.53
180.404	-15.19
180.624	44.2
180.844	17.58
181.064	-4.95
181.283	-17.24
181.503	-2.9
181.723	-33.62
181.943	-4.95
182.163	27.82
182.383	15.53
182.602	-31.57
182.822	48.3
183.042	27.82
183.262	36.01
183.482	-35.67
183.701	9.39
183.921	27.82
184.141	23.72
184.361	-23.38
184.58	42.15
184.8	-17.24
185.02	-2.9
185.239	81.07
185.459	5.29
185.679	56.49
185.898	5.29
186.118	66.73
186.338	79.02
186.557	89.26
186.777	13.48
186.997	27.82
187.216	62.63
187.436	31.91
187.655	56.49
187.875	99.5
188.095	19.63
188.314	27.82
188.534	89.26
188.753	48.3
188.973	97.45
189.192	64.68
189.412	42.15
189.631	23.72
189.851	38.06
190.07	48.3
190.29	7.34
190.509	9.39
190.729	-31.57
190.948	81.07
191.168	111.78
191.387	15.53
191.607	-43.86
191.826	5.29
192.045	3.24
192.265	93.35
192.484	-15.19
192.704	-21.33
192.923	-13.14
193.142	99.5
193.362	-0.85
193.581	7.34
193.8	-23.38
194.02	27.82
194.239	33.96
194.458	-25.43
194.678	27.82
194.897	9.39
195.116	-31.57
195.335	44.2
195.555	5.29
195.774	5.29
195.993	15.53
196.212	-105.3
196.432	-60.24
196.651	68.78
196.87	3.24
197.089	109.74
197.308	76.97
197.528	1.19
197.747	-68.44
197.966	93.35
198.185	23.72
198.404	31.91
198.623	-17.24
198.842	64.68
199.062	64.68
199.281	48.3
199.5	27.82
199.719	72.87
199.938	50.35
200.157	68.78
200.376	66.73
200.595	99.5
200.814	19.63
201.033	27.82
201.252	15.53
201.471	15.53
201.69	97.45
201.909	15.53
202.128	-4.95
202.347	5.29
202.566	48.3
202.785	72.87
203.004	72.87
203.223	72.87
203.442	-17.24
203.661	48.3
203.879	56.49
204.098	97.45
204.317	-27.48
204.536	50.35
204.755	44.2
204.974	50.35
205.193	56.49
205.411	40.11
205.63	1.19
205.849	56.49
206.068	58.54
206.287	23.72
206.505	-43.86
206.724	31.91
206.943	-4.95
207.162	85.16
207.381	13.48
207.599	15.53
207.818	56.49
208.037	19.63
208.255	7.34
208.474	83.11
208.693	-4.95
208.911	29.87
209.13	74.92
209.349	11.43
209.567	23.72
209.786	79.02
210.005	60.59
210.223	44.2
210.442	38.06
210.661	17.58
210.879	50.35
211.098	-4.95
211.316	11.43
211.535	105.64
211.753	11.43
211.972	165.03
212.191	74.92
212.409	76.97
212.628	23.72
212.846	19.63
213.065	74.92
213.283	60.59
213.502	38.06
213.72	56.49
213.938	27.82
214.157	-17.24
214.375	81.07
214.594	50.35
214.812	74.92
215.031	19.63
215.249	-45.91
215.467	7.34
215.686	122.02
215.904	99.5
216.122	58.54
216.341	52.39
216.559	31.91
216.778	62.63
216.996	52.39
217.214	7.34
217.432	-4.95
217.651	-50
217.869	-0.85
218.087	-9.05
218.306	21.67
218.524	66.73
218.742	-17.24
218.96	93.35
219.179	3.24
219.397	115.88
219.615	93.35
219.833	64.68
220.051	11.43
220.27	19.63
220.488	7.34
220.706	56.49
220.924	50.35
221.142	48.3
221.36	23.72
221.578	66.73
221.796	62.63
222.015	1.19
222.233	38.06
222.451	58.54
222.669	13.48
222.887	76.97
223.105	48.3
223.323	29.87
223.541	1.19
223.759	81.07
223.977	81.07
224.195	19.63
224.413	23.72
224.631	103.59
224.849	-56.15
225.067	44.2
225.285	-9.05
225.503	52.39
225.721	64.68
225.939	33.96
226.157	87.21
226.375	91.31
226.592	-0.85
226.81	-21.33
227.028	36.01
227.246	115.88
227.464	7.34
227.682	85.16
227.9	48.3
228.117	103.59
228.335	-0.85
228.553	66.73
228.771	134.31
228.989	-17.24
229.206	3.24
229.424	36.01
229.642	9.39
229.86	-21.33
230.077	68.78
230.295	13.48
230.513	40.11
230.731	60.59
230.948	111.78
231.166	101.55
231.384	31.91
231.601	25.77
231.819	93.35
232.037	48.3
232.254	48.3
232.472	25.77
232.689	33.96
232.907	91.31
233.125	-9.05
233.342	70.83
233.56	-31.57
233.777	-7
233.995	44.2
234.213	97.45
234.43	87.21
234.648	48.3
234.865	21.67
235.083	91.31
235.3	56.49
235.518	7.34
235.735	107.69
235.953	91.31
236.17	36.01
236.388	25.77
236.605	21.67
236.822	44.2
237.04	40.11
237.257	23.72
237.475	85.16
237.692	-7
237.909	50.35
238.127	33.96
238.344	64.68
238.562	48.3
238.779	7.34
238.996	23.72
239.214	33.96
239.431	-9.05
239.648	23.72
239.865	15.53
240.083	40.11
240.3	64.68
240.517	-9.05
240.735	79.02
240.952	97.45
241.169	79.02
241.386	29.87
241.603	44.2
241.821	-0.85
242.038	85.16
242.255	93.35
242.472	85.16
242.689	60.59
242.907	31.91
243.124	60.59
243.341	-15.19
243.558	97.45
243.775	33.96
243.992	-27.48
244.209	64.68
244.426	42.15
244.643	31.91
244.86	27.82
245.078	17.58
245.295	103.59
245.512	-27.48
245.729	31.91
245.946	13.48
246.163	91.31
246.38	74.92
246.597	1.19
246.814	23.72
247.031	56.49
247.248	44.2
247.464	36.01
247.681	74.92
247.898	25.77
248.115	40.11
248.332	-50
248.549	64.68
248.766	27.82
248.983	44.2
249.2	81.07
249.417	36.01
249.633	-13.14
249.85	89.26
250.067	29.87
250.284	81.07
250.501	23.72
250.717	25.77
250.934	23.72
251.151	48.3
251.368	56.49
251.585	-9.05
251.801	-0.85
252.018	1.19
252.235	58.54
252.451	81.07
252.668	81.07
252.885	42.15
253.102	48.3
253.318	76.97
253.535	23.72
253.752	72.87
253.968	-7
254.185	64.68
254.401	58.54
254.618	56.49
254.835	31.91
255.051	89.26
255.268	-45.91
255.484	-11.09
255.701	81.07
255.917	64.68
256.134	25.77
256.351	-0.85
256.567	9.39
256.784	23.72
257	-37.72
257.217	19.63
257.433	60.59
257.65	-9.05
257.866	54.44
258.082	11.43
258.299	17.58
258.515	50.35
258.732	7.34
258.948	56.49
259.165	48.3
259.381	7.34
259.597	40.11
259.814	23.72
260.03	66.73
260.246	56.49
260.463	21.67
260.679	70.83
260.895	50.35
261.112	40.11
261.328	76.97
261.544	25.77
261.761	105.64
261.977	23.72
262.193	17.58
262.409	46.25
262.626	50.35
262.842	83.11
263.058	1.19
263.274	40.11
263.49	70.83
263.707	130.22
263.923	38.06
264.139	-37.72
264.355	85.16
264.571	93.35
264.787	107.69
265.004	25.77
265.22	-25.43
265.436	42.15
265.652	27.82
265.868	1.19
266.084	17.58
266.3	48.3
266.516	-58.2
266.732	74.92
266.948	56.49
267.164	19.63
267.38	99.5
267.596	11.43
267.812	130.22
268.028	-29.52
268.244	83.11
268.46	25.77
268.676	66.73
268.892	1.19
269.108	33.96
269.324	29.87
269.54	-25.43
269.756	72.87
269.972	48.3
270.188	62.63
270.403	-13.14
270.619	56.49
270.835	-15.19
271.051	-41.81
271.267	-17.24
271.483	27.82
271.698	40.11
271.914	50.35
272.13	-9.05
272.346	56.49
272.562	91.31
272.777	48.3
272.993	-31.57
273.209	48.3
273.425	40.11
273.64	33.96
273.856	25.77
274.072	27.82
274.287	9.39
274.503	48.3
274.719	36.01
274.934	48.3
275.15	7.34
275.366	48.3
275.581	33.96
275.797	83.11
276.012	66.73
276.228	17.58
276.444	23.72
276.659	31.91
276.875	15.53
277.09	81.07
277.306	7.34
277.521	56.49
277.737	-2.9
277.952	13.48
278.168	11.43
278.383	56.49
278.599	23.72
278.814	-25.43
279.03	85.16
279.245	64.68
279.461	48.3
279.676	74.92
279.892	40.11
280.107	25.77
280.322	31.91
280.538	44.2
280.753	38.06
280.969	42.15
281.184	56.49
281.399	27.82
281.615	64.68
281.83	50.35
282.045	-25.43
282.26	-50
282.476	64.68
282.691	85.16
282.906	-7
283.122	-50
283.337	-13.14
283.552	-33.62
283.767	-33.62
283.983	23.72
284.198	23.72
284.413	76.97
284.628	-19.29
284.843	23.72
285.058	29.87
285.274	48.3
285.489	-56.15
285.704	58.54
285.919	33.96
286.134	48.3
286.349	21.67
286.564	-35.67
286.779	15.53
286.995	7.34
287.21	15.53
287.425	68.78
287.64	40.11
287.855	50.35
288.07	56.49
288.285	119.98
288.5	89.26
288.715	64.68
288.93	-7
289.145	31.91
289.36	68.78
289.575	19.63
289.79	62.63
290.004	15.53
290.219	15.53
290.434	23.72
290.649	31.91
290.864	68.78
291.079	11.43
291.294	89.26
291.509	42.15
291.724	-13.14
291.938	-23.38
292.153	-0.85
292.368	42.15
292.583	40.11
292.798	83.11
293.012	93.35
293.227	7.34
293.442	11.43
293.657	54.44
293.871	115.88
294.086	-15.19
294.301	148.65
294.516	19.63
294.73	-50
294.945	56.49
295.16	1.19
295.374	56.49
295.589	83.11
295.804	58.54
296.018	-33.62
296.233	132.26
296.447	124.07
296.662	17.58
296.877	138.41
297.091	11.43
297.306	17.58
297.52	48.3
297.735	40.11
297.949	68.78
298.164	13.48
298.378	3.24
298.593	-31.57
298.807	-25.43
299.022	132.26
299.236	109.74
299.451	-13.14
299.665	-0.85
299.88	17.58
300.094	66.73
300.309	87.21
300.523	29.87
300.737	72.87
300.952	42.15
301.166	50.35
301.381	42.15
301.595	48.3
301.809	115.88
302.024	25.77
302.238	25.77
302.452	48.3
302.667	3.24
302.881	66.73
303.095	15.53
303.309	109.74
303.524	36.01
303.738	58.54
303.952	31.91
304.166	99.5
304.381	42.15
304.595	72.87
304.809	48.3
305.023	79.02
305.237	74.92
305.452	89.26
305.666	56.49
305.88	81.07
306.094	3.24
306.308	15.53
306.522	40.11
306.736	38.06
306.95	56.49
307.164	36.01
307.379	7.34
307.593	83.11
307.807	91.31
308.021	83.11
308.235	68.78
308.449	-47.96
308.663	72.87
308.877	54.44
309.091	7.34
309.305	64.68
309.519	-0.85
309.733	38.06
309.947	-17.24
310.161	7.34
310.374	21.67
310.588	81.07
310.802	33.96
311.016	29.87
311.23	23.72
311.444	42.15
311.658	17.58
311.872	87.21
312.085	7.34
312.299	48.3
312.513	81.07
312.727	107.69
312.941	85.16
313.154	58.54
313.368	3.24
313.582	23.72
313.796	85.16
314.009	99.5
314.223	25.77
314.437	17.58
314.651	38.06
314.864	23.72
315.078	7.34
315.292	7.34
315.505	60.59
315.719	11.43
315.933	64.68
316.146	7.34
316.36	17.58
316.573	11.43
316.787	50.35
317.001	25.77
317.214	5.29
317.428	113.83
317.641	31.91
317.855	-9.05
318.068	-15.19
318.282	36.01
318.495	62.63
318.709	42.15
318.922	83.11
319.136	19.63
319.349	31.91
319.563	23.72
319.776	-17.24
319.99	-47.96
320.203	48.3
320.417	36.01
320.63	-58.2
320.843	52.39
321.057	-15.19
321.27	40.11
321.483	52.39
321.697	50.35
321.91	48.3
322.124	48.3
322.337	-21.33
322.55	36.01
322.763	-25.43
322.977	105.64
323.19	23.72
323.403	48.3
323.617	-0.85
323.83	76.97
324.043	17.58
324.256	58.54
324.469	76.97
324.683	62.63
324.896	83.11
325.109	7.34
325.322	19.63
325.535	23.72
325.748	36.01
325.962	64.68
326.175	-64.34
326.388	93.35
326.601	44.2
326.814	44.2
327.027	11.43
327.24	21.67
327.453	31.91
327.666	36.01
327.879	-2.9
328.092	60.59
328.305	68.78
328.518	40.11
328.731	58.54
328.944	15.53
329.157	15.53
329.37	7.34
329.583	113.83
329.796	79.02
330.009	7.34
330.222	70.83
330.435	27.82
330.648	99.5
330.861	-54.1
331.073	23.72
331.286	19.63
331.499	17.58
331.712	60.59
331.925	19.63
332.138	11.43
332.35	19.63
332.563	-25.43
332.776	31.91
332.989	5.29
333.202	38.06
333.414	56.49
333.627	7.34
333.84	33.96
334.053	42.15
334.265	64.68
334.478	11.43
334.691	23.72
334.903	5.29
335.116	-29.52
335.329	60.59
335.541	38.06
335.754	93.35
335.966	-58.2
336.179	36.01
336.392	54.44
336.604	31.91
336.817	23.72
337.029	-21.33
337.242	5.29
337.454	60.59
337.667	72.87
337.88	54.44
338.092	19.63
338.305	56.49
338.517	11.43
338.729	17.58
338.942	72.87
339.154	17.58
339.367	17.58
339.579	36.01
339.792	-23.38
340.004	58.54
340.217	7.34
340.429	58.54
340.641	-0.85
340.854	40.11
341.066	56.49
341.278	25.77
341.491	17.58
341.703	76.97
341.915	27.82
342.128	89.26
342.34	25.77
342.552	7.34
342.764	7.34
342.977	23.72
343.189	40.11
343.401	87.21
343.613	19.63
343.826	23.72
344.038	-17.24
344.25	54.44
344.462	-47.96
344.674	23.72
344.886	11.43
345.099	107.69
345.311	68.78
345.523	83.11
345.735	-41.81
345.947	56.49
346.159	23.72
346.371	-31.57
346.583	31.91
346.795	81.07
347.007	27.82
347.219	27.82
347.431	66.73
347.643	-0.85
347.855	60.59
348.067	122.02
348.279	-39.76
348.491	52.39
348.703	19.63
348.915	66.73
349.127	13.48
349.339	38.06
349.551	31.91
349.763	42.15
349.975	-9.05
350.187	7.34
350.399	101.55
350.61	-25.43
350.822	58.54
351.034	33.96
351.246	40.11
351.458	44.2
351.669	40.11
351.881	3.24
352.093	7.34
352.305	23.72
352.517	25.77
352.728	81.07
352.94	-17.24
353.152	17.58
353.363	-50
353.575	7.34
353.787	21.67
353.999	-7
354.21	36.01
354.422	58.54
354.633	15.53
354.845	62.63
355.057	101.55
355.268	48.3
355.48	50.35
355.692	-72.53
355.903	31.91
356.115	142.5
356.326	5.29
356.538	105.64
356.749	-7
356.961	97.45
357.172	9.39
357.384	25.77
357.595	76.97
357.807	81.07
358.018	-52.05
358.23	38.06
358.441	91.31
358.653	50.35
358.864	81.07
359.075	42.15
359.287	109.74
359.498	68.78
359.709	44.2
359.921	21.67
360.132	15.53
360.344	38.06
360.555	21.67
360.766	25.77
360.977	7.34
361.189	56.49
361.4	64.68
361.611	81.07
361.823	9.39
362.034	23.72
362.245	9.39
362.456	25.77
362.667	-27.48
362.879	85.16
363.09	56.49
363.301	27.82
363.512	60.59
363.723	15.53
363.935	36.01
364.146	60.59
364.357	11.43
364.568	19.63
364.779	74.92
364.99	74.92
365.201	36.01
365.412	56.49
365.623	-27.48
365.834	15.53
366.045	-4.95
366.256	105.64
366.467	27.82
366.678	72.87
366.889	119.98
367.1	101.55
367.311	7.34
367.522	74.92
367.733	27.82
367.944	89.26
368.155	-0.85
368.366	87.21
368.577	74.92
368.788	36.01
368.999	15.53
369.209	23.72
369.42	107.69
369.631	72.87
369.842	56.49
370.053	72.87
370.264	29.87
370.474	17.58
370.685	-31.57
370.896	36.01
371.107	31.91
371.317	58.54
371.528	-11.09
371.739	76.97
371.95	11.43
372.16	130.22
372.371	-0.85
372.582	-0.85
372.792	74.92
373.003	27.82
373.214	46.25
373.424	76.97
373.635	23.72
373.846	17.58
374.056	60.59
374.267	105.64
374.477	9.39
374.688	85.16
374.898	72.87
375.109	31.91
375.319	72.87
375.53	40.11
375.74	23.72
375.951	31.91
376.161	-37.72
376.372	64.68
376.582	38.06
376.793	33.96
377.003	23.72
377.214	11.43
377.424	76.97
377.635	76.97
377.845	52.39
378.055	79.02
378.266	25.77
378.476	46.25
378.686	21.67
378.897	23.72
379.107	103.59
379.317	158.89
379.528	25.77
379.738	54.44
379.948	19.63
380.158	99.5
380.369	60.59
380.579	83.11
380.789	91.31
380.999	48.3
381.21	33.96
381.42	52.39
381.63	-19.29
381.84	33.96
382.05	128.17
382.261	38.06
382.471	-17.24
382.681	56.49
382.891	85.16
383.101	85.16
383.311	-15.19
383.521	25.77
383.731	91.31
383.941	40.11
384.151	62.63
384.361	66.73
384.571	11.43
384.781	109.74
384.991	160.94
385.201	97.45
385.411	11.43
385.621	56.49
385.831	64.68
386.041	52.39
386.251	29.87
386.461	113.83
386.671	-9.05
386.881	60.59
387.091	-25.43
387.301	56.49
387.511	109.74
387.72	72.87
387.93	27.82
388.14	138.41
388.35	85.16
388.56	40.11
388.769	31.91
388.979	50.35
389.189	48.3
389.399	91.31
389.609	36.01
389.818	81.07
390.028	52.39
390.238	89.26
390.447	83.11
390.657	-0.85
390.867	58.54
391.076	38.06
391.286	42.15
391.496	-15.19
391.705	58.54
391.915	-25.43
392.125	91.31
392.334	142.5
392.544	62.63
392.753	9.39
392.963	-7
393.172	105.64
393.382	46.25
393.591	162.98
393.801	27.82
394.01	83.11
394.22	66.73
394.429	11.43
394.639	23.72
394.848	138.41
395.058	9.39
395.267	52.39
395.477	27.82
395.686	101.55
395.895	173.22
396.105	72.87
396.314	44.2
396.524	93.35
396.733	40.11
396.942	36.01
397.152	119.98
397.361	40.11
397.57	93.35
397.78	48.3
397.989	79.02
398.198	138.41
398.407	119.98
398.617	58.54
398.826	128.17
399.035	134.31
399.244	74.92
399.453	124.07
399.663	31.91
399.872	107.69
400.081	48.3
400.29	87.21
400.499	60.59
400.708	36.01
400.917	56.49
401.127	48.3
401.336	52.39
401.545	76.97
401.754	105.64
401.963	113.83
402.172	89.26
402.381	64.68
402.59	87.21
402.799	95.4
403.008	148.65
403.217	76.97
403.426	7.34
403.635	140.46
403.844	76.97
404.053	99.5
404.262	64.68
404.471	146.6
404.68	89.26
404.888	175.27
405.097	130.22
405.306	83.11
405.515	167.08
405.724	89.26
405.933	97.45
406.142	81.07
406.35	240.81
406.559	64.68
406.768	146.6
406.977	165.03
407.185	105.64
407.394	142.5
407.603	130.22
407.812	146.6
408.02	208.04
408.229	142.5
408.438	173.22
408.646	128.17
408.855	193.7
409.064	117.93
409.272	144.55
409.481	191.66
409.69	191.66
409.898	216.23
410.107	195.75
410.315	175.27
410.524	253.09
410.733	171.18
410.941	289.96
411.15	314.53
411.358	296.1
411.567	238.76
411.775	265.38
411.984	296.1
412.192	281.77
412.401	302.25
412.609	339.11
412.818	392.36
413.026	328.87
413.234	367.78
413.443	367.78
413.651	353.45
413.86	412.84
414.068	480.42
414.276	478.37
414.485	437.41
414.693	433.32
414.901	548
415.11	468.13
415.318	449.7
415.526	482.47
415.734	568.48
415.943	480.42
416.151	613.54
416.359	519.33
416.567	558.24
416.776	597.15
416.984	640.16
417.192	756.9
417.4	656.54
417.608	670.88
417.817	666.78
418.025	789.66
418.233	828.57
418.441	605.35
418.649	760.99
418.857	795.81
419.065	928.92
419.273	824.48
419.481	916.64
419.689	867.49
419.897	971.93
420.105	1023.13
420.313	1080.47
420.521	1010.84
420.729	1072.28
420.937	1162.39
421.145	1164.44
421.353	1244.31
421.561	1301.65
421.769	1281.18
421.977	1289.37
422.185	1391.77
422.393	1485.97
422.601	1434.77
422.809	1490.07
423.017	1465.49
423.224	1522.84
423.432	1672.34
423.64	1711.25
423.848	1815.69
424.056	1596.56
424.263	1916.05
424.471	1850.51
424.679	2006.16
424.887	1975.44
425.094	1895.57
425.302	2129.03
425.51	2108.55
425.718	2256.01
425.925	2284.68
426.133	2358.41
426.341	2419.85
426.548	2567.3
426.756	2526.34
426.964	2548.87
427.171	2671.75
427.379	2821.25
427.586	2892.93
427.794	2860.16
428.001	2974.85
428.209	3243.13
428.417	3071.1
428.624	3443.83
428.832	3333.24
429.039	3351.67
429.247	3366.01
429.454	3712.11
429.662	3884.14
429.869	3679.35
430.076	3775.6
430.284	3773.55
430.491	3886.19
430.699	4111.47
430.906	4074.6
431.114	4152.43
431.321	4439.14
431.528	4605.03
431.736	4717.67
431.943	4920.42
432.15	4803.68
432.358	4807.78
432.565	5086.3
432.772	5086.3
432.979	5323.87
433.187	5491.8
433.394	5467.22
433.601	5868.63
433.808	5915.73
434.016	5827.67
434.223	6282.31
434.43	6313.03
434.637	6415.43
434.844	6880.32
435.052	6808.64
435.259	6763.59
435.466	6704.2
435.673	6906.95
435.88	7142.46
436.087	7334.97
436.294	7666.74
436.501	7507
436.708	7629.88
436.915	7748.66
437.122	8182.83
437.329	8043.57
437.537	8219.69
437.743	8629.29
437.95	8543.27
438.157	8784.93
438.364	9045.02
438.571	9108.51
438.778	9038.88
438.985	9993.23
439.192	9538.59
439.399	9946.13
439.606	9643.03
439.813	10325.01
440.02	11041.79
440.227	10697.74
440.433	10497.03
440.64	10953.73
440.847	10769.41
441.054	11369.47
441.261	11869.17
441.467	11688.95
441.674	11844.6
441.881	12229.62
442.088	12276.72
442.294	12329.97
442.501	12549.1
442.708	12557.29
442.914	13190.11
443.121	13800.41
443.328	13261.79
443.534	14492.62
443.741	13941.72
443.948	13659.1
444.154	14830.54
444.361	14691.27
444.568	14666.7
444.774	14965.7
444.981	14867.4
445.187	15311.81
445.394	16143.28
445.6	15758.27
445.807	17275.81
446.013	16667.56
446.22	16784.3
446.426	17570.72
446.633	17781.66
446.839	18514.83
447.046	17585.05
447.252	18660.24
447.459	18262.93
447.665	18168.73
447.871	19295.11
448.078	20036.47
448.284	19207.05
448.491	19510.14
448.697	20462.45
448.903	20902.76
449.11	20876.14
449.316	20675.44
449.522	20810.61
449.728	21257.06
449.935	21281.64
450.141	21367.65
450.347	22109.02
450.553	21535.59
450.76	21601.12
450.966	22352.73
451.172	22313.81
451.378	22549.33
451.584	22100.83
451.791	22930.25
451.997	22952.78
452.203	23067.47
452.409	23307.08
452.615	23188.3
452.821	22119.26
453.027	21936.99
453.233	23528.26
453.44	22432.6
453.646	22571.86
453.852	22543.19
454.058	23087.95
454.264	22453.08
454.47	22881.1
454.676	22047.58
454.882	22985.55
455.088	21087.08
455.294	21185.38
455.5	21648.22
455.705	22025.05
455.911	20937.58
456.117	20761.45
456.323	20579.18
456.529	19549.06
456.735	20437.87
456.941	19446.66
457.147	19428.23
457.352	18938.76
457.558	18641.81
457.764	18559.89
457.97	18238.36
458.176	17935.26
458.381	17980.31
458.587	17286.05
458.793	17030.05
458.999	16298.93
459.204	17521.57
459.41	16944.04
459.616	15700.92
459.821	15936.44
460.027	15768.51
460.233	15354.82
460.438	14748.62
460.644	14932.93
460.85	14210
461.055	13970.39
461.261	13898.71
461.466	13145.06
461.672	12618.73
461.878	13450.21
462.083	12561.39
462.289	12266.48
462.494	12301.29
462.7	11660.28
462.905	11211.78
463.111	11838.45
463.316	11627.51
463.522	11604.99
463.727	11598.84
463.932	11459.58
464.138	11400.19
464.343	11451.39
464.549	10961.92
464.754	11254.78
464.959	11351.04
465.165	11066.37
465.37	10875.91
465.575	10421.26
465.781	10953.73
465.986	10886.15
466.191	10773.51
466.397	10398.73
466.602	9868.31
466.807	10279.95
467.012	10286.09
467.218	10191.89
467.423	9939.99
467.628	9927.7
467.833	10365.96
468.038	10146.83
468.244	9862.16
468.449	10210.32
468.654	9735.19
468.859	9815.06
469.064	10042.39
469.269	9610.26
469.474	9495.58
469.679	9692.18
469.885	9421.85
470.09	9493.53
470.295	9661.46
470.5	9313.31
470.705	9233.44
470.91	8979.49
471.115	8938.53
471.32	9139.23
471.525	9038.88
471.73	8913.95
471.935	8854.56
472.139	8502.31
472.344	8657.96
472.549	8772.64
472.754	8363.05
472.959	8248.36
473.164	8139.82
473.369	7941.17
473.574	8584.23
473.778	8293.42
473.983	8156.21
474.188	8006.7
474.393	7801.91
474.598	7789.62
474.802	7670.84
475.007	7564.34
475.212	7785.52
475.417	7322.68
475.621	7414.84
475.826	7429.18
476.031	7212.09
476.235	7152.7
476.44	7296.06
476.645	6982.72
476.849	7048.26
477.054	7101.5
477.259	6970.43
477.463	7035.97
477.668	6954.05
477.872	6941.76
478.077	6659.14
478.282	6446.15
478.486	6546.5
478.691	6417.48
478.895	6495.3
479.1	6497.35
479.304	6397
479.509	6339.66
479.713	6536.26
479.918	6151.24
480.122	6098
480.326	6247.5
480.531	6278.22
480.735	6118.48
480.94	5971.02
481.144	6143.05
481.348	6020.17
481.553	6003.79
481.757	5823.57
481.961	5997.65
482.166	6151.24
482.37	5874.77
482.574	5950.54
482.778	5962.83
482.983	5985.36
483.187	5913.68
483.391	5805.14
483.595	5753.94
483.8	5715.03
484.004	6208.59
484.208	6061.13
484.412	5805.14
484.616	5833.81
484.821	6030.41
485.025	5719.12
485.229	5942.35
485.433	5928.02
485.637	5964.88
485.841	5831.76
486.045	5788.75
486.249	5905.49
486.453	5852.24
486.657	5958.74
486.861	5979.22
487.065	5766.23
487.269	5930.06
487.473	5774.42
487.677	6038.61
487.881	5954.64
488.085	6005.84
488.289	5848.15
488.493	6132.81
488.697	6075.47
488.901	5934.16
489.105	5905.49
489.309	6018.13
489.512	6030.41
489.716	5956.69
489.92	6020.17
490.124	6126.67
490.328	6071.37
490.531	6003.79
490.735	6061.13
490.939	6067.28
491.143	5909.58
491.346	6116.43
491.55	6054.99
491.754	6030.41
491.958	6276.17
492.161	6253.64
492.365	6243.4
492.569	6331.47
492.772	6315.08
492.976	6335.56
493.18	6257.74
493.383	6503.5
493.587	6462.54
493.79	6442.06
493.994	6495.3
494.197	6446.15
494.401	6440.01
494.605	6554.69
494.808	6530.12
495.012	6677.57
495.215	6696
495.419	6720.58
495.622	6743.11
495.825	6917.19
496.029	6792.26
496.232	7056.45
496.436	6863.94
496.639	7103.55
496.843	7107.65
497.046	7199.8
497.249	7164.99
497.453	7359.55
497.656	7216.19
497.859	7334.97
498.063	7576.63
498.266	7642.17
498.469	7603.25
498.673	7740.47
498.876	7736.37
499.079	7898.16
499.282	7734.32
499.485	8068.14
499.689	8047.66
499.892	8383.53
500.095	8199.21
500.298	8469.55
500.501	8334.38
500.705	8457.26
500.908	8576.04
501.111	8795.17
501.314	8748.07
501.517	9018.4
501.72	8850.47
501.923	8907.81
502.126	9389.08
502.329	9419.8
502.532	9415.71
502.735	9260.06
502.938	9663.51
503.141	9608.22
503.344	9798.68
503.547	10073.1
503.75	10116.11
503.953	10099.73
504.156	10181.65
504.359	10198.03
504.562	10030.1
504.765	10390.54
504.968	10701.83
505.17	10978.31
505.373	10687.5
505.576	11054.08
505.779	10970.12
505.982	11170.82
506.185	11357.18
506.387	11475.96
506.59	11420.67
506.793	11611.13
506.996	11662.33
507.198	12024.82
507.401	11803.64
507.604	12004.34
507.807	12188.66
508.009	12291.06
508.212	12387.31
508.415	12520.43
508.617	12727.27
508.82	12827.62
509.022	12835.81
509.225	13165.54
509.428	13288.42
509.63	13431.77
509.833	13294.56
510.035	13634.52
510.238	13439.97
510.44	13732.83
510.643	13919.19
510.845	13980.63
511.048	14123.99
511.25	14173.14
511.453	14330.83
511.655	14980.04
511.858	14449.61
512.06	14851.02
512.262	15084.48
512.465	14910.41
512.667	15461.31
512.87	15457.21
513.072	15469.5
513.274	15686.59
513.477	15743.93
513.679	15930.3
513.881	16206.77
514.084	16139.19
514.286	16403.38
514.488	16714.67
514.69	17009.58
514.893	17001.38
515.095	17216.42
515.297	17154.98
515.499	17279.91
515.701	17519.52
515.904	17734.56
516.106	17617.82
516.308	17943.45
516.51	18031.51
516.712	18076.57
516.914	18293.65
517.116	18504.59
517.318	18543.5
517.52	18744.2
517.722	19104.65
517.925	19344.26
518.127	19356.55
518.329	19577.73
518.531	19145.61
518.733	19745.66
518.935	20079.48
519.136	19811.2
519.338	20364.15
519.54	20161.4
519.742	20480.88
519.944	20601.71
520.146	21056.36
520.348	21001.07
520.55	20962.15
520.752	20964.2
520.954	21425
521.155	21412.71
521.357	21730.14
521.559	21754.72
521.761	22020.95
521.963	22295.38
522.164	21998.43
522.366	22438.74
522.568	22498.13
522.77	22846.29
522.971	23061.32
523.173	22778.7
523.375	23167.82
523.576	23073.61
523.778	23329.61
523.98	23554.88
524.181	23763.78
524.383	24077.12
524.584	23933.76
524.786	23933.76
524.988	23812.93
525.189	24376.12
525.391	24591.16
525.592	24554.29
525.794	24527.67
525.995	24415.03
526.197	24787.76
526.398	24832.82
526.6	24841.01
526.801	25447.21
527.003	25565.99
527.204	25402.15
527.406	25418.53
527.607	25441.06
527.808	25627.43
528.01	25340.71
528.211	25412.39
528.412	26075.93
528.614	25996.06
528.815	26116.89
529.016	25940.77
529.218	26030.88
529.419	25805.6
529.62	25875.23
529.822	26164
530.023	26235.67
530.224	26123.04
530.425	26098.46
530.626	26225.43
530.828	26217.24
531.029	26653.46
531.23	26520.34
531.431	26460.95
531.632	26729.23
531.833	26379.03
532.035	26671.89
532.236	26614.55
532.437	26553.11
532.638	26532.63
532.839	26835.73
533.04	27067.15
533.241	26805.01
533.442	27120.4
533.643	26739.47
533.844	26729.23
534.045	27018
534.246	26663.7
534.447	26852.11
534.648	26557.21
534.849	26811.15
535.05	26755.86
535.251	26755.86
535.451	26774.29
535.652	26792.72
535.853	27048.72
536.054	26825.49
536.255	26954.51
536.456	27020.05
536.657	26940.18
536.857	26860.3
537.058	26632.98
537.259	27302.67
537.46	26909.46
537.66	26716.95
537.861	26917.65
538.062	26862.35
538.263	27011.85
538.463	26934.03
538.664	26641.17
538.865	26751.76
539.065	26606.36
539.266	26692.37
539.466	26794.77
539.667	26874.64
539.868	27224.84
540.068	26585.88
540.269	26737.43
540.469	26665.75
540.67	26839.83
540.87	26843.92
541.071	26565.4
541.271	26651.41
541.472	26655.51
541.672	26419.99
541.873	26856.21
542.073	26403.61
542.274	27007.76
542.474	26131.23
542.675	26424.09
542.875	27132.68
543.075	26671.89
543.276	26458.9
543.476	27134.73
543.676	26549.01
543.877	26485.53
544.077	26606.36
544.277	26610.45
544.478	26581.78
544.678	26442.52
544.878	26632.98
545.078	26604.31
545.279	26587.92
545.479	26221.34
545.679	26606.36
545.879	26569.49
546.079	26579.73
546.28	26305.31
546.48	26497.81
546.68	26561.3
546.88	26415.9
547.08	26393.37
547.28	26710.8
547.48	26239.77
547.68	26487.57
547.88	26026.78
548.081	26213.15
548.281	26407.7
548.481	26080.03
548.681	26518.29
548.881	26581.78
549.081	26395.42
549.28	26143.52
549.48	26712.85
549.68	26282.78
549.88	26778.39
550.08	25918.24
550.28	26143.52
550.48	26020.64
550.68	26485.53
550.88	26438.42
551.08	26213.15
551.279	26436.38
551.479	26329.88
551.679	26233.63
551.879	26510.1
552.079	26176.28
552.278	26110.75
552.478	26202.91
552.678	25965.34
552.878	26174.24
553.077	26469.14
553.277	25955.1
553.477	26526.49
553.676	26073.88
553.876	26098.46
554.076	26063.64
554.275	25799.46
554.475	25991.97
554.674	25983.77
554.874	26028.83
555.074	25752.35
555.273	26290.97
555.473	26135.32
555.672	25735.97
555.872	25885.47
556.071	26149.66
556.271	26219.29
556.47	25738.02
556.67	25631.52
556.869	25750.31
557.068	25842.46
557.268	25793.31
557.467	25817.89
557.667	25672.48
557.866	25623.33
558.065	25766.69
558.265	25619.24
558.464	25193.26
558.663	25918.24
558.863	25135.92
559.062	25844.51
559.261	25432.87
559.461	25709.35
559.66	25283.37
559.859	25619.24
560.058	25398.06
560.258	25383.72
560.457	25262.89
560.656	25342.76
560.855	25033.52
561.054	25428.77
561.253	25000.75
561.453	25266.99
561.652	25420.58
561.851	25391.91
562.05	24945.45
562.249	24574.77
562.448	24984.37
562.647	24838.96
562.846	24640.31
563.045	25228.07
563.244	24771.38
563.443	25117.48
563.642	24349.5
563.841	24746.8
564.04	24349.5
564.239	24769.33
564.438	24345.4
564.637	24515.38
564.836	24660.79
565.035	24173.37
565.234	24163.13
565.432	24412.98
565.631	24197.95
565.83	24329.02
566.029	24099.64
566.228	24087.36
566.427	24066.88
566.625	23989.05
566.824	23741.25
567.023	24048.44
567.222	23589.7
567.42	23968.57
567.619	23903.04
567.818	23683.91
568.016	23679.81
568.215	23626.56
568.414	23419.72
568.612	23733.06
568.811	23309.13
569.01	23569.22
569.208	23057.23
569.407	23264.07
569.605	23147.34
569.804	23259.98
570.002	23282.5
570.201	23012.17
570.4	23124.81
570.598	22627.15
570.797	22872.91
570.995	22725.46
571.193	22666.06
571.392	23133
571.59	22885.2
571.789	22889.29
571.987	22651.73
572.186	22756.18
572.384	22244.18
572.582	22666.06
572.781	22534.99
572.979	22184.79
573.177	22403.92
573.376	22371.16
573.574	22465.36
573.772	22336.34
573.971	21842.78
574.169	21830.49
574.367	21998.43
574.565	21961.56
574.763	21887.84
574.962	21769.05
575.16	21220.2
575.358	21502.82
575.556	21379.94
575.754	21580.64
575.952	21152.62
576.151	21666.66
576.349	21486.43
576.547	21291.88
576.745	21338.98
576.943	21431.14
577.141	21037.93
577.339	21183.34
577.537	20843.37
577.735	21099.37
577.933	21085.03
578.131	20927.34
578.329	20935.53
578.527	20947.82
578.725	20722.54
578.923	20769.65
579.121	20872.04
579.319	20577.14
579.516	20837.23
579.714	20585.33
579.912	20798.32
580.11	20312.95
580.308	20568.94
580.506	20403.06
580.704	20032.38
580.901	20194.17
581.099	20398.96
581.297	20181.88
581.495	20126.58
581.692	20077.43
581.89	19999.61
582.088	19909.5
582.285	20210.55
582.483	19970.94
582.681	19948.41
582.878	19735.42
583.076	19540.86
583.274	19817.34
583.471	19622.78
583.669	19702.65
583.866	19540.86
584.064	19458.95
584.262	19168.13
584.459	19411.84
584.657	19284.87
584.854	19448.71
585.052	19045.26
585.249	19237.77
585.447	19088.26
585.644	18994.06
585.841	19000.2
586.039	19125.13
586.236	18600.85
586.434	18928.52
586.631	18887.56
586.828	18893.71
587.026	18758.54
587.223	18600.85
587.42	18619.28
587.618	18770.83
587.815	18594.7
588.012	18385.81
588.21	18576.27
588.407	18316.18
588.604	18107.29
588.801	18043.8
588.999	18199.44
589.196	18088.85
589.393	18090.9
589.59	17834.91
589.787	17982.36
589.984	17927.07
590.182	17589.15
590.379	17839
590.576	17505.18
590.773	17783.71
590.97	17613.73
591.167	17851.29
591.364	17406.88
591.561	17488.8
591.758	17318.82
591.955	17392.55
592.152	17404.83
592.349	17382.31
592.546	17247.14
592.743	17099.69
592.94	16987.05
593.137	17204.13
593.334	17138.6
593.531	16817.07
593.727	17009.58
593.924	17183.65
594.121	16696.24
594.318	17087.4
594.515	16608.17
594.712	16851.88
594.908	16708.52
595.105	16688.04
595.302	16399.28
595.499	16483.25
595.696	16501.68
595.892	16505.77
596.089	16667.56
596.286	16583.6
596.482	16513.97
596.679	16317.36
596.876	16313.27
597.072	16147.38
597.269	16118.71
597.466	15965.11
597.662	16104.37
597.859	15979.45
598.055	16065.46
598.252	15877.05
598.448	15813.56
598.645	15905.72
598.841	15764.41
599.038	15942.58
599.234	15541.18
599.431	15569.85
599.627	15510.46
599.824	15453.12
600.02	15477.69
600.217	15492.03
600.413	15416.26
600.609	15143.88
600.806	15219.65
601.002	15336.38
601.198	15383.49
601.395	15025.09
601.591	15305.67
601.787	14924.74
601.984	14914.5
602.18	15139.78
602.376	14973.89
602.572	14846.92
602.769	14980.04
602.965	14842.82
603.161	14736.33
603.357	14742.47
603.553	14820.3
603.75	14472.14
603.946	14453.71
604.142	14863.3
604.338	14441.42
604.534	14572.49
604.73	14410.7
604.926	14187.47
605.122	14445.52
605.318	14300.11
605.514	14259.15
605.71	14136.27
605.906	14113.75
606.102	14046.16
606.298	14119.89
606.494	14138.32
606.69	14064.6
606.886	13958.1
607.082	13902.81
607.278	14144.47
607.474	13927.38
607.67	13925.33
607.866	13867.99
608.062	14050.26
608.257	13829.08
608.453	13581.28
608.649	14007.25
608.845	13607.9
609.041	13638.62
609.236	13808.6
609.432	13523.93
609.628	13550.56
609.824	13497.31
610.019	13331.42
610.215	13429.73
610.411	13585.37
610.606	13454.3
610.802	13534.17
610.998	13491.16
611.193	13546.46
611.389	13491.16
611.584	13100
611.78	13151.2
611.976	12983.27
612.171	13327.33
612.367	13460.45
612.562	12989.41
612.758	13042.66
612.953	13128.67
613.149	12999.65
613.344	13038.56
613.539	13269.98
613.735	13095.91
613.93	12993.51
614.126	12895.21
614.321	13036.52
614.517	12960.74
614.712	13042.66
614.907	12895.21
615.103	13222.88
615.298	12829.67
615.493	12923.88
615.688	12813.29
615.884	13001.7
616.079	12674.03
616.274	12784.62
616.47	12585.96
616.665	12655.59
616.86	12723.18
617.055	12573.67
617.25	12526.57
617.445	12674.03
617.641	12358.64
617.836	12710.89
618.031	12409.84
618.226	12600.3
618.421	12557.29
618.616	12315.63
618.811	12295.15
619.006	12436.46
619.201	12254.19
619.396	12309.49
619.591	12135.41
619.786	12180.46
619.981	12063.73
620.176	12217.33
620.371	11992.05
620.566	12033.01
620.761	11959.28
620.956	12041.2
621.151	11668.47
621.346	11713.53
621.541	11725.82
621.735	11754.49
621.93	11516.92
622.125	11531.26
622.32	11422.72
622.515	11330.56
622.709	11287.55
622.904	11330.56
623.099	11150.34
623.294	11187.2
623.488	11056.13
623.683	11230.21
623.878	10724.36
624.072	11004.93
624.267	11101.19
624.462	10808.33
624.656	10640.39
624.851	10683.4
625.046	10613.77
625.24	10638.34
625.435	10480.65
625.629	10480.65
625.824	10325.01
626.018	10333.2
626.213	10204.17
626.407	10345.48
626.602	10159.12
626.796	10095.63
626.991	10181.65
627.185	10142.74
627.38	9798.68
627.574	9921.56
627.768	9825.3
627.963	9782.29
628.157	9604.12
628.352	9534.49
628.546	9862.16
628.74	9776.15
628.935	9567.26
629.129	9323.55
629.323	9528.35
629.517	9559.06
629.712	9329.69
629.906	9413.66
630.1	9114.66
630.294	9407.52
630.489	9151.52
630.683	9325.6
630.877	8879.14
631.071	9141.28
631.265	9110.56
631.459	8967.2
631.653	8946.72
631.848	8944.67
632.042	8789.03
632.236	8829.99
632.43	8758.31
632.624	8694.82
632.818	8797.22
633.012	8453.16
633.206	8602.66
633.4	8582.18
633.594	8520.74
633.788	8350.76
633.982	8315.95
634.176	8334.38
634.369	8274.99
634.563	8078.38
634.757	8037.42
634.951	8162.35
635.145	8154.16
635.339	8059.95
635.533	8211.5
635.726	7963.7
635.92	7986.22
636.114	8143.92
636.308	8055.86
636.501	7765.04
636.695	7795.76
636.889	7674.93
637.083	7539.77
637.276	7765.04
637.47	7431.23
637.664	7547.96
637.857	7730.23
638.051	7498.81
638.244	7527.48
638.438	7300.16
638.632	7373.88
638.825	7375.93
639.019	7078.97
639.212	7101.5
639.406	7265.34
639.599	7220.28
639.793	7365.69
639.986	7064.64
640.18	7193.66
640.373	7130.17
640.567	6937.66
640.76	6964.29
640.954	6954.05
641.147	6904.9
641.34	6818.88
641.534	6833.22
641.727	6939.71
641.92	6976.58
642.114	6626.37
642.307	6644.81
642.5	6718.53
642.694	6446.15
642.887	6550.6
643.08	6622.28
643.273	6562.89
643.467	6454.34
643.66	6302.79
643.853	6399.05
644.046	6214.73
644.239	6325.32
644.432	6378.57
644.626	6272.07
644.819	6372.43
645.012	6265.93
645.205	6177.87
645.398	6179.92
645.591	6173.77
645.784	6130.77
645.977	6040.65
646.17	6036.56
646.363	6044.75
646.556	5885.01
646.749	5856.34
646.942	5932.11
647.135	5667.92
647.328	5741.65
647.521	5872.72
647.714	5913.68
647.907	5889.1
648.099	5774.42
648.292	5823.57
648.485	5475.42
648.678	5663.83
648.871	5612.63
649.064	5639.25
649.256	5665.88
649.449	5479.51
649.642	5430.36
649.835	5338.2
650.027	5424.22
650.22	5327.96
650.413	5293.15
650.605	5311.58
650.798	5266.52
650.991	5155.93
651.183	5313.63
651.376	5215.32
651.568	5303.39
651.761	5147.74
651.954	5160.03
652.146	5004.38
652.339	5188.7
652.531	5043.29
652.724	5014.62
652.916	5004.38
653.109	5006.43
653.301	4979.81
653.494	4899.94
653.686	4832.35
653.879	5094.49
654.071	4850.78
654.263	4791.39
654.456	4901.98
654.648	4856.93
654.84	4742.24
655.033	4682.85
655.225	4742.24
655.417	4781.15
655.61	4834.4
655.802	4678.76
655.994	4588.64
656.186	4594.79
656.379	4578.4
656.571	4504.68
656.763	4480.1
656.955	4471.91
657.148	4590.69
657.34	4445.29
657.532	4572.26
657.724	4484.2
657.916	4441.19
658.108	4512.87
658.3	4408.42
658.492	4453.48
658.684	4334.7
658.876	4361.32
659.068	4203.63
659.26	4234.35
659.452	4209.77
659.644	4244.59
659.836	4365.42
660.028	4168.81
660.22	4062.32
660.412	4093.04
660.604	4144.24
660.796	4054.12
660.988	4072.56
661.18	4004.97
661.372	3990.64
661.563	4109.42
661.755	3988.59
661.947	4084.84
662.139	3865.71
662.331	3966.06
662.522	3867.76
662.714	3802.22
662.906	3902.58
663.097	3894.38
663.289	3828.85
663.481	3785.84
663.673	3869.81
663.864	3669.11
664.056	3869.81
664.247	3689.59
664.439	3800.18
664.631	3658.87
664.822	3671.15
665.014	3679.35
665.205	3630.2
665.397	3679.35
665.588	3685.49
665.78	3574.9
665.971	3630.2
666.163	3550.32
666.354	3652.72
666.546	3554.42
666.737	3447.93
666.929	3538.04
667.12	3564.66
667.311	3505.27
667.503	3572.85
667.694	3503.22
667.885	3499.13
668.077	3435.64
668.268	3478.65
668.459	3513.46
668.651	3404.92
668.842	3351.67
669.033	3327.1
669.224	3343.48
669.416	3325.05
669.607	3415.16
669.798	3277.94
669.989	3361.91
670.18	3400.82
670.371	3292.28
670.563	3255.42
670.754	3325.05
670.945	3341.43
671.136	3290.23
671.327	3175.55
671.518	3187.83
671.709	3128.44
671.9	3292.28
672.091	3136.63
672.282	3247.23
672.473	3075.2
672.664	3232.89
672.855	3050.62
673.046	3243.13
673.237	3228.79
673.428	2987.13
673.619	3054.72
673.809	3021.95
674	3181.69
674.191	3017.85
674.382	3062.91
674.573	3196.03
674.764	3067
674.954	3097.72
675.145	3073.15
675.336	2817.15
675.527	3028.09
675.717	2937.98
675.908	3009.66
676.099	2911.36
676.289	2978.94
676.48	2872.45
676.671	2915.45
676.861	2921.6
677.052	2841.73
677.243	2882.69
677.433	2974.85
677.624	2876.54
677.814	2784.38
678.005	2884.73
678.195	2845.82
678.386	2858.11
678.576	3026.04
678.767	2899.07
678.957	2980.99
679.148	2931.84
679.338	2866.3
679.529	2968.7
679.719	2772.1
679.909	2972.8
680.1	2819.2
680.29	2833.54
680.481	2899.07
680.671	2892.93
680.861	2860.16
681.052	2786.43
681.242	2907.26
681.432	2909.31
681.622	2677.89
681.813	2825.34
682.003	2874.49
682.193	2829.44
682.383	2759.81
682.573	2731.14
682.764	2727.04
682.954	2813.06
683.144	2747.52
683.334	2772.1
683.524	2780.29
683.714	2747.52
683.904	2763.9
684.094	2739.33
684.284	2888.83
684.474	2854.02
684.664	2802.82
684.854	2671.75
685.044	2843.78
685.234	2710.66
685.424	2614.4
685.614	2860.16
685.804	2663.55
685.994	2696.32
686.184	2679.94
686.374	2710.66
686.564	2501.76
686.753	2655.36
686.943	2571.4
687.133	2649.22
687.323	2559.11
687.513	2598.02
687.702	2606.21
687.892	2532.48
688.082	2583.68
688.272	2669.7
688.461	2491.52
688.651	2583.68
688.841	2481.28
689.03	2526.34
689.22	2548.87
689.41	2520.2
689.599	2567.3
689.789	2423.94
689.979	2522.24
690.168	2475.14
690.358	2505.86
690.547	2387.08
690.737	2536.58
690.926	2409.61
691.116	2382.98
691.305	2432.13
691.495	2432.13
691.684	2391.17
691.874	2417.8
692.063	2399.37
692.252	2292.87
692.442	2458.76
692.631	2399.37
692.82	2356.36
693.01	2301.06
693.199	2387.08
693.388	2342.02
693.578	2274.44
693.767	2276.49
693.956	2243.72
694.146	2245.77
694.335	2124.94
694.524	2278.54
694.713	2149.51
694.902	2288.78
695.092	2229.38
695.281	2178.19
695.47	2133.13
695.659	2153.61
695.848	2198.67
696.037	2149.51
696.226	2241.67
696.415	2120.84
696.604	2253.96
696.793	2208.9
696.982	2178.19
697.171	2194.57
697.36	2133.13
697.549	2092.17
697.738	2110.6
697.927	2161.8
698.116	2079.88
698.305	2149.51
698.494	2112.65
698.683	1981.58
698.872	2104.46
699.061	2200.71
699.25	2227.34
699.438	2161.8
699.627	2055.31
699.816	2112.65
700.005	2092.17
700.193	2055.31
700.382	2067.6
700.571	2092.17
700.76	2106.51
700.948	2051.21
701.137	2116.75
701.326	2213
701.514	2210.95
701.703	2143.37
701.892	2020.49
702.08	2083.98
702.269	2143.37
702.457	2034.83
702.646	2038.92
702.834	2057.36
703.023	1997.96
703.212	2112.65
703.4	2143.37
703.589	2006.16
703.777	2116.75
703.965	2016.4
704.154	2063.5
704.342	1961.1
704.531	2122.89
704.719	2169.99
704.907	2090.12
705.096	2096.27
705.284	2057.36
705.472	2036.88
705.661	2073.74
705.849	2065.55
706.037	1991.82
706.226	2088.07
706.414	2098.31
706.602	2065.55
706.79	2022.54
706.979	2018.44
707.167	2043.02
707.355	2002.06
707.543	2100.36
707.731	2096.27
707.919	1944.72
708.107	2030.73
708.296	2098.31
708.484	1995.92
708.672	2075.79
708.86	1989.77
709.048	1963.15
709.236	2049.16
709.424	2143.37
709.612	1950.86
709.8	1983.63
709.988	1903.76
710.176	2051.21
710.364	2131.08
710.551	2069.64
710.739	2022.54
710.927	2055.31
711.115	2038.92
711.303	1997.96
711.491	1959.05
711.679	2051.21
711.866	2032.78
712.054	1987.72
712.242	2049.16
712.43	2047.12
712.617	1916.05
712.805	2067.6
712.993	1944.72
713.181	1932.43
713.368	1924.24
713.556	2008.2
713.744	1875.09
713.931	2000.01
714.119	2098.31
714.306	2000.01
714.494	1924.24
714.682	1895.57
714.869	1920.14
715.057	2182.28
715.244	1938.57
715.432	1954.96
715.619	2024.59
715.807	1940.62
715.994	2016.4
716.182	2014.35
716.369	2034.83
716.556	2051.21
716.744	1805.46
716.931	1981.58
717.119	2079.88
717.306	1965.2
717.493	1895.57
717.681	2000.01
717.868	2120.84
718.055	1926.29
718.242	2043.02
718.43	1967.24
718.617	1969.29
718.804	1957
718.991	2012.3
719.179	1973.39
719.366	1969.29
719.553	2045.07
719.74	2024.59
719.927	1918.09
720.114	2010.25
720.301	1993.87
720.488	1965.2
720.676	2010.25
720.863	1868.94
721.05	1938.57
721.237	2038.92
721.424	2024.59
721.611	1932.43
721.798	1932.43
721.985	1922.19
722.172	2018.44
722.358	1911.95
722.545	1983.63
722.732	1967.24
722.919	2096.27
723.106	1813.65
723.293	1936.53
723.48	1969.29
723.667	2016.4
723.853	1997.96
724.04	1973.39
724.227	1991.82
724.414	2061.45
724.6	1997.96
724.787	2040.97
724.974	2006.16
725.161	2024.59
725.347	2002.06
725.534	1899.66
725.72	2026.64
725.907	2043.02
726.094	1983.63
726.28	2004.11
726.467	1942.67
726.653	1916.05
726.84	1952.91
727.027	1948.81
727.213	1957
727.4	1932.43
727.586	1983.63
727.773	1911.95
727.959	1911.95
728.145	1891.47
728.332	2026.64
728.518	1899.66
728.705	1891.47
728.891	1858.7
729.077	1936.53
729.264	1897.61
729.45	1877.13
729.636	1938.57
729.823	1825.93
730.009	1909.9
730.195	1940.62
730.382	1926.29
730.568	1911.95
730.754	1952.91
730.94	1991.82
731.126	1905.81
731.313	1932.43
731.499	1993.87
731.685	1944.72
731.871	2098.31
732.057	2079.88
732.243	1938.57
732.429	1983.63
732.615	1852.56
732.801	1881.23
732.987	1887.37
733.173	1866.89
733.359	1891.47
733.545	1858.7
733.731	1916.05
733.917	1887.37
734.103	1918.09
734.289	1942.67
734.475	1891.47
734.661	2047.12
734.847	1969.29
735.033	1981.58
735.219	1920.14
735.404	1830.03
735.59	1920.14
735.776	1825.93
735.962	1850.51
736.148	2010.25
736.333	1883.28
736.519	1887.37
736.705	1995.92
736.89	1787.02
737.076	1830.03
737.262	1809.55
737.447	1973.39
737.633	1883.28
737.819	1899.66
738.004	1918.09
738.19	1877.13
738.375	1924.24
738.561	1924.24
738.747	1823.89
738.932	1754.26
739.118	1852.56
739.303	1811.6
739.489	1780.88
739.674	1879.18
739.859	1817.74
740.045	1803.41
740.23	1881.23
740.416	1729.68
740.601	1711.25
740.786	1809.55
740.972	1744.02
741.157	1748.11
741.342	1668.24
741.528	1666.19
741.713	1778.83
741.898	1569.94
742.084	1741.97
742.269	1758.35
742.454	1719.44
742.639	1680.53
742.824	1660.05
743.01	1645.71
743.195	1754.26
743.38	1727.63
743.565	1701.01
743.75	1588.37
743.935	1664.15
744.12	1744.02
744.305	1688.72
744.49	1727.63
744.675	1641.62
744.86	1625.23
745.045	1586.32
745.23	1633.43
745.415	1670.29
745.6	1688.72
745.785	1627.28
745.97	1621.14
746.155	1647.76
746.34	1664.15
746.525	1574.03
746.71	1590.42
746.895	1580.18
747.079	1496.21
747.264	1524.88
747.449	1557.65
747.634	1598.61
747.819	1578.13
748.003	1391.77
748.188	1481.88
748.373	1520.79
748.557	1526.93
748.742	1453.2
748.927	1418.39
749.111	1494.16
749.296	1422.48
749.481	1539.22
749.665	1545.36
749.85	1393.81
750.034	1436.82
750.219	1336.47
750.404	1447.06
750.588	1422.48
750.773	1326.23
750.957	1408.15
751.141	1330.33
751.326	1344.66
751.51	1303.7
751.695	1377.43
751.879	1320.09
752.064	1416.34
752.248	1352.85
752.432	1359
752.617	1223.83
752.801	1297.56
752.985	1307.8
753.17	1377.43
753.354	1252.5
753.538	1207.45
753.722	1252.5
753.907	1229.98
754.091	1186.97
754.275	1172.63
754.459	1219.74
754.643	1166.49
754.828	1301.65
755.012	1260.7
755.196	1109.15
755.38	1191.06
755.564	1131.67
755.748	1131.67
755.932	1146.01
756.116	1174.68
756.3	1098.91
756.484	1047.71
756.668	1082.52
756.852	1154.2
757.036	1082.52
757.22	1088.67
757.404	1000.6
757.588	1070.23
757.772	1043.61
757.956	1059.99
758.14	1039.51
758.323	1074.33
758.507	1066.14
758.691	951.45
758.875	978.08
759.059	990.36
759.242	1055.9
759.426	965.79
759.61	957.6
759.794	1027.23
759.977	953.5
760.161	1039.51
760.345	961.69
760.528	971.93
760.712	998.56
760.895	957.6
761.079	951.45
761.263	902.3
761.446	949.4
761.63	887.97
761.813	898.2
761.997	920.73
762.18	894.11
762.364	976.03
762.547	939.16
762.731	875.68
762.914	883.87
763.098	836.77
763.281	844.96
763.464	806.05
763.648	769.18
763.831	877.73
764.015	804
764.198	820.38
764.381	828.57
764.564	793.76
764.748	830.62
764.931	875.68
765.114	746.66
765.297	881.82
765.481	728.22
765.664	810.14
765.847	699.55
766.03	748.7
766.213	760.99
766.397	801.95
766.58	734.37
766.763	814.24
766.946	763.04
767.129	744.61
767.312	801.95
767.495	711.84
767.678	742.56
767.861	965.79
768.044	697.5
768.227	724.13
768.41	767.13
768.593	818.33
768.776	726.18
768.959	754.85
769.142	777.37
769.324	722.08
769.507	763.04
769.69	769.18
769.873	771.23
770.056	740.51
770.239	769.18
770.421	720.03
770.604	717.98
770.787	724.13
770.97	705.7
771.152	627.87
771.335	699.55
771.518	664.74
771.7	674.98
771.883	793.76
772.066	664.74
772.248	644.26
772.431	697.5
772.613	695.46
772.796	656.54
772.978	705.7
773.161	681.12
773.343	568.48
773.526	593.06
773.708	556.19
773.891	609.44
774.073	576.67
774.256	619.68
774.438	752.8
774.621	523.43
774.803	638.11
774.985	634.02
775.168	615.59
775.35	507.04
775.532	564.39
775.715	523.43
775.897	652.45
776.079	500.9
776.261	605.35
776.444	533.67
776.626	527.52
776.808	509.09
776.99	564.39
777.173	552.1
777.355	564.39
777.537	550.05
777.719	597.15
777.901	541.86
778.083	517.28
778.265	482.47
778.447	492.71
778.629	574.63
778.811	488.61
778.993	564.39
779.175	545.95
779.357	515.23
779.539	418.98
779.721	498.85
779.903	474.28
780.085	435.36
780.267	539.81
780.449	523.43
780.631	466.08
780.812	472.23
780.994	531.62
781.176	453.8
781.358	482.47
781.54	474.28
781.721	451.75
781.903	494.76
782.085	447.65
782.267	488.61
782.448	416.93
782.63	388.26
782.812	502.95
782.993	343.21
783.175	470.18
783.357	427.17
783.538	433.32
783.72	390.31
783.901	380.07
784.083	400.55
784.264	382.12
784.446	314.53
784.627	369.83
784.809	365.73
784.99	359.59
785.172	431.27
785.353	384.16
785.535	351.4
785.716	330.92
785.897	314.53
786.079	375.97
786.26	375.97
786.441	324.77
786.623	343.21
786.804	359.59
786.985	289.96
787.167	351.4
787.348	285.86
787.529	304.29
787.71	375.97
787.891	400.55
788.073	337.06
788.254	294.05
788.435	375.97
788.616	345.25
788.797	294.05
788.978	337.06
789.159	253.09
789.34	394.4
789.522	296.1
789.703	341.16
789.884	310.44
790.065	359.59
790.246	289.96
790.427	335.01
790.607	326.82
790.788	314.53
790.969	269.48
791.15	279.72
791.331	277.67
791.512	285.86
791.693	271.53
791.874	326.82
792.054	296.1
792.235	289.96
792.416	261.29
792.597	279.72
792.778	312.49
792.958	253.09
793.139	310.44
793.32	324.77
793.5	197.8
793.681	281.77
793.862	220.33
794.042	302.25
794.223	205.99
794.404	244.9
794.584	234.66
794.765	335.01
794.945	296.1
795.126	273.57
795.306	302.25
795.487	220.33
795.667	234.66
795.848	228.52
796.028	240.81
796.209	181.42
796.389	244.9
796.57	261.29
796.75	199.85
796.93	232.62
797.111	162.98
797.291	165.03
797.471	205.99
797.652	183.46
797.832	236.71
798.012	238.76
798.192	175.27
798.373	255.14
798.553	230.57
798.733	191.66
798.913	165.03
799.093	230.57
799.274	171.18
799.454	255.14
799.634	156.84
799.814	156.84
799.994	199.85
800.174	171.18
800.354	203.94
800.534	175.27
800.714	205.99
800.894	203.94
801.074	146.6
801.254	214.18
801.434	236.71
801.614	228.52
801.794	126.12
801.974	705.7
802.154	179.37
802.334	244.9
802.514	195.75
802.693	265.38
802.873	244.9
803.053	275.62
803.233	218.28
803.413	197.8
803.592	154.79
803.772	179.37
803.952	171.18
804.131	124.07
804.311	181.42
804.491	187.56
804.67	222.38
804.85	130.22
805.03	97.45
805.209	222.38
805.389	199.85
805.568	179.37
805.748	136.36
805.928	181.42
806.107	195.75
806.287	228.52
806.466	126.12
806.646	165.03
806.825	208.04
807.004	126.12
807.184	130.22
807.363	197.8
807.543	162.98
807.722	46.25
807.901	136.36
808.081	195.75
808.26	122.02
808.439	165.03
808.619	113.83
808.798	156.84
808.977	89.26
809.156	230.57
809.336	138.41
809.515	195.75
809.694	150.7
809.873	165.03
810.052	126.12
810.231	171.18
810.411	130.22
810.59	205.99
810.769	134.31
810.948	148.65
811.127	187.56
811.306	189.61
811.485	175.27
811.664	148.65
811.843	97.45
812.022	81.07
812.201	146.6
812.38	93.35
812.559	130.22
812.737	160.94
812.916	122.02
813.095	126.12
813.274	162.98
813.453	187.56
813.632	171.18
813.811	113.83
813.989	156.84
814.168	179.37
814.347	148.65
814.526	165.03
814.704	107.69
814.883	158.89
815.062	115.88
815.24	122.02
815.419	113.83
815.598	138.41
815.776	68.78
815.955	134.31
816.133	101.55
816.312	105.64
816.49	72.87
816.669	87.21
816.847	89.26
817.026	89.26
817.204	140.46
817.383	93.35
817.561	113.83
817.74	122.02
817.918	70.83
818.097	48.3
818.275	117.93
818.453	36.01
818.632	68.78
818.81	122.02
818.988	148.65
819.167	15.53
819.345	132.26
819.523	89.26
819.701	105.64
819.879	81.07
820.058	31.91
820.236	113.83
820.414	89.26
820.592	130.22
820.77	167.08
820.948	162.98
821.127	68.78
821.305	142.5
821.483	91.31
821.661	83.11
821.839	97.45
822.017	89.26
822.195	44.2
822.373	81.07
822.551	136.36
822.729	173.22
822.907	48.3
823.085	154.79
823.262	89.26
823.44	130.22
823.618	68.78
823.796	79.02
823.974	113.83
824.152	85.16
824.329	97.45
824.507	138.41
824.685	156.84
824.863	70.83
825.04	48.3
825.218	148.65
825.396	165.03
825.574	89.26
825.751	56.49
825.929	81.07
826.107	31.91
826.284	1.19
826.462	140.46
826.639	64.68
826.817	81.07
826.994	68.78
827.172	97.45
827.349	142.5
827.527	105.64
827.704	97.45
827.882	89.26
828.059	79.02
828.237	46.25
828.414	87.21
828.591	44.2
828.769	11.43
828.946	66.73
829.124	81.07
829.301	68.78
829.478	33.96
829.655	93.35
829.833	89.26
830.01	76.97
830.187	140.46
830.364	54.44
830.542	105.64
830.719	99.5
830.896	66.73
831.073	105.64
831.25	25.77
831.427	107.69
831.604	23.72
831.782	89.26
831.959	76.97
832.136	1.19
832.313	105.64
832.49	48.3
832.667	50.35
832.844	81.07
833.021	107.69
833.198	113.83
833.374	72.87
833.551	72.87
833.728	52.39
833.905	29.87
834.082	42.15
834.259	50.35
834.436	105.64
834.612	89.26
834.789	23.72
834.966	62.63
835.143	15.53
835.319	17.58
835.496	124.07
835.673	87.21
835.85	60.59
836.026	83.11
836.203	89.26
836.38	19.63
836.556	81.07
836.733	42.15
836.909	171.18
837.086	-0.85
837.262	81.07
837.439	66.73
837.616	107.69
837.792	21.67
837.968	130.22
838.145	9.39
838.321	17.58
838.498	74.92
838.674	68.78
838.851	11.43
839.027	21.67
839.203	19.63
839.38	79.02
839.556	48.3
839.732	42.15
839.909	36.01
840.085	103.59
840.261	-54.1
840.437	13.48
840.614	105.64
840.79	89.26
840.966	79.02
841.142	91.31
841.318	68.78
841.494	31.91
841.671	74.92
841.847	-11.09
842.023	3.24
842.199	5.29
842.375	93.35
842.551	85.16
842.727	40.11
842.903	126.12
843.079	76.97
843.255	70.83
843.431	11.43
843.607	31.91
843.783	3.24
843.959	95.4
844.134	9.39
844.31	107.69
844.486	5.29
844.662	42.15
844.838	74.92
845.013	83.11
845.189	72.87
845.365	23.72
845.541	31.91
845.716	-21.33
845.892	113.83
846.068	-2.9
846.244	111.78
846.419	64.68
846.595	93.35
846.77	19.63
846.946	58.54
847.122	50.35
847.297	25.77
847.473	56.49
847.648	15.53
847.824	89.26
847.999	5.29
848.175	-0.85
848.35	48.3
848.526	40.11
848.701	-17.24
848.876	105.64
849.052	23.72
849.227	33.96
849.403	60.59
849.578	-0.85
849.753	68.78
849.929	23.72
850.104	-25.43
850.279	81.07
850.454	-0.85
850.63	64.68
850.805	64.68
850.98	56.49
851.155	19.63
851.33	33.96
851.505	7.34
851.681	134.31
851.856	17.58
852.031	38.06
852.206	7.34
852.381	74.92
852.556	21.67
852.731	15.53
852.906	27.82
853.081	23.72
853.256	72.87
853.431	79.02
853.606	36.01
853.781	1.19
853.956	-58.2
854.131	83.11
854.305	-7
854.48	68.78
854.655	87.21
854.83	-39.76
855.005	1.19
855.18	115.88
855.354	36.01
855.529	113.83
855.704	-2.9
855.879	107.69
856.053	3.24
856.228	64.68
856.403	66.73
856.577	66.73
856.752	40.11
856.926	54.44
857.101	-25.43
857.276	44.2
857.45	-17.24
857.625	72.87
857.799	60.59
857.974	85.16
858.148	5.29
858.323	44.2
858.497	-0.85
858.672	48.3
858.846	27.82
859.02	97.45
859.195	-31.57
859.369	83.11
859.543	60.59
859.718	-11.09
859.892	9.39
860.066	33.96
860.241	68.78
860.415	31.91
860.589	23.72
860.763	40.11
860.938	74.92
861.112	15.53
861.286	27.82
861.46	44.2
861.634	-33.62
861.808	11.43
861.982	25.77
862.157	-11.09
862.331	33.96
862.505	-33.62
862.679	52.39
862.853	-37.72
863.027	-4.95
863.201	64.68
863.375	48.3
863.549	99.5
863.722	36.01
863.896	23.72
864.07	-25.43
864.244	-2.9
864.418	48.3
864.592	-4.95
864.766	9.39
864.939	33.96
865.113	31.91
865.287	42.15
865.461	-37.72
865.634	3.24
865.808	3.24
865.982	44.2
866.156	-27.48
866.329	-105.3
866.503	44.2
866.676	31.91
866.85	11.43
867.024	40.11
867.197	54.44
867.371	99.5
867.544	23.72
867.718	-4.95
867.891	119.98
868.065	7.34
868.238	31.91
868.412	72.87
868.585	13.48
868.759	-9.05
868.932	33.96
869.105	52.39
869.279	17.58
869.452	1.19
869.625	38.06
869.799	-21.33
869.972	-15.19
870.145	36.01
870.319	9.39
870.492	50.35
870.665	7.34
870.838	48.3
871.011	-15.19
871.185	7.34
871.358	50.35
871.531	-4.95
871.704	-41.81
871.877	29.87
872.05	60.59
872.223	-25.43
872.396	-2.9
872.569	72.87
872.742	23.72
872.915	81.07
873.088	-29.52
873.261	74.92
873.434	5.29
873.607	23.72
873.78	19.63
873.953	36.01
874.126	36.01
874.299	48.3
874.471	-37.72
874.644	-66.39
874.817	13.48
874.99	66.73
875.163	81.07
875.335	23.72
875.508	62.63
875.681	72.87
875.853	48.3
876.026	-29.52
876.199	15.53
876.371	56.49
876.544	19.63
876.717	83.11
876.889	29.87
877.062	48.3
877.234	-9.05
877.407	48.3
877.579	-4.95
877.752	56.49
877.924	33.96
878.097	-25.43
878.269	31.91
878.442	-13.14
878.614	-2.9
878.786	-7
878.959	21.67
879.131	72.87
879.303	-21.33
879.476	-7
879.648	58.54
879.82	50.35
879.993	29.87
880.165	52.39
880.337	-37.72
880.509	-25.43
880.681	-39.76
880.854	66.73
881.026	-2.9
881.198	19.63
881.37	3.24
881.542	-2.9
881.714	33.96
881.886	3.24
882.058	44.2
882.23	44.2
882.402	72.87
882.574	-9.05
882.746	3.24
882.918	42.15
883.09	17.58
883.262	31.91
883.434	-29.52
883.606	7.34
883.778	27.82
883.95	66.73
884.122	29.87
884.293	-50
884.465	58.54
884.637	42.15
884.809	-15.19
884.98	-4.95
885.152	3.24
885.324	-21.33
885.496	83.11
885.667	44.2
885.839	1.19
886.011	15.53
886.182	29.87
886.354	93.35
886.525	48.3
886.697	81.07
886.869	-19.29
887.04	36.01
887.212	27.82
887.383	7.34
887.555	31.91
887.726	74.92
887.897	-2.9
888.069	68.78
888.24	21.67
888.412	-50
888.583	64.68
888.754	44.2
888.926	-13.14
889.097	17.58
889.268	-54.1
889.44	-15.19
889.611	-43.86
889.782	-54.1
889.953	3.24
890.125	56.49
890.296	-0.85
890.467	27.82
890.638	21.67
890.809	81.07
890.98	21.67
891.151	15.53
891.323	27.82
891.494	-27.48
891.665	15.53
891.836	38.06
892.007	-15.19
892.178	-50
892.349	79.02
892.52	64.68
892.691	-15.19
892.862	-17.24
893.032	-29.52
893.203	-19.29
893.374	5.29
893.545	93.35
893.716	23.72
893.887	79.02
894.057	-21.33
894.228	-7
894.399	23.72
894.57	15.53
894.74	19.63
894.911	42.15
895.082	25.77
895.253	64.68
895.423	66.73
895.594	-17.24
895.764	44.2
895.935	-103.25
896.106	-9.05
896.276	1.19
896.447	64.68
896.617	-9.05
896.788	23.72
896.958	-13.14
897.129	-50
897.299	46.25
897.47	52.39
897.64	-31.57
897.81	56.49
897.981	17.58
898.151	33.96
898.322	-17.24
898.492	31.91
898.662	1.19
898.832	29.87
899.003	9.39
899.173	48.3
899.343	31.91
899.513	-25.43
