Data from USB4F104151__140__14-19-13-413.txt Node

Date: Thu Mar 13 14:19:13 EDT 2025
User: louis
Spectrometer: USB4F10415
Trigger mode: 4
Integration Time (sec): 2.000000E-2
Scans to average: 1
Electric dark correction enabled: true
Nonlinearity correction enabled: false
Boxcar width: 0
XAxis mode: Wavelengths
Number of Pixels in Spectrum: 3648
>>>>>Begin Spectral Data<<<<<
178.204	-141.82
178.424	-141.82
178.644	-141.82
178.864	-129.53
179.084	-98.81
179.304	-16.9
179.524	50.69
179.744	-16.9
179.964	73.21
180.184	-45.57
180.404	36.35
180.624	-53.76
180.844	28.16
181.064	-90.62
181.283	116.22
181.503	-64
181.723	-16.9
181.943	40.45
182.163	9.73
182.383	5.63
182.602	81.41
182.822	81.41
183.042	50.69
183.262	42.5
183.482	-16.9
183.701	44.54
183.921	50.69
184.141	-45.57
184.361	26.11
184.58	7.68
184.8	26.11
185.02	97.79
185.239	42.5
185.459	75.26
185.679	75.26
185.898	-45.57
186.118	7.68
186.338	3.58
186.557	48.64
186.777	1.54
186.997	110.08
187.216	24.06
187.436	50.69
187.655	-8.7
187.875	40.45
188.095	15.87
188.314	75.26
188.534	15.87
188.753	17.92
188.973	-4.61
189.192	9.73
189.412	48.64
189.631	22.02
189.851	9.73
190.07	44.54
190.29	-49.66
190.509	40.45
190.729	7.68
190.948	56.83
191.168	108.03
191.387	40.45
191.607	-18.94
191.826	30.21
192.045	58.88
192.265	24.06
192.484	32.26
192.704	75.26
192.923	7.68
193.142	118.27
193.362	44.54
193.581	42.5
193.8	7.68
194.02	65.02
194.239	40.45
194.458	-12.8
194.678	-43.52
194.897	3.58
195.116	3.58
195.335	-8.7
195.555	40.45
195.774	36.35
195.993	56.83
196.212	73.21
196.432	15.87
196.651	50.69
196.87	-25.09
197.089	173.57
197.308	7.68
197.528	9.73
197.747	-14.85
197.966	1.54
198.185	87.55
198.404	-8.7
198.623	24.06
198.842	-14.85
199.062	40.45
199.281	73.21
199.5	9.73
199.719	105.98
199.938	-43.52
200.157	1.54
200.376	-33.28
200.595	89.6
200.814	-4.61
201.033	65.02
201.252	60.93
201.471	-8.7
201.69	44.54
201.909	-33.28
202.128	36.35
202.347	26.11
202.566	5.63
202.785	-0.51
203.004	-23.04
203.223	-41.47
203.442	-0.51
203.661	19.97
203.879	-39.42
204.098	30.21
204.317	-8.7
204.536	56.83
204.755	56.83
204.974	77.31
205.193	-8.7
205.411	42.5
205.63	-4.61
205.849	-49.66
206.068	28.16
206.287	15.87
206.505	19.97
206.724	91.65
206.943	3.58
207.162	42.5
207.381	-20.99
207.599	28.16
207.818	36.35
208.037	-49.66
208.255	52.74
208.474	-6.66
208.693	19.97
208.911	81.41
209.13	99.84
209.349	26.11
209.567	65.02
209.786	42.5
210.005	9.73
210.223	-4.61
210.442	32.26
210.661	-0.51
210.879	1.54
211.098	9.73
211.316	-16.9
211.535	114.17
211.753	30.21
211.972	3.58
212.191	-20.99
212.409	54.78
212.628	44.54
212.846	-35.33
213.065	13.82
213.283	81.41
213.502	65.02
213.72	17.92
213.938	40.45
214.157	-0.51
214.375	97.79
214.594	48.64
214.812	11.78
215.031	-6.66
215.249	-0.51
215.467	-14.85
215.686	28.16
215.904	73.21
216.122	-4.61
216.341	108.03
216.559	24.06
216.778	83.45
216.996	62.98
217.214	-8.7
217.432	3.58
217.651	26.11
217.869	22.02
218.087	11.78
218.306	-45.57
218.524	67.07
218.742	28.16
218.96	42.5
219.179	-12.8
219.397	13.82
219.615	85.5
219.833	3.58
220.051	-102.91
220.27	97.79
220.488	-6.66
220.706	56.83
220.924	-45.57
221.142	-0.51
221.36	34.3
221.578	1.54
221.796	-4.61
222.015	44.54
222.233	-23.04
222.451	151.04
222.669	-16.9
222.887	32.26
223.105	56.83
223.323	-68.09
223.541	44.54
223.759	11.78
223.977	36.35
224.195	42.5
224.413	15.87
224.631	95.74
224.849	-8.7
225.067	81.41
225.285	32.26
225.503	-33.28
225.721	19.97
225.939	83.45
226.157	-33.28
226.375	40.45
226.592	34.3
226.81	24.06
227.028	34.3
227.246	40.45
227.464	-55.81
227.682	40.45
227.9	38.4
228.117	30.21
228.335	52.74
228.553	34.3
228.771	26.11
228.989	71.17
229.206	-10.75
229.424	-14.85
229.642	-0.51
229.86	42.5
230.077	40.45
230.295	-4.61
230.513	-0.51
230.731	50.69
230.948	-0.51
231.166	50.69
231.384	85.5
231.601	26.11
231.819	89.6
232.037	118.27
232.254	-98.81
232.472	40.45
232.689	50.69
232.907	146.94
233.125	-16.9
233.342	56.83
233.56	-0.51
233.777	122.37
233.995	87.55
234.213	77.31
234.43	99.84
234.648	44.54
234.865	-49.66
235.083	11.78
235.3	-16.9
235.518	15.87
235.735	52.74
235.953	34.3
236.17	81.41
236.388	-0.51
236.605	17.92
236.822	73.21
237.04	24.06
237.257	65.02
237.475	19.97
237.692	38.4
237.909	85.5
238.127	1.54
238.344	60.93
238.562	36.35
238.779	-14.85
238.996	15.87
239.214	-20.99
239.431	58.88
239.648	-47.62
239.865	44.54
240.083	3.58
240.3	56.83
240.517	-33.28
240.735	3.58
240.952	75.26
241.169	77.31
241.386	-31.23
241.603	40.45
241.821	-55.81
242.038	24.06
242.255	-31.23
242.472	75.26
242.689	69.12
242.907	15.87
243.124	15.87
243.341	60.93
243.558	48.64
243.775	-39.42
243.992	67.07
244.209	93.69
244.426	85.5
244.643	30.21
244.86	-18.94
245.078	1.54
245.295	73.21
245.512	112.13
245.729	-12.8
245.946	-16.9
246.163	48.64
246.38	50.69
246.597	-41.47
246.814	77.31
247.031	-2.56
247.248	-23.04
247.464	50.69
247.681	32.26
247.898	34.3
248.115	50.69
248.332	-16.9
248.549	79.36
248.766	44.54
248.983	73.21
249.2	-16.9
249.417	91.65
249.633	-0.51
249.85	24.06
250.067	-0.51
250.284	54.78
250.501	-0.51
250.717	101.89
250.934	-4.61
251.151	-0.51
251.368	56.83
251.585	58.88
251.801	36.35
252.018	-39.42
252.235	34.3
252.451	-2.56
252.668	-6.66
252.885	48.64
253.102	26.11
253.318	65.02
253.535	28.16
253.752	-4.61
253.968	73.21
254.185	36.35
254.401	17.92
254.618	103.93
254.835	17.92
255.051	17.92
255.268	42.5
255.484	-16.9
255.701	46.59
255.917	44.54
256.134	-33.28
256.351	9.73
256.567	3.58
256.784	-0.51
257	-41.47
257.217	36.35
257.433	30.21
257.65	26.11
257.866	-12.8
258.082	48.64
258.299	32.26
258.515	17.92
258.732	24.06
258.948	7.68
259.165	-31.23
259.381	-78.33
259.597	17.92
259.814	-8.7
260.03	-14.85
260.246	30.21
260.463	50.69
260.679	19.97
260.895	34.3
261.112	36.35
261.328	-6.66
261.544	-43.52
261.761	85.5
261.977	7.68
262.193	1.54
262.409	52.74
262.626	42.5
262.842	46.59
263.058	30.21
263.274	46.59
263.49	-33.28
263.707	32.26
263.923	67.07
264.139	22.02
264.355	34.3
264.571	77.31
264.787	46.59
265.004	85.5
265.22	15.87
265.436	-49.66
265.652	-16.9
265.868	26.11
266.084	24.06
266.3	40.45
266.516	22.02
266.732	40.45
266.948	65.02
267.164	50.69
267.38	73.21
267.596	81.41
267.812	151.04
268.028	-33.28
268.244	15.87
268.46	7.68
268.676	40.45
268.892	32.26
269.108	-37.38
269.324	-0.51
269.54	42.5
269.756	122.37
269.972	-20.99
270.188	65.02
270.403	19.97
270.619	9.73
270.835	-8.7
271.051	-8.7
271.267	93.69
271.483	-33.28
271.698	15.87
271.914	-37.38
272.13	24.06
272.346	75.26
272.562	24.06
272.777	130.56
272.993	75.26
273.209	24.06
273.425	24.06
273.64	73.21
273.856	40.45
274.072	-25.09
274.287	-4.61
274.503	89.6
274.719	-127.49
274.934	73.21
275.15	1.54
275.366	-12.8
275.581	34.3
275.797	89.6
276.012	36.35
276.228	-8.7
276.444	9.73
276.659	26.11
276.875	-14.85
277.09	-33.28
277.306	52.74
277.521	-4.61
277.737	7.68
277.952	60.93
278.168	54.78
278.383	3.58
278.599	32.26
278.814	30.21
279.03	24.06
279.245	26.11
279.461	-2.56
279.676	65.02
279.892	-39.42
280.107	67.07
280.322	-12.8
280.538	13.82
280.753	-37.38
280.969	-4.61
281.184	73.21
281.399	83.45
281.615	-27.14
281.83	-82.43
282.045	-8.7
282.26	-10.75
282.476	103.93
282.691	79.36
282.906	22.02
283.122	-0.51
283.337	-57.86
283.552	-4.61
283.767	9.73
283.983	22.02
284.198	-8.7
284.413	-14.85
284.628	13.82
284.843	40.45
285.058	-45.57
285.274	52.74
285.489	67.07
285.704	-8.7
285.919	-33.28
286.134	75.26
286.349	-12.8
286.564	69.12
286.779	56.83
286.995	48.64
287.21	3.58
287.425	67.07
287.64	-25.09
287.855	73.21
288.07	-4.61
288.285	28.16
288.5	60.93
288.715	7.68
288.93	97.79
289.145	26.11
289.36	91.65
289.575	52.74
289.79	44.54
290.004	3.58
290.219	42.5
290.434	11.78
290.649	5.63
290.864	-14.85
291.079	56.83
291.294	85.5
291.509	-12.8
291.724	40.45
291.938	26.11
292.153	58.88
292.368	28.16
292.583	101.89
292.798	40.45
293.012	71.17
293.227	42.5
293.442	32.26
293.657	48.64
293.871	52.74
294.086	5.63
294.301	105.98
294.516	67.07
294.73	56.83
294.945	50.69
295.16	34.3
295.374	42.5
295.589	19.97
295.804	9.73
296.018	65.02
296.233	40.45
296.447	65.02
296.662	15.87
296.877	89.6
297.091	-29.18
297.306	52.74
297.52	-20.99
297.735	50.69
297.949	-25.09
298.164	112.13
298.378	15.87
298.593	-33.28
298.807	-35.33
299.022	77.31
299.236	56.83
299.451	-4.61
299.665	40.45
299.88	-37.38
300.094	7.68
300.309	7.68
300.523	73.21
300.737	52.74
300.952	85.5
301.166	15.87
301.381	38.4
301.595	44.54
301.809	24.06
302.024	65.02
302.238	-16.9
302.452	7.68
302.667	-20.99
302.881	65.02
303.095	50.69
303.309	-33.28
303.524	15.87
303.738	34.3
303.952	-70.14
304.166	34.3
304.381	5.63
304.595	9.73
304.809	15.87
305.023	19.97
305.237	-16.9
305.452	50.69
305.666	1.54
305.88	34.3
306.094	36.35
306.308	1.54
306.522	42.5
306.736	69.12
306.95	7.68
307.164	19.97
307.379	50.69
307.593	15.87
307.807	42.5
308.021	36.35
308.235	48.64
308.449	-29.18
308.663	17.92
308.877	81.41
309.091	19.97
309.305	32.26
309.519	32.26
309.733	9.73
309.947	7.68
310.161	128.51
310.374	40.45
310.588	89.6
310.802	-25.09
311.016	52.74
311.23	60.93
311.444	120.32
311.658	-33.28
311.872	110.08
312.085	28.16
312.299	73.21
312.513	24.06
312.727	40.45
312.941	62.98
313.154	7.68
313.368	-14.85
313.582	52.74
313.796	89.6
314.009	89.6
314.223	65.02
314.437	40.45
314.651	130.56
314.864	40.45
315.078	22.02
315.292	-12.8
315.505	32.26
315.719	50.69
315.933	36.35
316.146	-2.56
316.36	71.17
316.573	13.82
316.787	56.83
317.001	56.83
317.214	-8.7
317.428	40.45
317.641	-16.9
317.855	118.27
318.068	67.07
318.282	-8.7
318.495	40.45
318.709	79.36
318.922	-16.9
319.136	128.51
319.349	83.45
319.563	7.68
319.776	-2.56
319.99	17.92
320.203	130.56
320.417	36.35
320.63	118.27
320.843	15.87
321.057	38.4
321.27	32.26
321.483	77.31
321.697	89.6
321.91	1.54
322.124	26.11
322.337	15.87
322.55	65.02
322.763	-49.66
322.977	65.02
323.19	-12.8
323.403	15.87
323.617	77.31
323.83	81.41
324.043	28.16
324.256	105.98
324.469	17.92
324.683	34.3
324.896	32.26
325.109	19.97
325.322	-37.38
325.535	36.35
325.748	-4.61
325.962	44.54
326.175	99.84
326.388	52.74
326.601	114.17
326.814	54.78
327.027	44.54
327.24	75.26
327.453	-37.38
327.666	-14.85
327.879	15.87
328.092	34.3
328.305	32.26
328.518	28.16
328.731	7.68
328.944	-31.23
329.157	-20.99
329.37	24.06
329.583	19.97
329.796	56.83
330.009	-27.14
330.222	83.45
330.435	60.93
330.648	44.54
330.861	19.97
331.073	15.87
331.286	38.4
331.499	81.41
331.712	13.82
331.925	89.6
332.138	-29.18
332.35	75.26
332.563	-20.99
332.776	65.02
332.989	28.16
333.202	65.02
333.414	-10.75
333.627	9.73
333.84	1.54
334.053	50.69
334.265	46.59
334.478	-8.7
334.691	-12.8
334.903	1.54
335.116	34.3
335.329	81.41
335.541	7.68
335.754	34.3
335.966	34.3
336.179	32.26
336.392	36.35
336.604	-45.57
336.817	83.45
337.029	77.31
337.242	48.64
337.454	62.98
337.667	24.06
337.88	36.35
338.092	48.64
338.305	42.5
338.517	-39.42
338.729	48.64
338.942	65.02
339.154	-31.23
339.367	52.74
339.579	122.37
339.792	58.88
340.004	28.16
340.217	-8.7
340.429	40.45
340.641	40.45
340.854	9.73
341.066	24.06
341.278	24.06
341.491	99.84
341.703	-8.7
341.915	-4.61
342.128	3.58
342.34	1.54
342.552	40.45
342.764	-4.61
342.977	48.64
343.189	62.98
343.401	48.64
343.613	32.26
343.826	36.35
344.038	75.26
344.25	-18.94
344.462	-6.66
344.674	56.83
344.886	3.58
345.099	50.69
345.311	77.31
345.523	11.78
345.735	-4.61
345.947	48.64
346.159	22.02
346.371	77.31
346.583	-2.56
346.795	130.56
347.007	81.41
347.219	40.45
347.431	17.92
347.643	114.17
347.855	1.54
348.067	24.06
348.279	44.54
348.491	48.64
348.703	71.17
348.915	48.64
349.127	24.06
349.339	-0.51
349.551	89.6
349.763	44.54
349.975	28.16
350.187	67.07
350.399	34.3
350.61	50.69
350.822	58.88
351.034	75.26
351.246	60.93
351.458	42.5
351.669	34.3
351.881	62.98
352.093	130.56
352.305	-2.56
352.517	24.06
352.728	163.33
352.94	36.35
353.152	69.12
353.363	11.78
353.575	7.68
353.787	40.45
353.999	-16.9
354.21	67.07
354.422	34.3
354.633	36.35
354.845	38.4
355.057	28.16
355.268	42.5
355.48	114.17
355.692	-0.51
355.903	54.78
356.115	19.97
356.326	3.58
356.538	26.11
356.749	52.74
356.961	56.83
357.172	54.78
357.384	114.17
357.595	65.02
357.807	60.93
358.018	34.3
358.23	-41.47
358.441	17.92
358.653	52.74
358.864	-29.18
359.075	15.87
359.287	40.45
359.498	50.69
359.709	15.87
359.921	38.4
360.132	52.74
360.344	73.21
360.555	26.11
360.766	28.16
360.977	-2.56
361.189	62.98
361.4	15.87
361.611	97.79
361.823	67.07
362.034	65.02
362.245	-37.38
362.456	32.26
362.667	48.64
362.879	97.79
363.09	-23.04
363.301	65.02
363.512	40.45
363.723	50.69
363.935	7.68
364.146	-8.7
364.357	34.3
364.568	34.3
364.779	1.54
364.99	9.73
365.201	60.93
365.412	7.68
365.623	-0.51
365.834	83.45
366.045	17.92
366.256	26.11
366.467	-8.7
366.678	30.21
366.889	52.74
367.1	15.87
367.311	77.31
367.522	24.06
367.733	50.69
367.944	48.64
368.155	-31.23
368.366	118.27
368.577	56.83
368.788	28.16
368.999	7.68
369.209	-14.85
369.42	134.65
369.631	81.41
369.842	-20.99
370.053	17.92
370.264	32.26
370.474	73.21
370.685	-2.56
370.896	56.83
371.107	58.88
371.317	110.08
371.528	-29.18
371.739	110.08
371.95	15.87
372.16	65.02
372.371	-0.51
372.582	26.11
372.792	146.94
373.003	-4.61
373.214	62.98
373.424	-14.85
373.635	9.73
373.846	26.11
374.056	15.87
374.267	48.64
374.477	144.89
374.688	24.06
374.898	38.4
375.109	81.41
375.319	-18.94
375.53	24.06
375.74	38.4
375.951	-4.61
376.161	108.03
376.372	17.92
376.582	7.68
376.793	-4.61
377.003	-37.38
377.214	1.54
377.424	3.58
377.635	42.5
377.845	50.69
378.055	38.4
378.266	-4.61
378.476	91.65
378.686	19.97
378.897	65.02
379.107	91.65
379.317	105.98
379.528	48.64
379.738	83.45
379.948	32.26
380.158	73.21
380.369	58.88
380.579	50.69
380.789	67.07
380.999	103.93
381.21	142.85
381.42	44.54
381.63	71.17
381.84	69.12
382.05	71.17
382.261	56.83
382.471	101.89
382.681	48.64
382.891	91.65
383.101	58.88
383.311	-2.56
383.521	56.83
383.731	62.98
383.941	155.13
384.151	75.26
384.361	32.26
384.571	77.31
384.781	157.18
384.991	97.79
385.201	73.21
385.411	124.41
385.621	1.54
385.831	-0.51
386.041	44.54
386.251	48.64
386.461	73.21
386.671	52.74
386.881	7.68
387.091	24.06
387.301	34.3
387.511	81.41
387.72	48.64
387.93	103.93
388.14	81.41
388.35	19.97
388.56	138.75
388.769	99.84
388.979	77.31
389.189	130.56
389.399	-6.66
389.609	118.27
389.818	89.6
390.028	105.98
390.238	69.12
390.447	56.83
390.657	54.78
390.867	34.3
391.076	11.78
391.286	28.16
391.496	60.93
391.705	65.02
391.915	60.93
392.125	36.35
392.334	50.69
392.544	108.03
392.753	28.16
392.963	67.07
393.172	116.22
393.382	32.26
393.591	65.02
393.801	81.41
394.01	97.79
394.22	81.41
394.429	34.3
394.639	34.3
394.848	69.12
395.058	30.21
395.267	11.78
395.477	48.64
395.686	99.84
395.895	11.78
396.105	163.33
396.314	56.83
396.524	126.46
396.733	83.45
396.942	110.08
397.152	124.41
397.361	114.17
397.57	44.54
397.78	97.79
397.989	24.06
398.198	105.98
398.407	75.26
398.617	65.02
398.826	171.52
399.035	30.21
399.244	73.21
399.453	40.45
399.663	56.83
399.872	167.42
400.081	114.17
400.29	142.85
400.499	77.31
400.708	122.37
400.917	105.98
401.127	91.65
401.336	95.74
401.545	118.27
401.754	148.99
401.963	58.88
402.172	93.69
402.381	124.41
402.59	71.17
402.799	130.56
403.008	114.17
403.217	101.89
403.426	108.03
403.635	58.88
403.844	105.98
404.053	112.13
404.262	165.37
404.471	81.41
404.68	140.8
404.888	196.09
405.097	138.75
405.306	196.09
405.515	175.61
405.724	140.8
405.933	173.57
406.142	146.94
406.35	165.37
406.559	151.04
406.768	192
406.977	224.76
407.185	110.08
407.394	148.99
407.603	208.38
407.812	220.67
408.02	255.48
408.229	232.96
408.438	237.05
408.646	185.85
408.855	228.86
409.064	232.96
409.272	228.86
409.481	278.01
409.69	253.44
409.898	243.2
410.107	286.2
410.315	230.91
410.524	257.53
410.733	269.82
410.941	224.76
411.15	269.82
411.358	249.34
411.567	302.59
411.775	284.16
411.984	374.27
412.192	364.03
412.401	368.12
412.609	376.31
412.818	327.16
413.026	437.75
413.234	419.32
413.443	374.27
413.651	527.86
413.86	507.38
414.068	531.96
414.276	615.93
414.485	511.48
414.693	521.72
414.901	562.68
415.11	574.97
415.318	577.02
415.526	536.06
415.734	679.41
415.943	640.5
416.151	794.1
416.359	706.04
416.567	650.74
416.776	757.24
416.984	744.95
417.192	837.11
417.4	808.44
417.608	806.39
417.817	859.63
418.025	845.3
418.233	1002.99
418.441	882.16
418.649	980.47
418.857	1035.76
419.065	1093.1
419.273	1129.97
419.481	1027.57
419.689	1195.5
419.897	1254.89
420.105	1127.92
420.313	1320.43
420.521	1361.39
420.729	1359.34
420.937	1375.72
421.145	1539.56
421.353	1512.94
421.561	1553.9
421.769	1621.48
421.977	1744.36
422.185	1766.89
422.393	1783.27
422.601	1881.57
422.809	1854.95
423.017	1924.58
423.224	2016.74
423.432	2104.8
423.64	2033.12
423.848	2174.43
424.056	2112.99
424.263	2282.97
424.471	2260.45
424.679	2285.02
424.887	2481.63
425.094	2504.15
425.302	2686.42
425.51	2729.43
425.718	2858.45
425.925	2868.69
426.133	2874.84
426.341	3161.55
426.548	3280.33
426.756	3141.07
426.964	3309.01
427.171	3374.54
427.379	3489.23
427.586	3591.63
427.794	3749.32
428.001	3970.5
428.209	3997.12
428.417	3825.09
428.624	4206.02
428.832	4357.57
429.039	4349.37
429.247	4212.16
429.454	4568.51
429.662	4869.56
429.869	4496.83
430.076	4922.8
430.284	4556.22
430.491	4955.57
430.699	5375.41
430.906	5295.54
431.114	5242.29
431.321	5490.09
431.528	5746.09
431.736	5907.88
431.943	6120.87
432.15	6061.48
432.358	6135.2
432.565	6610.33
432.772	6397.34
432.979	6753.69
433.187	6856.09
433.394	6950.29
433.601	7396.75
433.808	7396.75
434.016	7308.69
434.223	7767.43
434.43	8121.73
434.637	7953.8
434.844	8390.02
435.052	8584.57
435.259	8504.7
435.466	8637.82
435.673	8592.76
435.88	9194.87
436.087	9608.56
436.294	9583.98
436.501	9502.06
436.708	9475.44
436.915	9792.87
437.122	10296.67
437.329	10208.61
437.537	10382.69
437.743	10898.78
437.95	10626.4
438.157	11486.54
438.364	11685.2
438.571	11441.49
438.778	11590.99
438.985	12959.03
439.192	12158.28
439.399	12541.25
439.606	12418.37
439.813	13151.54
440.02	13569.33
440.227	13806.89
440.433	13477.17
440.64	13776.17
440.847	13927.72
441.054	14142.76
441.261	15215.9
441.467	14947.61
441.674	15219.99
441.881	15592.72
442.088	15580.43
442.294	15723.79
442.501	15985.93
442.708	16182.54
442.914	16973.05
443.121	17855.73
443.328	17079.55
443.534	18523.37
443.741	17745.14
443.948	17599.73
444.154	18314.47
444.361	18795.75
444.568	18719.97
444.774	18732.26
444.981	19035.36
445.187	19496.15
445.394	20528.33
445.6	20153.55
445.807	22154.41
446.013	21304.51
446.22	21603.51
446.426	22404.27
446.633	22361.26
446.839	23358.62
447.046	22199.47
447.252	23641.24
447.459	23932.05
447.665	23538.84
447.871	24671.37
448.078	25539.71
448.284	24513.67
448.491	25259.13
448.697	26055.79
448.903	26371.18
449.11	26567.79
449.316	25713.78
449.522	26360.94
449.728	27309.15
449.935	27761.75
450.141	27444.32
450.347	28320.85
450.553	27309.15
450.76	27675.74
450.966	28453.97
451.172	27716.7
451.378	28949.57
451.584	28331.09
451.791	29389.89
451.997	29060.16
452.203	29611.07
452.409	29670.46
452.615	29434.94
452.821	28234.83
453.027	28427.34
453.233	29457.47
453.44	28251.22
453.646	28841.03
453.852	29072.45
454.058	29166.66
454.264	28632.14
454.47	28867.66
454.676	28185.68
454.882	29398.08
455.088	26563.69
455.294	27184.23
455.5	27792.47
455.705	28015.7
455.911	26950.76
456.117	26141.81
456.323	26066.03
456.529	24679.56
456.735	25818.23
456.941	24931.46
457.147	24544.39
457.352	23719.06
457.558	23706.77
457.764	23559.32
457.97	23116.96
458.176	22762.66
458.381	23059.62
458.587	21787.83
458.793	21750.96
458.999	20745.41
459.204	21990.58
459.41	21435.58
459.616	20069.58
459.821	20036.81
460.027	20040.91
460.233	19639.51
460.438	18738.4
460.644	19131.61
460.85	17880.3
461.055	17685.75
461.261	17794.29
461.466	16395.53
461.672	15947.02
461.878	16964.86
462.083	15818
462.289	15701.26
462.494	15699.22
462.7	14794.01
462.905	14204.2
463.111	14916.89
463.316	14851.36
463.522	14249.25
463.727	14501.15
463.932	14431.52
464.138	14466.34
464.343	14402.85
464.549	14085.42
464.754	14427.43
464.959	14075.18
465.165	14253.35
465.37	13600.05
465.575	13413.68
465.781	13968.68
465.986	13770.03
466.191	13270.33
466.397	13155.64
466.602	12494.15
466.807	13196.6
467.012	12856.64
467.218	12827.96
467.423	12657.98
467.628	12791.1
467.833	13376.82
468.038	12750.14
468.244	12444.99
468.449	12780.86
468.654	12528.96
468.859	12385.6
469.064	12154.18
469.269	11797.84
469.474	11683.15
469.679	12254.53
469.885	11922.76
470.09	11978.06
470.295	11820.36
470.5	11597.14
470.705	11539.79
470.91	11353.43
471.115	11341.14
471.32	11427.15
471.525	11482.45
471.73	11140.44
471.935	10964.31
472.139	10532.19
472.344	10902.87
472.549	10886.49
472.754	10571.1
472.959	10370.4
473.164	10278.24
473.369	10026.34
473.574	10472.8
473.778	10390.88
473.983	10216.8
474.188	10194.28
474.393	9819.5
474.598	9848.17
474.802	9803.11
475.007	9796.97
475.212	9813.35
475.417	9389.42
475.621	9414
475.826	9457.01
476.031	9293.17
476.235	9153.91
476.44	9424.24
476.645	9037.17
476.849	9084.28
477.054	8889.72
477.259	8643.96
477.463	8725.88
477.668	8463.74
477.872	8691.07
478.077	8359.3
478.282	8207.75
478.486	8207.75
478.691	8115.59
478.895	8166.79
479.1	8062.34
479.304	7964.04
479.509	7875.98
479.713	8060.29
479.918	7777.67
480.122	7761.29
480.326	7794.06
480.531	7873.93
480.735	7773.58
480.94	7671.18
481.144	8029.57
481.348	7431.57
481.553	7423.37
481.757	7613.84
481.961	7587.21
482.166	7773.58
482.37	7464.33
482.574	7380.37
482.778	7452.05
482.983	7472.53
483.187	7517.58
483.391	7499.15
483.595	7337.36
483.8	7255.44
484.004	7482.77
484.208	7574.92
484.412	7525.77
484.616	7249.3
484.821	7404.94
485.025	7329.17
485.229	7593.36
485.433	7306.64
485.637	7349.65
485.841	7386.51
486.045	7468.43
486.249	7462.29
486.453	7447.95
486.657	7486.86
486.861	7433.61
487.065	7398.8
487.269	7380.37
487.473	7390.61
487.677	7497.1
487.881	7476.62
488.085	7363.98
488.289	7558.54
488.493	7396.75
488.697	7427.47
488.901	7437.71
489.105	7331.22
489.309	7464.33
489.512	7363.98
489.716	7474.57
489.92	7607.69
490.124	7601.55
490.328	7677.32
490.531	7675.27
490.735	7609.74
490.939	7564.68
491.143	7679.37
491.346	7552.4
491.55	7658.89
491.754	7644.56
491.958	7787.91
492.161	7810.44
492.365	8015.24
492.569	7744.91
492.772	7873.93
492.976	7798.15
493.18	7923.08
493.383	8119.68
493.587	8174.98
493.79	8072.58
493.994	8070.53
494.197	7988.61
494.401	8191.36
494.605	8217.99
494.808	8217.99
495.012	8211.84
495.215	8256.9
495.419	8512.89
495.622	8469.89
495.825	8578.43
496.029	8492.41
496.232	8715.64
496.436	8600.96
496.639	8908.15
496.843	8805.75
497.046	9016.69
497.249	9217.4
497.453	9180.53
497.656	9405.81
497.859	9239.92
498.063	9362.8
498.266	9653.61
498.469	9592.17
498.673	9637.23
498.876	9723.24
499.079	10057.06
499.282	9778.54
499.485	10132.84
499.689	10007.91
499.892	10376.55
500.095	10282.34
500.298	10569.05
500.501	10394.98
500.705	11056.47
500.908	10980.7
501.111	10958.17
501.314	10902.87
501.517	11126.1
501.72	11453.78
501.923	11349.33
502.126	11459.92
502.329	11803.98
502.532	11588.94
502.735	11914.57
502.938	12057.93
503.141	12070.22
503.344	12244.29
503.547	12238.15
503.75	12510.53
503.953	12715.33
504.156	12766.53
504.359	12854.59
504.562	13073.72
504.765	13253.94
504.968	13290.81
505.17	13460.79
505.373	13471.03
505.576	13997.35
505.779	13856.04
505.982	14093.61
506.185	14302.5
506.387	14488.87
506.59	14421.28
506.793	14716.19
506.996	14673.18
507.198	15060.25
507.401	15113.5
507.604	15117.59
507.807	15359.25
508.009	15691.02
508.212	15559.95
508.415	15795.47
508.617	16037.13
508.82	16035.08
509.022	16039.18
509.225	16573.7
509.428	16514.31
509.63	16862.46
509.833	16739.58
510.035	17112.31
510.238	16825.6
510.44	17145.08
510.643	17847.54
510.845	17808.62
511.048	17620.21
511.25	17747.19
511.453	18044.14
511.655	18996.45
511.858	18556.13
512.06	18652.39
512.262	18711.78
512.465	18685.15
512.667	18930.91
512.87	19315.93
513.072	19264.73
513.274	19659.99
513.477	19676.37
513.679	20102.35
513.881	20290.76
514.084	20470.98
514.286	20413.64
514.488	20870.34
514.69	21370.04
514.893	21103.81
515.095	21013.7
515.297	21693.62
515.499	21826.74
515.701	21607.61
515.904	22033.58
516.106	22328.49
516.308	22658.21
516.51	22631.59
516.712	22797.48
516.914	22854.82
517.116	23463.07
517.318	23235.74
517.52	23487.64
517.722	23737.49
517.925	23880.85
518.127	24188.05
518.329	24198.29
518.531	24190.09
518.733	24773.77
518.935	25029.76
519.136	24743.05
519.338	25496.7
519.54	25345.15
519.742	25676.92
519.944	25689.21
520.146	25963.64
520.348	26330.22
520.55	26158.19
520.752	26520.68
520.954	27231.33
521.155	26739.82
521.357	27421.79
521.559	27771.99
521.761	27753.56
521.963	27769.94
522.164	28171.35
522.366	27837.53
522.568	28523.6
522.77	28398.67
522.971	29082.69
523.173	28582.99
523.375	29121.6
523.576	28838.98
523.778	28787.78
523.98	29592.64
524.181	29525.05
524.383	29600.83
524.584	29908.02
524.786	29824.06
524.988	29889.59
525.189	30440.5
525.391	30440.5
525.592	30475.31
525.794	30805.03
525.995	30639.15
526.197	31169.57
526.398	31101.99
526.6	31360.03
526.801	31317.03
527.003	31280.16
527.204	31089.7
527.406	31775.77
527.607	31679.52
527.808	32101.4
528.01	31824.92
528.211	31859.74
528.412	32394.26
528.614	32027.67
528.815	32277.52
529.016	32592.91
529.218	32152.6
529.419	32689.17
529.62	32861.19
529.822	32603.15
530.023	32283.67
530.224	32723.98
530.425	32558.1
530.626	32830.48
530.828	32140.31
531.029	33252.36
531.23	32773.13
531.431	32853
531.632	32959.5
531.833	32893.96
532.035	32834.57
532.236	33623.04
532.437	33289.22
532.638	32922.63
532.839	33254.4
533.04	33336.32
533.241	33188.87
533.442	33369.09
533.643	33465.35
533.844	33109
534.045	33481.73
534.246	33254.4
534.447	33350.66
534.648	33557.5
534.849	33475.59
535.05	33180.68
535.251	33405.95
535.451	33190.92
535.652	33360.9
535.853	33438.72
536.054	33496.06
536.255	33385.47
536.456	32957.45
536.657	33725.44
536.857	33106.95
537.058	33225.73
537.259	33592.32
537.46	33563.65
537.66	33446.91
537.861	33072.14
538.062	33438.72
538.263	33410.05
538.463	33274.88
538.664	33270.79
538.865	33813.5
539.065	33594.37
539.266	33006.6
539.466	33518.59
539.667	32912.39
539.868	33655.81
540.068	33195.01
540.269	33401.86
540.469	33567.74
540.67	33072.14
540.87	33338.37
541.071	33240.07
541.271	33313.8
541.472	33231.88
541.672	33063.94
541.873	33227.78
542.073	32377.87
542.274	33584.13
542.474	33338.37
542.675	32887.82
542.875	33346.56
543.075	33135.62
543.276	33125.38
543.476	33518.59
543.676	33055.75
543.877	33104.9
544.077	33395.71
544.277	33045.51
544.478	33213.45
544.678	33242.12
544.878	33041.42
545.078	33145.86
545.279	32728.08
545.479	33125.38
545.679	32916.49
545.879	33158.15
546.079	33141.77
546.28	32850.95
546.48	32637.97
546.68	32979.98
546.88	33057.8
547.08	32853
547.28	32781.32
547.48	32803.85
547.68	33053.7
547.88	32539.66
548.081	33125.38
548.281	33061.9
548.481	32766.99
548.681	32885.77
548.881	33006.6
549.081	32906.25
549.28	32517.14
549.48	32971.78
549.68	32834.57
549.88	33334.28
550.08	32627.73
550.28	32580.62
550.48	32314.39
550.68	32853
550.88	32564.24
551.08	32805.9
551.279	32746.51
551.479	32578.57
551.679	32691.21
551.879	32680.97
552.079	32744.46
552.278	32373.78
552.478	32887.82
552.678	32599.05
552.878	32699.41
553.077	32373.78
553.277	32093.21
553.477	33063.94
553.676	32592.91
553.876	32345.11
554.076	32334.87
554.275	32207.89
554.475	32437.27
554.674	32752.65
554.874	32535.57
555.074	31955.99
555.273	32209.94
555.473	32490.51
555.672	32211.99
555.872	32273.43
556.071	31925.27
556.271	32226.32
556.47	32017.43
556.67	31781.92
556.869	31847.45
557.068	32269.33
557.268	31681.56
557.467	32029.72
557.667	31892.51
557.866	31976.47
558.065	31755.29
558.265	31656.99
558.464	31540.25
558.663	31759.39
558.863	31415.33
559.062	31945.75
559.261	31431.71
559.461	31720.48
559.66	31274.02
559.859	31280.16
560.058	31038.5
560.258	31370.27
560.457	30798.89
560.656	31337.51
560.855	30796.84
561.054	31296.55
561.253	31214.63
561.453	31120.42
561.652	31327.27
561.851	31134.76
562.05	31036.45
562.249	30858.28
562.448	31296.55
562.647	30852.14
562.846	30737.45
563.045	31089.7
563.244	30381.1
563.443	31011.88
563.642	30499.89
563.841	30680.11
564.04	30450.74
564.239	30745.64
564.438	30184.5
564.637	30295.09
564.836	30329.91
565.035	30237.75
565.234	30209.08
565.432	29914.17
565.631	30297.14
565.83	29805.63
566.029	29813.82
566.228	29953.08
566.427	29611.07
566.625	29881.4
566.824	29389.89
567.023	29547.58
567.222	29166.66
567.42	29715.51
567.619	29615.16
567.818	29649.98
568.016	29232.19
568.215	29801.53
568.414	29482.05
568.612	29572.16
568.811	29215.81
569.01	29064.26
569.208	28757.07
569.407	29576.25
569.605	28550.22
569.804	29164.61
570.002	28642.38
570.201	28994.63
570.4	28845.13
570.598	28673.1
570.797	28251.22
570.995	28673.1
571.193	28175.44
571.392	28505.17
571.59	28019.8
571.789	28347.47
571.987	28013.65
572.186	28109.91
572.384	27925.59
572.582	28376.14
572.781	28210.26
572.979	27681.88
573.177	28187.73
573.376	28011.6
573.574	27550.81
573.772	27372.64
573.971	27657.31
574.169	27479.13
574.367	27182.18
574.565	27552.86
574.763	27128.93
574.962	27122.79
575.16	26989.67
575.358	27145.31
575.556	26920.04
575.754	27780.18
575.952	26696.81
576.151	27114.59
576.349	26838.12
576.547	26745.96
576.745	26449
576.943	26926.18
577.141	26475.63
577.339	26819.69
577.537	26672.23
577.735	26637.42
577.933	26440.81
578.131	26287.21
578.329	26113.14
578.527	25963.64
578.725	26090.61
578.923	26326.13
579.121	26012.79
579.319	25578.62
579.516	26313.84
579.714	26084.47
579.912	25543.8
580.11	25877.62
580.308	25754.74
580.506	25451.64
580.704	25375.87
580.901	25384.06
581.099	25478.27
581.297	25447.55
581.495	25298.05
581.692	25248.89
581.89	24990.85
582.088	25228.42
582.285	24994.95
582.483	25142.4
582.681	25240.7
582.878	24892.55
583.076	24407.18
583.274	24687.75
583.471	24425.61
583.669	24716.42
583.866	24595.59
584.064	24575.11
584.262	23903.38
584.459	24634.5
584.657	24108.18
584.854	24681.61
585.052	23841.94
585.249	24079.5
585.447	24067.22
585.644	24046.74
585.841	24073.36
586.039	24038.55
586.236	23839.89
586.434	23835.8
586.631	23321.76
586.828	23526.55
587.026	23712.92
587.223	23532.7
587.42	23332
587.618	23510.17
587.815	23106.72
588.012	22959.27
588.21	23035.04
588.407	23426.2
588.604	22985.89
588.801	22840.48
588.999	22650.02
589.196	23018.66
589.393	22809.76
589.59	22772.9
589.787	22799.52
589.984	22664.36
590.182	22256.81
590.379	22643.88
590.576	22238.38
590.773	22604.97
590.97	22119.6
591.167	21953.71
591.364	22127.79
591.561	22142.13
591.758	21726.39
591.955	22056.11
592.152	22037.68
592.349	21669.05
592.546	21966
592.743	21677.24
592.94	21324.99
593.137	21533.88
593.334	21560.5
593.531	20991.17
593.727	21523.64
593.924	21245.12
594.121	21085.37
594.318	21306.55
594.515	21138.62
594.712	21171.39
594.908	21015.74
595.105	20939.97
595.302	20663.49
595.499	21073.09
595.696	20825.28
595.892	20739.27
596.089	20702.4
596.286	20622.53
596.482	20616.39
596.679	20456.65
596.876	20466.89
597.072	20470.98
597.269	20315.34
597.466	20282.57
597.662	20165.84
597.859	20167.88
598.055	20387.02
598.252	20186.32
598.448	20014.29
598.645	19991.76
598.841	19729.62
599.038	19829.97
599.234	19901.65
599.431	19389.66
599.627	19662.04
599.824	19805.39
600.02	19526.87
600.217	19541.21
600.413	19096.8
600.609	19438.81
600.806	18957.53
601.002	19373.27
601.198	19166.43
601.395	18975.97
601.591	18984.16
601.787	18984.16
601.984	18939.1
602.18	19125.47
602.376	18728.16
602.572	18750.69
602.769	18736.35
602.965	18545.89
603.161	18707.68
603.357	18349.29
603.553	18402.54
603.75	18654.44
603.946	18580.71
604.142	18468.07
604.338	18382.06
604.534	18353.38
604.73	18099.44
604.926	18085.1
605.122	18349.29
605.318	18066.67
605.514	17911.02
605.71	17931.5
605.906	18066.67
606.102	17992.94
606.298	18062.57
606.494	17935.6
606.69	17923.31
606.886	17679.6
607.082	17581.3
607.278	17630.45
607.474	17374.45
607.67	17515.76
607.866	17034.49
608.062	17542.39
608.257	17325.3
608.453	17507.57
608.649	17196.28
608.845	17059.07
609.041	16962.81
609.236	17071.36
609.432	17079.55
609.628	17216.76
609.824	17026.3
610.019	17161.47
610.215	17005.82
610.411	17081.6
610.606	16825.6
610.802	17030.4
610.998	16825.6
611.193	17067.26
611.389	16727.3
611.584	16807.17
611.78	16481.54
611.976	16508.16
612.171	16827.65
612.367	16692.48
612.562	16700.67
612.758	16534.79
612.953	16551.17
613.149	16674.05
613.344	16538.88
613.539	16569.6
613.735	16362.76
613.93	16467.2
614.126	16069.9
614.321	16274.7
614.517	16080.14
614.712	16254.22
614.907	16041.23
615.103	16393.48
615.298	16352.52
615.493	16082.19
615.688	15871.25
615.884	16307.46
616.079	15912.21
616.274	16137.48
616.47	15912.21
616.665	16076.04
616.86	16006.41
617.055	15963.4
617.25	15752.46
617.445	15947.02
617.641	15785.23
617.836	15899.92
618.031	15349.01
618.226	15736.08
618.421	15453.46
618.616	15893.77
618.811	15322.39
619.006	15445.27
619.201	15105.31
619.396	15267.1
619.591	15097.11
619.786	15396.12
619.981	14767.39
620.176	15105.31
620.371	14978.33
620.566	14951.71
620.761	14722.34
620.956	14744.86
621.151	14761.25
621.346	14894.36
621.541	14474.53
621.735	14488.87
621.93	14486.82
622.125	14531.87
622.32	14130.47
622.515	14263.59
622.709	14292.26
622.904	14105.9
623.099	13983.02
623.294	13890.86
623.488	13978.92
623.683	13958.44
623.878	13649.2
624.072	13677.87
624.267	13792.56
624.462	13765.93
624.656	13331.76
624.851	13385.01
625.046	13403.44
625.24	13067.58
625.435	13075.77
625.629	13024.57
625.824	13096.25
626.018	13126.97
626.213	12762.43
626.407	12768.57
626.602	12672.32
626.796	12860.73
626.991	12711.23
627.185	12682.56
627.38	12561.73
627.574	12483.91
627.768	12303.68
627.963	12174.66
628.157	12062.02
628.352	12330.31
628.546	11945.29
628.74	12279.11
628.935	11918.67
629.129	11930.95
629.323	11703.63
629.517	11703.63
629.712	11715.92
629.906	11625.81
630.1	11382.1
630.294	11750.73
630.489	11552.08
630.683	11574.61
630.877	11380.05
631.071	11410.77
631.265	11345.23
631.459	11199.83
631.653	11009.37
631.848	11162.97
632.042	11148.63
632.236	11017.56
632.43	10812.76
632.624	11195.73
632.818	10874.2
633.012	10665.31
633.206	10610.01
633.4	10562.91
633.594	10722.65
633.788	10536.29
633.982	10368.35
634.176	10519.9
634.369	10282.34
634.563	10364.26
634.757	10241.38
634.951	10390.88
635.145	10149.22
635.339	10220.9
635.533	10052.97
635.726	10116.45
635.92	9792.87
636.114	9725.29
636.308	9823.59
636.501	9725.29
636.695	9944.42
636.889	9645.42
637.083	9670
637.276	9502.06
637.47	9377.14
637.664	9459.06
637.857	9510.25
638.051	9168.24
638.244	9436.53
638.438	9489.78
638.632	9342.32
638.825	9196.92
639.019	9133.43
639.212	9125.24
639.406	9108.85
639.599	8971.64
639.793	8957.3
639.986	8742.27
640.18	8871.29
640.373	8977.78
640.567	8701.31
640.76	8883.58
640.954	8603
641.147	8762.75
641.34	8476.03
641.534	8592.76
641.727	8471.93
641.92	8658.3
642.114	8514.94
642.307	8461.69
642.5	8439.17
642.694	8250.75
642.887	8293.76
643.08	8369.54
643.273	8142.21
643.467	8174.98
643.66	7896.46
643.853	7945.61
644.046	8021.38
644.239	7882.12
644.432	8033.67
644.626	7941.51
644.819	7832.97
645.012	7830.92
645.205	7847.3
645.398	7785.87
645.591	7783.82
645.784	7587.21
645.977	7523.73
646.17	7753.1
646.363	7533.97
646.556	7409.04
646.749	7429.52
646.942	7595.4
647.135	7353.74
647.328	7361.94
647.521	7183.76
647.714	7306.64
647.907	7212.43
648.099	7122.32
648.292	7040.4
648.485	7128.47
648.678	7112.08
648.871	6942.1
649.064	6727.07
649.256	6864.28
649.449	6960.53
649.642	6942.1
649.835	6718.87
650.027	6684.06
650.22	6888.85
650.413	6634.91
650.605	6745.5
650.798	6518.17
650.991	6626.71
651.183	6675.87
651.376	6503.84
651.568	6540.7
651.761	6323.62
651.954	6516.12
652.146	6383.01
652.339	6501.79
652.531	6415.77
652.724	6466.97
652.916	6153.63
653.109	6282.66
653.301	6249.89
653.494	6358.43
653.686	6067.62
653.879	6133.15
654.071	5920.17
654.263	6034.85
654.456	6139.3
654.648	6172.07
654.84	5866.92
655.033	5963.17
655.225	5987.75
655.417	5801.38
655.61	5791.14
655.802	5864.87
655.994	5762.47
656.186	5832.1
656.379	5832.1
656.571	5707.18
656.763	5717.42
656.955	5549.48
657.148	5594.54
657.34	5791.14
657.532	5612.97
657.724	5621.16
657.916	5488.04
658.108	5459.37
658.3	5531.05
658.492	5547.44
658.684	5332.4
658.876	5348.78
659.068	5334.45
659.26	5158.32
659.452	5367.21
659.644	5266.86
659.836	5283.25
660.028	5105.07
660.22	5119.41
660.412	5230
660.604	5189.04
660.796	5107.12
660.988	5113.27
661.18	5119.41
661.372	4965.81
661.563	5012.92
661.755	4912.57
661.947	4988.34
662.139	4959.67
662.331	4740.54
662.522	4842.93
662.714	4890.04
662.906	4775.35
663.097	4726.2
663.289	4687.29
663.481	4613.56
663.673	4742.58
663.864	4842.93
664.056	4656.57
664.247	4679.1
664.439	4623.8
664.631	4550.07
664.822	4623.8
665.014	4476.35
665.205	4644.28
665.397	4537.79
665.588	4498.88
665.78	4398.52
665.971	4343.23
666.163	4457.92
666.354	4410.81
666.546	4419
666.737	4242.88
666.929	4234.69
667.12	4421.05
667.311	4357.57
667.503	4351.42
667.694	4267.45
667.885	4201.92
668.077	4148.67
668.268	4177.34
668.459	4146.62
668.651	4165.06
668.842	4115.91
669.033	4058.56
669.224	4064.71
669.416	4218.3
669.607	4210.11
669.798	3896.77
669.989	4163.01
670.18	3894.72
670.371	3986.88
670.563	3964.36
670.754	4048.32
670.945	3950.02
671.136	3952.07
671.327	3952.07
671.518	3835.33
671.709	4103.62
671.9	3911.11
672.091	3868.1
672.282	3808.71
672.473	3818.95
672.664	3884.48
672.855	3843.53
673.046	3790.28
673.237	3780.04
673.428	3745.22
673.619	3747.27
673.809	3712.46
674	3628.49
674.191	3706.31
674.382	3710.41
674.573	3671.5
674.764	3632.58
674.954	3737.03
675.145	3562.95
675.336	3552.71
675.527	3661.26
675.717	3605.96
675.908	3507.66
676.099	3497.42
676.289	3628.49
676.48	3532.23
676.671	3513.8
676.861	3669.45
677.052	3450.32
677.243	3395.02
677.433	3587.53
677.624	3300.81
677.814	3472.84
678.005	3468.75
678.195	3464.65
678.386	3474.89
678.576	3431.88
678.767	3489.23
678.957	3319.25
679.148	3403.21
679.338	3444.17
679.529	3286.48
679.719	3417.55
679.909	3401.16
680.1	3306.96
680.29	3341.77
680.481	3399.12
680.671	3364.3
680.861	3442.12
681.052	3452.36
681.242	3284.43
681.432	3259.85
681.622	3329.49
681.813	3321.29
682.003	3263.95
682.193	3155.41
682.383	3272.14
682.573	3235.28
682.764	3376.59
682.954	3124.69
683.144	3155.41
683.334	3278.29
683.524	3208.66
683.714	3161.55
683.904	3257.81
684.094	3169.74
684.284	3204.56
684.474	3309.01
684.664	3130.83
684.854	3020.24
685.044	3157.46
685.234	3098.06
685.424	3130.83
685.614	2981.33
685.804	3112.4
685.994	3112.4
686.184	3120.59
686.374	3030.48
686.564	3077.59
686.753	3020.24
686.943	3007.95
687.133	2958.8
687.323	3005.91
687.513	2872.79
687.702	2868.69
687.892	2958.8
688.082	2911.7
688.272	2901.46
688.461	2926.04
688.651	2858.45
688.841	2874.84
689.03	2928.08
689.22	2903.51
689.41	2962.9
689.599	2790.87
689.789	2813.4
689.979	2821.59
690.168	2866.64
690.358	2756.05
690.547	2813.4
690.737	2629.08
690.926	2715.09
691.116	2661.85
691.305	2700.76
691.495	2809.3
691.684	2749.91
691.874	2737.62
692.063	2567.64
692.252	2637.27
692.442	2686.42
692.631	2756.05
692.82	2538.97
693.01	2557.4
693.199	2657.75
693.388	2653.66
693.578	2541.02
693.767	2559.45
693.956	2637.27
694.146	2485.72
694.335	2561.5
694.524	2538.97
694.713	2577.88
694.902	2536.92
695.092	2565.59
695.281	2457.05
695.47	2457.05
695.659	2538.97
695.848	2399.71
696.037	2401.76
696.226	2571.74
696.415	2362.84
696.604	2604.5
696.793	2409.95
696.982	2444.76
697.171	2555.35
697.36	2401.76
697.549	2403.8
697.738	2469.34
697.927	2461.15
698.116	2532.83
698.305	2414.04
698.494	2489.82
698.683	2428.38
698.872	2543.07
699.061	2368.99
699.25	2475.48
699.438	2364.89
699.627	2350.56
699.816	2502.11
700.005	2340.32
700.193	2262.49
700.382	2412
700.571	2391.52
700.76	2309.6
700.948	2362.84
701.137	2319.84
701.326	2395.61
701.514	2387.42
701.703	2305.5
701.892	2287.07
702.08	2375.13
702.269	2383.32
702.457	2280.93
702.646	2278.88
702.834	2313.69
703.023	2393.56
703.212	2248.16
703.4	2248.16
703.589	2190.81
703.777	2346.46
703.965	2268.64
704.154	2242.01
704.342	2223.58
704.531	2162.14
704.719	2260.45
704.907	2233.82
705.096	2229.73
705.284	2225.63
705.472	2207.2
705.661	2285.02
705.849	2315.74
706.037	2176.48
706.226	2266.59
706.414	2199.01
706.602	2235.87
706.79	2313.69
706.979	2180.57
707.167	2213.34
707.355	2174.43
707.543	2207.2
707.731	2264.54
707.919	2252.25
708.107	2131.42
708.296	2131.42
708.484	2207.2
708.672	2174.43
708.86	2297.31
709.048	2237.92
709.236	2090.46
709.424	2186.72
709.612	2049.5
709.8	2172.38
709.988	2147.81
710.176	2248.16
710.364	2215.39
710.551	2188.77
710.739	2033.12
710.927	2129.38
711.115	2239.97
711.303	2186.72
711.491	2039.26
711.679	2162.14
711.866	2047.46
712.054	2205.15
712.242	2162.14
712.43	2115.04
712.617	2094.56
712.805	2194.91
712.993	2145.76
713.181	2092.51
713.368	2221.53
713.556	2221.53
713.744	2041.31
713.931	2190.81
714.119	2065.89
714.306	2108.9
714.494	2112.99
714.682	2078.18
714.869	2065.89
715.057	2088.42
715.244	2035.17
715.432	2196.96
715.619	2084.32
715.807	2207.2
715.994	2072.03
716.182	2153.95
716.369	2176.48
716.556	2112.99
716.744	2047.46
716.931	2002.4
717.119	2127.33
717.306	2096.61
717.493	2106.85
717.681	2006.5
717.868	1916.39
718.055	1971.68
718.242	2162.14
718.43	2014.69
718.617	2010.59
718.804	1883.62
718.991	2129.38
719.179	2082.27
719.366	2125.28
719.553	2047.46
719.74	2104.8
719.927	2078.18
720.114	2041.31
720.301	1936.87
720.488	1965.54
720.676	1963.49
720.863	2133.47
721.05	2080.22
721.237	2057.7
721.424	2119.14
721.611	2031.07
721.798	2008.55
721.985	2014.69
722.172	2041.31
722.358	1951.2
722.545	2088.42
722.732	2010.59
722.919	2139.62
723.106	1998.31
723.293	1981.92
723.48	2112.99
723.667	2033.12
723.853	2016.74
724.04	2162.14
724.227	1986.02
724.414	1945.06
724.6	1926.63
724.787	2082.27
724.974	1889.76
725.161	2002.4
725.347	1986.02
725.534	1992.16
725.72	2026.98
725.907	2008.55
726.094	2039.26
726.28	1910.24
726.467	1986.02
726.653	2002.4
726.84	1990.11
727.027	1992.16
727.213	1900
727.4	1957.35
727.586	1863.14
727.773	1986.02
727.959	1961.44
728.145	1928.67
728.332	1908.19
728.518	1953.25
728.705	1998.31
728.891	2010.59
729.077	2102.75
729.264	1920.48
729.45	1904.1
729.636	1943.01
729.823	1975.78
730.009	1988.07
730.195	1887.72
730.382	1994.21
730.568	1912.29
730.754	1916.39
730.94	1957.35
731.126	1959.39
731.313	1981.92
731.499	1897.96
731.685	1940.96
731.871	1900
732.057	1945.06
732.243	1994.21
732.429	2043.36
732.615	1969.63
732.801	1990.11
732.987	2020.83
733.173	1940.96
733.359	1998.31
733.545	1992.16
733.731	1998.31
733.917	2074.08
734.103	1859.04
734.289	1949.15
734.475	1863.14
734.661	1867.24
734.847	1916.39
735.033	1834.47
735.219	1897.96
735.404	1979.87
735.59	1918.43
735.776	1869.28
735.962	1981.92
736.148	1891.81
736.333	1949.15
736.519	1850.85
736.705	1969.63
736.89	1869.28
737.076	1932.77
737.262	1785.32
737.447	1908.19
737.633	1838.56
737.819	1969.63
738.004	1943.01
738.19	1723.88
738.375	1836.52
738.561	1875.43
738.747	1852.9
738.932	1768.93
739.118	1867.24
739.303	1801.7
739.489	1865.19
739.674	1748.45
739.859	1777.12
740.045	1818.08
740.23	1893.86
740.416	1754.6
740.601	1846.76
740.786	1768.93
740.972	1746.41
741.157	1736.17
741.342	1615.34
741.528	1748.45
741.713	1795.56
741.898	1678.82
742.084	1687.01
742.269	1760.74
742.454	1721.83
742.639	1797.6
742.824	1707.49
743.01	1797.6
743.195	1809.89
743.38	1695.21
743.565	1637.86
743.75	1744.36
743.935	1578.47
744.12	1678.82
744.305	1670.63
744.49	1656.29
744.675	1654.25
744.86	1654.25
745.045	1617.38
745.23	1654.25
745.415	1588.71
745.6	1648.1
745.785	1703.4
745.97	1629.67
746.155	1533.42
746.34	1598.95
746.525	1572.33
746.71	1625.58
746.895	1582.57
747.079	1525.22
747.264	1580.52
747.449	1514.98
747.634	1568.23
747.819	1476.07
748.003	1437.16
748.188	1508.84
748.373	1422.83
748.557	1523.18
748.742	1535.46
748.927	1394.15
749.111	1373.68
749.296	1404.39
749.481	1371.63
749.665	1402.35
749.85	1492.46
750.034	1445.35
750.219	1269.23
750.404	1400.3
750.588	1320.43
750.773	1361.39
750.957	1295.85
751.141	1304.04
751.326	1357.29
751.51	1375.72
751.695	1291.76
751.879	1232.37
752.064	1302
752.248	1371.63
752.432	1230.32
752.617	1285.61
752.801	1324.52
752.985	1252.84
753.17	1256.94
753.354	1211.89
753.538	1314.28
753.722	1236.46
753.907	1304.04
754.091	1244.65
754.275	1162.73
754.459	1129.97
754.643	1150.45
754.828	1261.04
755.012	1246.7
755.196	1109.49
755.38	1150.45
755.564	1091.06
755.748	1023.47
755.932	1111.54
756.116	1228.27
756.3	1048.05
756.484	1127.92
756.668	1125.87
756.852	1080.82
757.036	1027.57
757.22	1033.71
757.404	927.22
757.588	1027.57
757.772	1060.34
757.956	1074.67
758.14	1121.77
758.323	1002.99
758.507	1058.29
758.691	1066.48
758.875	1052.14
759.059	1093.1
759.242	1029.62
759.426	959.99
759.61	962.03
759.794	900.59
759.977	984.56
760.161	1033.71
760.345	951.79
760.528	945.65
760.712	947.7
760.895	966.13
761.079	886.26
761.263	888.31
761.446	845.3
761.63	849.4
761.813	841.2
761.997	884.21
762.18	900.59
762.364	855.54
762.547	833.01
762.731	843.25
762.914	959.99
763.098	892.4
763.281	826.87
763.464	880.11
763.648	884.21
763.831	826.87
764.015	853.49
764.198	826.87
764.381	810.48
764.564	949.75
764.748	849.4
764.931	853.49
765.114	886.26
765.297	900.59
765.481	769.52
765.664	919.03
765.847	910.83
766.03	835.06
766.213	826.87
766.397	794.1
766.58	724.47
766.763	851.44
766.946	716.28
767.129	837.11
767.312	771.57
767.495	738.8
767.678	771.57
767.861	753.14
768.044	812.53
768.227	765.43
768.41	767.48
768.593	755.19
768.776	656.89
768.959	761.33
769.142	794.1
769.324	773.62
769.507	785.91
769.69	695.8
769.873	663.03
770.056	790
770.239	722.42
770.421	771.57
770.604	714.23
770.787	663.03
770.97	687.61
771.152	679.41
771.335	728.56
771.518	695.8
771.7	687.61
771.883	749.04
772.066	638.45
772.248	765.43
772.431	663.03
772.613	679.41
772.796	683.51
772.978	599.54
773.161	665.08
773.343	677.37
773.526	624.12
773.708	638.45
773.891	570.87
774.073	544.25
774.256	642.55
774.438	648.69
774.621	523.77
774.803	640.5
774.985	609.78
775.168	671.22
775.35	589.3
775.532	597.49
775.715	536.06
775.897	613.88
776.079	568.82
776.261	630.26
776.444	554.49
776.626	509.43
776.808	617.97
776.99	493.05
777.173	566.78
777.355	515.58
777.537	548.34
777.719	470.52
777.901	429.56
778.083	525.82
778.265	468.47
778.447	523.77
778.629	491
778.811	581.11
778.993	493.05
779.175	540.15
779.357	454.14
779.539	531.96
779.721	493.05
779.903	486.9
780.085	503.29
780.267	517.62
780.449	466.42
780.631	495.1
780.812	445.95
780.994	400.89
781.176	495.1
781.358	433.66
781.54	312.83
781.721	458.23
781.903	462.33
782.085	456.19
782.267	517.62
782.448	396.79
782.63	454.14
782.812	429.56
782.993	462.33
783.175	325.12
783.357	331.26
783.538	413.18
783.72	388.6
783.901	359.93
784.083	439.8
784.264	458.23
784.446	325.12
784.627	368.12
784.809	425.47
784.99	368.12
785.172	355.83
785.353	329.21
785.535	359.93
785.716	388.6
785.897	390.65
786.079	359.93
786.26	392.7
786.441	380.41
786.623	306.68
786.804	292.35
786.985	413.18
787.167	300.54
787.348	384.51
787.529	400.89
787.71	355.83
787.891	296.44
788.073	312.83
788.254	278.01
788.435	376.31
788.616	325.12
788.797	290.3
788.978	312.83
789.159	304.64
789.34	327.16
789.522	300.54
789.703	310.78
789.884	310.78
790.065	316.92
790.246	341.5
790.427	275.96
790.607	210.43
790.788	306.68
790.969	269.82
791.15	310.78
791.331	312.83
791.512	302.59
791.693	261.63
791.874	245.24
792.054	396.79
792.235	241.15
792.416	259.58
792.597	204.28
792.778	271.87
792.958	323.07
793.139	257.53
793.32	335.35
793.5	294.4
793.681	294.4
793.862	294.4
794.042	204.28
794.223	208.38
794.404	214.52
794.584	230.91
794.765	302.59
794.945	265.72
795.126	290.3
795.306	286.2
795.487	220.67
795.667	300.54
795.848	214.52
796.028	196.09
796.209	204.28
796.389	278.01
796.57	210.43
796.75	192
796.93	290.3
797.111	218.62
797.291	175.61
797.471	226.81
797.652	155.13
797.832	151.04
798.012	222.72
798.192	253.44
798.373	235
798.553	151.04
798.733	239.1
798.913	222.72
799.093	294.4
799.274	224.76
799.454	261.63
799.634	171.52
799.814	177.66
799.994	224.76
800.174	132.61
800.354	247.29
800.534	179.71
800.714	280.06
800.894	187.9
801.074	155.13
801.254	263.68
801.434	200.19
801.614	208.38
801.794	228.86
801.974	720.37
802.154	177.66
802.334	212.48
802.514	157.18
802.693	204.28
802.873	241.15
803.053	294.4
803.233	220.67
803.413	189.95
803.592	148.99
803.772	214.52
803.952	194.05
804.131	228.86
804.311	212.48
804.491	142.85
804.67	118.27
804.85	167.42
805.03	206.33
805.209	173.57
805.389	165.37
805.568	130.56
805.748	122.37
805.928	163.33
806.107	212.48
806.287	212.48
806.466	212.48
806.646	181.76
806.825	181.76
807.004	73.21
807.184	218.62
807.363	163.33
807.543	157.18
807.722	122.37
807.901	157.18
808.081	181.76
808.26	97.79
808.439	192
808.619	130.56
808.798	185.85
808.977	93.69
809.156	134.65
809.336	130.56
809.515	159.23
809.694	138.75
809.873	173.57
810.052	69.12
810.231	132.61
810.411	116.22
810.59	163.33
810.769	134.65
810.948	204.28
811.127	114.17
811.306	101.89
811.485	146.94
811.664	132.61
811.843	122.37
812.022	126.46
812.201	93.69
812.38	101.89
812.559	153.09
812.737	114.17
812.916	132.61
813.095	91.65
813.274	85.5
813.453	159.23
813.632	118.27
813.811	187.9
813.989	155.13
814.168	196.09
814.347	126.46
814.526	151.04
814.704	153.09
814.883	110.08
815.062	128.51
815.24	118.27
815.419	44.54
815.598	116.22
815.776	62.98
815.955	93.69
816.133	-16.9
816.312	124.41
816.49	52.74
816.669	189.95
816.847	136.7
817.026	151.04
817.204	40.45
817.383	73.21
817.561	83.45
817.74	56.83
817.918	142.85
818.097	110.08
818.275	97.79
818.453	93.69
818.632	120.32
818.81	58.88
818.988	52.74
819.167	118.27
819.345	132.61
819.523	69.12
819.701	138.75
819.879	91.65
820.058	157.18
820.236	126.46
820.414	97.79
820.592	140.8
820.77	52.74
820.948	110.08
821.127	52.74
821.305	132.61
821.483	50.69
821.661	93.69
821.839	11.78
822.017	116.22
822.195	101.89
822.373	122.37
822.551	40.45
822.729	99.84
822.907	83.45
823.085	89.6
823.262	108.03
823.44	101.89
823.618	65.02
823.796	116.22
823.974	81.41
824.152	101.89
824.329	7.68
824.507	28.16
824.685	130.56
824.863	60.93
825.04	134.65
825.218	81.41
825.396	30.21
825.574	124.41
825.751	155.13
825.929	118.27
826.107	56.83
826.284	89.6
826.462	48.64
826.639	60.93
826.817	77.31
826.994	73.21
827.172	-29.18
827.349	130.56
827.527	62.98
827.704	65.02
827.882	99.84
828.059	50.69
828.237	11.78
828.414	140.8
828.591	110.08
828.769	36.35
828.946	52.74
829.124	159.23
829.301	159.23
829.478	54.78
829.655	67.07
829.833	138.75
830.01	-6.66
830.187	24.06
830.364	62.98
830.542	165.37
830.719	62.98
830.896	110.08
831.073	71.17
831.25	58.88
831.427	134.65
831.604	40.45
831.782	65.02
831.959	99.84
832.136	60.93
832.313	77.31
832.49	-16.9
832.667	132.61
832.844	-2.56
833.021	114.17
833.198	130.56
833.374	48.64
833.551	17.92
833.728	19.97
833.905	79.36
834.082	58.88
834.259	30.21
834.436	122.37
834.612	24.06
834.789	44.54
834.966	58.88
835.143	65.02
835.319	30.21
835.496	97.79
835.673	24.06
835.85	122.37
836.026	56.83
836.203	89.6
836.38	67.07
836.556	38.4
836.733	-16.9
836.909	126.46
837.086	50.69
837.262	-8.7
837.439	32.26
837.616	34.3
837.792	103.93
837.968	77.31
838.145	32.26
838.321	69.12
838.498	28.16
838.674	28.16
838.851	97.79
839.027	67.07
839.203	32.26
839.38	60.93
839.556	60.93
839.732	15.87
839.909	-0.51
840.085	-14.85
840.261	26.11
840.437	56.83
840.614	85.5
840.79	81.41
840.966	32.26
841.142	77.31
841.318	56.83
841.494	81.41
841.671	9.73
841.847	24.06
842.023	28.16
842.199	89.6
842.375	75.26
842.551	-25.09
842.727	46.59
842.903	32.26
843.079	24.06
843.255	15.87
843.431	40.45
843.607	36.35
843.783	-53.76
843.959	-12.8
844.134	40.45
844.31	58.88
844.486	-0.51
844.662	26.11
844.838	11.78
845.013	83.45
845.189	30.21
845.365	-25.09
845.541	40.45
845.716	36.35
845.892	48.64
846.068	48.64
846.244	73.21
846.419	112.13
846.595	-59.9
846.77	50.69
846.946	-29.18
847.122	46.59
847.297	28.16
847.473	58.88
847.648	73.21
847.824	77.31
847.999	-23.04
848.175	42.5
848.35	15.87
848.526	42.5
848.701	67.07
848.876	48.64
849.052	44.54
849.227	89.6
849.403	-0.51
849.578	9.73
849.753	56.83
849.929	48.64
850.104	62.98
850.279	22.02
850.454	-25.09
850.63	44.54
850.805	3.58
850.98	83.45
851.155	32.26
851.33	81.41
851.505	105.98
851.681	44.54
851.856	50.69
852.031	58.88
852.206	40.45
852.381	-10.75
852.556	26.11
852.731	99.84
852.906	65.02
853.081	44.54
853.256	28.16
853.431	-0.51
853.606	32.26
853.781	-45.57
853.956	-0.51
854.131	-25.09
854.305	-41.47
854.48	-33.28
854.655	24.06
854.83	58.88
855.005	44.54
855.18	58.88
855.354	26.11
855.529	60.93
855.704	-70.14
855.879	-16.9
856.053	-0.51
856.228	-51.71
856.403	30.21
856.577	15.87
856.752	36.35
856.926	52.74
857.101	40.45
857.276	-25.09
857.45	56.83
857.625	17.92
857.799	3.58
857.974	73.21
858.148	42.5
858.323	77.31
858.497	56.83
858.672	58.88
858.846	38.4
859.02	38.4
859.195	32.26
859.369	-12.8
859.543	15.87
859.718	1.54
859.892	50.69
860.066	32.26
860.241	24.06
860.415	-0.51
860.589	17.92
860.763	24.06
860.938	50.69
861.112	19.97
861.286	13.82
861.46	32.26
861.634	19.97
861.808	58.88
861.982	15.87
862.157	-37.38
862.331	58.88
862.505	-23.04
862.679	73.21
862.853	81.41
863.027	-2.56
863.201	40.45
863.375	-31.23
863.549	50.69
863.722	48.64
863.896	95.74
864.07	-66.05
864.244	79.36
864.418	30.21
864.592	11.78
864.766	28.16
864.939	34.3
865.113	52.74
865.287	83.45
865.461	7.68
865.634	97.79
865.808	-0.51
865.982	-29.18
866.156	11.78
866.329	-10.75
866.503	50.69
866.676	19.97
866.85	17.92
867.024	11.78
867.197	34.3
867.371	48.64
867.544	40.45
867.718	22.02
867.891	56.83
868.065	48.64
868.238	56.83
868.412	56.83
868.585	24.06
868.759	-12.8
868.932	-41.47
869.105	28.16
869.279	-10.75
869.452	-16.9
869.625	67.07
869.799	32.26
869.972	-23.04
870.145	-47.62
870.319	81.41
870.492	3.58
870.665	-49.66
870.838	-8.7
871.011	-31.23
871.185	-39.42
871.358	28.16
871.531	1.54
871.704	89.6
871.877	26.11
872.05	-49.66
872.223	32.26
872.396	85.5
872.569	28.16
872.742	-20.99
872.915	17.92
873.088	-16.9
873.261	1.54
873.434	15.87
873.607	-49.66
873.78	26.11
873.953	22.02
874.126	28.16
874.299	-12.8
874.471	-8.7
874.644	34.3
874.817	-16.9
874.99	97.79
875.163	-10.75
875.335	15.87
875.508	-0.51
875.681	83.45
875.853	-33.28
876.026	105.98
876.199	24.06
876.371	101.89
876.544	-29.18
876.717	11.78
876.889	-23.04
877.062	38.4
877.234	-43.52
877.407	1.54
877.579	-20.99
877.752	24.06
877.924	9.73
878.097	34.3
878.269	44.54
878.442	-25.09
878.614	36.35
878.786	65.02
878.959	26.11
879.131	9.73
879.303	-16.9
879.476	-2.56
879.648	75.26
879.82	73.21
879.993	-16.9
880.165	-43.52
880.337	-41.47
880.509	-53.76
880.681	-47.62
880.854	7.68
881.026	-68.09
881.198	89.6
881.37	-25.09
881.542	71.17
881.714	58.88
881.886	7.68
882.058	65.02
882.23	17.92
882.402	-0.51
882.574	60.93
882.746	-27.14
882.918	67.07
883.09	32.26
883.262	-31.23
883.434	15.87
883.606	-47.62
883.778	56.83
883.95	50.69
884.122	32.26
884.293	-25.09
884.465	17.92
884.637	50.69
884.809	-31.23
884.98	69.12
885.152	-14.85
885.324	85.5
885.496	38.4
885.667	77.31
885.839	56.83
886.011	15.87
886.182	-29.18
886.354	42.5
886.525	34.3
886.697	24.06
886.869	-6.66
887.04	-4.61
887.212	-72.19
887.383	32.26
887.555	48.64
887.726	24.06
887.897	-8.7
888.069	-31.23
888.24	-14.85
888.412	81.41
888.583	17.92
888.754	19.97
888.926	7.68
889.097	75.26
889.268	-33.28
889.44	-39.42
889.611	-16.9
889.782	9.73
889.953	-47.62
890.125	56.83
890.296	-10.75
890.467	9.73
890.638	11.78
890.809	26.11
890.98	1.54
891.151	-4.61
891.323	15.87
891.494	-96.77
891.665	19.97
891.836	32.26
892.007	99.84
892.178	28.16
892.349	7.68
892.52	-70.14
892.691	17.92
892.862	-16.9
893.032	-45.57
893.203	26.11
893.374	17.92
893.545	-16.9
893.716	-12.8
893.887	-14.85
894.057	5.63
894.228	17.92
894.399	7.68
894.57	3.58
894.74	44.54
894.911	38.4
895.082	-25.09
895.253	28.16
895.423	-8.7
895.594	42.5
895.764	24.06
895.935	50.69
896.106	-33.28
896.276	13.82
896.447	-2.56
896.617	24.06
896.788	75.26
896.958	-37.38
897.129	48.64
897.299	28.16
897.47	24.06
897.64	32.26
897.81	26.11
897.981	22.02
898.151	40.45
898.322	-18.94
898.492	58.88
898.662	-14.85
898.832	-45.57
899.003	-0.51
899.173	52.74
899.343	-29.18
899.513	-82.43
