Data from USB4F104151__54__14-17-01-301.txt Node

Date: Thu Mar 13 14:17:01 EDT 2025
User: louis
Spectrometer: USB4F10415
Trigger mode: 4
Integration Time (sec): 2.000000E-2
Scans to average: 1
Electric dark correction enabled: true
Nonlinearity correction enabled: false
Boxcar width: 0
XAxis mode: Wavelengths
Number of Pixels in Spectrum: 3648
>>>>>Begin Spectral Data<<<<<
178.204	-111.61
178.424	-111.61
178.644	-111.61
178.864	-87.04
179.084	-128
179.304	9.22
179.524	-37.89
179.744	-52.22
179.964	13.31
180.184	-11.26
180.404	44.03
180.624	-7.17
180.844	21.5
181.064	-19.46
181.283	-27.65
181.503	50.18
181.723	17.41
181.943	-3.07
182.163	103.42
182.383	62.46
182.602	74.75
182.822	15.36
183.042	31.74
183.262	33.79
183.482	60.42
183.701	1.02
183.921	54.27
184.141	44.03
184.361	-46.08
184.58	19.46
184.8	68.61
185.02	-3.07
185.239	37.89
185.459	48.13
185.679	78.85
185.898	-46.08
186.118	82.94
186.338	-11.26
186.557	58.37
186.777	125.95
186.997	64.51
187.216	-19.46
187.436	21.5
187.655	21.5
187.875	-11.26
188.095	48.13
188.314	74.75
188.534	107.52
188.753	-1.02
188.973	58.37
189.192	25.6
189.412	35.84
189.631	23.55
189.851	27.65
190.07	46.08
190.29	44.03
190.509	76.8
190.729	15.36
190.948	25.6
191.168	76.8
191.387	44.03
191.607	5.12
191.826	23.55
192.045	27.65
192.265	7.17
192.484	84.99
192.704	84.99
192.923	29.7
193.142	117.76
193.362	21.5
193.581	121.85
193.8	89.09
194.02	29.7
194.239	41.98
194.458	17.41
194.678	39.94
194.897	105.47
195.116	-11.26
195.335	27.65
195.555	101.37
195.774	44.03
195.993	37.89
196.212	19.46
196.432	37.89
196.651	3.07
196.87	31.74
197.089	84.99
197.308	58.37
197.528	64.51
197.747	15.36
197.966	11.26
198.185	52.22
198.404	31.74
198.623	54.27
198.842	76.8
199.062	21.5
199.281	117.76
199.5	52.22
199.719	-21.5
199.938	62.46
200.157	101.37
200.376	-3.07
200.595	11.26
200.814	109.57
201.033	3.07
201.252	68.61
201.471	56.32
201.69	68.61
201.909	39.94
202.128	78.85
202.347	21.5
202.566	25.6
202.785	-5.12
203.004	27.65
203.223	78.85
203.442	48.13
203.661	3.07
203.879	27.65
204.098	142.33
204.317	-29.7
204.536	78.85
204.755	84.99
204.974	44.03
205.193	76.8
205.411	82.94
205.63	54.27
205.849	64.51
206.068	9.22
206.287	7.17
206.505	3.07
206.724	70.65
206.943	52.22
207.162	35.84
207.381	72.7
207.599	54.27
207.818	35.84
208.037	23.55
208.255	37.89
208.474	56.32
208.693	33.79
208.911	-7.17
209.13	64.51
209.349	39.94
209.567	74.75
209.786	64.51
210.005	48.13
210.223	54.27
210.442	-9.22
210.661	64.51
210.879	68.61
211.098	78.85
211.316	46.08
211.535	37.89
211.753	21.5
211.972	21.5
212.191	-3.07
212.409	41.98
212.628	33.79
212.846	44.03
213.065	97.28
213.283	60.42
213.502	48.13
213.72	70.65
213.938	-11.26
214.157	-1.02
214.375	50.18
214.594	19.46
214.812	35.84
215.031	101.37
215.249	21.5
215.467	27.65
215.686	19.46
215.904	93.18
216.122	78.85
216.341	56.32
216.559	62.46
216.778	109.57
216.996	68.61
217.214	52.22
217.432	19.46
217.651	60.42
217.869	56.32
218.087	52.22
218.306	50.18
218.524	29.7
218.742	5.12
218.96	66.56
219.179	35.84
219.397	-9.22
219.615	76.8
219.833	27.65
220.051	52.22
220.27	11.26
220.488	48.13
220.706	175.1
220.924	31.74
221.142	21.5
221.36	64.51
221.578	84.99
221.796	23.55
222.015	27.65
222.233	103.42
222.451	82.94
222.669	-5.12
222.887	27.65
223.105	72.7
223.323	72.7
223.541	44.03
223.759	9.22
223.977	50.18
224.195	68.61
224.413	58.37
224.631	84.99
224.849	21.5
225.067	66.56
225.285	56.32
225.503	68.61
225.721	70.65
225.939	64.51
226.157	78.85
226.375	84.99
226.592	31.74
226.81	35.84
227.028	117.76
227.246	60.42
227.464	60.42
227.682	64.51
227.9	13.31
228.117	70.65
228.335	80.89
228.553	21.5
228.771	39.94
228.989	48.13
229.206	21.5
229.424	-58.37
229.642	109.57
229.86	68.61
230.077	46.08
230.295	37.89
230.513	37.89
230.731	35.84
230.948	76.8
231.166	44.03
231.384	44.03
231.601	173.05
231.819	58.37
232.037	29.7
232.254	54.27
232.472	-3.07
232.689	78.85
232.907	50.18
233.125	95.23
233.342	78.85
233.56	35.84
233.777	48.13
233.995	70.65
234.213	136.19
234.43	48.13
234.648	62.46
234.865	-19.46
235.083	44.03
235.3	60.42
235.518	3.07
235.735	-19.46
235.953	128
236.17	41.98
236.388	37.89
236.605	54.27
236.822	72.7
237.04	84.99
237.257	89.09
237.475	-9.22
237.692	48.13
237.909	39.94
238.127	82.94
238.344	74.75
238.562	52.22
238.779	-29.7
238.996	-5.12
239.214	76.8
239.431	101.37
239.648	103.42
239.865	158.72
240.083	-21.5
240.3	68.61
240.517	44.03
240.735	70.65
240.952	95.23
241.169	39.94
241.386	89.09
241.603	3.07
241.821	23.55
242.038	105.47
242.255	39.94
242.472	-3.07
242.689	7.17
242.907	44.03
243.124	78.85
243.341	93.18
243.558	60.42
243.775	46.08
243.992	23.55
244.209	5.12
244.426	84.99
244.643	130.05
244.86	60.42
245.078	68.61
245.295	101.37
245.512	105.47
245.729	19.46
245.946	70.65
246.163	52.22
246.38	76.8
246.597	-3.07
246.814	35.84
247.031	5.12
247.248	82.94
247.464	33.79
247.681	35.84
247.898	97.28
248.115	31.74
248.332	-23.55
248.549	37.89
248.766	158.72
248.983	44.03
249.2	76.8
249.417	60.42
249.633	46.08
249.85	117.76
250.067	11.26
250.284	-25.6
250.501	29.7
250.717	-19.46
250.934	76.8
251.151	97.28
251.368	103.42
251.585	54.27
251.801	87.04
252.018	17.41
252.235	93.18
252.451	-46.08
252.668	68.61
252.885	97.28
253.102	89.09
253.318	-9.22
253.535	68.61
253.752	15.36
253.968	46.08
254.185	-37.89
254.401	39.94
254.618	56.32
254.835	3.07
255.051	99.33
255.268	39.94
255.484	48.13
255.701	54.27
255.917	46.08
256.134	29.7
256.351	84.99
256.567	58.37
256.784	39.94
257	39.94
257.217	115.71
257.433	44.03
257.65	93.18
257.866	68.61
258.082	60.42
258.299	13.31
258.515	27.65
258.732	39.94
258.948	5.12
259.165	-3.07
259.381	15.36
259.597	13.31
259.814	44.03
260.03	128
260.246	113.66
260.463	27.65
260.679	60.42
260.895	-3.07
261.112	91.13
261.328	19.46
261.544	50.18
261.761	78.85
261.977	9.22
262.193	-17.41
262.409	109.57
262.626	101.37
262.842	41.98
263.058	27.65
263.274	58.37
263.49	21.5
263.707	54.27
263.923	74.75
264.139	117.76
264.355	-1.02
264.571	142.33
264.787	95.23
265.004	78.85
265.22	19.46
265.436	37.89
265.652	44.03
265.868	70.65
266.084	9.22
266.3	60.42
266.516	19.46
266.732	25.6
266.948	101.37
267.164	70.65
267.38	-29.7
267.596	-11.26
267.812	93.18
268.028	50.18
268.244	95.23
268.46	21.5
268.676	93.18
268.892	76.8
269.108	13.31
269.324	15.36
269.54	3.07
269.756	68.61
269.972	-64.51
270.188	60.42
270.403	50.18
270.619	62.46
270.835	9.22
271.051	76.8
271.267	121.85
271.483	19.46
271.698	117.76
271.914	103.42
272.13	58.37
272.346	3.07
272.562	72.7
272.777	76.8
272.993	17.41
273.209	29.7
273.425	117.76
273.64	11.26
273.856	70.65
274.072	44.03
274.287	11.26
274.503	29.7
274.719	46.08
274.934	-21.5
275.15	-29.7
275.366	56.32
275.581	-23.55
275.797	21.5
276.012	41.98
276.228	-41.98
276.444	64.51
276.659	27.65
276.875	56.32
277.09	48.13
277.306	13.31
277.521	138.24
277.737	23.55
277.952	-5.12
278.168	62.46
278.383	84.99
278.599	84.99
278.814	101.37
279.03	76.8
279.245	103.42
279.461	56.32
279.676	93.18
279.892	56.32
280.107	70.65
280.322	-33.79
280.538	-21.5
280.753	-27.65
280.969	117.76
281.184	44.03
281.399	58.37
281.615	80.89
281.83	91.13
282.045	7.17
282.26	-27.65
282.476	64.51
282.691	50.18
282.906	21.5
283.122	39.94
283.337	50.18
283.552	136.19
283.767	58.37
283.983	134.14
284.198	68.61
284.413	103.42
284.628	-11.26
284.843	37.89
285.058	-29.7
285.274	78.85
285.489	60.42
285.704	70.65
285.919	31.74
286.134	87.04
286.349	31.74
286.564	-37.89
286.779	11.26
286.995	3.07
287.21	48.13
287.425	130.05
287.64	-5.12
287.855	21.5
288.07	37.89
288.285	78.85
288.5	48.13
288.715	72.7
288.93	15.36
289.145	46.08
289.36	62.46
289.575	76.8
289.79	74.75
290.004	13.31
290.219	101.37
290.434	48.13
290.649	25.6
290.864	15.36
291.079	87.04
291.294	35.84
291.509	117.76
291.724	62.46
291.938	-7.17
292.153	64.51
292.368	-3.07
292.583	134.14
292.798	39.94
293.012	19.46
293.227	27.65
293.442	68.61
293.657	64.51
293.871	99.33
294.086	27.65
294.301	60.42
294.516	54.27
294.73	21.5
294.945	52.22
295.16	29.7
295.374	44.03
295.589	35.84
295.804	60.42
296.018	138.24
296.233	52.22
296.447	80.89
296.662	-25.6
296.877	103.42
297.091	99.33
297.306	37.89
297.52	21.5
297.735	-46.08
297.949	107.52
298.164	39.94
298.378	146.43
298.593	66.56
298.807	-3.07
299.022	-27.65
299.236	113.66
299.451	72.7
299.665	44.03
299.88	95.23
300.094	21.5
300.309	33.79
300.523	27.65
300.737	84.99
300.952	84.99
301.166	44.03
301.381	52.22
301.595	29.7
301.809	62.46
302.024	3.07
302.238	17.41
302.452	-3.07
302.667	68.61
302.881	27.65
303.095	29.7
303.309	93.18
303.524	7.17
303.738	109.57
303.952	11.26
304.166	76.8
304.381	-15.36
304.595	99.33
304.809	52.22
305.023	-29.7
305.237	54.27
305.452	80.89
305.666	15.36
305.88	84.99
306.094	95.23
306.308	109.57
306.522	60.42
306.736	76.8
306.95	93.18
307.164	31.74
307.379	95.23
307.593	93.18
307.807	138.24
308.021	56.32
308.235	17.41
308.449	-17.41
308.663	19.46
308.877	46.08
309.091	70.65
309.305	17.41
309.519	11.26
309.733	68.61
309.947	60.42
310.161	27.65
310.374	72.7
310.588	103.42
310.802	23.55
311.016	27.65
311.23	76.8
311.444	35.84
311.658	64.51
311.872	25.6
312.085	50.18
312.299	109.57
312.513	121.85
312.727	37.89
312.941	17.41
313.154	134.14
313.368	27.65
313.582	50.18
313.796	48.13
314.009	99.33
314.223	-5.12
314.437	101.37
314.651	48.13
314.864	23.55
315.078	39.94
315.292	58.37
315.505	41.98
315.719	46.08
315.933	132.09
316.146	37.89
316.36	-13.31
316.573	13.31
316.787	109.57
317.001	84.99
317.214	15.36
317.428	31.74
317.641	50.18
317.855	52.22
318.068	21.5
318.282	107.52
318.495	132.09
318.709	105.47
318.922	35.84
319.136	76.8
319.349	52.22
319.563	-9.22
319.776	21.5
319.99	17.41
320.203	113.66
320.417	19.46
320.63	119.81
320.843	117.76
321.057	31.74
321.27	64.51
321.483	1.02
321.697	44.03
321.91	99.33
322.124	44.03
322.337	27.65
322.55	23.55
322.763	27.65
322.977	11.26
323.19	60.42
323.403	21.5
323.617	44.03
323.83	52.22
324.043	66.56
324.256	68.61
324.469	93.18
324.683	37.89
324.896	99.33
325.109	27.65
325.322	46.08
325.535	44.03
325.748	44.03
325.962	19.46
326.175	64.51
326.388	60.42
326.601	117.76
326.814	29.7
327.027	41.98
327.24	134.14
327.453	35.84
327.666	56.32
327.879	-39.94
328.092	54.27
328.305	54.27
328.518	9.22
328.731	76.8
328.944	46.08
329.157	68.61
329.37	52.22
329.583	76.8
329.796	52.22
330.009	62.46
330.222	93.18
330.435	-11.26
330.648	39.94
330.861	31.74
331.073	50.18
331.286	11.26
331.499	93.18
331.712	17.41
331.925	35.84
332.138	56.32
332.35	80.89
332.563	33.79
332.776	-13.31
332.989	-3.07
333.202	134.14
333.414	9.22
333.627	46.08
333.84	52.22
334.053	17.41
334.265	5.12
334.478	17.41
334.691	66.56
334.903	76.8
335.116	3.07
335.329	68.61
335.541	31.74
335.754	99.33
335.966	87.04
336.179	80.89
336.392	84.99
336.604	21.5
336.817	31.74
337.029	35.84
337.242	-23.55
337.454	84.99
337.667	25.6
337.88	240.64
338.092	125.95
338.305	76.8
338.517	109.57
338.729	15.36
338.942	60.42
339.154	33.79
339.367	84.99
339.579	37.89
339.792	35.84
340.004	113.66
340.217	101.37
340.429	76.8
340.641	41.98
340.854	-5.12
341.066	31.74
341.278	136.19
341.491	62.46
341.703	27.65
341.915	44.03
342.128	54.27
342.34	52.22
342.552	44.03
342.764	48.13
342.977	-3.07
343.189	54.27
343.401	-33.79
343.613	29.7
343.826	46.08
344.038	-66.56
344.25	37.89
344.462	56.32
344.674	72.7
344.886	64.51
345.099	152.57
345.311	3.07
345.523	44.03
345.735	91.13
345.947	87.04
346.159	13.31
346.371	11.26
346.583	76.8
346.795	46.08
347.007	17.41
347.219	68.61
347.431	62.46
347.643	50.18
347.855	46.08
348.067	130.05
348.279	19.46
348.491	84.99
348.703	17.41
348.915	105.47
349.127	21.5
349.339	11.26
349.551	68.61
349.763	-13.31
349.975	56.32
350.187	70.65
350.399	23.55
350.61	58.37
350.822	101.37
351.034	25.6
351.246	23.55
351.458	93.18
351.669	117.76
351.881	144.38
352.093	25.6
352.305	54.27
352.517	70.65
352.728	68.61
352.94	41.98
353.152	37.89
353.363	-11.26
353.575	117.76
353.787	23.55
353.999	130.05
354.21	13.31
354.422	105.47
354.633	27.65
354.845	52.22
355.057	31.74
355.268	76.8
355.48	46.08
355.692	25.6
355.903	64.51
356.115	5.12
356.326	17.41
356.538	68.61
356.749	44.03
356.961	93.18
357.172	19.46
357.384	13.31
357.595	119.81
357.807	72.7
358.018	27.65
358.23	64.51
358.441	152.57
358.653	84.99
358.864	44.03
359.075	35.84
359.287	19.46
359.498	113.66
359.709	54.27
359.921	117.76
360.132	78.85
360.344	27.65
360.555	-9.22
360.766	130.05
360.977	11.26
361.189	142.33
361.4	35.84
361.611	105.47
361.823	93.18
362.034	48.13
362.245	15.36
362.456	35.84
362.667	113.66
362.879	39.94
363.09	35.84
363.301	60.42
363.512	64.51
363.723	31.74
363.935	97.28
364.146	117.76
364.357	64.51
364.568	54.27
364.779	11.26
364.99	84.99
365.201	5.12
365.412	35.84
365.623	64.51
365.834	93.18
366.045	23.55
366.256	-7.17
366.467	93.18
366.678	31.74
366.889	-13.31
367.1	97.28
367.311	64.51
367.522	54.27
367.733	117.76
367.944	113.66
368.155	-3.07
368.366	80.89
368.577	56.32
368.788	76.8
368.999	35.84
369.209	68.61
369.42	113.66
369.631	150.53
369.842	52.22
370.053	37.89
370.264	107.52
370.474	72.7
370.685	76.8
370.896	21.5
371.107	82.94
371.317	95.23
371.528	62.46
371.739	84.99
371.95	68.61
372.16	87.04
372.371	-5.12
372.582	35.84
372.792	128
373.003	101.37
373.214	76.8
373.424	140.29
373.635	56.32
373.846	109.57
374.056	101.37
374.267	23.55
374.477	7.17
374.688	33.79
374.898	62.46
375.109	17.41
375.319	64.51
375.53	93.18
375.74	66.56
375.951	52.22
376.161	117.76
376.372	93.18
376.582	64.51
376.793	62.46
377.003	68.61
377.214	60.42
377.424	128
377.635	31.74
377.845	60.42
378.055	74.75
378.266	44.03
378.476	27.65
378.686	84.99
378.897	121.85
379.107	87.04
379.317	150.53
379.528	31.74
379.738	125.95
379.948	-25.6
380.158	89.09
380.369	46.08
380.579	107.52
380.789	117.76
380.999	93.18
381.21	82.94
381.42	11.26
381.63	134.14
381.84	101.37
382.05	95.23
382.261	29.7
382.471	41.98
382.681	87.04
382.891	109.57
383.101	56.32
383.311	7.17
383.521	89.09
383.731	99.33
383.941	125.95
384.151	111.61
384.361	68.61
384.571	146.43
384.781	60.42
384.991	60.42
385.201	72.7
385.411	-1.02
385.621	117.76
385.831	70.65
386.041	46.08
386.251	9.22
386.461	58.37
386.671	35.84
386.881	33.79
387.091	125.95
387.301	111.61
387.511	93.18
387.72	107.52
387.93	44.03
388.14	50.18
388.35	78.85
388.56	70.65
388.769	138.24
388.979	62.46
389.189	66.56
389.399	68.61
389.609	162.81
389.818	138.24
390.028	41.98
390.238	103.42
390.447	72.7
390.657	60.42
390.867	62.46
391.076	-13.31
391.286	76.8
391.496	60.42
391.705	89.09
391.915	93.18
392.125	146.43
392.334	113.66
392.544	27.65
392.753	50.18
392.963	44.03
393.172	101.37
393.382	48.13
393.591	144.38
393.801	60.42
394.01	168.96
394.22	99.33
394.429	93.18
394.639	58.37
394.848	99.33
395.058	76.8
395.267	138.24
395.477	99.33
395.686	128
395.895	117.76
396.105	162.81
396.314	82.94
396.524	35.84
396.733	101.37
396.942	158.72
397.152	93.18
397.361	177.15
397.57	58.37
397.78	78.85
397.989	62.46
398.198	183.29
398.407	78.85
398.617	111.61
398.826	154.62
399.035	87.04
399.244	130.05
399.453	144.38
399.663	136.19
399.872	146.43
400.081	7.17
400.29	134.14
400.499	136.19
400.708	158.72
400.917	150.53
401.127	84.99
401.336	35.84
401.545	199.68
401.754	103.42
401.963	76.8
402.172	101.37
402.381	113.66
402.59	166.91
402.799	183.29
403.008	109.57
403.217	117.76
403.426	128
403.635	130.05
403.844	162.81
404.053	103.42
404.262	111.61
404.471	189.44
404.68	91.13
404.888	150.53
405.097	171.01
405.306	259.07
405.515	166.91
405.724	199.68
405.933	130.05
406.142	171.01
406.35	220.16
406.559	109.57
406.768	171.01
406.977	275.45
407.185	181.25
407.394	246.78
407.603	181.25
407.812	230.4
408.02	220.16
408.229	273.4
408.438	179.2
408.646	211.96
408.855	257.02
409.064	265.21
409.272	302.08
409.481	289.79
409.69	281.6
409.898	334.84
410.107	306.17
410.315	316.41
410.524	365.56
410.733	248.83
410.941	310.27
411.15	371.71
411.358	326.65
411.567	373.75
411.775	418.81
411.984	359.42
412.192	437.24
412.401	359.42
412.609	392.19
412.818	523.26
413.026	463.86
413.234	480.25
413.443	515.06
413.651	472.06
413.86	539.64
414.068	556.02
414.276	562.17
414.485	580.6
414.693	660.47
414.901	715.77
415.11	609.27
415.318	662.52
415.526	715.77
415.734	695.29
415.943	769.01
416.151	840.69
416.359	807.92
416.567	779.25
416.776	742.39
416.984	887.79
417.192	994.29
417.4	859.12
417.608	881.65
417.817	881.65
418.025	994.29
418.233	1158.13
418.441	1051.63
418.649	1039.34
418.857	1176.56
419.065	1166.32
419.273	1176.56
419.481	1297.39
419.689	1272.81
419.897	1330.16
420.105	1446.89
420.313	1440.75
420.521	1555.43
420.729	1463.27
420.937	1463.27
421.145	1584.1
421.353	1539.05
421.561	1749.99
421.769	1817.57
421.977	1780.71
422.185	1833.96
422.393	1991.65
422.601	2122.72
422.809	1995.75
423.017	2067.42
423.224	2157.54
423.432	2229.21
423.64	2178.01
423.848	2454.49
424.056	2427.87
424.263	2501.59
424.471	2560.98
424.679	2675.67
424.887	2722.77
425.094	2862.04
425.302	2886.61
425.51	2870.23
425.718	2960.34
425.925	2931.67
426.133	3134.42
426.341	3292.11
426.548	3572.68
426.756	3564.49
426.964	3494.86
427.171	3718.09
427.379	3834.82
427.586	3771.33
427.794	3836.87
428.001	4242.37
428.209	4287.42
428.417	4232.13
428.624	4578.23
428.832	4658.1
429.039	4592.57
429.247	4672.44
429.454	5032.88
429.662	5270.45
429.869	4889.53
430.076	5344.17
430.284	5282.74
430.491	5489.58
430.699	5741.48
430.906	5860.26
431.114	5786.54
431.321	5977
431.528	6091.68
431.736	6544.28
431.943	6898.58
432.15	6640.54
432.358	6673.31
432.565	7142.29
432.772	7037.84
432.979	7367.57
433.187	7519.12
433.394	7648.14
433.601	7992.2
433.808	7920.52
434.016	8090.5
434.223	8203.14
434.43	8756.09
434.637	8788.86
434.844	9255.79
435.052	9370.48
435.259	9255.79
435.466	9456.5
435.673	9243.51
435.88	9952.1
436.087	10398.56
436.294	10623.84
436.501	10220.39
436.708	10206.05
436.915	10924.89
437.122	11262.8
437.329	11238.23
437.537	11619.15
437.743	11905.87
437.95	11692.88
438.157	11948.87
438.364	12856.12
438.571	12561.22
438.778	12714.81
438.985	13925.16
439.192	13206.33
439.399	13884.2
439.606	13415.22
439.813	14252.84
440.02	15121.18
440.227	14707.49
440.433	14582.56
440.64	15147.8
440.847	15096.6
441.054	15422.23
441.261	16386.82
441.467	16511.75
441.674	16550.66
441.881	17126.14
442.088	17238.78
442.294	16964.35
442.501	17599.22
442.708	17674.99
442.914	18418.41
443.121	19210.97
443.328	18752.23
443.534	20286.15
443.741	19456.73
443.948	19172.06
444.154	20419.27
444.361	20255.43
444.568	20757.19
444.774	20685.51
444.981	20880.07
445.187	21279.42
445.394	22211.25
445.6	21854.9
445.807	24111.76
446.013	23042.72
446.22	23347.87
446.426	24337.04
446.633	24470.15
446.839	25602.68
447.046	24300.17
447.252	25614.97
447.459	25674.36
447.665	25893.49
447.871	26853.99
448.078	27554.4
448.284	26649.19
448.491	27398.75
448.697	28484.17
448.903	28854.86
449.11	28736.07
449.316	28506.7
449.522	29071.94
449.728	29577.79
449.935	29796.92
450.141	29956.66
450.347	30542.38
450.553	29811.26
450.76	30016.05
450.966	31054.37
451.172	30788.14
451.378	31197.73
451.584	30599.73
451.791	31676.96
451.997	31732.25
452.203	32180.76
452.409	32221.72
452.615	31877.66
452.821	31009.32
453.027	30270
453.233	32094.74
453.44	30628.4
453.646	31146.53
453.852	31210.02
454.058	31685.15
454.264	30652.97
454.47	31836.7
454.676	30802.47
454.882	31783.45
455.088	29041.22
455.294	29268.55
455.5	29717.05
455.705	30140.98
455.911	28963.4
456.117	28334.67
456.323	28531.28
456.529	26563.18
456.735	27843.16
456.941	27058.79
457.147	26856.04
457.352	25834.1
457.558	25688.7
457.764	25660.02
457.97	25197.18
458.176	24736.39
458.381	24982.15
458.587	23562.9
458.793	23374.49
458.999	22416.04
459.204	23646.87
459.41	23218.85
459.616	21701.3
459.821	21734.07
460.027	21979.82
460.233	21213.88
460.438	20306.63
460.644	20476.62
460.85	19385.05
461.055	19026.65
461.261	19204.83
461.466	17629.94
461.672	17330.94
461.878	18469.61
462.083	17005.31
462.289	16874.24
462.494	16769.79
462.7	15987.47
462.905	15629.07
463.111	16059.15
463.316	16016.14
463.522	15665.94
463.727	15878.93
463.932	15842.06
464.138	15516.44
464.343	15563.54
464.549	14957.34
464.754	15784.72
464.959	15530.77
465.165	15280.92
465.37	14869.28
465.575	14215.98
465.781	15006.49
465.986	14994.2
466.191	14600.99
466.397	14396.2
466.602	13470.51
466.807	14023.47
467.012	14134.06
467.218	14138.15
467.423	13798.19
467.628	14146.34
467.833	14408.48
468.038	13830.96
468.244	13560.63
468.449	14050.09
468.654	13628.21
468.859	13630.26
469.064	13327.16
469.269	12872.51
469.474	13017.91
469.679	13157.18
469.885	12991.29
470.09	13044.54
470.295	13011.77
470.5	12849.98
470.705	12667.71
470.91	12405.57
471.115	12297.03
471.32	12804.92
471.525	12241.73
471.73	12530.5
471.935	12061.51
472.139	11815.76
472.344	12049.22
472.549	11742.03
472.754	11701.07
472.959	11463.51
473.164	11344.72
473.369	11078.49
473.574	11701.07
473.778	11357.01
473.983	11178.84
474.188	11232.08
474.393	10607.45
474.598	11012.95
474.802	10681.18
475.007	10507.1
475.212	10711.9
475.417	10226.53
475.621	10242.92
475.826	10249.06
476.031	10134.37
476.235	9700.2
476.44	10083.17
476.645	9816.94
476.849	9999.21
477.054	9571.18
477.259	9659.24
477.463	9565.04
477.668	9380.72
477.872	9511.79
478.077	9263.99
478.282	9018.23
478.486	9106.29
478.691	9046.9
478.895	8981.37
479.1	8942.46
479.304	8801.15
479.509	8778.62
479.713	8815.48
479.918	8743.8
480.122	8446.85
480.326	8590.2
480.531	8579.97
480.735	8444.8
480.94	8403.84
481.144	8463.23
481.348	8311.68
481.553	8248.19
481.757	8285.06
481.961	8344.45
482.166	8465.28
482.37	8231.81
482.574	8330.11
482.778	8264.58
482.983	8467.33
483.187	8156.04
483.391	8287.11
483.595	8211.33
483.8	8190.85
484.004	8309.63
484.208	8473.47
484.412	8172.42
484.616	8283.01
484.821	8397.7
485.025	7961.48
485.229	8348.54
485.433	8258.43
485.637	8092.55
485.841	8201.09
486.045	8061.83
486.249	8285.06
486.453	8090.5
486.657	8166.28
486.861	8240
487.065	7965.57
487.269	8264.58
487.473	7965.57
487.677	8237.95
487.881	8346.5
488.085	8278.91
488.289	8369.02
488.493	8115.08
488.697	8192.9
488.901	8393.6
489.105	8321.92
489.309	8278.91
489.512	8313.73
489.716	8418.18
489.92	8178.56
490.124	8272.77
490.328	8450.94
490.531	8338.3
490.735	8500.09
490.939	8459.13
491.143	8590.2
491.346	8244.1
491.55	8491.9
491.754	8674.17
491.958	8678.27
492.161	8489.85
492.365	8555.39
492.569	8596.35
492.772	8741.75
492.976	8919.93
493.18	8778.62
493.383	8928.12
493.587	8891.26
493.79	9218.93
493.994	8956.79
494.197	9032.57
494.401	9114.48
494.605	9139.06
494.808	9274.23
495.012	9401.2
495.215	9356.15
495.419	9513.84
495.622	9309.04
495.825	9714.54
496.029	9489.26
496.232	9794.41
496.436	9554.8
496.639	9986.92
496.843	10154.85
497.046	10062.69
497.249	10429.28
497.453	10251.11
497.656	10367.84
497.859	10361.7
498.063	10511.2
498.266	10834.78
498.469	10589.02
498.673	10640.22
498.876	10890.07
499.079	11080.53
499.282	10965.85
499.485	11201.37
499.689	11455.31
499.892	11277.14
500.095	11438.93
500.298	11836.24
500.501	11715.41
500.705	11926.35
500.908	12241.73
501.111	12305.22
501.314	12135.24
501.517	12303.17
501.72	12682.05
501.923	12493.63
502.126	13112.12
502.329	13044.54
502.532	13169.46
502.735	13208.37
502.938	13505.33
503.141	13337.4
503.344	13884.2
503.547	13841.2
503.75	14007.08
503.953	14172.97
504.156	14390.05
504.359	14506.79
504.562	14748.45
504.765	14871.33
504.968	14785.31
505.17	15151.9
505.373	15235.86
505.576	15364.89
505.779	15657.75
505.982	15436.56
506.185	16079.63
506.387	16007.95
506.59	16001.8
506.793	16313.1
506.996	16268.04
507.198	16710.4
507.401	16708.35
507.604	16966.4
507.807	17023.74
508.009	17507.06
508.212	17537.78
508.415	17748.72
508.617	17847.02
508.82	17808.11
509.022	17980.14
509.225	18367.21
509.428	18565.86
509.63	18475.75
509.833	18488.04
510.035	19069.66
510.238	19245.79
510.44	19395.29
510.643	19649.24
510.845	19559.13
511.048	19718.87
511.25	20177.61
511.453	20398.79
511.655	20648.64
511.858	20460.23
512.06	20867.78
512.262	21168.83
512.465	21203.64
512.667	21258.94
512.87	21617.33
513.072	21619.38
513.274	22114.99
513.477	22473.39
513.679	22514.34
513.881	22766.24
514.084	22960.8
514.286	22962.85
514.488	23405.21
514.69	23497.37
514.893	23861.91
515.095	23915.16
515.297	24001.17
515.499	24205.97
515.701	24265.36
515.904	24783.49
516.106	25100.93
516.308	25250.43
516.51	25729.66
516.712	25037.44
516.914	25825.91
517.116	26108.53
517.318	26169.97
517.52	26491.5
517.722	26614.38
517.925	26962.53
518.127	26841.7
518.329	27472.48
518.531	27357.79
518.733	27589.21
518.935	27871.83
519.136	27929.17
519.338	28199.51
519.54	28402.25
519.742	28865.1
519.944	28924.49
520.146	29215.3
520.348	29489.73
520.55	29880.89
520.752	29798.97
520.954	30497.33
521.155	30104.12
521.357	30630.44
521.559	30726.7
521.761	31142.44
521.963	31210.02
522.164	31218.21
522.366	31408.67
522.568	31869.47
522.77	32127.51
522.971	32100.89
523.173	32049.69
523.375	32678.41
523.576	32670.22
523.778	32487.95
523.98	32950.79
524.181	33376.77
524.383	33413.63
524.584	33647.1
524.786	33157.64
524.988	33309.19
525.189	33985.02
525.391	34042.36
525.592	34378.23
525.794	34431.47
525.995	34540.02
526.197	34585.07
526.398	34638.32
526.6	34941.42
526.801	35150.31
527.003	35260.9
527.204	35473.89
527.406	35191.27
527.607	35498.47
527.808	35815.9
528.01	35185.13
528.211	35680.74
528.412	36665.81
528.614	36424.15
528.815	36225.5
529.016	36303.32
529.218	36354.52
529.419	36749.78
529.62	36594.13
529.822	36280.79
530.023	36520.4
530.224	36354.52
530.425	36444.63
530.626	36717.01
530.828	36487.64
531.029	37310.92
531.23	36659.66
531.431	36794.83
531.632	37302.73
531.833	37253.58
532.035	37202.38
532.236	37339.59
532.437	37370.31
532.638	36891.09
532.839	37429.7
533.04	37464.52
533.241	37503.43
533.442	38103.48
533.643	37558.72
533.844	37583.3
534.045	37595.59
534.246	37095.88
534.447	37697.98
534.648	37671.36
534.849	37487.04
535.05	37548.48
535.251	37874.11
535.451	37185.99
535.652	37689.79
535.853	37534.15
536.054	37640.64
536.255	37708.22
536.456	37657.03
536.657	38037.95
536.857	37738.94
537.058	37339.59
537.259	37587.39
537.46	37722.56
537.66	37640.64
537.861	37880.25
538.062	37489.09
538.263	37732.8
538.463	37317.06
538.664	37591.49
538.865	37937.6
539.065	38072.76
539.266	37521.86
539.466	37724.61
539.667	37509.57
539.868	37745.09
540.068	37945.79
540.269	37568.96
540.469	38093.24
540.67	37315.01
540.87	37425.6
541.071	37407.17
541.271	37642.69
541.472	37888.45
541.672	37487.04
541.873	37585.35
542.073	37032.39
542.274	37689.79
542.474	37591.49
542.675	37132.75
542.875	37999.04
543.075	37636.55
543.276	37040.59
543.476	37216.71
543.676	37347.78
543.877	37540.29
544.077	37812.67
544.277	37302.73
544.478	37097.93
544.678	37401.03
544.878	37339.59
545.078	37329.35
545.279	37161.42
545.479	37161.42
545.679	37552.58
545.879	37331.4
546.079	37575.11
546.28	37507.52
546.48	36960.72
546.68	37642.69
546.88	37323.21
547.08	37085.64
547.28	37024.2
547.48	36835.79
547.68	37081.55
547.88	37114.31
548.081	37245.38
548.281	37439.94
548.481	37257.67
548.681	37624.26
548.881	37261.77
549.081	37196.23
549.28	36930
549.48	37013.96
549.68	37118.41
549.88	37771.71
550.08	36893.13
550.28	37568.96
550.48	37235.14
550.68	37282.25
550.88	36852.17
551.08	37108.17
551.279	37601.73
551.479	36991.44
551.679	37253.58
551.879	36665.81
552.079	37237.19
552.278	37282.25
552.478	37052.87
552.678	37312.97
552.878	37462.47
553.077	36999.63
553.277	36882.89
553.477	37427.65
553.676	37222.86
553.876	36669.9
554.076	36872.65
554.275	36760.02
554.475	36614.61
554.674	36712.91
554.874	37007.82
555.074	36594.13
555.273	36542.93
555.473	36805.07
555.672	36901.32
555.872	36835.79
556.071	36385.24
556.271	36757.97
556.47	36817.36
556.67	36626.9
556.869	36379.09
557.068	36792.78
557.268	36211.16
557.467	36317.65
557.667	36327.89
557.866	36364.76
558.065	36520.4
558.265	36039.13
558.464	35899.87
558.663	36368.85
558.863	36188.63
559.062	36676.05
559.261	35848.67
559.461	36805.07
559.66	35916.25
559.859	36125.14
560.058	35570.15
560.258	35977.69
560.457	35510.75
560.656	35744.22
560.855	35713.5
561.054	35914.2
561.253	35537.38
561.453	35856.86
561.652	35480.03
561.851	35324.39
562.05	35662.3
562.249	35553.76
562.448	35367.4
562.647	35078.63
562.846	35066.34
563.045	35027.43
563.244	34583.02
563.443	35275.24
563.642	34822.64
563.841	34863.6
564.04	34988.52
564.239	35076.58
564.438	34503.15
564.637	34884.08
564.836	34535.92
565.035	34654.7
565.234	34755.05
565.432	34077.18
565.631	34281.97
565.83	34451.95
566.029	34261.49
566.228	34406.9
566.427	34222.58
566.625	34001.4
566.824	33634.81
567.023	34021.88
567.222	33569.28
567.42	34185.72
567.619	33761.79
567.818	33610.24
568.016	33802.75
568.215	33870.33
568.414	33788.41
568.612	34081.27
568.811	33180.17
569.01	33407.49
569.208	33210.89
569.407	33374.72
569.605	32928.27
569.804	33315.33
570.002	32438.8
570.201	33188.36
570.4	32918.03
570.598	32672.27
570.797	32743.95
570.995	32911.88
571.193	32553.49
571.392	32770.57
571.59	32109.08
571.789	32608.78
571.987	32707.08
572.186	32082.45
572.384	32135.7
572.582	32184.85
572.781	32287.25
572.979	31601.18
573.177	31883.8
573.376	31908.38
573.574	31543.84
573.772	31963.67
573.971	31732.25
574.169	31369.76
574.367	31152.68
574.565	31848.99
574.763	31334.95
574.962	31175.2
575.16	30747.18
575.358	31296.03
575.556	30526
575.754	31246.88
575.952	30552.62
576.151	31015.46
576.349	30564.91
576.547	30616.11
576.745	30710.32
576.943	31040.04
577.141	30687.79
577.339	30538.29
577.537	30431.79
577.735	30558.77
577.933	30163.51
578.131	30165.56
578.329	29952.57
578.527	29921.85
578.725	30022.2
578.923	30081.59
579.121	29696.57
579.319	29745.72
579.516	29690.43
579.714	29682.24
579.912	29792.83
580.11	29753.91
580.308	29368.9
580.506	29348.42
580.704	28867.14
580.901	29237.83
581.099	29180.48
581.297	28639.82
581.495	28854.86
581.692	29084.23
581.89	28404.3
582.088	28562
582.285	28658.25
582.483	28453.45
582.681	28447.31
582.878	28473.93
583.076	28246.61
583.274	28817.99
583.471	28199.51
583.669	28117.59
583.866	27982.42
584.064	28133.97
584.262	27851.35
584.459	27722.33
584.657	27570.78
584.854	27920.98
585.052	27408.99
585.249	27423.33
585.447	27568.73
585.644	27146.85
585.841	27222.62
586.039	27605.59
586.236	27312.74
586.434	27116.13
586.631	26681.96
586.828	26819.17
587.026	26761.83
587.223	26806.89
587.42	26976.87
587.618	26563.18
587.815	26935.91
588.012	26403.44
588.21	26536.56
588.407	26753.64
588.604	26643.05
588.801	26337.9
588.999	26319.47
589.196	26192.5
589.393	26202.74
589.59	26120.82
589.787	25881.21
589.984	26034.8
590.182	25752.18
590.379	26032.75
590.576	25582.2
590.773	25571.96
590.97	25475.71
591.167	25696.89
591.364	25193.09
591.561	25561.72
591.758	25254.53
591.955	25232
592.152	25320.06
592.349	25225.86
592.546	25072.26
592.743	25010.82
592.94	24603.27
593.137	24783.49
593.334	24908.42
593.531	24685.19
593.727	24867.46
593.924	24767.11
594.121	24310.41
594.318	24722.05
594.515	24238.73
594.712	24380.04
594.908	24097.42
595.105	24199.82
595.302	23802.52
595.499	23964.31
595.696	24103.57
595.892	23696.02
596.089	23853.72
596.286	24173.2
596.482	23818.9
596.679	23542.42
596.876	23519.9
597.072	23601.82
597.269	23442.07
597.466	23362.2
597.662	23448.22
597.859	23214.75
598.055	23341.72
598.252	23220.89
598.448	22741.67
598.645	22858.4
598.841	23077.54
599.038	22866.6
599.234	23007.9
599.431	22477.48
599.627	22461.1
599.824	22594.22
600.02	22493.86
600.217	22397.61
600.413	22360.75
600.609	22366.89
600.806	22143.66
601.002	22266.54
601.198	22051.5
601.395	21854.9
601.591	21914.29
601.787	22076.08
601.984	21711.54
602.18	21994.16
602.376	21981.87
602.572	21488.31
602.769	21637.81
602.965	21375.67
603.161	21756.6
603.357	21367.48
603.553	21312.19
603.75	21410.49
603.946	21078.72
604.142	21123.77
604.338	20878.02
604.534	21088.96
604.73	20591.3
604.926	20908.74
605.122	21217.98
605.318	20816.58
605.514	20687.56
605.71	20284.11
605.906	20642.5
606.102	20615.88
606.298	20499.14
606.494	20564.68
606.69	20517.57
606.886	20628.17
607.082	20118.22
607.278	20507.34
607.474	19907.28
607.67	20413.13
607.866	19815.12
608.062	20337.35
608.257	20196.04
608.453	20150.99
608.649	20042.45
608.845	19786.45
609.041	19886.8
609.236	19899.09
609.432	19589.85
609.628	19849.94
609.824	19821.27
610.019	19575.51
610.215	19876.56
610.411	19788.5
610.606	19798.74
610.802	19694.29
610.998	19518.17
611.193	19692.24
611.389	19339.99
611.584	19256.03
611.78	19309.27
611.976	19575.51
612.171	19323.61
612.367	19180.25
612.562	19460.82
612.758	19026.65
612.953	19180.25
613.149	19247.83
613.344	19057.37
613.539	19358.42
613.735	18903.78
613.93	19163.87
614.126	18952.93
614.321	19184.35
614.517	18995.93
614.712	18864.86
614.907	18647.78
615.103	18844.38
615.298	18768.61
615.493	18619.11
615.688	18393.83
615.884	18946.78
616.079	18479.85
616.274	18504.42
616.47	18336.49
616.665	18520.81
616.86	18176.75
617.055	18483.94
617.25	18498.28
617.445	18619.11
617.641	17885.94
617.836	18268.91
618.031	17861.36
618.226	18156.27
618.421	17988.33
618.616	18051.82
618.811	17615.6
619.006	18137.84
619.201	17611.51
619.396	17783.54
619.591	17271.54
619.786	17736.43
619.981	17537.78
620.176	17562.36
620.371	17324.79
620.566	17396.47
620.761	17410.81
620.956	17339.13
621.151	17142.52
621.346	17132.28
621.541	17017.6
621.735	16898.81
621.93	16845.57
622.125	16925.44
622.32	16300.81
622.515	16505.6
622.709	16464.64
622.904	16554.76
623.099	16458.5
623.294	16360.2
623.488	16108.3
623.683	16038.67
623.878	15821.58
624.072	16005.9
624.267	16044.81
624.462	16001.8
624.656	15516.44
624.851	15670.03
625.046	15434.52
625.24	15651.6
625.435	15153.94
625.629	15379.22
625.824	15143.7
626.018	15131.42
626.213	14676.77
626.407	15117.08
626.602	14852.89
626.796	14805.79
626.991	14986.01
627.185	14674.72
627.38	14592.8
627.574	14420.77
627.768	14519.07
627.963	14394.15
628.157	14328.61
628.352	14191.4
628.546	14199.59
628.74	14246.69
628.935	13810.48
629.129	13898.54
629.323	13947.69
629.517	13927.21
629.712	13740.85
629.906	13779.76
630.1	13482.8
630.294	13407.03
630.489	13400.88
630.683	13484.85
630.877	13333.3
631.071	13286.2
631.265	13333.3
631.459	13171.51
631.653	13206.33
631.848	13038.39
632.042	12929.85
632.236	12938.04
632.43	12753.73
632.624	12776.25
632.818	12667.71
633.012	12620.61
633.206	12462.91
633.4	12602.18
633.594	12374.85
633.788	12272.45
633.982	12417.86
634.176	12440.39
634.369	12299.08
634.563	12094.28
634.757	12030.79
634.951	11963.21
635.145	12026.7
635.339	12026.7
635.533	12094.28
635.726	11817.8
635.92	11604.81
636.114	11633.49
636.308	11488.08
636.501	11570
636.695	11584.34
636.889	11350.87
637.083	11227.99
637.276	11168.6
637.47	11098.97
637.664	11250.52
637.857	11004.76
638.051	11209.56
638.244	11074.39
638.438	10904.41
638.632	10928.99
638.825	10808.16
639.019	10695.52
639.212	10670.94
639.406	10632.03
639.599	10392.42
639.793	10537.82
639.986	10367.84
640.18	10455.9
640.373	10226.53
640.567	10201.96
640.76	10197.86
640.954	10210.15
641.147	10111.85
641.34	10163.04
641.534	10165.09
641.727	10130.28
641.92	9876.33
642.114	9972.58
642.307	9687.92
642.5	9675.63
642.694	9603.95
642.887	9739.12
643.08	9773.93
643.273	9562.99
643.467	9642.86
643.66	9464.69
643.853	9499.5
644.046	9241.46
644.239	9347.95
644.432	9290.61
644.626	9284.47
644.819	9145.2
645.012	9177.97
645.205	9167.73
645.398	9251.7
645.591	8956.79
645.784	8954.74
645.977	8842.11
646.17	8776.57
646.363	8702.84
646.556	8606.59
646.749	8682.36
646.942	8846.2
647.135	8555.39
647.328	8653.69
647.521	8444.8
647.714	8293.25
647.907	8326.02
648.099	8377.22
648.292	8403.84
648.485	8293.25
648.678	8217.47
648.871	8262.53
649.064	8045.45
649.256	8121.22
649.449	8194.95
649.642	8180.61
649.835	8147.84
650.027	7822.22
650.22	7932.81
650.413	7920.52
650.605	7795.59
650.798	7971.72
650.991	7844.74
651.183	7838.6
651.376	7719.82
651.568	7601.04
651.761	7494.54
651.954	7572.36
652.146	7615.37
652.339	7525.26
652.531	7375.76
652.724	7469.97
652.916	7422.86
653.109	7496.59
653.301	7400.34
653.494	7351.18
653.686	7248.79
653.879	7285.65
654.071	7195.54
654.263	7041.94
654.456	7265.17
654.648	7179.15
654.84	6867.86
655.033	6767.51
655.225	6900.63
655.417	6736.79
655.61	6812.57
655.802	6835.1
655.994	6654.87
656.186	6656.92
656.379	6749.08
656.571	6775.7
656.763	6769.56
656.955	6591.39
657.148	6744.99
657.34	6634.39
657.532	6544.28
657.724	6564.76
657.916	6435.74
658.108	6454.17
658.3	6269.86
658.492	6388.64
658.684	6312.86
658.876	6423.45
659.068	6020
659.26	6157.22
659.452	6185.89
659.644	6179.75
659.836	6171.55
660.028	6237.09
660.22	6142.88
660.412	6001.57
660.604	6017.96
660.796	5911.46
660.988	6073.25
661.18	5944.23
661.372	5876.65
661.563	5780.39
661.755	5968.8
661.947	5755.82
662.139	5551.02
662.331	5761.96
662.522	5774.25
662.714	5731.24
662.906	5548.97
663.097	5622.7
663.289	5677.99
663.481	5639.08
663.673	5567.4
663.864	5680.04
664.056	5471.15
664.247	5510.06
664.439	5395.37
664.631	5460.91
664.822	5393.33
665.014	5489.58
665.205	5387.18
665.397	5323.69
665.588	5454.76
665.78	5239.73
665.971	5286.83
666.163	5172.15
666.354	5239.73
666.546	5141.43
666.737	5151.67
666.929	5204.91
667.12	5266.35
667.311	5155.76
667.503	5090.23
667.694	4987.83
667.885	5008.31
668.077	5057.46
668.268	4996.02
668.459	5057.46
668.651	4815.8
668.842	4914.1
669.033	4967.35
669.224	4885.43
669.416	5041.08
669.607	4848.57
669.798	4803.51
669.989	4840.37
670.18	4764.6
670.371	4840.37
670.563	4742.07
670.754	4903.86
670.945	4733.88
671.136	4670.39
671.327	4721.59
671.518	4608.95
671.709	4793.27
671.9	4783.03
672.091	4791.22
672.282	4651.96
672.473	4481.98
672.664	4649.91
672.855	4504.51
673.046	4676.54
673.237	4629.43
673.428	4479.93
673.619	4692.92
673.809	4467.64
674	4459.45
674.191	4371.39
674.382	4524.99
674.573	4303.81
674.764	4312
674.954	4504.51
675.145	4279.23
675.336	4316.09
675.527	4328.38
675.717	4336.57
675.908	4363.2
676.099	4223.94
676.289	4344.77
676.48	4355.01
676.671	4387.77
676.861	4266.94
677.052	4223.94
677.243	4385.73
677.433	4230.08
677.624	4142.02
677.814	4168.64
678.005	4283.33
678.195	4248.51
678.386	4148.16
678.576	4123.59
678.767	4019.14
678.957	4176.83
679.148	4305.85
679.338	4152.26
679.529	4142.02
679.719	4154.3
679.909	4254.66
680.1	4176.83
680.29	4213.7
680.481	4256.7
680.671	4041.67
680.861	4135.87
681.052	4037.57
681.242	4072.39
681.432	3976.13
681.622	4002.75
681.813	4029.38
682.003	4072.39
682.193	4062.15
682.383	4049.86
682.573	4096.96
682.764	4012.99
682.954	3994.56
683.144	4010.95
683.334	3890.12
683.524	3998.66
683.714	4002.75
683.904	3969.99
684.094	3972.04
684.284	3877.83
684.474	3988.42
684.664	3978.18
684.854	3929.03
685.044	3904.45
685.234	3734.47
685.424	3994.56
685.614	3754.95
685.804	3898.31
685.994	3963.84
686.184	3785.67
686.374	3861.45
686.564	3648.46
686.753	3877.83
686.943	3681.22
687.133	3689.42
687.323	3740.61
687.513	3746.76
687.702	3605.45
687.892	3677.13
688.082	3668.94
688.272	3578.83
688.461	3597.26
688.651	3775.43
688.841	3689.42
689.03	3515.34
689.22	3607.5
689.41	3519.43
689.599	3593.16
689.789	3554.25
689.979	3556.3
690.168	3525.58
690.358	3486.67
690.547	3650.5
690.737	3384.27
690.926	3443.66
691.116	3269.58
691.305	3408.84
691.495	3429.32
691.684	3519.43
691.874	3423.18
692.063	3365.84
692.252	3380.17
692.442	3304.4
692.631	3300.3
692.82	3273.68
693.01	3384.27
693.199	3222.48
693.388	3255.25
693.578	3185.62
693.767	3230.67
693.956	3240.91
694.146	3247.05
694.335	3187.66
694.524	3222.48
694.713	3173.33
694.902	3156.94
695.092	3271.63
695.281	3048.4
695.47	3150.8
695.659	3066.83
695.848	3075.03
696.037	3087.31
696.226	3105.74
696.415	3005.39
696.604	2976.72
696.793	3003.35
696.982	3085.26
697.171	3058.64
697.36	3101.65
697.549	3003.35
697.738	3087.31
697.927	3091.41
698.116	3040.21
698.305	2972.63
698.494	3025.87
698.683	2976.72
698.872	3081.17
699.061	2829.27
699.25	2978.77
699.438	2968.53
699.627	2997.2
699.816	3062.74
700.005	2937.81
700.193	3093.46
700.382	2948.05
700.571	2927.57
700.76	2929.62
700.948	2993.11
701.137	2909.14
701.326	2821.08
701.514	2952.15
701.703	3021.78
701.892	2884.56
702.08	2907.09
702.269	2870.23
702.457	2890.71
702.646	2837.46
702.834	2962.39
703.023	2943.96
703.212	2804.69
703.4	2714.58
703.589	2763.73
703.777	2884.56
703.965	2823.12
704.154	2857.94
704.342	2794.45
704.531	2790.36
704.719	2894.8
704.907	2890.71
705.096	2776.02
705.284	2782.17
705.472	2743.25
705.661	2694.1
705.849	2931.67
706.037	2855.89
706.226	2728.92
706.414	2706.39
706.602	2802.65
706.79	2733.01
706.979	2792.41
707.167	2886.61
707.355	2675.67
707.543	2694.1
707.731	2763.73
707.919	2763.73
708.107	2690.01
708.296	2595.8
708.484	2657.24
708.672	2784.21
708.86	2626.52
709.048	2685.91
709.236	2694.1
709.424	2718.68
709.612	2587.61
709.8	2741.21
709.988	2659.29
710.176	2747.35
710.364	2714.58
710.551	2728.92
710.739	2749.4
710.927	2657.24
711.115	2692.05
711.303	2696.15
711.491	2706.39
711.679	2616.28
711.866	2683.86
712.054	2667.48
712.242	2681.82
712.43	2632.66
712.617	2501.59
712.805	2552.79
712.993	2601.94
713.181	2624.47
713.368	2638.81
713.556	2575.32
713.744	2644.95
713.931	2563.03
714.119	2714.58
714.306	2528.22
714.494	2583.51
714.682	2497.5
714.869	2593.75
715.057	2636.76
715.244	2552.79
715.432	2585.56
715.619	2550.75
715.807	2591.7
715.994	2501.59
716.182	2634.71
716.369	2530.27
716.556	2526.17
716.744	2565.08
716.931	2593.75
717.119	2624.47
717.306	2464.73
717.493	2567.13
717.681	2380.76
717.868	2536.41
718.055	2434.01
718.242	2495.45
718.43	2526.17
718.617	2526.17
718.804	2499.55
718.991	2462.68
719.179	2548.7
719.366	2489.31
719.553	2446.3
719.74	2505.69
719.927	2479.07
720.114	2460.63
720.301	2509.79
720.488	2395.1
720.676	2542.55
720.863	2511.83
721.05	2563.03
721.237	2530.27
721.424	2429.91
721.611	2472.92
721.798	2454.49
721.985	2354.14
722.172	2384.86
722.358	2481.11
722.545	2464.73
722.732	2345.95
722.919	2454.49
723.106	2528.22
723.293	2429.91
723.48	2378.72
723.667	2423.77
723.853	2587.61
724.04	2329.56
724.227	2501.59
724.414	2348
724.6	2378.72
724.787	2446.3
724.974	2481.11
725.161	2393.05
725.347	2436.06
725.534	2434.01
725.72	2313.18
725.907	2395.1
726.094	2501.59
726.28	2360.28
726.467	2378.72
726.653	2444.25
726.84	2370.52
727.027	2499.55
727.213	2329.56
727.4	2415.58
727.586	2386.91
727.773	2362.33
727.959	2288.61
728.145	2415.58
728.332	2276.32
728.518	2341.85
728.705	2446.3
728.891	2358.24
729.077	2407.39
729.264	2286.56
729.45	2350.04
729.636	2335.71
729.823	2421.72
730.009	2360.28
730.195	2411.48
730.382	2327.52
730.568	2307.04
730.754	2358.24
730.94	2360.28
731.126	2337.76
731.313	2427.87
731.499	2401.24
731.685	2292.7
731.871	2358.24
732.057	2388.96
732.243	2251.74
732.429	2321.37
732.615	2317.28
732.801	2456.54
732.987	2354.14
733.173	2280.41
733.359	2180.06
733.545	2202.59
733.731	2296.8
733.917	2182.11
734.103	2157.54
734.289	2362.33
734.475	2292.7
734.661	2333.66
734.847	2343.9
735.033	2223.07
735.219	2278.37
735.404	2288.61
735.59	2255.84
735.776	2241.5
735.962	2276.32
736.148	2259.93
736.333	2364.38
736.519	2186.21
736.705	2290.65
736.89	2192.35
737.076	2235.36
737.262	2151.39
737.447	2294.75
737.633	2100.19
737.819	2171.87
738.004	2186.21
738.19	2216.93
738.375	2202.59
738.561	2216.93
738.747	2157.54
738.932	2061.28
739.118	2180.06
739.303	2233.31
739.489	2198.49
739.674	2194.4
739.859	2108.38
740.045	2132.96
740.23	2042.85
740.416	2005.99
740.601	2116.58
740.786	2126.82
740.972	2055.14
741.157	2024.42
741.342	2059.23
741.528	2132.96
741.713	2036.7
741.898	2046.94
742.084	1946.59
742.269	2087.9
742.454	1934.31
742.639	2020.32
742.824	2100.19
743.01	1895.4
743.195	2077.66
743.38	2048.99
743.565	2003.94
743.75	1999.84
743.935	1924.07
744.12	2048.99
744.305	1948.64
744.49	1948.64
744.675	1889.25
744.86	1895.4
745.045	1915.87
745.23	1805.28
745.415	1911.78
745.6	2046.94
745.785	1844.2
745.97	1813.48
746.155	1962.98
746.34	1838.05
746.525	1860.58
746.71	1803.24
746.895	1942.5
747.079	1770.47
747.264	1790.95
747.449	1842.15
747.634	1829.86
747.819	1797.09
748.003	1848.29
748.188	1817.57
748.373	1729.51
748.557	1745.89
748.742	1719.27
748.927	1721.32
749.111	1725.41
749.296	1709.03
749.481	1739.75
749.665	1666.02
749.85	1629.16
750.034	1620.97
750.219	1684.45
750.404	1692.65
750.588	1573.86
750.773	1633.26
750.957	1657.83
751.141	1620.97
751.326	1657.83
751.51	1584.1
751.695	1571.82
751.879	1559.53
752.064	1485.8
752.248	1561.58
752.432	1559.53
752.617	1489.9
752.801	1502.19
752.985	1522.66
753.17	1537
753.354	1518.57
753.538	1512.42
753.722	1524.71
753.907	1444.84
754.091	1471.47
754.275	1397.74
754.459	1350.64
754.643	1281
754.828	1360.88
755.012	1457.13
755.196	1287.15
755.38	1291.24
755.564	1397.74
755.748	1401.83
755.932	1334.25
756.116	1307.63
756.3	1381.35
756.484	1219.57
756.668	1297.39
756.852	1272.81
757.036	1338.35
757.22	1231.85
757.404	1252.33
757.588	1233.9
757.772	1158.13
757.956	1186.8
758.14	1229.81
758.323	1117.17
758.507	1231.85
758.691	1223.66
758.875	1250.28
759.059	1176.56
759.242	1227.76
759.426	1201.13
759.61	1149.93
759.794	1168.37
759.977	1094.64
760.161	1158.13
760.345	1119.21
760.528	1166.32
760.712	1074.16
760.895	1078.26
761.079	1045.49
761.263	1006.58
761.446	1092.59
761.63	1086.45
761.813	1186.8
761.997	1090.54
762.18	1059.82
762.364	1041.39
762.547	992.24
762.731	1027.06
762.914	1039.34
763.098	1010.67
763.281	977.91
763.464	1022.96
763.648	1010.67
763.831	1020.91
764.015	961.52
764.198	1041.39
764.381	920.56
764.564	914.42
764.748	1018.86
764.931	979.95
765.114	1014.77
765.297	1033.2
765.481	961.52
765.664	957.43
765.847	898.03
766.03	998.38
766.213	945.14
766.397	910.32
766.58	953.33
766.763	912.37
766.946	969.71
767.129	938.99
767.312	969.71
767.495	969.71
767.678	842.74
767.861	918.51
768.044	871.41
768.227	914.42
768.41	803.83
768.593	969.71
768.776	990.19
768.959	873.46
769.142	891.89
769.324	938.99
769.507	875.51
769.69	828.4
769.873	889.84
770.056	812.02
770.239	895.99
770.421	861.17
770.604	848.88
770.787	891.89
770.97	830.45
771.152	867.31
771.335	771.06
771.518	787.44
771.7	799.73
771.883	785.4
772.066	807.92
772.248	773.11
772.431	769.01
772.613	773.11
772.796	758.77
772.978	756.72
773.161	898.03
773.343	836.6
773.526	828.4
773.708	707.57
773.891	683
774.073	693.24
774.256	674.81
774.438	752.63
774.621	660.47
774.803	691.19
774.985	707.57
775.168	707.57
775.35	670.71
775.532	781.3
775.715	687.09
775.897	830.45
776.079	758.77
776.261	678.9
776.444	713.72
776.626	576.5
776.808	646.13
776.99	699.38
777.173	687.09
777.355	648.18
777.537	676.85
777.719	660.47
777.901	723.96
778.083	564.22
778.265	596.98
778.447	691.19
778.629	551.93
778.811	592.89
778.993	685.05
779.175	603.13
779.357	586.74
779.539	562.17
779.721	672.76
779.903	547.83
780.085	584.7
780.267	592.89
780.449	601.08
780.631	625.65
780.812	556.02
780.994	527.35
781.176	611.32
781.358	553.98
781.54	543.74
781.721	617.46
781.903	580.6
782.085	519.16
782.267	553.98
782.448	586.74
782.63	494.58
782.812	531.45
782.993	447.48
783.175	519.16
783.357	410.62
783.538	470.01
783.72	476.15
783.901	480.25
784.083	551.93
784.264	496.63
784.446	404.47
784.627	396.28
784.809	474.1
784.99	553.98
785.172	396.28
785.353	478.2
785.535	433.15
785.716	451.58
785.897	334.84
786.079	455.67
786.26	439.29
786.441	506.87
786.623	441.34
786.804	363.51
786.985	396.28
787.167	400.38
787.348	414.71
787.529	449.53
787.71	422.91
787.891	383.99
788.073	320.51
788.254	349.18
788.435	461.82
788.616	361.47
788.797	306.17
788.978	392.19
789.159	269.31
789.34	465.91
789.522	355.32
789.703	369.66
789.884	334.84
790.065	388.09
790.246	453.63
790.427	388.09
790.607	328.7
790.788	369.66
790.969	332.79
791.15	416.76
791.331	414.71
791.512	289.79
791.693	312.32
791.874	390.14
792.054	480.25
792.235	347.13
792.416	353.27
792.597	257.02
792.778	340.99
792.958	371.71
793.139	316.41
793.32	326.65
793.5	306.17
793.681	300.03
793.862	359.42
794.042	367.61
794.223	218.11
794.404	396.28
794.584	318.46
794.765	232.44
794.945	291.84
795.126	289.79
795.306	322.56
795.487	359.42
795.667	252.92
795.848	283.64
796.028	228.35
796.209	300.03
796.389	318.46
796.57	304.12
796.75	326.65
796.93	314.36
797.111	343.03
797.291	297.98
797.471	236.54
797.652	297.98
797.832	232.44
798.012	318.46
798.192	207.87
798.373	267.26
798.553	248.83
798.733	330.75
798.913	324.6
799.093	261.12
799.274	306.17
799.454	252.92
799.634	291.84
799.814	267.26
799.994	211.96
800.174	289.79
800.354	234.49
800.534	216.06
800.714	232.44
800.894	287.74
801.074	281.6
801.254	250.88
801.434	257.02
801.614	183.29
801.794	257.02
801.974	799.73
802.154	230.4
802.334	254.97
802.514	320.51
802.693	222.2
802.873	242.68
803.053	248.83
803.233	289.79
803.413	248.83
803.592	244.73
803.772	242.68
803.952	216.06
804.131	238.59
804.311	265.21
804.491	226.3
804.67	226.3
804.85	183.29
805.03	263.16
805.209	261.12
805.389	185.34
805.568	269.31
805.748	144.38
805.928	175.1
806.107	242.68
806.287	191.49
806.466	134.14
806.646	179.2
806.825	216.06
807.004	189.44
807.184	250.88
807.363	177.15
807.543	195.58
807.722	166.91
807.901	287.74
808.081	207.87
808.26	173.05
808.439	281.6
808.619	228.35
808.798	160.77
808.977	193.53
809.156	162.81
809.336	226.3
809.515	265.21
809.694	123.9
809.873	154.62
810.052	183.29
810.231	277.5
810.411	168.96
810.59	214.01
810.769	160.77
810.948	183.29
811.127	119.81
811.306	115.71
811.485	230.4
811.664	269.31
811.843	134.14
812.022	185.34
812.201	125.95
812.38	252.92
812.559	144.38
812.737	177.15
812.916	183.29
813.095	134.14
813.274	185.34
813.453	191.49
813.632	146.43
813.811	228.35
813.989	179.2
814.168	158.72
814.347	101.37
814.526	168.96
814.704	166.91
814.883	152.57
815.062	185.34
815.24	168.96
815.419	152.57
815.598	166.91
815.776	144.38
815.955	189.44
816.133	109.57
816.312	189.44
816.49	68.61
816.669	177.15
816.847	125.95
817.026	185.34
817.204	146.43
817.383	97.28
817.561	146.43
817.74	146.43
817.918	134.14
818.097	125.95
818.275	125.95
818.453	119.81
818.632	130.05
818.81	117.76
818.988	138.24
819.167	117.76
819.345	148.48
819.523	68.61
819.701	209.92
819.879	103.42
820.058	80.89
820.236	216.06
820.414	78.85
820.592	158.72
820.77	113.66
820.948	142.33
821.127	74.75
821.305	138.24
821.483	150.53
821.661	84.99
821.839	142.33
822.017	82.94
822.195	144.38
822.373	199.68
822.551	95.23
822.729	142.33
822.907	189.44
823.085	140.29
823.262	130.05
823.44	173.05
823.618	144.38
823.796	113.66
823.974	19.46
824.152	76.8
824.329	89.09
824.507	148.48
824.685	121.85
824.863	54.27
825.04	113.66
825.218	166.91
825.396	76.8
825.574	224.25
825.751	136.19
825.929	111.61
826.107	72.7
826.284	168.96
826.462	103.42
826.639	150.53
826.817	66.56
826.994	99.33
827.172	56.32
827.349	101.37
827.527	160.77
827.704	113.66
827.882	152.57
828.059	109.57
828.237	89.09
828.414	152.57
828.591	3.07
828.769	150.53
828.946	121.85
829.124	97.28
829.301	117.76
829.478	128
829.655	146.43
829.833	78.85
830.01	29.7
830.187	103.42
830.364	72.7
830.542	95.23
830.719	41.98
830.896	128
831.073	142.33
831.25	99.33
831.427	68.61
831.604	56.32
831.782	93.18
831.959	60.42
832.136	3.07
832.313	107.52
832.49	76.8
832.667	44.03
832.844	103.42
833.021	152.57
833.198	44.03
833.374	27.65
833.551	64.51
833.728	95.23
833.905	82.94
834.082	87.04
834.259	115.71
834.436	138.24
834.612	82.94
834.789	158.72
834.966	-11.26
835.143	101.37
835.319	-5.12
835.496	70.65
835.673	121.85
835.85	80.89
836.026	136.19
836.203	109.57
836.38	117.76
836.556	11.26
836.733	123.9
836.909	140.29
837.086	62.46
837.262	44.03
837.439	136.19
837.616	39.94
837.792	7.17
837.968	150.53
838.145	111.61
838.321	80.89
838.498	117.76
838.674	97.28
838.851	101.37
839.027	74.75
839.203	64.51
839.38	54.27
839.556	37.89
839.732	48.13
839.909	93.18
840.085	60.42
840.261	80.89
840.437	31.74
840.614	48.13
840.79	113.66
840.966	56.32
841.142	68.61
841.318	76.8
841.494	15.36
841.671	144.38
841.847	44.03
842.023	62.46
842.199	148.48
842.375	111.61
842.551	48.13
842.727	70.65
842.903	103.42
843.079	-5.12
843.255	107.52
843.431	-3.07
843.607	56.32
843.783	70.65
843.959	66.56
844.134	5.12
844.31	123.9
844.486	56.32
844.662	80.89
844.838	-5.12
845.013	89.09
845.189	44.03
845.365	54.27
845.541	3.07
845.716	33.79
845.892	68.61
846.068	111.61
846.244	78.85
846.419	62.46
846.595	101.37
846.77	64.51
846.946	87.04
847.122	64.51
847.297	48.13
847.473	48.13
847.648	68.61
847.824	46.08
847.999	7.17
848.175	76.8
848.35	13.31
848.526	19.46
848.701	97.28
848.876	62.46
849.052	44.03
849.227	11.26
849.403	60.42
849.578	101.37
849.753	39.94
849.929	54.27
850.104	-1.02
850.279	78.85
850.454	103.42
850.63	109.57
850.805	68.61
850.98	113.66
851.155	-25.6
851.33	128
851.505	17.41
851.681	89.09
851.856	48.13
852.031	97.28
852.206	1.02
852.381	39.94
852.556	3.07
852.731	60.42
852.906	44.03
853.081	15.36
853.256	48.13
853.431	72.7
853.606	35.84
853.781	-27.65
853.956	64.51
854.131	80.89
854.305	27.65
854.48	-1.02
854.655	48.13
854.83	164.86
855.005	50.18
855.18	84.99
855.354	35.84
855.529	60.42
855.704	15.36
855.879	84.99
856.053	-13.31
856.228	142.33
856.403	-54.27
856.577	115.71
856.752	7.17
856.926	27.65
857.101	-13.31
857.276	60.42
857.45	44.03
857.625	78.85
857.799	31.74
857.974	-5.12
858.148	15.36
858.323	87.04
858.497	-19.46
858.672	62.46
858.846	48.13
859.02	19.46
859.195	46.08
859.369	66.56
859.543	27.65
859.718	70.65
859.892	101.37
860.066	-5.12
860.241	11.26
860.415	44.03
860.589	-46.08
860.763	21.5
860.938	13.31
861.112	109.57
861.286	68.61
861.46	19.46
861.634	74.75
861.808	46.08
861.982	-9.22
862.157	46.08
862.331	111.61
862.505	3.07
862.679	11.26
862.853	-29.7
863.027	21.5
863.201	78.85
863.375	37.89
863.549	31.74
863.722	93.18
863.896	87.04
864.07	62.46
864.244	54.27
864.418	68.61
864.592	-19.46
864.766	-52.22
864.939	72.7
865.113	3.07
865.287	41.98
865.461	-62.46
865.634	19.46
865.808	54.27
865.982	23.55
866.156	54.27
866.329	-3.07
866.503	27.65
866.676	121.85
866.85	-9.22
867.024	44.03
867.197	31.74
867.371	23.55
867.544	60.42
867.718	39.94
867.891	74.75
868.065	29.7
868.238	-13.31
868.412	44.03
868.585	5.12
868.759	44.03
868.932	35.84
869.105	52.22
869.279	23.55
869.452	56.32
869.625	37.89
869.799	91.13
869.972	84.99
870.145	80.89
870.319	56.32
870.492	11.26
870.665	39.94
870.838	-5.12
871.011	-93.18
871.185	-1.02
871.358	31.74
871.531	-13.31
871.704	-3.07
871.877	89.09
872.05	41.98
872.223	-15.36
872.396	72.7
872.569	37.89
872.742	31.74
872.915	27.65
873.088	31.74
873.261	44.03
873.434	35.84
873.607	64.51
873.78	52.22
873.953	-21.5
874.126	17.41
874.299	70.65
874.471	-3.07
874.644	5.12
874.817	37.89
874.99	68.61
875.163	35.84
875.335	97.28
875.508	60.42
875.681	-25.6
875.853	35.84
876.026	68.61
876.199	44.03
876.371	-5.12
876.544	19.46
876.717	-39.94
876.889	19.46
877.062	113.66
877.234	-54.27
877.407	70.65
877.579	72.7
877.752	-33.79
877.924	70.65
878.097	39.94
878.269	39.94
878.442	5.12
878.614	62.46
878.786	52.22
878.959	-11.26
879.131	25.6
879.303	-56.32
879.476	84.99
879.648	52.22
879.82	62.46
879.993	-37.89
880.165	54.27
880.337	3.07
880.509	97.28
880.681	-29.7
880.854	-17.41
881.026	44.03
881.198	113.66
881.37	11.26
881.542	13.31
881.714	44.03
881.886	-9.22
882.058	97.28
882.23	54.27
882.402	44.03
882.574	46.08
882.746	58.37
882.918	93.18
883.09	-1.02
883.262	48.13
883.434	-11.26
883.606	52.22
883.778	39.94
883.95	54.27
884.122	44.03
884.293	11.26
884.465	46.08
884.637	115.71
884.809	19.46
884.98	-9.22
885.152	-25.6
885.324	46.08
885.496	21.5
885.667	44.03
885.839	-3.07
886.011	109.57
886.182	70.65
886.354	103.42
886.525	-23.55
886.697	44.03
886.869	52.22
887.04	29.7
887.212	54.27
887.383	41.98
887.555	111.61
887.726	-1.02
887.897	9.22
888.069	66.56
888.24	-1.02
888.412	15.36
888.583	27.65
888.754	29.7
888.926	41.98
889.097	5.12
889.268	54.27
889.44	44.03
889.611	-78.85
889.782	23.55
889.953	-19.46
890.125	19.46
890.296	-13.31
890.467	58.37
890.638	17.41
890.809	5.12
890.98	-13.31
891.151	13.31
891.323	48.13
891.494	70.65
891.665	-13.31
891.836	19.46
892.007	123.9
892.178	56.32
892.349	-17.41
892.52	56.32
892.691	56.32
892.862	15.36
893.032	-21.5
893.203	87.04
893.374	-13.31
893.545	52.22
893.716	11.26
893.887	89.09
894.057	31.74
894.228	-21.5
894.399	89.09
894.57	11.26
894.74	60.42
894.911	27.65
895.082	-9.22
895.253	1.02
895.423	23.55
895.594	74.75
895.764	3.07
895.935	-29.7
896.106	-25.6
896.276	-33.79
896.447	19.46
896.617	-9.22
896.788	54.27
896.958	17.41
897.129	-5.12
897.299	66.56
897.47	31.74
897.64	23.55
897.81	-46.08
897.981	62.46
898.151	-3.07
898.322	-3.07
898.492	31.74
898.662	3.07
898.832	70.65
899.003	44.03
899.173	17.41
899.343	-1.02
899.513	9.22
