Data from USB4F104151__188__14-20-19-590.txt Node

Date: Thu Mar 13 14:20:19 EDT 2025
User: louis
Spectrometer: USB4F10415
Trigger mode: 4
Integration Time (sec): 2.000000E-2
Scans to average: 1
Electric dark correction enabled: true
Nonlinearity correction enabled: false
Boxcar width: 0
XAxis mode: Wavelengths
Number of Pixels in Spectrum: 3648
>>>>>Begin Spectral Data<<<<<
178.204	-146.43
178.424	-146.43
178.644	-146.43
178.864	-162.81
179.084	-56.32
179.304	-39.94
179.524	-25.6
179.744	-23.55
179.964	35.84
180.184	-15.36
180.404	-54.27
180.624	19.46
180.844	39.94
181.064	11.26
181.283	50.18
181.503	31.74
181.723	-29.7
181.943	-109.57
182.163	41.98
182.383	1.02
182.602	9.22
182.822	-39.94
183.042	9.22
183.262	-3.07
183.482	29.7
183.701	3.07
183.921	19.46
184.141	11.26
184.361	33.79
184.58	50.18
184.8	9.22
185.02	3.07
185.239	11.26
185.459	-11.26
185.679	9.22
185.898	27.65
186.118	23.55
186.338	-19.46
186.557	74.75
186.777	-39.94
186.997	44.03
187.216	-60.42
187.436	54.27
187.655	-7.17
187.875	-35.84
188.095	15.36
188.314	25.6
188.534	64.51
188.753	21.5
188.973	-23.55
189.192	13.31
189.412	35.84
189.631	-46.08
189.851	60.42
190.07	46.08
190.29	-3.07
190.509	29.7
190.729	46.08
190.948	-21.5
191.168	91.13
191.387	62.46
191.607	48.13
191.826	-11.26
192.045	33.79
192.265	-7.17
192.484	64.51
192.704	19.46
192.923	31.74
193.142	95.23
193.362	87.04
193.581	91.13
193.8	-21.5
194.02	58.37
194.239	60.42
194.458	41.98
194.678	5.12
194.897	19.46
195.116	-7.17
195.335	80.89
195.555	58.37
195.774	17.41
195.993	17.41
196.212	-48.13
196.432	13.31
196.651	3.07
196.87	-68.61
197.089	115.71
197.308	-35.84
197.528	50.18
197.747	-11.26
197.966	-21.5
198.185	39.94
198.404	-11.26
198.623	11.26
198.842	58.37
199.062	70.65
199.281	66.56
199.5	50.18
199.719	-15.36
199.938	17.41
200.157	134.14
200.376	33.79
200.595	107.52
200.814	29.7
201.033	13.31
201.252	68.61
201.471	72.7
201.69	103.42
201.909	25.6
202.128	41.98
202.347	44.03
202.566	46.08
202.785	-13.31
203.004	1.02
203.223	52.22
203.442	37.89
203.661	33.79
203.879	-5.12
204.098	119.81
204.317	-13.31
204.536	35.84
204.755	3.07
204.974	9.22
205.193	39.94
205.411	27.65
205.63	-5.12
205.849	-3.07
206.068	29.7
206.287	-68.61
206.505	132.09
206.724	-44.03
206.943	-31.74
207.162	9.22
207.381	29.7
207.599	70.65
207.818	1.02
208.037	-48.13
208.255	15.36
208.474	74.75
208.693	-39.94
208.911	-21.5
209.13	-39.94
209.349	72.7
209.567	-3.07
209.786	31.74
210.005	-23.55
210.223	52.22
210.442	-13.31
210.661	44.03
210.879	-31.74
211.098	56.32
211.316	41.98
211.535	91.13
211.753	21.5
211.972	52.22
212.191	29.7
212.409	13.31
212.628	70.65
212.846	41.98
213.065	84.99
213.283	66.56
213.502	-7.17
213.72	46.08
213.938	-39.94
214.157	-7.17
214.375	41.98
214.594	-3.07
214.812	23.55
215.031	48.13
215.249	-23.55
215.467	-29.7
215.686	25.6
215.904	-15.36
216.122	-39.94
216.341	123.9
216.559	9.22
216.778	5.12
216.996	19.46
217.214	21.5
217.432	5.12
217.651	9.22
217.869	37.89
218.087	-11.26
218.306	33.79
218.524	74.75
218.742	41.98
218.96	-7.17
219.179	-29.7
219.397	9.22
219.615	93.18
219.833	1.02
220.051	5.12
220.27	58.37
220.488	95.23
220.706	44.03
220.924	-3.07
221.142	-21.5
221.36	33.79
221.578	68.61
221.796	109.57
222.015	-44.03
222.233	-39.94
222.451	60.42
222.669	52.22
222.887	93.18
223.105	-13.31
223.323	-56.32
223.541	-5.12
223.759	44.03
223.977	-23.55
224.195	17.41
224.413	95.23
224.631	58.37
224.849	-39.94
225.067	107.52
225.285	33.79
225.503	41.98
225.721	-5.12
225.939	52.22
226.157	-35.84
226.375	33.79
226.592	-31.74
226.81	-15.36
227.028	11.26
227.246	82.94
227.464	-7.17
227.682	17.41
227.9	17.41
228.117	27.65
228.335	-46.08
228.553	-5.12
228.771	33.79
228.989	-76.8
229.206	-13.31
229.424	-7.17
229.642	-64.51
229.86	-31.74
230.077	64.51
230.295	-15.36
230.513	76.8
230.731	37.89
230.948	105.47
231.166	58.37
231.384	27.65
231.601	44.03
231.819	35.84
232.037	11.26
232.254	66.56
232.472	58.37
232.689	-72.7
232.907	9.22
233.125	-31.74
233.342	19.46
233.56	-56.32
233.777	50.18
233.995	48.13
234.213	15.36
234.43	-39.94
234.648	41.98
234.865	-15.36
235.083	58.37
235.3	1.02
235.518	13.31
235.735	17.41
235.953	33.79
236.17	13.31
236.388	35.84
236.605	-15.36
236.822	3.07
237.04	76.8
237.257	-19.46
237.475	33.79
237.692	48.13
237.909	5.12
238.127	-7.17
238.344	25.6
238.562	11.26
238.779	25.6
238.996	1.02
239.214	11.26
239.431	-19.46
239.648	41.98
239.865	31.74
240.083	-15.36
240.3	5.12
240.517	11.26
240.735	1.02
240.952	15.36
241.169	9.22
241.386	19.46
241.603	21.5
241.821	25.6
242.038	25.6
242.255	87.04
242.472	-23.55
242.689	35.84
242.907	44.03
243.124	-7.17
243.341	41.98
243.558	-27.65
243.775	-29.7
243.992	-27.65
244.209	25.6
244.426	99.33
244.643	87.04
244.86	9.22
245.078	1.02
245.295	15.36
245.512	11.26
245.729	15.36
245.946	-31.74
246.163	25.6
246.38	13.31
246.597	-19.46
246.814	37.89
247.031	17.41
247.248	-5.12
247.464	-31.74
247.681	-27.65
247.898	84.99
248.115	41.98
248.332	46.08
248.549	5.12
248.766	58.37
248.983	33.79
249.2	101.37
249.417	84.99
249.633	35.84
249.85	33.79
250.067	9.22
250.284	9.22
250.501	66.56
250.717	-1.02
250.934	-62.46
251.151	54.27
251.368	-5.12
251.585	41.98
251.801	35.84
252.018	35.84
252.235	52.22
252.451	15.36
252.668	-11.26
252.885	25.6
253.102	-5.12
253.318	-31.74
253.535	-23.55
253.752	52.22
253.968	-35.84
254.185	-7.17
254.401	-15.36
254.618	-41.98
254.835	31.74
255.051	107.52
255.268	99.33
255.484	111.61
255.701	37.89
255.917	19.46
256.134	56.32
256.351	11.26
256.567	-29.7
256.784	50.18
257	-39.94
257.217	33.79
257.433	1.02
257.65	84.99
257.866	15.36
258.082	25.6
258.299	15.36
258.515	76.8
258.732	-62.46
258.948	117.76
259.165	9.22
259.381	-31.74
259.597	25.6
259.814	91.13
260.03	48.13
260.246	19.46
260.463	37.89
260.679	9.22
260.895	60.42
261.112	35.84
261.328	-27.65
261.544	41.98
261.761	99.33
261.977	-15.36
262.193	13.31
262.409	29.7
262.626	35.84
262.842	-1.02
263.058	-78.85
263.274	25.6
263.49	41.98
263.707	70.65
263.923	66.56
264.139	-23.55
264.355	-13.31
264.571	78.85
264.787	1.02
265.004	44.03
265.22	15.36
265.436	-35.84
265.652	25.6
265.868	-7.17
266.084	50.18
266.3	9.22
266.516	-31.74
266.732	1.02
266.948	46.08
267.164	1.02
267.38	35.84
267.596	74.75
267.812	15.36
268.028	9.22
268.244	-13.31
268.46	44.03
268.676	60.42
268.892	9.22
269.108	9.22
269.324	29.7
269.54	-3.07
269.756	25.6
269.972	-19.46
270.188	-35.84
270.403	11.26
270.619	-48.13
270.835	9.22
271.051	-25.6
271.267	-23.55
271.483	25.6
271.698	-15.36
271.914	31.74
272.13	-15.36
272.346	25.6
272.562	5.12
272.777	-29.7
272.993	-19.46
273.209	41.98
273.425	-11.26
273.64	-54.27
273.856	54.27
274.072	-5.12
274.287	7.17
274.503	44.03
274.719	103.42
274.934	9.22
275.15	23.55
275.366	-52.22
275.581	-21.5
275.797	44.03
276.012	15.36
276.228	-48.13
276.444	39.94
276.659	50.18
276.875	-25.6
277.09	15.36
277.306	66.56
277.521	56.32
277.737	5.12
277.952	37.89
278.168	-19.46
278.383	7.17
278.599	-13.31
278.814	23.55
279.03	70.65
279.245	9.22
279.461	52.22
279.676	66.56
279.892	11.26
280.107	17.41
280.322	-21.5
280.538	29.7
280.753	23.55
280.969	58.37
281.184	68.61
281.399	27.65
281.615	84.99
281.83	44.03
282.045	60.42
282.26	21.5
282.476	-23.55
282.691	76.8
282.906	-35.84
283.122	87.04
283.337	-5.12
283.552	84.99
283.767	27.65
283.983	58.37
284.198	54.27
284.413	64.51
284.628	60.42
284.843	13.31
285.058	62.46
285.274	1.02
285.489	62.46
285.704	9.22
285.919	84.99
286.134	58.37
286.349	23.55
286.564	-9.22
286.779	33.79
286.995	74.75
287.21	7.17
287.425	3.07
287.64	-13.31
287.855	33.79
288.07	-46.08
288.285	29.7
288.5	50.18
288.715	41.98
288.93	-15.36
289.145	-25.6
289.36	23.55
289.575	-48.13
289.79	44.03
290.004	-13.31
290.219	33.79
290.434	82.94
290.649	-5.12
290.864	19.46
291.079	87.04
291.294	46.08
291.509	17.41
291.724	-39.94
291.938	-29.7
292.153	93.18
292.368	62.46
292.583	-5.12
292.798	7.17
293.012	84.99
293.227	-5.12
293.442	52.22
293.657	58.37
293.871	33.79
294.086	-7.17
294.301	99.33
294.516	52.22
294.73	44.03
294.945	31.74
295.16	-3.07
295.374	41.98
295.589	33.79
295.804	70.65
296.018	13.31
296.233	52.22
296.447	52.22
296.662	-39.94
296.877	91.13
297.091	13.31
297.306	56.32
297.52	-27.65
297.735	-17.41
297.949	39.94
298.164	62.46
298.378	13.31
298.593	-31.74
298.807	84.99
299.022	9.22
299.236	-41.98
299.451	33.79
299.665	-15.36
299.88	50.18
300.094	33.79
300.309	-19.46
300.523	48.13
300.737	3.07
300.952	62.46
301.166	35.84
301.381	-11.26
301.595	76.8
301.809	50.18
302.024	11.26
302.238	29.7
302.452	68.61
302.667	5.12
302.881	111.61
303.095	21.5
303.309	99.33
303.524	-35.84
303.738	62.46
303.952	39.94
304.166	74.75
304.381	17.41
304.595	23.55
304.809	25.6
305.023	11.26
305.237	-29.7
305.452	29.7
305.666	-39.94
305.88	33.79
306.094	-3.07
306.308	46.08
306.522	1.02
306.736	27.65
306.95	-56.32
307.164	29.7
307.379	23.55
307.593	39.94
307.807	29.7
308.021	93.18
308.235	23.55
308.449	-15.36
308.663	33.79
308.877	19.46
309.091	58.37
309.305	41.98
309.519	13.31
309.733	17.41
309.947	-7.17
310.161	60.42
310.374	54.27
310.588	64.51
310.802	9.22
311.016	58.37
311.23	41.98
311.444	13.31
311.658	82.94
311.872	11.26
312.085	7.17
312.299	-23.55
312.513	68.61
312.727	115.71
312.941	-7.17
313.154	-13.31
313.368	70.65
313.582	9.22
313.796	46.08
314.009	-21.5
314.223	-7.17
314.437	5.12
314.651	46.08
314.864	3.07
315.078	35.84
315.292	3.07
315.505	-33.79
315.719	-3.07
315.933	-19.46
316.146	-33.79
316.36	9.22
316.573	107.52
316.787	17.41
317.001	58.37
317.214	9.22
317.428	48.13
317.641	15.36
317.855	-39.94
318.068	68.61
318.282	50.18
318.495	105.47
318.709	80.89
318.922	27.65
319.136	82.94
319.349	11.26
319.563	19.46
319.776	29.7
319.99	35.84
320.203	33.79
320.417	50.18
320.63	136.19
320.843	84.99
321.057	35.84
321.27	39.94
321.483	1.02
321.697	33.79
321.91	9.22
322.124	68.61
322.337	3.07
322.55	27.65
322.763	-11.26
322.977	-13.31
323.19	84.99
323.403	52.22
323.617	-13.31
323.83	17.41
324.043	68.61
324.256	15.36
324.469	82.94
324.683	50.18
324.896	5.12
325.109	60.42
325.322	-64.51
325.535	93.18
325.748	9.22
325.962	54.27
326.175	44.03
326.388	50.18
326.601	99.33
326.814	-7.17
327.027	31.74
327.24	58.37
327.453	-21.5
327.666	46.08
327.879	33.79
328.092	5.12
328.305	115.71
328.518	123.9
328.731	-13.31
328.944	23.55
329.157	33.79
329.37	35.84
329.583	-37.89
329.796	9.22
330.009	7.17
330.222	74.75
330.435	68.61
330.648	56.32
330.861	25.6
331.073	29.7
331.286	-13.31
331.499	52.22
331.712	-56.32
331.925	-27.65
332.138	68.61
332.35	87.04
332.563	35.84
332.776	48.13
332.989	46.08
333.202	33.79
333.414	60.42
333.627	41.98
333.84	80.89
334.053	123.9
334.265	-13.31
334.478	-13.31
334.691	60.42
334.903	25.6
335.116	41.98
335.329	-15.36
335.541	5.12
335.754	111.61
335.966	35.84
336.179	-31.74
336.392	-44.03
336.604	44.03
336.817	103.42
337.029	-35.84
337.242	31.74
337.454	3.07
337.667	52.22
337.88	17.41
338.092	19.46
338.305	3.07
338.517	54.27
338.729	82.94
338.942	17.41
339.154	48.13
339.367	37.89
339.579	52.22
339.792	39.94
340.004	58.37
340.217	76.8
340.429	58.37
340.641	-27.65
340.854	78.85
341.066	9.22
341.278	60.42
341.491	89.09
341.703	66.56
341.915	-5.12
342.128	123.9
342.34	58.37
342.552	-17.41
342.764	17.41
342.977	-33.79
343.189	13.31
343.401	35.84
343.613	-23.55
343.826	-9.22
344.038	29.7
344.25	68.61
344.462	-27.65
344.674	19.46
344.886	33.79
345.099	58.37
345.311	31.74
345.523	44.03
345.735	50.18
345.947	44.03
346.159	9.22
346.371	25.6
346.583	44.03
346.795	68.61
347.007	-31.74
347.219	87.04
347.431	25.6
347.643	52.22
347.855	54.27
348.067	91.13
348.279	58.37
348.491	-15.36
348.703	-17.41
348.915	74.75
349.127	58.37
349.339	33.79
349.551	-21.5
349.763	91.13
349.975	-23.55
350.187	117.76
350.399	56.32
350.61	50.18
350.822	-31.74
351.034	41.98
351.246	25.6
351.458	7.17
351.669	87.04
351.881	58.37
352.093	25.6
352.305	95.23
352.517	-68.61
352.728	41.98
352.94	66.56
353.152	115.71
353.363	-25.6
353.575	9.22
353.787	99.33
353.999	46.08
354.21	58.37
354.422	91.13
354.633	23.55
354.845	44.03
355.057	87.04
355.268	17.41
355.48	1.02
355.692	25.6
355.903	101.37
356.115	33.79
356.326	62.46
356.538	58.37
356.749	1.02
356.961	52.22
357.172	74.75
357.384	84.99
357.595	82.94
357.807	171.01
358.018	13.31
358.23	17.41
358.441	50.18
358.653	58.37
358.864	17.41
359.075	66.56
359.287	70.65
359.498	52.22
359.709	33.79
359.921	41.98
360.132	93.18
360.344	41.98
360.555	35.84
360.766	15.36
360.977	-13.31
361.189	107.52
361.4	33.79
361.611	64.51
361.823	115.71
362.034	74.75
362.245	35.84
362.456	50.18
362.667	58.37
362.879	19.46
363.09	17.41
363.301	-68.61
363.512	5.12
363.723	44.03
363.935	99.33
364.146	7.17
364.357	33.79
364.568	21.5
364.779	82.94
364.99	140.29
365.201	-5.12
365.412	21.5
365.623	5.12
365.834	35.84
366.045	101.37
366.256	101.37
366.467	-5.12
366.678	-48.13
366.889	15.36
367.1	37.89
367.311	128
367.522	33.79
367.733	84.99
367.944	80.89
368.155	-15.36
368.366	17.41
368.577	19.46
368.788	9.22
368.999	-33.79
369.209	33.79
369.42	132.09
369.631	93.18
369.842	-37.89
370.053	-3.07
370.264	31.74
370.474	15.36
370.685	-7.17
370.896	9.22
371.107	68.61
371.317	66.56
371.528	41.98
371.739	144.38
371.95	29.7
372.16	76.8
372.371	39.94
372.582	19.46
372.792	50.18
373.003	35.84
373.214	72.7
373.424	9.22
373.635	-11.26
373.846	31.74
374.056	101.37
374.267	25.6
374.477	33.79
374.688	41.98
374.898	9.22
375.109	44.03
375.319	72.7
375.53	41.98
375.74	70.65
375.951	68.61
376.161	80.89
376.372	54.27
376.582	-31.74
376.793	105.47
377.003	-15.36
377.214	-62.46
377.424	15.36
377.635	84.99
377.845	-31.74
378.055	19.46
378.266	7.17
378.476	107.52
378.686	41.98
378.897	13.31
379.107	113.66
379.317	97.28
379.528	23.55
379.738	58.37
379.948	19.46
380.158	95.23
380.369	13.31
380.579	62.46
380.789	17.41
380.999	29.7
381.21	37.89
381.42	27.65
381.63	-5.12
381.84	150.53
382.05	74.75
382.261	70.65
382.471	50.18
382.681	39.94
382.891	82.94
383.101	64.51
383.311	17.41
383.521	93.18
383.731	68.61
383.941	66.56
384.151	56.32
384.361	93.18
384.571	44.03
384.781	117.76
384.991	89.09
385.201	136.19
385.411	54.27
385.621	162.81
385.831	-15.36
386.041	41.98
386.251	13.31
386.461	52.22
386.671	89.09
386.881	82.94
387.091	84.99
387.301	66.56
387.511	74.75
387.72	82.94
387.93	115.71
388.14	66.56
388.35	-5.12
388.56	58.37
388.769	1.02
388.979	25.6
389.189	-44.03
389.399	50.18
389.609	-27.65
389.818	175.1
390.028	35.84
390.238	33.79
390.447	21.5
390.657	41.98
390.867	78.85
391.076	-25.6
391.286	66.56
391.496	87.04
391.705	80.89
391.915	117.76
392.125	46.08
392.334	19.46
392.544	21.5
392.753	72.7
392.963	58.37
393.172	29.7
393.382	60.42
393.591	82.94
393.801	17.41
394.01	93.18
394.22	87.04
394.429	58.37
394.639	7.17
394.848	76.8
395.058	19.46
395.267	144.38
395.477	21.5
395.686	103.42
395.895	78.85
396.105	166.91
396.314	78.85
396.524	121.85
396.733	87.04
396.942	175.1
397.152	33.79
397.361	160.77
397.57	74.75
397.78	101.37
397.989	99.33
398.198	218.11
398.407	37.89
398.617	128
398.826	103.42
399.035	82.94
399.244	142.33
399.453	80.89
399.663	103.42
399.872	134.14
400.081	19.46
400.29	136.19
400.499	150.53
400.708	146.43
400.917	144.38
401.127	115.71
401.336	168.96
401.545	119.81
401.754	66.56
401.963	46.08
402.172	175.1
402.381	89.09
402.59	99.33
402.799	138.24
403.008	181.25
403.217	144.38
403.426	148.48
403.635	123.9
403.844	140.29
404.053	68.61
404.262	152.57
404.471	152.57
404.68	218.11
404.888	138.24
405.097	107.52
405.306	173.05
405.515	144.38
405.724	99.33
405.933	209.92
406.142	148.48
406.35	211.96
406.559	191.49
406.768	103.42
406.977	156.67
407.185	173.05
407.394	132.09
407.603	226.3
407.812	197.63
408.02	254.97
408.229	185.34
408.438	254.97
408.646	281.6
408.855	226.3
409.064	304.12
409.272	297.98
409.481	314.36
409.69	326.65
409.898	353.27
410.107	246.78
410.315	293.88
410.524	304.12
410.733	332.79
410.941	330.75
411.15	453.63
411.358	414.71
411.567	435.19
411.775	451.58
411.984	431.1
412.192	470.01
412.401	439.29
412.609	459.77
412.818	531.45
413.026	527.35
413.234	574.46
413.443	492.54
413.651	599.03
413.86	644.09
414.068	689.14
414.276	717.81
414.485	623.61
414.693	648.18
414.901	717.81
415.11	658.42
415.318	762.87
415.526	664.57
415.734	820.21
415.943	758.77
416.151	877.55
416.359	891.89
416.567	852.98
416.776	885.75
416.984	977.91
417.192	988.14
417.4	1033.2
417.608	1084.4
417.817	1061.87
418.025	1106.93
418.233	1311.72
418.441	1119.21
418.649	1199.09
418.857	1418.22
419.065	1336.3
419.273	1272.81
419.481	1393.64
419.689	1385.45
419.897	1534.95
420.105	1663.97
420.313	1663.97
420.521	1706.98
420.729	1715.17
420.937	1741.8
421.145	1786.85
421.353	1836
421.561	1962.98
421.769	2014.18
421.977	2165.73
422.185	2112.48
422.393	2286.56
422.601	2401.24
422.809	2270.17
423.017	2499.55
423.224	2397.15
423.432	2585.56
423.64	2657.24
423.848	2837.46
424.056	2647
424.263	2974.67
424.471	3007.44
424.679	3001.3
424.887	3167.18
425.094	3306.45
425.302	3283.92
425.51	3433.42
425.718	3488.71
425.925	3462.09
426.133	3535.82
426.341	3855.3
426.548	4150.21
426.756	3978.18
426.964	4113.35
427.171	4328.38
427.379	4531.13
427.586	4438.97
427.794	4801.46
428.001	4864.95
428.209	5100.47
428.417	5043.12
428.624	5129.14
428.832	5403.57
429.039	5292.98
429.247	5276.59
429.454	5948.33
429.662	6058.92
429.869	5858.21
430.076	6194.08
430.284	6128.55
430.491	6390.69
430.699	6669.21
430.906	6513.56
431.114	6837.14
431.321	6939.54
431.528	7091.09
431.736	7637.9
431.943	8029.06
432.15	7670.67
432.358	7859.08
432.565	8291.2
432.772	8330.11
432.979	8448.9
433.187	8676.22
433.394	8549.25
433.601	9425.78
433.808	9474.93
434.016	9278.32
434.223	9784.17
434.43	10486.62
434.637	10005.35
434.844	10892.12
435.052	10933.08
435.259	10904.41
435.466	10978.14
435.673	10716
435.88	11666.25
436.087	12274.5
436.294	12362.56
436.501	12026.7
436.708	12153.67
436.915	12460.87
437.122	13118.26
437.329	13185.85
437.537	13620.02
437.743	13755.18
437.95	13417.27
438.157	14476.07
438.364	14863.13
438.571	14594.85
438.778	14940.96
438.985	16272.14
439.192	15735.57
439.399	16055.05
439.606	15889.17
439.813	16528.13
440.02	17842.93
440.227	17287.93
440.433	17332.98
440.64	17595.12
440.847	17550.07
441.054	18146.03
441.261	19075.8
441.467	18598.63
441.674	19159.77
441.881	20044.49
442.088	20095.69
442.294	19765.97
442.501	20368.07
442.708	20720.32
442.914	21582.52
443.121	22504.1
443.328	21727.92
443.534	23595.67
443.741	22629.03
443.948	22459.05
444.154	23851.67
444.361	24015.51
444.568	24140.43
444.774	24003.22
444.981	24285.84
445.187	25098.88
445.394	25864.82
445.6	25442.94
445.807	28187.22
446.013	26962.53
446.22	27363.93
446.426	28314.19
446.633	28619.34
446.839	29792.83
447.046	28510.8
447.252	29780.54
447.459	29813.31
447.665	29682.24
447.871	31091.24
448.078	32545.3
448.284	30888.49
448.491	31824.41
448.697	33057.29
448.903	33569.28
449.11	33788.41
449.316	33366.53
449.522	33675.77
449.728	34767.34
449.935	34666.99
450.141	34871.79
450.347	35633.63
450.553	34595.31
450.76	34916.84
450.966	36493.78
451.172	35635.68
451.378	36710.86
451.584	35889.63
451.791	36936.14
451.997	37093.83
452.203	37394.89
452.409	37110.22
452.615	37276.1
452.821	35611.1
453.027	35660.26
453.233	37337.54
453.44	35678.69
453.646	36086.23
453.852	36524.5
454.058	36981.2
454.264	35815.9
454.47	36966.86
454.676	35697.12
454.882	37028.3
455.088	33847.8
455.294	33911.29
455.5	34765.29
455.705	35043.82
455.911	33700.35
456.117	33055.24
456.323	32596.49
456.529	31136.29
456.735	32629.26
456.941	31537.69
457.147	30964.26
457.352	30114.36
457.558	29852.22
457.764	29798.97
457.97	29348.42
458.176	28678.73
458.381	28668.49
458.587	27468.38
458.793	27540.06
458.999	25936.5
459.204	27837.02
459.41	27193.95
459.616	25422.46
459.821	25232
460.027	25090.69
460.233	24707.72
460.438	23327.39
460.644	24056.46
460.85	22835.88
461.055	22549.16
461.261	22248.11
461.466	20601.54
461.672	20214.48
461.878	21488.31
462.083	19974.86
462.289	19616.47
462.494	19399.38
462.7	18502.37
462.905	18184.94
463.111	18901.73
463.316	18807.52
463.522	18318.06
463.727	18440.93
463.932	18406.12
464.138	18070.25
464.343	18146.03
464.549	17523.44
464.754	18242.28
464.959	17978.09
465.165	17855.22
465.37	17107.71
465.575	16851.71
465.781	17730.29
465.986	17591.03
466.191	16904.96
466.397	16589.57
466.602	15723.28
466.807	16378.63
467.012	16089.87
467.218	16626.43
467.423	15889.17
467.628	16298.76
467.833	16935.68
468.038	16448.26
468.244	15667.98
468.449	16225.03
468.654	15926.03
468.859	15635.22
469.064	15700.75
469.269	15250.2
469.474	15256.34
469.679	15561.49
469.885	15047.45
470.09	15172.38
470.295	15196.95
470.5	14883.61
470.705	14838.56
470.91	14504.74
471.115	14177.06
471.32	14635.81
471.525	14736.16
471.73	14304.04
471.935	14205.74
472.139	13781.81
472.344	13873.96
472.549	13708.08
472.754	13529.91
472.959	13433.65
473.164	12741.44
473.369	12720.96
473.574	13290.29
473.778	13292.34
473.983	12985.15
474.188	13235
474.393	12428.1
474.598	12247.88
474.802	12340.04
475.007	12274.5
475.212	12280.64
475.417	11922.25
475.621	11805.52
475.826	11875.15
476.031	11666.25
476.235	11447.12
476.44	11567.95
476.645	11232.08
476.849	11510.61
477.054	11275.09
477.259	10851.16
477.463	11078.49
477.668	10847.07
477.872	11010.9
478.077	10697.56
478.282	10386.27
478.486	10552.16
478.691	10333.03
478.895	10412.9
479.1	10347.36
479.304	10308.45
479.509	9997.16
479.713	10011.5
479.918	10027.88
480.122	9855.85
480.326	9950.06
480.531	9997.16
480.735	9792.36
480.94	9628.53
481.144	10072.93
481.348	9716.59
481.553	9651.05
481.757	9364.34
481.961	9732.97
482.166	9851.75
482.37	9702.25
482.574	9530.22
482.778	9612.14
482.983	9616.24
483.187	9681.77
483.391	9503.6
483.595	9481.07
483.8	9335.67
484.004	9675.63
484.208	9585.52
484.412	9683.82
484.616	9519.98
484.821	9544.56
485.025	9407.34
485.229	9720.68
485.433	9413.49
485.637	9456.5
485.841	9534.32
486.045	9472.88
486.249	9462.64
486.453	9364.34
486.657	9470.83
486.861	9614.19
487.065	9151.35
487.269	9464.69
487.473	9454.45
487.677	9628.53
487.881	9665.39
488.085	9487.22
488.289	9728.88
488.493	9425.78
488.697	9659.24
488.901	9755.5
489.105	9548.65
489.309	9825.13
489.512	9519.98
489.716	9624.43
489.92	9552.75
490.124	9634.67
490.328	9786.22
490.531	9470.83
490.735	9857.9
490.939	9720.68
491.143	9732.97
491.346	9765.74
491.55	10199.91
491.754	9816.94
491.958	10031.97
492.161	10003.3
492.365	10115.94
492.569	10070.89
492.772	9988.97
492.976	9960.3
493.18	10220.39
493.383	10140.52
493.587	10339.17
493.79	10500.96
493.994	10240.87
494.197	10382.18
494.401	10527.58
494.605	10388.32
494.808	10617.69
495.012	10584.93
495.215	10670.94
495.419	10734.43
495.622	11043.67
495.825	10974.04
496.029	11068.25
496.232	11201.37
496.436	11277.14
496.639	11629.39
496.843	11545.42
497.046	11576.14
497.249	11957.07
497.453	11686.73
497.656	11860.81
497.859	11871.05
498.063	12073.8
498.266	12432.19
498.469	12081.99
498.673	12313.41
498.876	12626.75
499.079	12653.37
499.282	12720.96
499.485	13067.06
499.689	13108.02
499.892	13290.29
500.095	13312.82
500.298	13323.06
500.501	13460.27
500.705	13861.68
500.908	14189.35
501.111	13943.6
501.314	14207.78
501.517	14500.64
501.72	14551.84
501.923	14414.63
502.126	14889.76
502.329	15258.39
502.532	15084.31
502.735	15207.19
502.938	15627.03
503.141	15391.51
503.344	15876.88
503.547	15676.18
503.75	16040.72
503.953	16335.62
504.156	16395.01
504.359	16296.71
504.562	16671.49
504.765	17160.95
504.968	17318.65
505.17	17294.07
505.373	17412.85
505.576	17738.48
505.779	17998.57
505.982	17914.61
506.185	18408.17
506.387	18490.09
506.59	18610.92
506.793	19040.99
506.996	18655.97
507.198	19469.01
507.401	19079.9
507.604	19874.51
507.807	20110.03
508.009	19847.89
508.212	20085.45
508.415	20355.79
508.617	20849.35
508.82	20841.15
509.022	20818.63
509.225	21277.37
509.428	21367.48
509.63	21598.9
509.833	21383.87
510.035	22141.61
510.238	21861.04
510.44	22463.15
510.643	22901.41
510.845	22749.86
511.048	22663.85
511.25	23155.36
511.453	23546.52
511.655	24101.52
511.858	23765.65
512.06	23890.58
512.262	24281.74
512.465	24257.17
512.667	24558.22
512.87	24787.59
513.072	24824.45
513.274	25432.7
513.477	25514.62
513.679	25854.58
513.881	26264.18
514.084	26210.93
514.286	26364.53
514.488	26432.11
514.69	27327.07
514.893	27036.26
515.095	27196
515.297	27449.95
515.499	27585.12
515.701	27927.13
515.904	28222.03
516.106	28484.17
516.308	28582.48
516.51	28949.06
516.712	29014.6
516.914	29137.48
517.116	29866.55
517.318	29766.2
517.52	29946.42
517.722	30161.46
517.925	30706.22
518.127	30915.11
518.329	31457.82
518.531	31191.59
518.733	31875.61
518.935	31982.1
519.136	32104.98
519.338	32227.86
519.54	32397.84
519.742	32932.36
519.944	32752.14
520.146	33321.48
520.348	33516.03
520.55	33487.36
520.752	33753.6
520.954	34546.16
521.155	33927.67
521.357	34634.22
521.559	34910.7
521.761	35555.81
521.963	34939.37
522.164	35221.99
522.366	35836.38
522.568	35871.2
522.77	35785.18
522.971	36172.25
523.173	36446.68
523.375	36604.37
523.576	36387.28
523.778	36827.6
523.98	37235.14
524.181	37691.84
524.383	37577.15
524.584	37870.01
524.786	37777.86
524.988	38058.43
525.189	38554.04
525.391	38369.72
525.592	38564.28
525.794	38728.11
525.995	38867.37
526.197	38689.2
526.398	39049.64
526.6	39371.18
526.801	39328.17
527.003	39362.98
527.204	39428.52
527.406	39850.4
527.607	39823.78
527.808	40036.77
528.01	39688.61
528.211	40063.39
528.412	41021.84
528.614	40008.09
528.815	40386.97
529.016	40755.6
529.218	40266.14
529.419	40538.52
529.62	40454.55
529.822	40599.96
530.023	40843.66
530.224	40788.37
530.425	40821.14
530.626	40591.76
530.828	40571.28
531.029	41324.94
531.23	40991.12
531.431	41044.37
531.632	41247.11
531.833	41664.9
532.035	41208.2
532.236	41070.99
532.437	41275.79
532.638	41171.34
532.839	41519.49
533.04	41795.97
533.241	41529.73
533.442	42447.22
533.643	41724.29
533.844	41595.27
534.045	41585.03
534.246	41462.15
534.447	41765.25
534.648	41130.38
534.849	41585.03
535.05	41140.62
535.251	41589.13
535.451	41308.55
535.652	41898.37
535.853	41482.63
536.054	41900.42
536.255	41669
536.456	41240.97
536.657	41857.41
536.857	41263.5
537.058	41683.33
537.259	41628.04
537.46	41656.71
537.66	41865.6
537.861	41496.97
538.062	41806.21
538.263	41685.38
538.463	41669
538.664	41343.37
538.865	41388.42
539.065	42056.06
539.266	41234.83
539.466	41660.8
539.667	41046.41
539.868	41972.1
540.068	41691.52
540.269	41400.71
540.469	41460.1
540.67	41552.26
540.87	41488.77
541.071	41400.71
541.271	41716.1
541.472	41355.66
541.672	40911.25
541.873	40952.21
542.073	40958.35
542.274	41189.77
542.474	41275.79
542.675	40980.88
542.875	41826.69
543.075	41404.81
543.276	41197.96
543.476	41656.71
543.676	40999.31
543.877	41109.9
544.077	41060.75
544.277	41161.1
544.478	40688.02
544.678	41109.9
544.878	41167.24
545.078	40894.86
545.279	40290.71
545.479	40915.34
545.679	40894.86
545.879	41222.54
546.079	41050.51
546.28	40800.66
546.48	41238.92
546.68	41066.89
546.88	41431.43
547.08	40905.1
547.28	40833.42
547.48	40774.03
547.68	40888.72
547.88	40653.2
548.081	41181.58
548.281	40874.38
548.481	40530.33
548.681	40987.02
548.881	41009.55
549.081	40808.85
549.28	40743.31
549.48	40921.49
549.68	40855.95
549.88	41587.08
550.08	40472.98
550.28	40794.51
550.48	40747.41
550.68	41079.18
550.88	40671.64
551.08	40817.04
551.279	40630.68
551.479	40323.48
551.679	40346.01
551.879	40458.65
552.079	40630.68
552.278	40753.55
552.478	40446.36
552.678	40561.05
552.878	40214.94
553.077	40599.96
553.277	40137.12
553.477	40862.1
553.676	40649.11
553.876	40769.94
554.076	40530.33
554.275	40341.91
554.475	40026.53
554.674	40468.89
554.874	40501.65
555.074	40145.31
555.273	40337.82
555.473	40366.49
555.672	40288.67
555.872	40047
556.071	40104.35
556.271	40712.59
556.47	40059.29
556.67	39866.78
556.869	39963.04
557.068	40212.89
557.268	39674.27
557.467	40141.21
557.667	40049.05
557.866	39942.56
558.065	39782.82
558.265	39522.72
558.464	39401.89
558.663	40315.29
558.863	39133.61
559.062	40176.03
559.261	39492.01
559.461	39967.13
559.66	39199.15
559.859	39594.4
560.058	39463.33
560.258	39385.51
560.457	39246.25
560.656	39686.56
560.855	39254.44
561.054	39543.2
561.253	39180.71
561.453	39070.12
561.652	39276.97
561.851	39410.09
562.05	38889.9
562.249	38922.67
562.448	39348.65
562.647	39139.75
562.846	38855.09
563.045	39197.1
563.244	38334.9
563.443	38912.43
563.642	38613.43
563.841	38764.98
564.04	38574.52
564.239	38863.28
564.438	38345.14
564.637	38771.12
564.836	38396.34
565.035	38040
565.234	38334.9
565.432	38339
565.631	38295.99
565.83	38275.51
566.029	38029.76
566.228	37648.83
566.427	37949.88
566.625	37810.62
566.824	37392.84
567.023	38123.96
567.222	37151.18
567.42	37792.19
567.619	37583.3
567.818	37282.25
568.016	37437.89
568.215	37710.27
568.414	37626.31
568.612	37343.69
568.811	37075.4
569.01	37466.56
569.208	36674
569.407	37312.97
569.605	36628.95
569.804	36846.03
570.002	36553.17
570.201	36628.95
570.4	36418
570.598	36233.69
570.797	36233.69
570.995	36499.92
571.193	36291.03
571.392	36674
571.59	36215.26
571.789	36182.49
571.987	36209.11
572.186	36065.75
572.384	35631.58
572.582	36073.95
572.781	36041.18
572.979	35545.57
573.177	35783.13
573.376	35557.86
573.574	35381.73
573.772	35631.58
573.971	35215.85
574.169	35111.4
574.367	34916.84
574.565	35355.11
574.763	34781.68
574.962	34949.61
575.16	34546.16
575.358	34527.73
575.556	34384.37
575.754	34798.06
575.952	34556.4
576.151	34691.57
576.349	34087.42
576.547	34300.4
576.745	34580.98
576.943	34310.64
577.141	33942.01
577.339	34046.46
577.537	33798.65
577.735	33847.8
577.933	33415.68
578.131	33792.51
578.329	33944.06
578.527	33378.82
578.725	33401.35
578.923	33782.27
579.121	33376.77
579.319	33251.84
579.516	33165.83
579.714	33378.82
579.912	33202.69
580.11	32834.06
580.308	33331.72
580.506	32893.45
580.704	32664.08
580.901	32711.18
581.099	33006.09
581.297	32293.4
581.495	32346.64
581.692	32645.65
581.89	32201.24
582.088	32565.78
582.285	32127.51
582.483	31918.62
582.681	32330.26
582.878	31851.03
583.076	31914.52
583.274	32068.12
583.471	31339.04
583.669	31640.09
583.866	31304.23
584.064	31488.54
584.262	30945.83
584.459	31398.43
584.657	31242.79
584.854	31592.99
585.052	30726.7
585.249	30990.89
585.447	31025.7
585.644	30523.95
585.841	30906.92
586.039	31097.38
586.236	30444.08
586.434	30396.98
586.631	30474.8
586.828	30339.63
587.026	30417.46
587.223	30251.57
587.42	29991.48
587.618	30106.16
587.815	29860.41
588.012	29624.89
588.21	29844.02
588.407	30282.29
588.604	29569.6
588.801	29469.25
588.999	29549.12
589.196	29510.21
589.393	29534.78
589.59	29416
589.787	28953.16
589.984	29016.65
590.182	28936.77
590.379	29213.25
590.576	29037.12
590.773	29026.89
590.97	28652.11
591.167	28944.97
591.364	28635.72
591.561	28486.22
591.758	28299.86
591.955	28127.83
592.152	28670.54
592.349	28658.25
592.546	28232.27
592.743	28475.98
592.94	27779.67
593.137	27785.82
593.334	28181.07
593.531	27656.79
593.727	27560.54
593.924	27648.6
594.121	27404.89
594.318	27716.19
594.515	27423.33
594.712	27394.65
594.908	27218.53
595.105	27542.11
595.302	27183.71
595.499	27107.94
595.696	27220.58
595.892	26657.39
596.089	26911.33
596.286	26944.1
596.482	26571.37
596.679	26817.13
596.876	26737.26
597.072	26579.56
597.269	26391.15
597.466	26497.64
597.662	26575.47
597.859	26495.6
598.055	26401.39
598.252	25838.2
598.448	26088.05
598.645	25815.67
598.841	25690.74
599.038	25924.21
599.234	25823.86
599.431	25588.35
599.627	25561.72
599.824	25520.76
600.02	25309.82
600.217	25270.91
600.413	25141.89
600.609	25051.78
600.806	25111.17
601.002	25158.27
601.198	24687.24
601.395	24580.74
601.591	24670.86
601.787	24724.1
601.984	24642.18
602.18	24922.76
602.376	24257.17
602.572	24412.81
602.769	24324.75
602.965	24222.35
603.161	24375.95
603.357	24089.23
603.553	23841.43
603.75	23970.45
603.946	24054.42
604.142	24105.62
604.338	23736.98
604.534	24011.41
604.73	23730.84
604.926	23538.33
605.122	23591.58
605.318	23503.51
605.514	23433.88
605.71	23331.48
605.906	23483.03
606.102	23562.9
606.298	23569.05
606.494	23343.77
606.69	23175.84
606.886	22987.43
607.082	22901.41
607.278	22760.1
607.474	22721.19
607.67	23108.26
607.866	22303.4
608.062	23095.97
608.257	22981.28
608.453	22704.81
608.649	22766.24
608.845	22532.78
609.041	22583.98
609.236	22381.23
609.432	22385.32
609.628	22420.14
609.824	22110.89
610.019	22223.53
610.215	22155.95
610.411	22332.08
610.606	22336.17
610.802	22194.86
610.998	22254.25
611.193	22051.5
611.389	21928.63
611.584	22084.27
611.78	21807.8
611.976	21906.1
612.171	21621.43
612.367	21719.73
612.562	21637.81
612.758	21572.28
612.953	21549.75
613.149	21955.25
613.344	21400.25
613.539	21549.75
613.735	21400.25
613.93	21377.72
614.126	21453.5
614.321	21736.12
614.517	21670.58
614.712	21252.8
614.907	21103.29
615.103	21463.74
615.298	21336.76
615.493	21457.59
615.688	21174.97
615.884	21396.15
616.079	21035.71
616.274	21017.28
616.47	21023.42
616.665	21082.81
616.86	20652.74
617.055	20865.73
617.25	20843.2
617.445	20918.98
617.641	20464.33
617.836	20464.33
618.031	20587.21
618.226	20482.76
618.421	20441.8
618.616	20744.9
618.811	20232.91
619.006	20570.82
619.201	20058.83
619.396	20378.31
619.591	19995.34
619.786	19964.62
619.981	19759.83
620.176	19974.86
620.371	19669.72
620.566	20144.84
620.761	19731.15
620.956	19575.51
621.151	19417.82
621.346	19499.73
621.541	19163.87
621.735	19440.34
621.93	18885.34
622.125	19374.81
622.32	18891.49
622.515	19008.22
622.709	18744.03
622.904	18805.47
623.099	18502.37
623.294	18387.69
623.488	18143.98
623.683	18158.31
623.878	18170.6
624.072	18055.92
624.267	18137.84
624.462	18186.99
624.656	17474.29
624.851	17697.52
625.046	17648.37
625.24	17550.07
625.435	17271.54
625.629	17343.22
625.824	17228.54
626.018	17214.2
626.213	16818.94
626.407	17083.13
626.602	16669.44
626.796	16734.98
626.991	16796.42
627.185	16761.6
627.38	16603.91
627.574	16239.37
627.768	16313.1
627.963	16462.6
628.157	16339.72
628.352	16208.65
628.546	15907.6
628.74	15893.26
628.935	15809.29
629.129	15616.79
629.323	15569.68
629.517	15653.65
629.712	15461.14
629.906	15614.74
630.1	15209.24
630.294	15276.82
630.489	15196.95
630.683	15328.02
630.877	14998.3
631.071	14967.58
631.265	15082.27
631.459	14848.8
631.653	14822.17
631.848	14527.27
632.042	14394.15
632.236	14713.63
632.43	14357.28
632.624	14562.08
632.818	14275.37
633.012	14076.71
633.206	14164.78
633.4	14320.42
633.594	13720.37
633.788	14025.51
633.982	14070.57
634.176	13884.2
634.369	13810.48
634.563	13771.57
634.757	13495.09
634.951	13728.56
635.145	13484.85
635.339	13452.08
635.533	13372.21
635.726	13327.16
635.92	13325.11
636.114	13124.41
636.308	13300.53
636.501	12907.32
636.695	13009.72
636.889	12858.17
637.083	12675.9
637.276	12806.97
637.47	12727.1
637.664	12544.83
637.857	12481.35
638.051	12544.83
638.244	12383.04
638.438	12489.54
638.632	12129.09
638.825	12258.12
639.019	12284.74
639.212	12231.49
639.406	12125
639.599	11995.98
639.793	11965.26
639.986	11699.02
640.18	11891.53
640.373	11903.82
640.567	11608.91
640.76	11604.81
640.954	11586.38
641.147	11453.27
641.34	11371.35
641.534	11430.74
641.727	11426.64
641.92	11141.97
642.114	11219.8
642.307	11144.02
642.5	11133.78
642.694	10662.75
642.887	10806.11
643.08	11049.82
643.273	10914.65
643.467	10765.15
643.66	10756.96
643.853	10625.89
644.046	10482.53
644.239	10480.48
644.432	10675.04
644.626	10275.68
644.819	10488.67
645.012	10437.47
645.205	10427.23
645.398	10378.08
645.591	10201.96
645.784	10011.5
645.977	9980.78
646.17	10068.84
646.363	9829.23
646.556	9683.82
646.749	9886.57
646.942	9843.56
647.135	9773.93
647.328	9786.22
647.521	9595.76
647.714	9515.89
647.907	9581.42
648.099	9493.36
648.292	9562.99
648.485	9345.91
648.678	9323.38
648.871	9225.08
649.064	9167.73
649.256	9016.18
649.449	9208.69
649.642	9139.06
649.835	9169.78
650.027	9102.2
650.22	8887.16
650.413	8860.54
650.605	8909.69
650.798	9059.19
650.991	8958.84
651.183	8823.67
651.376	8645.5
651.568	8696.7
651.761	8534.91
651.954	8627.07
652.146	8522.62
652.339	8602.49
652.531	8307.59
652.724	8209.28
652.916	8438.66
653.109	8299.39
653.301	8401.79
653.494	8264.58
653.686	8127.36
653.879	8184.71
654.071	8303.49
654.263	8047.49
654.456	8016.77
654.648	8022.92
654.84	7926.66
655.033	7975.81
655.225	7787.4
655.417	7744.39
655.61	7766.92
655.802	7650.19
655.994	7547.79
656.186	7695.24
656.379	7623.56
656.571	7580.56
656.763	7576.46
656.955	7420.81
657.148	7525.26
657.34	7310.22
657.532	7361.42
657.724	7353.23
657.916	7320.46
658.108	7351.18
658.3	7248.79
658.492	7222.16
658.684	7005.08
658.876	7130
659.068	6910.87
659.26	7007.13
659.452	6896.53
659.644	7070.61
659.836	6886.29
660.028	6867.86
660.22	6865.82
660.412	7029.65
660.604	6855.58
660.796	6734.75
660.988	6757.27
661.18	6757.27
661.372	6630.3
661.563	6742.94
661.755	6384.54
661.947	6652.83
662.139	6503.32
662.331	6341.54
662.522	6437.79
662.714	6247.33
662.906	6331.3
663.097	6431.65
663.289	6163.36
663.481	6345.63
663.673	6323.1
663.864	6204.32
664.056	6249.38
664.247	6065.06
664.439	6136.74
664.631	6071.2
664.822	6159.27
665.014	6075.3
665.205	5931.94
665.397	5811.11
665.588	6099.87
665.78	6081.44
665.971	5890.98
666.163	5997.48
666.354	5909.41
666.546	5782.44
666.737	5764.01
666.929	5622.7
667.12	5651.37
667.311	5594.03
667.503	5770.15
667.694	5563.31
667.885	5532.59
668.077	5596.07
668.268	5528.49
668.459	5718.95
668.651	5514.16
668.842	5557.16
669.033	5465
669.224	5522.35
669.416	5661.61
669.607	5612.46
669.798	5391.28
669.989	5383.09
670.18	5385.13
670.371	5276.59
670.563	5239.73
670.754	5335.98
670.945	5229.49
671.136	5233.58
671.327	5356.46
671.518	5270.45
671.709	5243.82
671.9	5211.06
672.091	5129.14
672.282	5063.6
672.473	5024.69
672.664	5194.67
672.855	5131.19
673.046	5100.47
673.237	4944.82
673.428	5041.08
673.619	5071.79
673.809	5057.46
674	5043.12
674.191	4965.3
674.382	4850.61
674.573	4975.54
674.764	4850.61
674.954	4858.81
675.145	4895.67
675.336	4879.29
675.527	4867
675.717	4762.55
675.908	4727.74
676.099	4764.6
676.289	4654.01
676.48	4778.94
676.671	4688.82
676.861	4735.93
677.052	4846.52
677.243	4617.15
677.433	4516.8
677.624	4606.91
677.814	4590.52
678.005	4725.69
678.195	4539.32
678.386	4629.43
678.576	4522.94
678.767	4498.36
678.957	4606.91
679.148	4565.95
679.338	4600.76
679.529	4410.3
679.719	4457.4
679.909	4500.41
680.1	4451.26
680.29	4408.25
680.481	4473.79
680.671	4422.59
680.861	4461.5
681.052	4608.95
681.242	4418.49
681.432	4428.73
681.622	4260.8
681.813	4305.85
682.003	4365.25
682.193	4391.87
682.383	4383.68
682.573	4285.37
682.764	4189.12
682.954	4277.18
683.144	4342.72
683.334	4309.95
683.524	4199.36
683.714	4264.89
683.904	4195.26
684.094	4209.6
684.284	4223.94
684.474	4115.39
684.664	4336.57
684.854	4133.82
685.044	4162.5
685.234	4137.92
685.424	4209.6
685.614	4113.35
685.804	4178.88
685.994	3974.08
686.184	4041.67
686.374	4066.24
686.564	3951.56
686.753	3969.99
686.943	3986.37
687.133	3916.74
687.323	4019.14
687.513	3830.73
687.702	4076.48
687.892	3845.06
688.082	3986.37
688.272	3992.52
688.461	3965.89
688.651	3883.97
688.841	3738.57
689.03	3826.63
689.22	3722.18
689.41	3871.68
689.599	3777.48
689.789	3822.53
689.979	3658.7
690.168	3666.89
690.358	3668.94
690.547	3564.49
690.737	3564.49
690.926	3703.75
691.116	3498.95
691.305	3566.54
691.495	3613.64
691.684	3625.93
691.874	3517.39
692.063	3539.91
692.252	3556.3
692.442	3462.09
692.631	3433.42
692.82	3482.57
693.01	3404.75
693.199	3460.04
693.388	3419.08
693.578	3451.85
693.767	3394.51
693.956	3390.41
694.146	3388.36
694.335	3371.98
694.524	3335.12
694.713	3374.03
694.902	3214.29
695.092	3304.4
695.281	3322.83
695.47	3312.59
695.659	3285.97
695.848	3206.1
696.037	3230.67
696.226	3163.09
696.415	3144.66
696.604	3126.22
696.793	3197.9
696.982	3142.61
697.171	3118.03
697.36	3261.39
697.549	3007.44
697.738	3179.47
697.927	3240.91
698.116	3138.51
698.305	3089.36
698.494	3158.99
698.683	3077.07
698.872	3193.81
699.061	3171.28
699.25	3058.64
699.438	3011.54
699.627	3165.14
699.816	3146.7
700.005	3050.45
700.193	3038.16
700.382	3077.07
700.571	3032.02
700.76	3140.56
700.948	2984.91
701.137	2966.48
701.326	2954.19
701.514	2999.25
701.703	2984.91
701.892	2984.91
702.08	3113.94
702.269	3046.35
702.457	2855.89
702.646	3027.92
702.834	2917.33
703.023	3009.49
703.212	2960.34
703.4	2915.28
703.589	2876.37
703.777	2878.42
703.965	2794.45
704.154	2876.37
704.342	2868.18
704.531	2941.91
704.719	2884.56
704.907	2964.43
705.096	2704.34
705.284	2827.22
705.472	2903
705.661	2909.14
705.849	2847.7
706.037	3007.44
706.226	2880.47
706.414	2767.83
706.602	2745.3
706.79	2921.43
706.979	2810.84
707.167	2769.88
707.355	2810.84
707.543	2778.07
707.731	2864.08
707.919	2720.73
708.107	2704.34
708.296	2780.12
708.484	2827.22
708.672	2816.98
708.86	2722.77
709.048	2753.49
709.236	2800.6
709.424	2753.49
709.612	2839.51
709.8	2862.04
709.988	2728.92
710.176	2794.45
710.364	2728.92
710.551	2851.8
710.739	2630.62
710.927	2690.01
711.115	2780.12
711.303	2759.64
711.491	2712.53
711.679	2726.87
711.866	2733.01
712.054	2780.12
712.242	2696.15
712.43	2827.22
712.617	2761.69
712.805	2692.05
712.993	2667.48
713.181	2647
713.368	2583.51
713.556	2728.92
713.744	2632.66
713.931	2667.48
714.119	2716.63
714.306	2708.44
714.494	2597.85
714.682	2436.06
714.869	2685.91
715.057	2655.19
715.244	2667.48
715.432	2599.9
715.619	2540.51
715.807	2630.62
715.994	2640.86
716.182	2694.1
716.369	2739.16
716.556	2651.1
716.744	2554.84
716.931	2583.51
717.119	2663.38
717.306	2466.78
717.493	2515.93
717.681	2569.18
717.868	2583.51
718.055	2655.19
718.242	2499.55
718.43	2638.81
718.617	2542.55
718.804	2591.7
718.991	2542.55
719.179	2511.83
719.366	2569.18
719.553	2683.86
719.74	2462.68
719.927	2616.28
720.114	2452.44
720.301	2450.39
720.488	2524.12
720.676	2558.94
720.863	2524.12
721.05	2528.22
721.237	2452.44
721.424	2360.28
721.611	2579.42
721.798	2507.74
721.985	2501.59
722.172	2298.84
722.358	2491.35
722.545	2378.72
722.732	2446.3
722.919	2532.31
723.106	2458.59
723.293	2511.83
723.48	2499.55
723.667	2479.07
723.853	2495.45
724.04	2458.59
724.227	2481.11
724.414	2360.28
724.6	2382.81
724.787	2440.15
724.974	2542.55
725.161	2434.01
725.347	2413.53
725.534	2442.2
725.72	2354.14
725.907	2419.68
726.094	2485.21
726.28	2446.3
726.467	2419.68
726.653	2391
726.84	2425.82
727.027	2532.31
727.213	2417.63
727.4	2354.14
727.586	2499.55
727.773	2411.48
727.959	2434.01
728.145	2485.21
728.332	2290.65
728.518	2401.24
728.705	2454.49
728.891	2335.71
729.077	2421.72
729.264	2407.39
729.45	2311.13
729.636	2444.25
729.823	2417.63
730.009	2348
730.195	2319.32
730.382	2434.01
730.568	2319.32
730.754	2366.43
730.94	2302.94
731.126	2376.67
731.313	2386.91
731.499	2364.38
731.685	2364.38
731.871	2393.05
732.057	2386.91
732.243	2395.1
732.429	2352.09
732.615	2401.24
732.801	2364.38
732.987	2296.8
733.173	2264.03
733.359	2427.87
733.545	2339.8
733.731	2315.23
733.917	2319.32
734.103	2442.2
734.289	2405.34
734.475	2380.76
734.661	2315.23
734.847	2317.28
735.033	2286.56
735.219	2261.98
735.404	2479.07
735.59	2323.42
735.776	2272.22
735.962	2327.52
736.148	2378.72
736.333	2280.41
736.519	2163.68
736.705	2208.73
736.89	2257.89
737.076	2280.41
737.262	2286.56
737.447	2286.56
737.633	2180.06
737.819	2175.97
738.004	2204.64
738.19	2266.08
738.375	2229.21
738.561	2307.04
738.747	2241.5
738.932	2196.45
739.118	2163.68
739.303	2307.04
739.489	2280.41
739.674	2241.5
739.859	2159.58
740.045	2288.61
740.23	2249.69
740.416	2204.64
740.601	2227.17
740.786	2106.34
740.972	2135.01
741.157	2061.28
741.342	2032.61
741.528	2126.82
741.713	2190.3
741.898	2098.14
742.084	2122.72
742.269	2034.66
742.454	2048.99
742.639	2003.94
742.824	2116.58
743.01	2149.34
743.195	2048.99
743.38	1983.46
743.565	1944.55
743.75	2057.18
743.935	2018.27
744.12	1965.03
744.305	1950.69
744.49	1991.65
744.675	2069.47
744.86	1960.93
745.045	2026.47
745.23	1932.26
745.415	2067.42
745.6	1915.87
745.785	2001.89
745.97	1999.84
746.155	1829.86
746.34	1999.84
746.525	1928.16
746.71	1854.44
746.895	1819.62
747.079	1876.96
747.264	1788.9
747.449	1852.39
747.634	1813.48
747.819	1836
748.003	1838.05
748.188	1739.75
748.373	1795.04
748.557	1876.96
748.742	1793
748.927	1745.89
749.111	1709.03
749.296	1721.32
749.481	1717.22
749.665	1719.27
749.85	1690.6
750.034	1680.36
750.219	1606.63
750.404	1635.3
750.588	1653.73
750.773	1580.01
750.957	1641.45
751.141	1598.44
751.326	1663.97
751.51	1569.77
751.695	1455.08
751.879	1586.15
752.064	1639.4
752.248	1571.82
752.432	1549.29
752.617	1590.25
752.801	1551.34
752.985	1401.83
753.17	1397.74
753.354	1465.32
753.538	1573.86
753.722	1362.92
753.907	1407.98
754.091	1469.42
754.275	1397.74
754.459	1412.07
754.643	1444.84
754.828	1342.44
755.012	1344.49
755.196	1393.64
755.38	1410.03
755.564	1356.78
755.748	1346.54
755.932	1270.76
756.116	1426.41
756.3	1313.77
756.484	1356.78
756.668	1272.81
756.852	1215.47
757.036	1338.35
757.22	1221.61
757.404	1233.9
757.588	1278.96
757.772	1250.28
757.956	1231.85
758.14	1246.19
758.323	1149.93
758.507	1229.81
758.691	1268.72
758.875	1225.71
759.059	1147.89
759.242	1053.68
759.426	1117.17
759.61	1158.13
759.794	1205.23
759.977	1244.14
760.161	1158.13
760.345	1147.89
760.528	1192.94
760.712	1108.98
760.895	1149.93
761.079	1057.78
761.263	1125.36
761.446	1065.97
761.63	1061.87
761.813	1098.74
761.997	1096.69
762.18	990.19
762.364	1068.02
762.547	1029.1
762.731	992.24
762.914	1080.3
763.098	1199.09
763.281	982
763.464	1010.67
763.648	1041.39
763.831	953.33
764.015	984.05
764.198	1000.43
764.381	1061.87
764.564	984.05
764.748	979.95
764.931	975.86
765.114	934.9
765.297	992.24
765.481	969.71
765.664	943.09
765.847	842.74
766.03	1020.91
766.213	951.28
766.397	934.9
766.58	885.75
766.763	965.62
766.946	824.31
767.129	932.85
767.312	885.75
767.495	961.52
767.678	895.99
767.861	893.94
768.044	836.6
768.227	943.09
768.41	861.17
768.593	902.13
768.776	912.37
768.959	938.99
769.142	834.55
769.324	852.98
769.507	793.59
769.69	781.3
769.873	807.92
770.056	881.65
770.239	842.74
770.421	871.41
770.604	797.68
770.787	861.17
770.97	824.31
771.152	799.73
771.335	779.25
771.518	754.68
771.7	828.4
771.883	836.6
772.066	779.25
772.248	836.6
772.431	777.2
772.613	816.12
772.796	754.68
772.978	816.12
773.161	812.02
773.343	779.25
773.526	852.98
773.708	719.86
773.891	762.87
774.073	732.15
774.256	642.04
774.438	822.26
774.621	836.6
774.803	666.61
774.985	723.96
775.168	769.01
775.35	701.43
775.532	664.57
775.715	758.77
775.897	693.24
776.079	617.46
776.261	625.65
776.444	656.37
776.626	699.38
776.808	625.65
776.99	631.8
777.173	613.37
777.355	644.09
777.537	625.65
777.719	619.51
777.901	631.8
778.083	494.58
778.265	576.5
778.447	607.22
778.629	586.74
778.811	599.03
778.993	639.99
779.175	541.69
779.357	584.7
779.539	603.13
779.721	584.7
779.903	623.61
780.085	537.59
780.267	560.12
780.449	566.26
780.631	570.36
780.812	697.33
780.994	508.92
781.176	519.16
781.358	566.26
781.54	525.3
781.721	639.99
781.903	558.07
782.085	592.89
782.267	502.78
782.448	486.39
782.63	467.96
782.812	543.74
782.993	484.34
783.175	492.54
783.357	478.2
783.538	461.82
783.72	547.83
783.901	490.49
784.083	455.67
784.264	449.53
784.446	435.19
784.627	525.3
784.809	504.82
784.99	447.48
785.172	377.85
785.353	484.34
785.535	465.91
785.716	441.34
785.897	416.76
786.079	451.58
786.26	386.04
786.441	424.95
786.623	345.08
786.804	353.27
786.985	437.24
787.167	455.67
787.348	369.66
787.529	361.47
787.71	474.1
787.891	345.08
788.073	414.71
788.254	345.08
788.435	422.91
788.616	326.65
788.797	330.75
788.978	470.01
789.159	312.32
789.34	316.41
789.522	320.51
789.703	404.47
789.884	312.32
790.065	396.28
790.246	429.05
790.427	361.47
790.607	355.32
790.788	297.98
790.969	336.89
791.15	336.89
791.331	330.75
791.512	332.79
791.693	320.51
791.874	320.51
792.054	396.28
792.235	295.93
792.416	320.51
792.597	232.44
792.778	334.84
792.958	287.74
793.139	324.6
793.32	277.5
793.5	201.72
793.681	328.7
793.862	267.26
794.042	287.74
794.223	283.64
794.404	281.6
794.584	283.64
794.765	224.25
794.945	297.98
795.126	316.41
795.306	394.23
795.487	338.94
795.667	295.93
795.848	336.89
796.028	263.16
796.209	254.97
796.389	308.22
796.57	248.83
796.75	240.64
796.93	201.72
797.111	246.78
797.291	234.49
797.471	230.4
797.652	197.63
797.832	164.86
798.012	254.97
798.192	222.2
798.373	181.25
798.553	228.35
798.733	275.45
798.913	230.4
799.093	345.08
799.274	263.16
799.454	297.98
799.634	279.55
799.814	257.02
799.994	293.88
800.174	254.97
800.354	205.82
800.534	160.77
800.714	209.92
800.894	187.39
801.074	214.01
801.254	230.4
801.434	267.26
801.614	259.07
801.794	166.91
801.974	779.25
802.154	197.63
802.334	222.2
802.514	199.68
802.693	265.21
802.873	222.2
803.053	275.45
803.233	257.02
803.413	136.19
803.592	181.25
803.772	183.29
803.952	269.31
804.131	216.06
804.311	209.92
804.491	142.33
804.67	271.36
804.85	224.25
805.03	254.97
805.209	220.16
805.389	230.4
805.568	248.83
805.748	136.19
805.928	226.3
806.107	230.4
806.287	205.82
806.466	205.82
806.646	279.55
806.825	205.82
807.004	177.15
807.184	132.09
807.363	189.44
807.543	242.68
807.722	103.42
807.901	166.91
808.081	160.77
808.26	87.04
808.439	173.05
808.619	218.11
808.798	168.96
808.977	222.2
809.156	166.91
809.336	218.11
809.515	250.88
809.694	156.67
809.873	113.66
810.052	189.44
810.231	128
810.411	121.85
810.59	183.29
810.769	95.23
810.948	173.05
811.127	164.86
811.306	166.91
811.485	150.53
811.664	222.2
811.843	173.05
812.022	132.09
812.201	144.38
812.38	123.9
812.559	156.67
812.737	160.77
812.916	95.23
813.095	119.81
813.274	103.42
813.453	107.52
813.632	121.85
813.811	99.33
813.989	185.34
814.168	150.53
814.347	125.95
814.526	183.29
814.704	164.86
814.883	136.19
815.062	119.81
815.24	144.38
815.419	136.19
815.598	109.57
815.776	82.94
815.955	148.48
816.133	66.56
816.312	138.24
816.49	74.75
816.669	166.91
816.847	76.8
817.026	158.72
817.204	97.28
817.383	132.09
817.561	80.89
817.74	189.44
817.918	150.53
818.097	60.42
818.275	70.65
818.453	107.52
818.632	27.65
818.81	128
818.988	111.61
819.167	138.24
819.345	15.36
819.523	191.49
819.701	52.22
819.879	166.91
820.058	158.72
820.236	181.25
820.414	103.42
820.592	103.42
820.77	68.61
820.948	107.52
821.127	125.95
821.305	105.47
821.483	54.27
821.661	97.28
821.839	72.7
822.017	123.9
822.195	142.33
822.373	222.2
822.551	68.61
822.729	115.71
822.907	95.23
823.085	13.31
823.262	107.52
823.44	130.05
823.618	41.98
823.796	58.37
823.974	41.98
824.152	41.98
824.329	148.48
824.507	74.75
824.685	109.57
824.863	52.22
825.04	66.56
825.218	173.05
825.396	132.09
825.574	99.33
825.751	101.37
825.929	68.61
826.107	25.6
826.284	46.08
826.462	115.71
826.639	99.33
826.817	-11.26
826.994	101.37
827.172	66.56
827.349	62.46
827.527	95.23
827.704	91.13
827.882	78.85
828.059	44.03
828.237	-15.36
828.414	64.51
828.591	66.56
828.769	156.67
828.946	1.02
829.124	140.29
829.301	87.04
829.478	113.66
829.655	54.27
829.833	62.46
830.01	17.41
830.187	60.42
830.364	9.22
830.542	58.37
830.719	76.8
830.896	148.48
831.073	58.37
831.25	95.23
831.427	-15.36
831.604	41.98
831.782	35.84
831.959	134.14
832.136	29.7
832.313	44.03
832.49	37.89
832.667	109.57
832.844	50.18
833.021	87.04
833.198	27.65
833.374	93.18
833.551	89.09
833.728	44.03
833.905	-3.07
834.082	17.41
834.259	82.94
834.436	128
834.612	35.84
834.789	128
834.966	111.61
835.143	74.75
835.319	5.12
835.496	54.27
835.673	17.41
835.85	160.77
836.026	115.71
836.203	117.76
836.38	50.18
836.556	41.98
836.733	46.08
836.909	68.61
837.086	-15.36
837.262	23.55
837.439	33.79
837.616	35.84
837.792	101.37
837.968	74.75
838.145	-56.32
838.321	41.98
838.498	54.27
838.674	25.6
838.851	89.09
839.027	23.55
839.203	50.18
839.38	89.09
839.556	84.99
839.732	52.22
839.909	29.7
840.085	58.37
840.261	50.18
840.437	111.61
840.614	11.26
840.79	33.79
840.966	101.37
841.142	-29.7
841.318	7.17
841.494	15.36
841.671	60.42
841.847	44.03
842.023	-1.02
842.199	107.52
842.375	111.61
842.551	50.18
842.727	41.98
842.903	111.61
843.079	-7.17
843.255	80.89
843.431	5.12
843.607	64.51
843.783	5.12
843.959	68.61
844.134	41.98
844.31	-15.36
844.486	-15.36
844.662	19.46
844.838	62.46
845.013	33.79
845.189	76.8
845.365	72.7
845.541	23.55
845.716	15.36
845.892	35.84
846.068	19.46
846.244	44.03
846.419	29.7
846.595	82.94
846.77	50.18
846.946	66.56
847.122	27.65
847.297	13.31
847.473	66.56
847.648	21.5
847.824	1.02
847.999	-15.36
848.175	29.7
848.35	21.5
848.526	105.47
848.701	-5.12
848.876	105.47
849.052	37.89
849.227	58.37
849.403	-23.55
849.578	-21.5
849.753	-7.17
849.929	46.08
850.104	13.31
850.279	9.22
850.454	-13.31
850.63	25.6
850.805	33.79
850.98	19.46
851.155	33.79
851.33	-15.36
851.505	-48.13
851.681	11.26
851.856	44.03
852.031	50.18
852.206	-33.79
852.381	17.41
852.556	-27.65
852.731	74.75
852.906	95.23
853.081	29.7
853.256	54.27
853.431	21.5
853.606	11.26
853.781	-5.12
853.956	-48.13
854.131	48.13
854.305	54.27
854.48	33.79
854.655	-21.5
854.83	17.41
855.005	50.18
855.18	66.56
855.354	60.42
855.529	-5.12
855.704	-15.36
855.879	62.46
856.053	-44.03
856.228	35.84
856.403	33.79
856.577	-15.36
856.752	9.22
856.926	58.37
857.101	27.65
857.276	41.98
857.45	17.41
857.625	41.98
857.799	70.65
857.974	21.5
858.148	19.46
858.323	13.31
858.497	52.22
858.672	-7.17
858.846	29.7
859.02	-29.7
859.195	46.08
859.369	44.03
859.543	31.74
859.718	-31.74
859.892	46.08
860.066	-39.94
860.241	-1.02
860.415	-33.79
860.589	-21.5
860.763	17.41
860.938	-1.02
861.112	21.5
861.286	-17.41
861.46	-3.07
861.634	-11.26
861.808	27.65
861.982	-50.18
862.157	44.03
862.331	37.89
862.505	-37.89
862.679	70.65
862.853	128
863.027	17.41
863.201	27.65
863.375	23.55
863.549	66.56
863.722	35.84
863.896	74.75
864.07	-11.26
864.244	-15.36
864.418	-29.7
864.592	-5.12
864.766	87.04
864.939	-11.26
865.113	17.41
865.287	46.08
865.461	-33.79
865.634	27.65
865.808	-56.32
865.982	27.65
866.156	-54.27
866.329	-23.55
866.503	35.84
866.676	29.7
866.85	5.12
867.024	-5.12
867.197	70.65
867.371	9.22
867.544	76.8
867.718	-11.26
867.891	-19.46
868.065	-3.07
868.238	-15.36
868.412	25.6
868.585	54.27
868.759	60.42
868.932	-82.94
869.105	-27.65
869.279	48.13
869.452	29.7
869.625	13.31
869.799	-25.6
869.972	-27.65
870.145	3.07
870.319	-44.03
870.492	48.13
870.665	3.07
870.838	9.22
871.011	-78.85
871.185	-7.17
871.358	1.02
871.531	-48.13
871.704	17.41
871.877	48.13
872.05	-19.46
872.223	17.41
872.396	13.31
872.569	-60.42
872.742	-31.74
872.915	99.33
873.088	-19.46
873.261	1.02
873.434	-27.65
873.607	54.27
873.78	-21.5
873.953	-27.65
874.126	-66.56
874.299	46.08
874.471	-27.65
874.644	-3.07
874.817	25.6
874.99	17.41
875.163	27.65
875.335	25.6
875.508	41.98
875.681	-17.41
875.853	27.65
876.026	19.46
876.199	-25.6
876.371	66.56
876.544	-62.46
876.717	-25.6
876.889	-17.41
877.062	-19.46
877.234	-46.08
877.407	19.46
877.579	-15.36
877.752	-27.65
877.924	-19.46
878.097	9.22
878.269	41.98
878.442	99.33
878.614	-21.5
878.786	31.74
878.959	17.41
879.131	-19.46
879.303	-15.36
879.476	50.18
879.648	60.42
879.82	9.22
879.993	-5.12
880.165	-13.31
880.337	-3.07
880.509	84.99
880.681	9.22
880.854	25.6
881.026	13.31
881.198	99.33
881.37	35.84
881.542	-15.36
881.714	-9.22
881.886	-37.89
882.058	-35.84
882.23	1.02
882.402	-72.7
882.574	50.18
882.746	31.74
882.918	78.85
883.09	37.89
883.262	56.32
883.434	-35.84
883.606	-5.12
883.778	44.03
883.95	130.05
884.122	-46.08
884.293	27.65
884.465	-15.36
884.637	50.18
884.809	1.02
884.98	54.27
885.152	60.42
885.324	7.17
885.496	9.22
885.667	-21.5
885.839	-5.12
886.011	74.75
886.182	7.17
886.354	9.22
886.525	66.56
886.697	-5.12
886.869	52.22
887.04	1.02
887.212	-29.7
887.383	7.17
887.555	23.55
887.726	35.84
887.897	29.7
888.069	-9.22
888.24	-39.94
888.412	3.07
888.583	9.22
888.754	7.17
888.926	-39.94
889.097	3.07
889.268	11.26
889.44	-44.03
889.611	-15.36
889.782	1.02
889.953	-35.84
890.125	68.61
890.296	-54.27
890.467	39.94
890.638	-95.23
890.809	-3.07
890.98	-23.55
891.151	91.13
891.323	1.02
891.494	-70.65
891.665	-11.26
891.836	-35.84
892.007	-25.6
892.178	13.31
892.349	-15.36
892.52	-31.74
892.691	5.12
892.862	-3.07
893.032	-64.51
893.203	-76.8
893.374	29.7
893.545	66.56
893.716	-7.17
893.887	25.6
894.057	-23.55
894.228	-72.7
894.399	-78.85
894.57	1.02
894.74	-89.09
894.911	50.18
895.082	-52.22
895.253	-13.31
895.423	-23.55
895.594	21.5
895.764	-31.74
895.935	13.31
896.106	72.7
896.276	-31.74
896.447	13.31
896.617	-37.89
896.788	-31.74
896.958	-19.46
897.129	27.65
897.299	-68.61
897.47	-3.07
897.64	-3.07
897.81	5.12
897.981	-15.36
898.151	-74.75
898.322	1.02
898.492	-9.22
898.662	-29.7
898.832	-11.26
899.003	-1.02
899.173	-19.46
899.343	-37.89
899.513	-87.04
