Data from USB4F104151__153__14-19-29-508.txt Node

Date: Thu Mar 13 14:19:29 EDT 2025
User: louis
Spectrometer: USB4F10415
Trigger mode: 4
Integration Time (sec): 2.000000E-2
Scans to average: 1
Electric dark correction enabled: true
Nonlinearity correction enabled: false
Boxcar width: 0
XAxis mode: Wavelengths
Number of Pixels in Spectrum: 3648
>>>>>Begin Spectral Data<<<<<
178.204	-123.39
178.424	-123.39
178.644	-123.39
178.864	-107.01
179.084	-154.11
179.304	-18.94
179.524	17.92
179.744	22.02
179.964	54.78
180.184	17.92
180.404	34.3
180.624	-74.24
180.844	-55.81
181.064	-27.14
181.283	50.69
181.503	-55.81
181.723	34.3
181.943	-51.71
182.163	38.4
182.383	-37.38
182.602	-0.51
182.822	69.12
183.042	15.87
183.262	38.4
183.482	-33.28
183.701	38.4
183.921	58.88
184.141	-6.66
184.361	38.4
184.58	26.11
184.8	126.46
185.02	13.82
185.239	40.45
185.459	-51.71
185.679	89.6
185.898	15.87
186.118	134.65
186.338	58.88
186.557	34.3
186.777	24.06
186.997	-51.71
187.216	-8.7
187.436	40.45
187.655	50.69
187.875	28.16
188.095	-49.66
188.314	62.98
188.534	-8.7
188.753	13.82
188.973	-31.23
189.192	42.5
189.412	-31.23
189.631	-23.04
189.851	75.26
190.07	44.54
190.29	-115.2
190.509	32.26
190.729	36.35
190.948	30.21
191.168	81.41
191.387	54.78
191.607	-35.33
191.826	-10.75
192.045	-10.75
192.265	24.06
192.484	-20.99
192.704	-8.7
192.923	34.3
193.142	89.6
193.362	24.06
193.581	5.63
193.8	1.54
194.02	46.59
194.239	38.4
194.458	15.87
194.678	-4.61
194.897	13.82
195.116	67.07
195.335	17.92
195.555	69.12
195.774	69.12
195.993	46.59
196.212	67.07
196.432	-23.04
196.651	7.68
196.87	38.4
197.089	105.98
197.308	1.54
197.528	-43.52
197.747	46.59
197.966	11.78
198.185	30.21
198.404	30.21
198.623	26.11
198.842	-10.75
199.062	83.45
199.281	52.74
199.5	-49.66
199.719	40.45
199.938	52.74
200.157	48.64
200.376	81.41
200.595	69.12
200.814	5.63
201.033	-35.33
201.252	-2.56
201.471	32.26
201.69	-8.7
201.909	40.45
202.128	5.63
202.347	67.07
202.566	38.4
202.785	-0.51
203.004	-29.18
203.223	112.13
203.442	-61.95
203.661	52.74
203.879	50.69
204.098	32.26
204.317	19.97
204.536	58.88
204.755	5.63
204.974	54.78
205.193	60.93
205.411	58.88
205.63	26.11
205.849	83.45
206.068	-51.71
206.287	-2.56
206.505	101.89
206.724	-41.47
206.943	30.21
207.162	-0.51
207.381	-6.66
207.599	58.88
207.818	32.26
208.037	3.58
208.255	-25.09
208.474	-2.56
208.693	-27.14
208.911	-25.09
209.13	38.4
209.349	-0.51
209.567	26.11
209.786	42.5
210.005	34.3
210.223	5.63
210.442	32.26
210.661	65.02
210.879	42.5
211.098	9.73
211.316	112.13
211.535	103.93
211.753	-0.51
211.972	48.64
212.191	40.45
212.409	15.87
212.628	67.07
212.846	67.07
213.065	77.31
213.283	50.69
213.502	-23.04
213.72	3.58
213.938	22.02
214.157	26.11
214.375	-27.14
214.594	32.26
214.812	-20.99
215.031	13.82
215.249	-18.94
215.467	22.02
215.686	93.69
215.904	-45.57
216.122	122.37
216.341	13.82
216.559	13.82
216.778	5.63
216.996	114.17
217.214	24.06
217.432	-2.56
217.651	-25.09
217.869	22.02
218.087	5.63
218.306	38.4
218.524	58.88
218.742	-64
218.96	30.21
219.179	15.87
219.397	28.16
219.615	71.17
219.833	73.21
220.051	83.45
220.27	1.54
220.488	108.03
220.706	32.26
220.924	13.82
221.142	13.82
221.36	38.4
221.578	1.54
221.796	40.45
222.015	62.98
222.233	9.73
222.451	108.03
222.669	75.26
222.887	46.59
223.105	42.5
223.323	17.92
223.541	-10.75
223.759	58.88
223.977	13.82
224.195	19.97
224.413	38.4
224.631	77.31
224.849	40.45
225.067	62.98
225.285	-35.33
225.503	71.17
225.721	-68.09
225.939	83.45
226.157	105.98
226.375	79.36
226.592	-68.09
226.81	30.21
227.028	-0.51
227.246	48.64
227.464	3.58
227.682	87.55
227.9	3.58
228.117	54.78
228.335	-31.23
228.553	13.82
228.771	124.41
228.989	-0.51
229.206	-2.56
229.424	48.64
229.642	56.83
229.86	-39.42
230.077	62.98
230.295	-2.56
230.513	26.11
230.731	62.98
230.948	13.82
231.166	-4.61
231.384	13.82
231.601	30.21
231.819	105.98
232.037	13.82
232.254	56.83
232.472	-23.04
232.689	46.59
232.907	48.64
233.125	-4.61
233.342	56.83
233.56	11.78
233.777	67.07
233.995	87.55
234.213	36.35
234.43	-0.51
234.648	15.87
234.865	52.74
235.083	101.89
235.3	34.3
235.518	-2.56
235.735	32.26
235.953	36.35
236.17	-27.14
236.388	-6.66
236.605	50.69
236.822	22.02
237.04	40.45
237.257	38.4
237.475	-18.94
237.692	50.69
237.909	7.68
238.127	17.92
238.344	81.41
238.562	105.98
238.779	17.92
238.996	34.3
239.214	32.26
239.431	67.07
239.648	-27.14
239.865	3.58
240.083	28.16
240.3	-20.99
240.517	-59.9
240.735	15.87
240.952	-2.56
241.169	50.69
241.386	26.11
241.603	75.26
241.821	30.21
242.038	52.74
242.255	5.63
242.472	3.58
242.689	40.45
242.907	83.45
243.124	81.41
243.341	48.64
243.558	22.02
243.775	26.11
243.992	-12.8
244.209	22.02
244.426	42.5
244.643	24.06
244.86	-8.7
245.078	42.5
245.295	-2.56
245.512	3.58
245.729	13.82
245.946	-6.66
246.163	65.02
246.38	-18.94
246.597	11.78
246.814	22.02
247.031	79.36
247.248	-18.94
247.464	24.06
247.681	50.69
247.898	22.02
248.115	5.63
248.332	-2.56
248.549	87.55
248.766	97.79
248.983	56.83
249.2	56.83
249.417	54.78
249.633	75.26
249.85	38.4
250.067	1.54
250.284	17.92
250.501	136.7
250.717	83.45
250.934	22.02
251.151	1.54
251.368	30.21
251.585	30.21
251.801	69.12
252.018	-43.52
252.235	13.82
252.451	-33.28
252.668	-47.62
252.885	40.45
253.102	-12.8
253.318	128.51
253.535	38.4
253.752	60.93
253.968	-18.94
254.185	-16.9
254.401	151.04
254.618	-25.09
254.835	50.69
255.051	56.83
255.268	1.54
255.484	-12.8
255.701	5.63
255.917	91.65
256.134	-43.52
256.351	5.63
256.567	-31.23
256.784	7.68
257	-0.51
257.217	-2.56
257.433	24.06
257.65	83.45
257.866	60.93
258.082	42.5
258.299	22.02
258.515	75.26
258.732	-10.75
258.948	69.12
259.165	38.4
259.381	22.02
259.597	42.5
259.814	54.78
260.03	52.74
260.246	62.98
260.463	50.69
260.679	77.31
260.895	-6.66
261.112	83.45
261.328	38.4
261.544	-76.29
261.761	77.31
261.977	56.83
262.193	-23.04
262.409	54.78
262.626	65.02
262.842	69.12
263.058	11.78
263.274	15.87
263.49	-45.57
263.707	83.45
263.923	36.35
264.139	24.06
264.355	11.78
264.571	22.02
264.787	3.58
265.004	71.17
265.22	1.54
265.436	13.82
265.652	22.02
265.868	-31.23
266.084	-10.75
266.3	1.54
266.516	17.92
266.732	69.12
266.948	24.06
267.164	-14.85
267.38	95.74
267.596	50.69
267.812	71.17
268.028	75.26
268.244	22.02
268.46	1.54
268.676	9.73
268.892	34.3
269.108	-4.61
269.324	38.4
269.54	-12.8
269.756	50.69
269.972	7.68
270.188	50.69
270.403	3.58
270.619	24.06
270.835	58.88
271.051	34.3
271.267	22.02
271.483	58.88
271.698	30.21
271.914	48.64
272.13	40.45
272.346	-2.56
272.562	-8.7
272.777	65.02
272.993	1.54
273.209	17.92
273.425	46.59
273.64	5.63
273.856	13.82
274.072	7.68
274.287	11.78
274.503	65.02
274.719	15.87
274.934	42.5
275.15	-18.94
275.366	56.83
275.581	-0.51
275.797	120.32
276.012	38.4
276.228	-10.75
276.444	-8.7
276.659	103.93
276.875	7.68
277.09	-6.66
277.306	5.63
277.521	46.59
277.737	11.78
277.952	38.4
278.168	46.59
278.383	52.74
278.599	-43.52
278.814	-8.7
279.03	-35.33
279.245	-68.09
279.461	56.83
279.676	32.26
279.892	-45.57
280.107	-0.51
280.322	17.92
280.538	101.89
280.753	-8.7
280.969	62.98
281.184	5.63
281.399	54.78
281.615	-14.85
281.83	-35.33
282.045	38.4
282.26	-59.9
282.476	79.36
282.691	1.54
282.906	30.21
283.122	-25.09
283.337	-20.99
283.552	24.06
283.767	46.59
283.983	-14.85
284.198	24.06
284.413	-35.33
284.628	-27.14
284.843	46.59
285.058	40.45
285.274	69.12
285.489	3.58
285.704	34.3
285.919	19.97
286.134	24.06
286.349	-8.7
286.564	15.87
286.779	-0.51
286.995	128.51
287.21	-27.14
287.425	22.02
287.64	-90.62
287.855	-8.7
288.07	-33.28
288.285	-2.56
288.5	17.92
288.715	89.6
288.93	-4.61
289.145	-14.85
289.36	5.63
289.575	-82.43
289.79	22.02
290.004	-0.51
290.219	-18.94
290.434	-8.7
290.649	-43.52
290.864	24.06
291.079	13.82
291.294	97.79
291.509	24.06
291.724	9.73
291.938	32.26
292.153	22.02
292.368	46.59
292.583	-0.51
292.798	-0.51
293.012	36.35
293.227	13.82
293.442	22.02
293.657	91.65
293.871	71.17
294.086	28.16
294.301	13.82
294.516	48.64
294.73	5.63
294.945	52.74
295.16	34.3
295.374	-8.7
295.589	56.83
295.804	5.63
296.018	15.87
296.233	-68.09
296.447	-2.56
296.662	26.11
296.877	54.78
297.091	62.98
297.306	-10.75
297.52	44.54
297.735	-6.66
297.949	9.73
298.164	65.02
298.378	40.45
298.593	22.02
298.807	-4.61
299.022	9.73
299.236	46.59
299.451	7.68
299.665	-6.66
299.88	17.92
300.094	38.4
300.309	50.69
300.523	22.02
300.737	103.93
300.952	52.74
301.166	38.4
301.381	34.3
301.595	-41.47
301.809	24.06
302.024	-12.8
302.238	24.06
302.452	-10.75
302.667	24.06
302.881	44.54
303.095	71.17
303.309	-0.51
303.524	-39.42
303.738	-27.14
303.952	67.07
304.166	40.45
304.381	-27.14
304.595	112.13
304.809	-8.7
305.023	-16.9
305.237	42.5
305.452	-6.66
305.666	15.87
305.88	1.54
306.094	-14.85
306.308	62.98
306.522	17.92
306.736	132.61
306.95	87.55
307.164	48.64
307.379	-14.85
307.593	79.36
307.807	81.41
308.021	-16.9
308.235	-0.51
308.449	62.98
308.663	50.69
308.877	67.07
309.091	54.78
309.305	34.3
309.519	42.5
309.733	46.59
309.947	85.5
310.161	87.55
310.374	-4.61
310.588	-6.66
310.802	34.3
311.016	54.78
311.23	83.45
311.444	-27.14
311.658	19.97
311.872	13.82
312.085	30.21
312.299	58.88
312.513	5.63
312.727	54.78
312.941	7.68
313.154	-2.56
313.368	108.03
313.582	118.27
313.796	36.35
314.009	56.83
314.223	17.92
314.437	69.12
314.651	50.69
314.864	40.45
315.078	65.02
315.292	38.4
315.505	-49.66
315.719	65.02
315.933	28.16
316.146	71.17
316.36	48.64
316.573	-20.99
316.787	-8.7
317.001	-6.66
317.214	5.63
317.428	87.55
317.641	24.06
317.855	-14.85
318.068	1.54
318.282	-6.66
318.495	112.13
318.709	48.64
318.922	120.32
319.136	130.56
319.349	77.31
319.563	-49.66
319.776	116.22
319.99	24.06
320.203	71.17
320.417	56.83
320.63	-10.75
320.843	87.55
321.057	1.54
321.27	56.83
321.483	60.93
321.697	120.32
321.91	-10.75
322.124	1.54
322.337	-0.51
322.55	-12.8
322.763	-10.75
322.977	146.94
323.19	-20.99
323.403	9.73
323.617	17.92
323.83	62.98
324.043	65.02
324.256	26.11
324.469	13.82
324.683	79.36
324.896	36.35
325.109	46.59
325.322	-59.9
325.535	40.45
325.748	-10.75
325.962	71.17
326.175	48.64
326.388	73.21
326.601	65.02
326.814	124.41
327.027	56.83
327.24	65.02
327.453	-76.29
327.666	34.3
327.879	22.02
328.092	22.02
328.305	118.27
328.518	9.73
328.731	56.83
328.944	54.78
329.157	19.97
329.37	34.3
329.583	62.98
329.796	71.17
330.009	-23.04
330.222	5.63
330.435	54.78
330.648	30.21
330.861	71.17
331.073	-14.85
331.286	-14.85
331.499	42.5
331.712	-51.71
331.925	54.78
332.138	40.45
332.35	114.17
332.563	-16.9
332.776	46.59
332.989	17.92
333.202	26.11
333.414	50.69
333.627	56.83
333.84	-18.94
334.053	24.06
334.265	-14.85
334.478	15.87
334.691	22.02
334.903	38.4
335.116	-68.09
335.329	17.92
335.541	-10.75
335.754	85.5
335.966	42.5
336.179	28.16
336.392	11.78
336.604	-8.7
336.817	5.63
337.029	120.32
337.242	13.82
337.454	13.82
337.667	42.5
337.88	48.64
338.092	38.4
338.305	-23.04
338.517	32.26
338.729	58.88
338.942	67.07
339.154	24.06
339.367	-6.66
339.579	56.83
339.792	34.3
340.004	50.69
340.217	7.68
340.429	-25.09
340.641	30.21
340.854	87.55
341.066	65.02
341.278	95.74
341.491	15.87
341.703	-16.9
341.915	99.84
342.128	-37.38
342.34	30.21
342.552	3.58
342.764	46.59
342.977	48.64
343.189	13.82
343.401	-31.23
343.613	9.73
343.826	48.64
344.038	26.11
344.25	79.36
344.462	48.64
344.674	77.31
344.886	38.4
345.099	22.02
345.311	-6.66
345.523	1.54
345.735	7.68
345.947	22.02
346.159	120.32
346.371	22.02
346.583	-16.9
346.795	79.36
347.007	-2.56
347.219	17.92
347.431	3.58
347.643	58.88
347.855	60.93
348.067	89.6
348.279	11.78
348.491	9.73
348.703	9.73
348.915	103.93
349.127	30.21
349.339	71.17
349.551	-8.7
349.763	30.21
349.975	3.58
350.187	62.98
350.399	95.74
350.61	-0.51
350.822	17.92
351.034	54.78
351.246	56.83
351.458	50.69
351.669	38.4
351.881	87.55
352.093	34.3
352.305	48.64
352.517	65.02
352.728	83.45
352.94	22.02
353.152	85.5
353.363	-0.51
353.575	42.5
353.787	97.79
353.999	99.84
354.21	67.07
354.422	65.02
354.633	3.58
354.845	36.35
355.057	75.26
355.268	103.93
355.48	103.93
355.692	52.74
355.903	-29.18
356.115	40.45
356.326	-0.51
356.538	163.33
356.749	91.65
356.961	38.4
357.172	5.63
357.384	13.82
357.595	83.45
357.807	50.69
358.018	24.06
358.23	-43.52
358.441	30.21
358.653	134.65
358.864	17.92
359.075	19.97
359.287	105.98
359.498	42.5
359.709	17.92
359.921	-0.51
360.132	-14.85
360.344	-0.51
360.555	17.92
360.766	1.54
360.977	28.16
361.189	99.84
361.4	30.21
361.611	144.89
361.823	91.65
362.034	46.59
362.245	22.02
362.456	17.92
362.667	-14.85
362.879	30.21
363.09	54.78
363.301	26.11
363.512	24.06
363.723	-57.86
363.935	24.06
364.146	-47.62
364.357	71.17
364.568	5.63
364.779	30.21
364.99	79.36
365.201	65.02
365.412	79.36
365.623	79.36
365.834	73.21
366.045	1.54
366.256	101.89
366.467	103.93
366.678	114.17
366.889	46.59
367.1	40.45
367.311	3.58
367.522	13.82
367.733	89.6
367.944	40.45
368.155	50.69
368.366	-14.85
368.577	40.45
368.788	13.82
368.999	97.79
369.209	62.98
369.42	161.28
369.631	58.88
369.842	87.55
370.053	95.74
370.264	36.35
370.474	34.3
370.685	1.54
370.896	48.64
371.107	-12.8
371.317	65.02
371.528	7.68
371.739	89.6
371.95	-0.51
372.16	58.88
372.371	71.17
372.582	54.78
372.792	30.21
373.003	7.68
373.214	58.88
373.424	38.4
373.635	13.82
373.846	56.83
374.056	-27.14
374.267	3.58
374.477	40.45
374.688	138.75
374.898	9.73
375.109	81.41
375.319	44.54
375.53	65.02
375.74	108.03
375.951	17.92
376.161	24.06
376.372	105.98
376.582	103.93
376.793	38.4
377.003	34.3
377.214	7.68
377.424	17.92
377.635	17.92
377.845	60.93
378.055	87.55
378.266	-16.9
378.476	62.98
378.686	13.82
378.897	114.17
379.107	130.56
379.317	1.54
379.528	44.54
379.738	5.63
379.948	105.98
380.158	105.98
380.369	83.45
380.579	71.17
380.789	26.11
380.999	105.98
381.21	40.45
381.42	144.89
381.63	46.59
381.84	22.02
382.05	36.35
382.261	81.41
382.471	24.06
382.681	89.6
382.891	56.83
383.101	87.55
383.311	17.92
383.521	79.36
383.731	85.5
383.941	5.63
384.151	26.11
384.361	9.73
384.571	65.02
384.781	83.45
384.991	112.13
385.201	32.26
385.411	32.26
385.621	46.59
385.831	87.55
386.041	65.02
386.251	19.97
386.461	120.32
386.671	-16.9
386.881	91.65
387.091	19.97
387.301	146.94
387.511	-0.51
387.72	50.69
387.93	108.03
388.14	46.59
388.35	95.74
388.56	114.17
388.769	124.41
388.979	67.07
389.189	126.46
389.399	120.32
389.609	97.79
389.818	73.21
390.028	67.07
390.238	105.98
390.447	110.08
390.657	46.59
390.867	73.21
391.076	-4.61
391.286	38.4
391.496	62.98
391.705	75.26
391.915	54.78
392.125	93.69
392.334	50.69
392.544	75.26
392.753	11.78
392.963	79.36
393.172	128.51
393.382	54.78
393.591	146.94
393.801	50.69
394.01	69.12
394.22	46.59
394.429	22.02
394.639	30.21
394.848	95.74
395.058	36.35
395.267	54.78
395.477	75.26
395.686	105.98
395.895	161.28
396.105	112.13
396.314	32.26
396.524	71.17
396.733	13.82
396.942	177.66
397.152	75.26
397.361	103.93
397.57	148.99
397.78	132.61
397.989	132.61
398.198	130.56
398.407	138.75
398.617	185.85
398.826	136.7
399.035	77.31
399.244	165.37
399.453	130.56
399.663	140.8
399.872	101.89
400.081	44.54
400.29	153.09
400.499	32.26
400.708	146.94
400.917	144.89
401.127	144.89
401.336	89.6
401.545	179.71
401.754	108.03
401.963	140.8
402.172	122.37
402.381	136.7
402.59	99.84
402.799	138.75
403.008	163.33
403.217	128.51
403.426	118.27
403.635	112.13
403.844	128.51
404.053	228.86
404.262	136.7
404.471	153.09
404.68	124.41
404.888	122.37
405.097	124.41
405.306	187.9
405.515	216.57
405.724	194.05
405.933	202.24
406.142	200.19
406.35	177.66
406.559	230.91
406.768	241.15
406.977	253.44
407.185	237.05
407.394	226.81
407.603	173.57
407.812	284.16
408.02	253.44
408.229	216.57
408.438	294.4
408.646	212.48
408.855	284.16
409.064	282.11
409.272	251.39
409.481	333.31
409.69	310.78
409.898	345.59
410.107	411.13
410.315	439.8
410.524	427.51
410.733	364.03
410.941	443.9
411.15	357.88
411.358	458.23
411.567	497.14
411.775	417.27
411.984	486.9
412.192	536.06
412.401	523.77
412.609	464.38
412.818	624.12
413.026	581.11
413.234	681.46
413.443	706.04
413.651	671.22
413.86	613.88
414.068	724.47
414.276	843.25
414.485	722.42
414.693	787.96
414.901	816.63
415.11	779.76
415.318	792.05
415.526	818.68
415.734	830.96
415.943	894.45
416.151	1007.09
416.359	1105.39
416.567	1007.09
416.776	1062.38
416.984	1033.71
417.192	1232.37
417.4	1144.3
417.608	1148.4
417.817	1250.8
418.025	1248.75
418.233	1474.03
418.441	1265.13
418.649	1539.56
418.857	1631.72
419.065	1512.94
419.273	1578.47
419.481	1656.29
419.689	1697.25
419.897	1865.19
420.105	1820.13
420.313	1938.91
420.521	1881.57
420.729	1957.35
420.937	1945.06
421.145	2031.07
421.353	2270.69
421.561	2246.11
421.769	2373.08
421.977	2502.11
422.185	2555.35
422.393	2553.31
422.601	2749.91
422.809	2704.85
423.017	2778.58
423.224	2866.64
423.432	2946.52
423.64	2948.56
423.848	3163.6
424.056	3186.13
424.263	3276.24
424.471	3356.11
424.679	3503.56
424.887	3614.15
425.094	3892.68
425.302	3827.14
425.51	3980.74
425.718	3937.73
425.925	3997.12
426.133	4226.5
426.341	4378.05
426.548	4701.62
426.756	4572.6
426.964	4728.25
427.171	5037.49
427.379	5213.62
427.586	5156.27
427.794	5361.07
428.001	5569.96
428.209	5760.42
428.417	5739.94
428.624	6100.39
428.832	6127.01
429.039	6143.39
429.247	6151.59
429.454	6866.33
429.662	7189.91
429.869	6768.02
430.076	7251.35
430.284	6798.74
430.491	7183.76
430.699	7792.01
430.906	7777.67
431.114	7757.19
431.321	7847.3
431.528	8058.25
431.736	8594.81
431.943	9192.82
432.15	8732.03
432.358	8795.51
432.565	9358.71
432.772	9477.49
432.979	9977.19
433.187	10059.11
433.394	9979.24
433.601	10665.31
433.808	10902.87
434.016	10685.79
434.223	11304.28
434.43	11943.24
434.637	11629.9
434.844	12375.36
435.052	12711.23
435.259	12436.8
435.466	12684.61
435.673	12492.1
435.88	13677.87
436.087	14120.23
436.294	13792.56
436.501	13704.49
436.708	13798.7
436.915	14300.45
437.122	15267.1
437.329	14988.57
437.537	15445.27
437.743	15557.91
437.95	15777.04
438.157	16524.55
438.364	17042.68
438.571	16817.41
438.778	17003.77
438.985	18703.59
439.192	18015.47
439.399	18586.85
439.606	18058.48
439.813	18953.44
440.02	20128.97
440.227	19981.52
440.433	19700.95
440.64	20145.36
440.847	20274.38
441.054	20493.51
441.261	22209.71
441.467	21746.87
441.674	22154.41
441.881	22930.59
442.088	23016.61
442.294	22461.61
442.501	23082.14
442.708	23489.69
442.914	24274.06
443.121	25425.02
443.328	25123.97
443.534	26766.44
443.741	25812.09
443.948	25918.58
444.154	27403.36
444.361	27090.02
444.568	27513.95
444.774	27477.08
444.981	27763.8
445.187	28320.85
445.394	29496.38
445.6	29219.91
445.807	32203.8
446.013	30891.05
446.22	31083.56
446.426	32543.76
446.633	32613.39
446.839	33723.39
447.046	32461.84
447.252	33731.58
447.459	34016.25
447.665	33840.12
447.871	35560.42
448.078	36893.65
448.284	35275.75
448.491	36301.78
448.697	37565.38
448.903	38147
449.11	38351.8
449.316	37913.53
449.522	38335.42
449.728	39652.26
449.935	39525.28
450.141	39697.31
450.347	40475.54
450.553	39130.03
450.76	39343.02
450.966	41534.34
451.172	40627.09
451.378	41288.59
451.584	40739.73
451.791	41354.12
451.997	41716.61
452.203	42462.07
452.409	42382.2
452.615	42019.71
452.821	40342.42
453.027	39988.13
453.233	41962.37
453.44	40381.34
453.646	40915.86
453.852	41503.62
454.058	42013.57
454.264	40741.78
454.47	41366.41
454.676	40420.25
454.882	41896.83
455.088	38288.31
455.294	39011.24
455.5	39021.48
455.705	39406.5
455.911	38190.01
456.117	37641.15
456.323	36983.76
456.529	35058.67
456.735	36248.53
456.941	35754.97
457.147	35154.92
457.352	33807.36
457.558	33903.61
457.764	33686.53
457.97	33065.99
458.176	32144.41
458.381	32508.94
458.587	30663.72
458.793	31120.42
458.999	29330.5
459.204	31056.93
459.41	30112.82
459.616	28519.5
459.821	28296.27
460.027	28451.92
460.233	27870.29
460.438	26414.19
460.644	26891.37
460.85	25447.55
461.055	25142.4
461.261	25101.44
461.466	23215.26
461.672	22746.28
461.878	24308.88
462.083	22598.82
462.289	22291.63
462.494	22049.97
462.7	20862.15
462.905	20528.33
463.111	21234.88
463.316	21200.06
463.522	20675.78
463.727	20612.29
463.932	20638.92
464.138	20731.08
464.343	20647.11
464.549	19905.74
464.754	20755.65
464.959	20169.93
465.165	20235.47
465.37	19354.84
465.575	18971.87
465.781	19789.01
465.986	19864.78
466.191	19107.04
466.397	18558.18
466.602	18236.65
466.807	18625.76
467.012	18656.48
467.218	18115.82
467.423	18263.27
467.628	18029.8
467.833	18787.55
468.038	18304.23
468.244	17685.75
468.449	18248.94
468.654	17939.69
468.859	17990.89
469.064	17601.78
469.269	16966.91
469.474	17249.53
469.679	17392.89
469.885	16917.76
470.09	17241.34
470.295	17200.38
470.5	16495.88
470.705	16766.21
470.91	16327.94
471.115	16147.72
471.32	16379.14
471.525	16438.53
471.73	16037.13
471.935	16028.94
472.139	15289.62
472.344	15580.43
472.549	15508.76
472.754	15156.5
472.959	14695.71
473.164	14578.98
473.369	14562.59
473.574	14892.32
473.778	14740.77
473.983	14662.94
474.188	14306.6
474.393	14056.75
474.598	14038.31
474.802	13978.92
475.007	13745.45
475.212	13944.11
475.417	13370.68
475.621	13481.27
475.826	13249.85
476.031	13024.57
476.235	13020.47
476.44	13296.95
476.645	12651.84
476.849	12893.5
477.054	12719.42
477.259	12526.91
477.463	12328.26
477.668	12117.32
477.872	12287.3
478.077	11806.03
478.282	11711.82
478.486	11625.81
478.691	11578.7
478.895	11468.11
479.1	11408.72
479.304	11380.05
479.509	11253.08
479.713	11441.49
479.918	11410.77
480.122	10917.21
480.326	11079
480.531	11109.72
480.735	11017.56
480.94	10896.73
481.144	11287.89
481.348	10689.88
481.553	10655.07
481.757	10655.07
481.961	10790.24
482.166	10984.79
482.37	10759.52
482.574	10681.69
482.778	10327.39
482.983	10708.32
483.187	10462.56
483.391	10784.09
483.595	10519.9
483.8	10638.69
484.004	10653.02
484.208	10603.87
484.412	10761.56
484.616	10638.69
484.821	10628.45
485.025	10462.56
485.229	10704.22
485.433	10657.12
485.637	10511.71
485.841	10288.48
486.045	10437.98
486.249	10780
486.453	10562.91
486.657	10556.77
486.861	10661.21
487.065	10138.98
487.269	10495.33
487.473	10540.38
487.677	10507.62
487.881	10667.36
488.085	10624.35
488.289	10638.69
488.493	10401.12
488.697	10507.62
488.901	10696.03
489.105	10691.93
489.309	10567.01
489.512	10655.07
489.716	10534.24
489.92	10743.13
490.124	10622.3
490.328	10827.1
490.531	10622.3
490.735	10550.62
490.939	10876.25
491.143	10804.57
491.346	10935.64
491.55	11066.71
491.754	11060.57
491.958	11115.86
492.161	10990.94
492.365	11128.15
492.569	11017.56
492.772	11056.47
492.976	11210.07
493.18	11081.05
493.383	11369.81
493.587	11513.17
493.79	11543.89
493.994	11269.46
494.197	11670.86
494.401	11629.9
494.605	11785.55
494.808	11793.74
495.012	11951.43
495.215	11754.83
495.419	12236.1
495.622	11990.35
495.825	12121.42
496.029	12236.1
496.232	12551.49
496.436	12289.35
496.639	12637.5
496.843	12598.59
497.046	13034.81
497.249	13090.1
497.453	12959.03
497.656	13303.09
497.859	13466.93
498.063	13471.03
498.266	13604.14
498.469	13417.78
498.673	13546.8
498.876	13974.83
499.079	13919.53
499.282	13942.06
499.485	14312.74
499.689	14294.31
499.892	14505.25
500.095	14619.94
500.298	15136.03
500.501	15047.96
500.705	15099.16
500.908	15215.9
501.111	15594.77
501.314	15797.52
501.517	15967.5
501.72	16209.16
501.923	16192.78
502.126	16319.75
502.329	16772.35
502.532	16561.41
502.735	16790.78
502.938	16889.09
503.141	17257.72
503.344	17380.6
503.547	17569.01
503.75	17777.9
503.953	18027.76
504.156	18269.42
504.359	18380.01
504.562	18359.53
504.765	18570.47
504.968	18961.63
505.17	19047.65
505.373	18990.3
505.576	19551.45
505.779	19600.6
505.982	19815.63
506.185	20145.36
506.387	20155.6
506.59	20477.13
506.793	20622.53
506.996	20925.63
507.198	21062.85
507.401	21333.18
507.604	21292.22
507.807	22121.65
508.009	22062.26
508.212	22295.72
508.415	22271.15
508.617	22598.82
508.82	22783.14
509.022	22518.95
509.225	23219.36
509.428	23461.02
509.63	23512.22
509.833	23473.31
510.035	24329.36
510.238	24476.81
510.44	24671.37
510.643	24853.64
510.845	25136.26
511.048	24974.47
511.25	25756.79
511.453	25386.11
511.655	26338.41
511.858	26406
512.06	25930.87
512.262	26637.42
512.465	26567.79
512.667	26668.14
512.87	27075.68
513.072	27712.6
513.274	27907.16
513.477	27972.69
513.679	28404.81
513.881	28664.91
514.084	28795.98
514.286	28988.49
514.488	29162.56
514.69	29563.96
514.893	29752.38
515.095	29477.95
515.297	30704.68
515.499	30417.97
515.701	31110.18
515.904	31054.89
516.106	31194.15
516.308	31634.46
516.51	31960.09
516.712	31673.37
516.914	32414.74
517.116	32619.53
517.318	32543.76
517.52	33291.27
517.722	33033.22
517.925	33831.93
518.127	34366.45
518.329	33850.36
518.531	34165.75
518.733	34851.82
518.935	34888.68
519.136	34675.69
519.338	35226.6
519.54	35503.07
519.742	35834.85
519.944	35824.61
520.146	36527.06
520.348	36811.73
520.55	36764.62
520.752	37071.82
520.954	37970.88
521.155	37313.48
521.357	37647.3
521.559	38273.98
521.761	38624.18
521.963	38661.04
522.164	38876.08
522.366	39162.79
522.568	39300.01
522.77	39297.96
522.971	39852.96
523.173	39873.44
523.375	40133.53
523.576	40291.23
523.778	40332.18
523.98	40743.83
524.181	41106.32
524.383	40928.14
524.584	41698.18
524.786	41567.11
524.988	41413.51
525.189	41618.31
525.391	42302.33
525.592	42171.26
525.794	42515.32
525.995	42212.22
526.197	42492.79
526.398	42537.85
526.6	42802.03
526.801	43133.81
527.003	42802.03
527.204	43449.19
527.406	43801.44
527.607	43428.71
527.808	43758.44
528.01	43250.54
528.211	43617.13
528.412	44413.79
528.614	44092.26
528.815	44295
529.016	44538.71
529.218	44051.3
529.419	44647.25
529.62	44303.2
529.822	44899.15
530.023	44331.87
530.224	44532.57
530.425	44385.11
530.626	44489.56
530.828	44096.35
531.029	45499.21
531.23	45001.55
531.431	44890.96
531.632	45177.68
531.833	45327.18
532.035	45026.13
532.236	45058.9
532.437	45431.63
532.638	45415.24
532.839	45259.6
533.04	45525.83
533.241	45210.45
533.442	46015.3
533.643	44999.51
533.844	45515.59
534.045	45558.6
534.246	44870.48
534.447	45540.17
534.648	45409.1
534.849	45355.85
535.05	44686.17
535.251	45556.55
535.451	45294.41
535.652	45951.81
535.853	45146.96
536.054	45800.26
536.255	45226.83
536.456	45247.31
536.657	45759.3
536.857	45566.79
537.058	45138.77
537.259	45890.37
537.46	45376.33
537.66	45378.38
537.861	45265.74
538.062	45318.99
538.263	45482.83
538.463	45120.34
538.664	45599.56
538.865	45171.53
539.065	45728.58
539.266	45038.42
539.466	45716.29
539.667	44780.37
539.868	45613.9
540.068	45329.23
540.269	45556.55
540.469	45392.72
540.67	45329.23
540.87	45019.99
541.071	44780.37
541.271	45345.61
541.472	44917.59
541.672	45275.98
541.873	44774.23
542.073	44569.43
542.274	45402.96
542.474	45355.85
542.675	44649.3
542.875	45351.76
543.075	44829.52
543.276	44729.17
543.476	45157.2
543.676	44577.62
543.877	44854.1
544.077	45017.94
544.277	44739.41
544.478	45042.51
544.678	44962.64
544.878	44663.64
545.078	44749.65
545.279	44514.14
545.479	44825.43
545.679	44598.1
545.879	44886.87
546.079	44854.1
546.28	44761.94
546.48	44180.32
546.68	44624.73
546.88	44835.67
547.08	44417.88
547.28	44491.61
547.48	44172.13
547.68	44227.42
547.88	44677.97
548.081	44964.69
548.281	44370.78
548.481	44106.59
548.681	44276.57
548.881	44526.42
549.081	44190.56
549.28	44530.52
549.48	44350.3
549.68	44127.07
549.88	45179.73
550.08	44217.18
550.28	44200.8
550.48	44561.24
550.68	44610.39
550.88	43891.55
551.08	43756.39
551.279	44536.66
551.479	43975.52
551.679	44227.42
551.879	43787.11
552.079	44706.65
552.278	43875.17
552.478	44217.18
552.678	44419.93
552.878	44389.21
553.077	43869.03
553.277	43998.05
553.477	44188.51
553.676	43621.22
553.876	43909.99
554.076	44110.69
554.275	43617.13
554.475	43441
554.674	43653.99
554.874	43731.81
555.074	43524.97
555.273	43871.07
555.473	44063.58
555.672	43473.77
555.872	43496.3
556.071	43379.56
556.271	43158.38
556.47	43369.32
556.67	42836.85
556.869	43494.25
557.068	43678.57
557.268	43406.19
557.467	43219.82
557.667	43199.34
557.866	43305.84
558.065	43086.7
558.265	42976.11
558.464	42568.57
558.663	42961.78
558.863	42511.22
559.062	43363.18
559.261	42517.37
559.461	43383.66
559.66	42283.9
559.859	42926.96
560.058	42488.7
560.258	42744.69
560.457	42169.21
560.656	42943.34
560.855	42406.78
561.054	42611.57
561.253	42179.45
561.453	42537.85
561.652	42109.82
561.851	42419.06
562.05	42453.88
562.249	41714.56
562.448	42273.66
562.647	41708.42
562.846	41575.3
563.045	41976.7
563.244	41601.93
563.443	42128.25
563.642	40981.39
563.841	42060.67
564.04	41378.7
564.239	41560.97
564.438	41300.87
564.637	41563.01
564.836	41350.03
565.035	40588.18
565.234	41110.41
565.432	41116.56
565.631	41048.97
565.83	41134.99
566.029	40893.33
566.228	40577.94
566.427	40922
566.625	40715.15
566.824	39840.67
567.023	40901.52
567.222	39760.8
567.42	40418.2
567.619	40137.63
567.818	40027.04
568.016	40018.85
568.215	40170.4
568.414	39887.78
568.612	40348.57
568.811	39752.61
569.01	39877.54
569.208	39787.42
569.407	39771.04
569.605	39447.46
569.804	39838.62
570.002	39363.5
570.201	39791.52
570.4	38941.61
570.598	38923.18
570.797	39134.12
570.995	39148.46
571.193	38976.43
571.392	39039.92
571.59	38341.56
571.789	38415.29
571.987	38681.52
572.186	38482.87
572.384	38480.82
572.582	38433.72
572.781	38431.67
572.979	37915.58
573.177	38144.95
573.376	38060.99
573.574	37977.02
573.772	38265.78
573.971	37493.7
574.169	37829.57
574.367	37549
574.565	37860.29
574.763	37317.57
574.962	37280.71
575.16	37004.24
575.358	36926.41
575.556	37112.78
575.754	37454.79
575.952	36627.41
576.151	37082.06
576.349	36441.04
576.547	36506.58
576.745	36721.62
576.943	36694.99
577.141	36377.56
577.339	36406.23
577.537	36111.32
577.735	36486.1
577.933	36297.69
578.131	36199.38
578.329	35791.84
578.527	35804.13
578.725	36092.89
578.923	36113.37
579.121	35384.29
579.319	35697.63
579.516	35544.03
579.714	35748.83
579.912	35519.46
580.11	35394.53
580.308	35498.98
580.506	35537.89
580.704	35111.91
580.901	35242.98
581.099	35486.69
581.297	34472.95
581.495	34743.28
581.692	34788.33
581.89	34317.3
582.088	34673.65
582.285	34407.41
582.483	34100.22
582.681	34243.57
582.878	33938.43
583.076	33922.04
583.274	34044.92
583.471	33737.73
583.669	33459.2
583.866	33475.59
584.064	34145.27
584.262	33240.07
584.459	33448.96
584.657	33741.82
584.854	33526.78
585.052	32920.59
585.249	33082.38
585.447	33412.1
585.644	32814.09
585.841	32650.25
586.039	33170.44
586.236	32836.62
586.434	32551.95
586.631	32742.41
586.828	32336.91
587.026	32398.35
587.223	32398.35
587.42	32019.48
587.618	32132.12
587.815	31968.28
588.012	31861.79
588.21	31806.49
588.407	31831.07
588.604	31663.13
588.801	31855.64
588.999	31941.66
589.196	31286.31
589.393	31437.86
589.59	31251.49
589.787	31112.23
589.984	30915.62
590.182	30583.85
590.379	31054.89
590.576	30551.09
590.773	30774.31
590.97	30794.79
591.167	30594.09
591.364	30587.95
591.561	30399.54
591.758	30112.82
591.955	30209.08
592.152	30602.29
592.349	30055.48
592.546	30272.56
592.743	29830.2
592.94	29883.45
593.137	29969.46
593.334	29848.63
593.531	28992.58
593.727	29776.95
593.924	29508.67
594.121	29170.75
594.318	29465.66
594.515	29221.95
594.712	29389.89
594.908	28742.73
595.105	29084.74
595.302	28798.02
595.499	28685.39
595.696	28580.94
595.892	28486.73
596.089	28650.57
596.286	28613.71
596.482	28212.31
596.679	28427.34
596.876	28294.22
597.072	28109.91
597.269	28425.29
597.466	27937.88
597.662	27606.11
597.859	28118.1
598.055	27794.52
598.252	27706.46
598.448	27618.39
598.645	27333.73
598.841	27343.97
599.038	27487.32
599.234	27270.24
599.431	27182.18
599.627	26766.44
599.824	27442.27
600.02	26827.88
600.217	26717.29
600.413	26770.54
600.609	26580.07
600.806	26610.79
601.002	26891.37
601.198	26602.6
601.395	26281.07
601.591	26285.17
601.787	26162.29
601.984	26053.75
602.18	26471.53
602.376	26233.97
602.572	26059.89
602.769	25504.89
602.965	25533.56
603.161	25916.53
603.357	25339.01
603.553	25314.43
603.75	25574.52
603.946	25435.26
604.142	25498.75
604.338	25013.38
604.534	25361.53
604.73	25056.39
604.926	25189.5
605.122	24933.51
605.318	24528.01
605.514	24761.48
605.71	24810.63
605.906	24700.04
606.102	24308.88
606.298	24665.22
606.494	24482.95
606.69	24562.83
606.886	24716.42
607.082	24142.99
607.278	24640.65
607.474	24079.5
607.67	24487.05
607.866	23835.8
608.062	24302.73
608.257	23884.95
608.453	24104.08
608.649	24306.83
608.845	23909.52
609.041	23428.25
609.236	23655.58
609.432	23880.85
609.628	23403.67
609.824	23415.96
610.019	23407.77
610.215	23391.39
610.411	23196.83
610.606	23268.51
610.802	23565.46
610.998	23231.65
611.193	23442.59
611.389	23020.7
611.584	22922.4
611.78	22856.87
611.976	22811.81
612.171	23174.3
612.367	23047.33
612.562	22760.61
612.758	22676.65
612.953	22543.53
613.149	22807.72
613.344	22338.73
613.539	23119.01
613.735	22721.7
613.93	22465.71
614.126	22326.44
614.321	22639.78
614.517	22396.07
614.712	22553.77
614.907	22328.49
615.103	22510.76
615.298	22203.57
615.493	22434.99
615.688	22185.13
615.884	22512.81
616.079	22295.72
616.274	21789.88
616.47	21918.9
616.665	21982.38
616.86	22103.21
617.055	21781.68
617.25	21789.88
617.445	21849.27
617.641	21742.77
617.836	21888.18
618.031	21511.35
618.226	21816.5
618.421	21396.67
618.616	21388.47
618.811	21361.85
619.006	21785.78
619.201	21052.61
619.396	21296.32
619.591	20772.04
619.786	21023.94
619.981	20563.14
620.176	20868.29
620.371	20634.82
620.566	20659.4
620.761	20448.46
620.956	20481.22
621.151	20284.62
621.346	20432.07
621.541	19805.39
621.735	20186.32
621.93	19700.95
622.125	19846.35
622.32	19500.25
622.515	19961.04
622.709	19555.54
622.904	19471.57
623.099	19145.95
623.294	19326.17
623.488	19145.95
623.683	19207.39
623.878	18547.94
624.072	18642.15
624.267	18805.99
624.462	18625.76
624.656	18498.79
624.851	18531.56
625.046	18369.77
625.24	18371.82
625.435	17841.39
625.629	18463.97
625.824	18130.16
626.018	18154.73
626.213	17370.36
626.407	17923.31
626.602	17472.76
626.796	17552.63
626.991	17290.49
627.185	17472.76
627.38	17136.89
627.574	17370.36
627.768	17251.58
627.963	16882.94
628.157	17093.88
628.352	16821.5
628.546	16504.07
628.74	16776.45
628.935	16293.13
629.129	16758.02
629.323	16426.25
629.517	16342.28
629.712	16348.42
629.906	16317.7
630.1	15643.92
630.294	15944.97
630.489	15713.55
630.683	15920.4
630.877	15717.65
631.071	15703.31
631.265	15592.72
631.459	15594.77
631.653	15637.78
631.848	15441.17
632.042	15179.03
632.236	15217.94
632.43	14777.63
632.624	15125.79
632.818	14824.73
633.012	14587.17
633.206	14679.33
633.4	14724.38
633.594	14482.72
633.788	14566.69
633.982	14273.83
634.176	14447.91
634.369	14245.16
634.563	14210.34
634.757	14193.96
634.951	14288.17
635.145	14157.1
635.339	14060.84
635.533	13767.98
635.726	13894.96
635.92	13550.9
636.114	13716.78
636.308	13616.43
636.501	13567.28
636.695	13419.83
636.889	13104.44
637.083	13358.39
637.276	13192.5
637.47	13342
637.664	12938.55
637.857	13188.41
638.051	13102.39
638.244	12864.83
638.438	12825.92
638.632	12881.21
638.825	12674.37
639.019	12645.7
639.212	12422.47
639.406	12580.16
639.599	12666.17
639.793	12418.37
639.986	12320.07
640.18	12201.29
640.373	12492.1
640.567	12039.5
640.76	12094.79
640.954	11914.57
641.147	11687.25
641.34	11775.31
641.534	11871.56
641.727	11672.91
641.92	11779.4
642.114	11474.26
642.307	11634
642.5	11711.82
642.694	11492.69
642.887	11437.39
643.08	11339.09
643.273	11222.36
643.467	11068.76
643.66	11191.64
643.853	11083.09
644.046	11085.14
644.239	11144.53
644.432	10843.48
644.626	10823
644.819	10745.18
645.012	10833.24
645.205	10640.73
645.398	10851.67
645.591	10577.25
645.784	10524
645.977	10335.59
646.17	10462.56
646.363	10345.83
646.556	10016.1
646.749	10040.68
646.942	10204.52
647.135	10102.12
647.328	10184.04
647.521	10091.88
647.714	9760.11
647.907	9788.78
648.099	9921.9
648.292	9936.23
648.485	9667.95
648.678	9745.77
648.871	9612.65
649.064	9713
649.256	9467.25
649.449	9397.62
649.642	9352.56
649.835	9403.76
650.027	9366.9
650.22	9256.31
650.413	9299.31
650.605	9252.21
650.798	9387.38
650.991	8889.72
651.183	9055.61
651.376	9086.33
651.568	8975.74
651.761	8729.98
651.954	8877.43
652.146	8752.51
652.339	8705.4
652.531	8689.02
652.724	8752.51
652.916	8435.07
653.109	8516.99
653.301	8660.35
653.494	8668.54
653.686	8287.62
653.879	8543.61
654.071	8377.73
654.263	8263.04
654.456	8355.2
654.648	8414.59
654.84	8230.27
655.033	8260.99
655.225	8271.23
655.417	8136.07
655.61	8082.82
655.802	8029.57
655.994	8005
656.186	7861.64
656.379	7757.19
656.571	7853.45
656.763	7636.36
656.955	7673.23
657.148	7736.71
657.34	7787.91
657.532	7601.55
657.724	7599.5
657.916	7708.04
658.108	7468.43
658.3	7486.86
658.492	7478.67
658.684	7243.15
658.876	7239.06
659.068	7259.54
659.26	7409.04
659.452	7271.83
659.644	7351.7
659.836	7054.74
660.028	7165.33
660.22	6993.3
660.412	7024.02
660.604	7060.88
660.796	6968.73
660.988	7013.78
661.18	6895
661.372	6765.98
661.563	6862.23
661.755	6591.9
661.947	6698.39
662.139	6845.85
662.331	6643.1
662.522	6815.13
662.714	6600.09
662.906	6522.27
663.097	6509.98
663.289	6550.94
663.481	6618.52
663.673	6411.68
663.864	6591.9
664.056	6440.35
664.247	6348.19
664.439	6405.53
664.631	6464.93
664.822	6307.23
665.014	6178.21
665.205	6204.83
665.397	6221.22
665.588	6151.59
665.78	6100.39
665.971	6049.19
666.163	6114.72
666.354	6172.07
666.546	6063.52
666.737	5942.69
666.929	5840.29
667.12	5903.78
667.311	5842.34
667.503	5748.14
667.694	5885.35
667.885	5830.06
668.077	5850.53
668.268	5832.1
668.459	5623.21
668.651	5903.78
668.842	5815.72
669.033	5637.55
669.224	5717.42
669.416	5694.89
669.607	5567.92
669.798	5559.72
669.989	5586.35
670.18	5498.28
670.371	5535.15
670.563	5379.5
670.754	5432.75
670.945	5322.16
671.136	5359.02
671.327	5438.89
671.518	5389.74
671.709	5465.52
671.9	5305.78
672.091	5205.42
672.282	5268.91
672.473	5150.13
672.664	5221.81
672.855	5234.1
673.046	5299.63
673.237	5164.47
673.428	5363.12
673.619	5000.63
673.809	5236.14
674	4969.91
674.191	5146.03
674.382	5045.68
674.573	5029.3
674.764	4867.51
674.954	5189.04
675.145	4994.48
675.336	4830.65
675.527	4988.34
675.717	4939.19
675.908	5088.69
676.099	4896.18
676.289	5037.49
676.48	4869.56
676.671	4797.88
676.861	4953.52
677.052	4849.08
677.243	4799.93
677.433	4718.01
677.624	4779.45
677.814	4675
678.005	4703.67
678.195	4730.3
678.386	4758.97
678.576	4677.05
678.767	4785.59
678.957	4709.82
679.148	4834.74
679.338	4779.45
679.529	4666.81
679.719	4543.93
679.909	4638.14
680.1	4687.29
680.29	4584.89
680.481	4545.98
680.671	4646.33
680.861	4560.31
681.052	4607.42
681.242	4492.73
681.432	4527.55
681.622	4527.55
681.813	4644.28
682.003	4449.72
682.193	4441.53
682.383	4445.63
682.573	4556.22
682.764	4388.29
682.954	4572.6
683.144	4429.24
683.334	4513.21
683.524	4380.09
683.714	4496.83
683.904	4373.95
684.094	4482.49
684.284	4376
684.474	4314.56
684.664	4353.47
684.854	4416.96
685.044	4357.57
685.234	4130.24
685.424	4130.24
685.614	4158.91
685.804	4212.16
685.994	4228.54
686.184	4330.94
686.374	4142.53
686.564	4183.49
686.753	4263.36
686.943	4117.95
687.133	4089.28
687.323	4068.8
687.513	4136.38
687.702	4060.61
687.892	3933.64
688.082	4029.89
688.272	3966.4
688.461	3988.93
688.651	3773.89
688.841	4038.08
689.03	3937.73
689.22	3827.14
689.41	3917.25
689.599	3876.29
689.789	3950.02
689.979	3841.48
690.168	3782.09
690.358	3833.29
690.547	3710.41
690.737	3700.17
690.926	3620.3
691.116	3683.78
691.305	3487.18
691.495	3751.37
691.684	3823.05
691.874	3687.88
692.063	3587.53
692.252	3569.1
692.442	3667.4
692.631	3511.75
692.82	3573.19
693.01	3497.42
693.199	3548.62
693.388	3626.44
693.578	3470.8
693.767	3610.06
693.956	3511.75
694.146	3458.51
694.335	3421.64
694.524	3556.81
694.713	3399.12
694.902	3442.12
695.092	3284.43
695.281	3411.4
695.47	3405.26
695.659	3339.73
695.848	3241.42
696.037	3339.73
696.226	3339.73
696.415	3298.77
696.604	3384.78
696.793	3384.78
696.982	3325.39
697.171	3216.85
697.36	3343.82
697.549	3311.05
697.738	3173.84
697.927	3237.33
698.116	3290.57
698.305	3102.16
698.494	3276.24
698.683	3220.94
698.872	3184.08
699.061	3128.78
699.25	3122.64
699.438	3214.8
699.627	3155.41
699.816	3253.71
700.005	2917.84
700.193	3245.52
700.382	3151.31
700.571	3175.89
700.76	3194.32
700.948	3218.89
701.137	3102.16
701.326	3110.35
701.514	3192.27
701.703	3151.31
701.892	3143.12
702.08	3071.44
702.269	3001.81
702.457	3157.46
702.646	3249.61
702.834	3048.91
703.023	3136.98
703.212	3044.82
703.4	2938.32
703.589	2962.9
703.777	3012.05
703.965	3005.91
704.154	2999.76
704.342	2977.23
704.531	2907.6
704.719	2856.4
704.907	3020.24
705.096	2823.64
705.284	2854.36
705.472	2864.6
705.661	2874.84
705.849	2993.62
706.037	2934.23
706.226	2921.94
706.414	2928.08
706.602	2958.8
706.79	2964.95
706.979	2840.02
707.167	2913.75
707.355	2891.22
707.543	2848.21
707.731	2923.99
707.919	2856.4
708.107	2823.64
708.296	3003.86
708.484	2717.14
708.672	2860.5
708.86	2790.87
709.048	2760.15
709.236	2831.83
709.424	2840.02
709.612	2766.29
709.8	2727.38
709.988	2717.14
710.176	2684.38
710.364	2735.57
710.551	2743.77
710.739	2688.47
710.927	2653.66
711.115	2708.95
711.303	2676.18
711.491	2813.4
711.679	2684.38
711.866	2727.38
712.054	2885.08
712.242	2708.95
712.43	2848.21
712.617	2692.57
712.805	2661.85
712.993	2784.73
713.181	2729.43
713.368	2645.46
713.556	2700.76
713.744	2600.41
713.931	2643.42
714.119	2678.23
714.306	2690.52
714.494	2643.42
714.682	2754.01
714.869	2577.88
715.057	2731.48
715.244	2563.54
715.432	2569.69
715.619	2571.74
715.807	2620.89
715.994	2555.35
716.182	2641.37
716.369	2600.41
716.556	2678.23
716.744	2489.82
716.931	2508.25
717.119	2555.35
717.306	2635.22
717.493	2538.97
717.681	2512.35
717.868	2602.46
718.055	2588.12
718.242	2547.16
718.43	2500.06
718.617	2553.31
718.804	2547.16
718.991	2541.02
719.179	2577.88
719.366	2442.71
719.553	2434.52
719.74	2455
719.927	2569.69
720.114	2522.59
720.301	2428.38
720.488	2430.43
720.676	2547.16
720.863	2491.87
721.05	2504.15
721.237	2557.4
721.424	2446.81
721.611	2385.37
721.798	2436.57
721.985	2407.9
722.172	2319.84
722.358	2438.62
722.545	2446.81
722.732	2403.8
722.919	2465.24
723.106	2450.91
723.293	2418.14
723.48	2438.62
723.667	2409.95
723.853	2366.94
724.04	2438.62
724.227	2438.62
724.414	2422.24
724.6	2471.39
724.787	2377.18
724.974	2348.51
725.161	2407.9
725.347	2444.76
725.534	2358.75
725.72	2385.37
725.907	2377.18
726.094	2311.64
726.28	2414.04
726.467	2391.52
726.653	2393.56
726.84	2399.71
727.027	2561.5
727.213	2299.36
727.4	2373.08
727.586	2332.12
727.773	2340.32
727.959	2295.26
728.145	2274.78
728.332	2250.21
728.518	2252.25
728.705	2405.85
728.891	2340.32
729.077	2352.6
729.264	2194.91
729.45	2368.99
729.636	2254.3
729.823	2172.38
730.009	2368.99
730.195	2389.47
730.382	2356.7
730.568	2344.41
730.754	2203.1
730.94	2252.25
731.126	2233.82
731.313	2287.07
731.499	2274.78
731.685	2252.25
731.871	2350.56
732.057	2321.88
732.243	2225.63
732.429	2282.97
732.615	2375.13
732.801	2330.08
732.987	2203.1
733.173	2123.23
733.359	2278.88
733.545	2129.38
733.731	2244.06
733.917	2354.65
734.103	2227.68
734.289	2119.14
734.475	2266.59
734.661	2188.77
734.847	2153.95
735.033	2235.87
735.219	2260.45
735.404	2266.59
735.59	2037.22
735.776	2184.67
735.962	2110.94
736.148	2233.82
736.333	2143.71
736.519	2096.61
736.705	2026.98
736.89	2117.09
737.076	2110.94
737.262	2086.37
737.447	2160.1
737.633	2153.95
737.819	2186.72
738.004	2215.39
738.19	2043.36
738.375	2069.98
738.561	2246.11
738.747	2184.67
738.932	2174.43
739.118	2078.18
739.303	2094.56
739.489	2112.99
739.674	2014.69
739.859	2076.13
740.045	2078.18
740.23	2049.5
740.416	2006.5
740.601	2139.62
740.786	2065.89
740.972	1910.24
741.157	2031.07
741.342	1961.44
741.528	2096.61
741.713	1963.49
741.898	2026.98
742.084	1986.02
742.269	1996.26
742.454	2029.03
742.639	1973.73
742.824	1957.35
743.01	1928.67
743.195	2012.64
743.38	1916.39
743.565	1887.72
743.75	1943.01
743.935	1801.7
744.12	2053.6
744.305	1914.34
744.49	1965.54
744.675	1865.19
744.86	1902.05
745.045	1846.76
745.23	1793.51
745.415	1809.89
745.6	1803.75
745.785	1824.23
745.97	1762.79
746.155	1848.8
746.34	1758.69
746.525	1775.08
746.71	1752.55
746.895	1721.83
747.079	1727.97
747.264	1734.12
747.449	1783.27
747.634	1723.88
747.819	1727.97
748.003	1689.06
748.188	1615.34
748.373	1664.49
748.557	1648.1
748.742	1670.63
748.927	1603.05
749.111	1693.16
749.296	1582.57
749.481	1611.24
749.665	1521.13
749.85	1605.1
750.034	1517.03
750.219	1601
750.404	1594.86
750.588	1498.6
750.773	1476.07
750.957	1506.79
751.141	1508.84
751.326	1529.32
751.51	1408.49
751.695	1568.23
751.879	1504.75
752.064	1465.83
752.248	1469.93
752.432	1455.59
752.617	1435.11
752.801	1363.44
752.985	1424.87
753.17	1394.15
753.354	1492.46
753.538	1388.01
753.722	1390.06
753.907	1304.04
754.091	1353.2
754.275	1398.25
754.459	1310.19
754.643	1267.18
754.828	1316.33
755.012	1234.41
755.196	1340.91
755.38	1265.13
755.564	1175.02
755.748	1185.26
755.932	1330.67
756.116	1277.42
756.3	1306.09
756.484	1248.75
756.668	1144.3
756.852	1037.81
757.036	1295.85
757.22	1193.45
757.404	1156.59
757.588	1156.59
757.772	1115.63
757.956	1228.27
758.14	1095.15
758.323	1089.01
758.507	1162.73
758.691	1097.2
758.875	1177.07
759.059	1140.21
759.242	1000.94
759.426	1160.69
759.61	1117.68
759.794	1035.76
759.977	1129.97
760.161	1017.33
760.345	1097.2
760.528	1029.62
760.712	1005.04
760.895	990.7
761.079	1021.42
761.263	996.85
761.446	996.85
761.63	980.47
761.813	1015.28
761.997	1039.86
762.18	941.55
762.364	1029.62
762.547	900.59
762.731	972.27
762.914	1013.23
763.098	1015.28
763.281	982.51
763.464	1007.09
763.648	902.64
763.831	970.23
764.015	886.26
764.198	923.12
764.381	980.47
764.564	949.75
764.748	861.68
764.931	953.84
765.114	923.12
765.297	955.89
765.481	873.97
765.664	767.48
765.847	886.26
766.03	908.79
766.213	890.35
766.397	861.68
766.58	892.4
766.763	867.83
766.946	833.01
767.129	923.12
767.312	794.1
767.495	841.2
767.678	767.48
767.861	873.97
768.044	869.87
768.227	867.83
768.41	775.67
768.593	771.57
768.776	816.63
768.959	833.01
769.142	884.21
769.324	828.92
769.507	804.34
769.69	812.53
769.873	769.52
770.056	853.49
770.239	802.29
770.421	873.97
770.604	804.34
770.787	703.99
770.97	720.37
771.152	785.91
771.335	751.09
771.518	771.57
771.7	738.8
771.883	869.87
772.066	677.37
772.248	814.58
772.431	771.57
772.613	808.44
772.796	751.09
772.978	742.9
773.161	677.37
773.343	783.86
773.526	732.66
773.708	742.9
773.891	620.02
774.073	691.7
774.256	679.41
774.438	697.85
774.621	683.51
774.803	685.56
774.985	718.33
775.168	792.05
775.35	675.32
775.532	611.83
775.715	574.97
775.897	622.07
776.079	665.08
776.261	706.04
776.444	570.87
776.626	652.79
776.808	677.37
776.99	681.46
777.173	597.49
777.355	660.98
777.537	603.64
777.719	595.45
777.901	527.86
778.083	562.68
778.265	513.53
778.447	534.01
778.629	480.76
778.811	599.54
778.993	546.3
779.175	542.2
779.357	548.34
779.539	486.9
779.721	599.54
779.903	480.76
780.085	572.92
780.267	468.47
780.449	464.38
780.631	534.01
780.812	439.8
780.994	454.14
781.176	499.19
781.358	577.02
781.54	554.49
781.721	488.95
781.903	472.57
782.085	439.8
782.267	482.81
782.448	521.72
782.63	472.57
782.812	499.19
782.993	427.51
783.175	497.14
783.357	384.51
783.538	394.75
783.72	388.6
783.901	394.75
784.083	396.79
784.264	478.71
784.446	482.81
784.627	366.07
784.809	407.03
784.99	456.19
785.172	382.46
785.353	411.13
785.535	439.8
785.716	382.46
785.897	423.42
786.079	415.23
786.26	376.31
786.441	351.74
786.623	390.65
786.804	323.07
786.985	374.27
787.167	392.7
787.348	300.54
787.529	345.59
787.71	521.72
787.891	425.47
788.073	374.27
788.254	292.35
788.435	275.96
788.616	341.5
788.797	316.92
788.978	335.35
789.159	372.22
789.34	267.77
789.522	329.21
789.703	306.68
789.884	407.03
790.065	275.96
790.246	366.07
790.427	321.02
790.607	335.35
790.788	310.78
790.969	292.35
791.15	329.21
791.331	271.87
791.512	255.48
791.693	306.68
791.874	308.73
792.054	345.59
792.235	366.07
792.416	286.2
792.597	292.35
792.778	353.79
792.958	275.96
793.139	351.74
793.32	251.39
793.5	235
793.681	300.54
793.862	284.16
794.042	321.02
794.223	275.96
794.404	286.2
794.584	218.62
794.765	253.44
794.945	292.35
795.126	302.59
795.306	318.97
795.487	230.91
795.667	237.05
795.848	304.64
796.028	230.91
796.209	261.63
796.389	316.92
796.57	198.14
796.75	251.39
796.93	202.24
797.111	261.63
797.291	308.73
797.471	239.1
797.652	214.52
797.832	237.05
798.012	306.68
798.192	222.72
798.373	269.82
798.553	247.29
798.733	202.24
798.913	255.48
799.093	251.39
799.274	224.76
799.454	189.95
799.634	247.29
799.814	245.24
799.994	230.91
800.174	228.86
800.354	245.24
800.534	171.52
800.714	181.76
800.894	155.13
801.074	134.65
801.254	253.44
801.434	259.58
801.614	218.62
801.794	198.14
801.974	790
802.154	249.34
802.334	230.91
802.514	194.05
802.693	235
802.873	179.71
803.053	282.11
803.233	175.61
803.413	243.2
803.592	161.28
803.772	171.52
803.952	144.89
804.131	243.2
804.311	124.41
804.491	239.1
804.67	153.09
804.85	169.47
805.03	194.05
805.209	243.2
805.389	263.68
805.568	142.85
805.748	194.05
805.928	224.76
806.107	116.22
806.287	169.47
806.466	261.63
806.646	181.76
806.825	194.05
807.004	138.75
807.184	161.28
807.363	126.46
807.543	161.28
807.722	146.94
807.901	175.61
808.081	204.28
808.26	175.61
808.439	204.28
808.619	200.19
808.798	97.79
808.977	200.19
809.156	153.09
809.336	161.28
809.515	103.93
809.694	89.6
809.873	124.41
810.052	177.66
810.231	181.76
810.411	189.95
810.59	91.65
810.769	161.28
810.948	161.28
811.127	126.46
811.306	177.66
811.485	91.65
811.664	228.86
811.843	116.22
812.022	132.61
812.201	245.24
812.38	146.94
812.559	97.79
812.737	148.99
812.916	187.9
813.095	122.37
813.274	155.13
813.453	87.55
813.632	134.65
813.811	114.17
813.989	103.93
814.168	142.85
814.347	79.36
814.526	128.51
814.704	124.41
814.883	177.66
815.062	26.11
815.24	169.47
815.419	54.78
815.598	110.08
815.776	50.69
815.955	130.56
816.133	153.09
816.312	165.37
816.49	128.51
816.669	189.95
816.847	108.03
817.026	155.13
817.204	108.03
817.383	120.32
817.561	79.36
817.74	140.8
817.918	126.46
818.097	155.13
818.275	85.5
818.453	132.61
818.632	128.51
818.81	81.41
818.988	77.31
819.167	142.85
819.345	87.55
819.523	62.98
819.701	103.93
819.879	65.02
820.058	110.08
820.236	99.84
820.414	101.89
820.592	136.7
820.77	89.6
820.948	17.92
821.127	65.02
821.305	122.37
821.483	54.78
821.661	161.28
821.839	69.12
822.017	87.55
822.195	79.36
822.373	130.56
822.551	148.99
822.729	40.45
822.907	15.87
823.085	87.55
823.262	114.17
823.44	112.13
823.618	122.37
823.796	99.84
823.974	54.78
824.152	38.4
824.329	114.17
824.507	46.59
824.685	-27.14
824.863	67.07
825.04	163.33
825.218	91.65
825.396	87.55
825.574	71.17
825.751	58.88
825.929	130.56
826.107	103.93
826.284	81.41
826.462	89.6
826.639	19.97
826.817	7.68
826.994	81.41
827.172	58.88
827.349	128.51
827.527	151.04
827.704	112.13
827.882	65.02
828.059	91.65
828.237	46.59
828.414	108.03
828.591	22.02
828.769	73.21
828.946	30.21
829.124	28.16
829.301	89.6
829.478	69.12
829.655	65.02
829.833	128.51
830.01	114.17
830.187	120.32
830.364	58.88
830.542	34.3
830.719	87.55
830.896	48.64
831.073	54.78
831.25	56.83
831.427	81.41
831.604	42.5
831.782	79.36
831.959	50.69
832.136	36.35
832.313	62.98
832.49	22.02
832.667	54.78
832.844	65.02
833.021	136.7
833.198	99.84
833.374	157.18
833.551	136.7
833.728	112.13
833.905	79.36
834.082	40.45
834.259	62.98
834.436	114.17
834.612	32.26
834.789	87.55
834.966	1.54
835.143	132.61
835.319	54.78
835.496	87.55
835.673	9.73
835.85	124.41
836.026	165.37
836.203	128.51
836.38	19.97
836.556	77.31
836.733	46.59
836.909	38.4
837.086	81.41
837.262	77.31
837.439	71.17
837.616	67.07
837.792	44.54
837.968	22.02
838.145	-57.86
838.321	15.87
838.498	79.36
838.674	46.59
838.851	7.68
839.027	83.45
839.203	44.54
839.38	89.6
839.556	71.17
839.732	81.41
839.909	24.06
840.085	48.64
840.261	30.21
840.437	54.78
840.614	56.83
840.79	62.98
840.966	9.73
841.142	169.47
841.318	13.82
841.494	79.36
841.671	71.17
841.847	-16.9
842.023	38.4
842.199	99.84
842.375	120.32
842.551	-16.9
842.727	-2.56
842.903	34.3
843.079	32.26
843.255	89.6
843.431	-10.75
843.607	99.84
843.783	44.54
843.959	-6.66
844.134	50.69
844.31	116.22
844.486	22.02
844.662	52.74
844.838	-0.51
845.013	40.45
845.189	114.17
845.365	65.02
845.541	67.07
845.716	130.56
845.892	56.83
846.068	-8.7
846.244	7.68
846.419	-10.75
846.595	-64
846.77	38.4
846.946	24.06
847.122	38.4
847.297	38.4
847.473	73.21
847.648	32.26
847.824	30.21
847.999	-29.18
848.175	40.45
848.35	79.36
848.526	22.02
848.701	26.11
848.876	46.59
849.052	62.98
849.227	114.17
849.403	7.68
849.578	-10.75
849.753	11.78
849.929	50.69
850.104	65.02
850.279	22.02
850.454	99.84
850.63	65.02
850.805	46.59
850.98	-14.85
851.155	67.07
851.33	32.26
851.505	5.63
851.681	103.93
851.856	105.98
852.031	87.55
852.206	-8.7
852.381	38.4
852.556	17.92
852.731	15.87
852.906	-74.24
853.081	-16.9
853.256	9.73
853.431	9.73
853.606	62.98
853.781	-72.19
853.956	-16.9
854.131	34.3
854.305	-51.71
854.48	-23.04
854.655	56.83
854.83	7.68
855.005	-16.9
855.18	22.02
855.354	-31.23
855.529	-16.9
855.704	-10.75
855.879	34.3
856.053	13.82
856.228	-25.09
856.403	-27.14
856.577	83.45
856.752	15.87
856.926	-23.04
857.101	3.58
857.276	5.63
857.45	5.63
857.625	38.4
857.799	5.63
857.974	32.26
858.148	46.59
858.323	30.21
858.497	-41.47
858.672	71.17
858.846	73.21
859.02	71.17
859.195	-2.56
859.369	17.92
859.543	7.68
859.718	7.68
859.892	11.78
860.066	-25.09
860.241	15.87
860.415	38.4
860.589	58.88
860.763	73.21
860.938	42.5
861.112	65.02
861.286	-12.8
861.46	34.3
861.634	-14.85
861.808	71.17
861.982	60.93
862.157	34.3
862.331	-66.05
862.505	32.26
862.679	26.11
862.853	38.4
863.027	26.11
863.201	24.06
863.375	-2.56
863.549	79.36
863.722	56.83
863.896	-4.61
864.07	17.92
864.244	52.74
864.418	77.31
864.592	-25.09
864.766	50.69
864.939	38.4
865.113	-10.75
865.287	77.31
865.461	-35.33
865.634	-10.75
865.808	13.82
865.982	9.73
866.156	30.21
866.329	-27.14
866.503	-25.09
866.676	7.68
866.85	30.21
867.024	-10.75
867.197	-33.28
867.371	62.98
867.544	34.3
867.718	73.21
867.891	36.35
868.065	48.64
868.238	34.3
868.412	44.54
868.585	52.74
868.759	-70.14
868.932	-51.71
869.105	87.55
869.279	-6.66
869.452	24.06
869.625	50.69
869.799	32.26
869.972	-18.94
870.145	1.54
870.319	17.92
870.492	24.06
870.665	17.92
870.838	-2.56
871.011	22.02
871.185	-16.9
871.358	-37.38
871.531	-8.7
871.704	-43.52
871.877	50.69
872.05	-31.23
872.223	60.93
872.396	-0.51
872.569	50.69
872.742	7.68
872.915	34.3
873.088	-12.8
873.261	-51.71
873.434	26.11
873.607	28.16
873.78	-27.14
873.953	79.36
874.126	-37.38
874.299	-16.9
874.471	-72.19
874.644	79.36
874.817	5.63
874.99	54.78
875.163	28.16
875.335	77.31
875.508	13.82
875.681	60.93
875.853	54.78
876.026	-23.04
876.199	26.11
876.371	5.63
876.544	11.78
876.717	5.63
876.889	32.26
877.062	22.02
877.234	26.11
877.407	-41.47
877.579	-25.09
877.752	40.45
877.924	-18.94
878.097	32.26
878.269	-45.57
878.442	30.21
878.614	5.63
878.786	1.54
878.959	42.5
879.131	65.02
879.303	-115.2
879.476	-25.09
879.648	36.35
879.82	9.73
879.993	1.54
880.165	-18.94
880.337	-10.75
880.509	-18.94
880.681	7.68
880.854	1.54
881.026	120.32
881.198	105.98
881.37	-18.94
881.542	40.45
881.714	89.6
881.886	42.5
882.058	15.87
882.23	-18.94
882.402	11.78
882.574	-2.56
882.746	44.54
882.918	112.13
883.09	30.21
883.262	54.78
883.434	24.06
883.606	17.92
883.778	-4.61
883.95	77.31
884.122	-12.8
884.293	-10.75
884.465	-33.28
884.637	-0.51
884.809	-23.04
884.98	-23.04
885.152	-8.7
885.324	99.84
885.496	-27.14
885.667	-6.66
885.839	-10.75
886.011	-0.51
886.182	-18.94
886.354	46.59
886.525	71.17
886.697	13.82
886.869	-18.94
887.04	-18.94
887.212	1.54
887.383	30.21
887.555	-8.7
887.726	22.02
887.897	-57.86
888.069	67.07
888.24	48.64
888.412	-23.04
888.583	-8.7
888.754	13.82
888.926	26.11
889.097	34.3
889.268	-72.19
889.44	7.68
889.611	-45.57
889.782	-47.62
889.953	-23.04
890.125	11.78
890.296	-16.9
890.467	36.35
890.638	-51.71
890.809	46.59
890.98	-123.39
891.151	-8.7
891.323	17.92
891.494	-27.14
891.665	36.35
891.836	73.21
892.007	-35.33
892.178	13.82
892.349	56.83
892.52	-6.66
892.691	-47.62
892.862	-68.09
893.032	17.92
893.203	62.98
893.374	52.74
893.545	46.59
893.716	-45.57
893.887	-25.09
894.057	-109.05
894.228	-25.09
894.399	-107.01
894.57	46.59
894.74	-16.9
894.911	-43.52
895.082	-8.7
895.253	-82.43
895.423	-0.51
895.594	36.35
895.764	42.5
895.935	-37.38
896.106	22.02
896.276	-55.81
896.447	26.11
896.617	-33.28
896.788	54.78
896.958	46.59
897.129	17.92
897.299	17.92
897.47	-16.9
897.64	-80.38
897.81	-68.09
897.981	-47.62
898.151	-82.43
898.322	-41.47
898.492	54.78
898.662	112.13
898.832	-39.42
899.003	-29.18
899.173	30.21
899.343	22.02
899.513	-74.24
