Data from USB4F104151__144__14-19-19-351.txt Node

Date: Thu Mar 13 14:19:19 EDT 2025
User: louis
Spectrometer: USB4F10415
Trigger mode: 4
Integration Time (sec): 2.000000E-2
Scans to average: 1
Electric dark correction enabled: true
Nonlinearity correction enabled: false
Boxcar width: 0
XAxis mode: Wavelengths
Number of Pixels in Spectrum: 3648
>>>>>Begin Spectral Data<<<<<
178.204	-110.76
178.424	-110.76
178.644	-110.76
178.864	-133.29
179.084	-110.76
179.304	14.17
179.524	-18.6
179.744	-20.65
179.964	42.84
180.184	16.21
180.404	-65.71
180.624	-14.51
180.844	28.5
181.064	3.93
181.283	-16.55
181.503	28.5
181.723	1.88
181.943	-57.51
182.163	94.04
182.383	38.74
182.602	34.64
182.822	32.6
183.042	-41.13
183.262	-20.65
183.482	122.71
183.701	53.08
183.921	28.5
184.141	48.98
184.361	69.46
184.58	79.7
184.8	38.74
185.02	20.31
185.239	28.5
185.459	-20.65
185.679	12.12
185.898	-4.27
186.118	87.89
186.338	61.27
186.557	3.93
186.777	-26.79
186.997	-2.22
187.216	20.31
187.436	57.17
187.655	16.21
187.875	28.5
188.095	38.74
188.314	3.93
188.534	77.65
188.753	-18.6
188.973	61.27
189.192	-4.27
189.412	28.5
189.631	61.27
189.851	16.21
190.07	71.51
190.29	5.97
190.509	38.74
190.729	44.88
190.948	12.12
191.168	171.86
191.387	85.84
191.607	28.5
191.826	5.97
192.045	-10.41
192.265	3.93
192.484	44.88
192.704	48.98
192.923	32.6
193.142	59.22
193.362	40.79
193.581	-4.27
193.8	-8.36
194.02	118.61
194.239	10.07
194.458	-59.56
194.678	-53.42
194.897	40.79
195.116	87.89
195.335	-18.6
195.555	8.02
195.774	-37.03
195.993	79.7
196.212	-53.42
196.432	-16.55
196.651	28.5
196.87	12.12
197.089	55.12
197.308	-2.22
197.528	75.6
197.747	-55.47
197.966	61.27
198.185	42.84
198.404	-16.55
198.623	79.7
198.842	8.02
199.062	28.5
199.281	44.88
199.5	1.88
199.719	73.56
199.938	59.22
200.157	126.8
200.376	57.17
200.595	53.08
200.814	8.02
201.033	42.84
201.252	69.46
201.471	112.47
201.69	63.32
201.909	77.65
202.128	61.27
202.347	67.41
202.566	24.4
202.785	20.31
203.004	-94.38
203.223	53.08
203.442	-37.03
203.661	5.97
203.879	-2.22
204.098	89.94
204.317	-4.27
204.536	40.79
204.755	81.75
204.974	5.97
205.193	36.69
205.411	79.7
205.63	53.08
205.849	69.46
206.068	44.88
206.287	14.17
206.505	112.47
206.724	-4.27
206.943	-8.36
207.162	14.17
207.381	73.56
207.599	42.84
207.818	104.28
208.037	40.79
208.255	20.31
208.474	81.75
208.693	-8.36
208.911	-4.27
209.13	22.36
209.349	85.84
209.567	40.79
209.786	3.93
210.005	48.98
210.223	-12.46
210.442	-16.55
210.661	63.32
210.879	73.56
211.098	40.79
211.316	26.45
211.535	69.46
211.753	38.74
211.972	-24.75
212.191	-16.55
212.409	30.55
212.628	40.79
212.846	-12.46
213.065	61.27
213.283	81.75
213.502	-45.23
213.72	32.6
213.938	-14.51
214.157	77.65
214.375	36.69
214.594	94.04
214.812	12.12
215.031	40.79
215.249	53.08
215.467	-32.94
215.686	8.02
215.904	81.75
216.122	71.51
216.341	32.6
216.559	3.93
216.778	-20.65
216.996	-65.71
217.214	61.27
217.432	44.88
217.651	94.04
217.869	38.74
218.087	44.88
218.306	38.74
218.524	71.51
218.742	40.79
218.96	110.42
219.179	32.6
219.397	48.98
219.615	100.18
219.833	89.94
220.051	38.74
220.27	63.32
220.488	-2.22
220.706	55.12
220.924	48.98
221.142	3.93
221.36	53.08
221.578	53.08
221.796	-20.65
222.015	87.89
222.233	-20.65
222.451	122.71
222.669	30.55
222.887	-12.46
223.105	143.19
223.323	-37.03
223.541	-12.46
223.759	26.45
223.977	-4.27
224.195	106.32
224.413	69.46
224.631	26.45
224.849	22.36
225.067	112.47
225.285	85.84
225.503	71.51
225.721	-12.46
225.939	53.08
226.157	65.36
226.375	77.65
226.592	-6.31
226.81	61.27
227.028	73.56
227.246	71.51
227.464	91.99
227.682	-30.89
227.9	69.46
228.117	65.36
228.335	44.88
228.553	100.18
228.771	51.03
228.989	57.17
229.206	61.27
229.424	46.93
229.642	59.22
229.86	-16.55
230.077	71.51
230.295	55.12
230.513	-2.22
230.731	20.31
230.948	46.93
231.166	46.93
231.384	12.12
231.601	26.45
231.819	5.97
232.037	126.8
232.254	44.88
232.472	-20.65
232.689	-10.41
232.907	53.08
233.125	-20.65
233.342	-2.22
233.56	-26.79
233.777	20.31
233.995	36.69
234.213	16.21
234.43	-18.6
234.648	20.31
234.865	48.98
235.083	36.69
235.3	-45.23
235.518	-12.46
235.735	65.36
235.953	96.08
236.17	14.17
236.388	28.5
236.605	55.12
236.822	122.71
237.04	3.93
237.257	38.74
237.475	8.02
237.692	48.98
237.909	-6.31
238.127	-10.41
238.344	96.08
238.562	44.88
238.779	26.45
238.996	-24.75
239.214	46.93
239.431	44.88
239.648	-30.89
239.865	26.45
240.083	22.36
240.3	71.51
240.517	12.12
240.735	85.84
240.952	20.31
241.169	75.6
241.386	77.65
241.603	44.88
241.821	-18.6
242.038	69.46
242.255	5.97
242.472	44.88
242.689	-4.27
242.907	65.36
243.124	-8.36
243.341	24.4
243.558	34.64
243.775	10.07
243.992	-4.27
244.209	91.99
244.426	69.46
244.643	44.88
244.86	32.6
245.078	69.46
245.295	-0.17
245.512	-10.41
245.729	12.12
245.946	30.55
246.163	1.88
246.38	12.12
246.597	-37.03
246.814	48.98
247.031	-47.27
247.248	30.55
247.464	-16.55
247.681	36.69
247.898	71.51
248.115	61.27
248.332	3.93
248.549	71.51
248.766	79.7
248.983	65.36
249.2	-20.65
249.417	3.93
249.633	69.46
249.85	112.47
250.067	34.64
250.284	32.6
250.501	18.26
250.717	69.46
250.934	-4.27
251.151	-41.13
251.368	79.7
251.585	28.5
251.801	-4.27
252.018	28.5
252.235	3.93
252.451	51.03
252.668	-8.36
252.885	124.76
253.102	59.22
253.318	126.8
253.535	12.12
253.752	-47.27
253.968	-61.61
254.185	-12.46
254.401	69.46
254.618	96.08
254.835	44.88
255.051	85.84
255.268	28.5
255.484	-4.27
255.701	20.31
255.917	20.31
256.134	-16.55
256.351	32.6
256.567	-4.27
256.784	26.45
257	-8.36
257.217	94.04
257.433	57.17
257.65	-32.94
257.866	67.41
258.082	55.12
258.299	-2.22
258.515	-51.37
258.732	81.75
258.948	-4.27
259.165	32.6
259.381	-51.37
259.597	22.36
259.814	30.55
260.03	42.84
260.246	71.51
260.463	-4.27
260.679	71.51
260.895	81.75
261.112	67.41
261.328	106.32
261.544	40.79
261.761	143.19
261.977	-2.22
262.193	-43.18
262.409	106.32
262.626	36.69
262.842	-4.27
263.058	-0.17
263.274	94.04
263.49	61.27
263.707	36.69
263.923	24.4
264.139	-12.46
264.355	32.6
264.571	-4.27
264.787	69.46
265.004	87.89
265.22	63.32
265.436	61.27
265.652	5.97
265.868	81.75
266.084	10.07
266.3	3.93
266.516	-4.27
266.732	57.17
266.948	1.88
267.164	110.42
267.38	85.84
267.596	73.56
267.812	73.56
268.028	57.17
268.244	81.75
268.46	143.19
268.676	10.07
268.892	100.18
269.108	-4.27
269.324	53.08
269.54	24.4
269.756	28.5
269.972	44.88
270.188	69.46
270.403	26.45
270.619	104.28
270.835	40.79
271.051	38.74
271.267	-10.41
271.483	-16.55
271.698	-0.17
271.914	28.5
272.13	63.32
272.346	3.93
272.562	-37.03
272.777	79.7
272.993	5.97
273.209	3.93
273.425	77.65
273.64	59.22
273.856	8.02
274.072	20.31
274.287	-6.31
274.503	104.28
274.719	30.55
274.934	28.5
275.15	30.55
275.366	-12.46
275.581	26.45
275.797	44.88
276.012	16.21
276.228	14.17
276.444	-26.79
276.659	122.71
276.875	-10.41
277.09	14.17
277.306	77.65
277.521	63.32
277.737	55.12
277.952	5.97
278.168	-12.46
278.383	20.31
278.599	46.93
278.814	81.75
279.03	40.79
279.245	114.52
279.461	16.21
279.676	36.69
279.892	22.36
280.107	48.98
280.322	-61.61
280.538	94.04
280.753	-0.17
280.969	87.89
281.184	-18.6
281.399	40.79
281.615	20.31
281.83	3.93
282.045	114.52
282.26	-10.41
282.476	20.31
282.691	-39.08
282.906	10.07
283.122	118.61
283.337	28.5
283.552	89.94
283.767	-22.7
283.983	14.17
284.198	48.98
284.413	5.97
284.628	55.12
284.843	-2.22
285.058	94.04
285.274	-45.23
285.489	61.27
285.704	12.12
285.919	69.46
286.134	71.51
286.349	-0.17
286.564	20.31
286.779	22.36
286.995	53.08
287.21	28.5
287.425	63.32
287.64	1.88
287.855	-8.36
288.07	-4.27
288.285	63.32
288.5	12.12
288.715	40.79
288.93	-20.65
289.145	57.17
289.36	36.69
289.575	36.69
289.79	85.84
290.004	-34.99
290.219	79.7
290.434	-69.8
290.649	1.88
290.864	96.08
291.079	20.31
291.294	57.17
291.509	32.6
291.724	65.36
291.938	14.17
292.153	98.13
292.368	12.12
292.583	77.65
292.798	22.36
293.012	36.69
293.227	12.12
293.442	30.55
293.657	65.36
293.871	-32.94
294.086	44.88
294.301	36.69
294.516	20.31
294.73	32.6
294.945	-34.99
295.16	32.6
295.374	122.71
295.589	30.55
295.804	24.4
296.018	-2.22
296.233	87.89
296.447	91.99
296.662	-20.65
296.877	71.51
297.091	40.79
297.306	-6.31
297.52	-53.42
297.735	-47.27
297.949	14.17
298.164	85.84
298.378	69.46
298.593	51.03
298.807	20.31
299.022	16.21
299.236	-2.22
299.451	89.94
299.665	32.6
299.88	85.84
300.094	48.98
300.309	61.27
300.523	-41.13
300.737	69.46
300.952	-6.31
301.166	22.36
301.381	34.64
301.595	57.17
301.809	-12.46
302.024	24.4
302.238	-2.22
302.452	20.31
302.667	30.55
302.881	-30.89
303.095	-16.55
303.309	104.28
303.524	24.4
303.738	5.97
303.952	3.93
304.166	3.93
304.381	3.93
304.595	34.64
304.809	57.17
305.023	28.5
305.237	30.55
305.452	38.74
305.666	32.6
305.88	65.36
306.094	24.4
306.308	-59.56
306.522	-12.46
306.736	81.75
306.95	75.6
307.164	48.98
307.379	3.93
307.593	65.36
307.807	42.84
308.021	28.5
308.235	36.69
308.449	-10.41
308.663	28.5
308.877	46.93
309.091	12.12
309.305	24.4
309.519	-4.27
309.733	22.36
309.947	3.93
310.161	53.08
310.374	24.4
310.588	40.79
310.802	-34.99
311.016	53.08
311.23	63.32
311.444	65.36
311.658	32.6
311.872	36.69
312.085	81.75
312.299	61.27
312.513	100.18
312.727	-28.84
312.941	30.55
313.154	59.22
313.368	55.12
313.582	20.31
313.796	-12.46
314.009	-2.22
314.223	79.7
314.437	-28.84
314.651	12.12
314.864	36.69
315.078	61.27
315.292	22.36
315.505	-2.22
315.719	12.12
315.933	94.04
316.146	48.98
316.36	-14.51
316.573	79.7
316.787	32.6
317.001	-4.27
317.214	48.98
317.428	69.46
317.641	12.12
317.855	48.98
318.068	61.27
318.282	-2.22
318.495	24.4
318.709	44.88
318.922	77.65
319.136	12.12
319.349	46.93
319.563	-4.27
319.776	85.84
319.99	30.55
320.203	30.55
320.417	57.17
320.63	48.98
320.843	85.84
321.057	28.5
321.27	20.31
321.483	87.89
321.697	77.65
321.91	5.97
322.124	-28.84
322.337	26.45
322.55	46.93
322.763	59.22
322.977	40.79
323.19	36.69
323.403	85.84
323.617	102.23
323.83	55.12
324.043	55.12
324.256	32.6
324.469	40.79
324.683	69.46
324.896	28.5
325.109	53.08
325.322	-57.51
325.535	65.36
325.748	87.89
325.962	55.12
326.175	44.88
326.388	38.74
326.601	61.27
326.814	32.6
327.027	120.66
327.24	69.46
327.453	30.55
327.666	38.74
327.879	106.32
328.092	12.12
328.305	91.99
328.518	-2.22
328.731	30.55
328.944	-10.41
329.157	51.03
329.37	77.65
329.583	63.32
329.796	145.24
330.009	-53.42
330.222	126.8
330.435	69.46
330.648	48.98
330.861	63.32
331.073	12.12
331.286	89.94
331.499	16.21
331.712	28.5
331.925	10.07
332.138	67.41
332.35	65.36
332.563	-12.46
332.776	32.6
332.989	-53.42
333.202	110.42
333.414	8.02
333.627	20.31
333.84	-73.9
334.053	32.6
334.265	-2.22
334.478	79.7
334.691	12.12
334.903	114.52
335.116	85.84
335.329	71.51
335.541	55.12
335.754	46.93
335.966	44.88
336.179	48.98
336.392	77.65
336.604	-20.65
336.817	28.5
337.029	94.04
337.242	-4.27
337.454	38.74
337.667	5.97
337.88	61.27
338.092	28.5
338.305	18.26
338.517	44.88
338.729	-0.17
338.942	55.12
339.154	36.69
339.367	3.93
339.579	-12.46
339.792	24.4
340.004	46.93
340.217	69.46
340.429	46.93
340.641	-18.6
340.854	5.97
341.066	126.8
341.278	20.31
341.491	102.23
341.703	112.47
341.915	-24.75
342.128	57.17
342.34	5.97
342.552	-37.03
342.764	32.6
342.977	-22.7
343.189	63.32
343.401	20.31
343.613	26.45
343.826	55.12
344.038	40.79
344.25	81.75
344.462	3.93
344.674	20.31
344.886	34.64
345.099	135
345.311	53.08
345.523	34.64
345.735	-18.6
345.947	96.08
346.159	12.12
346.371	38.74
346.583	85.84
346.795	108.37
347.007	32.6
347.219	55.12
347.431	71.51
347.643	85.84
347.855	16.21
348.067	85.84
348.279	63.32
348.491	-12.46
348.703	-12.46
348.915	1.88
349.127	36.69
349.339	30.55
349.551	28.5
349.763	73.56
349.975	51.03
350.187	87.89
350.399	122.71
350.61	61.27
350.822	12.12
351.034	38.74
351.246	28.5
351.458	-16.55
351.669	89.94
351.881	77.65
352.093	102.23
352.305	159.57
352.517	102.23
352.728	135
352.94	38.74
353.152	5.97
353.363	3.93
353.575	69.46
353.787	81.75
353.999	85.84
354.21	163.67
354.422	40.79
354.633	-4.27
354.845	89.94
355.057	57.17
355.268	77.65
355.48	53.08
355.692	73.56
355.903	28.5
356.115	-0.17
356.326	12.12
356.538	87.89
356.749	-20.65
356.961	63.32
357.172	65.36
357.384	73.56
357.595	38.74
357.807	-59.56
358.018	61.27
358.23	51.03
358.441	53.08
358.653	63.32
358.864	34.64
359.075	77.65
359.287	65.36
359.498	67.41
359.709	55.12
359.921	61.27
360.132	63.32
360.344	89.94
360.555	20.31
360.766	83.8
360.977	18.26
361.189	-2.22
361.4	-45.23
361.611	53.08
361.823	28.5
362.034	10.07
362.245	-69.8
362.456	63.32
362.667	26.45
362.879	22.36
363.09	-0.17
363.301	55.12
363.512	51.03
363.723	55.12
363.935	-2.22
364.146	14.17
364.357	61.27
364.568	63.32
364.779	-16.55
364.99	53.08
365.201	-12.46
365.412	36.69
365.623	8.02
365.834	94.04
366.045	77.65
366.256	53.08
366.467	-18.6
366.678	28.5
366.889	85.84
367.1	28.5
367.311	61.27
367.522	-28.84
367.733	81.75
367.944	75.6
368.155	75.6
368.366	104.28
368.577	94.04
368.788	59.22
368.999	63.32
369.209	12.12
369.42	1.88
369.631	77.65
369.842	77.65
370.053	48.98
370.264	20.31
370.474	-51.37
370.685	55.12
370.896	22.36
371.107	118.61
371.317	98.13
371.528	20.31
371.739	40.79
371.95	51.03
372.16	96.08
372.371	44.88
372.582	-26.79
372.792	71.51
373.003	65.36
373.214	-8.36
373.424	-37.03
373.635	18.26
373.846	36.69
374.056	-20.65
374.267	122.71
374.477	67.41
374.688	36.69
374.898	28.5
375.109	114.52
375.319	108.37
375.53	128.85
375.74	73.56
375.951	16.21
376.161	63.32
376.372	59.22
376.582	18.26
376.793	30.55
377.003	36.69
377.214	18.26
377.424	44.88
377.635	-26.79
377.845	22.36
378.055	77.65
378.266	-6.31
378.476	85.84
378.686	36.69
378.897	48.98
379.107	44.88
379.317	85.84
379.528	65.36
379.738	38.74
379.948	53.08
380.158	73.56
380.369	42.84
380.579	55.12
380.789	44.88
380.999	16.21
381.21	26.45
381.42	16.21
381.63	-16.55
381.84	75.6
382.05	61.27
382.261	16.21
382.471	65.36
382.681	79.7
382.891	98.13
383.101	48.98
383.311	-55.47
383.521	12.12
383.731	67.41
383.941	3.93
384.151	98.13
384.361	57.17
384.571	46.93
384.781	85.84
384.991	69.46
385.201	24.4
385.411	91.99
385.621	77.65
385.831	44.88
386.041	-4.27
386.251	44.88
386.461	114.52
386.671	55.12
386.881	30.55
387.091	89.94
387.301	3.93
387.511	-32.94
387.72	122.71
387.93	130.9
388.14	3.93
388.35	1.88
388.56	61.27
388.769	57.17
388.979	94.04
389.189	81.75
389.399	40.79
389.609	-30.89
389.818	132.95
390.028	112.47
390.238	65.36
390.447	75.6
390.657	30.55
390.867	40.79
391.076	69.46
391.286	40.79
391.496	147.28
391.705	51.03
391.915	79.7
392.125	118.61
392.334	3.93
392.544	10.07
392.753	22.36
392.963	73.56
393.172	63.32
393.382	20.31
393.591	94.04
393.801	32.6
394.01	96.08
394.22	24.4
394.429	22.36
394.639	59.22
394.848	120.66
395.058	3.93
395.267	104.28
395.477	110.42
395.686	-28.84
395.895	130.9
396.105	85.84
396.314	110.42
396.524	83.8
396.733	112.47
396.942	77.65
397.152	46.93
397.361	135
397.57	110.42
397.78	36.69
397.989	75.6
398.198	169.81
398.407	32.6
398.617	36.69
398.826	126.8
399.035	77.65
399.244	151.38
399.453	28.5
399.663	53.08
399.872	87.89
400.081	38.74
400.29	130.9
400.499	89.94
400.708	175.95
400.917	98.13
401.127	77.65
401.336	75.6
401.545	122.71
401.754	106.32
401.963	71.51
402.172	55.12
402.381	110.42
402.59	114.52
402.799	110.42
403.008	157.52
403.217	135
403.426	104.28
403.635	40.79
403.844	163.67
404.053	122.71
404.262	48.98
404.471	184.15
404.68	153.43
404.888	161.62
405.097	135
405.306	100.18
405.515	53.08
405.724	139.09
405.933	102.23
406.142	159.57
406.35	190.29
406.559	143.19
406.768	104.28
406.977	208.72
407.185	171.86
407.394	255.83
407.603	155.47
407.812	137.04
408.02	114.52
408.229	212.82
408.438	192.34
408.646	173.91
408.855	192.34
409.064	190.29
409.272	171.86
409.481	241.49
409.69	198.48
409.898	210.77
410.107	225.11
410.315	290.64
410.524	227.15
410.733	290.64
410.941	266.07
411.15	216.91
411.358	309.07
411.567	388.94
411.775	292.69
411.984	358.22
412.192	345.94
412.401	323.41
412.609	421.71
412.818	374.61
413.026	388.94
413.234	417.61
413.443	376.66
413.651	382.8
413.86	386.9
414.068	511.82
414.276	495.44
414.485	446.29
414.693	481.1
414.901	548.68
415.11	548.68
415.318	536.4
415.526	540.49
415.734	569.16
415.943	626.51
416.151	679.75
416.359	634.7
416.567	642.89
416.776	687.95
416.984	716.62
417.192	823.11
417.4	730.95
417.608	776.01
417.817	712.52
418.025	880.46
418.233	929.61
418.441	909.13
418.649	917.32
418.857	913.22
419.065	1005.38
419.273	896.84
419.481	962.37
419.689	1044.29
419.897	1072.96
420.105	1122.12
420.313	1070.92
420.521	1161.03
420.729	1259.33
420.937	1369.92
421.145	1345.34
421.353	1410.88
421.561	1511.23
421.769	1437.5
421.977	1556.29
422.185	1427.26
422.393	1683.26
422.601	1771.32
422.809	1646.4
423.017	1701.69
423.224	1832.76
423.432	1769.27
423.64	1863.48
423.848	2115.38
424.056	1896.25
424.263	1992.5
424.471	2185.01
424.679	2291.51
424.887	2248.5
425.094	2385.71
425.302	2426.67
425.51	2477.87
425.718	2463.54
425.925	2559.79
426.133	2508.59
426.341	2731.82
426.548	2907.94
426.756	2856.75
426.964	2922.28
427.171	3077.93
427.379	3125.03
427.586	3284.77
427.794	3278.63
428.001	3477.28
428.209	3616.54
428.417	3485.47
428.624	3897.11
428.832	3911.45
429.039	3723.04
429.247	3800.86
429.454	4259.6
429.662	4464.4
429.869	4161.3
430.076	4529.94
430.284	4300.56
430.491	4462.35
430.699	4738.83
430.906	4857.61
431.114	4849.42
431.321	5025.54
431.528	5023.5
431.736	5517.06
431.943	5773.05
432.15	5435.14
432.358	5512.96
432.565	5877.5
432.772	5848.83
432.979	6129.4
433.187	6123.26
433.394	6577.9
433.601	6629.1
433.808	6817.52
434.016	6827.76
434.223	7071.47
434.43	7368.42
434.637	7227.11
434.844	7595.75
435.052	7972.57
435.259	7755.49
435.466	7692
435.673	7675.62
435.88	8113.88
436.087	8728.27
436.294	8797.9
436.501	8459.99
436.708	8656.59
436.915	9023.18
437.122	9463.49
437.329	9402.05
437.537	9684.67
437.743	9762.5
437.95	9713.35
438.157	10211
438.364	10450.61
438.571	10532.53
438.778	10579.64
438.985	11654.82
439.192	10983.09
439.399	11267.75
439.606	11173.55
439.813	11939.49
440.02	12453.53
440.227	12394.14
440.433	12056.22
440.64	12471.96
440.847	12504.73
441.054	12750.48
441.261	13694.6
441.467	13514.38
441.674	13903.49
441.881	14470.78
442.088	14143.1
442.294	14096
442.501	14696.05
442.708	14659.19
442.914	15232.62
443.121	16021.09
443.328	15511.14
443.534	16512.6
443.741	16109.15
443.948	15812.2
444.154	16744.02
444.361	17045.07
444.568	17045.07
444.774	17163.86
444.981	17073.74
445.187	18040.39
445.394	18744.89
445.6	18167.36
445.807	20237.86
446.013	18923.06
446.22	19555.88
446.426	20442.65
446.633	20395.55
446.839	21098
447.046	20205.09
447.252	21394.96
447.459	21276.18
447.665	21425.68
447.871	22148.61
448.078	23215.6
448.284	21939.72
448.491	22242.82
448.697	23629.29
448.903	24042.98
449.11	24311.27
449.316	23383.54
449.522	24268.26
449.728	24856.03
449.935	25097.69
450.141	24978.9
450.347	25576.91
450.553	24712.67
450.76	25179.61
450.966	25943.5
451.172	25380.31
451.378	26072.52
451.584	25886.15
451.791	26119.62
451.997	26531.26
452.203	26707.39
452.409	26893.75
452.615	26680.77
452.821	25662.93
453.027	25466.32
453.233	26604.99
453.44	25765.32
453.646	26183.11
453.852	26305.99
454.058	26535.36
454.264	25822.67
454.47	26445.25
454.676	25882.06
454.882	26764.73
455.088	24249.83
455.294	24823.26
455.5	25277.91
455.705	25826.76
455.911	24460.77
456.117	24112.61
456.323	23737.84
456.529	22504.96
456.735	23201.27
456.941	22785.53
457.147	22558.21
457.352	21677.58
457.558	21601.8
457.764	21485.07
457.97	21495.31
458.176	20551.2
458.381	20950.55
458.587	19983.91
458.793	20059.68
458.999	18720.31
459.204	20260.38
459.41	19557.93
459.616	18140.74
459.821	18284.09
460.027	18495.04
460.233	17747.53
460.438	16709.21
460.644	17215.05
460.85	16383.58
461.055	16062.05
461.261	16166.49
461.466	14814.84
461.672	14536.31
461.878	15494.76
462.083	14632.57
462.289	14136.96
462.494	14233.21
462.7	13573.77
462.905	13190.8
463.111	13592.2
463.316	13772.42
463.522	13416.07
463.727	13377.16
463.932	13053.58
464.138	13188.75
464.343	13026.96
464.549	12629.65
464.754	13022.86
464.959	12990.1
465.165	12930.7
465.37	12359.32
465.575	12134.04
465.781	12478.1
465.986	12848.79
466.191	12175
466.397	11916.96
466.602	11345.58
466.807	11921.06
467.012	11746.98
467.218	11673.25
467.423	11814.56
467.628	11783.84
467.833	11959.97
468.038	11570.85
468.244	11380.39
468.449	11953.82
468.654	11368.1
468.859	11394.73
469.064	11454.12
469.269	10831.54
469.474	10804.91
469.679	11122.35
469.885	10952.37
470.09	10933.93
470.295	10884.78
470.5	10706.61
470.705	10796.72
470.91	10464.95
471.115	10251.96
471.32	10374.84
471.525	10559.16
471.73	10194.62
471.935	10014.4
472.139	9836.22
472.344	9737.92
472.549	9965.25
472.754	9973.44
472.959	9576.13
473.164	9144.01
473.369	9299.66
473.574	9526.98
473.778	9469.64
473.983	9367.24
474.188	9330.37
474.393	8857.29
474.598	9088.71
474.802	8990.41
475.007	8752.85
475.212	9037.52
475.417	8486.61
475.621	8486.61
475.826	8662.74
476.031	8296.15
476.235	8179.42
476.44	8416.98
476.645	8058.59
476.849	8285.91
477.054	8255.19
477.259	8046.3
477.463	8023.77
477.668	7837.41
477.872	7851.74
478.077	7687.9
478.282	7491.3
478.486	7202.54
478.691	7651.04
478.895	7497.44
479.1	7393
479.304	7296.74
479.509	7128.81
479.713	7311.08
479.918	7229.16
480.122	7151.34
480.326	7227.11
480.531	7137
480.735	7083.75
480.94	6889.2
481.144	7204.58
481.348	6946.54
481.553	7007.98
481.757	6723.31
481.961	7020.27
482.166	6983.4
482.37	6833.9
482.574	6674.16
482.778	6842.09
482.983	6995.69
483.187	7057.13
483.391	6870.76
483.595	6862.57
483.8	6686.45
484.004	6809.33
484.208	6901.48
484.412	6706.93
484.616	6788.85
484.821	6741.74
485.025	6493.94
485.229	6729.45
485.433	6729.45
485.637	6758.13
485.841	6788.85
486.045	6604.53
486.249	6764.27
486.453	6805.23
486.657	6665.97
486.861	6809.33
487.065	6661.87
487.269	6661.87
487.473	6760.17
487.677	6921.96
487.881	6821.61
488.085	6809.33
488.289	6659.82
488.493	6803.18
488.697	6928.11
488.901	6813.42
489.105	6825.71
489.309	6840.04
489.512	6905.58
489.716	6905.58
489.92	7053.03
490.124	6803.18
490.328	7055.08
490.531	6870.76
490.735	6946.54
490.939	7016.17
491.143	6969.07
491.346	6909.68
491.55	7141.1
491.754	6950.64
491.958	7073.51
492.161	7218.92
492.365	7034.6
492.569	7190.25
492.772	7214.82
492.976	7194.34
493.18	7374.56
493.383	7577.31
493.587	7397.09
493.79	7403.24
493.994	7339.75
494.197	7315.17
494.401	7638.75
494.605	7386.85
494.808	7622.37
495.012	7614.18
495.215	7663.33
495.419	7763.68
495.622	7687.9
495.825	7700.19
496.029	7857.89
496.232	7945.95
496.436	7995.1
496.639	8134.36
496.843	8056.54
497.046	8179.42
497.249	8455.89
497.453	8441.56
497.656	8503
497.859	8548.05
498.063	8580.82
498.266	8740.56
498.469	8802
498.673	8629.97
498.876	8842.96
499.079	9002.7
499.282	8992.46
499.485	9105.1
499.689	9195.21
499.892	9465.54
500.095	9486.02
500.298	9670.34
500.501	9617.09
500.705	10014.4
500.908	9850.56
501.111	10018.49
501.314	9950.91
501.517	10225.34
501.72	10170.04
501.923	10237.63
502.126	10415.8
502.329	10677.94
502.532	10819.25
502.735	10751.67
502.938	10962.61
503.141	10944.17
503.344	11222.7
503.547	11095.72
503.75	11296.42
503.953	11572.9
504.156	11669.16
504.359	11648.68
504.562	11869.86
504.765	12160.67
504.968	12254.87
505.17	12424.86
505.373	12373.66
505.576	12527.25
505.779	12600.98
505.982	12861.07
506.185	13057.68
506.387	12971.66
506.59	13274.76
506.793	13282.95
506.996	13239.95
507.198	14059.13
507.401	13600.39
507.604	13815.43
507.807	14147.2
508.009	14030.46
508.212	14245.5
508.415	14618.23
508.617	14665.33
508.82	14999.15
509.022	14636.66
509.225	15113.84
509.428	15287.92
509.63	15210.09
509.833	15128.17
510.035	15767.14
510.238	15715.94
510.44	15761
510.643	16043.62
510.845	16057.95
511.048	16244.32
511.25	16367.2
511.453	16363.1
511.655	17051.22
511.858	16674.39
512.06	17096.27
512.262	17163.86
512.465	17313.36
512.667	17696.33
512.87	17712.71
513.072	17823.3
513.274	17862.21
513.477	18409.02
513.679	18296.38
513.881	18396.73
514.084	18656.82
514.286	18748.98
514.488	18835
514.69	19590.7
514.893	19422.76
515.095	19623.47
515.297	19580.46
515.499	19869.22
515.701	20518.43
515.904	20350.49
516.106	20315.68
516.308	20413.98
516.51	21005.84
516.712	20698.65
516.914	21048.85
517.116	21478.93
517.318	21558.8
517.52	21665.29
517.722	21487.12
517.925	22136.32
518.127	22533.63
518.329	22502.91
518.531	22480.38
518.733	23070.2
518.935	22855.16
519.136	23045.62
519.338	23604.72
519.54	23324.15
519.742	23809.51
519.944	23635.44
520.146	24290.79
520.348	24296.93
520.55	24161.76
520.752	24661.47
520.954	24991.19
521.155	25224.66
521.357	25263.57
521.559	25363.92
521.761	25687.5
521.963	25742.8
522.164	25861.58
522.366	25763.28
522.568	26215.88
522.77	26152.39
522.971	26580.42
523.173	26473.92
523.375	26899.9
523.576	26959.29
523.778	27026.87
523.98	27334.07
524.181	27362.74
524.383	27723.18
524.584	28147.11
524.786	27522.48
524.988	27835.82
525.189	27956.65
525.391	28396.96
525.592	28339.62
525.794	28880.28
525.995	28532.13
526.197	28827.04
526.398	28847.52
526.6	28964.25
526.801	29046.17
527.003	29339.03
527.204	29257.11
527.406	29711.76
527.607	29351.32
527.808	29840.78
528.01	29238.68
528.211	29599.12
528.412	30586.24
528.614	29980.04
528.815	30152.07
529.016	30254.47
529.218	30078.35
529.419	30342.53
529.62	30289.29
529.822	30143.88
530.023	30336.39
530.224	30309.77
530.425	30225.8
530.626	30115.21
530.828	30250.38
531.029	30805.38
531.23	30451.08
531.431	30471.56
531.632	30766.46
531.833	30870.91
532.035	30662.02
532.236	30473.6
532.437	31047.04
532.638	30645.63
532.839	31028.6
533.04	30690.69
533.241	30463.36
533.442	31491.44
533.643	31300.98
533.844	30993.79
534.045	31020.41
534.246	30633.35
534.447	31155.58
534.648	31008.12
534.849	31196.54
535.05	30815.62
535.251	30858.62
535.451	30801.28
535.652	31245.69
535.853	31096.19
536.054	30950.78
536.255	31292.79
536.456	31077.76
536.657	31407.48
536.857	30920.06
537.058	31079.8
537.259	31339.9
537.46	31069.56
537.66	30862.72
537.861	31239.54
538.062	31012.22
538.263	30991.74
538.463	31085.95
538.664	31098.23
538.865	31122.81
539.065	31534.45
539.266	30934.4
539.466	31253.88
539.667	30463.36
539.868	31403.38
540.068	30782.85
540.269	30748.03
540.469	31438.2
540.67	30852.48
540.87	30813.57
541.071	31208.83
541.271	30889.34
541.472	31020.41
541.672	30829.95
541.873	30856.57
542.073	30025.1
542.274	31155.58
542.474	30821.76
542.675	30688.64
542.875	31165.82
543.075	30766.46
543.276	30748.03
543.476	30924.16
543.676	30838.14
543.877	30813.57
544.077	30950.78
544.277	30918.01
544.478	30653.83
544.678	30975.36
544.878	30807.42
545.078	30856.57
545.279	30797.18
545.479	30489.99
545.679	30975.36
545.879	30754.18
546.079	30971.26
546.28	30524.8
546.48	30553.48
546.68	30940.54
546.88	30752.13
547.08	30741.89
547.28	30489.99
547.48	30483.84
547.68	30584.19
547.88	30473.6
548.081	30469.51
548.281	30627.2
548.481	30455.17
548.681	30659.97
548.881	30516.61
549.081	30330.25
549.28	30283.14
549.48	30391.69
549.68	30489.99
549.88	30698.88
550.08	30528.9
550.28	30475.65
550.48	30348.68
550.68	30403.97
550.88	30217.61
551.08	30395.78
551.279	30541.19
551.479	29908.36
551.679	30557.57
551.879	30197.13
552.079	30240.14
552.278	30416.26
552.478	30406.02
552.678	30430.6
552.878	30598.53
553.077	30555.52
553.277	30174.6
553.477	30414.21
553.676	30236.04
553.876	30143.88
554.076	29943.18
554.275	30068.11
554.475	29459.86
554.674	30160.27
554.874	30457.22
555.074	30246.28
555.273	30233.99
555.473	30195.08
555.672	29885.84
555.872	29744.53
556.071	29978
556.271	30016.91
556.47	29635.99
556.67	29691.28
556.869	29699.47
557.068	29805.97
557.268	29883.79
557.467	29865.36
557.667	29779.34
557.866	29574.55
558.065	29691.28
558.265	29339.03
558.464	29398.42
558.663	30195.08
558.863	29277.59
559.062	29523.35
559.261	29005.21
559.461	29916.56
559.66	28888.48
559.859	29416.85
560.058	29072.79
560.258	29003.16
560.457	29113.75
560.656	29105.56
560.855	29021.59
561.054	29246.87
561.253	28851.61
561.453	28968.35
561.652	29044.12
561.851	28941.72
562.05	28503.46
562.249	28493.22
562.448	28951.96
562.647	28702.11
562.846	28820.89
563.045	28851.61
563.244	28208.55
563.443	28687.78
563.642	28257.7
563.841	28761.5
564.04	28241.32
564.239	28429.73
564.438	28147.11
564.637	28378.53
564.836	28294.57
565.035	28198.31
565.234	28048.81
565.432	27850.16
565.631	27858.35
565.83	27958.7
566.029	27753.9
566.228	27657.65
566.427	27643.31
566.625	27575.73
566.824	27286.96
567.023	27628.98
567.222	26955.19
567.42	27489.71
567.619	27303.35
567.818	27170.23
568.016	27354.55
568.215	27387.32
568.414	27407.8
568.612	27264.44
568.811	27067.83
569.01	27241.91
569.208	26764.73
569.407	27301.3
569.605	26682.81
569.804	26957.24
570.002	26334.66
570.201	26392
570.4	26279.36
570.598	26576.32
570.797	26467.78
570.995	26387.91
571.193	26207.69
571.392	26539.46
571.59	26064.33
571.789	26119.62
571.987	26037.7
572.186	25839.05
572.384	25789.9
572.582	26033.61
572.781	25853.39
572.979	25703.89
573.177	25540.05
573.376	26160.58
573.574	25538
573.772	25667.02
573.971	25568.72
574.169	25490.9
574.367	25163.22
574.565	25552.34
574.763	25286.1
574.962	25167.32
575.16	24978.9
575.358	25183.7
575.556	24917.47
575.754	25095.64
575.952	24559.07
576.151	25097.69
576.349	24573.41
576.547	24929.75
576.745	24645.09
576.943	24497.63
577.141	24430.05
577.339	24358.37
577.537	24215.01
577.735	24321.51
577.933	24102.37
578.131	24219.11
578.329	24024.55
578.527	24122.85
578.725	24090.09
578.923	24307.17
579.121	23680.49
579.319	23825.9
579.516	23829.99
579.714	23797.23
579.912	23791.08
580.11	23238.13
580.308	23629.29
580.506	23332.34
580.704	23164.4
580.901	23526.89
581.099	23219.7
581.297	23420.4
581.495	23252.47
581.692	23166.45
581.89	22973.94
582.088	23141.88
582.285	22941.18
582.483	23172.6
582.681	22885.88
582.878	22724.09
583.076	22752.76
583.274	22906.36
583.471	22519.29
583.669	22699.51
583.866	22203.91
584.064	22722.04
584.262	22316.54
584.459	22351.36
584.657	22144.52
584.854	22476.29
585.052	21722.63
585.249	22226.43
585.447	22033.93
585.644	21972.49
585.841	22050.31
586.039	22085.12
586.236	22101.51
586.434	21696.01
586.631	21607.95
586.828	21511.69
587.026	21745.16
587.223	21304.85
587.42	21343.76
587.618	21351.95
587.815	21114.39
588.012	21018.13
588.21	21073.43
588.407	21067.28
588.604	21173.78
588.801	20878.87
588.999	21255.7
589.196	20835.86
589.393	20868.63
589.59	20852.25
589.787	20612.63
589.984	20274.72
590.182	20289.06
590.379	20573.72
590.576	20303.39
590.773	20217.38
590.97	20358.69
591.167	20364.83
591.364	20141.6
591.561	20207.14
591.758	20229.66
591.955	19928.61
592.152	20266.53
592.349	19691.05
592.546	19871.27
592.743	19983.91
592.94	19361.33
593.137	19895.85
593.334	19901.99
593.531	19351.09
593.727	19205.68
593.924	19410.48
594.121	19170.86
594.318	19443.24
594.515	19156.53
594.712	19383.85
594.908	19017.27
595.105	19486.25
595.302	19117.62
595.499	19078.71
595.696	18998.84
595.892	18871.86
596.089	18884.15
596.286	18574.91
596.482	18671.16
596.679	18695.74
596.876	18800.18
597.072	18722.36
597.269	18746.94
597.466	18239.04
597.662	18357.82
597.859	18308.67
598.055	18406.97
598.252	18314.81
598.448	18193.98
598.645	18001.47
598.841	18003.52
599.038	18353.73
599.234	18058.82
599.431	17782.34
599.627	17980.99
599.824	18003.52
600.02	17784.39
600.217	17940.04
600.413	17612.36
600.609	17395.28
600.806	17722.95
601.002	17745.48
601.198	17292.88
601.395	17493.58
601.591	17239.63
601.787	17403.47
601.984	17213.01
602.18	17303.12
602.376	17018.45
602.572	17020.5
602.769	16969.3
602.965	17028.69
603.161	16803.41
603.357	17053.27
603.553	16764.5
603.75	16797.27
603.946	16776.79
604.142	16436.83
604.338	16703.06
604.534	16713.3
604.73	16563.8
604.926	16176.73
605.122	16502.36
605.318	16260.7
605.514	16467.55
605.71	16180.83
605.906	16316
606.102	16238.17
606.298	16127.58
606.494	16100.96
606.69	16264.8
606.886	16021.09
607.082	15793.76
607.278	15738.47
607.474	15453.8
607.67	15904.35
607.866	15724.13
608.062	16084.58
608.257	15722.09
608.453	15674.98
608.649	15953.51
608.845	15517.29
609.041	15699.56
609.236	15433.32
609.432	15461.99
609.628	15386.22
609.824	15324.78
610.019	15507.05
610.215	15318.64
610.411	15337.07
610.606	14896.75
610.802	15421.03
610.998	15208.05
611.193	15326.83
611.389	15146.61
611.584	15031.92
611.78	15033.97
611.976	15308.4
612.171	15257.2
612.367	15072.88
612.562	15009.39
612.758	15031.92
612.953	14651
613.149	14894.71
613.344	14773.88
613.539	15214.19
613.735	14827.12
613.93	14929.52
614.126	14655.09
614.321	14581.37
614.517	14651
614.712	14620.28
614.907	14349.95
615.103	14888.56
615.298	14415.48
615.493	14902.9
615.688	14552.7
615.884	14700.15
616.079	14358.14
616.274	14401.15
616.47	14462.58
616.665	14521.98
616.86	14472.82
617.055	14239.36
617.25	14118.53
617.445	14335.61
617.641	13823.62
617.836	14190.2
618.031	13883.01
618.226	14227.07
618.421	14063.23
618.616	13930.11
618.811	13774.47
619.006	13833.86
619.201	13555.33
619.396	14063.23
619.591	13639.3
619.786	13616.77
619.981	13424.26
620.176	13794.95
620.371	13334.15
620.566	13422.22
620.761	13393.54
620.956	13450.89
621.151	13051.53
621.346	13217.42
621.541	13061.77
621.735	13299.34
621.93	12891.79
622.125	12996.24
622.32	12803.73
622.515	12873.36
622.709	12676.76
622.904	12883.6
623.099	12533.4
623.294	12580.5
623.488	12588.69
623.683	12443.29
623.878	12474.01
624.072	12304.03
624.267	12242.59
624.462	12242.59
624.656	11931.3
624.851	12099.23
625.046	12105.37
625.24	11638.44
625.435	11765.41
625.629	11798.18
625.824	11755.17
626.018	11740.83
626.213	11656.87
626.407	11716.26
626.602	11433.64
626.796	11427.49
626.991	11413.16
627.185	11349.67
627.38	11228.84
627.574	11261.61
627.768	11120.3
627.963	11226.79
628.157	11216.55
628.352	11073.2
628.546	10770.1
628.74	10944.17
628.935	10825.39
629.129	10727.09
629.323	10493.62
629.517	10751.67
629.712	10403.51
629.906	10514.1
630.1	10292.92
630.294	10335.93
630.489	10264.25
630.683	10442.42
630.877	10227.39
631.071	10176.19
631.265	10180.28
631.459	10092.22
631.653	9719.49
631.848	9973.44
632.042	9785.02
632.236	10145.47
632.43	9707.2
632.624	9842.37
632.818	9787.07
633.012	9567.94
633.206	9506.5
633.4	9828.03
633.594	9332.42
633.788	9383.62
633.982	9400.01
634.176	9408.2
634.369	9408.2
634.563	9397.96
634.757	9129.67
634.951	9268.94
635.145	8951.5
635.339	9209.54
635.533	9135.82
635.726	8982.22
635.92	8705.74
636.114	8978.12
636.308	8634.07
636.501	8896.21
636.695	8812.24
636.889	8582.87
637.083	8599.25
637.276	8724.18
637.47	8505.04
637.664	8335.06
637.857	8584.91
638.051	8457.94
638.244	8363.73
638.438	8361.69
638.632	8535.76
638.825	8412.88
639.019	8228.57
639.212	8074.97
639.406	8419.03
639.599	8269.53
639.793	8007.39
639.986	7950.04
640.18	7898.84
640.373	7884.51
640.567	7818.97
640.76	7755.49
640.954	7794.4
641.147	7571.17
641.34	7573.22
641.534	7659.23
641.727	7683.81
641.92	7614.18
642.114	7610.08
642.307	7474.92
642.5	7302.89
642.694	7423.72
642.887	7304.93
643.08	7354.09
643.273	7272.17
643.467	7204.58
643.66	7212.78
643.853	7220.97
644.046	7108.33
644.239	7065.32
644.432	7147.24
644.626	7046.89
644.819	7104.23
645.012	6930.16
645.205	7137
645.398	7079.66
645.591	6811.37
645.784	6792.94
645.977	6739.69
646.17	6819.57
646.363	6575.86
646.556	6657.78
646.749	6618.86
646.942	6608.62
647.135	6571.76
647.328	6514.42
647.521	6387.44
647.714	6455.03
647.907	6452.98
648.099	6436.6
648.292	6344.44
648.485	6350.58
648.678	6196.98
648.871	6237.94
649.064	6260.47
649.256	6237.94
649.449	6045.43
649.642	6158.07
649.835	5963.51
650.027	5959.42
650.22	5912.32
650.413	5682.94
650.605	6127.35
650.798	5789.44
650.991	5754.62
651.183	5762.81
651.376	5684.99
651.568	5838.59
651.761	5678.85
651.954	5756.67
652.146	5723.9
652.339	5811.96
652.531	5797.63
652.724	5459.71
652.916	5480.19
653.109	5551.87
653.301	5439.23
653.494	5517.06
653.686	5336.84
653.879	5424.9
654.071	5330.69
654.263	5308.16
654.456	5322.5
654.648	5347.08
654.84	5066.5
655.033	5177.09
655.225	5328.64
655.417	5254.92
655.61	5183.24
655.802	5156.61
655.994	5189.38
656.186	5148.42
656.379	4943.63
656.571	4986.63
656.763	5041.93
656.955	5005.06
657.148	5035.78
657.34	4945.67
657.532	4914.95
657.724	4847.37
657.916	4880.14
658.108	4896.52
658.3	4751.12
658.492	4751.12
658.684	4697.87
658.876	4755.21
659.068	4642.57
659.26	4718.35
659.452	4701.97
659.644	4642.57
659.836	4626.19
660.028	4663.05
660.22	4497.17
660.412	4624.14
660.604	4423.44
660.796	4470.55
660.988	4570.9
661.18	4519.7
661.372	4448.02
661.563	4503.31
661.755	4405.01
661.947	4325.14
662.139	4480.78
662.331	4368.15
662.522	4372.24
662.714	4288.28
662.906	4247.32
663.097	4204.31
663.289	4208.41
663.481	4151.06
663.673	4132.63
663.864	4099.86
664.056	4089.62
664.247	4058.9
664.439	3948.31
664.631	4220.69
664.822	3985.18
665.014	4103.96
665.205	3993.37
665.397	3956.5
665.588	3960.6
665.78	3936.03
665.971	3788.57
666.163	3995.42
666.354	4007.7
666.546	3856.15
666.737	3862.3
666.929	3804.96
667.12	3827.48
667.311	3825.43
667.503	3827.48
667.694	3696.41
667.885	3852.06
668.077	3776.28
668.268	3819.29
668.459	3710.75
668.651	3708.7
668.842	3727.13
669.033	3725.08
669.224	3612.45
669.416	3667.74
669.607	3567.39
669.798	3544.86
669.989	3661.6
670.18	3505.95
670.371	3483.42
670.563	3428.13
670.754	3411.75
670.945	3600.16
671.136	3360.55
671.327	3516.19
671.518	3479.33
671.709	3503.9
671.9	3477.28
672.091	3452.7
672.282	3342.11
672.473	3385.12
672.664	3348.26
672.855	3464.99
673.046	3323.68
673.237	3274.53
673.428	3268.39
673.619	3374.88
673.809	3342.11
674	3411.75
674.191	3342.11
674.382	3217.19
674.573	3268.39
674.764	3198.76
674.954	3299.11
675.145	3284.77
675.336	3215.14
675.527	3278.63
675.717	3034.92
675.908	3227.43
676.099	3086.12
676.289	3172.13
676.48	3108.65
676.671	3102.5
676.861	3092.26
677.052	3122.98
677.243	3118.89
677.433	2989.86
677.624	3092.26
677.814	3157.8
678.005	2993.96
678.195	3102.5
678.386	3092.26
678.576	3125.03
678.767	3149.61
678.957	3088.17
679.148	2948.9
679.338	3012.39
679.529	3108.65
679.719	2973.48
679.909	3100.45
680.1	3030.82
680.29	3004.2
680.481	3075.88
680.671	2903.85
680.861	2891.56
681.052	2985.77
681.242	2862.89
681.432	3032.87
681.622	2930.47
681.813	2987.82
682.003	3043.11
682.193	2987.82
682.383	3086.12
682.573	2848.55
682.764	2854.7
682.954	2950.95
683.144	2940.71
683.334	2887.47
683.524	2840.36
683.714	2860.84
683.904	2969.38
684.094	2864.94
684.284	2830.12
684.474	2883.37
684.664	2858.79
684.854	2828.07
685.044	2854.7
685.234	2815.79
685.424	2871.08
685.614	2783.02
685.804	2889.51
685.994	2807.59
686.184	2776.87
686.374	2864.94
686.564	2670.38
686.753	2772.78
686.943	2737.96
687.133	2604.85
687.323	2778.92
687.513	2631.47
687.702	2686.76
687.892	2684.72
688.082	2746.16
688.272	2678.57
688.461	2660.14
688.651	2756.4
688.841	2674.48
689.03	2670.38
689.22	2617.13
689.41	2570.03
689.599	2514.73
689.789	2518.83
689.979	2447.15
690.168	2631.47
690.358	2469.68
690.547	2539.31
690.737	2625.33
690.926	2453.3
691.116	2510.64
691.305	2488.11
691.495	2379.57
691.684	2324.27
691.874	2438.96
692.063	2488.11
692.252	2561.84
692.442	2420.53
692.631	2430.77
692.82	2453.3
693.01	2430.77
693.199	2389.81
693.388	2314.03
693.578	2180.92
693.767	2467.63
693.956	2285.36
694.146	2297.65
694.335	2316.08
694.524	2281.27
694.713	2357.04
694.902	2338.61
695.092	2316.08
695.281	2299.7
695.47	2266.93
695.659	2256.69
695.848	2248.5
696.037	2211.64
696.226	2219.83
696.415	2258.74
696.604	2318.13
696.793	2346.8
696.982	2166.58
697.171	2297.65
697.36	2365.23
697.549	2357.04
697.738	2160.44
697.927	2213.68
698.116	2170.68
698.305	2137.91
698.494	2096.95
698.683	2250.55
698.872	2281.27
699.061	2244.4
699.25	2125.62
699.438	2242.36
699.627	2144.05
699.816	2137.91
700.005	2152.24
700.193	2109.24
700.382	2103.09
700.571	2045.75
700.76	2170.68
700.948	2127.67
701.137	2193.2
701.326	2180.92
701.514	2178.87
701.703	2068.28
701.892	2076.47
702.08	2262.83
702.269	1984.31
702.457	2021.17
702.646	2135.86
702.834	2068.28
703.023	2189.11
703.212	2178.87
703.4	2150.2
703.589	2170.68
703.777	2191.16
703.965	2099
704.154	2096.95
704.342	2027.32
704.531	2105.14
704.719	2053.94
704.907	2058.04
705.096	2012.98
705.284	2090.81
705.472	2125.62
705.661	2015.03
705.849	2133.81
706.037	2076.47
706.226	2111.29
706.414	2207.54
706.602	2074.42
706.79	2150.2
706.979	1994.55
707.167	2191.16
707.355	2068.28
707.543	2103.09
707.731	2166.58
707.919	1994.55
708.107	1941.3
708.296	2092.85
708.484	2125.62
708.672	2062.13
708.86	2121.52
709.048	2002.74
709.236	2049.85
709.424	2019.13
709.612	2148.15
709.8	2043.7
709.988	2002.74
710.176	2060.09
710.364	1931.06
710.551	2035.51
710.739	1943.35
710.927	2041.65
711.115	1961.78
711.303	2092.85
711.491	1976.12
711.679	2015.03
711.866	1939.26
712.054	1959.74
712.242	1896.25
712.43	1998.65
712.617	1879.86
712.805	2015.03
712.993	1984.31
713.181	1978.17
713.368	2053.94
713.556	2031.41
713.744	1996.6
713.931	2053.94
714.119	1949.5
714.306	1943.35
714.494	1969.98
714.682	1933.11
714.869	1939.26
715.057	1943.35
715.244	1840.95
715.432	1890.1
715.619	1976.12
715.807	1892.15
715.994	2002.74
716.182	1984.31
716.369	2051.89
716.556	1988.41
716.744	1869.62
716.931	1961.78
717.119	2068.28
717.306	1838.91
717.493	2004.79
717.681	2035.51
717.868	1929.02
718.055	1986.36
718.242	1990.45
718.43	2008.89
718.617	1943.35
718.804	1912.63
718.991	1898.3
719.179	1949.5
719.366	1902.39
719.553	1933.11
719.74	1992.5
719.927	2027.32
720.114	1912.63
720.301	1974.07
720.488	1783.61
720.676	1881.91
720.863	1906.49
721.05	1978.17
721.237	1920.82
721.424	1922.87
721.611	1976.12
721.798	1949.5
721.985	1847.1
722.172	1908.54
722.358	1855.29
722.545	1824.57
722.732	1867.58
722.919	1879.86
723.106	1763.13
723.293	1890.1
723.48	1849.15
723.667	1875.77
723.853	1849.15
724.04	1843
724.227	1904.44
724.414	1892.15
724.6	1929.02
724.787	1820.47
724.974	1912.63
725.161	1988.41
725.347	1840.95
725.534	1894.2
725.72	1879.86
725.907	1890.1
726.094	1791.8
726.28	1933.11
726.467	1847.1
726.653	1861.43
726.84	1888.06
727.027	1904.44
727.213	1724.22
727.4	1718.08
727.586	1875.77
727.773	1740.6
727.959	1863.48
728.145	1861.43
728.332	1896.25
728.518	1840.95
728.705	1904.44
728.891	1871.67
729.077	1793.85
729.264	1797.95
729.45	1881.91
729.636	1881.91
729.823	1881.91
730.009	1863.48
730.195	1855.29
730.382	1877.82
730.568	1802.04
730.754	1797.95
730.94	1900.34
731.126	1836.86
731.313	1816.38
731.499	1763.13
731.685	1761.08
731.871	1816.38
732.057	1836.86
732.243	1748.79
732.429	1816.38
732.615	1808.19
732.801	1836.86
732.987	1732.41
733.173	1732.41
733.359	1840.95
733.545	1908.54
733.731	1664.83
733.917	1918.78
734.103	1781.56
734.289	1777.47
734.475	1728.31
734.661	1799.99
734.847	1603.39
735.033	1701.69
735.219	1781.56
735.404	1765.18
735.59	1754.94
735.776	1744.7
735.962	1689.4
736.148	1765.18
736.333	1793.85
736.519	1795.9
736.705	1849.15
736.89	1789.75
737.076	1777.47
737.262	1728.31
737.447	1722.17
737.633	1693.5
737.819	1773.37
738.004	1693.5
738.19	1650.49
738.375	1783.61
738.561	1791.8
738.747	1802.04
738.932	1703.74
739.118	1732.41
739.303	1705.79
739.489	1677.12
739.674	1621.82
739.859	1644.35
740.045	1740.6
740.23	1619.77
740.416	1568.57
740.601	1707.84
740.786	1730.36
740.972	1638.2
741.157	1611.58
741.342	1568.57
741.528	1652.54
741.713	1662.78
741.898	1584.96
742.084	1601.34
742.269	1630.01
742.454	1754.94
742.639	1636.16
742.824	1683.26
743.01	1568.57
743.195	1613.63
743.38	1552.19
743.565	1675.07
743.75	1523.52
743.935	1619.77
744.12	1527.61
744.305	1582.91
744.49	1658.68
744.675	1519.42
744.86	1515.33
745.045	1605.44
745.23	1552.19
745.415	1658.68
745.6	1552.19
745.785	1488.7
745.97	1558.33
746.155	1470.27
746.34	1533.76
746.525	1574.72
746.71	1531.71
746.895	1511.23
747.079	1462.08
747.264	1447.74
747.449	1390.4
747.634	1421.12
747.819	1380.16
748.003	1460.03
748.188	1361.73
748.373	1335.1
748.557	1410.88
748.742	1339.2
748.927	1374.02
749.111	1283.91
749.296	1425.22
749.481	1380.16
749.665	1292.1
749.85	1324.87
750.034	1316.67
750.219	1343.3
750.404	1335.1
750.588	1347.39
750.773	1310.53
750.957	1228.61
751.141	1146.69
751.326	1363.78
751.51	1236.8
751.695	1232.71
751.879	1138.5
752.064	1236.8
752.248	1281.86
752.432	1150.79
752.617	1212.23
752.801	1271.62
752.985	1179.46
753.17	1179.46
753.354	1183.56
753.538	1199.94
753.722	1130.31
753.907	1095.49
754.091	1103.68
754.275	1232.71
754.459	1027.91
754.643	1150.79
754.828	1105.73
755.012	1060.68
755.196	1060.68
755.38	1150.79
755.564	1036.1
755.748	1087.3
755.932	1109.83
756.116	982.85
756.3	1060.68
756.484	1072.96
756.668	1066.82
756.852	931.66
757.036	925.51
757.22	925.51
757.404	999.24
757.588	1040.2
757.772	978.76
757.956	1044.29
758.14	1060.68
758.323	962.37
758.507	907.08
758.691	911.18
758.875	941.89
759.059	933.7
759.242	927.56
759.426	855.88
759.61	993.09
759.794	874.31
759.977	902.98
760.161	978.76
760.345	948.04
760.528	851.78
760.712	886.6
760.895	882.5
761.079	823.11
761.263	841.54
761.446	864.07
761.63	923.46
761.813	954.18
761.997	790.35
762.18	878.41
762.364	886.6
762.547	765.77
762.731	816.97
762.914	798.54
763.098	751.43
763.281	808.78
763.464	759.63
763.648	778.06
763.831	843.59
764.015	749.39
764.198	857.93
764.381	761.67
764.564	833.35
764.748	784.2
764.931	835.4
765.114	741.19
765.297	720.71
765.481	778.06
765.664	773.96
765.847	733
766.03	694.09
766.213	687.95
766.397	800.59
766.58	741.19
766.763	794.44
766.946	644.94
767.129	694.09
767.312	737.1
767.495	831.3
767.678	681.8
767.861	726.86
768.044	798.54
768.227	692.04
768.41	673.61
768.593	735.05
768.776	712.52
768.959	675.66
769.142	759.63
769.324	603.98
769.507	700.23
769.69	653.13
769.873	677.71
770.056	692.04
770.239	730.95
770.421	743.24
770.604	675.66
770.787	603.98
770.97	630.6
771.152	679.75
771.335	692.04
771.518	626.51
771.7	708.43
771.883	700.23
772.066	614.22
772.248	612.17
772.431	651.08
772.613	661.32
772.796	626.51
772.978	634.7
773.161	560.97
773.343	513.87
773.526	524.11
773.708	542.54
773.891	583.5
774.073	575.31
774.256	589.64
774.438	640.84
774.621	610.12
774.803	612.17
774.985	589.64
775.168	544.59
775.35	546.64
775.532	622.41
775.715	601.93
775.897	536.4
776.079	495.44
776.261	487.25
776.444	583.5
776.626	585.55
776.808	520.01
776.99	487.25
777.173	423.76
777.355	538.45
777.537	491.34
777.719	530.25
777.901	573.26
778.083	417.61
778.265	423.76
778.447	528.21
778.629	466.77
778.811	491.34
778.993	470.86
779.175	452.43
779.357	450.38
779.539	413.52
779.721	454.48
779.903	462.67
780.085	431.95
780.267	380.75
780.449	405.33
780.631	388.94
780.812	499.53
780.994	448.33
781.176	393.04
781.358	470.86
781.54	411.47
781.721	374.61
781.903	472.91
782.085	395.09
782.267	421.71
782.448	436.05
782.63	370.51
782.812	393.04
782.993	390.99
783.175	499.53
783.357	401.23
783.538	325.46
783.72	333.65
783.901	382.8
784.083	446.29
784.264	397.14
784.446	454.48
784.627	331.6
784.809	386.9
784.99	298.83
785.172	393.04
785.353	382.8
785.535	376.66
785.716	407.38
785.897	345.94
786.079	429.9
786.26	341.84
786.441	345.94
786.623	304.98
786.804	317.26
786.985	403.28
787.167	380.75
787.348	288.59
787.529	257.87
787.71	339.79
787.891	302.93
788.073	350.03
788.254	290.64
788.435	364.37
788.616	323.41
788.797	276.31
788.978	225.11
789.159	188.24
789.34	251.73
789.522	347.98
789.703	294.74
789.884	259.92
790.065	268.11
790.246	323.41
790.427	270.16
790.607	208.72
790.788	274.26
790.969	282.45
791.15	255.83
791.331	327.5
791.512	233.3
791.693	233.3
791.874	266.07
792.054	313.17
792.235	337.74
792.416	204.63
792.597	268.11
792.778	214.87
792.958	274.26
793.139	286.54
793.32	290.64
793.5	231.25
793.681	274.26
793.862	266.07
794.042	235.35
794.223	216.91
794.404	327.5
794.584	173.91
794.765	278.35
794.945	247.63
795.126	200.53
795.306	184.15
795.487	233.3
795.667	274.26
795.848	278.35
796.028	249.68
796.209	251.73
796.389	253.78
796.57	233.3
796.75	147.28
796.93	225.11
797.111	200.53
797.291	200.53
797.471	229.2
797.652	216.91
797.832	249.68
798.012	178
798.192	155.47
798.373	147.28
798.553	192.34
798.733	147.28
798.913	167.76
799.093	120.66
799.274	180.05
799.454	202.58
799.634	184.15
799.814	175.95
799.994	225.11
800.174	282.45
800.354	233.3
800.534	175.95
800.714	284.5
800.894	178
801.074	141.14
801.254	208.72
801.434	227.15
801.614	171.86
801.794	212.82
801.974	737.1
802.154	145.24
802.334	178
802.514	225.11
802.693	202.58
802.873	128.85
803.053	294.74
803.233	264.02
803.413	180.05
803.592	151.38
803.772	118.61
803.952	233.3
804.131	180.05
804.311	151.38
804.491	200.53
804.67	153.43
804.85	98.13
805.03	204.63
805.209	157.52
805.389	175.95
805.568	122.71
805.748	79.7
805.928	102.23
806.107	186.19
806.287	128.85
806.466	180.05
806.646	153.43
806.825	180.05
807.004	184.15
807.184	208.72
807.363	118.61
807.543	186.19
807.722	184.15
807.901	169.81
808.081	208.72
808.26	57.17
808.439	53.08
808.619	153.43
808.798	122.71
808.977	151.38
809.156	192.34
809.336	143.19
809.515	122.71
809.694	3.93
809.873	102.23
810.052	178
810.231	141.14
810.411	151.38
810.59	169.81
810.769	208.72
810.948	210.77
811.127	94.04
811.306	96.08
811.485	114.52
811.664	126.8
811.843	81.75
812.022	180.05
812.201	120.66
812.38	44.88
812.559	145.24
812.737	167.76
812.916	110.42
813.095	114.52
813.274	71.51
813.453	169.81
813.632	126.8
813.811	218.96
813.989	53.08
814.168	139.09
814.347	59.22
814.526	104.28
814.704	130.9
814.883	130.9
815.062	147.28
815.24	126.8
815.419	69.46
815.598	102.23
815.776	98.13
815.955	118.61
816.133	110.42
816.312	126.8
816.49	71.51
816.669	96.08
816.847	40.79
817.026	87.89
817.204	44.88
817.383	139.09
817.561	67.41
817.74	128.85
817.918	108.37
818.097	135
818.275	61.27
818.453	118.61
818.632	126.8
818.81	46.93
818.988	108.37
819.167	114.52
819.345	77.65
819.523	67.41
819.701	110.42
819.879	175.95
820.058	116.56
820.236	65.36
820.414	132.95
820.592	89.94
820.77	108.37
820.948	53.08
821.127	124.76
821.305	135
821.483	53.08
821.661	28.5
821.839	98.13
822.017	79.7
822.195	118.61
822.373	161.62
822.551	79.7
822.729	126.8
822.907	118.61
823.085	79.7
823.262	139.09
823.44	53.08
823.618	73.56
823.796	130.9
823.974	110.42
824.152	75.6
824.329	100.18
824.507	77.65
824.685	118.61
824.863	102.23
825.04	36.69
825.218	135
825.396	65.36
825.574	30.55
825.751	98.13
825.929	135
826.107	-4.27
826.284	112.47
826.462	63.32
826.639	120.66
826.817	-32.94
826.994	139.09
827.172	91.99
827.349	135
827.527	77.65
827.704	120.66
827.882	94.04
828.059	130.9
828.237	-4.27
828.414	85.84
828.591	73.56
828.769	16.21
828.946	67.41
829.124	94.04
829.301	87.89
829.478	38.74
829.655	81.75
829.833	110.42
830.01	-0.17
830.187	130.9
830.364	102.23
830.542	175.95
830.719	44.88
830.896	69.46
831.073	55.12
831.25	159.57
831.427	38.74
831.604	20.31
831.782	12.12
831.959	57.17
832.136	-20.65
832.313	120.66
832.49	46.93
832.667	53.08
832.844	65.36
833.021	120.66
833.198	55.12
833.374	-6.31
833.551	98.13
833.728	42.84
833.905	77.65
834.082	12.12
834.259	85.84
834.436	53.08
834.612	77.65
834.789	57.17
834.966	-2.22
835.143	-20.65
835.319	112.47
835.496	118.61
835.673	94.04
835.85	81.75
836.026	5.97
836.203	40.79
836.38	104.28
836.556	61.27
836.733	28.5
836.909	44.88
837.086	-14.51
837.262	65.36
837.439	53.08
837.616	77.65
837.792	104.28
837.968	126.8
838.145	12.12
838.321	73.56
838.498	38.74
838.674	96.08
838.851	128.85
839.027	1.88
839.203	79.7
839.38	81.75
839.556	8.02
839.732	77.65
839.909	48.98
840.085	71.51
840.261	46.93
840.437	48.98
840.614	53.08
840.79	36.69
840.966	73.56
841.142	14.17
841.318	71.51
841.494	85.84
841.671	98.13
841.847	1.88
842.023	71.51
842.199	20.31
842.375	16.21
842.551	38.74
842.727	3.93
842.903	102.23
843.079	22.36
843.255	77.65
843.431	96.08
843.607	44.88
843.783	3.93
843.959	106.32
844.134	65.36
844.31	96.08
844.486	36.69
844.662	44.88
844.838	8.02
845.013	69.46
845.189	98.13
845.365	61.27
845.541	36.69
845.716	-71.85
845.892	44.88
846.068	-12.46
846.244	98.13
846.419	77.65
846.595	-22.7
846.77	63.32
846.946	53.08
847.122	79.7
847.297	-43.18
847.473	77.65
847.648	114.52
847.824	44.88
847.999	-20.65
848.175	55.12
848.35	55.12
848.526	118.61
848.701	53.08
848.876	85.84
849.052	22.36
849.227	-10.41
849.403	155.47
849.578	61.27
849.753	53.08
849.929	48.98
850.104	65.36
850.279	57.17
850.454	71.51
850.63	-24.75
850.805	-61.61
850.98	81.75
851.155	-2.22
851.33	38.74
851.505	3.93
851.681	83.8
851.856	-14.51
852.031	110.42
852.206	71.51
852.381	-57.51
852.556	-14.51
852.731	65.36
852.906	16.21
853.081	22.36
853.256	73.56
853.431	32.6
853.606	110.42
853.781	36.69
853.956	-16.55
854.131	20.31
854.305	-4.27
854.48	-37.03
854.655	5.97
854.83	81.75
855.005	14.17
855.18	69.46
855.354	94.04
855.529	32.6
855.704	-20.65
855.879	69.46
856.053	-2.22
856.228	71.51
856.403	36.69
856.577	55.12
856.752	73.56
856.926	79.7
857.101	16.21
857.276	24.4
857.45	14.17
857.625	61.27
857.799	30.55
857.974	-69.8
858.148	61.27
858.323	28.5
858.497	46.93
858.672	22.36
858.846	69.46
859.02	30.55
859.195	34.64
859.369	69.46
859.543	53.08
859.718	32.6
859.892	-0.17
860.066	36.69
860.241	-6.31
860.415	16.21
860.589	-12.46
860.763	57.17
860.938	85.84
861.112	63.32
861.286	16.21
861.46	77.65
861.634	46.93
861.808	63.32
861.982	26.45
862.157	46.93
862.331	8.02
862.505	48.98
862.679	-37.03
862.853	36.69
863.027	38.74
863.201	24.4
863.375	-34.99
863.549	22.36
863.722	28.5
863.896	36.69
864.07	36.69
864.244	-16.55
864.418	46.93
864.592	77.65
864.766	-26.79
864.939	83.8
865.113	18.26
865.287	61.27
865.461	-22.7
865.634	3.93
865.808	10.07
865.982	40.79
866.156	-10.41
866.329	-53.42
866.503	18.26
866.676	-39.08
866.85	-8.36
867.024	38.74
867.197	3.93
867.371	71.51
867.544	28.5
867.718	-6.31
867.891	-12.46
868.065	5.97
868.238	-8.36
868.412	59.22
868.585	-8.36
868.759	110.42
868.932	-24.75
869.105	-14.51
869.279	-12.46
869.452	28.5
869.625	67.41
869.799	-28.84
869.972	3.93
870.145	30.55
870.319	53.08
870.492	28.5
870.665	-4.27
870.838	-61.61
871.011	42.84
871.185	-6.31
871.358	8.02
871.531	-24.75
871.704	-45.23
871.877	-0.17
872.05	-45.23
872.223	28.5
872.396	5.97
872.569	26.45
872.742	28.5
872.915	61.27
873.088	-34.99
873.261	-4.27
873.434	51.03
873.607	42.84
873.78	42.84
873.953	-53.42
874.126	-49.32
874.299	53.08
874.471	-37.03
874.644	46.93
874.817	65.36
874.99	46.93
875.163	44.88
875.335	-16.55
875.508	-24.75
875.681	53.08
875.853	-28.84
876.026	-12.46
876.199	-2.22
876.371	22.36
876.544	8.02
876.717	-4.27
876.889	-98.47
877.062	3.93
877.234	77.65
877.407	-59.56
877.579	20.31
877.752	36.69
877.924	20.31
878.097	10.07
878.269	-16.55
878.442	44.88
878.614	28.5
878.786	8.02
878.959	73.56
879.131	20.31
879.303	16.21
879.476	-49.32
879.648	24.4
879.82	3.93
879.993	-65.71
880.165	57.17
880.337	30.55
880.509	55.12
880.681	-10.41
880.854	-20.65
881.026	40.79
881.198	22.36
881.37	42.84
881.542	-32.94
881.714	1.88
881.886	-12.46
882.058	-18.6
882.23	59.22
882.402	18.26
882.574	-4.27
882.746	10.07
882.918	-28.84
883.09	22.36
883.262	40.79
883.434	34.64
883.606	-34.99
883.778	20.31
883.95	32.6
884.122	-22.7
884.293	57.17
884.465	10.07
884.637	36.69
884.809	38.74
884.98	40.79
885.152	26.45
885.324	55.12
885.496	94.04
885.667	57.17
885.839	28.5
886.011	106.32
886.182	59.22
886.354	14.17
886.525	8.02
886.697	36.69
886.869	26.45
887.04	16.21
887.212	73.56
887.383	65.36
887.555	51.03
887.726	40.79
887.897	55.12
888.069	-10.41
888.24	20.31
888.412	-30.89
888.583	-2.22
888.754	-16.55
888.926	-10.41
889.097	-6.31
889.268	-18.6
889.44	77.65
889.611	-43.18
889.782	1.88
889.953	28.5
890.125	8.02
890.296	-2.22
890.467	77.65
890.638	32.6
890.809	46.93
890.98	-53.42
891.151	-34.99
891.323	14.17
891.494	-14.51
891.665	18.26
891.836	-16.55
892.007	61.27
892.178	-4.27
892.349	12.12
892.52	-16.55
892.691	-20.65
892.862	20.31
893.032	-84.14
893.203	12.12
893.374	-12.46
893.545	30.55
893.716	-110.76
893.887	18.26
894.057	-18.6
894.228	-18.6
894.399	100.18
894.57	55.12
894.74	1.88
894.911	94.04
895.082	40.79
895.253	16.21
895.423	-59.56
895.594	20.31
895.764	32.6
895.935	44.88
896.106	22.36
896.276	12.12
896.447	-53.42
896.617	69.46
896.788	12.12
896.958	3.93
897.129	12.12
897.299	-8.36
897.47	38.74
897.64	16.21
897.81	38.74
897.981	10.07
898.151	-84.14
898.322	77.65
898.492	44.88
898.662	-22.7
898.832	8.02
899.003	12.12
899.173	36.69
899.343	-6.31
899.513	-12.46
