Data from USB4F104151__157__14-19-35-066.txt Node

Date: Thu Mar 13 14:19:35 EDT 2025
User: louis
Spectrometer: USB4F10415
Trigger mode: 4
Integration Time (sec): 2.000000E-2
Scans to average: 1
Electric dark correction enabled: true
Nonlinearity correction enabled: false
Boxcar width: 0
XAxis mode: Wavelengths
Number of Pixels in Spectrum: 3648
>>>>>Begin Spectral Data<<<<<
178.204	-156.84
178.424	-156.84
178.644	-156.84
178.864	-132.26
179.084	-105.64
179.304	0.85
179.524	2.9
179.744	29.52
179.964	27.48
180.184	23.38
180.404	0.85
180.624	-60.59
180.844	27.48
181.064	-76.97
181.283	9.05
181.503	23.38
181.723	-7.34
181.943	41.81
182.163	11.09
182.383	41.81
182.602	60.24
182.822	7
183.042	11.09
183.262	2.9
183.482	-38.06
183.701	-29.87
183.921	25.43
184.141	-7.34
184.361	37.72
184.58	-19.63
184.8	-23.72
185.02	9.05
185.239	35.67
185.459	-38.06
185.679	31.57
185.898	-66.73
186.118	33.62
186.338	-23.72
186.557	-31.91
186.777	-7.34
186.997	7
187.216	-62.63
187.436	13.14
187.655	41.81
187.875	52.05
188.095	60.24
188.314	4.95
188.534	105.3
188.753	0.85
188.973	97.11
189.192	25.43
189.412	23.38
189.631	27.48
189.851	13.14
190.07	17.24
190.29	-42.15
190.509	-9.39
190.729	27.48
190.948	47.96
191.168	76.63
191.387	54.1
191.607	-9.39
191.826	13.14
192.045	-9.39
192.265	72.53
192.484	-11.43
192.704	-11.43
192.923	0.85
193.142	60.24
193.362	2.9
193.581	7
193.8	-42.15
194.02	39.76
194.239	13.14
194.458	-31.91
194.678	52.05
194.897	-15.53
195.116	39.76
195.335	0.85
195.555	7
195.774	-56.49
195.993	11.09
196.212	-42.15
196.432	-15.53
196.651	-25.77
196.87	-25.77
197.089	9.05
197.308	-1.19
197.528	9.05
197.747	-70.83
197.966	9.05
198.185	23.38
198.404	-56.49
198.623	39.76
198.842	-62.63
199.062	62.29
199.281	31.57
199.5	52.05
199.719	50
199.938	41.81
200.157	17.24
200.376	-46.25
200.595	-72.87
200.814	43.86
201.033	-21.67
201.252	-3.24
201.471	23.38
201.69	64.34
201.909	56.15
202.128	-13.48
202.347	47.96
202.566	0.85
202.785	-11.43
203.004	-91.31
203.223	76.63
203.442	33.62
203.661	-7.34
203.879	-3.24
204.098	43.86
204.317	-46.25
204.536	37.72
204.755	4.95
204.974	7
205.193	50
205.411	21.33
205.63	9.05
205.849	-29.87
206.068	47.96
206.287	-74.92
206.505	-42.15
206.724	11.09
206.943	-1.19
207.162	54.1
207.381	7
207.599	31.57
207.818	27.48
208.037	56.15
208.255	-79.02
208.474	27.48
208.693	31.57
208.911	-27.82
209.13	-9.39
209.349	-50.35
209.567	23.38
209.786	17.24
210.005	17.24
210.223	-1.19
210.442	-85.16
210.661	56.15
210.879	23.38
211.098	15.19
211.316	-13.48
211.535	9.05
211.753	-1.19
211.972	47.96
212.191	-23.72
212.409	31.57
212.628	4.95
212.846	17.24
213.065	82.77
213.283	56.15
213.502	31.57
213.72	-1.19
213.938	27.48
214.157	72.53
214.375	47.96
214.594	-33.96
214.812	43.86
215.031	-50.35
215.249	-66.73
215.467	-17.58
215.686	-9.39
215.904	60.24
216.122	17.24
216.341	68.44
216.559	2.9
216.778	-29.87
216.996	-17.58
217.214	2.9
217.432	-40.11
217.651	15.19
217.869	-21.67
218.087	0.85
218.306	-31.91
218.524	41.81
218.742	-38.06
218.96	19.29
219.179	-42.15
219.397	-17.58
219.615	64.34
219.833	107.35
220.051	-85.16
220.27	25.43
220.488	88.92
220.706	-9.39
220.924	33.62
221.142	11.09
221.36	19.29
221.578	-25.77
221.796	-7.34
222.015	15.19
222.233	-58.54
222.451	62.29
222.669	25.43
222.887	50
223.105	15.19
223.323	2.9
223.541	-50.35
223.759	56.15
223.977	-29.87
224.195	93.01
224.413	-9.39
224.631	23.38
224.849	9.05
225.067	72.53
225.285	52.05
225.503	33.62
225.721	-38.06
225.939	9.05
226.157	11.09
226.375	56.15
226.592	-95.4
226.81	-9.39
227.028	7
227.246	19.29
227.464	-52.39
227.682	9.05
227.9	39.76
228.117	58.2
228.335	-33.96
228.553	43.86
228.771	21.33
228.989	56.15
229.206	2.9
229.424	-33.96
229.642	-19.63
229.86	72.53
230.077	82.77
230.295	11.09
230.513	39.76
230.731	56.15
230.948	64.34
231.166	21.33
231.384	23.38
231.601	-23.72
231.819	47.96
232.037	41.81
232.254	-21.67
232.472	47.96
232.689	19.29
232.907	-9.39
233.125	-21.67
233.342	-1.19
233.56	76.63
233.777	-29.87
233.995	-17.58
234.213	27.48
234.43	82.77
234.648	-9.39
234.865	-29.87
235.083	-64.68
235.3	11.09
235.518	43.86
235.735	117.59
235.953	25.43
236.17	-1.19
236.388	15.19
236.605	-46.25
236.822	4.95
237.04	-21.67
237.257	17.24
237.475	-85.16
237.692	11.09
237.909	2.9
238.127	15.19
238.344	54.1
238.562	21.33
238.779	-40.11
238.996	-13.48
239.214	-23.72
239.431	82.77
239.648	-1.19
239.865	17.24
240.083	58.2
240.3	27.48
240.517	52.05
240.735	27.48
240.952	19.29
241.169	43.86
241.386	27.48
241.603	-7.34
241.821	-25.77
242.038	62.29
242.255	66.39
242.472	-66.73
242.689	43.86
242.907	15.19
243.124	13.14
243.341	41.81
243.558	-36.01
243.775	-17.58
243.992	-1.19
244.209	31.57
244.426	-1.19
244.643	-3.24
244.86	-3.24
245.078	-54.44
245.295	15.19
245.512	76.63
245.729	-9.39
245.946	2.9
246.163	-1.19
246.38	25.43
246.597	15.19
246.814	58.2
247.031	11.09
247.248	13.14
247.464	-5.29
247.681	54.1
247.898	107.35
248.115	9.05
248.332	-42.15
248.549	19.29
248.766	76.63
248.983	72.53
249.2	4.95
249.417	54.1
249.633	58.2
249.85	-7.34
250.067	31.57
250.284	56.15
250.501	50
250.717	80.72
250.934	7
251.151	43.86
251.368	17.24
251.585	-1.19
251.801	-25.77
252.018	-25.77
252.235	-5.29
252.451	-33.96
252.668	-17.58
252.885	80.72
253.102	2.9
253.318	72.53
253.535	-1.19
253.752	31.57
253.968	-62.63
254.185	-66.73
254.401	-3.24
254.618	-29.87
254.835	-21.67
255.051	105.3
255.268	-5.29
255.484	-1.19
255.701	-42.15
255.917	99.16
256.134	7
256.351	-19.63
256.567	-29.87
256.784	-9.39
257	-76.97
257.217	39.76
257.433	23.38
257.65	29.52
257.866	64.34
258.082	31.57
258.299	-1.19
258.515	13.14
258.732	47.96
258.948	-17.58
259.165	25.43
259.381	-9.39
259.597	31.57
259.814	-25.77
260.03	-40.11
260.246	7
260.463	-44.2
260.679	47.96
260.895	-87.21
261.112	64.34
261.328	-48.3
261.544	7
261.761	123.73
261.977	23.38
262.193	-31.91
262.409	11.09
262.626	-31.91
262.842	31.57
263.058	-62.63
263.274	47.96
263.49	97.11
263.707	78.68
263.923	-1.19
264.139	-25.77
264.355	-7.34
264.571	-46.25
264.787	21.33
265.004	52.05
265.22	72.53
265.436	43.86
265.652	-62.63
265.868	-1.19
266.084	-81.07
266.3	7
266.516	27.48
266.732	31.57
266.948	109.4
267.164	107.35
267.38	72.53
267.596	117.59
267.812	29.52
268.028	50
268.244	7
268.46	23.38
268.676	0.85
268.892	45.91
269.108	-79.02
269.324	-40.11
269.54	0.85
269.756	-9.39
269.972	76.63
270.188	37.72
270.403	-25.77
270.619	-17.58
270.835	-13.48
271.051	-15.53
271.267	-42.15
271.483	13.14
271.698	-15.53
271.914	7
272.13	-25.77
272.346	-21.67
272.562	-9.39
272.777	31.57
272.993	-1.19
273.209	-5.29
273.425	23.38
273.64	-11.43
273.856	25.43
274.072	-13.48
274.287	4.95
274.503	-15.53
274.719	-7.34
274.934	-25.77
275.15	2.9
275.366	-23.72
275.581	4.95
275.797	35.67
276.012	-33.96
276.228	-62.63
276.444	9.05
276.659	0.85
276.875	62.29
277.09	23.38
277.306	-7.34
277.521	25.43
277.737	-1.19
277.952	50
278.168	-5.29
278.383	19.29
278.599	-58.54
278.814	39.76
279.03	-3.24
279.245	74.58
279.461	-56.49
279.676	25.43
279.892	-9.39
280.107	-83.11
280.322	23.38
280.538	-44.2
280.753	-1.19
280.969	19.29
281.184	9.05
281.399	23.38
281.615	35.67
281.83	-9.39
282.045	43.86
282.26	-46.25
282.476	-7.34
282.691	105.3
282.906	56.15
283.122	39.76
283.337	-64.68
283.552	39.76
283.767	-1.19
283.983	23.38
284.198	-25.77
284.413	23.38
284.628	-11.43
284.843	33.62
285.058	56.15
285.274	41.81
285.489	11.09
285.704	27.48
285.919	-50.35
286.134	-7.34
286.349	41.81
286.564	11.09
286.779	47.96
286.995	-25.77
287.21	17.24
287.425	50
287.64	93.01
287.855	31.57
288.07	-72.87
288.285	7
288.5	-33.96
288.715	25.43
288.93	90.96
289.145	7
289.36	2.9
289.575	-17.58
289.79	58.2
290.004	50
290.219	74.58
290.434	-38.06
290.649	27.48
290.864	29.52
291.079	-7.34
291.294	-33.96
291.509	35.67
291.724	-17.58
291.938	17.24
292.153	68.44
292.368	11.09
292.583	23.38
292.798	19.29
293.012	-40.11
293.227	-29.87
293.442	-33.96
293.657	7
293.871	60.24
294.086	7
294.301	17.24
294.516	-15.53
294.73	60.24
294.945	-27.82
295.16	9.05
295.374	156.5
295.589	33.62
295.804	84.82
296.018	29.52
296.233	19.29
296.447	7
296.662	-23.72
296.877	33.62
297.091	47.96
297.306	-42.15
297.52	41.81
297.735	31.57
297.949	31.57
298.164	39.76
298.378	23.38
298.593	50
298.807	62.29
299.022	56.15
299.236	99.16
299.451	29.52
299.665	-1.19
299.88	-3.24
300.094	-1.19
300.309	58.2
300.523	-29.87
300.737	-31.91
300.952	72.53
301.166	60.24
301.381	-64.68
301.595	0.85
301.809	21.33
302.024	43.86
302.238	-31.91
302.452	19.29
302.667	113.49
302.881	93.01
303.095	-7.34
303.309	39.76
303.524	9.05
303.738	43.86
303.952	2.9
304.166	68.44
304.381	-33.96
304.595	66.39
304.809	4.95
305.023	50
305.237	11.09
305.452	15.19
305.666	47.96
305.88	62.29
306.094	21.33
306.308	27.48
306.522	29.52
306.736	-13.48
306.95	7
307.164	-1.19
307.379	0.85
307.593	78.68
307.807	43.86
308.021	19.29
308.235	25.43
308.449	-36.01
308.663	23.38
308.877	117.59
309.091	35.67
309.305	41.81
309.519	-52.39
309.733	76.63
309.947	25.43
310.161	80.72
310.374	23.38
310.588	2.9
310.802	47.96
311.016	39.76
311.23	33.62
311.444	9.05
311.658	-27.82
311.872	-19.63
312.085	15.19
312.299	107.35
312.513	43.86
312.727	11.09
312.941	21.33
313.154	41.81
313.368	-17.58
313.582	19.29
313.796	23.38
314.009	27.48
314.223	-17.58
314.437	15.19
314.651	78.68
314.864	2.9
315.078	52.05
315.292	7
315.505	33.62
315.719	56.15
315.933	-19.63
316.146	11.09
316.36	31.57
316.573	72.53
316.787	9.05
317.001	-17.58
317.214	45.91
317.428	80.72
317.641	23.38
317.855	15.19
318.068	39.76
318.282	-31.91
318.495	105.3
318.709	19.29
318.922	-1.19
319.136	72.53
319.349	4.95
319.563	31.57
319.776	88.92
319.99	109.4
320.203	64.34
320.417	9.05
320.63	31.57
320.843	43.86
321.057	64.34
321.27	56.15
321.483	-17.58
321.697	-5.29
321.91	11.09
322.124	74.58
322.337	35.67
322.55	2.9
322.763	60.24
322.977	50
323.19	37.72
323.403	-83.11
323.617	72.53
323.83	25.43
324.043	-7.34
324.256	56.15
324.469	95.06
324.683	37.72
324.896	29.52
325.109	68.44
325.322	-38.06
325.535	66.39
325.748	0.85
325.962	72.53
326.175	-64.68
326.388	-5.29
326.601	27.48
326.814	27.48
327.027	23.38
327.24	27.48
327.453	35.67
327.666	33.62
327.879	17.24
328.092	11.09
328.305	47.96
328.518	56.15
328.731	23.38
328.944	-23.72
329.157	-1.19
329.37	39.76
329.583	33.62
329.796	31.57
330.009	-17.58
330.222	39.76
330.435	43.86
330.648	54.1
330.861	15.19
331.073	33.62
331.286	33.62
331.499	66.39
331.712	62.29
331.925	9.05
332.138	-27.82
332.35	35.67
332.563	56.15
332.776	64.34
332.989	-27.82
333.202	0.85
333.414	-19.63
333.627	56.15
333.84	-25.77
334.053	31.57
334.265	29.52
334.478	64.34
334.691	-1.19
334.903	23.38
335.116	47.96
335.329	39.76
335.541	9.05
335.754	86.87
335.966	2.9
336.179	50
336.392	27.48
336.604	64.34
336.817	-1.19
337.029	58.2
337.242	15.19
337.454	64.34
337.667	-1.19
337.88	121.68
338.092	-27.82
338.305	-50.35
338.517	52.05
338.729	33.62
338.942	-13.48
339.154	27.48
339.367	7
339.579	15.19
339.792	7
340.004	86.87
340.217	76.63
340.429	47.96
340.641	15.19
340.854	27.48
341.066	27.48
341.278	39.76
341.491	39.76
341.703	33.62
341.915	-9.39
342.128	54.1
342.34	0.85
342.552	107.35
342.764	35.67
342.977	47.96
343.189	62.29
343.401	41.81
343.613	-9.39
343.826	-38.06
344.038	9.05
344.25	19.29
344.462	35.67
344.674	33.62
344.886	27.48
345.099	27.48
345.311	39.76
345.523	7
345.735	7
345.947	80.72
346.159	66.39
346.371	45.91
346.583	-21.67
346.795	90.96
347.007	95.06
347.219	-25.77
347.431	-9.39
347.643	101.2
347.855	17.24
348.067	-1.19
348.279	-13.48
348.491	31.57
348.703	62.29
348.915	-11.43
349.127	-46.25
349.339	-11.43
349.551	-23.72
349.763	35.67
349.975	78.68
350.187	88.92
350.399	39.76
350.61	27.48
350.822	15.19
351.034	41.81
351.246	7
351.458	64.34
351.669	50
351.881	90.96
352.093	60.24
352.305	80.72
352.517	82.77
352.728	93.01
352.94	-27.82
353.152	25.43
353.363	39.76
353.575	-7.34
353.787	2.9
353.999	-25.77
354.21	117.59
354.422	-50.35
354.633	-21.67
354.845	62.29
355.057	25.43
355.268	-58.54
355.48	107.35
355.692	11.09
355.903	-1.19
356.115	111.44
356.326	31.57
356.538	68.44
356.749	7
356.961	68.44
357.172	74.58
357.384	45.91
357.595	19.29
357.807	43.86
358.018	11.09
358.23	90.96
358.441	93.01
358.653	113.49
358.864	-5.29
359.075	-9.39
359.287	41.81
359.498	113.49
359.709	56.15
359.921	-1.19
360.132	84.82
360.344	-15.53
360.555	39.76
360.766	39.76
360.977	2.9
361.189	76.63
361.4	54.1
361.611	97.11
361.823	88.92
362.034	23.38
362.245	47.96
362.456	23.38
362.667	88.92
362.879	11.09
363.09	-23.72
363.301	43.86
363.512	66.39
363.723	7
363.935	90.96
364.146	27.48
364.357	33.62
364.568	138.07
364.779	9.05
364.99	15.19
365.201	27.48
365.412	7
365.623	-15.53
365.834	-17.58
366.045	54.1
366.256	7
366.467	19.29
366.678	17.24
366.889	7
367.1	-13.48
367.311	68.44
367.522	-17.58
367.733	-17.58
367.944	43.86
368.155	7
368.366	54.1
368.577	72.53
368.788	93.01
368.999	2.9
369.209	97.11
369.42	113.49
369.631	97.11
369.842	23.38
370.053	64.34
370.264	52.05
370.474	-11.43
370.685	-7.34
370.896	47.96
371.107	47.96
371.317	-15.53
371.528	41.81
371.739	107.35
371.95	15.19
372.16	131.92
372.371	-1.19
372.582	23.38
372.792	56.15
373.003	70.48
373.214	97.11
373.424	103.25
373.635	-9.39
373.846	90.96
374.056	84.82
374.267	9.05
374.477	9.05
374.688	39.76
374.898	23.38
375.109	23.38
375.319	60.24
375.53	58.2
375.74	101.2
375.951	19.29
376.161	58.2
376.372	72.53
376.582	17.24
376.793	19.29
377.003	41.81
377.214	58.2
377.424	11.09
377.635	58.2
377.845	27.48
378.055	41.81
378.266	27.48
378.476	103.25
378.686	82.77
378.897	76.63
379.107	21.33
379.317	78.68
379.528	66.39
379.738	52.05
379.948	99.16
380.158	72.53
380.369	19.29
380.579	74.58
380.789	31.57
380.999	121.68
381.21	56.15
381.42	68.44
381.63	-1.19
381.84	41.81
382.05	21.33
382.261	7
382.471	72.53
382.681	15.19
382.891	74.58
383.101	39.76
383.311	39.76
383.521	97.11
383.731	35.67
383.941	56.15
384.151	31.57
384.361	72.53
384.571	60.24
384.781	88.92
384.991	90.96
385.201	74.58
385.411	39.76
385.621	60.24
385.831	109.4
386.041	39.76
386.251	19.29
386.461	45.91
386.671	-25.77
386.881	121.68
387.091	86.87
387.301	88.92
387.511	97.11
387.72	29.52
387.93	52.05
388.14	-23.72
388.35	95.06
388.56	43.86
388.769	56.15
388.979	45.91
389.189	19.29
389.399	54.1
389.609	78.68
389.818	21.33
390.028	47.96
390.238	39.76
390.447	19.29
390.657	47.96
390.867	52.05
391.076	-21.67
391.286	39.76
391.496	129.88
391.705	101.2
391.915	50
392.125	93.01
392.334	0.85
392.544	43.86
392.753	78.68
392.963	84.82
393.172	117.59
393.382	23.38
393.591	52.05
393.801	125.78
394.01	142.16
394.22	97.11
394.429	90.96
394.639	41.81
394.848	74.58
395.058	47.96
395.267	117.59
395.477	27.48
395.686	84.82
395.895	170.83
396.105	140.12
396.314	80.72
396.524	121.68
396.733	133.97
396.942	90.96
397.152	88.92
397.361	131.92
397.57	80.72
397.78	123.73
397.989	142.16
398.198	164.69
398.407	17.24
398.617	138.07
398.826	162.64
399.035	117.59
399.244	117.59
399.453	80.72
399.663	107.35
399.872	179.03
400.081	127.83
400.29	93.01
400.499	64.34
400.708	170.83
400.917	88.92
401.127	138.07
401.336	125.78
401.545	62.29
401.754	230.23
401.963	146.26
402.172	74.58
402.381	166.74
402.59	205.65
402.799	138.07
403.008	187.22
403.217	144.21
403.426	187.22
403.635	117.59
403.844	127.83
404.053	244.56
404.262	170.83
404.471	162.64
404.68	99.16
404.888	179.03
405.097	176.98
405.306	269.14
405.515	148.31
405.724	164.69
405.933	252.75
406.142	226.13
406.35	164.69
406.559	230.23
406.768	213.84
406.977	293.71
407.185	203.6
407.394	242.51
407.603	269.14
407.812	353.1
408.02	326.48
408.229	287.57
408.438	328.53
408.646	293.71
408.855	310.1
409.064	299.86
409.272	334.67
409.481	385.87
409.69	295.76
409.898	424.78
410.107	443.21
410.315	402.26
410.524	461.65
410.733	498.51
410.941	451.41
411.15	480.08
411.358	502.61
411.567	518.99
411.775	498.51
411.984	549.71
412.192	621.39
412.401	631.63
412.609	666.44
412.818	627.53
413.026	711.5
413.234	666.44
413.443	705.35
413.651	734.03
413.86	762.7
414.068	836.42
414.276	826.18
414.485	910.15
414.693	858.95
414.901	981.83
415.11	973.64
415.318	969.54
415.526	936.78
415.734	1063.75
415.943	987.97
416.151	1084.23
416.359	1139.52
416.567	1203.01
416.776	1198.92
416.984	1325.89
417.192	1313.6
417.4	1432.38
417.608	1348.42
417.817	1444.67
418.025	1522.49
418.233	1682.24
418.441	1571.65
418.649	1641.28
418.857	1827.64
419.065	1809.21
419.273	1805.11
419.481	1876.79
419.689	2040.63
419.897	2179.89
420.105	2075.45
420.313	2294.58
420.521	2276.15
420.729	2351.92
420.937	2356.02
421.145	2458.42
421.353	2564.91
421.561	2591.53
421.769	2743.08
421.977	2779.95
422.185	2804.52
422.393	3005.22
422.601	3234.6
422.809	3083.05
423.017	3148.58
423.224	3431.2
423.432	3482.4
423.64	3490.59
423.848	3771.16
424.056	3658.53
424.263	4037.4
424.471	4064.02
424.679	3957.53
424.887	4434.71
425.094	4375.31
425.302	4430.61
425.51	4457.23
425.718	4809.48
425.925	4782.86
426.133	4930.31
426.341	5245.7
426.548	5415.68
426.756	5610.24
426.964	5499.65
427.171	5925.63
427.379	5905.15
427.586	6111.99
427.794	6376.18
428.001	6650.61
428.209	6888.17
428.417	6818.54
428.624	7277.29
428.832	7152.36
429.039	7090.92
429.247	7310.05
429.454	7813.85
429.662	8413.91
429.869	7803.61
430.076	8346.33
430.284	8182.49
430.491	8608.47
430.699	9067.21
430.906	8848.08
431.114	9104.07
431.321	9497.28
431.528	9589.44
431.736	10193.59
431.943	10623.67
432.15	10271.42
432.358	10674.87
432.565	11127.47
432.772	11053.74
432.979	11643.56
433.187	11795.11
433.394	11778.72
433.601	12634.77
433.808	12778.13
434.016	12550.81
434.223	13138.57
434.43	13992.58
434.637	13765.25
434.844	14482.04
435.052	14746.23
435.259	14678.65
435.466	14846.58
435.673	14541.43
435.88	15559.27
436.087	16374.36
436.294	16380.51
436.501	16183.9
436.708	16333.4
436.915	17070.67
437.122	17664.58
437.329	17633.86
437.537	18227.78
437.743	18514.49
437.95	18356.8
438.157	19280.43
438.364	19876.39
438.571	19784.23
438.778	20140.58
438.985	22094.34
439.192	20883.99
439.399	21703.18
439.606	20845.08
439.813	22213.12
440.02	23609.84
440.227	23292.4
440.433	23089.65
440.64	23769.58
440.847	23396.85
441.054	24115.69
441.261	25862.6
441.467	25618.89
441.674	26077.64
441.881	26845.63
442.088	26806.72
442.294	26651.07
442.501	27253.17
442.708	27937.2
442.914	29047.19
443.121	29903.25
443.328	29202.84
443.534	31506.8
443.741	30337.41
443.948	30069.13
444.154	32301.42
444.361	31867.25
444.568	32098.67
444.774	32213.35
444.981	32842.08
445.187	33638.74
445.394	34826.56
445.6	34455.88
445.807	37849.36
446.013	36038.96
446.22	36755.75
446.426	38172.94
446.633	38580.49
446.839	39895.28
447.046	38136.08
447.252	39962.87
447.459	39538.94
447.665	39540.99
447.871	41775.32
448.078	43520.19
448.284	41099.49
448.491	42373.33
448.697	43972.79
448.903	44742.83
449.11	45078.69
449.316	44212.4
449.522	45066.41
449.728	46213.27
449.935	46340.24
450.141	46459.02
450.347	47532.16
450.553	46018.71
450.76	46495.89
450.966	48251
451.172	47329.41
451.378	48562.29
451.584	47939.71
451.791	48554.1
451.997	49033.32
452.203	49670.24
452.409	49156.2
452.615	49236.07
452.821	47345.79
453.027	47163.53
453.233	49651.81
453.44	47716.48
453.646	48169.08
453.852	48455.79
454.058	49508.45
454.264	47581.31
454.47	48685.17
454.676	47577.22
454.882	49356.9
455.088	44511.41
455.294	45543.58
455.5	46403.73
455.705	46723.21
455.911	44857.51
456.117	43804.86
456.323	43139.27
456.529	41197.79
456.735	42979.53
456.941	41904.34
457.147	41304.29
457.352	40055.03
457.558	39899.38
457.764	39618.81
457.97	39194.88
458.176	38009.11
458.381	38414.6
458.587	36210.99
458.793	36497.7
458.999	34521.41
459.204	37292.32
459.41	36041.01
459.616	33616.21
459.821	33710.42
460.027	33360.22
460.233	32983.39
460.438	31144.31
460.644	31543.67
460.85	30118.28
461.055	29708.69
461.261	29522.32
461.466	27752.88
461.672	26495.43
461.878	28334.5
462.083	26624.45
462.289	25889.23
462.494	25872.84
462.7	24363.49
462.905	24046.05
463.111	24984.02
463.316	25059.8
463.522	24646.11
463.727	24330.72
463.932	24144.36
464.138	24054.25
464.343	24142.31
464.549	23525.87
464.754	24353.25
464.959	24082.92
465.165	23966.18
465.37	23083.51
465.575	22530.56
465.781	23151.09
465.986	23566.83
466.191	22127.11
466.397	21901.83
466.602	20888.09
466.807	21651.98
467.012	21588.49
467.218	21416.46
467.423	21418.51
467.628	21580.3
467.833	22581.76
468.038	21766.67
468.244	20955.67
468.449	21877.26
468.654	21015.06
468.859	20843.03
469.064	20943.38
469.269	19687.98
469.474	20075.04
469.679	20314.66
469.885	19868.2
470.09	20191.78
470.295	20032.04
470.5	19706.41
470.705	19874.34
470.91	19212.85
471.115	18940.47
471.32	19302.96
471.525	19216.94
471.73	18698.81
471.935	18704.95
472.139	18045.51
472.344	18291.26
472.549	18217.54
472.754	17832.52
472.959	17570.38
473.164	17254.99
473.369	16765.53
473.574	17887.81
473.778	17695.3
473.983	17289.81
474.188	17144.4
474.393	16489.05
474.598	16290.4
474.802	16327.26
475.007	16224.86
475.212	16353.88
475.417	15608.42
475.621	15733.35
475.826	15841.89
476.031	15483.5
476.235	15252.08
476.44	15397.48
476.645	14987.89
476.849	15198.83
477.054	14846.58
477.259	14770.8
477.463	14414.46
477.668	14422.65
477.872	14617.21
478.077	14000.77
478.282	13847.17
478.486	13968
478.691	13666.95
478.895	13855.36
479.1	13539.97
479.304	13601.41
479.509	13073.04
479.713	13550.21
479.918	13030.03
480.122	13009.55
480.326	12812.95
480.531	13206.16
480.735	12814.99
480.94	12755.6
481.144	13101.71
481.348	12663.44
481.553	12642.96
481.757	12393.11
481.961	12509.85
482.166	12704.4
482.37	12688.02
482.574	12403.35
482.778	12386.97
482.983	12491.41
483.187	12534.42
483.391	12614.29
483.595	12237.47
483.8	12245.66
484.004	12759.7
484.208	12661.4
484.412	12268.19
484.616	12360.34
484.821	12503.7
485.025	12245.66
485.229	12481.17
485.433	12323.48
485.637	12515.99
485.841	12198.56
486.045	12272.28
486.249	12292.76
486.453	12178.08
486.657	12485.27
486.861	12442.26
487.065	12155.55
487.269	12182.17
487.473	12130.97
487.677	12485.27
487.881	12341.91
488.085	12532.37
488.289	12346.01
488.493	12311.19
488.697	12278.43
488.901	12542.61
489.105	12515.99
489.309	12565.14
489.512	12518.04
489.716	12634.77
489.92	12133.02
490.124	12468.89
490.328	12790.42
490.531	12581.53
490.735	12802.71
490.939	12814.99
491.143	12759.7
491.346	12737.17
491.55	12944.02
491.754	12862.1
491.958	12774.03
492.161	12655.25
492.365	12970.64
492.569	13023.89
492.772	12954.26
492.976	13081.23
493.18	13253.26
493.383	13279.88
493.587	13396.62
493.79	13521.54
493.994	13288.07
494.197	13611.65
494.401	13443.72
494.605	13537.93
494.808	14015.1
495.012	13871.75
495.215	13939.33
495.419	14144.13
495.622	13822.59
495.825	14283.39
496.029	14221.95
496.232	14645.88
496.436	14506.62
496.639	14871.15
496.843	14901.87
497.046	14899.83
497.249	15092.34
497.453	15043.18
497.656	15362.67
497.859	15618.66
498.063	15501.93
498.266	16142.94
498.469	15948.39
498.673	16003.68
498.876	16296.54
499.079	16478.81
499.282	16480.86
499.485	16941.65
499.689	17003.09
499.892	17074.77
500.095	17244.75
500.298	17537.61
500.501	17521.23
500.705	17867.33
500.908	18076.23
501.111	18098.75
501.314	18334.27
501.517	18414.14
501.72	18862.65
501.923	18862.65
502.126	19331.63
502.329	19218.99
502.532	19606.06
502.735	19628.59
502.938	19487.28
503.141	19976.74
503.344	20232.74
503.547	20572.7
503.75	20695.58
503.953	20787.74
504.156	21139.99
504.359	20963.86
504.562	21158.42
504.765	21873.16
504.968	22196.74
505.17	22166.02
505.373	22252.03
505.576	22757.88
505.779	22946.3
505.982	22977.01
506.185	23785.96
506.387	23648.75
506.59	23652.84
506.793	23974.38
506.996	23888.36
507.198	24691.16
507.401	24521.18
507.604	24830.43
507.807	25231.83
508.009	25389.52
508.212	25657.81
508.415	25815.5
508.617	26354.12
508.82	26165.7
509.022	26536.38
509.225	27011.51
509.428	26917.31
509.63	27496.88
509.833	27193.78
510.035	27994.54
510.238	28139.94
510.44	28385.7
510.643	28705.18
510.845	28809.63
511.048	28664.22
511.25	29211.03
511.453	29272.47
511.655	30441.86
511.858	30015.88
512.06	30122.38
512.262	30640.51
512.465	30505.35
512.667	31277.43
512.87	31320.44
513.072	31588.72
513.274	32207.21
513.477	32776.55
513.679	33112.41
513.881	33091.93
514.084	33216.86
514.286	33546.58
514.488	33538.39
514.69	34419.02
514.893	34552.13
515.095	34613.57
515.297	34787.65
515.499	34763.07
515.701	35023.17
515.904	35379.51
516.106	35901.75
516.308	36415.79
516.51	36806.95
516.712	36708.65
516.914	37372.19
517.116	37306.65
517.318	37767.45
517.52	37826.84
517.722	38041.87
517.925	38560.01
518.127	39278.85
518.329	39002.37
518.531	39110.91
518.733	40003.83
518.935	40206.58
519.136	39969.01
519.338	40507.63
519.54	40939.75
519.742	40739.05
519.944	41390.3
520.146	42094.8
520.348	42346.7
520.55	42246.35
520.752	42305.74
520.954	43413.69
521.155	42569.93
521.357	43524.29
521.559	43782.33
521.761	44462.25
521.963	44329.14
522.164	44624.04
522.366	44861.61
522.568	44863.66
522.77	45123.75
522.971	45951.13
523.173	45588.64
523.375	45779.1
523.576	46260.37
523.778	45715.61
523.98	47018.12
524.181	46983.3
524.383	46792.84
524.584	47376.51
524.786	47415.43
524.988	46864.52
525.189	47939.71
525.391	47689.85
525.592	48441.46
525.794	48480.37
525.995	48547.95
526.197	48621.68
526.398	48793.71
526.6	49158.25
526.801	48959.59
527.003	49576.03
527.204	49195.11
527.406	49827.93
527.607	49913.95
527.808	50217.05
528.01	49526.88
528.211	50049.11
528.412	50960.46
528.614	50694.22
528.815	50350.17
529.016	50507.86
529.218	50260.05
529.419	50679.89
529.62	50757.71
529.822	50761.81
530.023	51089.48
530.224	51042.38
530.425	50849.87
530.626	50606.16
530.828	50638.93
531.029	51531.84
531.23	51099.72
531.431	51083.34
531.632	51900.48
531.833	51572.8
532.035	50999.37
532.236	51298.37
532.437	51580.99
532.638	51363.91
532.839	51802.17
533.04	51947.58
533.241	51087.43
533.442	52240.44
533.643	52297.78
533.844	51425.35
534.045	51791.94
534.246	51564.61
534.447	52453.43
534.648	51654.72
534.849	51566.66
535.05	51693.63
535.251	51900.48
535.451	51658.82
535.652	51836.99
535.853	51810.37
536.054	51451.97
536.255	52314.17
536.456	51150.92
536.657	52058.17
536.857	51546.18
537.058	51271.75
537.259	51914.81
537.46	51824.7
537.66	51429.44
537.861	51888.19
538.062	51454.02
538.263	51931.2
538.463	51626.05
538.664	51490.88
538.865	51578.95
539.065	51843.13
539.266	50939.98
539.466	51939.39
539.667	51097.67
539.868	51691.58
540.068	51638.34
540.269	51339.33
540.469	51933.24
540.67	50942.03
540.87	51548.23
541.071	51284.04
541.271	51693.63
541.472	51198.02
541.672	50948.17
541.873	50960.46
542.073	50344.02
542.274	51411.01
542.474	50794.57
542.675	50958.41
542.875	51314.76
543.075	51417.16
543.276	50692.18
543.476	51699.78
543.676	50991.18
543.877	51243.08
544.077	51171.4
544.277	51058.76
544.478	50153.56
544.678	50978.89
544.878	50661.46
545.078	50741.33
545.279	50215
545.479	51046.47
545.679	50767.95
545.879	50651.22
546.079	50679.89
546.28	50550.87
546.48	50487.38
546.68	50993.23
546.88	50763.85
547.08	50561.11
547.28	50604.11
547.48	50464.85
547.68	50495.57
547.88	50239.57
548.081	51122.25
548.281	50344.02
548.481	50237.53
548.681	51167.3
548.881	50401.36
549.081	50501.71
549.28	50145.37
549.48	50585.68
549.68	50163.8
549.88	51267.66
550.08	50184.28
550.28	50692.18
550.48	50147.42
550.68	50724.94
550.88	49952.86
551.08	50466.9
551.279	50237.53
551.479	50094.17
551.679	50167.9
551.879	50042.97
552.079	50253.91
552.278	49926.24
552.478	50344.02
552.678	50286.68
552.878	50247.77
553.077	49813.6
553.277	49723.49
553.477	50178.14
553.676	49997.91
553.876	49705.05
554.076	49725.53
554.275	49295.46
554.475	49053.8
554.674	49926.24
554.874	49965.15
555.074	49512.55
555.273	49492.07
555.473	49768.54
555.672	49021.03
555.872	49662.05
556.071	49299.56
556.271	49203.3
556.47	49299.56
556.67	48990.31
556.869	49199.21
557.068	49289.32
557.268	49037.42
557.467	49262.69
557.667	49029.23
557.866	48861.29
558.065	49490.02
558.265	48734.32
558.464	48363.64
558.663	49442.91
558.863	48552.05
559.062	49066.09
559.261	48466.03
559.461	48932.97
559.66	48212.09
559.859	48865.39
560.058	48134.26
560.258	48681.07
560.457	48150.65
560.656	48560.24
560.855	48107.64
561.054	48554.1
561.253	48298.1
561.453	48101.5
561.652	48181.37
561.851	48062.58
562.05	48076.92
562.249	47700.09
562.448	47917.18
562.647	47917.18
562.846	47753.34
563.045	47628.41
563.244	46962.82
563.443	47689.85
563.642	47085.7
563.841	47483.01
564.04	46930.06
564.239	47532.16
564.438	46733.45
564.637	47141
564.836	47165.57
565.035	46608.53
565.234	46731.4
565.432	47042.7
565.631	46944.39
565.83	46461.07
566.029	46364.82
566.228	46491.79
566.427	46452.88
566.625	46100.63
566.824	46069.91
567.023	46282.9
567.222	45316.26
567.42	46301.33
567.619	46065.81
567.818	45957.27
568.016	45453.47
568.215	46133.4
568.414	45314.21
568.612	45699.23
568.811	45215.91
569.01	45519.01
569.208	44810.41
569.407	45668.51
569.605	45017.25
569.804	45265.06
570.002	45258.91
570.201	45203.62
570.4	44529.84
570.598	44834.99
570.797	44652.72
570.995	44652.72
571.193	44492.97
571.392	44550.32
571.59	44167.35
571.789	44118.2
571.987	44083.38
572.186	44009.65
572.384	44372.14
572.582	44064.95
572.781	43813.05
572.979	43397.31
573.177	43458.75
573.376	43911.35
573.574	43423.93
573.772	43452.61
573.971	43135.17
574.169	43059.4
574.367	42764.49
574.565	43028.68
574.763	43184.32
574.962	42873.03
575.16	42762.44
575.358	42756.3
575.556	41695.45
575.754	42432.72
575.952	42076.37
576.151	42279.12
576.349	41646.3
576.547	42096.85
576.745	41871.57
576.943	42045.65
577.141	41691.35
577.339	41881.81
577.537	41500.89
577.735	41699.55
577.933	41322.72
578.131	41113.83
578.329	41083.11
578.527	40935.65
578.725	41335.01
578.923	41105.63
579.121	40552.68
579.319	41017.57
579.516	40999.14
579.714	40706.28
579.912	40472.81
580.11	40524.01
580.308	40665.32
580.506	40356.08
580.704	40194.29
580.901	40151.28
581.099	40141.04
581.297	40163.57
581.495	40028.4
581.692	40308.97
581.89	39391.48
582.088	39936.24
582.285	39356.67
582.483	39987.44
582.681	39692.54
582.878	39076.1
583.076	39235.84
583.274	39112.96
583.471	38678.79
583.669	39006.47
583.866	38437.13
584.064	39160.06
584.262	38140.18
584.459	38445.32
584.657	37959.95
584.854	38293.77
585.052	37906.71
585.249	37988.63
585.447	38248.72
585.644	37972.24
585.841	37679.38
586.039	38209.81
586.236	37476.63
586.434	37540.12
586.631	37783.83
586.828	37349.66
587.026	37232.93
587.223	36909.35
587.42	36962.59
587.618	37132.57
587.815	36370.73
588.012	36534.57
588.21	36653.35
588.407	37075.23
588.604	36378.92
588.801	36159.79
588.999	36356.39
589.196	36129.07
589.393	36337.96
589.59	35690.8
589.787	35551.54
589.984	35676.47
590.182	35338.55
590.379	35666.23
590.576	35606.84
590.773	35420.47
590.97	35488.06
591.167	35344.7
591.364	34748.74
591.561	35350.84
591.758	34883.91
591.955	34902.34
592.152	34996.54
592.349	34511.17
592.546	34818.37
592.743	34589
592.94	34238.79
593.137	34441.54
593.334	34498.89
593.531	33927.5
593.727	34289.99
593.924	34023.76
594.121	33581.4
594.318	33964.37
594.515	33628.5
594.712	33927.5
594.908	33474.9
595.105	33438.04
595.302	33149.28
595.499	33620.31
595.696	33438.04
595.892	33184.09
596.089	32905.57
596.286	33059.16
596.482	32977.25
596.679	32835.94
596.876	32977.25
597.072	32422.25
597.269	32491.88
597.466	32186.73
597.662	31943.02
597.859	31940.97
598.055	32184.68
598.252	31865.2
598.448	31525.24
598.645	31463.8
598.841	31437.17
599.038	31537.52
599.234	31586.68
599.431	31037.82
599.627	30873.98
599.824	31226.23
600.02	30888.32
600.217	31127.93
600.413	30849.41
600.609	31084.92
600.806	30738.82
601.002	31011.2
601.198	30419.33
601.395	30398.85
601.591	30013.84
601.787	30245.26
601.984	30116.23
602.18	30312.84
602.376	29974.92
602.572	29866.38
602.769	30052.75
602.965	29534.61
603.161	29526.42
603.357	29868.43
603.553	29632.91
603.75	29727.12
603.946	29223.32
604.142	29694.35
604.338	28998.04
604.534	29163.93
604.73	28891.55
604.926	28903.84
605.122	28860.83
605.318	28879.26
605.514	28930.46
605.71	28479.91
605.906	28742.05
606.102	28342.69
606.298	28408.23
606.494	28658.08
606.69	28015.02
606.886	27951.53
607.082	27799.98
607.278	28158.38
607.474	27554.22
607.67	27894.19
607.866	27472.31
608.062	28135.85
608.257	27476.4
608.453	27777.45
608.649	27720.11
608.845	27228.6
609.041	27427.25
609.236	27474.35
609.432	27101.62
609.628	27140.54
609.824	27314.61
610.019	26907.07
610.215	26843.58
610.411	27077.05
610.606	27085.24
610.802	27087.29
610.998	27253.17
611.193	27107.77
611.389	26833.34
611.584	26393.03
611.78	26845.63
611.976	26794.43
612.171	26483.14
612.367	26730.94
612.562	26413.51
612.758	26008.01
612.953	26079.69
613.149	26706.37
613.344	26339.78
613.539	26554.82
613.735	26704.32
613.93	26102.22
614.126	26046.92
614.321	26300.87
614.517	26169.8
614.712	26147.27
614.907	26008.01
615.103	26048.97
615.298	25897.42
615.493	26057.16
615.688	25586.13
615.884	26372.55
616.079	25469.39
616.274	25733.58
616.47	25688.53
616.665	25614.8
616.86	25321.94
617.055	25338.32
617.25	25358.8
617.445	25426.39
617.641	24859.1
617.836	25209.3
618.031	24842.71
618.226	25166.29
618.421	25039.32
618.616	25162.2
618.811	24474.08
619.006	24875.48
619.201	24150.5
619.396	24766.94
619.591	24154.6
619.786	24642.01
619.981	24265.19
620.176	24388.07
620.371	23734.76
620.566	23914.98
620.761	23876.07
620.956	24007.14
621.151	23489.01
621.346	23202.29
621.541	23243.25
621.735	23691.76
621.93	22876.66
622.125	23208.44
622.32	22592
622.515	22960.63
622.709	22796.79
622.904	22571.52
623.099	22544.89
623.294	22405.63
623.488	21998.09
623.683	22233.6
623.878	21879.3
624.072	22012.42
624.267	21895.69
624.462	21832.2
624.656	21504.53
624.851	21508.62
625.046	21621.26
625.24	21357.07
625.435	21262.86
625.629	20945.43
625.824	20898.33
626.018	20875.8
626.213	20298.27
626.407	20492.83
626.602	20212.26
626.796	20376.09
626.991	20228.64
627.185	20249.12
627.38	19880.49
627.574	19962.4
627.768	19761.7
627.963	19773.99
628.157	19325.49
628.352	19950.12
628.546	19274.29
628.74	19675.69
628.935	19118.64
629.129	19259.95
629.323	18692.66
629.517	19032.63
629.712	18893.37
629.906	18418.24
630.1	18399.8
630.294	18774.58
630.489	18283.07
630.683	18186.82
630.877	18100.8
631.071	17762.89
631.265	18025.03
631.459	18145.86
631.653	17891.91
631.848	17879.62
632.042	17558.09
632.236	17922.63
632.43	17343.05
632.624	17242.7
632.818	17345.1
633.012	17119.82
633.206	16814.68
633.4	17130.06
633.594	16714.33
633.788	16943.7
633.982	16829.01
634.176	16734.81
634.369	16603.74
634.563	16472.67
634.757	16534.11
634.951	16435.8
635.145	16314.97
635.339	16269.92
635.533	16065.12
635.726	16022.11
635.92	15888.99
636.114	15747.69
636.308	15659.62
636.501	15833.7
636.695	15737.45
636.889	15530.6
637.083	15325.8
637.276	15350.38
637.47	15327.85
637.664	15088.24
637.857	15338.09
638.051	15129.2
638.244	14940.79
638.438	14957.17
638.632	14819.96
638.825	14787.19
639.019	14467.7
639.212	14426.75
639.406	14662.26
639.599	14449.27
639.793	14512.76
639.986	14324.35
640.18	14142.08
640.373	14115.45
640.567	13927.04
640.76	13838.98
640.954	14021.25
641.147	13912.71
641.34	13671.04
641.534	13998.72
641.727	13656.71
641.92	13687.43
642.114	13433.48
642.307	13492.87
642.5	13560.45
642.694	13337.23
642.887	13003.41
643.08	13255.31
643.273	12993.17
643.467	13050.51
643.66	12927.63
643.853	12823.19
644.046	12722.84
644.239	12571.29
644.432	12681.88
644.626	12505.75
644.819	12585.62
645.012	12542.61
645.205	12542.61
645.398	12579.48
645.591	12321.43
645.784	12311.19
645.977	12196.51
646.17	12159.64
646.363	12038.81
646.556	11846.3
646.749	11639.46
646.942	11958.94
647.135	11899.55
647.328	11735.71
647.521	11823.78
647.714	11471.53
647.907	11377.32
648.099	11565.73
648.292	11432.61
648.485	11291.31
648.678	11066.03
648.871	11166.38
649.064	11166.38
649.256	11135.66
649.449	10984.11
649.642	10961.58
649.835	11004.59
650.027	10832.56
650.22	10908.33
650.413	10701.49
650.605	10760.88
650.798	10676.91
650.991	10627.76
651.183	10664.63
651.376	10468.02
651.568	10590.9
651.761	10156.73
651.954	10414.77
652.146	10281.66
652.339	10281.66
652.531	10199.74
652.724	10119.87
652.916	9951.93
653.109	9966.27
653.301	10013.37
653.494	9861.82
653.686	9732.8
653.879	9870.01
654.071	9870.01
654.263	9616.07
654.456	9706.18
654.648	9702.08
654.84	9345.73
655.033	9425.61
655.225	9544.39
655.417	9390.79
655.61	9388.74
655.802	9398.98
655.994	9243.34
656.186	9140.94
656.379	9077.45
656.571	9136.84
656.763	8938.19
656.955	9110.22
657.148	8981.2
657.34	9022.16
657.532	8952.52
657.724	8626.9
657.916	8739.54
658.108	8655.57
658.3	8669.91
658.492	8725.2
658.684	8620.75
658.876	8567.51
659.068	8581.84
659.26	8506.07
659.452	8594.13
659.644	8493.78
659.836	8399.57
660.028	8299.22
660.22	8297.17
660.412	8274.65
660.604	8014.56
660.796	8133.34
660.988	8174.3
661.18	8024.79
661.372	7965.4
661.563	8162.01
661.755	7758.56
661.947	8020.7
662.139	7650.02
662.331	7834.33
662.522	7658.21
662.714	7762.65
662.906	7723.74
663.097	7672.54
663.289	7346.92
663.481	7654.11
663.673	7568.1
663.864	7326.44
664.056	7398.12
664.247	7453.41
664.439	7404.26
664.631	7262.95
664.822	7275.24
665.014	7252.71
665.205	7277.29
665.397	7385.83
665.588	7113.45
665.78	7029.48
665.971	6955.76
666.163	7228.14
666.354	7127.78
666.546	7060.2
666.737	6869.74
666.929	6830.83
667.12	6900.46
667.311	6789.87
667.503	6783.73
667.694	7009
667.885	6863.6
668.077	6789.87
668.268	6822.64
668.459	6679.28
668.651	6642.42
668.842	6642.42
669.033	6748.91
669.224	6570.74
669.416	6716.14
669.607	6519.54
669.798	6478.58
669.989	6580.98
670.18	6462.19
670.371	6367.99
670.563	6218.49
670.754	6343.41
670.945	6187.77
671.136	6347.51
671.327	6185.72
671.518	6230.77
671.709	6109.94
671.9	6202.1
672.091	6138.62
672.282	6263.54
672.473	5927.67
672.664	5995.26
672.855	5933.82
673.046	6038.27
673.237	6097.66
673.428	5968.63
673.619	6011.64
673.809	5884.67
674	5653.25
674.191	5915.39
674.382	5946.11
674.573	5974.78
674.764	5913.34
674.954	5835.52
675.145	5827.32
675.336	5749.5
675.527	5944.06
675.717	5638.91
675.908	5741.31
676.099	5749.5
676.289	5679.87
676.48	5657.34
676.671	5518.08
676.861	5612.29
677.052	5532.42
677.243	5430.02
677.433	5468.93
677.624	5524.23
677.814	5454.59
678.005	5595.9
678.195	5546.75
678.386	5432.07
678.576	5442.31
678.767	5399.3
678.957	5397.25
679.148	5290.76
679.338	5464.83
679.529	5356.29
679.719	5235.46
679.909	5405.44
680.1	5284.61
680.29	5313.28
680.481	5225.22
680.671	5104.39
680.861	5073.67
681.052	5305.09
681.242	5133.06
681.432	5317.38
681.622	5161.73
681.813	4944.65
682.003	5188.36
682.193	4956.94
682.383	5075.72
682.573	5155.59
682.764	4993.8
682.954	5126.92
683.144	5030.66
683.334	4907.79
683.524	5059.34
683.714	4967.18
683.904	4983.56
684.094	4987.66
684.284	4928.27
684.474	4971.27
684.664	4928.27
684.854	4836.11
685.044	4864.78
685.234	4958.99
685.424	4850.44
685.614	4836.11
685.804	4856.59
685.994	4770.57
686.184	4721.42
686.374	4875.02
686.564	4723.47
686.753	4813.58
686.943	4522.77
687.133	4727.57
687.323	4686.61
687.513	4578.06
687.702	4602.64
687.892	4487.95
688.082	4414.23
688.272	4674.32
688.461	4504.34
688.651	4424.47
688.841	4504.34
689.03	4342.55
689.22	4420.37
689.41	4373.27
689.599	4346.64
689.789	4438.8
689.979	4377.36
690.168	4373.27
690.358	4211.48
690.547	4375.31
690.737	4201.24
690.926	4299.54
691.116	4094.74
691.305	4342.55
691.495	4193.05
691.684	4117.27
691.874	4170.52
692.063	4135.7
692.252	4135.7
692.442	4086.55
692.631	3988.25
692.82	4018.97
693.01	4064.02
693.199	3994.39
693.388	3898.14
693.578	3959.58
693.767	3926.81
693.956	3988.25
694.146	3846.94
694.335	4033.3
694.524	3916.57
694.713	3945.24
694.902	3801.88
695.092	3990.3
695.281	3767.07
695.47	3906.33
695.659	3719.96
695.848	3816.22
696.037	3767.07
696.226	3681.05
696.415	3783.45
696.604	3830.55
696.793	3711.77
696.982	3599.13
697.171	3744.54
697.36	3744.54
697.549	3709.72
697.738	3660.57
697.927	3724.06
698.116	3738.4
698.305	3572.51
698.494	3582.75
698.683	3640.09
698.872	3562.27
699.061	3797.79
699.25	3707.68
699.438	3584.8
699.627	3670.81
699.816	3568.41
700.005	3494.69
700.193	3521.31
700.382	3619.61
700.571	3515.17
700.76	3560.22
700.948	3480.35
701.137	3339.04
701.326	3642.14
701.514	3404.58
701.703	3554.08
701.892	3322.66
702.08	3328.8
702.269	3455.78
702.457	3357.47
702.646	3388.19
702.834	3375.91
703.023	3423.01
703.212	3365.67
703.4	3332.9
703.589	3494.69
703.777	3490.59
703.965	3359.52
704.154	3334.95
704.342	3300.13
704.531	3371.81
704.719	3306.27
704.907	3347.23
705.096	3197.73
705.284	3242.79
705.472	3339.04
705.661	3167.01
705.849	3300.13
706.037	3253.03
706.226	3226.4
706.414	3341.09
706.602	3128.1
706.79	3218.21
706.979	3259.17
707.167	3240.74
707.355	3087.14
707.543	3083.05
707.731	3132.2
707.919	3128.1
708.107	3171.11
708.296	3097.38
708.484	3066.66
708.672	3244.84
708.86	3164.97
709.048	3017.51
709.236	3087.14
709.424	3083.05
709.612	3181.35
709.8	3078.95
709.988	3007.27
710.176	3195.68
710.364	3095.33
710.551	3164.97
710.739	3031.85
710.927	3115.81
711.115	2974.5
711.303	3097.38
711.491	2925.35
711.679	2972.46
711.866	3066.66
712.054	3013.42
712.242	2900.78
712.43	2997.03
712.617	2904.87
712.805	2927.4
712.993	2951.98
713.181	2851.63
713.368	2886.44
713.556	2933.54
713.744	2845.48
713.931	2990.89
714.119	2925.35
714.306	2847.53
714.494	2865.96
714.682	2890.54
714.869	2880.3
715.057	2894.63
715.244	2784.04
715.432	2876.2
715.619	2767.66
715.807	2833.19
715.994	2872.11
716.182	2841.39
716.369	2800.43
716.556	2865.96
716.744	2614.06
716.931	2753.32
717.119	2765.61
717.306	2777.9
717.493	2693.93
717.681	2657.07
717.868	2775.85
718.055	2806.57
718.242	2704.17
718.43	2587.44
718.617	2736.94
718.804	2665.26
718.991	2726.7
719.179	2833.19
719.366	2671.4
719.553	2777.9
719.74	2628.4
719.927	2693.93
720.114	2677.55
720.301	2650.92
720.488	2612.01
720.676	2659.12
720.863	2691.88
721.05	2605.87
721.237	2661.16
721.424	2663.21
721.611	2552.62
721.798	2544.43
721.985	2587.44
722.172	2478.9
722.358	2579.25
722.545	2650.92
722.732	2564.91
722.919	2564.91
723.106	2591.53
723.293	2550.57
723.48	2442.03
723.667	2444.08
723.853	2534.19
724.04	2632.49
724.227	2517.81
724.414	2587.44
724.6	2349.87
724.787	2464.56
724.974	2519.85
725.161	2468.66
725.347	2540.33
725.534	2526
725.72	2358.07
725.907	2392.88
726.094	2523.95
726.28	2501.42
726.467	2394.93
726.653	2399.02
726.84	2407.22
727.027	2454.32
727.213	2401.07
727.4	2472.75
727.586	2448.18
727.773	2433.84
727.959	2313.01
728.145	2366.26
728.332	2349.87
728.518	2458.42
728.705	2351.92
728.891	2507.57
729.077	2337.59
729.264	2491.18
729.45	2298.67
729.636	2376.5
729.823	2333.49
730.009	2394.93
730.195	2458.42
730.382	2329.39
730.568	2450.22
730.754	2335.54
730.94	2382.64
731.126	2294.58
731.313	2366.26
731.499	2335.54
731.685	2390.83
731.871	2317.11
732.057	2288.43
732.243	2323.25
732.429	2313.01
732.615	2401.07
732.801	2319.15
732.987	2327.35
733.173	2317.11
733.359	2327.35
733.545	2302.77
733.731	2329.39
733.917	2247.48
734.103	2270
734.289	2243.38
734.475	2183.99
734.661	2220.85
734.847	2204.47
735.033	2218.8
735.219	2153.27
735.404	2214.71
735.59	2272.05
735.776	2259.76
735.962	2136.88
736.148	2292.53
736.333	2204.47
736.519	2136.88
736.705	2124.6
736.89	2181.94
737.076	2157.36
737.262	2112.31
737.447	2147.12
737.633	2104.12
737.819	2145.08
738.004	2145.08
738.19	2153.27
738.375	2161.46
738.561	2257.71
738.747	2181.94
738.932	2067.25
739.118	2089.78
739.303	2114.36
739.489	2149.17
739.674	2169.65
739.859	1940.28
740.045	2186.04
740.23	2048.82
740.416	2059.06
740.601	2145.08
740.786	2089.78
740.972	2054.97
741.157	2044.73
741.342	1966.9
741.528	1995.57
741.713	1975.1
741.898	1868.6
742.084	1977.14
742.269	2003.77
742.454	1944.38
742.639	2104.12
742.824	1979.19
743.01	1946.42
743.195	1981.24
743.38	1973.05
743.565	1835.83
743.75	2014.01
743.935	1882.94
744.12	1921.85
744.305	1850.17
744.49	1909.56
744.675	1827.64
744.86	1905.46
745.045	1856.31
745.23	1844.03
745.415	1911.61
745.6	1764.15
745.785	1776.44
745.97	1694.52
746.155	1809.21
746.34	1727.29
746.525	1694.52
746.71	1768.25
746.895	1817.4
747.079	1794.87
747.264	1762.11
747.449	1772.35
747.634	1661.76
747.819	1786.68
748.003	1727.29
748.188	1766.2
748.373	1620.8
748.557	1784.63
748.742	1585.98
748.927	1712.96
749.111	1729.34
749.296	1698.62
749.481	1653.56
749.665	1530.69
749.85	1631.04
750.034	1631.04
750.219	1549.12
750.404	1563.45
750.588	1563.45
750.773	1522.49
750.957	1579.84
751.141	1440.58
751.326	1536.83
751.51	1452.86
751.695	1456.96
751.879	1489.73
752.064	1573.69
752.248	1340.22
752.432	1481.53
752.617	1489.73
752.801	1420.1
752.985	1362.75
753.17	1432.38
753.354	1403.71
753.538	1301.31
753.722	1418.05
753.907	1286.98
754.091	1358.66
754.275	1321.79
754.459	1270.59
754.643	1282.88
754.828	1264.45
755.012	1325.89
755.196	1270.59
755.38	1205.06
755.564	1260.35
755.748	1276.74
755.932	1293.12
756.116	1284.93
756.3	1248.07
756.484	1211.2
756.668	1264.45
756.852	1153.86
757.036	1256.26
757.22	1241.92
757.404	1137.48
757.588	1088.32
757.772	1125.19
757.956	1203.01
758.14	1153.86
758.323	1178.44
758.507	1178.44
758.691	1194.82
758.875	1198.92
759.059	1155.91
759.242	1065.8
759.426	1084.23
759.61	1133.38
759.794	1047.37
759.977	1024.84
760.161	1102.66
760.345	1129.28
760.528	1092.42
760.712	1030.98
760.895	1102.66
761.079	1073.99
761.263	998.21
761.446	1088.32
761.63	1006.41
761.813	975.69
761.997	916.3
762.18	975.69
762.364	953.16
762.547	942.92
762.731	949.06
762.914	959.3
763.098	942.92
763.281	934.73
763.464	957.25
763.648	973.64
763.831	942.92
764.015	942.92
764.198	934.73
764.381	854.86
764.564	904.01
764.748	940.87
764.931	895.82
765.114	942.92
765.297	852.81
765.481	756.55
765.664	899.91
765.847	971.59
766.03	899.91
766.213	904.01
766.397	840.52
766.58	858.95
766.763	899.91
766.946	908.1
767.129	863.05
767.312	762.7
767.495	834.38
767.678	760.65
767.861	940.87
768.044	779.08
768.227	922.44
768.41	836.42
768.593	805.71
768.776	789.32
768.959	785.23
769.142	899.91
769.324	736.07
769.507	793.42
769.69	817.99
769.873	805.71
770.056	809.8
770.239	879.43
770.421	842.57
770.604	830.28
770.787	721.74
770.97	781.13
771.152	748.36
771.335	762.7
771.518	760.65
771.7	820.04
771.883	754.51
772.066	760.65
772.248	764.75
772.431	826.18
772.613	809.8
772.796	686.92
772.978	701.26
773.161	848.71
773.343	738.12
773.526	688.97
773.708	617.29
773.891	639.82
774.073	715.59
774.256	680.78
774.438	664.4
774.621	699.21
774.803	600.91
774.985	592.72
775.168	715.59
775.35	670.54
775.532	668.49
775.715	637.77
775.897	688.97
776.079	605
776.261	695.11
776.444	688.97
776.626	656.2
776.808	605
776.99	672.59
777.173	588.62
777.355	621.39
777.537	576.33
777.719	578.38
777.901	697.16
778.083	674.64
778.265	549.71
778.447	584.52
778.629	555.85
778.811	609.1
778.993	562
779.175	594.76
779.357	568.14
779.539	527.18
779.721	523.09
779.903	547.66
780.085	447.31
780.267	498.51
780.449	498.51
780.631	531.28
780.812	543.57
780.994	482.13
781.176	523.09
781.358	527.18
781.54	539.47
781.721	525.13
781.903	437.07
782.085	514.89
782.267	518.99
782.448	480.08
782.63	443.21
782.812	475.98
782.993	453.45
783.175	488.27
783.357	557.9
783.538	478.03
783.72	478.03
783.901	432.97
784.083	435.02
784.264	342.86
784.446	412.5
784.627	480.08
784.809	439.12
784.99	416.59
785.172	396.11
785.353	467.79
785.535	394.06
785.716	279.38
785.897	422.73
786.079	410.45
786.26	346.96
786.441	375.63
786.623	408.4
786.804	385.87
786.985	373.58
787.167	344.91
787.348	359.25
787.529	363.34
787.71	451.41
787.891	367.44
788.073	342.86
788.254	392.02
788.435	402.26
788.616	381.78
788.797	383.82
788.978	400.21
789.159	310.1
789.34	363.34
789.522	359.25
789.703	320.34
789.884	389.97
790.065	408.4
790.246	351.06
790.427	301.9
790.607	318.29
790.788	310.1
790.969	349.01
791.15	222.03
791.331	312.14
791.512	385.87
791.693	260.95
791.874	383.82
792.054	293.71
792.235	295.76
792.416	334.67
792.597	299.86
792.778	273.23
792.958	342.86
793.139	271.19
793.32	240.47
793.5	258.9
793.681	244.56
793.862	275.28
794.042	273.23
794.223	207.7
794.404	328.53
794.584	248.66
794.765	297.81
794.945	269.14
795.126	189.27
795.306	340.82
795.487	287.57
795.667	291.66
795.848	269.14
796.028	293.71
796.209	252.75
796.389	293.71
796.57	265.04
796.75	189.27
796.93	246.61
797.111	228.18
797.291	195.41
797.471	336.72
797.652	187.22
797.832	217.94
798.012	199.51
798.192	213.84
798.373	228.18
798.553	201.55
798.733	238.42
798.913	127.83
799.093	269.14
799.274	230.23
799.454	232.27
799.634	228.18
799.814	271.19
799.994	250.71
800.174	260.95
800.354	306
800.534	154.45
800.714	179.03
800.894	183.12
801.074	121.68
801.254	215.89
801.434	189.27
801.614	230.23
801.794	215.89
801.974	774.99
802.154	219.99
802.334	222.03
802.514	99.16
802.693	191.31
802.873	170.83
803.053	226.13
803.233	203.6
803.413	211.79
803.592	146.26
803.772	260.95
803.952	189.27
804.131	129.88
804.311	162.64
804.491	183.12
804.67	189.27
804.85	162.64
805.03	207.7
805.209	207.7
805.389	125.78
805.568	179.03
805.748	88.92
805.928	162.64
806.107	207.7
806.287	172.88
806.466	127.83
806.646	115.54
806.825	179.03
807.004	170.83
807.184	219.99
807.363	254.8
807.543	197.46
807.722	144.21
807.901	138.07
808.081	158.55
808.26	101.2
808.439	164.69
808.619	244.56
808.798	150.36
808.977	172.88
809.156	166.74
809.336	117.59
809.515	181.07
809.694	90.96
809.873	148.31
810.052	201.55
810.231	228.18
810.411	129.88
810.59	125.78
810.769	117.59
810.948	170.83
811.127	62.29
811.306	80.72
811.485	82.77
811.664	269.14
811.843	148.31
812.022	170.83
812.201	162.64
812.38	193.36
812.559	115.54
812.737	205.65
812.916	93.01
813.095	125.78
813.274	209.75
813.453	113.49
813.632	97.11
813.811	88.92
813.989	84.82
814.168	170.83
814.347	93.01
814.526	240.47
814.704	117.59
814.883	113.49
815.062	144.21
815.24	97.11
815.419	41.81
815.598	146.26
815.776	162.64
815.955	187.22
816.133	2.9
816.312	33.62
816.49	88.92
816.669	123.73
816.847	142.16
817.026	191.31
817.204	29.52
817.383	90.96
817.561	58.2
817.74	80.72
817.918	252.75
818.097	109.4
818.275	97.11
818.453	103.25
818.632	142.16
818.81	88.92
818.988	142.16
819.167	39.76
819.345	113.49
819.523	95.06
819.701	78.68
819.879	142.16
820.058	131.92
820.236	136.02
820.414	129.88
820.592	52.05
820.77	35.67
820.948	90.96
821.127	39.76
821.305	56.15
821.483	62.29
821.661	95.06
821.839	35.67
822.017	111.44
822.195	105.3
822.373	158.55
822.551	117.59
822.729	97.11
822.907	99.16
823.085	35.67
823.262	99.16
823.44	25.43
823.618	66.39
823.796	138.07
823.974	93.01
824.152	113.49
824.329	56.15
824.507	84.82
824.685	41.81
824.863	74.58
825.04	11.09
825.218	136.02
825.396	66.39
825.574	123.73
825.751	88.92
825.929	131.92
826.107	138.07
826.284	121.68
826.462	43.86
826.639	107.35
826.817	111.44
826.994	95.06
827.172	99.16
827.349	99.16
827.527	127.83
827.704	31.57
827.882	41.81
828.059	99.16
828.237	52.05
828.414	72.53
828.591	58.2
828.769	72.53
828.946	60.24
829.124	93.01
829.301	64.34
829.478	35.67
829.655	129.88
829.833	140.12
830.01	-9.39
830.187	125.78
830.364	-7.34
830.542	47.96
830.719	84.82
830.896	123.73
831.073	140.12
831.25	29.52
831.427	113.49
831.604	76.63
831.782	60.24
831.959	138.07
832.136	-40.11
832.313	13.14
832.49	68.44
832.667	43.86
832.844	88.92
833.021	99.16
833.198	60.24
833.374	-17.58
833.551	60.24
833.728	-1.19
833.905	56.15
834.082	7
834.259	7
834.436	66.39
834.612	41.81
834.789	64.34
834.966	7
835.143	101.2
835.319	25.43
835.496	56.15
835.673	23.38
835.85	93.01
836.026	119.64
836.203	88.92
836.38	-17.58
836.556	74.58
836.733	25.43
836.909	41.81
837.086	15.19
837.262	-19.63
837.439	35.67
837.616	35.67
837.792	0.85
837.968	60.24
838.145	-89.26
838.321	47.96
838.498	37.72
838.674	35.67
838.851	19.29
839.027	52.05
839.203	-29.87
839.38	56.15
839.556	68.44
839.732	19.29
839.909	74.58
840.085	76.63
840.261	-1.19
840.437	80.72
840.614	93.01
840.79	31.57
840.966	9.05
841.142	47.96
841.318	52.05
841.494	-9.39
841.671	37.72
841.847	-3.24
842.023	7
842.199	27.48
842.375	72.53
842.551	15.19
842.727	23.38
842.903	-5.29
843.079	7
843.255	125.78
843.431	7
843.607	97.11
843.783	-15.53
843.959	50
844.134	-85.16
844.31	52.05
844.486	15.19
844.662	17.24
844.838	39.76
845.013	47.96
845.189	37.72
845.365	31.57
845.541	19.29
845.716	-21.67
845.892	-29.87
846.068	29.52
846.244	25.43
846.419	35.67
846.595	-62.63
846.77	-9.39
846.946	47.96
847.122	17.24
847.297	68.44
847.473	117.59
847.648	21.33
847.824	72.53
847.999	56.15
848.175	-1.19
848.35	97.11
848.526	25.43
848.701	60.24
848.876	41.81
849.052	95.06
849.227	37.72
849.403	27.48
849.578	74.58
849.753	74.58
849.929	39.76
850.104	0.85
850.279	47.96
850.454	-17.58
850.63	58.2
850.805	25.43
850.98	56.15
851.155	0.85
851.33	41.81
851.505	-33.96
851.681	43.86
851.856	-46.25
852.031	7
852.206	27.48
852.381	39.76
852.556	31.57
852.731	56.15
852.906	-38.06
853.081	17.24
853.256	-11.43
853.431	33.62
853.606	-3.24
853.781	-48.3
853.956	-27.82
854.131	-50.35
854.305	-33.96
854.48	-3.24
854.655	-66.73
854.83	74.58
855.005	58.2
855.18	107.35
855.354	0.85
855.529	-42.15
855.704	-1.19
855.879	-5.29
856.053	66.39
856.228	56.15
856.403	23.38
856.577	52.05
856.752	-54.44
856.926	39.76
857.101	-9.39
857.276	43.86
857.45	13.14
857.625	-1.19
857.799	-42.15
857.974	-25.77
858.148	-5.29
858.323	11.09
858.497	-29.87
858.672	-50.35
858.846	47.96
859.02	-31.91
859.195	-1.19
859.369	-7.34
859.543	23.38
859.718	-7.34
859.892	-58.54
860.066	25.43
860.241	-29.87
860.415	15.19
860.589	-7.34
860.763	121.68
860.938	37.72
861.112	7
861.286	-7.34
861.46	-3.24
861.634	11.09
861.808	56.15
861.982	4.95
862.157	56.15
862.331	-1.19
862.505	-38.06
862.679	-68.78
862.853	64.34
863.027	13.14
863.201	33.62
863.375	0.85
863.549	9.05
863.722	4.95
863.896	19.29
864.07	0.85
864.244	-42.15
864.418	-9.39
864.592	-17.58
864.766	-40.11
864.939	-19.63
865.113	23.38
865.287	-5.29
865.461	-11.43
865.634	31.57
865.808	86.87
865.982	-50.35
866.156	-48.3
866.329	2.9
866.503	-9.39
866.676	-25.77
866.85	15.19
867.024	50
867.197	58.2
867.371	15.19
867.544	2.9
867.718	17.24
867.891	15.19
868.065	7
868.238	-38.06
868.412	41.81
868.585	-38.06
868.759	-31.91
868.932	66.39
869.105	-17.58
869.279	7
869.452	-31.91
869.625	9.05
869.799	-91.31
869.972	23.38
870.145	-48.3
870.319	19.29
870.492	-58.54
870.665	-13.48
870.838	9.05
871.011	-76.97
871.185	33.62
871.358	4.95
871.531	15.19
871.704	-42.15
871.877	2.9
872.05	-9.39
872.223	-119.98
872.396	-7.34
872.569	41.81
872.742	-33.96
872.915	-29.87
873.088	-58.54
873.261	19.29
873.434	-15.53
873.607	-46.25
873.78	27.48
873.953	27.48
874.126	-5.29
874.299	64.34
874.471	-33.96
874.644	-50.35
874.817	35.67
874.99	15.19
875.163	-54.44
875.335	27.48
875.508	19.29
875.681	25.43
875.853	7
876.026	64.34
876.199	-5.29
876.371	-17.58
876.544	-48.3
876.717	17.24
876.889	-91.31
877.062	47.96
877.234	-33.96
877.407	-25.77
877.579	-17.58
877.752	-7.34
877.924	-9.39
878.097	7
878.269	-38.06
878.442	29.52
878.614	2.9
878.786	15.19
878.959	-58.54
879.131	33.62
879.303	-38.06
879.476	-58.54
879.648	4.95
879.82	-17.58
879.993	-70.83
880.165	-19.63
880.337	-31.91
880.509	-33.96
880.681	-95.4
880.854	-74.92
881.026	31.57
881.198	15.19
881.37	-7.34
881.542	21.33
881.714	-7.34
881.886	-66.73
882.058	0.85
882.23	107.35
882.402	64.34
882.574	-15.53
882.746	-9.39
882.918	52.05
883.09	0.85
883.262	-40.11
883.434	-50.35
883.606	-17.58
883.778	7
883.95	50
884.122	-50.35
884.293	11.09
884.465	-56.49
884.637	47.96
884.809	-46.25
884.98	4.95
885.152	-42.15
885.324	-25.77
885.496	-48.3
885.667	-38.06
885.839	-46.25
886.011	15.19
886.182	0.85
886.354	-17.58
886.525	-72.87
886.697	-17.58
886.869	-9.39
887.04	9.05
887.212	15.19
887.383	0.85
887.555	-85.16
887.726	-33.96
887.897	-29.87
888.069	123.73
888.24	35.67
888.412	-19.63
888.583	-79.02
888.754	25.43
888.926	15.19
889.097	-68.78
889.268	-13.48
889.44	25.43
889.611	-1.19
889.782	-40.11
889.953	-76.97
890.125	7
890.296	27.48
890.467	-23.72
890.638	-87.21
890.809	-87.21
890.98	-13.48
891.151	50
891.323	37.72
891.494	37.72
891.665	-42.15
891.836	-7.34
892.007	-64.68
892.178	7
892.349	-44.2
892.52	-15.53
892.691	41.81
892.862	-38.06
893.032	0.85
893.203	-56.49
893.374	-25.77
893.545	-50.35
893.716	-33.96
893.887	58.2
894.057	0.85
894.228	-50.35
894.399	25.43
894.57	56.15
894.74	-7.34
894.911	-23.72
895.082	-15.53
895.253	2.9
895.423	47.96
895.594	35.67
895.764	-1.19
895.935	27.48
896.106	27.48
896.276	-56.49
896.447	19.29
896.617	-89.26
896.788	-66.73
896.958	-17.58
897.129	-44.2
897.299	-9.39
897.47	37.72
897.64	25.43
897.81	31.57
897.981	-83.11
898.151	-40.11
898.322	17.24
898.492	-17.58
898.662	-95.4
898.832	-66.73
899.003	2.9
899.173	-46.25
899.343	-48.3
899.513	47.96
