Data from USB4F104151__72__14-17-24-113.txt Node

Date: Thu Mar 13 14:17:24 EDT 2025
User: louis
Spectrometer: USB4F10415
Trigger mode: 4
Integration Time (sec): 2.000000E-2
Scans to average: 1
Electric dark correction enabled: true
Nonlinearity correction enabled: false
Boxcar width: 0
XAxis mode: Wavelengths
Number of Pixels in Spectrum: 3648
>>>>>Begin Spectral Data<<<<<
178.204	-49.49
178.424	-49.49
178.644	-49.49
178.864	-108.88
179.084	-51.54
179.304	-72.02
179.524	-33.11
179.744	20.14
179.964	-18.77
180.184	-37.2
180.404	100.01
180.624	-20.82
180.844	-29.01
181.064	-47.44
181.283	54.95
181.503	79.53
181.723	3.75
181.943	1.71
182.163	85.67
182.383	-0.34
182.602	44.71
182.822	48.81
183.042	7.85
183.262	-33.11
183.482	-10.58
183.701	-67.92
183.921	13.99
184.141	-84.31
184.361	79.53
184.58	61.1
184.8	91.82
185.02	-0.34
185.239	44.71
185.459	57
185.679	3.75
185.898	24.23
186.118	-53.59
186.338	36.52
186.557	77.48
186.777	3.75
186.997	63.15
187.216	-18.77
187.436	67.24
187.655	85.67
187.875	77.48
188.095	-31.06
188.314	28.33
188.534	63.15
188.753	9.9
188.973	13.99
189.192	79.53
189.412	-35.16
189.631	18.09
189.851	52.91
190.07	69.29
190.29	36.52
190.509	-0.34
190.729	24.23
190.948	138.92
191.168	61.1
191.387	20.14
191.607	30.38
191.826	11.95
192.045	26.28
192.265	-2.39
192.484	44.71
192.704	52.91
192.923	-6.49
193.142	20.14
193.362	-29.01
193.581	28.33
193.8	11.95
194.02	44.71
194.239	9.9
194.458	48.81
194.678	-22.87
194.897	-8.53
195.116	61.1
195.335	36.52
195.555	61.1
195.774	59.05
195.993	83.63
196.212	44.71
196.432	-4.44
196.651	-4.44
196.87	5.8
197.089	32.43
197.308	28.33
197.528	52.91
197.747	-20.82
197.966	-4.44
198.185	118.44
198.404	77.48
198.623	24.23
198.842	-4.44
199.062	36.52
199.281	54.95
199.5	42.67
199.719	-45.4
199.938	-45.4
200.157	69.29
200.376	38.57
200.595	81.58
200.814	44.71
201.033	77.48
201.252	30.38
201.471	22.19
201.69	34.47
201.909	71.34
202.128	44.71
202.347	26.28
202.566	61.1
202.785	-14.68
203.004	22.19
203.223	145.06
203.442	-16.73
203.661	-31.06
203.879	59.05
204.098	65.19
204.317	11.95
204.536	44.71
204.755	13.99
204.974	18.09
205.193	28.33
205.411	110.25
205.63	30.38
205.849	-20.82
206.068	-2.39
206.287	-20.82
206.505	48.81
206.724	11.95
206.943	-4.44
207.162	7.85
207.381	-24.92
207.599	57
207.818	22.19
208.037	61.1
208.255	75.43
208.474	73.39
208.693	40.62
208.911	-53.59
209.13	5.8
209.349	85.67
209.567	93.87
209.786	102.06
210.005	69.29
210.223	61.1
210.442	-8.53
210.661	151.21
210.879	-24.92
211.098	11.95
211.316	-37.2
211.535	28.33
211.753	3.75
211.972	16.04
212.191	-72.02
212.409	73.39
212.628	85.67
212.846	-45.4
213.065	-22.87
213.283	61.1
213.502	-59.73
213.72	48.81
213.938	106.15
214.157	16.04
214.375	44.71
214.594	-55.64
214.812	57
215.031	44.71
215.249	16.04
215.467	30.38
215.686	61.1
215.904	73.39
216.122	77.48
216.341	26.28
216.559	28.33
216.778	93.87
216.996	28.33
217.214	11.95
217.432	22.19
217.651	5.8
217.869	-8.53
218.087	13.99
218.306	69.29
218.524	57
218.742	52.91
218.96	22.19
219.179	61.1
219.397	3.75
219.615	69.29
219.833	24.23
220.051	20.14
220.27	-37.2
220.488	44.71
220.706	26.28
220.924	77.48
221.142	-6.49
221.36	44.71
221.578	22.19
221.796	34.47
222.015	-10.58
222.233	-55.64
222.451	71.34
222.669	-59.73
222.887	38.57
223.105	22.19
223.323	-24.92
223.541	1.71
223.759	116.39
223.977	7.85
224.195	122.54
224.413	118.44
224.631	30.38
224.849	-8.53
225.067	48.81
225.285	77.48
225.503	50.86
225.721	-26.96
225.939	20.14
226.157	-4.44
226.375	32.43
226.592	13.99
226.81	36.52
227.028	87.72
227.246	24.23
227.464	69.29
227.682	110.25
227.9	65.19
228.117	81.58
228.335	38.57
228.553	50.86
228.771	-47.44
228.989	77.48
229.206	5.8
229.424	20.14
229.642	73.39
229.86	61.1
230.077	69.29
230.295	-2.39
230.513	87.72
230.731	85.67
230.948	32.43
231.166	36.52
231.384	93.87
231.601	46.76
231.819	-10.58
232.037	85.67
232.254	20.14
232.472	54.95
232.689	-16.73
232.907	28.33
233.125	75.43
233.342	61.1
233.56	102.06
233.777	5.8
233.995	48.81
234.213	130.73
234.43	46.76
234.648	69.29
234.865	26.28
235.083	83.63
235.3	-65.88
235.518	95.91
235.735	110.25
235.953	-29.01
236.17	-0.34
236.388	69.29
236.605	-2.39
236.822	30.38
237.04	16.04
237.257	-4.44
237.475	61.1
237.692	81.58
237.909	81.58
238.127	30.38
238.344	-14.68
238.562	-4.44
238.779	46.76
238.996	-20.82
239.214	63.15
239.431	77.48
239.648	61.1
239.865	38.57
240.083	1.71
240.3	-12.63
240.517	13.99
240.735	36.52
240.952	52.91
241.169	24.23
241.386	28.33
241.603	7.85
241.821	-26.96
242.038	124.58
242.255	-2.39
242.472	30.38
242.689	112.3
242.907	-18.77
243.124	3.75
243.341	16.04
243.558	20.14
243.775	77.48
243.992	22.19
244.209	13.99
244.426	108.2
244.643	40.62
244.86	-8.53
245.078	-24.92
245.295	-12.63
245.512	5.8
245.729	5.8
245.946	73.39
246.163	65.19
246.38	44.71
246.597	38.57
246.814	69.29
247.031	-10.58
247.248	34.47
247.464	71.34
247.681	24.23
247.898	38.57
248.115	11.95
248.332	67.24
248.549	22.19
248.766	89.77
248.983	30.38
249.2	-10.58
249.417	-12.63
249.633	57
249.85	24.23
250.067	-0.34
250.284	30.38
250.501	-12.63
250.717	112.3
250.934	-0.34
251.151	18.09
251.368	69.29
251.585	20.14
251.801	5.8
252.018	42.67
252.235	71.34
252.451	24.23
252.668	24.23
252.885	65.19
253.102	-10.58
253.318	26.28
253.535	61.1
253.752	-14.68
253.968	3.75
254.185	5.8
254.401	40.62
254.618	40.62
254.835	-35.16
255.051	48.81
255.268	54.95
255.484	65.19
255.701	28.33
255.917	20.14
256.134	65.19
256.351	73.39
256.567	110.25
256.784	100.01
257	-8.53
257.217	97.96
257.433	61.1
257.65	7.85
257.866	50.86
258.082	65.19
258.299	-74.07
258.515	-16.73
258.732	7.85
258.948	-37.2
259.165	3.75
259.381	59.05
259.597	20.14
259.814	44.71
260.03	77.48
260.246	79.53
260.463	77.48
260.679	95.91
260.895	13.99
261.112	34.47
261.328	40.62
261.544	22.19
261.761	69.29
261.977	1.71
262.193	11.95
262.409	69.29
262.626	57
262.842	30.38
263.058	5.8
263.274	32.43
263.49	122.54
263.707	18.09
263.923	87.72
264.139	36.52
264.355	30.38
264.571	24.23
264.787	59.05
265.004	91.82
265.22	-0.34
265.436	7.85
265.652	11.95
265.868	13.99
266.084	-16.73
266.3	112.3
266.516	42.67
266.732	46.76
266.948	24.23
267.164	36.52
267.38	57
267.596	42.67
267.812	54.95
268.028	46.76
268.244	3.75
268.46	36.52
268.676	77.48
268.892	36.52
269.108	24.23
269.324	-4.44
269.54	36.52
269.756	61.1
269.972	38.57
270.188	61.1
270.403	-10.58
270.619	28.33
270.835	3.75
271.051	44.71
271.267	28.33
271.483	13.99
271.698	26.28
271.914	3.75
272.13	30.38
272.346	28.33
272.562	38.57
272.777	69.29
272.993	65.19
273.209	28.33
273.425	24.23
273.64	-18.77
273.856	20.14
274.072	71.34
274.287	57
274.503	38.57
274.719	7.85
274.934	22.19
275.15	22.19
275.366	52.91
275.581	54.95
275.797	7.85
276.012	-53.59
276.228	87.72
276.444	81.58
276.659	85.67
276.875	61.1
277.09	24.23
277.306	81.58
277.521	18.09
277.737	65.19
277.952	57
278.168	46.76
278.383	61.1
278.599	40.62
278.814	63.15
279.03	-2.39
279.245	61.1
279.461	22.19
279.676	3.75
279.892	-20.82
280.107	32.43
280.322	61.1
280.538	104.11
280.753	26.28
280.969	71.34
281.184	65.19
281.399	54.95
281.615	28.33
281.83	52.91
282.045	7.85
282.26	52.91
282.476	65.19
282.691	65.19
282.906	36.52
283.122	7.85
283.337	1.71
283.552	126.63
283.767	46.76
283.983	13.99
284.198	44.71
284.413	20.14
284.628	-51.54
284.843	-53.59
285.058	5.8
285.274	52.91
285.489	16.04
285.704	69.29
285.919	44.71
286.134	-4.44
286.349	77.48
286.564	65.19
286.779	97.96
286.995	81.58
287.21	30.38
287.425	5.8
287.64	77.48
287.855	44.71
288.07	-39.25
288.285	50.86
288.5	65.19
288.715	79.53
288.93	24.23
289.145	40.62
289.36	20.14
289.575	69.29
289.79	69.29
290.004	85.67
290.219	7.85
290.434	32.43
290.649	-53.59
290.864	18.09
291.079	-35.16
291.294	85.67
291.509	24.23
291.724	34.47
291.938	38.57
292.153	79.53
292.368	44.71
292.583	3.75
292.798	52.91
293.012	61.1
293.227	28.33
293.442	-0.34
293.657	38.57
293.871	63.15
294.086	-37.2
294.301	16.04
294.516	110.25
294.73	7.85
294.945	-20.82
295.16	-26.96
295.374	81.58
295.589	73.39
295.804	93.87
296.018	-49.49
296.233	54.95
296.447	81.58
296.662	1.71
296.877	11.95
297.091	26.28
297.306	46.76
297.52	50.86
297.735	87.72
297.949	54.95
298.164	26.28
298.378	54.95
298.593	36.52
298.807	13.99
299.022	71.34
299.236	69.29
299.451	44.71
299.665	54.95
299.88	28.33
300.094	1.71
300.309	75.43
300.523	42.67
300.737	-35.16
300.952	28.33
301.166	3.75
301.381	61.1
301.595	3.75
301.809	36.52
302.024	87.72
302.238	46.76
302.452	46.76
302.667	40.62
302.881	122.54
303.095	126.63
303.309	3.75
303.524	36.52
303.738	-20.82
303.952	65.19
304.166	42.67
304.381	-4.44
304.595	106.15
304.809	-18.77
305.023	32.43
305.237	97.96
305.452	28.33
305.666	13.99
305.88	87.72
306.094	42.67
306.308	59.05
306.522	61.1
306.736	28.33
306.95	22.19
307.164	-16.73
307.379	28.33
307.593	71.34
307.807	69.29
308.021	83.63
308.235	20.14
308.449	28.33
308.663	54.95
308.877	85.67
309.091	42.67
309.305	20.14
309.519	1.71
309.733	38.57
309.947	-53.59
310.161	-16.73
310.374	63.15
310.588	-20.82
310.802	20.14
311.016	36.52
311.23	30.38
311.444	-14.68
311.658	-4.44
311.872	57
312.085	61.1
312.299	3.75
312.513	44.71
312.727	87.72
312.941	-43.35
313.154	91.82
313.368	36.52
313.582	36.52
313.796	71.34
314.009	44.71
314.223	32.43
314.437	30.38
314.651	102.06
314.864	54.95
315.078	3.75
315.292	28.33
315.505	44.71
315.719	38.57
315.933	44.71
316.146	71.34
316.36	-53.59
316.573	50.86
316.787	81.58
317.001	-8.53
317.214	40.62
317.428	120.49
317.641	26.28
317.855	-8.53
318.068	20.14
318.282	32.43
318.495	59.05
318.709	32.43
318.922	89.77
319.136	63.15
319.349	57
319.563	63.15
319.776	28.33
319.99	38.57
320.203	77.48
320.417	-4.44
320.63	30.38
320.843	102.06
321.057	126.63
321.27	85.67
321.483	57
321.697	93.87
321.91	-12.63
322.124	102.06
322.337	77.48
322.55	61.1
322.763	-26.96
322.977	38.57
323.19	-18.77
323.403	52.91
323.617	73.39
323.83	83.63
324.043	-0.34
324.256	93.87
324.469	65.19
324.683	38.57
324.896	-31.06
325.109	83.63
325.322	-12.63
325.535	3.75
325.748	48.81
325.962	3.75
326.175	-4.44
326.388	-20.82
326.601	40.62
326.814	5.8
327.027	-12.63
327.24	104.11
327.453	24.23
327.666	106.15
327.879	104.11
328.092	28.33
328.305	114.34
328.518	71.34
328.731	83.63
328.944	-2.39
329.157	102.06
329.37	46.76
329.583	97.96
329.796	112.3
330.009	36.52
330.222	36.52
330.435	100.01
330.648	48.81
330.861	5.8
331.073	77.48
331.286	36.52
331.499	-8.53
331.712	13.99
331.925	110.25
332.138	61.1
332.35	87.72
332.563	-8.53
332.776	69.29
332.989	-65.88
333.202	-43.35
333.414	48.81
333.627	-10.58
333.84	44.71
334.053	57
334.265	28.33
334.478	1.71
334.691	46.76
334.903	-10.58
335.116	-24.92
335.329	30.38
335.541	24.23
335.754	34.47
335.966	5.8
336.179	85.67
336.392	44.71
336.604	73.39
336.817	85.67
337.029	-4.44
337.242	71.34
337.454	28.33
337.667	44.71
337.88	52.91
338.092	-29.01
338.305	114.34
338.517	40.62
338.729	85.67
338.942	69.29
339.154	102.06
339.367	-6.49
339.579	61.1
339.792	-24.92
340.004	65.19
340.217	18.09
340.429	40.62
340.641	-16.73
340.854	52.91
341.066	22.19
341.278	77.48
341.491	61.1
341.703	93.87
341.915	71.34
342.128	81.58
342.34	57
342.552	44.71
342.764	1.71
342.977	-12.63
343.189	28.33
343.401	71.34
343.613	28.33
343.826	44.71
344.038	67.24
344.25	54.95
344.462	77.48
344.674	48.81
344.886	81.58
345.099	46.76
345.311	89.77
345.523	16.04
345.735	34.47
345.947	63.15
346.159	114.34
346.371	24.23
346.583	48.81
346.795	38.57
347.007	28.33
347.219	143.02
347.431	81.58
347.643	44.71
347.855	63.15
348.067	138.92
348.279	-24.92
348.491	20.14
348.703	54.95
348.915	5.8
349.127	-8.53
349.339	22.19
349.551	-33.11
349.763	-35.16
349.975	52.91
350.187	89.77
350.399	42.67
350.61	54.95
350.822	-33.11
351.034	93.87
351.246	61.1
351.458	-2.39
351.669	120.49
351.881	79.53
352.093	104.11
352.305	106.15
352.517	42.67
352.728	151.21
352.94	77.48
353.152	61.1
353.363	13.99
353.575	36.52
353.787	30.38
353.999	71.34
354.21	110.25
354.422	85.67
354.633	46.76
354.845	67.24
355.057	67.24
355.268	30.38
355.48	69.29
355.692	48.81
355.903	5.8
356.115	40.62
356.326	36.52
356.538	77.48
356.749	73.39
356.961	5.8
357.172	13.99
357.384	7.85
357.595	75.43
357.807	11.95
358.018	46.76
358.23	81.58
358.441	118.44
358.653	-2.39
358.864	7.85
359.075	13.99
359.287	54.95
359.498	122.54
359.709	57
359.921	81.58
360.132	122.54
360.344	108.2
360.555	44.71
360.766	63.15
360.977	16.04
361.189	95.91
361.4	28.33
361.611	97.96
361.823	108.2
362.034	104.11
362.245	-24.92
362.456	89.77
362.667	40.62
362.879	20.14
363.09	16.04
363.301	112.3
363.512	65.19
363.723	73.39
363.935	63.15
364.146	54.95
364.357	93.87
364.568	69.29
364.779	13.99
364.99	151.21
365.201	-18.77
365.412	102.06
365.623	85.67
365.834	110.25
366.045	20.14
366.256	118.44
366.467	54.95
366.678	28.33
366.889	48.81
367.1	36.52
367.311	46.76
367.522	-0.34
367.733	128.68
367.944	81.58
368.155	5.8
368.366	69.29
368.577	65.19
368.788	118.44
368.999	54.95
369.209	46.76
369.42	73.39
369.631	147.11
369.842	-12.63
370.053	65.19
370.264	61.1
370.474	28.33
370.685	102.06
370.896	102.06
371.107	38.57
371.317	48.81
371.528	44.71
371.739	59.05
371.95	46.76
372.16	147.11
372.371	42.67
372.582	-18.77
372.792	81.58
373.003	44.71
373.214	38.57
373.424	85.67
373.635	-65.88
373.846	36.52
374.056	36.52
374.267	87.72
374.477	97.96
374.688	71.34
374.898	-37.2
375.109	116.39
375.319	83.63
375.53	61.1
375.74	46.76
375.951	20.14
376.161	42.67
376.372	108.2
376.582	79.53
376.793	36.52
377.003	85.67
377.214	32.43
377.424	46.76
377.635	48.81
377.845	61.1
378.055	32.43
378.266	100.01
378.476	20.14
378.686	32.43
378.897	91.82
379.107	38.57
379.317	44.71
379.528	13.99
379.738	5.8
379.948	-14.68
380.158	89.77
380.369	-2.39
380.579	38.57
380.789	73.39
380.999	71.34
381.21	106.15
381.42	112.3
381.63	-24.92
381.84	3.75
382.05	85.67
382.261	104.11
382.471	147.11
382.681	-2.39
382.891	71.34
383.101	87.72
383.311	3.75
383.521	87.72
383.731	126.63
383.941	13.99
384.151	69.29
384.361	32.43
384.571	40.62
384.781	81.58
384.991	59.05
385.201	5.8
385.411	69.29
385.621	95.91
385.831	93.87
386.041	46.76
386.251	20.14
386.461	104.11
386.671	11.95
386.881	116.39
387.091	75.43
387.301	61.1
387.511	36.52
387.72	87.72
387.93	71.34
388.14	-20.82
388.35	36.52
388.56	149.16
388.769	130.73
388.979	65.19
389.189	-2.39
389.399	44.71
389.609	44.71
389.818	106.15
390.028	50.86
390.238	54.95
390.447	7.85
390.657	114.34
390.867	73.39
391.076	46.76
391.286	50.86
391.496	44.71
391.705	-4.44
391.915	65.19
392.125	147.11
392.334	16.04
392.544	71.34
392.753	85.67
392.963	95.91
393.172	46.76
393.382	57
393.591	102.06
393.801	11.95
394.01	69.29
394.22	100.01
394.429	52.91
394.639	61.1
394.848	89.77
395.058	52.91
395.267	89.77
395.477	161.45
395.686	69.29
395.895	167.59
396.105	114.34
396.314	173.74
396.524	140.97
396.733	50.86
396.942	145.06
397.152	145.06
397.361	93.87
397.57	122.54
397.78	81.58
397.989	147.11
398.198	120.49
398.407	48.81
398.617	145.06
398.826	126.63
399.035	134.82
399.244	69.29
399.453	151.21
399.663	91.82
399.872	102.06
400.081	102.06
400.29	71.34
400.499	69.29
400.708	134.82
400.917	102.06
401.127	145.06
401.336	54.95
401.545	147.11
401.754	155.3
401.963	128.68
402.172	147.11
402.381	89.77
402.59	136.87
402.799	161.45
403.008	188.07
403.217	167.59
403.426	169.64
403.635	44.71
403.844	247.46
404.053	110.25
404.262	136.87
404.471	169.64
404.68	226.98
404.888	163.5
405.097	143.02
405.306	218.79
405.515	124.58
405.724	147.11
405.933	126.63
406.142	237.22
406.35	165.54
406.559	208.55
406.768	134.82
406.977	241.32
407.185	179.88
407.394	202.41
407.603	253.61
407.812	276.13
408.02	241.32
408.229	241.32
408.438	298.66
408.646	241.32
408.855	304.81
409.064	356.01
409.272	294.57
409.481	394.92
409.69	288.42
409.898	224.94
410.107	300.71
410.315	358.05
410.524	372.39
410.733	405.16
410.941	388.77
411.15	362.15
411.358	456.36
411.567	396.96
411.775	470.69
411.984	478.88
412.192	485.03
412.401	509.6
412.609	564.9
412.818	571.04
413.026	474.79
413.234	636.58
413.443	589.47
413.651	573.09
413.86	587.43
414.068	669.34
414.276	700.06
414.485	655.01
414.693	732.83
414.901	757.41
415.11	822.94
415.318	741.02
415.526	835.23
415.734	779.93
415.943	962.2
416.151	947.87
416.359	913.05
416.567	913.05
416.776	1035.93
416.984	1085.08
417.192	1050.27
417.4	1091.23
417.608	1042.07
417.817	1177.24
418.025	1273.5
418.233	1314.45
418.441	1250.97
418.649	1250.97
418.857	1379.99
419.065	1406.61
419.273	1474.2
419.481	1535.64
419.689	1511.06
419.897	1588.88
420.105	1728.14
420.313	1789.58
420.521	1762.96
420.729	1781.39
420.937	1820.3
421.145	1914.51
421.353	2027.15
421.561	2141.83
421.769	2166.41
421.977	2233.99
422.185	2182.79
422.393	2309.77
422.601	2420.36
422.809	2485.89
423.017	2596.48
423.224	2643.59
423.432	2688.64
423.64	2768.51
423.848	3010.17
424.056	2961.02
424.263	3176.06
424.471	3102.33
424.679	3178.11
424.887	3399.29
425.094	3430.01
425.302	3341.94
425.51	3690.1
425.718	3774.07
425.925	3804.78
426.133	3845.74
426.341	4058.73
426.548	4290.15
426.756	4302.44
426.964	4271.72
427.171	4525.67
427.379	4738.66
427.586	4916.83
427.794	4918.88
428.001	5150.3
428.209	5328.47
428.417	5224.03
428.624	5559.89
428.832	5547.61
429.039	5639.76
429.247	5635.67
429.454	6231.63
429.662	6430.28
429.869	6026.83
430.076	6551.11
430.284	6346.31
430.491	6710.85
430.699	6950.46
430.906	6921.79
431.114	7009.86
431.321	7456.31
431.528	7605.81
431.736	8052.27
431.943	8474.15
432.15	8017.46
432.358	8306.22
432.565	8848.93
432.772	8803.88
432.979	8945.19
433.187	9227.81
433.394	9508.38
433.601	9981.46
433.808	9856.53
434.016	9803.29
434.223	10227.21
434.43	10874.37
434.637	10733.06
434.844	11326.97
435.052	11496.96
435.259	11505.15
435.466	11316.73
435.673	11396.6
435.88	12223.98
436.087	12801.51
436.294	12842.47
436.501	12502.51
436.708	12797.42
436.915	13280.74
437.122	13815.26
437.329	13835.74
437.537	14122.45
437.743	14501.33
437.95	14484.94
438.157	15134.15
438.364	15777.21
438.571	15406.53
438.778	15420.86
438.985	16872.87
439.192	16494
439.399	17094.05
439.606	16518.57
439.813	17565.09
440.02	18640.27
440.227	18156.95
440.433	18226.58
440.64	18691.47
440.847	18529.68
441.054	19008.9
441.261	20075.9
441.467	19844.48
441.674	20346.23
441.881	20960.62
442.088	20841.84
442.294	20852.08
442.501	21151.08
442.708	21747.04
442.914	22496.6
443.121	23475.52
443.328	22975.82
443.534	24563
443.741	24053.05
443.948	23506.24
444.154	25009.45
444.361	24796.46
444.568	25056.56
444.774	25136.43
444.981	25517.35
445.187	26293.53
445.394	27254.03
445.6	27102.48
445.807	29437.16
446.013	28517.62
446.22	28806.39
446.426	30299.36
446.633	30076.13
446.839	31245.52
447.046	30047.46
447.252	31587.53
447.459	31446.22
447.665	31472.84
447.871	32982.2
448.078	34225.31
448.284	32582.84
448.491	33676.46
448.697	34397.34
448.903	35146.9
449.11	35597.45
449.316	34911.38
449.522	35429.52
449.728	36856.95
449.935	36658.3
450.141	36373.63
450.347	37661.8
450.553	36125.83
450.76	36621.44
450.966	37923.94
451.172	37254.26
451.378	38769.76
451.584	37598.32
451.791	38859.87
451.997	38259.81
452.203	39246.93
452.409	38798.43
452.615	39113.81
452.821	37592.17
453.027	36936.82
453.233	39167.06
453.44	37512.3
453.646	38169.7
453.852	38300.77
454.058	38716.51
454.264	37352.56
454.47	38421.6
454.676	37235.83
454.882	38663.26
455.088	35675.27
455.294	36230.27
455.5	36287.62
455.705	36693.11
455.911	35411.09
456.117	34487.45
456.323	34256.03
456.529	32476.35
456.735	33946.79
456.941	33092.79
457.147	32443.58
457.352	31335.63
457.558	31261.9
457.764	31177.93
457.97	30487.77
458.176	29811.94
458.381	30153.95
458.587	28521.72
458.793	28689.65
458.999	27059.47
459.204	28779.76
459.41	27909.38
459.616	26598.68
459.821	26379.54
460.027	26395.93
460.233	25902.37
460.438	24550.71
460.644	24886.57
460.85	23680.32
461.055	23182.66
461.261	23285.06
461.466	21230.95
461.672	20872.56
461.878	22265.17
462.083	20974.95
462.289	20518.26
462.494	20393.33
462.7	19574.14
462.905	18802.06
463.111	19611.01
463.316	19424.64
463.522	19117.45
463.727	19158.41
463.932	19244.42
464.138	19090.82
464.343	18838.92
464.549	18492.82
464.754	19156.36
464.959	18879.88
465.165	18541.97
465.37	17814.94
465.575	17317.28
465.781	17989.02
465.986	18361.75
466.191	17634.72
466.397	17481.12
466.602	16426.42
466.807	17253.8
467.012	17272.23
467.218	16993.7
467.423	16926.12
467.628	16952.74
467.833	17749.4
468.038	16930.22
468.244	16530.86
468.449	16971.18
468.654	16731.56
468.859	16485.81
469.064	16256.43
469.269	15705.53
469.474	15656.38
469.679	16090.55
469.885	15510.97
470.09	15967.67
470.295	15668.67
470.5	15640
470.705	15619.52
470.91	15111.62
471.115	15125.96
471.32	15418.82
471.525	15291.84
471.73	14685.64
471.935	14511.57
472.139	14249.43
472.344	14648.78
472.549	14097.88
472.754	14314.96
472.959	13968.85
473.164	13614.55
473.369	13420
473.574	13678.04
473.778	13637.08
473.983	13575.64
474.188	13577.69
474.393	13045.22
474.598	13049.32
474.802	12774.89
475.007	12738.02
475.212	12897.77
475.417	12510.7
475.621	12389.87
475.826	12393.97
476.031	12160.5
476.235	11808.25
476.44	12017.14
476.645	11761.14
476.849	11873.78
477.054	11660.79
477.259	11462.14
477.463	11480.57
477.668	11267.58
477.872	11456
478.077	11128.32
478.282	11105.79
478.486	10886.66
478.691	10817.03
478.895	10853.89
479.1	10894.85
479.304	10712.58
479.509	10712.58
479.713	10642.95
479.918	10341.9
480.122	10292.75
480.326	10235.41
480.531	10515.98
480.735	10255.89
480.94	10212.88
481.144	10364.43
481.348	9909.78
481.553	10153.49
481.757	9803.29
481.961	10219.02
482.166	10319.37
482.37	10077.71
482.574	10014.23
482.778	10046.99
482.983	10253.84
483.187	10153.49
483.391	9868.82
483.595	9958.93
483.8	9811.48
484.004	9952.79
484.208	10200.59
484.412	9936.4
484.616	9977.36
484.821	9907.73
485.025	9803.29
485.229	9973.27
485.433	9903.64
485.637	9817.62
485.841	9813.52
486.045	9817.62
486.249	9821.72
486.453	9772.57
486.657	9979.41
486.861	9838.1
487.065	9487.9
487.269	9920.02
487.473	9788.95
487.677	10063.38
487.881	10079.76
488.085	9915.92
488.289	10022.42
488.493	9920.02
488.697	10073.62
488.901	10262.03
489.105	10059.28
489.309	10325.52
489.512	10165.78
489.716	9934.36
489.92	9983.51
490.124	9926.16
490.328	10325.52
490.531	10165.78
490.735	10241.55
490.939	10436.11
491.143	9950.74
491.346	10098.19
491.55	10464.78
491.754	10397.2
491.958	10587.66
492.161	10536.46
492.365	10372.62
492.569	10501.64
492.772	10558.99
492.976	10591.75
493.18	10712.58
493.383	10636.81
493.587	10776.07
493.79	10706.44
493.994	10735.11
494.197	10939.91
494.401	11097.6
494.605	11044.35
494.808	11197.95
495.012	11277.82
495.215	11466.24
495.419	11236.86
495.622	11163.14
495.825	11402.75
496.029	11539.96
496.232	11730.42
496.436	11689.46
496.639	11988.47
496.843	12049.91
497.046	12326.38
497.249	12250.61
497.453	12525.04
497.656	12398.06
497.859	12555.76
498.063	12774.89
498.266	13053.41
498.469	12953.06
498.673	13041.12
498.876	13077.99
499.079	13045.22
499.282	13370.85
499.485	13739.48
499.689	13809.11
499.892	13997.53
500.095	13940.18
500.298	14222.8
500.501	14013.91
500.705	14204.37
500.908	14759.37
501.111	14974.41
501.314	15058.37
501.517	15228.35
501.72	15414.72
501.923	15441.34
502.126	15549.89
502.329	16029.11
502.532	15863.22
502.735	16092.6
502.938	16426.42
503.141	16405.94
503.344	16825.77
503.547	16717.23
503.75	16754.09
503.953	17198.5
504.156	17167.78
504.359	17792.41
504.562	17421.73
504.765	17827.23
504.968	17997.21
505.17	18378.13
505.373	18414.99
505.576	18634.13
505.779	18783.63
505.982	19037.58
506.185	19623.3
506.387	19295.62
506.59	19692.93
506.793	19983.74
506.996	19803.52
507.198	20647.28
507.401	20286.84
507.604	20645.23
507.807	21040.49
508.009	21036.39
508.212	21415.27
508.415	21575.01
508.617	21779.81
508.82	22050.14
509.022	21720.42
509.225	22371.67
509.428	22388.05
509.63	22621.52
509.833	22779.22
510.035	23448.9
510.238	23084.36
510.44	23346.5
510.643	24012.09
510.845	23915.84
511.048	23995.71
511.25	24538.42
511.453	24761.65
511.655	25457.96
511.858	24950.06
512.06	25146.67
512.262	25664.8
512.465	25644.32
512.667	26166.56
512.87	26232.09
513.072	26121.5
513.274	26664.21
513.477	26750.23
513.679	27086.09
513.881	27596.04
514.084	27837.7
514.286	27452.68
514.488	28079.36
514.69	28693.75
514.893	28835.06
515.095	28796.15
515.297	29349.1
515.499	29410.54
515.701	29603.05
515.904	30045.41
516.106	30018.78
516.308	30285.02
516.51	30842.07
516.712	30825.68
516.914	31239.37
517.116	31821
517.318	31900.87
517.52	31898.82
517.722	32265.41
517.925	32670.9
518.127	32490.68
518.329	33230
518.531	33184.94
518.733	33744.04
518.935	34290.85
519.136	33819.81
519.338	34481.31
519.54	34469.02
519.742	34890.9
519.944	34819.22
520.146	35583.12
520.348	35802.25
520.55	35839.11
520.752	36195.46
520.954	36867.19
521.155	36435.07
521.357	36754.55
521.559	37016.69
521.761	37608.56
521.963	37440.62
522.164	37477.49
522.366	37960.81
522.568	38392.93
522.77	38515.81
522.971	39144.53
523.173	38704.22
523.375	39031.9
523.576	39228.5
523.778	39644.24
523.98	40016.97
524.181	39818.32
524.383	40152.13
524.584	40539.2
524.786	40455.23
524.988	40617.02
525.189	41401.39
525.391	41059.38
525.592	41532.46
525.794	41614.38
525.995	41352.24
526.197	41739.31
526.398	41890.86
526.6	41899.05
526.801	42689.57
527.003	42292.26
527.204	42570.79
527.406	42865.69
527.607	42769.44
527.808	43244.57
528.01	42593.31
528.211	42814.49
528.412	43803.66
528.614	43465.75
528.815	43686.93
529.016	43639.82
529.218	43385.88
529.419	43449.36
529.62	43885.58
529.822	43809.81
530.023	44117
530.224	43977.74
530.425	44069.9
530.626	43893.77
530.828	43457.56
531.029	44536.84
531.23	44108.81
531.431	44329.99
531.632	44751.87
531.833	44696.58
532.035	44088.33
532.236	44735.49
532.437	45251.58
532.638	44246.02
532.839	44397.57
533.04	44801.02
533.241	44409.86
533.442	45437.94
533.643	44948.48
533.844	44784.64
534.045	45050.88
534.246	44407.81
534.447	45353.97
534.648	44602.37
534.849	44852.22
535.05	44618.75
535.251	45022.2
535.451	45081.59
535.652	44803.07
535.853	44831.74
536.054	45022.2
536.255	45597.68
536.456	44639.23
536.657	45663.22
536.857	44841.98
537.058	45104.12
537.259	45364.21
537.46	44850.17
537.66	44626.95
537.861	45245.43
538.062	44856.32
538.263	44993.53
538.463	44682.24
538.664	44864.51
538.865	45394.93
539.065	45233.14
539.266	44710.91
539.466	45227
539.667	44749.82
539.868	45282.3
540.068	44950.52
540.269	44495.88
540.469	45065.21
540.67	44661.76
540.87	44674.05
541.071	44710.91
541.271	45032.44
541.472	44829.69
541.672	44418.05
541.873	44383.24
542.073	44432.39
542.274	45235.19
542.474	44837.89
542.675	44735.49
542.875	45046.78
543.075	44942.33
543.276	44626.95
543.476	45177.85
543.676	44569.6
543.877	45210.62
544.077	44831.74
544.277	44536.84
544.478	44323.85
544.678	45038.59
544.878	44606.47
545.078	44407.81
545.279	44536.84
545.479	44211.21
545.679	44639.23
545.879	44788.74
546.079	44426.24
546.28	44413.96
546.48	43697.17
546.68	44602.37
546.88	44577.79
547.08	44809.21
547.28	44268.55
547.48	44215.3
547.68	44606.47
547.88	44059.66
548.081	44590.08
548.281	44405.77
548.481	44426.24
548.681	44803.07
548.881	44499.97
549.081	44647.43
549.28	44448.77
549.48	44780.54
549.68	44450.82
549.88	44981.24
550.08	44491.78
550.28	44375.05
550.48	44436.48
550.68	44880.89
550.88	44086.28
551.08	44067.85
551.279	44243.98
551.479	44071.95
551.679	44555.27
551.879	44344.33
552.079	44563.46
552.278	43875.34
552.478	44397.57
552.678	44313.61
552.878	44172.3
553.077	44010.51
553.277	44233.74
553.477	44704.77
553.676	43998.22
553.876	44354.57
554.076	43947.02
554.275	43748.37
554.475	43682.83
554.674	44248.07
554.874	43873.29
555.074	43949.07
555.273	43797.52
555.473	44104.71
555.672	43230.23
555.872	43584.53
556.071	44055.56
556.271	43826.19
556.47	43447.32
556.67	43217.94
556.869	43207.7
557.068	43408.4
557.268	43219.99
557.467	43605.01
557.667	43164.7
557.866	43050.01
558.065	43357.21
558.265	43047.96
558.464	42544.16
558.663	43715.6
558.863	43115.54
559.062	43471.89
559.261	42452
559.461	43465.75
559.66	42576.93
559.859	42791.97
560.058	42480.67
560.258	42794.01
560.457	42314.79
560.656	42521.63
560.855	42669.09
561.054	42951.71
561.253	42703.9
561.453	42646.56
561.652	42134.57
561.851	42626.08
562.05	42413.09
562.249	41935.91
562.448	42877.98
562.647	42269.73
562.846	42089.51
563.045	42060.84
563.244	41620.53
563.443	42277.93
563.642	41479.22
563.841	41952.3
564.04	41856.04
564.239	42339.36
564.438	41292.85
564.637	41657.39
564.836	41630.77
565.035	41047.1
565.234	41647.15
565.432	41141.3
565.631	41036.86
565.83	41522.23
566.029	41002.04
566.228	40739.9
566.427	41210.93
566.625	40883.26
566.824	40518.72
567.023	40752.19
567.222	40537.15
567.42	40991.8
567.619	40440.9
567.818	40404.03
568.016	40455.23
568.215	40756.28
568.414	40584.26
568.612	40348.74
568.811	39822.41
569.01	39562.32
569.208	39713.87
569.407	39935.05
569.605	39509.07
569.804	40143.94
570.002	39464.02
570.201	40002.63
570.4	39783.5
570.598	38999.13
570.797	38954.07
570.995	39324.75
571.193	39087.19
571.392	39328.85
571.59	39165.01
571.789	39248.98
571.987	38521.95
572.186	38861.91
572.384	38308.96
572.582	38773.85
572.781	38659.16
572.979	38059.11
573.177	38493.28
573.376	38198.37
573.574	37905.51
573.772	38104.17
573.971	37833.83
574.169	37969
574.367	37454.96
574.565	37989.48
574.763	37799.02
574.962	37561.45
575.16	36775.03
575.358	37340.27
575.556	36990.07
575.754	37514.35
575.952	36883.58
576.151	37213.3
576.349	36560
576.547	36910.2
576.745	37033.08
576.943	36848.76
577.141	36732.03
577.339	36957.3
577.537	36600.96
577.735	36398.21
577.933	36412.54
578.131	36314.24
578.329	36193.41
578.527	36027.52
578.725	35673.23
578.923	36078.72
579.121	35961.99
579.319	35755.15
579.516	35617.93
579.714	36197.51
579.912	35493.01
580.11	35601.55
580.308	35632.27
580.506	35351.7
580.704	34712.73
580.901	34835.61
581.099	35069.08
581.297	34456.73
581.495	34641.05
581.692	35290.26
581.89	34663.58
582.088	34993.3
582.285	34221.22
582.483	34897.05
582.681	34579.61
582.878	34477.21
583.076	33727.66
583.274	34520.22
583.471	33713.32
583.669	33946.79
583.866	33879.21
584.064	33967.27
584.262	33500.33
584.459	33871.01
584.657	33709.22
584.854	33510.57
585.052	33037.49
585.249	33391.79
585.447	33248.43
585.644	33098.93
585.841	33248.43
586.039	33320.11
586.236	32627.9
586.434	32992.44
586.631	32967.86
586.828	32521.4
587.026	32601.27
587.223	32789.69
587.42	32261.31
587.618	32388.28
587.815	32531.64
588.012	32019.65
588.21	31966.4
588.407	31904.96
588.604	31515.85
588.801	31640.78
588.999	31653.06
589.196	31646.92
589.393	31368.4
589.59	31118.54
589.787	31401.16
589.984	31331.53
590.182	31042.77
590.379	31309
590.576	30901.46
590.773	30663.89
590.97	30868.69
591.167	30715.09
591.364	30692.57
591.561	31100.11
591.758	30325.98
591.955	30323.93
592.152	30416.09
592.349	30094.56
592.546	30004.45
592.743	30131.42
592.94	29924.58
593.137	29961.44
593.334	30242.01
593.531	29727.97
593.727	29857
593.924	29586.66
594.121	29279.47
594.318	29684.97
594.515	29441.26
594.712	29730.02
594.908	29476.07
595.105	29080.81
595.302	28867.83
595.499	29025.52
595.696	28941.55
595.892	28720.37
596.089	28703.99
596.286	28523.77
596.482	28437.75
596.679	28321.02
596.876	28613.88
597.072	28501.24
597.269	28632.31
597.466	27917.57
597.662	28155.13
597.859	27917.57
598.055	28116.22
598.252	27882.75
598.448	27776.26
598.645	27858.18
598.841	27262.22
599.038	27446.54
599.234	27520.26
599.431	27288.84
599.627	27055.37
599.824	27153.68
600.02	27114.76
600.217	27481.35
600.413	27036.94
600.609	26922.26
600.806	27102.48
601.002	27022.61
601.198	26475.8
601.395	26619.16
601.591	26557.72
601.787	26395.93
601.984	26205.47
602.18	26604.82
602.376	26066.2
602.572	25978.14
602.769	26193.18
602.965	25892.13
603.161	25906.46
603.357	25677.09
603.553	25824.54
603.75	25652.52
603.946	25740.58
604.142	25765.15
604.338	25296.17
604.534	25453.86
604.73	25394.47
604.926	25285.93
605.122	25066.8
605.318	24974.64
605.514	24763.7
605.71	24880.43
605.906	24905.01
606.102	24767.79
606.298	24880.43
606.494	24952.11
606.69	24649.01
606.886	24708.4
607.082	24274.23
607.278	24696.11
607.474	24053.05
607.67	24558.9
607.866	24063.29
608.062	24563
608.257	24171.83
608.453	24270.14
608.649	24360.25
608.845	23526.72
609.041	24038.72
609.236	23795.01
609.432	24137.02
609.628	23797.06
609.824	23942.46
610.019	23596.35
610.215	23659.84
610.411	23606.59
610.606	23659.84
610.802	23475.52
610.998	23733.57
611.193	23508.29
611.389	23168.33
611.584	23674.18
611.78	23020.88
611.976	23338.31
612.171	23336.26
612.367	23188.81
612.562	23029.07
612.758	22797.65
612.953	23041.36
613.149	22963.53
613.344	22910.29
613.539	23223.62
613.735	22938.96
613.93	23045.45
614.126	22941
614.321	22842.7
614.517	22873.42
614.712	22705.49
614.907	22771.02
615.103	22811.98
615.298	22508.88
615.493	22627.67
615.688	22228.31
615.884	22865.23
616.079	22392.15
616.274	22412.63
616.47	22467.92
616.665	22185.3
616.86	22265.17
617.055	22021.47
617.25	22056.28
617.445	21894.49
617.641	21568.87
617.836	21771.61
618.031	21486.95
618.226	21927.26
618.421	21566.82
618.616	21927.26
618.811	21589.35
619.006	21624.16
619.201	21355.88
619.396	21267.81
619.591	20835.69
619.786	21288.29
619.981	20919.66
620.176	21079.4
620.371	20819.31
620.566	20886.89
620.761	20485.49
620.956	20757.87
621.151	20520.31
621.346	20764.01
621.541	20540.79
621.735	20497.78
621.93	19946.87
622.125	20184.44
622.32	19737.98
622.515	19998.07
622.709	19772.8
622.904	19707.26
623.099	19645.82
623.294	19633.54
623.488	19316.1
623.683	19455.36
623.878	19338.63
624.072	19277.19
624.267	18980.23
624.462	18879.88
624.656	18937.23
624.851	18781.58
625.046	18761.1
625.24	18726.28
625.435	18486.67
625.629	18185.62
625.824	18367.89
626.018	18316.69
626.213	18017.69
626.407	17864.09
626.602	17745.31
626.796	17993.11
626.991	17663.39
627.185	17745.31
627.38	17550.75
627.574	17436.06
627.768	17399.2
627.963	17139.11
628.157	17290.66
628.352	17335.71
628.546	17026.47
628.74	16985.51
628.935	16637.36
629.129	16561.58
629.323	16745.9
629.517	16756.14
629.712	16338.35
629.906	16244.15
630.1	15994.29
630.294	16373.17
630.489	16186.8
630.683	16342.45
630.877	15797.69
631.071	15871.42
631.265	15877.56
631.459	15732.15
631.653	15470.01
631.848	15431.1
632.042	15443.39
632.236	15373.76
632.43	15185.35
632.624	15187.39
632.818	15185.35
633.012	15003.08
633.206	14931.4
633.4	15056.32
633.594	14642.64
633.788	14826.95
633.982	14865.86
634.176	14573
634.369	14364.11
634.563	14679.5
634.757	14441.93
634.951	14575.05
635.145	14433.74
635.339	14216.66
635.533	14251.47
635.726	14149.07
635.92	14116.31
636.114	14067.16
636.308	13675.99
636.501	13753.82
636.695	13749.72
636.889	13714.91
637.083	13534.68
637.276	13446.62
637.47	13389.28
637.664	13278.69
637.857	13383.13
638.051	13223.39
638.244	13073.89
638.438	13200.87
638.632	13151.71
638.825	12885.48
639.019	12570.09
639.212	12615.15
639.406	12991.97
639.599	12766.7
639.793	12834.28
639.986	12221.94
640.18	12588.52
640.373	12269.04
640.567	12346.86
640.76	12254.7
640.954	12258.8
641.147	11976.18
641.34	11963.89
641.534	12043.76
641.727	11832.82
641.92	12033.52
642.114	11888.12
642.307	11675.13
642.5	11742.71
642.694	11574.78
642.887	11542.01
643.08	11769.34
643.273	11472.38
643.467	11419.13
643.66	11374.08
643.853	11195.9
644.046	11070.98
644.239	11087.36
644.432	11021.83
644.626	11009.54
644.819	10896.9
645.012	10964.48
645.205	10851.85
645.398	10794.5
645.591	10919.43
645.784	10753.54
645.977	10481.16
646.17	10612.23
646.363	10356.24
646.556	10511.88
646.749	10403.34
646.942	10356.24
647.135	10362.38
647.328	10190.35
647.521	10157.58
647.714	10120.72
647.907	10133.01
648.099	9999.89
648.292	10063.38
648.485	9889.3
648.678	9985.55
648.871	9776.66
649.064	9612.82
649.256	9842.2
649.449	9614.87
649.642	9645.59
649.835	9623.06
650.027	9524.76
650.22	9633.3
650.413	9426.46
650.605	9252.38
650.798	9498.14
650.991	9287.2
651.183	9162.27
651.376	9301.53
651.568	9113.12
651.761	8953.38
651.954	9135.65
652.146	9098.78
652.339	8977.95
652.531	8984.1
652.724	8883.75
652.916	8578.6
653.109	8730.15
653.301	8812.07
653.494	8721.96
653.686	8619.56
653.879	8580.65
654.071	8547.88
654.263	8425
654.456	8502.82
654.648	8425
654.84	8308.27
655.033	8420.91
655.225	8271.4
655.417	8295.98
655.61	8265.26
655.802	8060.46
655.994	8105.52
656.186	8107.57
656.379	7960.11
656.571	7999.02
656.763	7884.34
656.955	7931.44
657.148	7818.8
657.34	7919.15
657.532	7759.41
657.724	7790.13
657.916	7659.06
658.108	7624.25
658.3	7671.35
658.492	7638.58
658.684	7472.7
658.876	7517.75
659.068	7544.38
659.26	7343.67
659.452	7511.61
659.644	7489.08
659.836	7294.52
660.028	7290.43
660.22	7216.7
660.412	7114.3
660.604	7169.6
660.796	7112.25
660.988	7149.12
661.18	7052.86
661.372	6944.32
661.563	7026.24
661.755	6821.44
661.947	6952.51
662.139	6975.04
662.331	6794.82
662.522	6698.56
662.714	6790.72
662.906	6755.91
663.097	6729.28
663.289	6598.21
663.481	6518.34
663.673	6563.4
663.864	6481.48
664.056	6485.58
664.247	6567.49
664.439	6417.99
664.631	6430.28
664.822	6620.74
665.014	6465.1
665.205	6393.42
665.397	6221.39
665.588	6221.39
665.78	6194.76
665.971	6190.67
666.163	6176.33
666.354	6301.26
666.546	6096.46
666.737	6139.47
666.929	6004.3
667.12	6106.7
667.311	5998.16
667.503	6155.85
667.694	5801.55
667.885	5953.1
668.077	5912.14
668.268	5805.65
668.459	5781.07
668.651	5772.88
668.842	5787.22
669.033	5805.65
669.224	5756.5
669.416	5871.19
669.607	5752.4
669.798	5631.57
669.989	5738.07
670.18	5623.38
670.371	5668.44
670.563	5406.3
670.754	5535.32
670.945	5416.54
671.136	5461.59
671.327	5328.47
671.518	5516.89
671.709	5430.87
671.9	5371.48
672.091	5383.77
672.282	5543.51
672.473	5307.99
672.664	5482.07
672.855	5254.75
673.046	5303.9
673.237	5351
673.428	5320.28
673.619	5138.01
673.809	5174.88
674	5168.73
674.191	5201.5
674.382	5025.37
674.573	5211.74
674.764	5148.25
674.954	5228.12
675.145	5113.44
675.336	5017.18
675.527	5062.24
675.717	5008.99
675.908	4951.65
676.099	4916.83
676.289	4943.46
676.48	4884.06
676.671	4947.55
676.861	4834.91
677.052	4773.47
677.243	4826.72
677.433	4785.76
677.624	4963.93
677.814	4865.63
678.005	4877.92
678.195	4812.39
678.386	4816.48
678.576	4642.4
678.767	4779.62
678.957	4939.36
679.148	4796
679.338	4742.75
679.529	4890.21
679.719	4761.19
679.909	4886.11
680.1	4591.2
680.29	4873.82
680.481	4583.01
680.671	4623.97
680.861	4626.02
681.052	4626.02
681.242	4593.25
681.432	4652.64
681.622	4529.77
681.813	4658.79
682.003	4513.38
682.193	4462.18
682.383	4617.83
682.573	4439.65
682.764	4542.05
682.954	4419.18
683.144	4382.31
683.334	4421.22
683.524	4359.78
683.714	4382.31
683.904	4390.5
684.094	4544.1
684.284	4367.98
684.474	4499.05
684.664	4140.65
684.854	4337.26
685.044	4259.43
685.234	4300.39
685.424	4277.87
685.614	4216.43
685.804	4312.68
685.994	4202.09
686.184	4353.64
686.374	4214.38
686.564	4167.28
686.753	4191.85
686.943	4124.27
687.133	4185.71
687.323	4181.61
687.513	4279.91
687.702	4050.54
687.892	4099.69
688.082	4083.31
688.272	4040.3
688.461	4050.54
688.651	4150.89
688.841	3946.09
689.03	3913.33
689.22	3948.14
689.41	3931.76
689.599	3972.72
689.789	3866.22
689.979	3864.18
690.168	3866.22
690.358	3923.57
690.547	3868.27
690.737	3759.73
690.926	3845.74
691.116	3722.87
691.305	3784.3
691.495	3821.17
691.684	3657.33
691.874	3776.11
692.063	3882.61
692.252	3749.49
692.442	3788.4
692.631	3636.85
692.82	3585.65
693.01	3577.46
693.199	3726.96
693.388	3501.69
693.578	3673.71
693.767	3657.33
693.956	3511.93
694.146	3604.08
694.335	3411.57
694.524	3632.76
694.713	3636.85
694.902	3485.3
695.092	3505.78
695.281	3325.56
695.47	3464.82
695.659	3423.86
695.848	3419.77
696.037	3423.86
696.226	3372.66
696.415	3503.73
696.604	3399.29
696.793	3313.27
696.982	3270.26
697.171	3436.15
697.36	3376.76
697.549	3387
697.738	3341.94
697.927	3409.53
698.116	3446.39
698.305	3368.57
698.494	3374.71
698.683	3354.23
698.872	3329.66
699.061	3296.89
699.25	3321.46
699.438	3303.03
699.627	3274.36
699.816	3255.93
700.005	3200.63
700.193	3315.32
700.382	3354.23
700.571	3268.22
700.76	3247.74
700.948	3186.3
701.137	3210.87
701.326	3198.59
701.514	3208.83
701.703	3192.44
701.892	3241.59
702.08	3284.6
702.269	3141.24
702.457	3186.3
702.646	3143.29
702.834	3257.98
703.023	3161.72
703.212	3100.28
703.4	3184.25
703.589	3141.24
703.777	3159.67
703.965	3110.52
704.154	3178.11
704.342	2997.88
704.531	3137.15
704.719	3047.04
704.907	3120.76
705.096	3055.23
705.284	3036.8
705.472	3047.04
705.661	3016.32
705.849	2999.93
706.037	3020.41
706.226	2967.17
706.414	3085.95
706.602	3128.95
706.79	3229.31
706.979	2993.79
707.167	2961.02
707.355	3010.17
707.543	2973.31
707.731	2969.21
707.919	2891.39
708.107	2858.62
708.296	2930.3
708.484	2780.8
708.672	2911.87
708.86	2977.41
709.048	3051.13
709.236	2870.91
709.424	2948.73
709.612	2907.77
709.8	2889.34
709.988	2854.53
710.176	2981.5
710.364	2936.45
710.551	2858.62
710.739	2731.65
710.927	2750.08
711.115	2870.91
711.303	2797.18
711.491	2897.53
711.679	2725.51
711.866	2889.34
712.054	2731.65
712.242	2733.7
712.43	2829.95
712.617	2797.18
712.805	2758.27
712.993	2801.28
713.181	2723.46
713.368	2633.35
713.556	2733.7
713.744	2768.51
713.931	2764.42
714.119	2858.62
714.306	2854.53
714.494	2725.51
714.682	2731.65
714.869	2793.09
715.057	2700.93
715.244	2748.03
715.432	2729.6
715.619	2686.59
715.807	2702.98
715.994	2752.13
716.182	2666.11
716.369	2735.74
716.556	2739.84
716.744	2801.28
716.931	2735.74
717.119	2625.15
717.306	2631.3
717.493	2700.93
717.681	2762.37
717.868	2649.73
718.055	2700.93
718.242	2616.96
718.43	2588.29
718.617	2621.06
718.804	2608.77
718.991	2608.77
719.179	2655.87
719.366	2594.44
719.553	2590.34
719.74	2518.66
719.927	2600.58
720.114	2502.28
720.301	2616.96
720.488	2578.05
720.676	2551.43
720.863	2514.56
721.05	2668.16
721.237	2528.9
721.424	2565.76
721.611	2438.79
721.798	2543.24
721.985	2487.94
722.172	2567.81
722.358	2440.84
722.545	2512.52
722.732	2537.09
722.919	2475.65
723.106	2412.17
723.293	2403.97
723.48	2551.43
723.667	2479.75
723.853	2551.43
724.04	2449.03
724.227	2553.48
724.414	2360.97
724.6	2309.77
724.787	2514.56
724.974	2526.85
725.161	2446.98
725.347	2403.97
725.534	2287.24
725.72	2342.53
725.907	2438.79
726.094	2281.1
726.28	2428.55
726.467	2487.94
726.653	2399.88
726.84	2428.55
727.027	2395.78
727.213	2463.37
727.4	2387.59
727.586	2363.01
727.773	2322.06
727.959	2360.97
728.145	2363.01
728.332	2381.45
728.518	2365.06
728.705	2248.33
728.891	2367.11
729.077	2283.14
729.264	2217.61
729.45	2303.62
729.636	2399.88
729.823	2256.52
730.009	2430.6
730.195	2408.07
730.382	2227.85
730.568	2242.18
730.754	2248.33
730.94	2256.52
731.126	2264.71
731.313	2229.9
731.499	2233.99
731.685	2309.77
731.871	2188.94
732.057	2291.34
732.243	2301.58
732.429	2188.94
732.615	2229.9
732.801	2303.62
732.987	2197.13
733.173	2305.67
733.359	2268.81
733.545	2092.68
733.731	2322.06
733.917	2342.53
734.103	2248.33
734.289	2240.14
734.475	2244.23
734.661	2231.94
734.847	2256.52
735.033	2225.8
735.219	2242.18
735.404	2135.69
735.59	2145.93
735.776	2055.82
735.962	2289.29
736.148	2285.19
736.333	2203.27
736.519	2131.59
736.705	2227.85
736.89	2158.22
737.076	2115.21
737.262	2125.45
737.447	2111.11
737.633	2145.93
737.819	2143.88
738.004	2174.6
738.19	2121.35
738.375	2178.7
738.561	2092.68
738.747	2096.78
738.932	2053.77
739.118	2086.54
739.303	2102.92
739.489	2117.26
739.674	1992.33
739.859	2016.91
740.045	1945.23
740.23	2109.07
740.416	1986.19
740.601	2094.73
740.786	2102.92
740.972	2041.48
741.157	2004.62
741.342	2035.34
741.528	2084.49
741.713	1988.24
741.898	1971.85
742.084	2010.76
742.269	1920.65
742.454	1932.94
742.639	1855.12
742.824	1908.37
743.01	1879.69
743.195	1939.09
743.38	1836.69
743.565	1904.27
743.75	1932.94
743.935	1871.5
744.12	1885.84
744.305	1855.12
744.49	1785.49
744.675	1767.06
744.86	1871.5
745.045	1871.5
745.23	1795.73
745.415	1758.86
745.6	1752.72
745.785	1838.73
745.97	1722
746.155	1805.97
746.34	1709.71
746.525	1726.1
746.71	1810.06
746.895	1642.13
747.079	1695.38
747.264	1687.18
747.449	1760.91
747.634	1617.55
747.819	1670.8
748.003	1554.07
748.188	1627.79
748.373	1732.24
748.557	1611.41
748.742	1576.59
748.927	1670.8
749.111	1584.79
749.296	1568.4
749.481	1584.79
749.665	1552.02
749.85	1451.67
750.034	1519.25
750.219	1580.69
750.404	1490.58
750.588	1535.64
750.773	1478.29
750.957	1468.05
751.141	1545.88
751.326	1537.68
751.51	1480.34
751.695	1388.18
751.879	1418.9
752.064	1394.33
752.248	1349.27
752.432	1445.52
752.617	1404.57
752.801	1449.62
752.985	1379.99
753.17	1361.56
753.354	1443.48
753.538	1283.74
753.722	1330.84
753.907	1310.36
754.091	1289.88
754.275	1351.32
754.459	1332.89
754.643	1273.5
754.828	1279.64
755.012	1302.17
755.196	1248.92
755.38	1240.73
755.564	1289.88
755.748	1169.05
755.932	1373.85
756.116	1134.23
756.3	1248.92
756.484	1220.25
756.668	1226.39
756.852	1117.85
757.036	1207.96
757.22	1134.23
757.404	1193.62
757.588	1169.05
757.772	1138.33
757.956	1224.34
758.14	1085.08
758.323	1128.09
758.507	1087.13
758.691	1058.46
758.875	1105.56
759.059	1111.71
759.242	1107.61
759.426	1072.79
759.61	1087.13
759.794	1099.42
759.977	1085.08
760.161	1093.27
760.345	1064.6
760.528	1052.31
760.712	1005.21
760.895	1076.89
761.079	945.82
761.263	984.73
761.446	937.63
761.63	1019.55
761.813	1023.64
761.997	1046.17
762.18	966.3
762.364	1027.74
762.547	929.44
762.731	1027.74
762.914	962.2
763.098	1054.36
763.281	949.92
763.464	978.59
763.648	949.92
763.831	919.2
764.015	937.63
764.198	847.52
764.381	939.68
764.564	884.38
764.748	978.59
764.931	913.05
765.114	966.3
765.297	913.05
765.481	904.86
765.664	892.57
765.847	857.76
766.03	863.9
766.213	822.94
766.397	925.34
766.58	941.72
766.763	935.58
766.946	833.18
767.129	851.61
767.312	855.71
767.495	880.29
767.678	888.48
767.861	773.79
768.044	734.88
768.227	822.94
768.41	976.54
768.593	781.98
768.776	855.71
768.959	775.84
769.142	792.22
769.324	904.86
769.507	814.75
769.69	734.88
769.873	839.33
770.056	796.32
770.239	763.55
770.421	913.05
770.604	765.6
770.787	786.08
770.97	773.79
771.152	800.41
771.335	841.37
771.518	741.02
771.7	777.89
771.883	859.81
772.066	736.93
772.248	691.87
772.431	773.79
772.613	683.68
772.796	824.99
772.978	794.27
773.161	841.37
773.343	652.96
773.526	745.12
773.708	732.83
773.891	734.88
774.073	708.26
774.256	683.68
774.438	802.46
774.621	679.58
774.803	741.02
774.985	700.06
775.168	784.03
775.35	536.23
775.532	714.4
775.715	728.74
775.897	671.39
776.079	655.01
776.261	573.09
776.444	659.1
776.626	609.95
776.808	648.86
776.99	710.3
777.173	525.99
777.355	593.57
777.537	630.43
777.719	638.62
777.901	585.38
778.083	587.43
778.265	634.53
778.447	552.61
778.629	628.39
778.811	628.39
778.993	612
779.175	575.14
779.357	601.76
779.539	593.57
779.721	466.6
779.903	597.67
780.085	536.23
780.267	435.88
780.449	530.08
780.631	538.27
780.812	519.84
780.994	538.27
781.176	585.38
781.358	487.08
781.54	448.16
781.721	620.19
781.903	499.36
782.085	464.55
782.267	497.32
782.448	421.54
782.63	444.07
782.812	437.92
782.993	548.51
783.175	497.32
783.357	458.4
783.538	538.27
783.72	458.4
783.901	368.29
784.083	446.12
784.264	454.31
784.446	442.02
784.627	405.16
784.809	470.69
784.99	423.59
785.172	421.54
785.353	456.36
785.535	388.77
785.716	396.96
785.897	409.25
786.079	331.43
786.26	409.25
786.441	382.63
786.623	493.22
786.804	376.48
786.985	370.34
787.167	304.81
787.348	347.81
787.529	366.25
787.71	392.87
787.891	405.16
788.073	372.39
788.254	284.33
788.435	421.54
788.616	345.77
788.797	319.14
788.978	419.49
789.159	366.25
789.34	409.25
789.522	413.35
789.703	339.62
789.884	464.55
790.065	317.09
790.246	335.53
790.427	278.18
790.607	372.39
790.788	388.77
790.969	286.37
791.15	306.85
791.331	265.89
791.512	310.95
791.693	315.05
791.874	284.33
792.054	392.87
792.235	380.58
792.416	341.67
792.597	294.57
792.778	269.99
792.958	356.01
793.139	339.62
793.32	300.71
793.5	251.56
793.681	396.96
793.862	353.96
794.042	269.99
794.223	282.28
794.404	274.09
794.584	212.65
794.765	298.66
794.945	282.28
795.126	356.01
795.306	327.33
795.487	269.99
795.667	265.89
795.848	331.43
796.028	241.32
796.209	224.94
796.389	276.13
796.57	315.05
796.75	192.17
796.93	290.47
797.111	233.13
797.291	208.55
797.471	284.33
797.652	204.46
797.832	282.28
798.012	212.65
798.192	249.51
798.373	208.55
798.553	167.59
798.733	192.17
798.913	243.37
799.093	265.89
799.274	302.76
799.454	292.52
799.634	269.99
799.814	218.79
799.994	173.74
800.174	224.94
800.354	249.51
800.534	226.98
800.714	274.09
800.894	290.47
801.074	183.98
801.254	226.98
801.434	222.89
801.614	163.5
801.794	108.2
801.974	822.94
802.154	183.98
802.334	245.41
802.514	188.07
802.693	200.36
802.873	194.22
803.053	306.85
803.233	192.17
803.413	159.4
803.592	128.68
803.772	208.55
803.952	192.17
804.131	145.06
804.311	181.93
804.491	222.89
804.67	163.5
804.85	245.41
805.03	269.99
805.209	186.02
805.389	169.64
805.568	200.36
805.748	237.22
805.928	220.84
806.107	253.61
806.287	231.08
806.466	175.78
806.646	233.13
806.825	138.92
807.004	169.64
807.184	190.12
807.363	126.63
807.543	167.59
807.722	200.36
807.901	177.83
808.081	155.3
808.26	122.54
808.439	177.83
808.619	220.84
808.798	179.88
808.977	214.7
809.156	147.11
809.336	169.64
809.515	183.98
809.694	181.93
809.873	130.73
810.052	171.69
810.231	126.63
810.411	161.45
810.59	145.06
810.769	233.13
810.948	102.06
811.127	102.06
811.306	183.98
811.485	188.07
811.664	159.4
811.843	167.59
812.022	143.02
812.201	130.73
812.38	134.82
812.559	140.97
812.737	134.82
812.916	120.49
813.095	102.06
813.274	159.4
813.453	126.63
813.632	151.21
813.811	143.02
813.989	71.34
814.168	118.44
814.347	100.01
814.526	134.82
814.704	188.07
814.883	147.11
815.062	91.82
815.24	112.3
815.419	87.72
815.598	167.59
815.776	114.34
815.955	118.44
816.133	95.91
816.312	118.44
816.49	65.19
816.669	102.06
816.847	85.67
817.026	204.46
817.204	52.91
817.383	163.5
817.561	163.5
817.74	224.94
817.918	163.5
818.097	97.96
818.275	151.21
818.453	93.87
818.632	175.78
818.81	95.91
818.988	118.44
819.167	153.26
819.345	179.88
819.523	106.15
819.701	147.11
819.879	95.91
820.058	175.78
820.236	104.11
820.414	167.59
820.592	87.72
820.77	118.44
820.948	110.25
821.127	171.69
821.305	169.64
821.483	22.19
821.661	79.53
821.839	151.21
822.017	28.33
822.195	122.54
822.373	143.02
822.551	100.01
822.729	118.44
822.907	52.91
823.085	20.14
823.262	65.19
823.44	155.3
823.618	95.91
823.796	122.54
823.974	87.72
824.152	71.34
824.329	106.15
824.507	79.53
824.685	93.87
824.863	69.29
825.04	28.33
825.218	100.01
825.396	77.48
825.574	73.39
825.751	122.54
825.929	128.68
826.107	91.82
826.284	128.68
826.462	87.72
826.639	120.49
826.817	40.62
826.994	81.58
827.172	13.99
827.349	169.64
827.527	67.24
827.704	116.39
827.882	71.34
828.059	-0.34
828.237	42.67
828.414	79.53
828.591	38.57
828.769	147.11
828.946	122.54
829.124	163.5
829.301	42.67
829.478	52.91
829.655	100.01
829.833	155.3
830.01	63.15
830.187	143.02
830.364	75.43
830.542	69.29
830.719	147.11
830.896	112.3
831.073	52.91
831.25	110.25
831.427	38.57
831.604	59.05
831.782	110.25
831.959	134.82
832.136	75.43
832.313	95.91
832.49	20.14
832.667	77.48
832.844	89.77
833.021	73.39
833.198	71.34
833.374	116.39
833.551	52.91
833.728	52.91
833.905	93.87
834.082	3.75
834.259	155.3
834.436	57
834.612	91.82
834.789	73.39
834.966	118.44
835.143	46.76
835.319	89.77
835.496	136.87
835.673	122.54
835.85	120.49
836.026	36.52
836.203	126.63
836.38	20.14
836.556	22.19
836.733	73.39
836.909	165.54
837.086	71.34
837.262	1.71
837.439	20.14
837.616	16.04
837.792	36.52
837.968	16.04
838.145	3.75
838.321	83.63
838.498	73.39
838.674	71.34
838.851	44.71
839.027	104.11
839.203	65.19
839.38	1.71
839.556	69.29
839.732	87.72
839.909	-4.44
840.085	87.72
840.261	36.52
840.437	65.19
840.614	20.14
840.79	52.91
840.966	65.19
841.142	26.28
841.318	3.75
841.494	77.48
841.671	13.99
841.847	97.96
842.023	24.23
842.199	30.38
842.375	71.34
842.551	9.9
842.727	24.23
842.903	93.87
843.079	-31.06
843.255	28.33
843.431	11.95
843.607	61.1
843.783	11.95
843.959	89.77
844.134	-4.44
844.31	46.76
844.486	-20.82
844.662	44.71
844.838	44.71
845.013	-35.16
845.189	116.39
845.365	22.19
845.541	79.53
845.716	-2.39
845.892	44.71
846.068	-63.83
846.244	-16.73
846.419	46.76
846.595	-49.49
846.77	63.15
846.946	61.1
847.122	-10.58
847.297	16.04
847.473	126.63
847.648	40.62
847.824	16.04
847.999	26.28
848.175	30.38
848.35	52.91
848.526	69.29
848.701	46.76
848.876	104.11
849.052	112.3
849.227	114.34
849.403	20.14
849.578	81.58
849.753	-8.53
849.929	126.63
850.104	-18.77
850.279	13.99
850.454	63.15
850.63	-18.77
850.805	-24.92
850.98	120.49
851.155	63.15
851.33	138.92
851.505	34.47
851.681	71.34
851.856	-35.16
852.031	63.15
852.206	93.87
852.381	46.76
852.556	42.67
852.731	44.71
852.906	83.63
853.081	36.52
853.256	77.48
853.431	-12.63
853.606	93.87
853.781	-26.96
853.956	13.99
854.131	11.95
854.305	36.52
854.48	61.1
854.655	50.86
854.83	-59.73
855.005	28.33
855.18	28.33
855.354	44.71
855.529	38.57
855.704	7.85
855.879	69.29
856.053	30.38
856.228	67.24
856.403	-12.63
856.577	85.67
856.752	28.33
856.926	20.14
857.101	59.05
857.276	28.33
857.45	63.15
857.625	79.53
857.799	3.75
857.974	61.1
858.148	59.05
858.323	69.29
858.497	-0.34
858.672	67.24
858.846	-104.79
859.02	65.19
859.195	7.85
859.369	57
859.543	3.75
859.718	44.71
859.892	22.19
860.066	52.91
860.241	71.34
860.415	-0.34
860.589	-20.82
860.763	40.62
860.938	32.43
861.112	46.76
861.286	-8.53
861.46	30.38
861.634	-6.49
861.808	11.95
861.982	-31.06
862.157	7.85
862.331	-4.44
862.505	61.1
862.679	-94.55
862.853	7.85
863.027	52.91
863.201	71.34
863.375	26.28
863.549	95.91
863.722	50.86
863.896	118.44
864.07	-29.01
864.244	57
864.418	134.82
864.592	63.15
864.766	110.25
864.939	5.8
865.113	-2.39
865.287	85.67
865.461	-10.58
865.634	13.99
865.808	13.99
865.982	32.43
866.156	-24.92
866.329	-18.77
866.503	36.52
866.676	83.63
866.85	40.62
867.024	-10.58
867.197	120.49
867.371	18.09
867.544	79.53
867.718	-20.82
867.891	69.29
868.065	13.99
868.238	3.75
868.412	59.05
868.585	48.81
868.759	5.8
868.932	16.04
869.105	13.99
869.279	95.91
869.452	-4.44
869.625	-45.4
869.799	34.47
869.972	38.57
870.145	28.33
870.319	75.43
870.492	-12.63
870.665	-0.34
870.838	24.23
871.011	-20.82
871.185	28.33
871.358	108.2
871.531	93.87
871.704	-37.2
871.877	-0.34
872.05	75.43
872.223	-16.73
872.396	28.33
872.569	93.87
872.742	-26.96
872.915	38.57
873.088	1.71
873.261	5.8
873.434	7.85
873.607	48.81
873.78	-45.4
873.953	3.75
874.126	11.95
874.299	3.75
874.471	83.63
874.644	75.43
874.817	3.75
874.99	97.96
875.163	79.53
875.335	18.09
875.508	-8.53
875.681	42.67
875.853	40.62
876.026	61.1
876.199	122.54
876.371	-12.63
876.544	11.95
876.717	-0.34
876.889	5.8
877.062	11.95
877.234	11.95
877.407	38.57
877.579	-10.58
877.752	71.34
877.924	22.19
878.097	-29.01
878.269	-94.55
878.442	85.67
878.614	-12.63
878.786	57
878.959	63.15
879.131	-8.53
879.303	7.85
879.476	-10.58
879.648	13.99
879.82	26.28
879.993	52.91
880.165	44.71
880.337	69.29
880.509	69.29
880.681	-78.16
880.854	-8.53
881.026	73.39
881.198	75.43
881.37	57
881.542	61.1
881.714	46.76
881.886	-2.39
882.058	24.23
882.23	54.95
882.402	1.71
882.574	-55.64
882.746	40.62
882.918	-18.77
883.09	-72.02
883.262	44.71
883.434	28.33
883.606	-12.63
883.778	11.95
883.95	87.72
884.122	-29.01
884.293	20.14
884.465	40.62
884.637	110.25
884.809	-22.87
884.98	3.75
885.152	-74.07
885.324	46.76
885.496	36.52
885.667	22.19
885.839	38.57
886.011	3.75
886.182	-4.44
886.354	34.47
886.525	7.85
886.697	136.87
886.869	46.76
887.04	18.09
887.212	50.86
887.383	44.71
887.555	63.15
887.726	77.48
887.897	65.19
888.069	57
888.24	65.19
888.412	13.99
888.583	5.8
888.754	44.71
888.926	46.76
889.097	67.24
889.268	-67.92
889.44	-20.82
889.611	-20.82
889.782	-8.53
889.953	-16.73
890.125	3.75
890.296	16.04
890.467	-43.35
890.638	26.28
890.809	44.71
890.98	-29.01
891.151	-10.58
891.323	54.95
891.494	38.57
891.665	30.38
891.836	46.76
892.007	-51.54
892.178	13.99
892.349	63.15
892.52	-20.82
892.691	18.09
892.862	-0.34
893.032	1.71
893.203	24.23
893.374	-51.54
893.545	40.62
893.716	-78.16
893.887	5.8
894.057	-20.82
894.228	3.75
894.399	40.62
894.57	30.38
894.74	63.15
894.911	-4.44
895.082	77.48
895.253	-12.63
895.423	32.43
895.594	59.05
895.764	81.58
895.935	-35.16
896.106	-43.35
896.276	-2.39
896.447	52.91
896.617	-10.58
896.788	5.8
896.958	-35.16
897.129	24.23
897.299	24.23
897.47	-8.53
897.64	-16.73
897.81	9.9
897.981	63.15
898.151	-12.63
898.322	-4.44
898.492	-20.82
898.662	-53.59
898.832	-0.34
899.003	3.75
899.173	44.71
899.343	-12.63
899.513	-51.54
