Data from USB4F104151__27__14-16-26-893.txt Node

Date: Thu Mar 13 14:16:26 EDT 2025
User: louis
Spectrometer: USB4F10415
Trigger mode: 4
Integration Time (sec): 2.000000E-2
Scans to average: 1
Electric dark correction enabled: true
Nonlinearity correction enabled: false
Boxcar width: 0
XAxis mode: Wavelengths
Number of Pixels in Spectrum: 3648
>>>>>Begin Spectral Data<<<<<
178.204	-117.93
178.424	-117.93
178.644	-117.93
178.864	-140.46
179.084	-150.7
179.304	21.33
179.524	23.38
179.744	-7.34
179.964	9.05
180.184	-9.39
180.404	21.33
180.624	-64.68
180.844	7
181.064	-50.35
181.283	35.67
181.503	2.9
181.723	11.09
181.943	-5.29
182.163	113.49
182.383	-19.63
182.602	11.09
182.822	54.1
183.042	23.38
183.262	29.52
183.482	-11.43
183.701	-11.43
183.921	-31.91
184.141	-11.43
184.361	17.24
184.58	-27.82
184.8	-3.24
185.02	39.76
185.239	29.52
185.459	-1.19
185.679	-7.34
185.898	-1.19
186.118	86.87
186.338	-21.67
186.557	15.19
186.777	-48.3
186.997	-68.78
187.216	9.05
187.436	37.72
187.655	23.38
187.875	45.91
188.095	31.57
188.314	31.57
188.534	54.1
188.753	74.58
188.973	-7.34
189.192	45.91
189.412	35.67
189.631	-13.48
189.851	50
190.07	21.33
190.29	-40.11
190.509	-25.77
190.729	31.57
190.948	25.43
191.168	144.21
191.387	64.34
191.607	-3.24
191.826	-33.96
192.045	-25.77
192.265	50
192.484	-1.19
192.704	-11.43
192.923	-48.3
193.142	54.1
193.362	13.14
193.581	37.72
193.8	45.91
194.02	37.72
194.239	2.9
194.458	4.95
194.678	33.62
194.897	35.67
195.116	-19.63
195.335	90.96
195.555	62.29
195.774	13.14
195.993	13.14
196.212	-9.39
196.432	-19.63
196.651	-29.87
196.87	-23.72
197.089	82.77
197.308	23.38
197.528	-5.29
197.747	-33.96
197.966	15.19
198.185	62.29
198.404	7
198.623	7
198.842	31.57
199.062	66.39
199.281	-44.2
199.5	37.72
199.719	4.95
199.938	29.52
200.157	56.15
200.376	47.96
200.595	29.52
200.814	-19.63
201.033	47.96
201.252	21.33
201.471	-44.2
201.69	45.91
201.909	21.33
202.128	58.2
202.347	4.95
202.566	-15.53
202.785	21.33
203.004	-48.3
203.223	11.09
203.442	13.14
203.661	37.72
203.879	31.57
204.098	-1.19
204.317	13.14
204.536	82.77
204.755	-48.3
204.974	-33.96
205.193	39.76
205.411	54.1
205.63	33.62
205.849	4.95
206.068	4.95
206.287	-27.82
206.505	0.85
206.724	45.91
206.943	0.85
207.162	80.72
207.381	11.09
207.599	13.14
207.818	-11.43
208.037	25.43
208.255	39.76
208.474	58.2
208.693	-66.73
208.911	-7.34
209.13	33.62
209.349	39.76
209.567	25.43
209.786	62.29
210.005	0.85
210.223	13.14
210.442	-36.01
210.661	64.34
210.879	33.62
211.098	45.91
211.316	17.24
211.535	15.19
211.753	41.81
211.972	-7.34
212.191	-19.63
212.409	7
212.628	72.53
212.846	-25.77
213.065	-3.24
213.283	54.1
213.502	-15.53
213.72	-13.48
213.938	72.53
214.157	-44.2
214.375	31.57
214.594	4.95
214.812	4.95
215.031	62.29
215.249	-25.77
215.467	-23.72
215.686	21.33
215.904	37.72
216.122	9.05
216.341	33.62
216.559	-23.72
216.778	45.91
216.996	21.33
217.214	15.19
217.432	13.14
217.651	-40.11
217.869	-7.34
218.087	-58.54
218.306	9.05
218.524	56.15
218.742	23.38
218.96	37.72
219.179	84.82
219.397	27.48
219.615	4.95
219.833	29.52
220.051	-15.53
220.27	13.14
220.488	-17.58
220.706	-50.35
220.924	21.33
221.142	-15.53
221.36	-9.39
221.578	66.39
221.796	13.14
222.015	-7.34
222.233	-21.67
222.451	66.39
222.669	-29.87
222.887	-11.43
223.105	4.95
223.323	-44.2
223.541	11.09
223.759	86.87
223.977	-1.19
224.195	13.14
224.413	-3.24
224.631	15.19
224.849	21.33
225.067	43.86
225.285	21.33
225.503	41.81
225.721	-68.78
225.939	62.29
226.157	33.62
226.375	50
226.592	9.05
226.81	31.57
227.028	39.76
227.246	99.16
227.464	37.72
227.682	29.52
227.9	54.1
228.117	21.33
228.335	-1.19
228.553	-25.77
228.771	11.09
228.989	-7.34
229.206	-33.96
229.424	11.09
229.642	25.43
229.86	-11.43
230.077	-13.48
230.295	15.19
230.513	58.2
230.731	58.2
230.948	37.72
231.166	21.33
231.384	-1.19
231.601	-11.43
231.819	31.57
232.037	50
232.254	-25.77
232.472	56.15
232.689	-9.39
232.907	-19.63
233.125	37.72
233.342	-64.68
233.56	13.14
233.777	29.52
233.995	-9.39
234.213	17.24
234.43	4.95
234.648	-3.24
234.865	-50.35
235.083	21.33
235.3	-38.06
235.518	99.16
235.735	7
235.953	-3.24
236.17	-48.3
236.388	39.76
236.605	56.15
236.822	33.62
237.04	23.38
237.257	-36.01
237.475	-11.43
237.692	64.34
237.909	-5.29
238.127	-5.29
238.344	-5.29
238.562	70.48
238.779	-19.63
238.996	7
239.214	-19.63
239.431	-1.19
239.648	-17.58
239.865	52.05
240.083	15.19
240.3	37.72
240.517	74.58
240.735	-33.96
240.952	27.48
241.169	39.76
241.386	121.68
241.603	-5.29
241.821	-25.77
242.038	52.05
242.255	15.19
242.472	-70.83
242.689	54.1
242.907	29.52
243.124	-68.78
243.341	13.14
243.558	35.67
243.775	-68.78
243.992	-44.2
244.209	0.85
244.426	88.92
244.643	17.24
244.86	-19.63
245.078	4.95
245.295	21.33
245.512	-3.24
245.729	-52.39
245.946	15.19
246.163	4.95
246.38	31.57
246.597	21.33
246.814	-36.01
247.031	58.2
247.248	39.76
247.464	80.72
247.681	43.86
247.898	29.52
248.115	64.34
248.332	0.85
248.549	127.83
248.766	15.19
248.983	37.72
249.2	37.72
249.417	62.29
249.633	33.62
249.85	56.15
250.067	72.53
250.284	-7.34
250.501	-7.34
250.717	25.43
250.934	4.95
251.151	17.24
251.368	17.24
251.585	-13.48
251.801	39.76
252.018	23.38
252.235	-7.34
252.451	-83.11
252.668	-11.43
252.885	-27.82
253.102	-13.48
253.318	62.29
253.535	-23.72
253.752	70.48
253.968	23.38
254.185	39.76
254.401	0.85
254.618	54.1
254.835	72.53
255.051	152.4
255.268	13.14
255.484	-1.19
255.701	-36.01
255.917	74.58
256.134	-29.87
256.351	105.3
256.567	-21.67
256.784	78.68
257	4.95
257.217	-3.24
257.433	-19.63
257.65	7
257.866	37.72
258.082	-7.34
258.299	43.86
258.515	33.62
258.732	-29.87
258.948	4.95
259.165	33.62
259.381	-50.35
259.597	-15.53
259.814	-21.67
260.03	-27.82
260.246	13.14
260.463	-11.43
260.679	33.62
260.895	-27.82
261.112	39.76
261.328	-95.4
261.544	-13.48
261.761	64.34
261.977	23.38
262.193	31.57
262.409	88.92
262.626	13.14
262.842	45.91
263.058	9.05
263.274	45.91
263.49	-7.34
263.707	-5.29
263.923	-3.24
264.139	31.57
264.355	-21.67
264.571	107.35
264.787	56.15
265.004	45.91
265.22	11.09
265.436	56.15
265.652	-154.79
265.868	52.05
266.084	-42.15
266.3	-3.24
266.516	-68.78
266.732	-25.77
266.948	-33.96
267.164	-3.24
267.38	4.95
267.596	52.05
267.812	62.29
268.028	84.82
268.244	-17.58
268.46	-19.63
268.676	-33.96
268.892	21.33
269.108	21.33
269.324	17.24
269.54	29.52
269.756	45.91
269.972	-19.63
270.188	86.87
270.403	-56.49
270.619	41.81
270.835	25.43
271.051	33.62
271.267	-11.43
271.483	-15.53
271.698	17.24
271.914	-17.58
272.13	-7.34
272.346	21.33
272.562	13.14
272.777	66.39
272.993	11.09
273.209	29.52
273.425	-9.39
273.64	-42.15
273.856	-7.34
274.072	62.29
274.287	-13.48
274.503	39.76
274.719	-23.72
274.934	-11.43
275.15	17.24
275.366	-52.39
275.581	-36.01
275.797	2.9
276.012	-19.63
276.228	115.54
276.444	33.62
276.659	68.44
276.875	37.72
277.09	-68.78
277.306	-52.39
277.521	7
277.737	4.95
277.952	41.81
278.168	13.14
278.383	86.87
278.599	-17.58
278.814	7
279.03	-23.72
279.245	23.38
279.461	-52.39
279.676	39.76
279.892	-44.2
280.107	-11.43
280.322	-1.19
280.538	13.14
280.753	-11.43
280.969	74.58
281.184	-1.19
281.399	35.67
281.615	-56.49
281.83	4.95
282.045	-29.87
282.26	-40.11
282.476	4.95
282.691	41.81
282.906	31.57
283.122	9.05
283.337	47.96
283.552	23.38
283.767	-76.97
283.983	23.38
284.198	37.72
284.413	-48.3
284.628	-19.63
284.843	39.76
285.058	103.25
285.274	15.19
285.489	-19.63
285.704	-3.24
285.919	-31.91
286.134	39.76
286.349	21.33
286.564	-13.48
286.779	21.33
286.995	-11.43
287.21	11.09
287.425	21.33
287.64	9.05
287.855	13.14
288.07	7
288.285	-46.25
288.5	33.62
288.715	29.52
288.93	-7.34
289.145	-25.77
289.36	74.58
289.575	52.05
289.79	33.62
290.004	64.34
290.219	-15.53
290.434	-23.72
290.649	-17.58
290.864	111.44
291.079	41.81
291.294	-17.58
291.509	0.85
291.724	86.87
291.938	11.09
292.153	37.72
292.368	-48.3
292.583	-7.34
292.798	43.86
293.012	29.52
293.227	-9.39
293.442	88.92
293.657	62.29
293.871	9.05
294.086	-19.63
294.301	70.48
294.516	74.58
294.73	58.2
294.945	-9.39
295.16	2.9
295.374	35.67
295.589	45.91
295.804	142.16
296.018	-9.39
296.233	-25.77
296.447	70.48
296.662	-3.24
296.877	80.72
297.091	25.43
297.306	-13.48
297.52	0.85
297.735	39.76
297.949	62.29
298.164	-7.34
298.378	0.85
298.593	13.14
298.807	-15.53
299.022	7
299.236	54.1
299.451	72.53
299.665	41.81
299.88	4.95
300.094	-52.39
300.309	29.52
300.523	-40.11
300.737	-27.82
300.952	37.72
301.166	-44.2
301.381	4.95
301.595	-7.34
301.809	17.24
302.024	-7.34
302.238	-7.34
302.452	21.33
302.667	-36.01
302.881	70.48
303.095	47.96
303.309	15.19
303.524	-19.63
303.738	0.85
303.952	-44.2
304.166	-7.34
304.381	25.43
304.595	-31.91
304.809	4.95
305.023	41.81
305.237	-7.34
305.452	11.09
305.666	45.91
305.88	76.63
306.094	-19.63
306.308	-15.53
306.522	-1.19
306.736	-17.58
306.95	-48.3
307.164	41.81
307.379	-29.87
307.593	21.33
307.807	64.34
308.021	-25.77
308.235	37.72
308.449	-64.68
308.663	-3.24
308.877	136.02
309.091	7
309.305	-23.72
309.519	-54.44
309.733	-3.24
309.947	23.38
310.161	58.2
310.374	25.43
310.588	13.14
310.802	23.38
311.016	-5.29
311.23	25.43
311.444	-19.63
311.658	-7.34
311.872	86.87
312.085	68.44
312.299	66.39
312.513	-9.39
312.727	39.76
312.941	66.39
313.154	39.76
313.368	-27.82
313.582	21.33
313.796	-50.35
314.009	45.91
314.223	95.06
314.437	78.68
314.651	23.38
314.864	52.05
315.078	-101.55
315.292	-1.19
315.505	2.9
315.719	-17.58
315.933	-1.19
316.146	4.95
316.36	25.43
316.573	86.87
316.787	-3.24
317.001	-19.63
317.214	17.24
317.428	29.52
317.641	4.95
317.855	7
318.068	13.14
318.282	58.2
318.495	140.12
318.709	0.85
318.922	-11.43
319.136	66.39
319.349	-40.11
319.563	7
319.776	29.52
319.99	-33.96
320.203	-25.77
320.417	-27.82
320.63	66.39
320.843	-11.43
321.057	41.81
321.27	-11.43
321.483	4.95
321.697	45.91
321.91	0.85
322.124	41.81
322.337	-52.39
322.55	0.85
322.763	29.52
322.977	-44.2
323.19	-3.24
323.403	50
323.617	39.76
323.83	45.91
324.043	-9.39
324.256	33.62
324.469	-19.63
324.683	50
324.896	-44.2
325.109	74.58
325.322	-36.01
325.535	127.83
325.748	47.96
325.962	-40.11
326.175	-3.24
326.388	23.38
326.601	4.95
326.814	-54.44
327.027	-1.19
327.24	54.1
327.453	-15.53
327.666	-58.54
327.879	64.34
328.092	2.9
328.305	-33.96
328.518	39.76
328.731	4.95
328.944	11.09
329.157	64.34
329.37	62.29
329.583	52.05
329.796	45.91
330.009	-7.34
330.222	70.48
330.435	56.15
330.648	76.63
330.861	39.76
331.073	4.95
331.286	-7.34
331.499	-17.58
331.712	-9.39
331.925	37.72
332.138	-33.96
332.35	64.34
332.563	78.68
332.776	97.11
332.989	25.43
333.202	45.91
333.414	-11.43
333.627	13.14
333.84	-23.72
334.053	0.85
334.265	-27.82
334.478	29.52
334.691	9.05
334.903	54.1
335.116	54.1
335.329	62.29
335.541	68.44
335.754	-40.11
335.966	-40.11
336.179	-68.78
336.392	47.96
336.604	9.05
336.817	39.76
337.029	58.2
337.242	29.52
337.454	17.24
337.667	-40.11
337.88	97.11
338.092	-19.63
338.305	7
338.517	47.96
338.729	13.14
338.942	68.44
339.154	27.48
339.367	54.1
339.579	-36.01
339.792	-58.54
340.004	-11.43
340.217	11.09
340.429	-36.01
340.641	-50.35
340.854	35.67
341.066	13.14
341.278	56.15
341.491	60.24
341.703	13.14
341.915	37.72
342.128	21.33
342.34	7
342.552	50
342.764	11.09
342.977	29.52
343.189	2.9
343.401	78.68
343.613	56.15
343.826	-17.58
344.038	52.05
344.25	54.1
344.462	101.2
344.674	56.15
344.886	-21.67
345.099	25.43
345.311	105.3
345.523	-31.91
345.735	-9.39
345.947	39.76
346.159	35.67
346.371	-11.43
346.583	9.05
346.795	101.2
347.007	-9.39
347.219	13.14
347.431	-23.72
347.643	19.29
347.855	25.43
348.067	-66.73
348.279	-56.49
348.491	-56.49
348.703	-15.53
348.915	37.72
349.127	-48.3
349.339	54.1
349.551	31.57
349.763	78.68
349.975	17.24
350.187	97.11
350.399	66.39
350.61	58.2
350.822	-52.39
351.034	13.14
351.246	7
351.458	23.38
351.669	-42.15
351.881	-13.48
352.093	78.68
352.305	76.63
352.517	41.81
352.728	21.33
352.94	13.14
353.152	76.63
353.363	-42.15
353.575	41.81
353.787	-9.39
353.999	19.29
354.21	15.19
354.422	-11.43
354.633	15.19
354.845	7
355.057	19.29
355.268	62.29
355.48	33.62
355.692	-11.43
355.903	-23.72
356.115	-19.63
356.326	-42.15
356.538	56.15
356.749	-7.34
356.961	37.72
357.172	47.96
357.384	-81.07
357.595	56.15
357.807	-15.53
358.018	103.25
358.23	17.24
358.441	54.1
358.653	86.87
358.864	-11.43
359.075	-42.15
359.287	97.11
359.498	121.68
359.709	62.29
359.921	-9.39
360.132	9.05
360.344	17.24
360.555	62.29
360.766	50
360.977	25.43
361.189	4.95
361.4	66.39
361.611	72.53
361.823	43.86
362.034	133.97
362.245	-64.68
362.456	105.3
362.667	39.76
362.879	39.76
363.09	103.25
363.301	9.05
363.512	64.34
363.723	7
363.935	-17.58
364.146	33.62
364.357	11.09
364.568	103.25
364.779	-23.72
364.99	7
365.201	54.1
365.412	39.76
365.623	-27.82
365.834	70.48
366.045	21.33
366.256	66.39
366.467	11.09
366.678	47.96
366.889	-23.72
367.1	-3.24
367.311	45.91
367.522	-23.72
367.733	39.76
367.944	-7.34
368.155	13.14
368.366	-19.63
368.577	76.63
368.788	58.2
368.999	-52.39
369.209	58.2
369.42	23.38
369.631	140.12
369.842	47.96
370.053	11.09
370.264	4.95
370.474	-27.82
370.685	27.48
370.896	47.96
371.107	80.72
371.317	109.4
371.528	58.2
371.739	27.48
371.95	17.24
372.16	-9.39
372.371	-33.96
372.582	21.33
372.792	15.19
373.003	-48.3
373.214	-17.58
373.424	7
373.635	-50.35
373.846	13.14
374.056	-9.39
374.267	37.72
374.477	29.52
374.688	50
374.898	60.24
375.109	47.96
375.319	-27.82
375.53	58.2
375.74	99.16
375.951	-19.63
376.161	86.87
376.372	41.81
376.582	103.25
376.793	60.24
377.003	50
377.214	-9.39
377.424	72.53
377.635	29.52
377.845	-40.11
378.055	121.68
378.266	0.85
378.476	37.72
378.686	70.48
378.897	25.43
379.107	23.38
379.317	52.05
379.528	9.05
379.738	39.76
379.948	43.86
380.158	62.29
380.369	23.38
380.579	11.09
380.789	39.76
380.999	103.25
381.21	93.01
381.42	95.06
381.63	4.95
381.84	23.38
382.05	64.34
382.261	64.34
382.471	86.87
382.681	95.06
382.891	29.52
383.101	-17.58
383.311	-27.82
383.521	47.96
383.731	37.72
383.941	45.91
384.151	54.1
384.361	4.95
384.571	99.16
384.781	56.15
384.991	23.38
385.201	43.86
385.411	127.83
385.621	45.91
385.831	70.48
386.041	72.53
386.251	-19.63
386.461	23.38
386.671	-25.77
386.881	47.96
387.091	-3.24
387.301	138.07
387.511	29.52
387.72	86.87
387.93	41.81
388.14	7
388.35	-9.39
388.56	131.92
388.769	27.48
388.979	23.38
389.189	31.57
389.399	86.87
389.609	17.24
389.818	56.15
390.028	58.2
390.238	13.14
390.447	-7.34
390.657	37.72
390.867	17.24
391.076	74.58
391.286	45.91
391.496	62.29
391.705	41.81
391.915	62.29
392.125	54.1
392.334	78.68
392.544	88.92
392.753	-9.39
392.963	82.77
393.172	60.24
393.382	54.1
393.591	45.91
393.801	70.48
394.01	103.25
394.22	86.87
394.429	62.29
394.639	7
394.848	138.07
395.058	56.15
395.267	121.68
395.477	27.48
395.686	43.86
395.895	111.44
396.105	103.25
396.314	45.91
396.524	97.11
396.733	88.92
396.942	154.45
397.152	72.53
397.361	68.44
397.57	7
397.78	-42.15
397.989	97.11
398.198	109.4
398.407	50
398.617	4.95
398.826	101.2
399.035	62.29
399.244	43.86
399.453	37.72
399.663	45.91
399.872	113.49
400.081	80.72
400.29	80.72
400.499	82.77
400.708	23.38
400.917	-21.67
401.127	205.65
401.336	80.72
401.545	123.73
401.754	111.44
401.963	103.25
402.172	90.96
402.381	111.44
402.59	168.79
402.799	133.97
403.008	111.44
403.217	107.35
403.426	90.96
403.635	160.59
403.844	93.01
404.053	113.49
404.262	64.34
404.471	183.12
404.68	136.02
404.888	80.72
405.097	39.76
405.306	111.44
405.515	197.46
405.724	115.54
405.933	213.84
406.142	205.65
406.35	162.64
406.559	93.01
406.768	95.06
406.977	258.9
407.185	146.26
407.394	168.79
407.603	164.69
407.812	160.59
408.02	195.41
408.229	203.6
408.438	224.08
408.646	219.99
408.855	252.75
409.064	219.99
409.272	291.66
409.481	301.9
409.69	179.03
409.898	299.86
410.107	336.72
410.315	340.82
410.524	303.95
410.733	248.66
410.941	332.62
411.15	430.93
411.358	353.1
411.567	342.86
411.775	342.86
411.984	381.78
412.192	373.58
412.401	389.97
412.609	430.93
412.818	541.52
413.026	529.23
413.234	523.09
413.443	465.74
413.651	467.79
413.86	541.52
414.068	535.37
414.276	666.44
414.485	555.85
414.693	615.24
414.901	660.3
415.11	717.64
415.318	734.03
415.526	695.11
415.734	713.55
415.943	820.04
416.151	834.38
416.359	799.56
416.567	721.74
416.776	848.71
416.984	930.63
417.192	889.67
417.4	1014.6
417.608	944.97
417.817	901.96
418.025	1020.74
418.233	1176.39
418.441	1147.72
418.649	987.97
418.857	1160
419.065	1211.2
419.273	1203.01
419.481	1354.56
419.689	1356.61
419.897	1463.1
420.105	1469.25
420.313	1528.64
420.521	1596.22
420.729	1481.53
420.937	1710.91
421.145	1655.61
421.353	1655.61
421.561	1835.83
421.769	1725.24
421.977	1956.66
422.185	1919.8
422.393	2085.69
422.601	2061.11
422.809	2077.49
423.017	2157.36
423.224	2294.58
423.432	2337.59
423.64	2413.36
423.848	2700.08
424.056	2589.49
424.263	2704.17
424.471	2677.55
424.679	2738.99
424.887	2908.97
425.094	3076.9
425.302	3146.53
425.51	3179.3
425.718	3246.88
425.925	3257.12
426.133	3355.43
426.341	3472.16
426.548	3556.13
426.756	3674.91
426.964	3752.73
427.171	3906.33
427.379	4111.13
427.586	4145.94
427.794	4266.77
428.001	4410.13
428.209	4580.11
428.417	4502.29
428.624	4805.39
428.832	4862.73
429.039	4823.82
429.247	4834.06
429.454	5448.45
429.662	5634.82
429.869	5387.01
430.076	5591.81
430.284	5661.44
430.491	5825.28
430.699	6040.31
430.906	6157.05
431.114	6255.35
431.321	6308.6
431.528	6529.78
431.736	6898.41
431.943	7430.88
432.15	6931.18
432.358	7074.54
432.565	7525.09
432.772	7557.86
432.979	7944.92
433.187	8063.71
433.394	7832.29
433.601	8753.87
433.808	8655.57
434.016	8653.52
434.223	8895.18
434.43	9384.65
434.637	9347.78
434.844	9822.91
435.052	9976.51
435.259	9992.89
435.466	10017.47
435.673	10035.9
435.88	10615.48
436.087	11129.52
436.294	10984.11
436.501	10916.53
436.708	11180.71
436.915	11752.1
437.122	11920.03
437.329	11936.42
437.537	12468.89
437.743	12579.48
437.95	12354.2
438.157	13251.21
438.364	13611.65
438.571	13468.3
438.778	13669
438.985	14701.17
439.192	14185.08
439.399	14760.56
439.606	14467.7
439.813	15327.85
440.02	15993.44
440.227	15905.38
440.433	15858.28
440.64	16487
440.847	16175.71
441.054	16497.24
441.261	17539.66
441.467	17443.4
441.674	17553.99
441.881	18410.04
442.088	18432.57
442.294	18399.8
442.501	18537.02
442.708	18983.48
442.914	19749.42
443.121	20406.81
443.328	20099.62
443.534	21543.44
443.741	20693.53
443.948	20421.15
444.154	22071.81
444.361	21930.5
444.568	22270.47
444.774	22055.43
444.981	22512.13
445.187	23030.26
445.394	23978.47
445.6	23806.44
445.807	26098.12
446.013	24746.46
446.22	25104.85
446.426	26593.73
446.633	26698.17
446.839	27326.9
447.046	26425.79
447.252	27691.44
447.459	27494.83
447.665	27644.34
447.871	28551.59
448.078	30220.68
448.284	28389.8
448.491	29669.78
448.697	30415.24
448.903	31125.88
449.11	31224.18
449.316	30677.38
449.522	31347.06
449.728	32051.56
449.935	31969.65
450.141	32469.35
450.347	32749.92
450.553	31678.83
450.76	32282.98
450.966	33618.26
451.172	32782.69
451.378	34023.76
451.584	33341.78
451.791	33976.65
451.997	33954.13
452.203	34562.37
452.409	34773.31
452.615	34244.94
452.821	33046.88
453.027	32440.68
453.233	34380.1
453.44	33040.73
453.646	33456.47
453.852	33732.95
454.058	34269.51
454.264	32909.66
454.47	33653.08
454.676	32407.91
454.882	34087.25
455.088	31168.89
455.294	31635.83
455.5	31965.55
455.705	32090.48
455.911	31078.78
456.117	30425.48
456.323	30232.97
456.529	28473.76
456.735	30204.3
456.941	28883.36
457.147	28293.54
457.352	27324.85
457.558	27244.98
457.764	27234.74
457.97	26843.58
458.176	26378.69
458.381	26296.77
458.587	24949.21
458.793	25014.74
458.999	23861.74
459.204	25498.06
459.41	24562.14
459.616	23181.81
459.821	23103.99
460.027	23071.22
460.233	22628.86
460.438	21660.17
460.644	22088.2
460.85	20734.49
461.055	20222.5
461.261	20365.85
461.466	18993.72
461.672	18401.85
461.878	19626.54
462.083	18291.26
462.289	17769.03
462.494	17805.89
462.7	17191.5
462.905	16501.34
463.111	16933.46
463.316	17349.2
463.522	16751.19
463.727	16783.96
463.932	17076.82
464.138	16491.1
464.343	16716.37
464.549	16185.95
464.754	16648.79
464.959	16470.62
465.165	16394.84
465.37	15942.24
465.575	15467.11
465.781	15829.6
465.986	16081.5
466.191	15694.44
466.397	15299.18
466.602	14371.45
466.807	14856.82
467.012	14979.7
467.218	15012.46
467.423	14733.94
467.628	15012.46
467.833	15569.51
468.038	14815.86
468.244	14529.14
468.449	14965.36
468.654	14445.18
468.859	14283.39
469.064	14445.18
469.269	13771.4
469.474	13896.32
469.679	14287.48
469.885	13984.38
470.09	13935.23
470.295	13875.84
470.5	13503.11
470.705	13456.01
470.91	13255.31
471.115	13292.17
471.32	13283.98
471.525	13202.06
471.73	13226.64
471.935	13116.05
472.139	12546.71
472.344	12702.36
472.549	12587.67
472.754	12538.52
472.959	12133.02
473.164	11901.6
473.369	11702.95
473.574	12268.19
473.778	12051.1
473.983	11969.18
474.188	11963.04
474.393	11412.14
474.598	11508.39
474.802	11174.57
475.007	11526.82
475.212	11121.32
475.417	10793.65
475.621	10836.66
475.826	11070.12
476.031	10633.91
476.235	10468.02
476.44	10590.9
476.645	10343.1
476.849	10654.39
477.054	10343.1
477.259	10209.98
477.463	10107.58
477.668	10109.63
477.872	10252.98
478.077	9837.25
478.282	9579.2
478.486	9487.04
478.691	9458.37
478.895	9396.93
479.1	9458.37
479.304	9419.46
479.509	9263.82
479.713	9360.07
479.918	9118.41
480.122	9138.89
480.326	9120.46
480.531	9063.12
480.735	9093.83
480.94	8938.19
481.144	9081.55
481.348	8655.57
481.553	8964.81
481.757	8743.63
481.961	9032.4
482.166	8897.23
482.37	8669.91
482.574	8678.1
482.778	8796.88
482.983	8854.22
483.187	8909.52
483.391	8719.06
483.595	8653.52
483.8	8893.13
484.004	8915.66
484.208	8737.49
484.412	8739.54
484.616	8925.9
484.821	8702.67
485.025	8559.31
485.229	8770.26
485.433	8729.3
485.637	8827.6
485.841	8686.29
486.045	8559.31
486.249	8762.06
486.453	8710.86
486.657	8923.85
486.861	8882.89
487.065	8674
487.269	8819.41
487.473	8643.28
487.677	8884.94
487.881	8798.93
488.085	8798.93
488.289	8868.56
488.493	8794.83
488.697	8909.52
488.901	8919.76
489.105	8669.91
489.309	8901.33
489.512	8755.92
489.716	8839.89
489.92	9018.06
490.124	8839.89
490.328	9056.97
490.531	9048.78
490.735	8975.05
490.939	9097.93
491.143	9108.17
491.346	8919.76
491.55	9255.62
491.754	9108.17
491.958	9255.62
492.161	9132.75
492.365	9153.23
492.569	9237.19
492.772	9261.77
492.976	9360.07
493.18	9470.66
493.383	9343.69
493.587	9497.28
493.79	9710.27
493.994	9683.65
494.197	9468.61
494.401	9812.67
494.605	9790.14
494.808	9861.82
495.012	10083
495.215	9976.51
495.419	9990.84
495.622	10134.2
495.825	10013.37
496.029	10097.34
496.232	10095.29
496.436	10457.78
496.639	10715.83
496.843	10773.17
497.046	10826.42
497.249	10797.74
497.453	10859.18
497.656	11076.27
497.859	11244.2
498.063	11236.01
498.266	11283.11
498.469	11332.26
498.673	11524.77
498.876	11666.08
499.079	11592.36
499.282	11743.91
499.485	12182.17
499.689	12047.01
499.892	12296.86
500.095	12210.84
500.298	12696.21
500.501	12653.2
500.705	12987.02
500.908	13222.54
501.111	13089.42
501.314	13279.88
501.517	13537.93
501.72	13683.33
501.923	13554.31
502.126	13773.44
502.329	13986.43
502.532	14002.82
502.735	14144.13
502.938	14518.9
503.141	14666.36
503.344	14840.43
503.547	14858.87
503.75	15059.57
503.953	15096.43
504.156	15381.1
504.359	15655.53
504.562	15469.16
504.765	15845.99
504.968	16030.3
505.17	16300.64
505.373	16341.6
505.576	16513.63
505.779	16970.32
505.982	16798.29
506.185	16955.99
506.387	17189.46
506.59	17226.32
506.793	17484.36
506.996	17498.7
507.198	18287.17
507.401	17904.2
507.604	18461.24
507.807	18577.98
508.009	18715.19
508.212	19001.91
508.415	19145.27
508.617	19202.61
508.82	19624.49
509.022	19253.81
509.225	19827.24
509.428	19978.79
509.63	20273.7
509.833	20437.53
510.035	20709.91
510.238	20582.94
510.44	20824.6
510.643	21467.66
510.845	21340.69
511.048	21260.82
511.25	21824.01
511.453	22075.91
511.655	22684.16
511.858	22227.46
512.06	22544.89
512.262	23038.45
512.465	22712.83
512.667	23265.78
512.87	23345.65
513.072	23372.27
513.274	23808.49
513.477	23982.57
513.679	24297.95
513.881	24547.81
514.084	24777.18
514.286	24957.4
514.488	24834.52
514.69	25602.51
514.893	25586.13
515.095	25608.65
515.297	26358.21
515.499	26390.98
515.701	26687.93
515.904	26728.89
516.106	26722.75
516.308	27462.07
516.51	27744.69
516.712	27466.16
516.914	27759.02
517.116	28328.36
517.318	28389.8
517.52	28563.87
517.722	28817.82
517.925	29192.6
518.127	29483.41
518.329	29688.21
518.531	29530.51
518.733	30278.02
518.935	30525.83
519.136	30525.83
519.338	31115.64
519.54	30929.28
519.742	31209.85
519.944	31469.94
520.146	32053.61
520.348	32110.96
520.55	32299.37
520.752	32287.08
520.954	33012.06
521.155	32768.35
521.357	33386.84
521.559	33558.87
521.761	33591.64
521.963	34089.29
522.164	33888.59
522.366	34023.76
522.568	34613.57
522.77	34834.75
522.971	35164.48
523.173	34593.09
523.375	35576.12
523.576	35379.51
523.778	35410.23
523.98	35914.03
524.181	36292.91
524.383	36069.68
524.584	36770.08
524.786	36673.83
524.988	36448.55
525.189	37247.26
525.391	37118.24
525.592	37574.94
525.794	37421.34
525.995	37658.9
526.197	37986.58
526.398	37587.22
526.6	38215.95
526.801	37777.68
527.003	38312.2
527.204	38185.23
527.406	38543.63
527.607	38709.51
527.808	39123.2
528.01	38525.19
528.211	39053.57
528.412	39549.18
528.614	39428.35
528.815	39258.37
529.016	39745.78
529.218	39141.63
529.419	39770.36
529.62	39786.74
529.822	39649.53
530.023	39659.77
530.224	39803.13
530.425	39612.66
530.626	39975.16
530.828	39672.06
531.029	40470.76
531.23	39774.45
531.431	40364.27
531.632	40351.98
531.833	40753.38
532.035	40360.17
532.236	40448.24
532.437	41064.67
532.638	40622.31
532.839	40767.72
533.04	40569.07
533.241	40325.36
533.442	40849.64
533.643	40761.58
533.844	40444.14
534.045	40476.91
534.246	40405.23
534.447	40782.06
534.648	40544.49
534.849	40667.37
535.05	40339.69
535.251	40581.35
535.451	40413.42
535.652	40638.7
535.853	40698.09
536.054	40503.53
536.255	40562.92
536.456	40241.39
536.657	41156.83
536.857	40771.82
537.058	40495.34
537.259	40644.84
537.46	40759.53
537.66	40548.59
537.861	40837.35
538.062	40509.68
538.263	40634.6
538.463	40448.24
538.664	40597.74
538.865	40741.1
539.065	40759.53
539.266	40243.44
539.466	41027.81
539.667	40274.16
539.868	40796.39
540.068	40554.73
540.269	40265.97
540.469	40937.7
540.67	40390.89
540.87	40759.53
541.071	40419.56
541.271	40982.76
541.472	40620.27
541.672	40515.82
541.873	40040.69
542.073	40024.31
542.274	40638.7
542.474	40722.66
542.675	40425.71
542.875	40659.18
543.075	40470.76
543.276	39954.68
543.476	40845.54
543.676	40106.23
543.877	40442.09
544.077	40345.84
544.277	40132.85
544.478	40130.8
544.678	40362.22
544.878	40282.35
545.078	40124.66
545.279	40122.61
545.479	40268.01
545.679	40257.78
545.879	40261.87
546.079	40225.01
546.28	39864.57
546.48	39801.08
546.68	40419.56
546.88	40257.78
547.08	40358.13
547.28	39979.25
547.48	39743.73
547.68	40003.83
547.88	39928.05
548.081	40550.63
548.281	39979.25
548.481	40149.23
548.681	40261.87
548.881	40147.18
549.081	39502.07
549.28	39872.76
549.48	39981.3
549.68	40114.42
549.88	40311.02
550.08	39778.55
550.28	39899.38
550.48	39891.19
550.68	39997.68
550.88	39926
551.08	39454.97
551.279	40034.55
551.479	39385.34
551.679	40085.75
551.879	39747.83
552.079	39692.54
552.278	39772.41
552.478	39897.33
552.678	40095.99
552.878	39737.59
553.077	39641.34
553.277	39110.91
553.477	39905.52
553.676	39979.25
553.876	39526.65
554.076	39409.92
554.275	39602.43
554.475	39284.99
554.674	39217.41
554.874	39567.61
555.074	39518.46
555.273	39379.2
555.473	40016.11
555.672	39180.54
555.872	39682.3
556.071	39561.47
556.271	39403.77
556.47	39028.99
556.67	39293.18
556.869	39031.04
557.068	39543.03
557.268	39033.09
557.467	39096.58
557.667	39117.06
557.866	39241.98
558.065	39080.19
558.265	39018.75
558.464	38854.92
558.663	39409.92
558.863	38846.72
559.062	38947.08
559.261	38523.15
559.461	39026.95
559.66	38441.23
559.859	38519.05
560.058	38052.11
560.258	38768.9
560.457	38199.57
560.656	38846.72
560.855	38162.7
561.054	38631.69
561.253	38000.91
561.453	38025.49
561.652	38123.79
561.851	38527.24
562.05	37724.44
562.249	37865.75
562.448	38193.42
562.647	38093.07
562.846	38005.01
563.045	37959.95
563.244	37576.98
563.443	38088.98
563.642	37519.64
563.841	37712.15
564.04	37423.39
564.239	37886.23
564.438	37540.12
564.637	37566.74
564.836	37497.11
565.035	36923.68
565.234	37243.17
565.432	36843.81
565.631	36907.3
565.83	37265.69
566.029	36794.66
566.228	36954.4
566.427	36845.86
566.625	36577.58
566.824	36481.32
567.023	37011.74
567.222	36415.79
567.42	36755.75
567.619	36600.1
567.818	36333.87
568.016	36380.97
568.215	36571.43
568.414	36018.48
568.612	36368.68
568.811	35850.55
569.01	36460.84
569.208	35791.16
569.407	35938.61
569.605	35414.33
569.804	35623.22
570.002	35334.46
570.201	35604.79
570.4	35211.58
570.598	35211.58
570.797	35125.57
570.995	35184.96
571.193	35066.17
571.392	35262.78
571.59	34654.53
571.789	34720.07
571.987	34758.98
572.186	34844.99
572.384	34527.56
572.582	34677.06
572.781	34582.85
572.979	34253.13
573.177	34433.35
573.376	34695.49
573.574	33960.27
573.772	34466.12
573.971	33841.49
574.169	33945.94
574.367	33661.27
574.565	33859.92
574.763	33659.22
574.962	33988.94
575.16	33319.26
575.358	33585.49
575.556	33270.11
575.754	33788.24
575.952	32706.91
576.151	33567.06
576.349	32700.77
576.547	32975.2
576.745	32921.95
576.943	32862.56
577.141	32876.9
577.339	32821.6
577.537	32682.34
577.735	32383.34
577.933	32035.18
578.131	32409.96
578.329	32340.33
578.527	32217.45
578.725	32203.11
578.923	32489.83
579.121	32065.9
579.319	31990.13
579.516	31936.88
579.714	32096.62
579.912	31940.97
580.11	31803.76
580.308	31535.48
580.506	31486.32
580.704	30976.38
580.901	31455.61
581.099	31218.04
581.297	31338.87
581.495	31215.99
581.692	31062.4
581.89	30708.1
582.088	31125.88
582.285	30620.03
582.483	30849.41
582.681	30738.82
582.878	30681.47
583.076	30083.47
583.274	30345.61
583.471	29806.99
583.669	30099.85
583.866	30267.78
584.064	30110.09
584.262	29745.55
584.459	30196.1
584.657	29854.09
584.854	29942.16
585.052	29768.08
585.249	29723.02
585.447	29698.45
585.644	29426.07
585.841	29368.73
586.039	29624.72
586.236	29206.94
586.434	29206.94
586.631	29194.65
586.828	28998.04
587.026	29262.23
587.223	28926.36
587.42	28615.07
587.618	28873.12
587.815	28471.71
588.012	28236.2
588.21	28416.42
588.407	28658.08
588.604	28303.78
588.801	27924.91
588.999	28242.34
589.196	28217.77
589.393	27933.1
589.59	27851.18
589.787	27789.74
589.984	27855.28
590.182	27566.51
590.379	27636.14
590.576	27656.62
590.773	27445.68
590.97	27249.08
591.167	27750.83
591.364	27212.21
591.561	27347.38
591.758	27075
591.955	27169.21
592.152	27197.88
592.349	26851.77
592.546	26878.4
592.743	26970.55
592.94	26468.8
593.137	26806.72
593.334	26796.48
593.531	26384.83
593.727	26622.4
593.924	26585.54
594.121	26163.65
594.318	26126.79
594.515	26096.07
594.712	26315.2
594.908	25909.71
595.105	26051.02
595.302	25893.32
595.499	25692.62
595.696	25723.34
595.892	25608.65
596.089	25694.67
596.286	25749.96
596.482	25764.3
596.679	25317.84
596.876	25381.33
597.072	25287.12
597.269	24959.45
597.466	24861.15
597.662	24984.02
597.859	24947.16
598.055	25094.61
598.252	24707.55
598.448	24914.39
598.645	24852.95
598.841	24496.61
599.038	24635.87
599.234	24777.18
599.431	23917.03
599.627	23908.84
599.824	24115.69
600.02	23865.83
600.217	24259.04
600.413	24087.01
600.609	23964.14
600.806	24082.92
601.002	23871.98
601.198	23679.47
601.395	23702
601.591	23517.68
601.787	23740.91
601.984	23568.88
602.18	23319.03
602.376	23374.32
602.572	23286.26
602.769	23306.74
602.965	22757.88
603.161	23253.49
603.357	22931.96
603.553	22792.7
603.75	22987.25
603.946	22929.91
604.142	22893.05
604.338	22254.08
604.534	22596.09
604.73	22473.21
604.926	22356.48
605.122	22438.4
605.318	22440.45
605.514	22077.96
605.71	22407.68
605.906	22262.27
606.102	21950.98
606.298	22149.64
606.494	21676.55
606.69	22051.33
606.886	21973.51
607.082	21621.26
607.278	21791.24
607.474	21559.82
607.67	21498.38
607.866	21492.24
608.062	21580.3
608.257	21525
608.453	21406.22
608.649	21656.07
608.845	21248.53
609.041	21168.66
609.236	21371.41
609.432	21127.7
609.628	21129.75
609.824	21135.89
610.019	21051.92
610.215	21053.97
610.411	21000.72
610.606	20838.94
610.802	21074.45
610.998	21047.83
611.193	20845.08
611.389	20539.93
611.584	20580.89
611.78	20589.08
611.976	20734.49
612.171	20365.85
612.367	20546.08
612.562	20517.4
612.758	20437.53
612.953	20480.54
613.149	20423.2
613.344	20314.66
613.539	20630.04
613.735	20408.86
613.93	20396.57
614.126	20314.66
614.321	20261.41
614.517	20320.8
614.712	20124.19
614.907	19819.05
615.103	19991.08
615.298	20003.36
615.493	20118.05
615.688	19819.05
615.884	20345.37
616.079	19718.7
616.274	19493.42
616.47	19817
616.665	19976.74
616.86	19618.35
617.055	19681.83
617.25	19591.72
617.445	19685.93
617.641	19311.15
617.836	19690.02
618.031	19282.48
618.226	19268.14
618.421	19100.21
618.616	19380.78
618.811	18842.17
619.006	19221.04
619.201	18768.44
619.396	19272.24
619.591	18641.46
619.786	18874.93
619.981	18659.9
620.176	18848.31
620.371	18258.49
620.566	18543.16
620.761	18344.51
620.956	18655.8
621.151	17986.11
621.346	17982.02
621.541	17941.06
621.735	18301.5
621.93	17797.7
622.125	17969.73
622.32	17945.16
622.515	17762.89
622.709	17586.76
622.904	17680.97
623.099	17361.48
623.294	17564.23
623.488	17080.91
623.683	17308.24
623.878	16859.73
624.072	17183.31
624.267	16818.77
624.462	16765.53
624.656	16755.29
624.851	16716.37
625.046	16622.17
625.24	16693.85
625.435	16226.91
625.629	16427.61
625.824	16433.75
626.018	16081.5
626.213	15979.11
626.407	16167.52
626.602	15960.67
626.796	15821.41
626.991	15643.24
627.185	15585.9
627.38	15661.67
627.574	15276.65
627.768	15485.55
627.963	15213.17
628.157	15250.03
628.352	15192.69
628.546	14905.97
628.74	15151.73
628.935	14860.91
629.129	14834.29
629.323	14752.37
629.517	14746.23
629.712	14750.32
629.906	14547.58
630.1	14365.31
630.294	14342.78
630.489	14084.73
630.683	14559.86
630.877	14109.31
631.071	14250.62
631.265	14092.93
631.459	13886.08
631.653	13998.72
631.848	13605.51
632.042	13740.68
632.236	13490.82
632.43	13730.44
632.624	13480.58
632.818	13337.23
633.012	13300.36
633.206	13351.56
633.4	13226.64
633.594	13060.75
633.788	12999.31
633.982	13034.13
634.176	13038.22
634.369	12896.91
634.563	12901.01
634.757	12743.31
634.951	12767.89
635.145	12841.62
635.339	12700.31
635.533	12456.6
635.726	12612.24
635.92	12309.15
636.114	12276.38
636.308	12208.8
636.501	12391.06
636.695	12280.47
636.889	11934.37
637.083	12008.09
637.276	12073.63
637.47	11788.96
637.664	11971.23
637.857	11872.93
638.051	11725.47
638.244	11778.72
638.438	11571.88
638.632	11549.35
638.825	11535.01
639.019	11379.37
639.212	11475.62
639.406	11408.04
639.599	11442.85
639.793	11358.89
639.986	11236.01
640.18	11254.44
640.373	10767.03
640.567	10941.1
640.76	10977.97
640.954	10668.72
641.147	10969.77
641.34	10625.72
641.534	10625.72
641.727	10437.3
641.92	10484.41
642.114	10490.55
642.307	10564.28
642.5	10441.4
642.694	10404.53
642.887	10142.39
643.08	10492.6
643.273	10205.88
643.467	10171.07
643.66	10181.31
643.853	10058.43
644.046	9929.41
644.239	9949.89
644.432	9904.83
644.626	9941.69
644.819	9892.54
645.012	9687.75
645.205	9560.77
645.398	9544.39
645.591	9495.24
645.784	9591.49
645.977	9441.99
646.17	9474.76
646.363	9149.13
646.556	9069.26
646.749	9280.2
646.942	9419.46
647.135	9288.39
647.328	9222.86
647.521	8975.05
647.714	9024.2
647.907	9097.93
648.099	8878.8
648.292	8934.09
648.485	8800.98
648.678	8895.18
648.871	8786.64
649.064	8813.26
649.256	8809.17
649.449	8518.36
649.642	8561.36
649.835	8280.79
650.027	8362.71
650.22	8516.31
650.413	8344.28
650.605	8344.28
650.798	8172.25
650.991	8127.19
651.183	8485.59
651.376	8000.22
651.568	8149.72
651.761	7979.74
651.954	7977.69
652.146	7983.84
652.339	8166.1
652.531	8026.84
652.724	8143.58
652.916	7754.46
653.109	7822.05
653.301	7844.57
653.494	7764.7
653.686	7541.47
653.879	7815.9
654.071	7535.33
654.263	7645.92
654.456	7744.22
654.648	7467.75
654.84	7242.47
655.033	7279.33
655.225	7340.77
655.417	7258.85
655.61	7164.65
655.802	7389.92
655.994	7207.66
656.186	7213.8
656.379	7101.16
656.571	7111.4
656.763	7004.91
656.955	7162.6
657.148	6982.38
657.34	6937.32
657.532	6947.56
657.724	6759.15
657.916	6828.78
658.108	6836.97
658.3	6796.01
658.492	6554.35
658.684	6611.7
658.876	6771.44
659.068	6548.21
659.26	6482.67
659.452	6802.16
659.644	6605.55
659.836	6437.62
660.028	6478.58
660.22	6316.79
660.412	6296.31
660.604	6324.98
660.796	6316.79
660.988	6255.35
661.18	6122.23
661.372	6388.47
661.563	6286.07
661.755	6304.5
661.947	6075.13
662.139	6093.56
662.331	6087.42
662.522	6161.14
662.714	6134.52
662.906	6046.46
663.097	6152.95
663.289	5839.61
663.481	5821.18
663.673	5862.14
663.864	5829.37
664.056	5784.32
664.247	5956.35
664.439	5640.96
664.631	5886.72
664.822	5665.53
665.014	5604.1
665.205	5661.44
665.397	5544.7
665.588	5622.53
665.78	5581.57
665.971	5628.67
666.163	5389.06
666.354	5511.94
666.546	5479.17
666.737	5436.16
666.929	5454.59
667.12	5544.7
667.311	5352.2
667.503	5210.89
667.694	5241.61
667.885	5243.65
668.077	5276.42
668.268	5288.71
668.459	5208.84
668.651	5190.41
668.842	5214.98
669.033	4875.02
669.224	5071.62
669.416	5059.34
669.607	5030.66
669.798	4928.27
669.989	5088.01
670.18	5092.1
670.371	4965.13
670.563	4897.55
670.754	5001.99
670.945	5126.92
671.136	5100.3
671.327	4862.73
671.518	4887.31
671.709	4832.01
671.9	4842.25
672.091	4905.74
672.282	4795.15
672.473	4944.65
672.664	4838.16
672.855	4774.67
673.046	4877.07
673.237	4674.32
673.428	4633.36
673.619	4694.8
673.809	4772.62
674	4586.26
674.191	4584.21
674.382	4510.48
674.573	4510.48
674.764	4596.5
674.954	4592.4
675.145	4537.1
675.336	4573.97
675.527	4616.97
675.717	4578.06
675.908	4506.38
676.099	4346.64
676.289	4682.51
676.48	4465.43
676.671	4371.22
676.861	4424.47
677.052	4430.61
677.243	4195.09
677.433	4324.12
677.624	4424.47
677.814	4371.22
678.005	4303.64
678.195	4399.89
678.386	4283.16
678.576	4225.81
678.767	4446.99
678.957	4393.75
679.148	4363.03
679.338	4455.19
679.529	4356.88
679.719	4311.83
679.909	4346.64
680.1	4342.55
680.29	4363.03
680.481	4274.96
680.671	4115.22
680.861	4100.89
681.052	4223.76
681.242	4297.49
681.432	4264.72
681.622	4168.47
681.813	4201.24
682.003	4135.7
682.193	4100.89
682.383	4143.89
682.573	4090.65
682.764	4215.57
682.954	4143.89
683.144	4248.34
683.334	4113.17
683.524	4184.85
683.714	4227.86
683.904	4061.98
684.094	3965.72
684.284	4135.7
684.474	4076.31
684.664	4047.64
684.854	4066.07
685.044	4092.69
685.234	3910.43
685.424	3945.24
685.614	3949.34
685.804	3932.95
685.994	3922.71
686.184	3969.82
686.374	3769.12
686.564	3939.1
686.753	3896.09
686.943	3848.99
687.133	3887.9
687.323	3838.75
687.513	3920.67
687.702	3793.69
687.892	3699.48
688.082	3664.67
688.272	3863.32
688.461	3773.21
688.651	3812.12
688.841	3568.41
689.03	3732.25
689.22	3650.33
689.41	3601.18
689.599	3777.31
689.789	3719.96
689.979	3595.04
690.168	3597.09
690.358	3572.51
690.547	3715.87
690.737	3490.59
690.926	3767.07
691.116	3463.97
691.305	3531.55
691.495	3564.32
691.684	3306.27
691.874	3468.06
692.063	3433.25
692.252	3466.02
692.442	3506.98
692.631	3308.32
692.82	3504.93
693.01	3371.81
693.199	3322.66
693.388	3298.08
693.578	3281.7
693.767	3357.47
693.956	3459.87
694.146	3250.98
694.335	3345.19
694.524	3410.72
694.713	3302.18
694.902	3242.79
695.092	3330.85
695.281	3250.98
695.47	3308.32
695.659	3248.93
695.848	3134.25
696.037	3140.39
696.226	3250.98
696.415	3332.9
696.604	3242.79
696.793	3195.68
696.982	3283.75
697.171	3203.88
697.36	3203.88
697.549	3304.23
697.738	3181.35
697.927	3029.8
698.116	3203.88
698.305	3107.62
698.494	3142.44
698.683	3121.96
698.872	3162.92
699.061	3201.83
699.25	3160.87
699.438	3087.14
699.627	3087.14
699.816	3224.36
700.005	3177.25
700.193	3134.25
700.382	3111.72
700.571	3144.49
700.76	3097.38
700.948	2970.41
701.137	3097.38
701.326	3035.94
701.514	3138.34
701.703	3066.66
701.892	3044.13
702.08	3167.01
702.269	3019.56
702.457	3029.8
702.646	3060.52
702.834	2994.98
703.023	3029.8
703.212	2882.35
703.4	3097.38
703.589	2888.49
703.777	2945.83
703.965	2898.73
704.154	3068.71
704.342	2915.11
704.531	2968.36
704.719	2913.06
704.907	2876.2
705.096	2888.49
705.284	2849.58
705.472	2972.46
705.661	2980.65
705.849	2966.31
706.037	3037.99
706.226	2896.68
706.414	2868.01
706.602	2872.11
706.79	2933.54
706.979	2839.34
707.167	3044.13
707.355	2837.29
707.543	2962.22
707.731	3005.22
707.919	2872.11
708.107	2814.76
708.296	2939.69
708.484	2913.06
708.672	2868.01
708.86	2931.5
709.048	2896.68
709.236	2820.91
709.424	2820.91
709.612	2814.76
709.8	2790.19
709.988	2913.06
710.176	2863.91
710.364	2913.06
710.551	2976.55
710.739	2827.05
710.927	2859.82
711.115	2796.33
711.303	2857.77
711.491	2874.15
711.679	2724.65
711.866	2687.79
712.054	2716.46
712.242	2763.56
712.43	2865.96
712.617	2781.99
712.805	2777.9
712.993	2702.12
713.181	2636.59
713.368	2677.55
713.556	2732.84
713.744	2659.12
713.931	2810.67
714.119	2751.28
714.306	2769.71
714.494	2650.92
714.682	2609.97
714.869	2734.89
715.057	2650.92
715.244	2685.74
715.432	2618.16
715.619	2722.6
715.807	2675.5
715.994	2628.4
716.182	2677.55
716.369	2638.64
716.556	2636.59
716.744	2583.34
716.931	2665.26
717.119	2724.65
717.306	2638.64
717.493	2622.25
717.681	2642.73
717.868	2747.18
718.055	2552.62
718.242	2669.36
718.43	2695.98
718.617	2693.93
718.804	2603.82
718.991	2560.81
719.179	2693.93
719.366	2634.54
719.553	2708.27
719.74	2571.05
719.927	2538.29
720.114	2652.97
720.301	2575.15
720.488	2523.95
720.676	2585.39
720.863	2712.36
721.05	2716.46
721.237	2534.19
721.424	2462.51
721.611	2593.58
721.798	2515.76
721.985	2495.28
722.172	2431.79
722.358	2450.22
722.545	2620.21
722.732	2491.18
722.919	2554.67
723.106	2528.05
723.293	2437.94
723.48	2462.51
723.667	2511.66
723.853	2487.09
724.04	2511.66
724.227	2517.81
724.414	2491.18
724.6	2480.94
724.787	2487.09
724.974	2429.74
725.161	2519.85
725.347	2425.65
725.534	2511.66
725.72	2435.89
725.907	2446.13
726.094	2413.36
726.28	2452.27
726.467	2478.9
726.653	2485.04
726.84	2341.68
727.027	2444.08
727.213	2405.17
727.4	2507.57
727.586	2478.9
727.773	2462.51
727.959	2280.24
728.145	2501.42
728.332	2472.75
728.518	2380.59
728.705	2452.27
728.891	2380.59
729.077	2388.78
729.264	2333.49
729.45	2372.4
729.636	2442.03
729.823	2325.3
730.009	2339.63
730.195	2405.17
730.382	2335.54
730.568	2294.58
730.754	2292.53
730.94	2349.87
731.126	2335.54
731.313	2331.44
731.499	2358.07
731.685	2388.78
731.871	2382.64
732.057	2372.4
732.243	2439.98
732.429	2405.17
732.615	2306.87
732.801	2349.87
732.987	2345.78
733.173	2437.94
733.359	2327.35
733.545	2222.9
733.731	2378.55
733.917	2290.48
734.103	2298.67
734.289	2282.29
734.475	2319.15
734.661	2366.26
734.847	2237.24
735.033	2243.38
735.219	2267.95
735.404	2276.15
735.59	2308.91
735.776	2241.33
735.962	2304.82
736.148	2224.95
736.333	2310.96
736.519	2177.84
736.705	2206.52
736.89	2290.48
737.076	2128.69
737.262	2208.56
737.447	2265.91
737.633	2214.71
737.819	2267.95
738.004	2222.9
738.19	2243.38
738.375	2140.98
738.561	2265.91
738.747	2245.43
738.932	2120.5
739.118	2331.44
739.303	2288.43
739.489	2171.7
739.674	2046.77
739.859	2290.48
740.045	2143.03
740.23	2112.31
740.416	2022.2
740.601	2147.12
740.786	2138.93
740.972	2104.12
741.157	2057.01
741.342	1936.18
741.528	1999.67
741.713	2054.97
741.898	2130.74
742.084	1995.57
742.269	2063.16
742.454	1989.43
742.639	1938.23
742.824	2040.63
743.01	1917.75
743.195	1987.38
743.38	1909.56
743.565	1946.42
743.75	2003.77
743.935	2020.15
744.12	1975.1
744.305	1868.6
744.49	1858.36
744.675	1856.31
744.86	1878.84
745.045	1983.29
745.23	2001.72
745.415	1862.46
745.6	1860.41
745.785	1907.51
745.97	1821.5
746.155	1848.12
746.34	1962.81
746.525	1743.67
746.71	1897.27
746.895	1864.5
747.079	1723.2
747.264	1895.22
747.449	1829.69
747.634	1798.97
747.819	1669.95
748.003	1735.48
748.188	1667.9
748.373	1741.63
748.557	1821.5
748.742	1735.48
748.927	1602.36
749.111	1626.94
749.296	1717.05
749.481	1545.02
749.665	1598.27
749.85	1661.76
750.034	1659.71
750.219	1680.19
750.404	1612.6
750.588	1538.88
750.773	1571.65
750.957	1553.21
751.141	1440.58
751.326	1590.08
751.51	1534.78
751.695	1512.25
751.879	1469.25
752.064	1522.49
752.248	1495.87
752.432	1534.78
752.617	1442.62
752.801	1459.01
752.985	1420.1
753.17	1483.58
753.354	1512.25
753.538	1424.19
753.722	1307.46
753.907	1397.57
754.091	1350.46
754.275	1350.46
754.459	1291.07
754.643	1348.42
754.828	1352.51
755.012	1372.99
755.196	1278.79
755.38	1416
755.564	1137.48
755.748	1352.51
755.932	1252.16
756.116	1299.27
756.3	1372.99
756.484	1246.02
756.668	1213.25
756.852	1143.62
757.036	1278.79
757.22	1170.24
757.404	1192.77
757.588	1110.85
757.772	1174.34
757.956	1209.15
758.14	1092.42
758.323	1137.48
758.507	1241.92
758.691	1082.18
758.875	1278.79
759.059	1065.8
759.242	1045.32
759.426	1057.61
759.61	1078.08
759.794	1119.04
759.977	1145.67
760.161	1149.76
760.345	1028.93
760.528	1250.11
760.712	1145.67
760.895	1110.85
761.079	1088.32
761.263	1057.61
761.446	1073.99
761.63	1065.8
761.813	1086.28
761.997	1030.98
762.18	1049.41
762.364	1071.94
762.547	961.35
762.731	942.92
762.914	1000.26
763.098	1004.36
763.281	1061.7
763.464	961.35
763.648	1061.7
763.831	897.86
764.015	973.64
764.198	1014.6
764.381	994.12
764.564	963.4
764.748	951.11
764.931	1028.93
765.114	861
765.297	926.54
765.481	891.72
765.664	934.73
765.847	940.87
766.03	914.25
766.213	897.86
766.397	969.54
766.58	881.48
766.763	951.11
766.946	881.48
767.129	883.53
767.312	881.48
767.495	889.67
767.678	799.56
767.861	922.44
768.044	883.53
768.227	920.39
768.41	883.53
768.593	840.52
768.776	908.1
768.959	807.75
769.142	830.28
769.324	910.15
769.507	793.42
769.69	832.33
769.873	777.03
770.056	844.62
770.239	850.76
770.421	918.34
770.604	803.66
770.787	758.6
770.97	832.33
771.152	826.18
771.335	703.31
771.518	799.56
771.7	828.23
771.883	779.08
772.066	799.56
772.248	688.97
772.431	725.83
772.613	848.71
772.796	680.78
772.978	791.37
773.161	734.03
773.343	688.97
773.526	695.11
773.708	764.75
773.891	742.22
774.073	678.73
774.256	717.64
774.438	623.44
774.621	713.55
774.803	664.4
774.985	664.4
775.168	717.64
775.35	645.96
775.532	641.87
775.715	697.16
775.897	744.27
776.079	639.82
776.261	758.6
776.444	709.45
776.626	721.74
776.808	645.96
776.99	531.28
777.173	668.49
777.355	611.15
777.537	533.33
777.719	652.11
777.901	590.67
778.083	568.14
778.265	594.76
778.447	684.87
778.629	598.86
778.811	555.85
778.993	592.72
779.175	654.16
779.357	600.91
779.539	473.93
779.721	621.39
779.903	566.09
780.085	562
780.267	498.51
780.449	541.52
780.631	557.9
780.812	494.41
780.994	445.26
781.176	424.78
781.358	531.28
781.54	465.74
781.721	531.28
781.903	521.04
782.085	492.37
782.267	490.32
782.448	418.64
782.63	482.13
782.812	480.08
782.993	514.89
783.175	471.89
783.357	508.75
783.538	465.74
783.72	373.58
783.901	480.08
784.083	416.59
784.264	400.21
784.446	445.26
784.627	471.89
784.809	471.89
784.99	471.89
785.172	422.73
785.353	385.87
785.535	471.89
785.716	428.88
785.897	365.39
786.079	488.27
786.26	375.63
786.441	432.97
786.623	494.41
786.804	389.97
786.985	383.82
787.167	363.34
787.348	389.97
787.529	351.06
787.71	430.93
787.891	420.69
788.073	326.48
788.254	293.71
788.435	473.93
788.616	340.82
788.797	332.62
788.978	324.43
789.159	299.86
789.34	308.05
789.522	238.42
789.703	328.53
789.884	295.76
790.065	367.44
790.246	318.29
790.427	334.67
790.607	349.01
790.788	377.68
790.969	375.63
791.15	351.06
791.331	328.53
791.512	310.1
791.693	279.38
791.874	314.19
792.054	258.9
792.235	389.97
792.416	246.61
792.597	281.43
792.778	281.43
792.958	293.71
793.139	332.62
793.32	226.13
793.5	258.9
793.681	330.58
793.862	281.43
794.042	248.66
794.223	240.47
794.404	258.9
794.584	234.32
794.765	209.75
794.945	244.56
795.126	308.05
795.306	295.76
795.487	293.71
795.667	287.57
795.848	246.61
796.028	303.95
796.209	281.43
796.389	242.51
796.57	234.32
796.75	230.23
796.93	238.42
797.111	217.94
797.291	275.28
797.471	267.09
797.652	314.19
797.832	203.6
798.012	262.99
798.192	242.51
798.373	258.9
798.553	232.27
798.733	213.84
798.913	224.08
799.093	209.75
799.274	230.23
799.454	213.84
799.634	260.95
799.814	195.41
799.994	226.13
800.174	250.71
800.354	211.79
800.534	164.69
800.714	219.99
800.894	176.98
801.074	269.14
801.254	203.6
801.434	211.79
801.614	193.36
801.794	222.03
801.974	680.78
802.154	224.08
802.334	228.18
802.514	262.99
802.693	176.98
802.873	164.69
803.053	219.99
803.233	172.88
803.413	183.12
803.592	146.26
803.772	242.51
803.952	205.65
804.131	250.71
804.311	230.23
804.491	273.23
804.67	156.5
804.85	158.55
805.03	129.88
805.209	209.75
805.389	176.98
805.568	136.02
805.748	244.56
805.928	179.03
806.107	168.79
806.287	99.16
806.466	152.4
806.646	179.03
806.825	168.79
807.004	127.83
807.184	162.64
807.363	162.64
807.543	193.36
807.722	97.11
807.901	213.84
808.081	172.88
808.26	113.49
808.439	103.25
808.619	160.59
808.798	101.2
808.977	258.9
809.156	166.74
809.336	170.83
809.515	119.64
809.694	187.22
809.873	195.41
810.052	88.92
810.231	217.94
810.411	191.31
810.59	160.59
810.769	170.83
810.948	80.72
811.127	45.91
811.306	195.41
811.485	115.54
811.664	234.32
811.843	191.31
812.022	103.25
812.201	136.02
812.38	160.59
812.559	95.06
812.737	121.68
812.916	82.77
813.095	170.83
813.274	99.16
813.453	144.21
813.632	117.59
813.811	119.64
813.989	170.83
814.168	131.92
814.347	176.98
814.526	140.12
814.704	148.31
814.883	176.98
815.062	62.29
815.24	142.16
815.419	111.44
815.598	88.92
815.776	47.96
815.955	172.88
816.133	62.29
816.312	95.06
816.49	58.2
816.669	136.02
816.847	99.16
817.026	138.07
817.204	179.03
817.383	72.53
817.561	101.2
817.74	115.54
817.918	45.91
818.097	82.77
818.275	115.54
818.453	195.41
818.632	154.45
818.81	129.88
818.988	68.44
819.167	72.53
819.345	70.48
819.523	41.81
819.701	129.88
819.879	136.02
820.058	121.68
820.236	117.59
820.414	78.68
820.592	72.53
820.77	90.96
820.948	105.3
821.127	84.82
821.305	150.36
821.483	74.58
821.661	103.25
821.839	39.76
822.017	64.34
822.195	95.06
822.373	148.31
822.551	176.98
822.729	86.87
822.907	97.11
823.085	33.62
823.262	58.2
823.44	58.2
823.618	125.78
823.796	80.72
823.974	78.68
824.152	107.35
824.329	111.44
824.507	68.44
824.685	80.72
824.863	25.43
825.04	176.98
825.218	119.64
825.396	41.81
825.574	103.25
825.751	97.11
825.929	160.59
826.107	21.33
826.284	58.2
826.462	97.11
826.639	54.1
826.817	58.2
826.994	43.86
827.172	56.15
827.349	45.91
827.527	41.81
827.704	74.58
827.882	66.39
828.059	103.25
828.237	54.1
828.414	129.88
828.591	29.52
828.769	23.38
828.946	58.2
829.124	123.73
829.301	84.82
829.478	39.76
829.655	-23.72
829.833	70.48
830.01	127.83
830.187	50
830.364	39.76
830.542	19.29
830.719	99.16
830.896	111.44
831.073	70.48
831.25	47.96
831.427	56.15
831.604	97.11
831.782	7
831.959	111.44
832.136	4.95
832.313	136.02
832.49	78.68
832.667	25.43
832.844	60.24
833.021	107.35
833.198	13.14
833.374	4.95
833.551	105.3
833.728	37.72
833.905	138.07
834.082	47.96
834.259	50
834.436	131.92
834.612	-27.82
834.789	80.72
834.966	29.52
835.143	9.05
835.319	64.34
835.496	70.48
835.673	29.52
835.85	37.72
836.026	86.87
836.203	13.14
836.38	4.95
836.556	99.16
836.733	29.52
836.909	70.48
837.086	41.81
837.262	-11.43
837.439	54.1
837.616	62.29
837.792	54.1
837.968	103.25
838.145	70.48
838.321	62.29
838.498	72.53
838.674	127.83
838.851	4.95
839.027	2.9
839.203	-1.19
839.38	47.96
839.556	103.25
839.732	50
839.909	9.05
840.085	142.16
840.261	19.29
840.437	7
840.614	-31.91
840.79	66.39
840.966	-25.77
841.142	50
841.318	23.38
841.494	56.15
841.671	11.09
841.847	62.29
842.023	72.53
842.199	7
842.375	-3.24
842.551	23.38
842.727	43.86
842.903	123.73
843.079	62.29
843.255	93.01
843.431	109.4
843.607	78.68
843.783	-36.01
843.959	7
844.134	37.72
844.31	64.34
844.486	45.91
844.662	9.05
844.838	-15.53
845.013	37.72
845.189	103.25
845.365	90.96
845.541	31.57
845.716	-3.24
845.892	19.29
846.068	66.39
846.244	-21.67
846.419	41.81
846.595	-27.82
846.77	13.14
846.946	66.39
847.122	25.43
847.297	21.33
847.473	66.39
847.648	-9.39
847.824	41.81
847.999	11.09
848.175	9.05
848.35	50
848.526	95.06
848.701	-9.39
848.876	39.76
849.052	47.96
849.227	50
849.403	-33.96
849.578	4.95
849.753	41.81
849.929	62.29
850.104	-60.59
850.279	54.1
850.454	52.05
850.63	33.62
850.805	60.24
850.98	-33.96
851.155	19.29
851.33	17.24
851.505	27.48
851.681	52.05
851.856	39.76
852.031	93.01
852.206	47.96
852.381	43.86
852.556	29.52
852.731	111.44
852.906	-23.72
853.081	23.38
853.256	72.53
853.431	45.91
853.606	-23.72
853.781	-42.15
853.956	-56.49
854.131	13.14
854.305	-3.24
854.48	62.29
854.655	13.14
854.83	23.38
855.005	29.52
855.18	-64.68
855.354	-50.35
855.529	-3.24
855.704	13.14
855.879	54.1
856.053	31.57
856.228	52.05
856.403	-11.43
856.577	29.52
856.752	-60.59
856.926	-52.39
857.101	-11.43
857.276	64.34
857.45	-27.82
857.625	-25.77
857.799	29.52
857.974	-29.87
858.148	-33.96
858.323	-31.91
858.497	23.38
858.672	-19.63
858.846	-1.19
859.02	-52.39
859.195	-83.11
859.369	-1.19
859.543	21.33
859.718	50
859.892	21.33
860.066	7
860.241	33.62
860.415	56.15
860.589	0.85
860.763	54.1
860.938	25.43
861.112	2.9
861.286	4.95
861.46	47.96
861.634	7
861.808	17.24
861.982	35.67
862.157	13.14
862.331	-3.24
862.505	13.14
862.679	-17.58
862.853	-31.91
863.027	19.29
863.201	58.2
863.375	-11.43
863.549	45.91
863.722	15.19
863.896	-11.43
864.07	-7.34
864.244	29.52
864.418	15.19
864.592	-17.58
864.766	9.05
864.939	58.2
865.113	-25.77
865.287	13.14
865.461	-15.53
865.634	54.1
865.808	-52.39
865.982	-15.53
866.156	-36.01
866.329	-48.3
866.503	-19.63
866.676	-1.19
866.85	60.24
867.024	17.24
867.197	37.72
867.371	29.52
867.544	-13.48
867.718	-36.01
867.891	2.9
868.065	41.81
868.238	-5.29
868.412	70.48
868.585	33.62
868.759	15.19
868.932	-3.24
869.105	-19.63
869.279	-7.34
869.452	-83.11
869.625	27.48
869.799	4.95
869.972	54.1
870.145	-27.82
870.319	-13.48
870.492	-52.39
870.665	17.24
870.838	4.95
871.011	-74.92
871.185	-25.77
871.358	37.72
871.531	-95.4
871.704	-17.58
871.877	88.92
872.05	-66.73
872.223	-25.77
872.396	-7.34
872.569	13.14
872.742	-11.43
872.915	50
873.088	-3.24
873.261	95.06
873.434	37.72
873.607	21.33
873.78	41.81
873.953	41.81
874.126	39.76
874.299	41.81
874.471	31.57
874.644	17.24
874.817	13.14
874.99	37.72
875.163	-33.96
875.335	-40.11
875.508	-44.2
875.681	70.48
875.853	-31.91
876.026	9.05
876.199	19.29
876.371	-7.34
876.544	21.33
876.717	-1.19
876.889	-42.15
877.062	-52.39
877.234	-7.34
877.407	2.9
877.579	-25.77
877.752	23.38
877.924	31.57
878.097	-11.43
878.269	13.14
878.442	31.57
878.614	13.14
878.786	-27.82
878.959	-50.35
879.131	-3.24
879.303	-31.91
879.476	-21.67
879.648	15.19
879.82	-46.25
879.993	-36.01
880.165	-48.3
880.337	-21.67
880.509	54.1
880.681	-62.63
880.854	4.95
881.026	-60.59
881.198	39.76
881.37	-44.2
881.542	-11.43
881.714	13.14
881.886	39.76
882.058	-36.01
882.23	29.52
882.402	-52.39
882.574	21.33
882.746	-5.29
882.918	66.39
883.09	-1.19
883.262	-97.45
883.434	-36.01
883.606	-9.39
883.778	-72.87
883.95	-3.24
884.122	-11.43
884.293	41.81
884.465	19.29
884.637	4.95
884.809	-33.96
884.98	-66.73
885.152	4.95
885.324	21.33
885.496	-19.63
885.667	-50.35
885.839	-44.2
886.011	29.52
886.182	-21.67
886.354	4.95
886.525	-27.82
886.697	-25.77
886.869	-9.39
887.04	-36.01
887.212	50
887.383	9.05
887.555	-7.34
887.726	15.19
887.897	58.2
888.069	-40.11
888.24	-7.34
888.412	13.14
888.583	-11.43
888.754	47.96
888.926	-54.44
889.097	-29.87
889.268	-40.11
889.44	-83.11
889.611	-31.91
889.782	-109.74
889.953	-66.73
890.125	4.95
890.296	39.76
890.467	-21.67
890.638	-85.16
890.809	70.48
890.98	27.48
891.151	7
891.323	-52.39
891.494	21.33
891.665	25.43
891.836	17.24
892.007	13.14
892.178	56.15
892.349	13.14
892.52	-31.91
892.691	-79.02
892.862	-17.58
893.032	-46.25
893.203	-27.82
893.374	-66.73
893.545	-40.11
893.716	-19.63
893.887	-42.15
894.057	-52.39
894.228	105.3
894.399	-11.43
894.57	-68.78
894.74	43.86
894.911	-76.97
895.082	-17.58
895.253	-58.54
895.423	15.19
895.594	23.38
895.764	23.38
895.935	-70.83
896.106	7
896.276	-3.24
896.447	-17.58
896.617	4.95
896.788	-64.68
896.958	-25.77
897.129	-68.78
897.299	-52.39
897.47	66.39
897.64	-52.39
897.81	-42.15
897.981	39.76
898.151	-27.82
898.322	74.58
898.492	47.96
898.662	-54.44
898.832	7
899.003	-25.77
899.173	-11.43
899.343	17.24
899.513	-40.11
