Data from USB4F104151__128__14-19-01-238.txt Node

Date: Thu Mar 13 14:19:01 EDT 2025
User: louis
Spectrometer: USB4F10415
Trigger mode: 4
Integration Time (sec): 2.000000E-2
Scans to average: 1
Electric dark correction enabled: true
Nonlinearity correction enabled: false
Boxcar width: 0
XAxis mode: Wavelengths
Number of Pixels in Spectrum: 3648
>>>>>Begin Spectral Data<<<<<
178.204	-161.28
178.424	-161.28
178.644	-161.28
178.864	-202.24
179.084	-118.27
179.304	37.38
179.524	20.99
179.744	31.23
179.964	31.23
180.184	33.28
180.404	25.09
180.624	-7.68
180.844	-3.58
181.064	-38.4
181.283	-103.93
181.503	-65.02
181.723	39.42
181.943	-81.41
182.163	23.04
182.383	8.7
182.602	16.9
182.822	76.29
183.042	94.72
183.262	49.66
183.482	2.56
183.701	70.14
183.921	33.28
184.141	-62.98
184.361	29.18
184.58	-28.16
184.8	33.28
185.02	6.66
185.239	68.09
185.459	49.66
185.679	33.28
185.898	-15.87
186.118	82.43
186.338	-30.21
186.557	35.33
186.777	-13.82
186.997	10.75
187.216	4.61
187.436	80.38
187.655	39.42
187.875	43.52
188.095	-13.82
188.314	16.9
188.534	70.14
188.753	33.28
188.973	-7.68
189.192	16.9
189.412	10.75
189.631	57.86
189.851	8.7
190.07	90.62
190.29	-40.45
190.509	12.8
190.729	0.51
190.948	57.86
191.168	123.39
191.387	57.86
191.607	16.9
191.826	8.7
192.045	41.47
192.265	51.71
192.484	61.95
192.704	88.57
192.923	2.56
193.142	115.2
193.362	-3.58
193.581	33.28
193.8	43.52
194.02	33.28
194.239	-3.58
194.458	2.56
194.678	-26.11
194.897	115.2
195.116	-15.87
195.335	-15.87
195.555	27.14
195.774	27.14
195.993	16.9
196.212	-3.58
196.432	-24.06
196.651	23.04
196.87	-50.69
197.089	70.14
197.308	-40.45
197.528	49.66
197.747	-38.4
197.966	-3.58
198.185	25.09
198.404	10.75
198.623	35.33
198.842	90.62
199.062	57.86
199.281	25.09
199.5	-7.68
199.719	90.62
199.938	53.76
200.157	86.53
200.376	39.42
200.595	2.56
200.814	82.43
201.033	39.42
201.252	2.56
201.471	25.09
201.69	70.14
201.909	72.19
202.128	72.19
202.347	-40.45
202.566	-44.54
202.785	57.86
203.004	-11.78
203.223	129.53
203.442	27.14
203.661	35.33
203.879	37.38
204.098	123.39
204.317	4.61
204.536	16.9
204.755	45.57
204.974	10.75
205.193	35.33
205.411	82.43
205.63	-19.97
205.849	-7.68
206.068	-7.68
206.287	-13.82
206.505	2.56
206.724	8.7
206.943	16.9
207.162	70.14
207.381	41.47
207.599	-9.73
207.818	29.18
208.037	-15.87
208.255	-7.68
208.474	10.75
208.693	-13.82
208.911	49.66
209.13	-36.35
209.349	57.86
209.567	57.86
209.786	76.29
210.005	59.9
210.223	35.33
210.442	-3.58
210.661	43.52
210.879	43.52
211.098	8.7
211.316	8.7
211.535	-24.06
211.753	57.86
211.972	51.71
212.191	-44.54
212.409	33.28
212.628	53.76
212.846	-38.4
213.065	82.43
213.283	25.09
213.502	31.23
213.72	27.14
213.938	115.2
214.157	-7.68
214.375	-24.06
214.594	-13.82
214.812	72.19
215.031	-46.59
215.249	86.53
215.467	43.52
215.686	12.8
215.904	-9.73
216.122	68.09
216.341	27.14
216.559	-44.54
216.778	35.33
216.996	25.09
217.214	10.75
217.432	10.75
217.651	2.56
217.869	31.23
218.087	10.75
218.306	78.33
218.524	74.24
218.742	-40.45
218.96	-5.63
219.179	0.51
219.397	49.66
219.615	25.09
219.833	74.24
220.051	16.9
220.27	154.11
220.488	-77.31
220.706	-11.78
220.924	-73.21
221.142	76.29
221.36	59.9
221.578	29.18
221.796	8.7
222.015	6.66
222.233	16.9
222.451	107.01
222.669	27.14
222.887	33.28
223.105	37.38
223.323	12.8
223.541	-32.26
223.759	25.09
223.977	37.38
224.195	100.86
224.413	74.24
224.631	-56.83
224.849	16.9
225.067	68.09
225.285	33.28
225.503	27.14
225.721	-22.02
225.939	8.7
226.157	10.75
226.375	107.01
226.592	33.28
226.81	-11.78
227.028	-28.16
227.246	-22.02
227.464	16.9
227.682	18.94
227.9	107.01
228.117	68.09
228.335	18.94
228.553	61.95
228.771	41.47
228.989	18.94
229.206	47.62
229.424	-1.54
229.642	53.76
229.86	-7.68
230.077	33.28
230.295	0.51
230.513	16.9
230.731	84.48
230.948	-7.68
231.166	6.66
231.384	10.75
231.601	-1.54
231.819	70.14
232.037	74.24
232.254	-22.02
232.472	59.9
232.689	18.94
232.907	2.56
233.125	27.14
233.342	-11.78
233.56	29.18
233.777	51.71
233.995	33.28
234.213	37.38
234.43	-19.97
234.648	-3.58
234.865	16.9
235.083	74.24
235.3	59.9
235.518	-15.87
235.735	107.01
235.953	43.52
236.17	12.8
236.388	66.05
236.605	18.94
236.822	41.47
237.04	0.51
237.257	10.75
237.475	-38.4
237.692	92.67
237.909	57.86
238.127	66.05
238.344	-3.58
238.562	-19.97
238.779	-38.4
238.996	-48.64
239.214	12.8
239.431	25.09
239.648	0.51
239.865	18.94
240.083	41.47
240.3	27.14
240.517	78.33
240.735	16.9
240.952	41.47
241.169	27.14
241.386	49.66
241.603	-32.26
241.821	-22.02
242.038	25.09
242.255	10.75
242.472	-7.68
242.689	-22.02
242.907	117.25
243.124	0.51
243.341	33.28
243.558	-3.58
243.775	-52.74
243.992	-52.74
244.209	-11.78
244.426	98.81
244.643	88.57
244.86	-1.54
245.078	53.76
245.295	0.51
245.512	-30.21
245.729	-40.45
245.946	-7.68
246.163	-75.26
246.38	23.04
246.597	10.75
246.814	4.61
247.031	-13.82
247.248	18.94
247.464	35.33
247.681	0.51
247.898	127.49
248.115	61.95
248.332	-5.63
248.549	37.38
248.766	-15.87
248.983	49.66
249.2	35.33
249.417	45.57
249.633	35.33
249.85	43.52
250.067	-32.26
250.284	-36.35
250.501	90.62
250.717	78.33
250.934	20.99
251.151	-24.06
251.368	-22.02
251.585	33.28
251.801	33.28
252.018	-3.58
252.235	-116.22
252.451	-24.06
252.668	76.29
252.885	131.58
253.102	33.28
253.318	23.04
253.535	107.01
253.752	-54.78
253.968	20.99
254.185	-67.07
254.401	76.29
254.618	37.38
254.835	0.51
255.051	107.01
255.268	43.52
255.484	35.33
255.701	-34.3
255.917	12.8
256.134	-26.11
256.351	43.52
256.567	4.61
256.784	-19.97
257	4.61
257.217	90.62
257.433	68.09
257.65	92.67
257.866	8.7
258.082	-56.83
258.299	-24.06
258.515	-19.97
258.732	-19.97
258.948	-65.02
259.165	-5.63
259.381	10.75
259.597	57.86
259.814	-22.02
260.03	35.33
260.246	66.05
260.463	64
260.679	-46.59
260.895	-38.4
261.112	111.1
261.328	53.76
261.544	-24.06
261.761	53.76
261.977	-15.87
262.193	12.8
262.409	41.47
262.626	41.47
262.842	10.75
263.058	16.9
263.274	-28.16
263.49	10.75
263.707	-9.73
263.923	59.9
264.139	27.14
264.355	-24.06
264.571	98.81
264.787	-15.87
265.004	-13.82
265.22	-15.87
265.436	-44.54
265.652	4.61
265.868	57.86
266.084	-40.45
266.3	66.05
266.516	35.33
266.732	-46.59
266.948	72.19
267.164	57.86
267.38	10.75
267.596	-15.87
267.812	51.71
268.028	51.71
268.244	23.04
268.46	51.71
268.676	-9.73
268.892	41.47
269.108	-89.6
269.324	12.8
269.54	-11.78
269.756	35.33
269.972	-9.73
270.188	35.33
270.403	49.66
270.619	29.18
270.835	76.29
271.051	131.58
271.267	47.62
271.483	8.7
271.698	8.7
271.914	-28.16
272.13	16.9
272.346	16.9
272.562	-50.69
272.777	53.76
272.993	10.75
273.209	-5.63
273.425	-1.54
273.64	66.05
273.856	-52.74
274.072	8.7
274.287	0.51
274.503	29.18
274.719	76.29
274.934	6.66
275.15	-24.06
275.366	84.48
275.581	-11.78
275.797	29.18
276.012	-62.98
276.228	16.9
276.444	35.33
276.659	66.05
276.875	-7.68
277.09	20.99
277.306	33.28
277.521	82.43
277.737	16.9
277.952	27.14
278.168	102.91
278.383	53.76
278.599	16.9
278.814	25.09
279.03	16.9
279.245	-38.4
279.461	29.18
279.676	76.29
279.892	90.62
280.107	57.86
280.322	16.9
280.538	14.85
280.753	80.38
280.969	76.29
281.184	8.7
281.399	74.24
281.615	59.9
281.83	10.75
282.045	-7.68
282.26	-26.11
282.476	39.42
282.691	10.75
282.906	2.56
283.122	25.09
283.337	27.14
283.552	8.7
283.767	-77.31
283.983	59.9
284.198	-11.78
284.413	100.86
284.628	-3.58
284.843	-3.58
285.058	100.86
285.274	57.86
285.489	-24.06
285.704	82.43
285.919	27.14
286.134	86.53
286.349	-9.73
286.564	-46.59
286.779	-24.06
286.995	57.86
287.21	4.61
287.425	-38.4
287.64	82.43
287.855	16.9
288.07	-9.73
288.285	-28.16
288.5	78.33
288.715	49.66
288.93	-24.06
289.145	-13.82
289.36	72.19
289.575	74.24
289.79	29.18
290.004	39.42
290.219	-7.68
290.434	119.29
290.649	6.66
290.864	-32.26
291.079	-15.87
291.294	-3.58
291.509	16.9
291.724	43.52
291.938	16.9
292.153	107.01
292.368	-17.92
292.583	25.09
292.798	45.57
293.012	4.61
293.227	-26.11
293.442	68.09
293.657	92.67
293.871	117.25
294.086	90.62
294.301	84.48
294.516	41.47
294.73	-73.21
294.945	-26.11
295.16	8.7
295.374	127.49
295.589	53.76
295.804	41.47
296.018	-22.02
296.233	123.39
296.447	72.19
296.662	-36.35
296.877	-65.02
297.091	12.8
297.306	111.1
297.52	-9.73
297.735	84.48
297.949	16.9
298.164	53.76
298.378	41.47
298.593	14.85
298.807	-19.97
299.022	37.38
299.236	2.56
299.451	8.7
299.665	25.09
299.88	8.7
300.094	16.9
300.309	-19.97
300.523	-46.59
300.737	27.14
300.952	66.05
301.166	49.66
301.381	-30.21
301.595	-5.63
301.809	45.57
302.024	12.8
302.238	68.09
302.452	98.81
302.667	10.75
302.881	90.62
303.095	51.71
303.309	-46.59
303.524	29.18
303.738	6.66
303.952	-17.92
304.166	94.72
304.381	0.51
304.595	43.52
304.809	59.9
305.023	76.29
305.237	-60.93
305.452	27.14
305.666	29.18
305.88	10.75
306.094	39.42
306.308	41.47
306.522	20.99
306.736	74.24
306.95	33.28
307.164	33.28
307.379	16.9
307.593	29.18
307.807	25.09
308.021	-38.4
308.235	18.94
308.449	16.9
308.663	23.04
308.877	82.43
309.091	16.9
309.305	33.28
309.519	-60.93
309.733	98.81
309.947	4.61
310.161	43.52
310.374	41.47
310.588	31.23
310.802	35.33
311.016	29.18
311.23	33.28
311.444	57.86
311.658	16.9
311.872	29.18
312.085	31.23
312.299	109.05
312.513	68.09
312.727	27.14
312.941	-32.26
313.154	49.66
313.368	-38.4
313.582	107.01
313.796	92.67
314.009	66.05
314.223	94.72
314.437	43.52
314.651	45.57
314.864	-1.54
315.078	0.51
315.292	-71.17
315.505	31.23
315.719	45.57
315.933	-1.54
316.146	31.23
316.36	-19.97
316.573	98.81
316.787	8.7
317.001	82.43
317.214	33.28
317.428	35.33
317.641	41.47
317.855	41.47
318.068	70.14
318.282	0.51
318.495	76.29
318.709	51.71
318.922	18.94
319.136	59.9
319.349	33.28
319.563	37.38
319.776	47.62
319.99	-30.21
320.203	49.66
320.417	-15.87
320.63	109.05
320.843	76.29
321.057	94.72
321.27	27.14
321.483	10.75
321.697	107.01
321.91	123.39
322.124	29.18
322.337	27.14
322.55	6.66
322.763	18.94
322.977	113.15
323.19	-1.54
323.403	27.14
323.617	18.94
323.83	66.05
324.043	45.57
324.256	-7.68
324.469	25.09
324.683	33.28
324.896	57.86
325.109	33.28
325.322	-30.21
325.535	82.43
325.748	39.42
325.962	-65.02
326.175	-24.06
326.388	39.42
326.601	-7.68
326.814	55.81
327.027	0.51
327.24	27.14
327.453	-54.78
327.666	-13.82
327.879	-44.54
328.092	64
328.305	49.66
328.518	70.14
328.731	43.52
328.944	-15.87
329.157	92.67
329.37	92.67
329.583	70.14
329.796	20.99
330.009	-9.73
330.222	20.99
330.435	6.66
330.648	82.43
330.861	-34.3
331.073	29.18
331.286	57.86
331.499	-17.92
331.712	10.75
331.925	-22.02
332.138	23.04
332.35	70.14
332.563	57.86
332.776	68.09
332.989	23.04
333.202	0.51
333.414	33.28
333.627	-13.82
333.84	16.9
334.053	37.38
334.265	-9.73
334.478	51.71
334.691	66.05
334.903	4.61
335.116	-11.78
335.329	43.52
335.541	18.94
335.754	53.76
335.966	31.23
336.179	14.85
336.392	49.66
336.604	94.72
336.817	12.8
337.029	59.9
337.242	33.28
337.454	49.66
337.667	27.14
337.88	68.09
338.092	31.23
338.305	29.18
338.517	33.28
338.729	53.76
338.942	84.48
339.154	39.42
339.367	2.56
339.579	-19.97
339.792	-69.12
340.004	49.66
340.217	37.38
340.429	-79.36
340.641	-22.02
340.854	70.14
341.066	33.28
341.278	-7.68
341.491	-13.82
341.703	2.56
341.915	-44.54
342.128	47.62
342.34	18.94
342.552	37.38
342.764	33.28
342.977	51.71
343.189	76.29
343.401	33.28
343.613	25.09
343.826	-11.78
344.038	33.28
344.25	78.33
344.462	41.47
344.674	10.75
344.886	33.28
345.099	107.01
345.311	33.28
345.523	94.72
345.735	20.99
345.947	-5.63
346.159	-48.64
346.371	-11.78
346.583	64
346.795	66.05
347.007	-32.26
347.219	59.9
347.431	25.09
347.643	41.47
347.855	53.76
348.067	98.81
348.279	16.9
348.491	66.05
348.703	59.9
348.915	70.14
349.127	49.66
349.339	80.38
349.551	20.99
349.763	20.99
349.975	-32.26
350.187	16.9
350.399	18.94
350.61	82.43
350.822	6.66
351.034	6.66
351.246	33.28
351.458	49.66
351.669	123.39
351.881	111.1
352.093	90.62
352.305	66.05
352.517	29.18
352.728	16.9
352.94	16.9
353.152	-46.59
353.363	37.38
353.575	74.24
353.787	131.58
353.999	90.62
354.21	88.57
354.422	-24.06
354.633	20.99
354.845	-13.82
355.057	10.75
355.268	113.15
355.48	49.66
355.692	59.9
355.903	0.51
356.115	45.57
356.326	-60.93
356.538	78.33
356.749	66.05
356.961	90.62
357.172	45.57
357.384	-46.59
357.595	53.76
357.807	-24.06
358.018	18.94
358.23	8.7
358.441	55.81
358.653	37.38
358.864	-5.63
359.075	41.47
359.287	-40.45
359.498	80.38
359.709	94.72
359.921	66.05
360.132	86.53
360.344	59.9
360.555	6.66
360.766	12.8
360.977	-54.78
361.189	-32.26
361.4	37.38
361.611	59.9
361.823	74.24
362.034	16.9
362.245	12.8
362.456	-5.63
362.667	33.28
362.879	20.99
363.09	27.14
363.301	70.14
363.512	12.8
363.723	-54.78
363.935	-65.02
364.146	45.57
364.357	43.52
364.568	-26.11
364.779	2.56
364.99	76.29
365.201	-5.63
365.412	6.66
365.623	-17.92
365.834	10.75
366.045	57.86
366.256	86.53
366.467	18.94
366.678	6.66
366.889	10.75
367.1	25.09
367.311	35.33
367.522	33.28
367.733	61.95
367.944	14.85
368.155	100.86
368.366	41.47
368.577	57.86
368.788	2.56
368.999	-19.97
369.209	35.33
369.42	131.58
369.631	57.86
369.842	41.47
370.053	8.7
370.264	-24.06
370.474	25.09
370.685	43.52
370.896	-5.63
371.107	31.23
371.317	86.53
371.528	23.04
371.739	74.24
371.95	16.9
372.16	57.86
372.371	-30.21
372.582	25.09
372.792	51.71
373.003	102.91
373.214	80.38
373.424	86.53
373.635	27.14
373.846	96.77
374.056	82.43
374.267	14.85
374.477	66.05
374.688	-54.78
374.898	109.05
375.109	66.05
375.319	-15.87
375.53	100.86
375.74	64
375.951	8.7
376.161	100.86
376.372	53.76
376.582	51.71
376.793	102.91
377.003	74.24
377.214	-58.88
377.424	10.75
377.635	-22.02
377.845	-30.21
378.055	45.57
378.266	27.14
378.476	12.8
378.686	61.95
378.897	76.29
379.107	98.81
379.317	72.19
379.528	-38.4
379.738	33.28
379.948	35.33
380.158	94.72
380.369	74.24
380.579	33.28
380.789	80.38
380.999	82.43
381.21	59.9
381.42	121.34
381.63	47.62
381.84	8.7
382.05	35.33
382.261	51.71
382.471	72.19
382.681	16.9
382.891	92.67
383.101	-40.45
383.311	49.66
383.521	0.51
383.731	16.9
383.941	8.7
384.151	84.48
384.361	61.95
384.571	35.33
384.781	66.05
384.991	74.24
385.201	57.86
385.411	82.43
385.621	-42.5
385.831	-19.97
386.041	59.9
386.251	2.56
386.461	139.77
386.671	53.76
386.881	59.9
387.091	8.7
387.301	41.47
387.511	-50.69
387.72	90.62
387.93	18.94
388.14	4.61
388.35	10.75
388.56	100.86
388.769	68.09
388.979	70.14
389.189	20.99
389.399	-22.02
389.609	70.14
389.818	59.9
390.028	43.52
390.238	16.9
390.447	27.14
390.657	127.49
390.867	43.52
391.076	18.94
391.286	133.63
391.496	51.71
391.705	61.95
391.915	119.29
392.125	111.1
392.334	37.38
392.544	82.43
392.753	31.23
392.963	78.33
393.172	-7.68
393.382	-15.87
393.591	147.97
393.801	90.62
394.01	160.25
394.22	96.77
394.429	86.53
394.639	8.7
394.848	74.24
395.058	47.62
395.267	49.66
395.477	98.81
395.686	84.48
395.895	221.69
396.105	154.11
396.314	61.95
396.524	133.63
396.733	16.9
396.942	90.62
397.152	23.04
397.361	92.67
397.57	84.48
397.78	80.38
397.989	102.91
398.198	90.62
398.407	33.28
398.617	66.05
398.826	-5.63
399.035	72.19
399.244	100.86
399.453	8.7
399.663	123.39
399.872	80.38
400.081	27.14
400.29	78.33
400.499	86.53
400.708	133.63
400.917	78.33
401.127	70.14
401.336	180.73
401.545	135.68
401.754	164.35
401.963	147.97
402.172	137.73
402.381	72.19
402.59	70.14
402.799	84.48
403.008	131.58
403.217	123.39
403.426	80.38
403.635	25.09
403.844	190.97
404.053	166.4
404.262	98.81
404.471	217.6
404.68	70.14
404.888	150.01
405.097	115.2
405.306	121.34
405.515	172.54
405.724	123.39
405.933	156.16
406.142	164.35
406.35	170.49
406.559	143.87
406.768	225.79
406.977	197.12
407.185	221.69
407.394	162.3
407.603	178.69
407.812	156.16
408.02	254.46
408.229	190.97
408.438	272.89
408.646	143.87
408.855	184.83
409.064	313.85
409.272	279.04
409.481	256.51
409.69	283.13
409.898	219.64
410.107	295.42
410.315	328.19
410.524	250.36
410.733	295.42
410.941	225.79
411.15	305.66
411.358	412.15
411.567	379.39
411.775	320
411.984	410.11
412.192	334.33
412.401	469.5
412.609	444.92
412.818	496.12
413.026	471.54
413.234	467.45
413.443	442.87
413.651	573.94
413.86	473.59
414.068	573.94
414.276	625.14
414.485	526.84
414.693	641.53
414.901	696.82
415.11	657.91
415.318	647.67
415.526	756.21
415.734	698.87
415.943	725.49
416.151	807.41
416.359	762.36
416.567	786.93
416.776	827.89
416.984	811.51
417.192	944.63
417.4	887.28
417.608	946.67
417.817	909.81
418.025	1042.93
418.233	1059.31
418.441	999.92
418.649	1110.51
418.857	1180.14
419.065	1180.14
419.273	1143.28
419.481	1217.01
419.689	1313.26
419.897	1221.1
420.105	1235.44
420.313	1425.9
420.521	1616.36
420.729	1505.77
420.937	1530.34
421.145	1606.12
421.353	1749.48
421.561	1769.96
421.769	1763.81
421.977	1839.59
422.185	1892.84
422.393	1995.23
422.601	1987.04
422.809	2109.92
423.017	2202.08
423.224	2097.63
423.432	2195.93
423.64	2255.33
423.848	2392.54
424.056	2451.93
424.263	2640.34
424.471	2630.1
424.679	2687.45
424.887	2785.75
425.094	2777.56
425.302	2978.26
425.51	2949.59
425.718	3105.23
425.925	3006.93
426.133	3301.84
426.341	3244.49
426.548	3514.83
426.756	3408.33
426.964	3596.75
427.171	3774.92
427.379	3998.15
427.586	4092.35
427.794	4149.7
428.001	4291.01
428.209	4604.35
428.417	4340.16
428.624	4796.85
428.832	4604.35
429.039	4704.7
429.247	4667.83
429.454	5177.78
429.662	5370.29
429.869	5126.58
430.076	5505.45
430.284	5341.61
430.491	5562.8
430.699	5865.89
430.906	6042.02
431.114	5919.14
431.321	6259.1
431.528	6347.17
431.736	6594.97
431.943	7020.95
432.15	6750.62
432.358	6887.83
432.565	7209.36
432.772	7246.23
432.979	7655.82
433.187	7700.87
433.394	7864.71
433.601	8219.01
433.808	8288.64
434.016	8259.97
434.223	8636.8
434.43	9017.72
434.637	8964.47
434.844	9523.57
435.052	9568.62
435.259	9548.14
435.466	9722.22
435.673	9660.78
435.88	10338.66
436.087	10742.11
436.294	10756.44
436.501	10361.19
436.708	10664.29
436.915	11059.54
437.122	11702.61
437.329	11454.8
437.537	11956.55
437.743	12257.6
437.95	12110.15
438.157	12693.82
438.364	13113.66
438.571	12904.76
438.778	13246.77
438.985	14367.01
439.192	13850.92
439.399	14328.1
439.606	13936.94
439.813	14627.1
440.02	15577.36
440.227	15272.21
440.433	15102.23
440.64	15655.19
440.847	15581.46
441.054	15778.06
441.261	17015.04
441.467	16677.12
441.674	17254.65
441.881	17441.01
442.088	17541.36
442.294	17473.78
442.501	18059.5
442.708	18180.33
442.914	19044.57
443.121	19910.86
443.328	19323.1
443.534	20482.25
443.741	20302.03
443.948	19859.66
444.154	21278.91
444.361	21102.78
444.568	21221.56
444.774	21389.5
444.981	21577.91
445.187	22089.9
445.394	23103.65
445.6	22667.43
445.807	24940.68
446.013	23732.37
446.22	24291.47
446.426	24948.87
446.633	25512.06
446.839	26318.96
447.046	25084.03
447.252	26589.29
447.459	26620.01
447.665	26429.55
447.871	27578.46
448.078	28999.75
448.284	27635.8
448.491	28024.92
448.697	29141.06
448.903	29694.01
449.11	29919.29
449.316	29057.09
449.522	29655.1
449.728	30736.43
449.935	31178.79
450.141	30738.47
450.347	31359.01
450.553	30711.85
450.76	30992.42
450.966	32120.85
451.172	31653.92
451.378	32299.03
451.584	31959.06
451.791	32600.08
451.997	32649.23
452.203	33482.75
452.409	32944.14
452.615	33564.67
452.821	31809.56
453.027	31598.62
453.233	33226.76
453.44	31723.55
453.646	32139.29
453.852	32649.23
454.058	33028.1
454.264	32000.02
454.47	32673.81
454.676	32034.84
454.882	33253.38
455.088	29827.13
455.294	30734.38
455.5	30965.8
455.705	31639.58
455.911	30324.79
456.117	29558.84
456.323	29378.62
456.529	27619.42
456.735	28817.48
456.941	28186.71
457.147	27916.37
457.352	27256.93
457.558	26652.78
457.764	26617.96
457.97	26460.27
458.176	25903.22
458.381	25942.13
458.587	24352.91
458.793	24584.33
458.999	23322.78
459.204	24645.77
459.41	24277.13
459.616	22823.08
459.821	22925.47
460.027	22833.32
460.233	22087.85
460.438	21078.21
460.644	21317.82
460.85	20388.04
461.055	19718.36
461.261	19837.14
461.466	18372.84
461.672	18034.92
461.878	19308.76
462.083	18032.88
462.289	17477.88
462.494	17428.73
462.7	16783.62
462.905	16279.82
463.111	16791.81
463.316	17000.7
463.522	16541.96
463.727	16212.23
463.932	16494.85
464.138	16185.61
464.343	16357.64
464.549	15714.58
464.754	16335.11
464.959	16214.28
465.165	15962.38
465.37	15323.41
465.575	15126.81
465.781	15694.1
465.986	15671.57
466.191	15042.84
466.397	14795.04
466.602	14315.81
466.807	14651.68
467.012	14698.78
467.218	14391.59
467.423	14346.53
467.628	14385.44
467.833	15024.41
468.038	14465.32
468.244	14164.26
468.449	14491.94
468.654	14362.92
468.859	14151.98
469.064	14033.19
469.269	13621.55
469.474	13605.17
469.679	14004.52
469.885	13470
470.09	13564.21
470.295	13738.29
470.5	13228.34
470.705	13410.61
470.91	12896.57
471.115	12775.74
471.32	12966.2
471.525	12810.56
471.73	12622.14
471.935	12736.83
472.139	12351.81
472.344	12355.91
472.549	12353.86
472.754	12118.34
472.959	11854.16
473.164	11569.49
473.369	11520.34
473.574	11723.09
473.778	11964.75
473.983	11516.24
474.188	11780.43
474.393	11161.94
474.598	11331.92
474.802	11260.24
475.007	10955.1
475.212	11024.73
475.417	10625.37
475.621	10543.46
475.826	10641.76
476.031	10545.5
476.235	10049.89
476.44	10414.43
476.645	10103.14
476.849	10309.99
477.054	10088.81
477.259	9875.82
477.463	9875.82
477.668	9812.33
477.872	10002.79
478.077	9591.15
478.282	9556.33
478.486	9480.56
478.691	9388.4
478.895	9296.24
479.1	9283.95
479.304	9384.3
479.509	9019.77
479.713	9056.63
479.918	9003.38
480.122	8808.83
480.326	9052.53
480.531	8876.41
480.735	8876.41
480.94	8778.11
481.144	9034.1
481.348	8647.04
481.553	8712.57
481.757	8481.15
481.961	8604.03
482.166	8626.56
482.37	8593.79
482.574	8432
482.778	8694.14
482.983	8896.89
483.187	8536.45
483.391	8573.31
483.595	8597.88
483.8	8409.47
484.004	8421.76
484.208	8683.9
484.412	8395.14
484.616	8606.08
484.821	8528.25
485.025	8452.48
485.229	8554.88
485.433	8501.63
485.637	8452.48
485.841	8323.46
486.045	8491.39
486.249	8364.42
486.453	8272.26
486.657	8612.22
486.861	8528.25
487.065	8290.69
487.269	8407.42
487.473	8423.81
487.677	8536.45
487.881	8554.88
488.085	8350.08
488.289	8585.6
488.493	8468.86
488.697	8495.49
488.901	8585.6
489.105	8518.01
489.309	8472.96
489.512	8712.57
489.716	8401.28
489.92	8690.04
490.124	8704.38
490.328	8661.37
490.531	8712.57
490.735	8575.36
490.939	8679.8
491.143	8757.63
491.346	8632.7
491.55	9038.2
491.754	8716.67
491.958	8946.04
492.161	8978.81
492.365	8913.27
492.569	9040.25
492.772	8692.09
492.976	8962.42
493.18	9042.29
493.383	9118.07
493.587	9322.87
493.79	9462.13
493.994	9286
494.197	9453.94
494.401	9431.41
494.605	9468.27
494.808	9765.23
495.012	9478.51
495.215	9660.78
495.419	9601.39
495.622	9548.14
495.825	9730.41
496.029	9718.12
496.232	10041.7
496.436	9929.06
496.639	10281.32
496.843	10301.79
497.046	10373.47
497.249	10557.79
497.453	10510.69
497.656	10723.68
497.859	10688.86
498.063	10813.79
498.266	10932.57
498.469	10975.58
498.673	11108.69
498.876	11321.68
499.079	11301.2
499.282	11569.49
499.485	11483.47
499.689	11503.95
499.892	11981.13
500.095	11827.53
500.298	12101.96
500.501	11970.89
500.705	12413.25
500.908	12521.79
501.111	12484.93
501.314	12757.31
501.517	12896.57
501.72	13197.62
501.923	12960.06
502.126	13486.39
502.329	13535.54
502.532	13551.92
502.735	13357.36
502.938	13721.9
503.141	13822.25
503.344	14131.5
503.547	14199.08
503.75	14209.32
503.953	14625.06
504.156	14651.68
504.359	14672.16
504.562	14934.3
504.765	15251.74
504.968	15274.26
505.17	15358.23
505.373	15345.94
505.576	15794.45
505.779	15763.73
505.982	16025.87
506.185	16316.68
506.387	16476.42
506.59	16523.52
506.793	17080.57
506.996	16888.06
507.198	17543.41
507.401	16920.83
507.604	17262.84
507.807	17737.97
508.009	17873.14
508.212	17801.46
508.415	18225.39
508.617	18292.97
508.82	18444.52
509.022	18489.57
509.225	18866.4
509.428	19005.66
509.63	19319
509.833	19136.73
510.035	20109.52
510.238	19378.39
510.44	19886.29
510.643	20267.21
510.845	20283.59
511.048	20082.89
511.25	20875.46
511.453	20924.61
511.655	21571.77
511.858	21108.93
512.06	21436.6
512.262	21774.52
512.465	21436.6
512.667	21670.07
512.87	22188.21
513.072	22261.93
513.274	22712.49
513.477	22771.88
513.679	22937.76
513.881	23398.55
514.084	23703.7
514.286	23597.21
514.488	23314.59
514.69	24293.52
514.893	24281.23
515.095	24639.62
515.297	24739.97
515.499	24828.04
515.701	25272.45
515.904	25264.25
516.106	25430.14
516.308	25792.63
516.51	26009.72
516.712	25931.89
516.914	26148.98
517.116	26822.76
517.318	26712.17
517.52	27101.28
517.722	27078.75
517.925	27586.65
518.127	27955.29
518.329	28285.01
518.531	27627.61
518.733	28342.35
518.935	28401.74
519.136	28686.41
519.338	28739.66
519.54	29247.55
519.742	29587.52
519.944	28940.36
520.146	29634.62
520.348	29980.73
520.55	30226.48
520.752	30380.08
520.954	31197.22
521.155	30447.66
521.357	31182.88
521.559	31424.54
521.761	31719.45
521.963	31645.73
522.164	31756.32
522.366	31705.12
522.568	31963.16
522.77	32704.52
522.971	32772.11
523.173	32485.39
523.375	32903.18
523.576	33064.97
523.778	33237
523.98	33583.1
524.181	33648.64
524.383	33710.08
524.584	34332.66
524.786	34066.42
524.988	34250.74
525.189	34072.57
525.391	35157.99
525.592	34736.11
525.794	35084.26
525.995	35229.67
526.197	35424.23
526.398	35266.53
526.6	35260.39
526.801	35540.96
527.003	35735.52
527.204	35850.2
527.406	35995.61
527.607	35950.56
527.808	36360.15
528.01	35514.34
528.211	36196.31
528.412	36724.69
528.614	36538.32
528.815	36358.1
529.016	36790.22
529.218	36317.14
529.419	36831.18
529.62	36843.47
529.822	36650.96
530.023	37111.75
530.224	36833.23
530.425	37355.46
530.626	37058.51
530.828	36792.27
531.029	37601.22
531.23	37152.71
531.431	36923.34
531.632	37326.79
531.833	37658.56
532.035	37380.04
532.236	37625.79
532.437	37369.8
532.638	37427.14
532.839	37662.66
533.04	37662.66
533.241	37275.59
533.442	38250.42
533.643	37742.53
533.844	37887.93
534.045	37937.09
534.246	37476.29
534.447	37705.66
534.648	37900.22
534.849	38143.93
535.05	37742.53
535.251	38004.67
535.451	37951.42
535.652	37533.64
535.853	37511.11
536.054	37906.37
536.255	38154.17
536.456	37849.02
536.657	38545.33
536.857	37687.23
537.058	37707.71
537.259	37916.61
537.46	38170.55
537.66	37920.7
537.861	38059.96
538.062	37765.06
538.263	38096.83
538.463	37726.14
538.664	37785.54
538.865	37992.38
539.065	38164.41
539.266	37470.15
539.466	38031.29
539.667	37517.25
539.868	38035.39
540.068	37703.62
540.269	37560.26
540.469	37605.31
540.67	37533.64
540.87	38023.1
541.071	37881.79
541.271	37484.48
541.472	37828.54
541.672	37367.75
541.873	37230.54
542.073	36968.4
542.274	37590.98
542.474	37738.43
542.675	37339.08
542.875	37617.6
543.075	37830.59
543.276	37289.93
543.476	37603.27
543.676	37750.72
543.877	37556.16
544.077	37613.51
544.277	37099.47
544.478	37472.2
544.678	37496.77
544.878	37687.23
545.078	37523.4
545.279	37150.67
545.479	37349.32
545.679	37564.35
545.879	37056.46
546.079	37765.06
546.28	37531.59
546.48	37134.28
546.68	37113.8
546.88	37676.99
547.08	37312.45
547.28	37062.6
547.48	37029.83
547.68	37113.8
547.88	36843.47
548.081	37513.16
548.281	37042.12
548.481	37425.09
548.681	37564.35
548.881	37105.61
549.081	37214.15
549.28	37150.67
549.48	37433.28
549.68	36853.71
549.88	37525.44
550.08	37142.47
550.28	37165
550.48	37099.47
550.68	37238.73
550.88	36620.24
551.08	37130.19
551.279	37349.32
551.479	36779.98
551.679	37185.48
551.879	36845.52
552.079	36839.37
552.278	36540.37
552.478	37099.47
552.678	37085.13
552.878	36874.19
553.077	36997.07
553.277	36538.32
553.477	37035.98
553.676	36331.48
553.876	36792.27
554.076	36982.73
554.275	36607.95
554.475	36349.91
554.674	36722.64
554.874	36552.66
555.074	36538.32
555.273	36427.73
555.473	36812.75
555.672	36257.75
555.872	36612.05
556.071	36583.38
556.271	36843.47
556.47	36425.68
556.67	36044.76
556.869	36224.98
557.068	36513.75
557.268	36313.05
557.467	36487.12
557.667	36417.49
557.866	36046.81
558.065	36394.96
558.265	35987.42
558.464	36050.91
558.663	36511.7
558.863	35712.99
559.062	36204.5
559.261	35766.24
559.461	36206.55
559.66	35622.88
559.859	36155.35
560.058	35330.02
560.258	35911.64
560.457	35934.17
560.656	35989.47
560.855	35739.61
561.054	35835.87
561.253	35571.68
561.453	35649.5
561.652	35379.17
561.851	35719.13
562.05	35606.5
562.249	35215.33
562.448	35805.15
562.647	35186.66
562.846	35303.4
563.045	35491.81
563.244	34772.97
563.443	35485.67
563.642	34756.59
563.841	34918.38
564.04	34592.75
564.239	34996.2
564.438	34858.99
564.637	35069.93
564.836	34686.96
565.035	34410.48
565.234	34605.04
565.432	34267.13
565.631	34400.24
565.83	34482.16
566.029	34146.29
566.228	34443.25
566.427	34252.79
566.625	33828.86
566.824	33796.09
567.023	34363.38
567.222	33490.94
567.42	34228.21
567.619	33959.93
567.818	34097.14
568.016	33837.05
568.215	34091
568.414	33980.41
568.612	33839.1
568.811	33646.59
569.01	33841.15
569.208	33200.13
569.407	33742.85
569.605	33157.13
569.804	33720.32
570.002	33120.26
570.201	33165.32
570.4	32921.61
570.598	32561.17
570.797	32833.55
570.995	33024.01
571.193	32512.02
571.392	33089.54
571.59	32399.38
571.789	32682
571.987	32509.97
572.186	32725
572.384	32413.71
572.582	32442.38
572.781	32739.34
572.979	31842.33
573.177	32051.22
573.376	32426
573.574	31854.62
573.772	31827.99
573.971	31768.6
574.169	31875.1
574.367	31590.43
574.565	31789.08
574.763	31651.87
574.962	31598.62
575.16	31494.18
575.358	31356.96
575.556	30890.02
575.754	31608.86
575.952	31125.54
576.151	31490.08
576.349	30959.66
576.547	30730.28
576.745	31307.81
576.943	31105.06
577.141	30844.97
577.339	30761
577.537	30593.07
577.735	30629.93
577.933	30468.14
578.131	30449.71
578.329	30519.34
578.527	30019.64
578.725	30541.87
578.923	30382.13
579.121	30136.37
579.319	30103.6
579.516	29911.1
579.714	30134.32
579.912	29833.27
580.11	29599.8
580.308	29843.51
580.506	29694.01
580.704	29452.35
580.901	29298.75
581.099	29722.68
581.297	29067.33
581.495	29231.17
581.692	29151.3
581.89	29030.47
582.088	29202.5
582.285	28817.48
582.483	29005.89
582.681	28842.06
582.878	28926.02
583.076	28725.32
583.274	28919.88
583.471	28483.66
583.669	28536.91
583.866	28328.02
584.064	28797
584.262	28270.67
584.459	28338.26
584.657	28127.31
584.854	28184.66
585.052	27689.05
585.249	28037.2
585.447	28102.74
585.644	27936.85
585.841	27553.88
586.039	28133.46
586.236	27543.64
586.434	27750.49
586.631	27410.53
586.828	27258.98
587.026	27318.37
587.223	27476.06
587.42	27146.34
587.618	27275.36
587.815	26746.98
588.012	26486.89
588.21	26873.96
588.407	27252.83
588.604	26730.6
588.801	26583.15
588.999	26521.71
589.196	26673.26
589.393	26814.57
589.59	26275.95
589.787	26499.18
589.984	26505.32
590.182	25888.88
590.379	26161.26
590.576	26052.72
590.773	26144.88
590.97	25886.84
591.167	26273.9
591.364	25579.64
591.561	25915.51
591.758	25626.74
591.955	25546.87
592.152	25655.42
592.349	25247.87
592.546	25743.48
592.743	25460.86
592.94	24955.01
593.137	25163.9
593.334	25522.3
593.531	24625.29
593.727	25038.98
593.924	24903.81
594.121	24920.2
594.318	24813.7
594.515	24461.45
594.712	25036.93
594.908	24891.52
595.105	24656.01
595.302	24529.03
595.499	24610.95
595.696	24187.02
595.892	23976.08
596.089	24199.31
596.286	24338.57
596.482	23978.13
596.679	24135.82
596.876	24113.3
597.072	23859.35
597.269	23875.73
597.466	23857.3
597.662	23654.55
597.859	23330.97
598.055	23689.37
598.252	23253.15
598.448	23513.24
598.645	23335.07
598.841	22995.11
599.038	23025.82
599.234	23077.02
599.431	22919.33
599.627	23005.34
599.824	22851.75
600.02	22880.42
600.217	22921.38
600.413	22798.5
600.609	22409.39
600.806	22589.61
601.002	22628.52
601.198	22716.58
601.395	22231.21
601.591	22190.25
601.787	22096.05
601.984	22040.75
602.18	22409.39
602.376	22061.23
602.572	21893.3
602.769	22083.76
602.965	21627.06
603.161	21956.78
603.357	21702.84
603.553	21584.05
603.75	21649.59
603.946	21356.73
604.142	21577.91
604.338	21211.32
604.534	21397.69
604.73	21184.7
604.926	21055.68
605.122	21389.5
605.318	20943.04
605.514	20910.27
605.71	21065.92
605.906	21045.44
606.102	21051.58
606.298	20836.55
606.494	20687.04
606.69	20611.27
606.886	20834.5
607.082	20652.23
607.278	20842.69
607.474	20244.68
607.67	20824.26
607.866	20277.45
608.062	20371.66
608.257	20369.61
608.453	20125.9
608.649	20689.09
608.845	20033.74
609.041	20263.11
609.236	19935.44
609.432	20099.28
609.628	19960.02
609.824	19853.52
610.019	20175.05
610.215	19998.93
610.411	19890.38
610.606	19949.78
610.802	20074.7
610.998	19634.39
611.193	19914.96
611.389	19558.61
611.584	19849.43
611.78	19413.21
611.976	19583.19
612.171	19824.85
612.367	19587.29
612.562	19540.18
612.758	19042.53
612.953	19409.11
613.149	19364.06
613.344	18907.36
613.539	19605.72
613.735	19314.91
613.93	19548.37
614.126	19187.93
614.321	19261.66
614.517	19253.47
614.712	19189.98
614.907	18747.62
615.103	19114.2
615.298	18862.3
615.493	19028.19
615.688	18929.89
615.884	19464.41
616.079	18647.27
616.274	18966.75
616.47	18942.17
616.665	18929.89
616.86	18860.26
617.055	18469.09
617.25	18508.01
617.445	18940.13
617.641	18153.71
617.836	18827.49
618.031	18071.79
618.226	18473.19
618.421	18467.05
618.616	18532.58
618.811	18155.75
619.006	18335.98
619.201	17748.21
619.396	18247.91
619.591	17719.54
619.786	17877.23
619.981	17711.35
620.176	17866.99
620.371	17510.64
620.566	17791.22
620.761	17275.13
620.956	17539.32
621.151	17262.84
621.346	17281.27
621.541	16965.89
621.735	17287.42
621.93	17158.39
622.125	16943.36
622.32	16740.61
622.515	17021.18
622.709	16589.06
622.904	16806.14
623.099	16408.84
623.294	16767.23
623.488	16435.46
623.683	16226.57
623.878	16066.83
624.072	16253.19
624.267	16118.03
624.462	15894.8
624.656	15733.01
624.851	15991.05
625.046	15808.78
625.24	15622.42
625.435	15589.65
625.629	15495.44
625.824	15636.75
626.018	15352.09
626.213	15223.06
626.407	15325.46
626.602	15227.16
626.796	15112.47
626.991	15089.95
627.185	14797.09
627.38	14960.92
627.574	14616.86
627.768	14711.07
627.963	14502.18
628.157	14557.47
628.352	14379.3
628.546	14057.77
628.74	14410.02
628.935	14233.89
629.129	14199.08
629.323	13955.37
629.517	13895.98
629.712	13908.27
629.906	14020.91
630.1	13539.63
630.294	13781.29
630.489	13594.93
630.683	13562.16
630.877	13453.62
631.071	13467.95
631.265	13535.54
631.459	13422.9
631.653	13308.21
631.848	13037.88
632.042	13132.09
632.236	13177.14
632.43	12773.69
632.624	12978.49
632.818	12800.32
633.012	12779.84
633.206	12599.62
633.4	12732.73
633.594	12357.96
633.788	12538.18
633.982	12511.55
634.176	12450.11
634.369	12192.07
634.563	12298.56
634.757	12149.06
634.951	12087.62
635.145	12110.15
635.339	12067.14
635.533	11860.3
635.726	11911.5
635.92	11731.28
636.114	11766.09
636.308	11608.4
636.501	11850.06
636.695	11755.85
636.889	11538.77
637.083	11344.21
637.276	11446.61
637.47	11381.07
637.664	11274.58
637.857	11282.77
638.051	11180.37
638.244	11123.03
638.438	11088.21
638.632	10946.9
638.825	11016.54
639.019	10979.67
639.212	10764.64
639.406	10903.9
639.599	10723.68
639.793	10543.46
639.986	10439.01
640.18	10494.3
640.373	10590.56
640.567	10367.33
640.76	10436.96
640.954	10150.25
641.147	10297.7
641.34	10056.04
641.534	10226.02
641.727	10201.44
641.92	10021.22
642.114	9998.7
642.307	9947.5
642.5	9976.17
642.694	9816.43
642.887	9879.91
643.08	9841
643.273	9904.49
643.467	9560.43
643.66	9546.09
643.853	9591.15
644.046	9388.4
644.239	9560.43
644.432	9455.98
644.626	9212.28
644.819	9212.28
645.012	9159.03
645.205	9247.09
645.398	9236.85
645.591	8991.09
645.784	9118.07
645.977	8896.89
646.17	8946.04
646.363	8903.03
646.556	8737.15
646.749	8814.97
646.942	8907.13
647.135	8808.83
647.328	8716.67
647.521	8640.89
647.714	8505.73
647.907	8536.45
648.099	8501.63
648.292	8507.77
648.485	8540.54
648.678	8253.83
648.871	8321.41
649.064	8141.19
649.256	8284.55
649.449	8345.98
649.642	8200.58
649.835	8126.85
650.027	8065.41
650.22	8143.24
650.413	8020.36
650.605	8001.93
650.798	7862.66
650.991	7795.08
651.183	7846.28
651.376	7745.93
651.568	7905.67
651.761	7717.26
651.954	7688.59
652.146	7813.51
652.339	7707.02
652.531	7676.3
652.724	7514.51
652.916	7422.35
653.109	7291.28
653.301	7434.64
653.494	7567.76
653.686	7274.9
653.879	7242.13
654.071	7266.71
654.263	7139.73
654.456	7160.21
654.648	7125.4
654.84	7078.29
655.033	7266.71
655.225	7066
655.417	7133.59
655.61	7119.25
655.802	7006.61
655.994	6893.97
656.186	6988.18
656.379	6750.62
656.571	7008.66
656.763	6758.81
656.955	6777.24
657.148	6558.11
657.34	6713.75
657.532	6662.55
657.724	6574.49
657.916	6640.03
658.108	6629.79
658.3	6523.29
658.492	6480.29
658.684	6431.13
658.876	6359.45
659.068	6386.08
659.26	6189.47
659.452	6222.24
659.644	6314.4
659.836	6146.47
660.028	6261.15
660.22	6062.5
660.412	6019.49
660.604	6201.76
660.796	6154.66
660.988	6074.79
661.18	5906.85
661.372	6097.31
661.563	6021.54
661.755	5937.57
661.947	5876.13
662.139	5990.82
662.331	5910.95
662.522	5736.87
662.714	5622.19
662.906	5681.58
663.097	5841.32
663.289	5654.95
663.481	5546.41
663.673	5689.77
663.864	5374.38
664.056	5581.23
664.247	5630.38
664.439	5405.1
664.631	5554.6
664.822	5374.38
665.014	5382.57
665.205	5525.93
665.397	5427.63
665.588	5335.47
665.78	5331.37
665.971	5476.78
666.163	5292.46
666.354	5261.74
666.546	5212.59
666.737	5140.91
666.929	5134.77
667.12	5075.38
667.311	5128.63
667.503	5085.62
667.694	5071.28
667.885	5042.61
668.077	4989.36
668.268	4925.88
668.459	4932.02
668.651	4966.84
668.842	4964.79
669.033	4841.91
669.224	4817.33
669.416	4964.79
669.607	4864.44
669.798	4737.46
669.989	4919.73
670.18	4751.8
670.371	4841.91
670.563	4714.94
670.754	4645.31
670.945	4600.25
671.136	4538.81
671.327	4555.19
671.518	4600.25
671.709	4723.13
671.9	4680.12
672.091	4407.74
672.282	4575.67
672.473	4581.82
672.664	4612.54
672.855	4592.06
673.046	4571.58
673.237	4575.67
673.428	4477.37
673.619	4434.36
673.809	4471.23
674	4295.1
674.191	4458.94
674.382	4325.82
674.573	4237.76
674.764	4448.7
674.954	4250.05
675.145	4473.28
675.336	4399.55
675.527	4278.72
675.717	4301.25
675.908	4112.83
676.099	4233.66
676.289	4202.94
676.48	4166.08
676.671	4149.7
676.861	4366.78
677.052	4219.33
677.243	4108.74
677.433	4035.01
677.624	4202.94
677.814	3985.86
678.005	4071.87
678.195	4012.48
678.386	3899.84
678.576	3981.76
678.767	4039.11
678.957	4121.03
679.148	4159.94
679.338	4000.19
679.529	4069.83
679.719	4065.73
679.909	4080.07
680.1	3867.08
680.29	3977.67
680.481	3854.79
680.671	3862.98
680.861	3893.7
681.052	4024.77
681.242	3887.56
681.432	3862.98
681.622	3867.08
681.813	3830.21
682.003	3885.51
682.193	3840.45
682.383	3733.96
682.573	3693
682.764	3752.39
682.954	3766.73
683.144	3781.06
683.334	3795.4
683.524	3744.2
683.714	3674.57
683.904	3713.48
684.094	3783.11
684.284	3664.33
684.474	3785.16
684.664	3654.09
684.854	3746.25
685.044	3672.52
685.234	3490.25
685.424	3656.14
685.614	3707.34
685.804	3604.94
685.994	3543.5
686.184	3516.87
686.374	3518.92
686.564	3563.98
686.753	3547.59
686.943	3502.54
687.133	3629.51
687.323	3359.18
687.513	3447.24
687.702	3486.15
687.892	3434.96
688.082	3461.58
688.272	3490.25
688.461	3445.2
688.651	3394
688.841	3377.61
689.03	3310.03
689.22	3350.99
689.41	3369.42
689.599	3260.88
689.789	3359.18
689.979	3213.77
690.168	3228.11
690.358	3273.17
690.547	3170.77
690.737	3219.92
690.926	3181.01
691.116	3172.82
691.305	3236.3
691.495	3105.23
691.684	3082.7
691.874	3138
692.063	3068.37
692.252	3181.01
692.442	3115.47
692.631	2845.14
692.82	3158.48
693.01	2961.87
693.199	2941.4
693.388	3031.51
693.578	3045.84
693.767	3064.27
693.956	2955.73
694.146	2914.77
694.335	2974.16
694.524	2902.48
694.713	2994.64
694.902	2908.63
695.092	2945.49
695.281	2771.41
695.47	2976.21
695.659	2818.52
695.848	2918.87
696.037	2826.71
696.226	2707.93
696.415	2830.8
696.604	2906.58
696.793	2834.9
696.982	2789.85
697.171	2861.52
697.36	2882
697.549	2744.79
697.738	2648.54
697.927	2712.02
698.116	2724.31
698.305	2814.42
698.494	2720.21
698.683	2812.37
698.872	2699.73
699.061	2755.03
699.25	2714.07
699.438	2763.22
699.627	2765.27
699.816	2601.43
700.005	2568.66
700.193	2646.49
700.382	2656.73
700.571	2738.65
700.76	2701.78
700.948	2658.78
701.137	2779.61
701.326	2572.76
701.514	2646.49
701.703	2681.3
701.892	2642.39
702.08	2587.1
702.269	2658.78
702.457	2566.62
702.646	2763.22
702.834	2658.78
703.023	2580.95
703.212	2537.95
703.4	2705.88
703.589	2578.9
703.777	2642.39
703.965	2394.59
704.154	2591.19
704.342	2712.02
704.531	2558.42
704.719	2580.95
704.907	2626.01
705.096	2523.61
705.284	2472.41
705.472	2509.27
705.661	2478.55
705.849	2564.57
706.037	2583
706.226	2453.98
706.414	2539.99
706.602	2388.44
706.79	2552.28
706.979	2417.12
707.167	2494.94
707.355	2404.83
707.543	2570.71
707.731	2466.27
707.919	2513.37
708.107	2447.83
708.296	2435.55
708.484	2445.79
708.672	2537.95
708.86	2501.08
709.048	2445.79
709.236	2431.45
709.424	2372.06
709.612	2331.1
709.8	2396.64
709.988	2394.59
710.176	2453.98
710.364	2447.83
710.551	2433.5
710.739	2597.34
710.927	2327
711.115	2357.72
711.303	2410.97
711.491	2345.44
711.679	2400.73
711.866	2290.14
712.054	2347.48
712.242	2413.02
712.43	2423.26
712.617	2365.92
712.805	2349.53
712.993	2404.83
713.181	2216.41
713.368	2255.33
713.556	2531.8
713.744	2370.01
713.931	2544.09
714.119	2318.81
714.306	2337.24
714.494	2329.05
714.682	2406.88
714.869	2212.32
715.057	2351.58
715.244	2329.05
715.432	2372.06
715.619	2367.96
715.807	2404.83
715.994	2306.52
716.182	2341.34
716.369	2419.16
716.556	2388.44
716.744	2296.28
716.931	2259.42
717.119	2318.81
717.306	2335.2
717.493	2351.58
717.681	2148.83
717.868	2314.72
718.055	2423.26
718.242	2345.44
718.43	2312.67
718.617	2324.96
718.804	2296.28
718.991	2247.13
719.179	2281.95
719.366	2327
719.553	2335.2
719.74	2236.89
719.927	2245.09
720.114	2374.11
720.301	2236.89
720.488	2286.05
720.676	2212.32
720.863	2197.98
721.05	2234.85
721.237	2236.89
721.424	2386.4
721.611	2243.04
721.798	2292.19
721.985	2154.98
722.172	2114.02
722.358	2271.71
722.545	2238.94
722.732	2118.11
722.919	2238.94
723.106	2247.13
723.293	2195.93
723.48	2286.05
723.667	2247.13
723.853	2175.45
724.04	2396.64
724.227	2251.23
724.414	2126.3
724.6	2253.28
724.787	2202.08
724.974	2288.09
725.161	2232.8
725.347	2187.74
725.534	2210.27
725.72	2181.6
725.907	2245.09
726.094	2238.94
726.28	2081.25
726.467	2144.74
726.653	2085.34
726.84	2200.03
727.027	2187.74
727.213	2085.34
727.4	2212.32
727.586	2030.05
727.773	2210.27
727.959	2206.17
728.145	2142.69
728.332	2193.89
728.518	2126.3
728.705	2249.18
728.891	2202.08
729.077	2232.8
729.264	2122.21
729.45	2169.31
729.636	2255.33
729.823	2157.02
730.009	2253.28
730.195	2290.14
730.382	2062.82
730.568	2195.93
730.754	2136.54
730.94	2167.26
731.126	2120.16
731.313	2179.55
731.499	2189.79
731.685	2187.74
731.871	2093.54
732.057	2075.1
732.243	2208.22
732.429	2140.64
732.615	2173.41
732.801	2130.4
732.987	2058.72
733.173	2114.02
733.359	2138.59
733.545	2152.93
733.731	2023.91
733.917	2173.41
734.103	2124.26
734.289	2171.36
734.475	2064.86
734.661	2204.13
734.847	2091.49
735.033	2136.54
735.219	2191.84
735.404	2114.02
735.59	2101.73
735.776	2132.45
735.962	2146.78
736.148	2126.3
736.333	2114.02
736.519	2058.72
736.705	2083.3
736.89	2138.59
737.076	1989.09
737.262	2087.39
737.447	2073.06
737.633	2019.81
737.819	2159.07
738.004	1999.33
738.19	1984.99
738.375	2025.95
738.561	2163.17
738.747	2028
738.932	1980.9
739.118	2058.72
739.303	2032.1
739.489	1958.37
739.674	1882.6
739.859	1982.95
740.045	2048.48
740.23	2028
740.416	1941.99
740.601	2087.39
740.786	2107.87
740.972	1919.46
741.157	2021.86
741.342	2007.52
741.528	1880.55
741.713	2052.58
741.898	1991.14
742.084	1946.08
742.269	1962.47
742.454	1937.89
742.639	1874.4
742.824	1837.54
743.01	2062.82
743.195	1987.04
743.38	1855.97
743.565	1931.75
743.75	1892.84
743.935	1954.27
744.12	1878.5
744.305	1786.34
744.49	1901.03
744.675	1802.72
744.86	1952.23
745.045	1913.31
745.23	1782.24
745.415	1812.96
745.6	1757.67
745.785	1831.4
745.97	1782.24
746.155	1690.09
746.34	1831.4
746.525	1671.65
746.71	1757.67
746.895	1729
747.079	1735.14
747.264	1712.61
747.449	1765.86
747.634	1790.44
747.819	1729
748.003	1741.29
748.188	1626.6
748.373	1642.98
748.557	1696.23
748.742	1698.28
748.927	1647.08
749.111	1542.63
749.296	1540.58
749.481	1681.89
749.665	1583.59
749.85	1610.22
750.034	1610.22
750.219	1516.01
750.404	1520.1
750.588	1552.87
750.773	1487.34
750.957	1491.43
751.141	1427.95
751.326	1542.63
751.51	1389.03
751.695	1618.41
751.879	1505.77
752.064	1511.91
752.248	1434.09
752.432	1491.43
752.617	1495.53
752.801	1452.52
752.985	1538.54
753.17	1452.52
753.354	1444.33
753.538	1509.86
753.722	1356.27
753.907	1401.32
754.091	1386.99
754.275	1348.08
754.459	1358.32
754.643	1278.44
754.828	1395.18
755.012	1247.72
755.196	1276.4
755.38	1331.69
755.564	1280.49
755.748	1245.68
755.932	1403.37
756.116	1212.91
756.3	1270.25
756.484	1239.53
756.668	1294.83
756.852	1204.72
757.036	1241.58
757.22	1100.27
757.404	1298.92
757.588	1114.61
757.772	1204.72
757.956	1171.95
758.14	1155.57
758.323	1171.95
758.507	1135.09
758.691	1020.4
758.875	1239.53
759.059	1174
759.242	1100.27
759.426	1063.41
759.61	1055.22
759.794	1049.07
759.977	1055.22
760.161	1130.99
760.345	1044.98
760.528	1081.84
760.712	1075.7
760.895	1067.5
761.079	1042.93
761.263	1032.69
761.446	938.48
761.63	1118.7
761.813	1036.78
761.997	1001.97
762.18	1016.3
762.364	993.78
762.547	950.77
762.731	967.15
762.914	963.06
763.098	985.58
763.281	989.68
763.464	1004.02
763.648	991.73
763.831	924.15
764.015	915.95
764.198	881.14
764.381	911.86
764.564	928.24
764.748	911.86
764.931	944.63
765.114	827.89
765.297	938.48
765.481	924.15
765.664	950.77
765.847	938.48
766.03	885.23
766.213	868.85
766.397	831.99
766.58	887.28
766.763	881.14
766.946	877.04
767.129	735.73
767.312	854.51
767.495	823.8
767.678	887.28
767.861	844.28
768.044	842.23
768.227	901.62
768.41	731.64
768.593	879.09
768.776	866.8
768.959	844.28
769.142	885.23
769.324	846.32
769.507	735.73
769.69	762.36
769.873	819.7
770.056	836.08
770.239	721.4
770.421	801.27
770.604	803.32
770.787	766.45
770.97	813.56
771.152	686.58
771.335	799.22
771.518	745.97
771.7	745.97
771.883	795.12
772.066	770.55
772.248	786.93
772.431	721.4
772.613	858.61
772.796	760.31
772.978	764.4
773.161	874.99
773.343	666.1
773.526	745.97
773.708	690.68
773.891	719.35
774.073	705.01
774.256	670.2
774.438	680.44
774.621	676.34
774.803	723.44
774.985	688.63
775.168	713.21
775.35	610.81
775.532	690.68
775.715	688.63
775.897	688.63
776.079	592.37
776.261	696.82
776.444	682.49
776.626	647.67
776.808	567.8
776.99	571.9
777.173	614.9
777.355	633.33
777.537	623.09
777.719	578.04
777.901	553.46
778.083	580.09
778.265	553.46
778.447	594.42
778.629	528.89
778.811	590.33
778.993	586.23
779.175	604.66
779.357	524.79
779.539	555.51
779.721	569.85
779.903	502.26
780.085	559.61
780.267	614.9
780.449	520.7
780.631	602.61
780.812	547.32
780.994	590.33
781.176	502.26
781.358	557.56
781.54	551.42
781.721	494.07
781.903	483.83
782.085	524.79
782.267	557.56
782.448	410.11
782.63	457.21
782.812	477.69
782.993	508.41
783.175	446.97
783.357	444.92
783.538	520.7
783.72	424.44
783.901	494.07
784.083	522.74
784.264	459.26
784.446	457.21
784.627	422.39
784.809	438.78
784.99	449.02
785.172	467.45
785.353	379.39
785.535	444.92
785.716	414.2
785.897	322.04
786.079	426.49
786.26	442.87
786.441	434.68
786.623	369.15
786.804	360.95
786.985	354.81
787.167	444.92
787.348	446.97
787.529	354.81
787.71	467.45
787.891	375.29
788.073	395.77
788.254	297.47
788.435	430.59
788.616	350.71
788.797	317.95
788.978	373.24
789.159	326.14
789.34	324.09
789.522	305.66
789.703	313.85
789.884	315.9
790.065	420.35
790.246	332.28
790.427	356.86
790.607	317.95
790.788	369.15
790.969	291.32
791.15	393.72
791.331	344.57
791.512	295.42
791.693	252.41
791.874	330.23
792.054	305.66
792.235	360.95
792.416	246.27
792.597	168.45
792.778	301.56
792.958	313.85
793.139	328.19
793.32	344.57
793.5	256.51
793.681	311.8
793.862	315.9
794.042	246.27
794.223	252.41
794.404	229.88
794.584	252.41
794.765	320
794.945	315.9
795.126	242.17
795.306	352.76
795.487	270.84
795.667	270.84
795.848	332.28
796.028	281.08
796.209	326.14
796.389	231.93
796.57	258.56
796.75	258.56
796.93	254.46
797.111	233.98
797.291	299.52
797.471	295.42
797.652	270.84
797.832	236.03
798.012	233.98
798.192	225.79
798.373	229.88
798.553	281.08
798.733	231.93
798.913	242.17
799.093	305.66
799.274	207.36
799.454	248.32
799.634	254.46
799.814	274.94
799.994	197.12
800.174	264.7
800.354	223.74
800.534	164.35
800.714	223.74
800.894	199.16
801.074	233.98
801.254	172.54
801.434	262.65
801.614	188.93
801.794	223.74
801.974	707.06
802.154	170.49
802.334	166.4
802.514	172.54
802.693	197.12
802.873	213.5
803.053	238.08
803.233	209.4
803.413	256.51
803.592	176.64
803.772	180.73
803.952	238.08
804.131	125.44
804.311	164.35
804.491	172.54
804.67	219.64
804.85	188.93
805.03	281.08
805.209	160.25
805.389	150.01
805.568	180.73
805.748	137.73
805.928	219.64
806.107	195.07
806.287	199.16
806.466	147.97
806.646	164.35
806.825	205.31
807.004	111.1
807.184	238.08
807.363	205.31
807.543	152.06
807.722	90.62
807.901	143.87
808.081	117.25
808.26	84.48
808.439	248.32
808.619	164.35
808.798	193.02
808.977	172.54
809.156	190.97
809.336	156.16
809.515	137.73
809.694	113.15
809.873	102.91
810.052	104.96
810.231	156.16
810.411	139.77
810.59	174.59
810.769	180.73
810.948	160.25
811.127	59.9
811.306	111.1
811.485	166.4
811.664	199.16
811.843	88.57
812.022	102.91
812.201	80.38
812.38	127.49
812.559	115.2
812.737	131.58
812.916	188.93
813.095	147.97
813.274	205.31
813.453	84.48
813.632	158.21
813.811	205.31
813.989	98.81
814.168	156.16
814.347	111.1
814.526	133.63
814.704	156.16
814.883	98.81
815.062	152.06
815.24	139.77
815.419	137.73
815.598	76.29
815.776	133.63
815.955	119.29
816.133	14.85
816.312	166.4
816.49	184.83
816.669	143.87
816.847	139.77
817.026	98.81
817.204	180.73
817.383	125.44
817.561	74.24
817.74	74.24
817.918	27.14
818.097	107.01
818.275	115.2
818.453	168.45
818.632	84.48
818.81	25.09
818.988	107.01
819.167	115.2
819.345	88.57
819.523	84.48
819.701	102.91
819.879	131.58
820.058	102.91
820.236	137.73
820.414	197.12
820.592	152.06
820.77	45.57
820.948	70.14
821.127	35.33
821.305	143.87
821.483	82.43
821.661	74.24
821.839	61.95
822.017	72.19
822.195	113.15
822.373	49.66
822.551	111.1
822.729	139.77
822.907	49.66
823.085	156.16
823.262	10.75
823.44	86.53
823.618	37.38
823.796	111.1
823.974	53.76
824.152	49.66
824.329	127.49
824.507	100.86
824.685	64
824.863	205.31
825.04	107.01
825.218	107.01
825.396	109.05
825.574	137.73
825.751	20.99
825.929	29.18
826.107	104.96
826.284	90.62
826.462	131.58
826.639	68.09
826.817	98.81
826.994	156.16
827.172	35.33
827.349	141.82
827.527	96.77
827.704	57.86
827.882	98.81
828.059	55.81
828.237	82.43
828.414	82.43
828.591	-26.11
828.769	74.24
828.946	123.39
829.124	133.63
829.301	131.58
829.478	74.24
829.655	25.09
829.833	102.91
830.01	25.09
830.187	139.77
830.364	61.95
830.542	111.1
830.719	76.29
830.896	31.23
831.073	88.57
831.25	55.81
831.427	74.24
831.604	-15.87
831.782	16.9
831.959	100.86
832.136	-7.68
832.313	-7.68
832.49	70.14
832.667	82.43
832.844	8.7
833.021	90.62
833.198	100.86
833.374	107.01
833.551	33.28
833.728	2.56
833.905	41.47
834.082	-11.78
834.259	-1.54
834.436	102.91
834.612	8.7
834.789	104.96
834.966	145.92
835.143	80.38
835.319	154.11
835.496	92.67
835.673	41.47
835.85	-65.02
836.026	74.24
836.203	121.34
836.38	107.01
836.556	-26.11
836.733	-15.87
836.909	66.05
837.086	31.23
837.262	53.76
837.439	0.51
837.616	43.52
837.792	37.38
837.968	59.9
838.145	8.7
838.321	84.48
838.498	64
838.674	107.01
838.851	-11.78
839.027	33.28
839.203	86.53
839.38	86.53
839.556	-22.02
839.732	59.9
839.909	10.75
840.085	53.76
840.261	113.15
840.437	61.95
840.614	49.66
840.79	25.09
840.966	57.86
841.142	70.14
841.318	4.61
841.494	102.91
841.671	23.04
841.847	0.51
842.023	25.09
842.199	78.33
842.375	57.86
842.551	-5.63
842.727	37.38
842.903	131.58
843.079	33.28
843.255	8.7
843.431	53.76
843.607	107.01
843.783	35.33
843.959	109.05
844.134	39.42
844.31	64
844.486	53.76
844.662	78.33
844.838	39.42
845.013	86.53
845.189	66.05
845.365	141.82
845.541	-38.4
845.716	35.33
845.892	29.18
846.068	4.61
846.244	-40.45
846.419	66.05
846.595	0.51
846.77	49.66
846.946	59.9
847.122	49.66
847.297	86.53
847.473	131.58
847.648	37.38
847.824	100.86
847.999	2.56
848.175	25.09
848.35	31.23
848.526	51.71
848.701	-40.45
848.876	41.47
849.052	29.18
849.227	39.42
849.403	33.28
849.578	59.9
849.753	41.47
849.929	53.76
850.104	27.14
850.279	57.86
850.454	4.61
850.63	57.86
850.805	43.52
850.98	16.9
851.155	12.8
851.33	41.47
851.505	55.81
851.681	8.7
851.856	-32.26
852.031	25.09
852.206	-42.5
852.381	27.14
852.556	12.8
852.731	41.47
852.906	-5.63
853.081	-19.97
853.256	107.01
853.431	45.57
853.606	51.71
853.781	16.9
853.956	0.51
854.131	0.51
854.305	82.43
854.48	-44.54
854.655	45.57
854.83	-34.3
855.005	-17.92
855.18	123.39
855.354	45.57
855.529	-38.4
855.704	64
855.879	6.66
856.053	59.9
856.228	33.28
856.403	-15.87
856.577	33.28
856.752	27.14
856.926	6.66
857.101	-24.06
857.276	2.56
857.45	23.04
857.625	31.23
857.799	-7.68
857.974	16.9
858.148	-58.88
858.323	45.57
858.497	31.23
858.672	2.56
858.846	-69.12
859.02	-5.63
859.195	-62.98
859.369	-7.68
859.543	25.09
859.718	-13.82
859.892	10.75
860.066	12.8
860.241	-28.16
860.415	82.43
860.589	8.7
860.763	12.8
860.938	41.47
861.112	12.8
861.286	-11.78
861.46	-32.26
861.634	-24.06
861.808	10.75
861.982	35.33
862.157	23.04
862.331	-32.26
862.505	57.86
862.679	-40.45
862.853	0.51
863.027	25.09
863.201	141.82
863.375	12.8
863.549	33.28
863.722	0.51
863.896	-22.02
864.07	-5.63
864.244	-46.59
864.418	2.56
864.592	-81.41
864.766	35.33
864.939	43.52
865.113	-46.59
865.287	37.38
865.461	-11.78
865.634	8.7
865.808	41.47
865.982	20.99
866.156	-17.92
866.329	-22.02
866.503	-65.02
866.676	31.23
866.85	-22.02
867.024	16.9
867.197	82.43
867.371	76.29
867.544	-24.06
867.718	-7.68
867.891	0.51
868.065	37.38
868.238	27.14
868.412	98.81
868.585	0.51
868.759	37.38
868.932	8.7
869.105	25.09
869.279	47.62
869.452	49.66
869.625	16.9
869.799	33.28
869.972	-24.06
870.145	4.61
870.319	61.95
870.492	51.71
870.665	-46.59
870.838	8.7
871.011	-11.78
871.185	20.99
871.358	-56.83
871.531	10.75
871.704	23.04
871.877	-19.97
872.05	55.81
872.223	-13.82
872.396	70.14
872.569	92.67
872.742	-26.11
872.915	-40.45
873.088	-38.4
873.261	-24.06
873.434	98.81
873.607	-11.78
873.78	-11.78
873.953	-13.82
874.126	82.43
874.299	-13.82
874.471	12.8
874.644	45.57
874.817	20.99
874.99	2.56
875.163	-42.5
875.335	-22.02
875.508	-48.64
875.681	-32.26
875.853	-26.11
876.026	-13.82
876.199	14.85
876.371	23.04
876.544	16.9
876.717	-62.98
876.889	-101.89
877.062	-36.35
877.234	-13.82
877.407	-15.87
877.579	8.7
877.752	-9.73
877.924	-50.69
878.097	141.82
878.269	25.09
878.442	14.85
878.614	43.52
878.786	92.67
878.959	98.81
879.131	27.14
879.303	-56.83
879.476	43.52
879.648	2.56
879.82	8.7
879.993	8.7
880.165	8.7
880.337	-22.02
880.509	-15.87
880.681	-17.92
880.854	43.52
881.026	16.9
881.198	61.95
881.37	45.57
881.542	-3.58
881.714	-71.17
881.886	-13.82
882.058	27.14
882.23	41.47
882.402	8.7
882.574	82.43
882.746	2.56
882.918	-32.26
883.09	8.7
883.262	20.99
883.434	-40.45
883.606	-3.58
883.778	2.56
883.95	43.52
884.122	2.56
884.293	2.56
884.465	-38.4
884.637	102.91
884.809	-30.21
884.98	57.86
885.152	-65.02
885.324	82.43
885.496	-36.35
885.667	-48.64
885.839	-24.06
886.011	31.23
886.182	39.42
886.354	82.43
886.525	-26.11
886.697	25.09
886.869	70.14
887.04	-24.06
887.212	37.38
887.383	82.43
887.555	66.05
887.726	25.09
887.897	-32.26
888.069	4.61
888.24	-3.58
888.412	-75.26
888.583	-7.68
888.754	0.51
888.926	-56.83
889.097	-19.97
889.268	-24.06
889.44	0.51
889.611	8.7
889.782	23.04
889.953	20.99
890.125	16.9
890.296	-7.68
890.467	2.56
890.638	-22.02
890.809	0.51
890.98	-30.21
891.151	-3.58
891.323	14.85
891.494	57.86
891.665	-1.54
891.836	-22.02
892.007	25.09
892.178	41.47
892.349	-15.87
892.52	-15.87
892.691	-13.82
892.862	47.62
893.032	-77.31
893.203	8.7
893.374	4.61
893.545	61.95
893.716	35.33
893.887	10.75
894.057	-3.58
894.228	27.14
894.399	-7.68
894.57	29.18
894.74	-44.54
894.911	47.62
895.082	8.7
895.253	-7.68
895.423	53.76
895.594	41.47
895.764	37.38
895.935	18.94
896.106	35.33
896.276	-7.68
896.447	27.14
896.617	74.24
896.788	-30.21
896.958	-26.11
897.129	-7.68
897.299	33.28
897.47	-9.73
897.64	68.09
897.81	-9.73
897.981	-58.88
898.151	-15.87
898.322	66.05
898.492	4.61
898.662	-19.97
898.832	27.14
899.003	-52.74
899.173	10.75
899.343	2.56
899.513	2.56
