Data from USB4F104151__274__14-23-19-166.txt Node

Date: Thu Mar 13 14:23:19 EDT 2025
User: louis
Spectrometer: USB4F10415
Trigger mode: 4
Integration Time (sec): 2.000000E-2
Scans to average: 1
Electric dark correction enabled: true
Nonlinearity correction enabled: false
Boxcar width: 0
XAxis mode: Wavelengths
Number of Pixels in Spectrum: 3648
>>>>>Begin Spectral Data<<<<<
178.204	-140.63
178.424	-140.63
178.644	-140.63
178.864	-120.15
179.084	-109.91
179.304	-11.61
179.524	35.5
179.744	-17.75
179.964	35.5
180.184	-23.89
180.404	-9.56
180.624	-5.46
180.844	25.26
181.064	-58.71
181.283	21.16
181.503	-44.37
181.723	53.93
181.943	43.69
182.163	27.31
182.383	6.83
182.602	53.93
182.822	19.11
183.042	-54.61
183.262	-21.84
183.482	21.16
183.701	88.75
183.921	10.92
184.141	-17.75
184.361	55.98
184.58	47.79
184.8	-15.7
185.02	12.97
185.239	68.27
185.459	55.98
185.679	35.5
185.898	27.31
186.118	66.22
186.338	39.59
186.557	78.51
186.777	27.31
186.997	-21.84
187.216	-30.04
187.436	-5.46
187.655	19.11
187.875	33.45
188.095	10.92
188.314	-5.46
188.534	35.5
188.753	62.12
188.973	45.74
189.192	19.11
189.412	-48.47
189.631	-9.56
189.851	-30.04
190.07	92.84
190.29	21.16
190.509	27.31
190.729	-44.37
190.948	49.83
191.168	152.23
191.387	15.02
191.607	-13.65
191.826	-46.42
192.045	-50.52
192.265	19.11
192.484	72.36
192.704	-36.18
192.923	15.02
193.142	43.69
193.362	-25.94
193.581	62.12
193.8	53.93
194.02	53.93
194.239	-5.46
194.458	17.07
194.678	60.07
194.897	62.12
195.116	23.21
195.335	2.73
195.555	76.46
195.774	60.07
195.993	-5.46
196.212	-19.8
196.432	37.55
196.651	33.45
196.87	12.97
197.089	60.07
197.308	27.31
197.528	76.46
197.747	10.92
197.966	19.11
198.185	47.79
198.404	-3.41
198.623	92.84
198.842	37.55
199.062	60.07
199.281	23.21
199.5	-1.37
199.719	29.35
199.938	17.07
200.157	8.87
200.376	2.73
200.595	-21.84
200.814	33.45
201.033	23.21
201.252	88.75
201.471	55.98
201.69	51.88
201.909	-21.84
202.128	45.74
202.347	45.74
202.566	-34.13
202.785	-25.94
203.004	21.16
203.223	70.31
203.442	96.94
203.661	70.31
203.879	31.4
204.098	27.31
204.317	-1.37
204.536	-13.65
204.755	51.88
204.974	60.07
205.193	6.83
205.411	109.23
205.63	35.5
205.849	35.5
206.068	27.31
206.287	21.16
206.505	-7.51
206.724	37.55
206.943	-27.99
207.162	35.5
207.381	43.69
207.599	53.93
207.818	39.59
208.037	31.4
208.255	-21.84
208.474	10.92
208.693	-5.46
208.911	-56.66
209.13	103.08
209.349	-38.23
209.567	76.46
209.786	119.46
210.005	-25.94
210.223	39.59
210.442	-13.65
210.661	2.73
210.879	43.69
211.098	49.83
211.316	68.27
211.535	62.12
211.753	-17.75
211.972	-44.37
212.191	-21.84
212.409	12.97
212.628	-13.65
212.846	-17.75
213.065	33.45
213.283	43.69
213.502	51.88
213.72	19.11
213.938	-54.61
214.157	6.83
214.375	55.98
214.594	21.16
214.812	-48.47
215.031	43.69
215.249	23.21
215.467	-11.61
215.686	10.92
215.904	60.07
216.122	-3.41
216.341	39.59
216.559	35.5
216.778	76.46
216.996	43.69
217.214	-79.19
217.432	4.78
217.651	29.35
217.869	15.02
218.087	0.68
218.306	31.4
218.524	-36.18
218.742	19.11
218.96	-3.41
219.179	-17.75
219.397	-5.46
219.615	105.13
219.833	23.21
220.051	-50.52
220.27	98.99
220.488	64.17
220.706	-17.75
220.924	-11.61
221.142	-19.8
221.36	-5.46
221.578	-38.23
221.796	19.11
222.015	35.5
222.233	-15.7
222.451	133.8
222.669	-44.37
222.887	-3.41
223.105	-11.61
223.323	-30.04
223.541	-68.95
223.759	62.12
223.977	-17.75
224.195	76.46
224.413	12.97
224.631	-19.8
224.849	35.5
225.067	76.46
225.285	19.11
225.503	10.92
225.721	-1.37
225.939	-21.84
226.157	43.69
226.375	144.04
226.592	4.78
226.81	-68.95
227.028	45.74
227.246	35.5
227.464	-9.56
227.682	33.45
227.9	78.51
228.117	41.64
228.335	103.08
228.553	-27.99
228.771	-44.37
228.989	121.51
229.206	37.55
229.424	51.88
229.642	-13.65
229.86	60.07
230.077	62.12
230.295	47.79
230.513	117.42
230.731	78.51
230.948	43.69
231.166	74.41
231.384	-5.46
231.601	51.88
231.819	27.31
232.037	-17.75
232.254	12.97
232.472	-3.41
232.689	-27.99
232.907	4.78
233.125	-36.18
233.342	51.88
233.56	31.4
233.777	60.07
233.995	-40.28
234.213	15.02
234.43	64.17
234.648	19.11
234.865	72.36
235.083	76.46
235.3	45.74
235.518	51.88
235.735	80.55
235.953	60.07
236.17	15.02
236.388	33.45
236.605	-13.65
236.822	35.5
237.04	-19.8
237.257	62.12
237.475	2.73
237.692	6.83
237.909	4.78
238.127	27.31
238.344	-34.13
238.562	21.16
238.779	53.93
238.996	43.69
239.214	39.59
239.431	72.36
239.648	6.83
239.865	10.92
240.083	101.03
240.3	49.83
240.517	60.07
240.735	-38.23
240.952	41.64
241.169	37.55
241.386	-13.65
241.603	31.4
241.821	-21.84
242.038	43.69
242.255	125.61
242.472	-21.84
242.689	117.42
242.907	68.27
243.124	27.31
243.341	-87.38
243.558	-30.04
243.775	-58.71
243.992	-13.65
244.209	43.69
244.426	45.74
244.643	8.87
244.86	-21.84
245.078	29.35
245.295	70.31
245.512	-7.51
245.729	17.07
245.946	62.12
246.163	47.79
246.38	-17.75
246.597	-38.23
246.814	21.16
247.031	-5.46
247.248	51.88
247.464	49.83
247.681	31.4
247.898	101.03
248.115	17.07
248.332	-83.28
248.549	41.64
248.766	82.6
248.983	27.31
249.2	49.83
249.417	27.31
249.633	19.11
249.85	78.51
250.067	-3.41
250.284	10.92
250.501	49.83
250.717	17.07
250.934	-46.42
251.151	-11.61
251.368	-5.46
251.585	125.61
251.801	15.02
252.018	-30.04
252.235	27.31
252.451	-13.65
252.668	-7.51
252.885	39.59
253.102	-58.71
253.318	23.21
253.535	-5.46
253.752	-3.41
253.968	10.92
254.185	-34.13
254.401	10.92
254.618	80.55
254.835	-40.28
255.051	19.11
255.268	4.78
255.484	10.92
255.701	64.17
255.917	62.12
256.134	37.55
256.351	-64.85
256.567	-5.46
256.784	2.73
257	35.5
257.217	27.31
257.433	58.03
257.65	45.74
257.866	80.55
258.082	17.07
258.299	-30.04
258.515	27.31
258.732	-25.94
258.948	-46.42
259.165	19.11
259.381	39.59
259.597	-25.94
259.814	21.16
260.03	58.03
260.246	6.83
260.463	92.84
260.679	-54.61
260.895	19.11
261.112	53.93
261.328	10.92
261.544	29.35
261.761	125.61
261.977	-107.86
262.193	-75.09
262.409	51.88
262.626	-40.28
262.842	15.02
263.058	94.89
263.274	4.78
263.49	55.98
263.707	12.97
263.923	-32.08
264.139	-60.76
264.355	-5.46
264.571	78.51
264.787	-32.08
265.004	86.7
265.22	109.23
265.436	72.36
265.652	35.5
265.868	-5.46
266.084	8.87
266.3	19.11
266.516	-3.41
266.732	39.59
266.948	2.73
267.164	53.93
267.38	4.78
267.596	27.31
267.812	78.51
268.028	115.37
268.244	-25.94
268.46	-3.41
268.676	-15.7
268.892	-17.75
269.108	21.16
269.324	12.97
269.54	-5.46
269.756	19.11
269.972	-1.37
270.188	45.74
270.403	-46.42
270.619	4.78
270.835	74.41
271.051	6.83
271.267	49.83
271.483	84.65
271.698	15.02
271.914	51.88
272.13	19.11
272.346	-27.99
272.562	27.31
272.777	58.03
272.993	19.11
273.209	53.93
273.425	29.35
273.64	-50.52
273.856	88.75
274.072	86.7
274.287	-27.99
274.503	76.46
274.719	21.16
274.934	-5.46
275.15	-52.56
275.366	51.88
275.581	-36.18
275.797	12.97
276.012	15.02
276.228	86.7
276.444	-13.65
276.659	-13.65
276.875	-5.46
277.09	23.21
277.306	105.13
277.521	76.46
277.737	168.62
277.952	-44.37
278.168	23.21
278.383	2.73
278.599	68.27
278.814	-27.99
279.03	47.79
279.245	27.31
279.461	37.55
279.676	45.74
279.892	31.4
280.107	39.59
280.322	-21.84
280.538	43.69
280.753	2.73
280.969	2.73
281.184	8.87
281.399	49.83
281.615	68.27
281.83	2.73
282.045	4.78
282.26	10.92
282.476	55.98
282.691	86.7
282.906	-5.46
283.122	-5.46
283.337	-25.94
283.552	-15.7
283.767	21.16
283.983	29.35
284.198	29.35
284.413	21.16
284.628	-21.84
284.843	-19.8
285.058	62.12
285.274	19.11
285.489	49.83
285.704	78.51
285.919	49.83
286.134	23.21
286.349	8.87
286.564	0.68
286.779	60.07
286.995	45.74
287.21	-13.65
287.425	19.11
287.64	53.93
287.855	86.7
288.07	4.78
288.285	29.35
288.5	17.07
288.715	125.61
288.93	-11.61
289.145	86.7
289.36	60.07
289.575	12.97
289.79	60.07
290.004	-23.89
290.219	84.65
290.434	-30.04
290.649	2.73
290.864	-5.46
291.079	12.97
291.294	35.5
291.509	12.97
291.724	23.21
291.938	43.69
292.153	-13.65
292.368	47.79
292.583	10.92
292.798	64.17
293.012	43.69
293.227	17.07
293.442	-17.75
293.657	12.97
293.871	45.74
294.086	19.11
294.301	96.94
294.516	62.12
294.73	-13.65
294.945	10.92
295.16	-9.56
295.374	45.74
295.589	-3.41
295.804	96.94
296.018	39.59
296.233	2.73
296.447	10.92
296.662	31.4
296.877	74.41
297.091	68.27
297.306	45.74
297.52	21.16
297.735	17.07
297.949	-21.84
298.164	19.11
298.378	17.07
298.593	-17.75
298.807	-46.42
299.022	19.11
299.236	78.51
299.451	17.07
299.665	23.21
299.88	-3.41
300.094	45.74
300.309	2.73
300.523	35.5
300.737	-15.7
300.952	29.35
301.166	17.07
301.381	-17.75
301.595	64.17
301.809	-62.8
302.024	29.35
302.238	39.59
302.452	35.5
302.667	-3.41
302.881	117.42
303.095	109.23
303.309	-21.84
303.524	21.16
303.738	29.35
303.952	41.64
304.166	53.93
304.381	27.31
304.595	78.51
304.809	-38.23
305.023	41.64
305.237	12.97
305.452	0.68
305.666	10.92
305.88	19.11
306.094	88.75
306.308	39.59
306.522	35.5
306.736	53.93
306.95	2.73
307.164	19.11
307.379	-50.52
307.593	35.5
307.807	35.5
308.021	4.78
308.235	12.97
308.449	-89.43
308.663	72.36
308.877	62.12
309.091	64.17
309.305	113.32
309.519	-13.65
309.733	4.78
309.947	-23.89
310.161	19.11
310.374	68.27
310.588	29.35
310.802	2.73
311.016	-25.94
311.23	45.74
311.444	29.35
311.658	-32.08
311.872	-21.84
312.085	55.98
312.299	53.93
312.513	82.6
312.727	-13.65
312.941	-1.37
313.154	15.02
313.368	-23.89
313.582	60.07
313.796	-17.75
314.009	45.74
314.223	-17.75
314.437	-5.46
314.651	53.93
314.864	-13.65
315.078	43.69
315.292	2.73
315.505	-44.37
315.719	2.73
315.933	21.16
316.146	10.92
316.36	51.88
316.573	-17.75
316.787	19.11
317.001	27.31
317.214	-36.18
317.428	-11.61
317.641	39.59
317.855	19.11
318.068	31.4
318.282	60.07
318.495	47.79
318.709	12.97
318.922	51.88
319.136	39.59
319.349	86.7
319.563	-7.51
319.776	55.98
319.99	-68.95
320.203	43.69
320.417	76.46
320.63	76.46
320.843	45.74
321.057	35.5
321.27	2.73
321.483	53.93
321.697	64.17
321.91	31.4
322.124	84.65
322.337	4.78
322.55	19.11
322.763	-3.41
322.977	64.17
323.19	-30.04
323.403	49.83
323.617	39.59
323.83	76.46
324.043	12.97
324.256	64.17
324.469	-21.84
324.683	62.12
324.896	-17.75
325.109	-19.8
325.322	-21.84
325.535	31.4
325.748	-17.75
325.962	43.69
326.175	19.11
326.388	15.02
326.601	98.99
326.814	62.12
327.027	6.83
327.24	64.17
327.453	2.73
327.666	43.69
327.879	84.65
328.092	2.73
328.305	-9.56
328.518	98.99
328.731	-21.84
328.944	64.17
329.157	96.94
329.37	12.97
329.583	-3.41
329.796	68.27
330.009	60.07
330.222	70.31
330.435	6.83
330.648	64.17
330.861	12.97
331.073	92.84
331.286	105.13
331.499	78.51
331.712	0.68
331.925	25.26
332.138	27.31
332.35	2.73
332.563	43.69
332.776	19.11
332.989	92.84
333.202	27.31
333.414	21.16
333.627	84.65
333.84	2.73
334.053	33.45
334.265	23.21
334.478	-30.04
334.691	51.88
334.903	17.07
335.116	80.55
335.329	58.03
335.541	51.88
335.754	-17.75
335.966	-42.32
336.179	39.59
336.392	6.83
336.604	-19.8
336.817	68.27
337.029	88.75
337.242	19.11
337.454	70.31
337.667	68.27
337.88	72.36
338.092	68.27
338.305	109.23
338.517	4.78
338.729	78.51
338.942	154.28
339.154	35.5
339.367	4.78
339.579	-11.61
339.792	-97.62
340.004	25.26
340.217	-1.37
340.429	27.31
340.641	45.74
340.854	10.92
341.066	43.69
341.278	35.5
341.491	70.31
341.703	90.79
341.915	58.03
342.128	35.5
342.34	31.4
342.552	45.74
342.764	66.22
342.977	82.6
343.189	72.36
343.401	31.4
343.613	-5.46
343.826	86.7
344.038	23.21
344.25	45.74
344.462	-58.71
344.674	27.31
344.886	60.07
345.099	4.78
345.311	62.12
345.523	49.83
345.735	21.16
345.947	66.22
346.159	6.83
346.371	-1.37
346.583	-25.94
346.795	29.35
347.007	58.03
347.219	35.5
347.431	21.16
347.643	-13.65
347.855	31.4
348.067	62.12
348.279	6.83
348.491	51.88
348.703	62.12
348.915	-11.61
349.127	-15.7
349.339	39.59
349.551	-7.51
349.763	31.4
349.975	68.27
350.187	53.93
350.399	43.69
350.61	-3.41
350.822	78.51
351.034	105.13
351.246	-3.41
351.458	105.13
351.669	27.31
351.881	76.46
352.093	60.07
352.305	10.92
352.517	17.07
352.728	111.27
352.94	43.69
353.152	45.74
353.363	-13.65
353.575	55.98
353.787	64.17
353.999	62.12
354.21	29.35
354.422	82.6
354.633	53.93
354.845	72.36
355.057	8.87
355.268	-58.71
355.48	31.4
355.692	27.31
355.903	-5.46
356.115	31.4
356.326	19.11
356.538	64.17
356.749	70.31
356.961	-19.8
357.172	10.92
357.384	-42.32
357.595	41.64
357.807	-1.37
358.018	43.69
358.23	80.55
358.441	35.5
358.653	70.31
358.864	66.22
359.075	78.51
359.287	35.5
359.498	113.32
359.709	64.17
359.921	27.31
360.132	-11.61
360.344	53.93
360.555	12.97
360.766	-9.56
360.977	19.11
361.189	33.45
361.4	45.74
361.611	101.03
361.823	19.11
362.034	60.07
362.245	-7.51
362.456	135.85
362.667	19.11
362.879	10.92
363.09	-13.65
363.301	27.31
363.512	2.73
363.723	43.69
363.935	41.64
364.146	-1.37
364.357	53.93
364.568	101.03
364.779	19.11
364.99	72.36
365.201	27.31
365.412	96.94
365.623	2.73
365.834	68.27
366.045	55.98
366.256	10.92
366.467	68.27
366.678	-1.37
366.889	-19.8
367.1	2.73
367.311	-5.46
367.522	-19.8
367.733	43.69
367.944	51.88
368.155	117.42
368.366	58.03
368.577	105.13
368.788	70.31
368.999	6.83
369.209	-27.99
369.42	55.98
369.631	158.38
369.842	96.94
370.053	70.31
370.264	84.65
370.474	33.45
370.685	37.55
370.896	35.5
371.107	86.7
371.317	-13.65
371.528	43.69
371.739	101.03
371.95	25.26
372.16	47.79
372.371	-87.38
372.582	-9.56
372.792	35.5
373.003	80.55
373.214	-5.46
373.424	78.51
373.635	-11.61
373.846	121.51
374.056	109.23
374.267	-5.46
374.477	92.84
374.688	80.55
374.898	55.98
375.109	70.31
375.319	-38.23
375.53	68.27
375.74	70.31
375.951	21.16
376.161	84.65
376.372	2.73
376.582	-54.61
376.793	107.18
377.003	76.46
377.214	-5.46
377.424	64.17
377.635	35.5
377.845	0.68
378.055	51.88
378.266	19.11
378.476	-5.46
378.686	92.84
378.897	84.65
379.107	33.45
379.317	-38.23
379.528	-5.46
379.738	94.89
379.948	51.88
380.158	2.73
380.369	10.92
380.579	45.74
380.789	2.73
380.999	86.7
381.21	31.4
381.42	72.36
381.63	-1.37
381.84	70.31
382.05	66.22
382.261	101.03
382.471	-13.65
382.681	4.78
382.891	113.32
383.101	27.31
383.311	27.31
383.521	29.35
383.731	25.26
383.941	96.94
384.151	72.36
384.361	68.27
384.571	43.69
384.781	55.98
384.991	37.55
385.201	43.69
385.411	35.5
385.621	43.69
385.831	60.07
386.041	35.5
386.251	72.36
386.461	105.13
386.671	25.26
386.881	6.83
387.091	72.36
387.301	31.4
387.511	78.51
387.72	66.22
387.93	45.74
388.14	51.88
388.35	41.64
388.56	62.12
388.769	66.22
388.979	72.36
389.189	27.31
389.399	2.73
389.609	109.23
389.818	76.46
390.028	68.27
390.238	154.28
390.447	39.59
390.657	88.75
390.867	37.55
391.076	72.36
391.286	10.92
391.496	86.7
391.705	84.65
391.915	35.5
392.125	94.89
392.334	2.73
392.544	35.5
392.753	39.59
392.963	82.6
393.172	21.16
393.382	-21.84
393.591	78.51
393.801	58.03
394.01	96.94
394.22	70.31
394.429	96.94
394.639	19.11
394.848	27.31
395.058	-27.99
395.267	76.46
395.477	62.12
395.686	133.8
395.895	117.42
396.105	29.35
396.314	21.16
396.524	101.03
396.733	105.13
396.942	195.24
397.152	72.36
397.361	129.7
397.57	98.99
397.78	146.09
397.989	62.12
398.198	203.43
398.407	105.13
398.617	113.32
398.826	150.18
399.035	47.79
399.244	94.89
399.453	127.66
399.663	109.23
399.872	121.51
400.081	127.66
400.29	146.09
400.499	115.37
400.708	174.76
400.917	94.89
401.127	152.23
401.336	131.75
401.545	96.94
401.754	127.66
401.963	113.32
402.172	43.69
402.381	174.76
402.59	144.04
402.799	78.51
403.008	113.32
403.217	152.23
403.426	152.23
403.635	111.27
403.844	160.42
404.053	45.74
404.262	139.94
404.471	191.14
404.68	101.03
404.888	172.71
405.097	133.8
405.306	252.58
405.515	178.86
405.724	119.46
405.933	127.66
406.142	158.38
406.35	139.94
406.559	152.23
406.768	201.38
406.977	320.17
407.185	207.53
407.394	158.38
407.603	185
407.812	172.71
408.02	273.06
408.229	246.44
408.438	174.76
408.646	254.63
408.855	334.5
409.064	256.68
409.272	201.38
409.481	354.98
409.69	305.83
409.898	252.58
410.107	338.6
410.315	371.37
410.524	336.55
410.733	379.56
410.941	354.98
411.15	420.52
411.358	404.13
411.567	412.32
411.775	436.9
411.984	402.08
412.192	463.52
412.401	453.28
412.609	539.3
412.818	494.24
413.026	457.38
413.234	522.91
413.443	594.59
413.651	527.01
413.86	524.96
414.068	625.31
414.276	674.46
414.485	666.27
414.693	742.05
414.901	701.09
415.11	699.04
415.318	674.46
415.526	821.92
415.734	766.62
415.943	907.93
416.151	885.41
416.359	877.21
416.567	762.53
416.776	1049.24
416.984	977.56
417.192	1020.57
417.4	955.04
417.608	1010.33
417.817	1030.81
418.025	1100.44
418.233	1149.59
418.441	1094.3
418.649	1227.42
418.857	1333.91
419.065	1340.05
419.273	1325.72
419.481	1374.87
419.689	1499.8
419.897	1602.19
420.105	1583.76
420.313	1612.43
420.521	1757.84
420.729	1634.96
420.937	1747.6
421.145	1788.56
421.353	1952.4
421.561	2060.94
421.769	1931.92
421.977	2280.07
422.185	2099.85
422.393	2073.23
422.601	2376.33
422.809	2306.7
423.017	2353.8
423.224	2394.76
423.432	2566.79
423.64	2568.84
423.848	2871.93
424.056	2685.57
424.263	2953.85
424.471	2820.74
424.679	3013.24
424.887	3068.54
425.094	3164.79
425.302	3215.99
425.51	3355.26
425.718	3469.94
425.925	3480.18
426.133	3590.77
426.341	3715.7
426.548	4041.32
426.756	4024.94
426.964	4096.62
427.171	4264.55
427.379	4401.77
427.586	4412.01
427.794	4588.13
428.001	4747.87
428.209	5098.08
428.417	4862.56
428.624	5253.72
428.832	5253.72
429.039	5294.68
429.247	5255.77
429.454	5681.75
429.662	6240.84
429.869	5782.1
430.076	6236.75
430.284	5921.36
430.491	6298.19
430.699	6519.37
430.906	6494.79
431.114	6732.36
431.321	7090.75
431.528	7000.64
431.736	7490.1
431.943	7723.57
432.15	7576.12
432.358	7699
432.565	8079.92
432.772	8272.43
432.979	8655.4
433.187	8811.04
433.394	8722.98
433.601	9194.01
433.808	9216.54
434.016	9118.24
434.223	9476.63
434.43	10201.61
434.637	10054.16
434.844	10578.44
435.052	10854.92
435.259	10684.94
435.466	10967.56
435.673	10689.03
435.88	11344.38
436.087	11966.96
436.294	11928.05
436.501	11739.64
436.708	12091.89
436.915	12452.33
437.122	13027.81
437.329	12741.1
437.537	13388.25
437.743	13459.93
437.95	13455.84
438.157	14158.29
438.364	14494.16
438.571	14438.86
438.778	14850.5
438.985	16146.87
439.192	15518.14
439.399	15587.77
439.606	15530.43
439.813	16286.13
440.02	17215.91
440.227	16748.97
440.433	16820.65
440.64	17672.6
440.847	17430.94
441.054	17959.32
441.261	19106.18
441.467	18700.69
441.674	19175.81
441.881	19775.87
442.088	19718.53
442.294	19341.7
442.501	19855.74
442.708	20308.34
442.914	21369.19
443.121	21715.3
443.328	21428.58
443.534	22747.47
443.741	22520.15
443.948	22085.98
444.154	23521.6
444.361	23144.78
444.568	23783.74
444.774	23656.77
444.981	23937.34
445.187	24654.13
445.394	25557.28
445.6	25383.21
445.807	27601.16
446.013	26431.77
446.22	26732.82
446.426	27810.05
446.633	28385.53
446.839	29231.34
447.046	27969.79
447.252	29491.43
447.459	29364.46
447.665	29358.31
447.871	30687.45
448.078	32106.69
448.284	30255.32
448.491	31441.1
448.697	32895.16
448.903	33411.24
449.11	33325.23
449.316	32753.85
449.522	33231.02
449.728	34177.19
449.935	34607.26
450.141	34384.03
450.347	35121.3
450.553	34234.53
450.76	34732.18
450.966	35989.64
451.172	35418.25
451.378	36155.52
451.584	35479.69
451.791	36227.2
451.997	36284.54
452.203	37089.4
452.409	37124.21
452.615	36810.87
452.821	35377.29
453.027	35217.55
453.233	36847.74
453.44	35590.28
453.646	35934.34
453.852	36321.41
454.058	36835.45
454.264	35192.98
454.47	36454.53
454.676	35643.53
454.882	36362.37
455.088	33441.96
455.294	34193.57
455.5	34560.16
455.705	35188.88
455.911	33444.01
456.117	33028.27
456.323	32751.8
456.529	30886.1
456.735	32450.75
456.941	31625.42
457.147	31066.32
457.352	29892.83
457.558	29575.4
457.764	29933.79
457.97	29395.18
458.176	28700.92
458.381	28768.5
458.587	27343.11
458.793	27216.14
458.999	26016.03
459.204	27832.58
459.41	26931.47
459.616	25504.04
459.821	25207.08
460.027	25268.52
460.233	24906.03
460.438	23488.84
460.644	23914.81
460.85	22778.19
461.055	22253.91
461.261	22116.7
461.466	20556.15
461.672	20238.71
461.878	21473.63
462.083	20277.62
462.289	19786.11
462.494	19507.58
462.7	18542.99
462.905	18149.78
463.111	18887.05
463.316	18872.71
463.522	18485.65
463.727	18440.59
463.932	18373.01
464.138	17967.51
464.343	18604.43
464.549	17682.84
464.754	18401.68
464.959	18305.43
465.165	18133.4
465.37	17303.97
465.575	16974.25
465.781	17555.87
465.986	17705.37
466.191	17129.89
466.397	16509.36
466.602	15962.55
466.807	16363.95
467.012	16566.7
467.218	16390.58
467.423	16193.97
467.628	16003.51
467.833	17027.49
468.038	16396.72
468.244	15946.17
468.449	16492.97
468.654	16085.43
468.859	16011.7
469.064	15755.71
469.269	15145.41
469.474	15425.98
469.679	15509.95
469.885	15204.8
470.09	15088.07
470.295	15204.8
470.5	14834.12
470.705	14811.59
470.91	14643.66
471.115	14408.14
471.32	14764.49
471.525	14461.39
471.73	14170.58
471.935	14248.4
472.139	13697.5
472.344	13900.25
472.549	14010.84
472.754	13658.59
472.959	13431.26
473.164	13224.42
473.369	12906.98
473.574	13482.46
473.778	13373.92
473.983	13158.88
474.188	13310.43
474.393	12569.07
474.598	12755.43
474.802	12542.44
475.007	12489.2
475.212	12372.46
475.417	11825.65
475.621	11876.85
475.826	12052.98
476.031	11710.97
476.235	11475.45
476.44	11811.32
476.645	11438.59
476.849	11704.82
477.054	11500.03
477.259	11069.95
477.463	11397.63
477.668	10914.31
477.872	10918.4
478.077	10953.22
478.282	10537.48
478.486	10525.19
478.691	10459.66
478.895	10549.77
479.1	10463.75
479.304	10398.22
479.509	9906.71
479.713	10301.97
479.918	9785.88
480.122	9892.37
480.326	9857.56
480.531	9982.48
480.735	9882.13
480.94	9935.38
481.144	10111.5
481.348	9652.76
481.553	9740.82
481.757	9470.49
481.961	9796.12
482.166	9652.76
482.37	9753.11
482.574	9654.81
482.778	9687.57
482.983	9802.26
483.187	9613.85
483.391	9658.9
483.595	9425.43
483.8	9642.52
484.004	9564.7
484.208	9609.75
484.412	9407
484.616	9714.2
484.821	9685.53
485.025	9280.03
485.229	9632.28
485.433	9364
485.637	9617.94
485.841	9648.66
486.045	9409.05
486.249	9474.59
486.453	9488.92
486.657	9540.12
486.861	9595.42
487.065	9390.62
487.269	9648.66
487.473	9423.39
487.677	9769.49
487.881	9591.32
488.085	9538.07
488.289	9841.17
488.493	9402.91
488.697	9738.77
488.901	9628.18
489.105	9564.7
489.309	9660.95
489.512	9632.28
489.716	9742.87
489.92	9630.23
490.124	9763.35
490.328	10013.2
490.531	9572.89
490.735	9812.5
490.939	10009.11
491.143	9783.83
491.346	10054.16
491.55	10070.55
491.754	9873.94
491.958	10193.42
492.161	9974.29
492.365	10099.22
492.569	10033.68
492.772	10185.23
492.976	10230.29
493.18	10306.06
493.383	10500.62
493.587	10390.03
493.79	10492.43
493.994	10576.39
494.197	10514.95
494.401	10641.93
494.605	10682.89
494.808	10738.18
495.012	10609.16
495.215	11244.03
495.419	11082.24
495.622	10783.24
495.825	11514.36
496.029	11119.1
496.232	11373.05
496.436	11594.23
496.639	11782.65
496.843	11799.03
497.046	11934.2
497.249	12030.45
497.453	12077.55
497.656	11999.73
497.859	12118.51
498.063	12356.08
498.266	12386.8
498.469	12302.83
498.673	12532.2
498.876	12880.36
499.079	12737
499.282	12734.95
499.485	13535.71
499.689	13369.82
499.892	13531.61
500.095	13431.26
500.298	13758.94
500.501	13621.72
500.705	14236.11
500.908	14436.81
501.111	14369.23
501.314	14485.97
501.517	14420.43
501.72	14993.86
501.923	14870.98
502.126	15112.64
502.329	15137.22
502.532	15452.61
502.735	15501.76
502.938	15776.19
503.141	15815.1
503.344	16026.04
503.547	16189.88
503.75	16347.57
503.953	16517.55
504.156	16564.65
504.359	16916.9
504.562	17224.1
504.765	17588.64
504.968	17312.16
505.17	17615.26
505.373	17885.59
505.576	18028.95
505.779	18485.65
505.982	18426.26
506.185	18727.31
506.387	18743.69
506.59	18901.39
506.793	19528.06
506.996	19360.13
507.198	19820.92
507.401	19622.27
507.604	20060.54
507.807	20113.78
508.009	20449.65
508.212	20457.84
508.415	20846.96
508.617	20908.4
508.82	21430.63
509.022	21350.76
509.225	21844.32
509.428	22038.87
509.63	22145.37
509.833	22368.6
510.035	22794.57
510.238	22972.75
510.44	22970.7
510.643	23343.43
510.845	23552.32
511.048	23191.88
511.25	23945.53
511.453	24088.89
511.655	24920.37
511.858	24435
512.06	24826.16
512.262	25348.39
512.465	25012.52
512.667	25319.72
512.87	25905.44
513.072	26151.2
513.274	26452.25
513.477	26761.49
513.679	26650.9
513.881	26964.24
514.084	27627.78
514.286	27437.32
514.488	27642.12
514.69	28430.58
514.893	28555.51
515.095	28236.03
515.297	28856.56
515.499	29270.25
515.701	29194.48
515.904	29810.92
516.106	29972.71
516.308	30222.56
516.51	30081.25
516.712	30507.23
516.914	30984.4
517.116	31154.38
517.318	31344.84
517.52	31541.45
517.722	31742.15
517.925	32471.23
518.127	32630.97
518.329	32669.88
518.531	32630.97
518.733	33538.22
518.935	33808.55
519.136	33568.94
519.338	34007.2
519.54	34236.58
519.742	34652.31
519.944	34601.11
520.146	35162.26
520.348	35518.6
520.55	35707.02
520.752	35653.77
520.954	36798.59
521.155	36436.09
521.357	36442.24
521.559	36806.78
521.761	37273.71
521.963	37380.21
522.164	37171.32
522.366	37478.51
522.568	37920.87
522.77	38434.91
522.971	38852.7
523.173	38504.54
523.375	39157.85
523.576	39290.96
523.778	39123.03
523.98	39522.38
524.181	39700.56
524.383	40013.9
524.584	40400.96
524.786	39993.42
524.988	39784.52
525.189	40630.33
525.391	41013.3
525.592	40888.38
525.794	41326.64
525.995	41136.18
526.197	41318.45
526.398	41680.94
526.6	41762.86
526.801	42170.41
527.003	42207.27
527.204	42569.76
527.406	42551.33
527.607	42559.52
527.808	43008.03
528.01	41750.57
528.211	42723.36
528.412	43399.19
528.614	43067.42
528.815	43202.58
529.016	43694.1
529.218	43178.01
529.419	43329.56
529.62	43847.69
529.822	43206.68
530.023	43417.62
530.224	43391
530.425	43982.86
530.626	43276.31
530.828	43333.65
531.029	44380.17
531.23	43536.4
531.431	43429.91
531.632	43769.87
531.833	44269.58
532.035	43753.49
532.236	44220.42
532.437	44095.5
532.638	43474.96
532.839	43929.61
533.04	44013.58
533.241	43835.41
533.442	44466.18
533.643	44015.63
533.844	44003.34
534.045	44171.27
534.246	43943.95
534.447	44324.87
534.648	43884.56
534.849	44300.29
535.05	43864.08
535.251	44236.81
535.451	44072.97
535.652	43943.95
535.853	44140.55
536.054	44066.83
536.255	44027.91
536.456	43616.27
536.657	44427.27
536.857	43857.93
537.058	43780.11
537.259	44236.81
537.46	44197.9
537.66	43685.9
537.861	43868.17
538.062	43669.52
538.263	43724.82
538.463	43522.07
538.664	43749.39
538.865	43868.17
539.065	43974.67
539.266	43089.95
539.466	43900.94
539.667	43683.86
539.868	44214.28
540.068	43792.4
540.269	43491.35
540.469	43726.86
540.67	43694.1
540.87	43671.57
541.071	43677.71
541.271	43759.63
541.472	43483.16
541.672	43489.3
541.873	43481.11
542.073	43132.95
542.274	43835.41
542.474	43636.75
542.675	43315.22
542.875	43108.38
543.075	43194.39
543.276	42663.97
543.476	43507.73
543.676	43204.63
543.877	43425.81
544.077	43061.27
544.277	43628.56
544.478	43546.64
544.678	43733.01
544.878	43442.2
545.078	43470.87
545.279	42895.39
545.479	43198.49
545.679	43333.65
545.879	43235.35
546.079	43221.02
546.28	43362.32
546.48	43112.47
546.68	43393.04
546.88	42967.07
547.08	43417.62
547.28	43221.02
547.48	42782.75
547.68	43216.92
547.88	43028.51
548.081	43302.93
548.281	42903.58
548.481	42688.54
548.681	43573.27
548.881	42760.22
549.081	43175.96
549.28	42954.78
549.48	43472.92
549.68	43192.34
549.88	43685.9
550.08	43130.9
550.28	43010.07
550.48	42950.68
550.68	42971.16
550.88	42729.5
551.08	42723.36
551.279	43345.94
551.479	42745.89
551.679	42852.38
551.879	42917.92
552.079	43280.41
552.278	43096.09
552.478	42635.3
552.678	42901.53
552.878	43005.98
553.077	43044.89
553.277	42438.69
553.477	43210.78
553.676	42950.68
553.876	42999.83
554.076	42784.8
554.275	42627.1
554.475	42436.64
554.674	42807.33
554.874	42858.52
555.074	42661.92
555.273	43161.62
555.473	42833.95
555.672	42801.18
555.872	42532.9
556.071	42600.48
556.271	42731.55
556.47	42305.57
556.67	42536.99
556.869	42072.1
557.068	42586.14
557.268	42661.92
557.467	42522.66
557.667	42786.85
557.866	42631.2
558.065	42602.53
558.265	41867.31
558.464	41883.69
558.663	42596.38
558.863	42266.66
559.062	42866.72
559.261	41990.19
559.461	42553.38
559.66	41783.34
559.859	42145.83
560.058	41762.86
560.258	41891.88
560.457	42065.96
560.656	41988.14
560.855	41785.39
561.054	41912.36
561.253	41367.6
561.453	41637.94
561.652	41943.08
561.851	41916.46
562.05	41590.83
562.249	41371.7
562.448	41549.87
562.647	41183.29
562.846	41363.51
563.045	41349.17
563.244	41203.77
563.443	41715.76
563.642	40808.51
563.841	41254.97
564.04	40992.83
564.239	41248.82
564.438	40751.16
564.637	40753.21
564.836	40902.71
565.035	40482.88
565.234	40642.62
565.432	40255.56
565.631	40337.48
565.83	40431.68
566.029	40491.07
566.228	40052.81
566.427	40286.28
566.625	40138.82
566.824	39667.79
567.023	40253.51
567.222	39305.3
567.42	39981.13
567.619	39704.65
567.818	39829.58
568.016	39598.16
568.215	39876.68
568.414	39256.15
568.612	39297.11
568.811	39252.05
569.01	39381.07
569.208	38907.99
569.407	38951
569.605	38768.73
569.804	39141.46
570.002	38637.66
570.201	39034.97
570.4	38189.16
570.598	38066.28
570.797	38342.75
570.995	38512.74
571.193	38291.55
571.392	38545.5
571.59	37996.65
571.789	38017.13
571.987	38121.57
572.186	37961.83
572.384	37787.75
572.582	37900.39
572.781	37593.2
572.979	37505.13
573.177	37509.23
573.376	37716.08
573.574	37283.95
573.772	37355.63
573.971	37216.37
574.169	36972.66
574.367	36757.63
574.565	36802.68
574.763	36563.07
574.962	36642.94
575.16	36477.05
575.358	36679.8
575.556	36243.59
575.754	36640.89
575.952	36221.06
576.151	36391.04
576.349	35887.24
576.547	36092.04
576.745	36212.87
576.943	36413.57
577.141	35643.53
577.339	35872.9
577.537	35498.12
577.735	35274.9
577.933	35242.13
578.131	35231.89
578.329	34941.08
578.527	34873.49
578.725	35076.24
578.923	34926.74
579.121	34658.46
579.319	34689.18
579.516	34902.17
579.714	34531.48
579.912	34398.37
580.11	34431.13
580.308	34560.16
580.506	34095.27
580.704	33521.84
580.901	34214.05
581.099	34263.2
581.297	33585.32
581.495	33908.9
581.692	33882.28
581.89	33310.89
582.088	33341.61
582.285	33566.89
582.483	33726.63
582.681	33683.62
582.878	33044.66
583.076	32759.99
583.274	33099.95
583.471	32622.78
583.669	32755.89
583.866	32417.98
584.064	32626.87
584.262	32309.44
584.459	32639.16
584.657	32305.34
584.854	32473.28
585.052	31996.1
585.249	32084.16
585.447	32190.66
585.644	31617.22
585.841	32161.98
586.039	32057.54
586.236	31322.32
586.434	31621.32
586.631	31068.37
586.828	31144.14
587.026	31508.68
587.223	31426.76
587.42	31031.51
587.618	30845.14
587.815	31156.43
588.012	30810.32
588.21	30783.7
588.407	31113.42
588.604	30771.41
588.801	30443.74
588.999	30304.48
589.196	30304.48
589.393	30458.07
589.59	30406.87
589.787	30439.64
589.984	29903.07
590.182	29819.11
590.379	29886.69
590.576	30019.81
590.773	29751.52
590.97	29581.54
591.167	29667.56
591.364	28963.06
591.561	29636.84
591.758	29327.6
591.955	29264.11
592.152	29505.77
592.349	28999.92
592.546	29081.84
592.743	28909.81
592.94	28782.84
593.137	28987.63
593.334	28971.25
593.531	28416.25
593.727	28442.87
593.924	28821.75
594.121	28424.44
594.318	28297.47
594.515	28250.36
594.712	28422.39
594.908	28379.39
595.105	28305.66
595.302	27851.01
595.499	28176.64
595.696	27756.8
595.892	27259.15
596.089	27572.49
596.286	27721.99
596.482	27470.09
596.679	27470.09
596.876	27470.09
597.072	27371.78
597.269	27318.54
597.466	26779.92
597.662	26870.03
597.859	26949.9
598.055	26990.86
598.252	26655
598.448	26964.24
598.645	26775.83
598.841	26325.27
599.038	26673.43
599.234	26603.8
599.431	26265.88
599.627	26083.61
599.824	26470.68
600.02	26177.82
600.217	26183.96
600.413	25889.06
600.609	25815.33
600.806	25418.02
601.002	26032.41
601.198	25405.73
601.395	25450.79
601.591	25528.61
601.787	25729.31
601.984	25028.91
602.18	25450.79
602.376	25049.39
602.572	25155.88
602.769	25076.01
602.965	25119.02
603.161	24834.35
603.357	24756.53
603.553	24490.29
603.75	25084.2
603.946	24631.6
604.142	24834.35
604.338	24254.78
604.534	24711.47
604.73	24455.48
604.926	24414.52
605.122	24346.94
605.318	24168.76
605.514	24080.7
605.71	23972.16
605.906	24025.4
606.102	23908.67
606.298	24029.5
606.494	23898.43
606.69	23867.71
606.886	23511.36
607.082	23238.98
607.278	23951.68
607.474	23521.6
607.67	23675.2
607.866	23167.31
608.062	23564.61
608.257	23279.94
608.453	23308.61
608.649	23337.29
608.845	23066.95
609.041	23310.66
609.236	23144.78
609.432	22813.01
609.628	22958.41
609.824	23163.21
610.019	22980.94
610.215	23062.86
610.411	23165.26
610.606	22651.22
610.802	22796.62
610.998	22544.72
611.193	22493.52
611.389	22622.55
611.584	22468.95
611.78	22493.52
611.976	22585.68
612.171	22835.53
612.367	22532.43
612.562	22202.71
612.758	22006.11
612.953	22319.45
613.149	22292.82
613.344	22016.35
613.539	22491.48
613.735	22122.84
613.93	22190.42
614.126	22200.66
614.321	22323.54
614.517	21901.66
614.712	22122.84
614.907	21746.01
615.103	21801.31
615.298	21813.6
615.493	22088.03
615.688	21660
615.884	21883.23
616.079	21522.79
616.274	21838.17
616.47	21285.22
616.665	21496.16
616.86	21303.65
617.055	21627.23
617.25	21401.96
617.445	21508.45
617.641	21105
617.836	21203.3
618.031	20832.62
618.226	21131.62
618.421	21068.14
618.616	21240.17
618.811	20640.11
619.006	20973.93
619.201	20515.19
619.396	20631.92
619.591	20453.75
619.786	20472.18
619.981	20443.51
620.176	20228.47
620.371	20089.21
620.566	20089.21
620.761	20054.39
620.956	19980.67
621.151	19767.68
621.346	20066.68
621.541	19679.61
621.735	19607.94
621.93	19749.25
622.125	19538.3
622.32	19122.57
622.515	19442.05
622.709	19132.81
622.904	19186.05
623.099	18866.57
623.294	18997.64
623.488	18743.69
623.683	18688.4
623.878	18375.06
624.072	18588.05
624.267	18358.67
624.462	18340.24
624.656	17961.37
624.851	18129.3
625.046	18164.12
625.24	17734.04
625.435	17824.15
625.629	17908.12
625.824	17521.06
626.018	17480.1
626.213	17168.8
626.407	17549.73
626.602	17156.52
626.796	17375.65
626.991	17203.62
627.185	16990.63
627.38	16951.72
627.574	16751.02
627.768	16495.02
627.963	16445.87
628.157	16568.75
628.352	16576.94
628.546	16157.11
628.74	16206.26
628.935	16001.46
629.129	16333.23
629.323	16097.72
629.517	16046.52
629.712	15755.71
629.906	15776.19
630.1	15589.82
630.294	15630.78
630.489	15587.77
630.683	15493.57
630.877	15286.72
631.071	15356.35
631.265	15331.78
631.459	15108.55
631.653	14870.98
631.848	14721.48
632.042	14830.02
632.236	14864.84
632.43	14858.7
632.624	14879.18
632.818	14395.85
633.012	14432.72
633.206	14498.25
633.4	14533.07
633.594	14189.01
633.788	14326.22
633.982	14213.59
634.176	14111.19
634.369	14047.7
634.563	14217.68
634.757	13947.35
634.951	13832.66
635.145	13728.22
635.339	13691.35
635.533	13289.95
635.726	13480.41
635.92	13347.3
636.114	13560.28
636.308	13175.27
636.501	13337.06
636.695	13036
636.889	13007.33
637.083	12866.02
637.276	12923.37
637.47	12978.66
637.664	12777.96
637.857	12788.2
638.051	12693.99
638.244	12675.56
638.438	12433.9
638.632	12456.43
638.825	12407.28
639.019	12438
639.212	12095.99
639.406	12347.89
639.599	12251.63
639.793	11940.34
639.986	11844.09
640.18	12093.94
640.373	11905.52
640.567	11682.3
640.76	11848.18
640.954	11586.04
641.147	11612.67
641.34	11430.4
641.534	11438.59
641.727	11487.74
641.92	11680.25
642.114	11162.11
642.307	11266.56
642.5	11186.69
642.694	11059.71
642.887	10770.95
643.08	10971.65
643.273	11065.86
643.467	10846.73
643.66	10689.03
643.853	10586.63
644.046	10625.54
644.239	10390.03
644.432	10463.75
644.626	10473.99
644.819	10359.31
645.012	10392.08
645.205	10373.64
645.398	10246.67
645.591	10467.85
645.784	10035.73
645.977	10146.32
646.17	9966.1
646.363	10086.93
646.556	9677.33
646.749	9665.05
646.942	9910.8
647.135	9810.45
647.328	9740.82
647.521	9763.35
647.714	9701.91
647.907	9548.31
648.099	9450.01
648.292	9390.62
648.485	9423.39
648.678	9421.34
648.871	9228.83
649.064	9288.22
649.256	9288.22
649.449	9026.08
649.642	9067.04
649.835	9011.75
650.027	9054.75
650.22	9046.56
650.413	9110.05
650.605	8874.53
650.798	8780.32
650.991	8673.83
651.183	8909.35
651.376	8528.42
651.568	8657.45
651.761	8604.2
651.954	8606.25
652.146	8301.1
652.339	8383.02
652.531	8436.27
652.724	8342.06
652.916	8276.52
653.109	8297
653.301	8178.22
653.494	8194.61
653.686	8120.88
653.879	8217.13
654.071	7975.47
654.263	8137.26
654.456	7985.71
654.648	8145.45
654.84	8012.34
655.033	7860.79
655.225	7942.71
655.417	7782.96
655.61	7598.65
655.802	7664.18
655.994	7621.17
656.186	7582.26
656.379	7465.53
656.571	7547.45
656.763	7500.34
656.955	7428.67
657.148	7291.45
657.34	7479.86
657.532	7238.2
657.724	7266.88
657.916	7541.3
658.108	7227.96
658.3	7244.35
658.492	7195.2
658.684	6920.77
658.876	7035.46
659.068	6986.3
659.26	7000.64
659.452	6814.27
659.644	7006.78
659.836	6853.19
660.028	6892.1
660.22	6556.23
660.412	6701.64
660.604	6617.67
660.796	6705.73
660.988	6707.78
661.18	6685.25
661.372	6601.29
661.563	6566.47
661.755	6482.5
661.947	6412.87
662.139	6470.22
662.331	6404.68
662.522	6203.98
662.714	6328.91
662.906	6339.15
663.097	6281.8
663.289	6203.98
663.481	6160.97
663.673	6124.11
663.864	6292.04
664.056	5982.8
664.247	6199.88
664.439	6050.38
664.631	6077.01
664.822	5913.17
665.014	6085.2
665.205	5966.42
665.397	5855.83
665.588	5821.01
665.78	5868.11
665.971	5853.78
666.163	5882.45
666.354	5745.23
666.546	5601.88
666.737	5577.3
666.929	5710.42
667.12	5687.89
667.311	5638.74
667.503	5546.58
667.694	5720.66
667.885	5431.9
668.077	5683.8
668.268	5317.21
668.459	5460.57
668.651	5341.79
668.842	5331.55
669.033	5352.02
669.224	5288.54
669.416	5337.69
669.607	5272.15
669.798	5188.19
669.989	5431.9
670.18	5108.32
670.371	4971.1
670.563	5177.95
670.754	5132.89
670.945	5126.75
671.136	5093.98
671.327	4979.29
671.518	5126.75
671.709	5020.25
671.9	5012.06
672.091	5026.4
672.282	5059.17
672.473	4979.29
672.664	4878.94
672.855	5032.54
673.046	4909.66
673.237	4950.62
673.428	4794.98
673.619	4835.94
673.809	4684.39
674	4688.48
674.191	4733.54
674.382	4754.02
674.573	4659.81
674.764	4711.01
674.954	4985.44
675.145	4672.1
675.336	4790.88
675.527	4770.4
675.717	4860.51
675.908	4485.73
676.099	4641.38
676.289	4655.72
676.48	4463.21
676.671	4596.32
676.861	4424.3
677.052	4442.73
677.243	4354.66
677.433	4475.49
677.624	4557.41
677.814	4420.2
678.005	4489.83
678.195	4491.88
678.386	4586.08
678.576	4323.94
678.767	4348.52
678.957	4440.68
679.148	4369
679.338	4311.66
679.529	4385.38
679.719	4338.28
679.909	4311.66
680.1	4158.06
680.29	4377.19
680.481	4377.19
680.671	4328.04
680.861	4260.46
681.052	4133.48
681.242	4250.22
681.432	4305.51
681.622	4196.97
681.813	4231.79
682.003	4254.31
682.193	4149.87
682.383	4158.06
682.573	4145.77
682.764	4141.68
682.954	4242.03
683.144	4203.11
683.334	4172.39
683.524	4115.05
683.714	4110.96
683.904	4041.32
684.094	4205.16
684.284	4057.71
684.474	4166.25
684.664	4014.7
684.854	4067.95
685.044	4049.52
685.234	3895.92
685.424	4065.9
685.614	3957.36
685.804	4029.04
685.994	3902.06
686.184	3943.02
686.374	3916.4
686.564	3842.67
686.753	3900.02
686.943	3891.82
687.133	3844.72
687.323	3859.06
687.513	3883.63
687.702	3920.49
687.892	3936.88
688.082	3770.99
688.272	3779.18
688.461	3809.9
688.651	3768.95
688.841	3730.03
689.03	3644.02
689.22	3658.35
689.41	3803.76
689.599	3533.43
689.789	3662.45
689.979	3689.07
690.168	3840.62
690.358	3705.46
690.547	3641.97
690.737	3619.44
690.926	3611.25
691.116	3549.81
691.305	3623.54
691.495	3541.62
691.684	3504.76
691.874	3578.48
692.063	3551.86
692.252	3521.14
692.442	3625.59
692.631	3447.41
692.82	3494.52
693.01	3439.22
693.199	3615.35
693.388	3420.79
693.578	3453.56
693.767	3648.11
693.956	3437.17
694.146	3545.72
694.335	3369.59
694.524	3469.94
694.713	3330.68
694.902	3396.21
695.092	3504.76
695.281	3275.38
695.47	3422.84
695.659	3441.27
695.848	3428.98
696.037	3435.13
696.226	3410.55
696.415	3426.93
696.604	3320.44
696.793	3390.07
696.982	3332.73
697.171	3424.89
697.36	3340.92
697.549	3431.03
697.738	3244.67
697.927	3385.97
698.116	3308.15
698.305	3371.64
698.494	3394.17
698.683	3287.67
698.872	3394.17
699.061	3215.99
699.25	3326.58
699.438	3371.64
699.627	3324.54
699.816	3224.19
700.005	3263.1
700.193	3293.82
700.382	3314.3
700.571	3230.33
700.76	3207.8
700.948	3357.3
701.137	3195.51
701.326	3304.06
701.514	3201.66
701.703	3306.1
701.892	3181.18
702.08	3279.48
702.269	3205.75
702.457	3111.55
702.646	3256.95
702.834	3215.99
703.023	3189.37
703.212	3172.99
703.4	3099.26
703.589	3043.96
703.777	3193.47
703.965	3068.54
704.154	3191.42
704.342	3172.99
704.531	3103.36
704.719	2992.76
704.907	3181.18
705.096	3021.44
705.284	3168.89
705.472	3041.92
705.661	3091.07
705.849	3132.03
706.037	3093.12
706.226	3058.3
706.414	3209.85
706.602	3111.55
706.79	3066.49
706.979	3117.69
707.167	3021.44
707.355	2925.18
707.543	3074.68
707.731	3138.17
707.919	3009.15
708.107	2976.38
708.296	2894.46
708.484	2935.42
708.672	2976.38
708.86	3041.92
709.048	2931.33
709.236	2980.48
709.424	2964.09
709.612	3013.24
709.8	2902.65
709.988	2919.04
710.176	3023.48
710.364	3029.63
710.551	2890.37
710.739	2812.54
710.927	2880.13
711.115	3050.11
711.303	2886.27
711.491	2919.04
711.679	2919.04
711.866	2849.41
712.054	2943.61
712.242	2747.01
712.43	2890.37
712.617	2906.75
712.805	2753.15
712.993	2759.3
713.181	2763.39
713.368	2857.6
713.556	2732.67
713.744	2851.46
713.931	2738.82
714.119	2781.82
714.306	2812.54
714.494	2802.3
714.682	2742.91
714.869	2710.15
715.057	2695.81
715.244	2673.28
715.432	2730.62
715.619	2615.94
715.807	2755.2
715.994	2747.01
716.182	2636.42
716.369	2869.89
716.556	2794.11
716.744	2781.82
716.931	2673.28
717.119	2751.1
717.306	2550.4
717.493	2574.98
717.681	2523.78
717.868	2724.48
718.055	2615.94
718.242	2593.41
718.43	2663.04
718.617	2640.51
718.804	2693.76
718.991	2656.9
719.179	2638.47
719.366	2603.65
719.553	2634.37
719.74	2525.83
719.927	2704
720.114	2445.96
720.301	2650.75
720.488	2470.53
720.676	2501.25
720.863	2476.68
721.05	2577.03
721.237	2525.83
721.424	2437.77
721.611	2517.64
721.798	2478.72
721.985	2396.81
722.172	2560.64
722.358	2448.01
722.545	2536.07
722.732	2497.16
722.919	2574.98
723.106	2411.14
723.293	2527.88
723.48	2501.25
723.667	2558.6
723.853	2427.53
724.04	2331.27
724.227	2495.11
724.414	2437.77
724.6	2423.43
724.787	2386.57
724.974	2337.41
725.161	2359.94
725.347	2327.18
725.534	2235.02
725.72	2468.48
725.907	2357.89
726.094	2405
726.28	2325.13
726.467	2378.37
726.653	2382.47
726.84	2431.62
727.027	2464.39
727.213	2288.26
727.4	2327.18
727.586	2282.12
727.773	2282.12
727.959	2165.39
728.145	2331.27
728.332	2192.01
728.518	2202.25
728.705	2194.06
728.891	2222.73
729.077	2261.64
729.264	2138.76
729.45	2183.82
729.636	2296.46
729.823	2124.43
730.009	2243.21
730.195	2275.98
730.382	2288.26
730.568	2275.98
730.754	2189.96
730.94	2312.84
731.126	2267.78
731.313	2263.69
731.499	2130.57
731.685	2267.78
731.871	2134.67
732.057	2224.78
732.243	2054.8
732.429	2255.5
732.615	2210.44
732.801	2122.38
732.987	2224.78
733.173	2058.89
733.359	2140.81
733.545	2169.48
733.731	2007.69
733.917	2222.73
734.103	2083.47
734.289	2071.18
734.475	2136.71
734.661	2087.56
734.847	2046.6
735.033	2093.71
735.219	2091.66
735.404	2112.14
735.59	2099.85
735.776	2079.37
735.962	2087.56
736.148	2019.98
736.333	2034.32
736.519	2093.71
736.705	2026.12
736.89	2151.05
737.076	1911.44
737.262	2044.56
737.447	1929.87
737.633	1952.4
737.819	1880.72
738.004	2003.6
738.19	1884.81
738.375	1936.01
738.561	1981.07
738.747	1911.44
738.932	2003.6
739.118	2050.7
739.303	1962.64
739.489	1993.36
739.674	1938.06
739.859	1893.01
740.045	1964.68
740.23	1886.86
740.416	1796.75
740.601	1825.42
740.786	1886.86
740.972	1864.33
741.157	1927.82
741.342	1847.95
741.528	1895.05
741.713	1850
741.898	1872.53
742.084	1827.47
742.269	1766.03
742.454	1954.44
742.639	1772.18
742.824	1684.11
743.01	1864.33
743.195	1819.28
743.38	1688.21
743.565	1751.7
743.75	1796.75
743.935	1632.91
744.12	1845.9
744.305	1675.92
744.49	1757.84
744.675	1739.41
744.86	1579.67
745.045	1602.19
745.23	1690.26
745.415	1772.18
745.6	1718.93
745.785	1614.48
745.97	1542.8
746.155	1602.19
746.34	1649.3
746.525	1608.34
746.71	1731.22
746.895	1591.95
747.079	1467.03
747.264	1512.08
747.449	1620.63
747.634	1583.76
747.819	1538.71
748.003	1464.98
748.188	1454.74
748.373	1481.36
748.557	1505.94
748.742	1538.71
748.927	1419.92
749.111	1393.3
749.296	1577.62
749.481	1516.18
749.665	1563.28
749.85	1432.21
750.034	1448.6
750.219	1440.4
750.404	1415.83
750.588	1378.97
750.773	1266.33
750.957	1307.29
751.141	1292.95
751.326	1264.28
751.51	1317.53
751.695	1272.47
751.879	1307.29
752.064	1374.87
752.248	1329.81
752.432	1354.39
752.617	1249.94
752.801	1313.43
752.985	1329.81
753.17	1346.2
753.354	1206.94
753.538	1211.03
753.722	1260.18
753.907	1211.03
754.091	1235.61
754.275	1223.32
754.459	1165.98
754.643	1178.26
754.828	1256.09
755.012	1155.74
755.196	1090.2
755.38	1075.87
755.564	1079.96
755.748	1112.73
755.932	1178.26
756.116	1143.45
756.3	1139.35
756.484	1112.73
756.668	1092.25
756.852	1022.62
757.036	1092.25
757.22	1008.28
757.404	1034.91
757.588	1053.34
757.772	1084.06
757.956	1004.19
758.14	1102.49
758.323	1108.63
758.507	1026.71
758.691	993.95
758.875	1088.15
759.059	1051.29
759.242	1104.54
759.426	1022.62
759.61	1047.19
759.794	1016.48
759.977	1030.81
760.161	991.9
760.345	946.84
760.528	1014.43
760.712	944.8
760.895	961.18
761.079	899.74
761.263	922.27
761.446	932.51
761.63	938.65
761.813	866.97
761.997	862.88
762.18	797.34
762.364	912.03
762.547	842.4
762.731	879.26
762.914	873.12
763.098	799.39
763.281	920.22
763.464	891.55
763.648	850.59
763.831	914.08
764.015	752.29
764.198	801.44
764.381	834.21
764.564	846.49
764.748	846.49
764.931	821.92
765.114	899.74
765.297	846.49
765.481	799.39
765.664	821.92
765.847	838.3
766.03	887.45
766.213	856.73
766.397	795.29
766.58	748.19
766.763	852.64
766.946	772.77
767.129	823.97
767.312	787.1
767.495	709.28
767.678	903.84
767.861	805.53
768.044	729.76
768.227	774.81
768.41	723.62
768.593	748.19
768.776	735.9
768.959	719.52
769.142	830.11
769.324	748.19
769.507	682.66
769.69	758.43
769.873	742.05
770.056	815.77
770.239	680.61
770.421	715.42
770.604	772.77
770.787	817.82
770.97	725.66
771.152	674.46
771.335	744.1
771.518	856.73
771.7	733.86
771.883	643.74
772.066	727.71
772.248	780.96
772.431	682.66
772.613	746.14
772.796	729.76
772.978	756.38
773.161	731.81
773.343	690.85
773.526	672.42
773.708	666.27
773.891	621.22
774.073	731.81
774.256	633.5
774.438	758.43
774.621	651.94
774.803	682.66
774.985	625.31
775.168	694.94
775.35	576.16
775.532	610.98
775.715	610.98
775.897	633.5
776.079	633.5
776.261	619.17
776.444	559.78
776.626	641.7
776.808	576.16
776.99	559.78
777.173	584.35
777.355	496.29
777.537	668.32
777.719	559.78
777.901	494.24
778.083	625.31
778.265	565.92
778.447	559.78
778.629	520.87
778.811	512.67
778.993	582.31
779.175	551.59
779.357	416.42
779.539	438.95
779.721	510.63
779.903	598.69
780.085	553.63
780.267	561.83
780.449	469.67
780.631	596.64
780.812	570.02
780.994	389.8
781.176	438.95
781.358	586.4
781.54	457.38
781.721	510.63
781.903	494.24
782.085	424.61
782.267	387.75
782.448	481.96
782.63	516.77
782.812	428.71
782.993	535.2
783.175	441
783.357	484
783.538	449.19
783.72	404.13
783.901	502.44
784.083	379.56
784.264	481.96
784.446	469.67
784.627	453.28
784.809	481.96
784.99	420.52
785.172	420.52
785.353	287.4
785.535	420.52
785.716	436.9
785.897	371.37
786.079	410.28
786.26	357.03
786.441	438.95
786.623	324.26
786.804	404.13
786.985	408.23
787.167	397.99
787.348	389.8
787.529	309.93
787.71	449.19
787.891	387.75
788.073	381.6
788.254	281.25
788.435	314.02
788.616	400.04
788.797	342.69
788.978	379.56
789.159	367.27
789.34	357.03
789.522	301.73
789.703	268.97
789.884	291.49
790.065	346.79
790.246	363.17
790.427	359.08
790.607	301.73
790.788	365.22
790.969	305.83
791.15	299.69
791.331	346.79
791.512	285.35
791.693	322.21
791.874	340.65
792.054	316.07
792.235	365.22
792.416	217.77
792.597	291.49
792.778	281.25
792.958	342.69
793.139	291.49
793.32	221.86
793.5	297.64
793.681	326.31
793.862	256.68
794.042	242.34
794.223	273.06
794.404	250.53
794.584	242.34
794.765	305.83
794.945	289.45
795.126	277.16
795.306	250.53
795.487	234.15
795.667	230.06
795.848	275.11
796.028	250.53
796.209	234.15
796.389	252.58
796.57	293.54
796.75	191.14
796.93	236.2
797.111	223.91
797.291	271.01
797.471	221.86
797.652	193.19
797.832	207.53
798.012	185
798.192	230.06
798.373	223.91
798.553	295.59
798.733	217.77
798.913	230.06
799.093	182.95
799.274	350.89
799.454	271.01
799.634	209.58
799.814	262.82
799.994	201.38
800.174	266.92
800.354	185
800.534	156.33
800.714	248.49
800.894	162.47
801.074	191.14
801.254	150.18
801.434	219.82
801.614	168.62
801.794	176.81
801.974	701.09
802.154	158.38
802.334	215.72
802.514	228.01
802.693	146.09
802.873	133.8
803.053	178.86
803.233	144.04
803.413	129.7
803.592	162.47
803.772	201.38
803.952	150.18
804.131	160.42
804.311	162.47
804.491	201.38
804.67	160.42
804.85	133.8
805.03	137.9
805.209	215.72
805.389	146.09
805.568	223.91
805.748	166.57
805.928	201.38
806.107	168.62
806.287	160.42
806.466	223.91
806.646	92.84
806.825	207.53
807.004	119.46
807.184	125.61
807.363	189.1
807.543	176.81
807.722	166.57
807.901	191.14
808.081	127.66
808.26	137.9
808.439	86.7
808.619	127.66
808.798	215.72
808.977	154.28
809.156	166.57
809.336	170.66
809.515	207.53
809.694	187.05
809.873	98.99
810.052	152.23
810.231	201.38
810.411	150.18
810.59	240.3
810.769	174.76
810.948	96.94
811.127	60.07
811.306	158.38
811.485	133.8
811.664	105.13
811.843	58.03
812.022	150.18
812.201	131.75
812.38	146.09
812.559	109.23
812.737	150.18
812.916	125.61
813.095	160.42
813.274	111.27
813.453	68.27
813.632	195.24
813.811	133.8
813.989	96.94
814.168	125.61
814.347	154.28
814.526	86.7
814.704	94.89
814.883	131.75
815.062	88.75
815.24	150.18
815.419	174.76
815.598	94.89
815.776	174.76
815.955	152.23
816.133	-11.61
816.312	123.56
816.49	223.91
816.669	170.66
816.847	103.08
817.026	133.8
817.204	103.08
817.383	41.64
817.561	123.56
817.74	162.47
817.918	70.31
818.097	137.9
818.275	103.08
818.453	174.76
818.632	101.03
818.81	152.23
818.988	107.18
819.167	109.23
819.345	70.31
819.523	105.13
819.701	109.23
819.879	119.46
820.058	98.99
820.236	113.32
820.414	109.23
820.592	109.23
820.77	90.79
820.948	117.42
821.127	60.07
821.305	62.12
821.483	19.11
821.661	160.42
821.839	150.18
822.017	43.69
822.195	74.41
822.373	203.43
822.551	60.07
822.729	201.38
822.907	70.31
823.085	137.9
823.262	60.07
823.44	92.84
823.618	72.36
823.796	113.32
823.974	53.93
824.152	113.32
824.329	55.98
824.507	94.89
824.685	125.61
824.863	4.78
825.04	84.65
825.218	131.75
825.396	72.36
825.574	76.46
825.751	101.03
825.929	111.27
826.107	-3.41
826.284	72.36
826.462	119.46
826.639	49.83
826.817	-5.46
826.994	21.16
827.172	51.88
827.349	158.38
827.527	68.27
827.704	80.55
827.882	19.11
828.059	101.03
828.237	98.99
828.414	160.42
828.591	-9.56
828.769	31.4
828.946	21.16
829.124	58.03
829.301	101.03
829.478	101.03
829.655	135.85
829.833	27.31
830.01	-5.46
830.187	111.27
830.364	76.46
830.542	80.55
830.719	82.6
830.896	39.59
831.073	43.69
831.25	72.36
831.427	72.36
831.604	96.94
831.782	139.94
831.959	94.89
832.136	19.11
832.313	10.92
832.49	68.27
832.667	8.87
832.844	80.55
833.021	123.56
833.198	23.21
833.374	98.99
833.551	72.36
833.728	70.31
833.905	76.46
834.082	-9.56
834.259	12.97
834.436	125.61
834.612	94.89
834.789	129.7
834.966	37.55
835.143	84.65
835.319	51.88
835.496	35.5
835.673	51.88
835.85	68.27
836.026	84.65
836.203	109.23
836.38	45.74
836.556	12.97
836.733	45.74
836.909	101.03
837.086	96.94
837.262	-30.04
837.439	37.55
837.616	51.88
837.792	10.92
837.968	76.46
838.145	62.12
838.321	92.84
838.498	39.59
838.674	86.7
838.851	33.45
839.027	64.17
839.203	37.55
839.38	51.88
839.556	-5.46
839.732	129.7
839.909	-21.84
840.085	33.45
840.261	12.97
840.437	47.79
840.614	-5.46
840.79	60.07
840.966	88.75
841.142	-5.46
841.318	27.31
841.494	35.5
841.671	68.27
841.847	-5.46
842.023	-13.65
842.199	109.23
842.375	47.79
842.551	10.92
842.727	10.92
842.903	60.07
843.079	21.16
843.255	62.12
843.431	64.17
843.607	35.5
843.783	23.21
843.959	72.36
844.134	-30.04
844.31	72.36
844.486	60.07
844.662	12.97
844.838	-11.61
845.013	84.65
845.189	53.93
845.365	68.27
845.541	-3.41
845.716	53.93
845.892	39.59
846.068	47.79
846.244	21.16
846.419	-9.56
846.595	60.07
846.77	76.46
846.946	113.32
847.122	-13.65
847.297	-11.61
847.473	31.4
847.648	-3.41
847.824	25.26
847.999	8.87
848.175	35.5
848.35	-11.61
848.526	55.98
848.701	76.46
848.876	37.55
849.052	39.59
849.227	35.5
849.403	17.07
849.578	19.11
849.753	39.59
849.929	0.68
850.104	-9.56
850.279	51.88
850.454	62.12
850.63	4.78
850.805	60.07
850.98	10.92
851.155	23.21
851.33	35.5
851.505	12.97
851.681	101.03
851.856	6.83
852.031	51.88
852.206	19.11
852.381	-21.84
852.556	-48.47
852.731	4.78
852.906	-11.61
853.081	53.93
853.256	6.83
853.431	49.83
853.606	2.73
853.781	-3.41
853.956	29.35
854.131	25.26
854.305	-21.84
854.48	35.5
854.655	-38.23
854.83	23.21
855.005	43.69
855.18	84.65
855.354	-11.61
855.529	31.4
855.704	62.12
855.879	51.88
856.053	-30.04
856.228	70.31
856.403	-54.61
856.577	17.07
856.752	4.78
856.926	-36.18
857.101	60.07
857.276	37.55
857.45	-11.61
857.625	47.79
857.799	47.79
857.974	82.6
858.148	-38.23
858.323	105.13
858.497	4.78
858.672	-11.61
858.846	-25.94
859.02	62.12
859.195	-1.37
859.369	17.07
859.543	4.78
859.718	23.21
859.892	51.88
860.066	2.73
860.241	53.93
860.415	2.73
860.589	-50.52
860.763	8.87
860.938	27.31
861.112	76.46
861.286	-11.61
861.46	10.92
861.634	31.4
861.808	19.11
861.982	-17.75
862.157	21.16
862.331	21.16
862.505	-62.8
862.679	2.73
862.853	55.98
863.027	31.4
863.201	51.88
863.375	-7.51
863.549	-11.61
863.722	-3.41
863.896	94.89
864.07	21.16
864.244	6.83
864.418	39.59
864.592	6.83
864.766	4.78
864.939	45.74
865.113	-17.75
865.287	90.79
865.461	-21.84
865.634	10.92
865.808	-52.56
865.982	29.35
866.156	2.73
866.329	-5.46
866.503	55.98
866.676	2.73
866.85	2.73
867.024	-42.32
867.197	-23.89
867.371	-5.46
867.544	55.98
867.718	-17.75
867.891	12.97
868.065	35.5
868.238	-56.66
868.412	2.73
868.585	39.59
868.759	27.31
868.932	-19.8
869.105	-30.04
869.279	21.16
869.452	-21.84
869.625	15.02
869.799	2.73
869.972	17.07
870.145	31.4
870.319	43.69
870.492	62.12
870.665	4.78
870.838	6.83
871.011	-71
871.185	21.16
871.358	-34.13
871.531	12.97
871.704	-30.04
871.877	-21.84
872.05	-75.09
872.223	21.16
872.396	2.73
872.569	84.65
872.742	-87.38
872.915	-1.37
873.088	19.11
873.261	-25.94
873.434	29.35
873.607	-38.23
873.78	-5.46
873.953	12.97
874.126	-13.65
874.299	-34.13
874.471	-46.42
874.644	43.69
874.817	21.16
874.99	60.07
875.163	12.97
875.335	12.97
875.508	27.31
875.681	29.35
875.853	19.11
876.026	19.11
876.199	-1.37
876.371	-5.46
876.544	70.31
876.717	19.11
876.889	25.26
877.062	29.35
877.234	-9.56
877.407	31.4
877.579	19.11
877.752	8.87
877.924	35.5
878.097	-5.46
878.269	31.4
878.442	51.88
878.614	-30.04
878.786	-34.13
878.959	-40.28
879.131	27.31
879.303	-52.56
879.476	-68.95
879.648	53.93
879.82	-23.89
879.993	23.21
880.165	-19.8
880.337	-73.04
880.509	31.4
880.681	2.73
880.854	-5.46
881.026	31.4
881.198	4.78
881.37	27.31
881.542	15.02
881.714	-34.13
881.886	-77.14
882.058	-32.08
882.23	-42.32
882.402	-3.41
882.574	41.64
882.746	-36.18
882.918	-25.94
883.09	12.97
883.262	-71
883.434	10.92
883.606	-1.37
883.778	-9.56
883.95	8.87
884.122	-21.84
884.293	-1.37
884.465	45.74
884.637	-3.41
884.809	-1.37
884.98	51.88
885.152	-30.04
885.324	-21.84
885.496	-38.23
885.667	-34.13
885.839	47.79
886.011	51.88
886.182	68.27
886.354	98.99
886.525	-27.99
886.697	4.78
886.869	4.78
887.04	10.92
887.212	12.97
887.383	84.65
887.555	86.7
887.726	12.97
887.897	-11.61
888.069	-50.52
888.24	-13.65
888.412	19.11
888.583	-38.23
888.754	4.78
888.926	-77.14
889.097	27.31
889.268	33.45
889.44	70.31
889.611	27.31
889.782	-58.71
889.953	27.31
890.125	39.59
890.296	-103.76
890.467	35.5
890.638	37.55
890.809	2.73
890.98	43.69
891.151	-77.14
891.323	45.74
891.494	39.59
891.665	10.92
891.836	31.4
892.007	-27.99
892.178	-17.75
892.349	-50.52
892.52	-46.42
892.691	-116.05
892.862	23.21
893.032	-7.51
893.203	2.73
893.374	-30.04
893.545	39.59
893.716	-66.9
893.887	-71
894.057	6.83
894.228	39.59
894.399	27.31
894.57	29.35
894.74	2.73
894.911	-81.24
895.082	101.03
895.253	-83.28
895.423	-52.56
895.594	21.16
895.764	12.97
895.935	-17.75
896.106	27.31
896.276	19.11
896.447	-5.46
896.617	-11.61
896.788	-1.37
896.958	-66.9
897.129	-36.18
897.299	-87.38
897.47	92.84
897.64	-9.56
897.81	23.21
897.981	4.78
898.151	-17.75
898.322	-13.65
898.492	-3.41
898.662	-21.84
898.832	-85.33
899.003	27.31
899.173	-15.7
899.343	-13.65
899.513	-64.85
