Data from USB4F104151__221__14-21-21-488.txt Node

Date: Thu Mar 13 14:21:21 EDT 2025
User: louis
Spectrometer: USB4F10415
Trigger mode: 4
Integration Time (sec): 2.000000E-2
Scans to average: 1
Electric dark correction enabled: true
Nonlinearity correction enabled: false
Boxcar width: 0
XAxis mode: Wavelengths
Number of Pixels in Spectrum: 3648
>>>>>Begin Spectral Data<<<<<
178.204	-138.41
178.424	-138.41
178.644	-138.41
178.864	-167.08
179.084	-101.55
179.304	-70.83
179.524	-44.2
179.744	-9.39
179.964	2.9
180.184	11.09
180.404	19.29
180.624	45.91
180.844	9.05
181.064	9.05
181.283	41.81
181.503	-3.24
181.723	-11.43
181.943	-89.26
182.163	27.48
182.383	78.68
182.602	27.48
182.822	39.76
183.042	27.48
183.262	-19.63
183.482	-19.63
183.701	35.67
183.921	-13.48
184.141	62.29
184.361	90.96
184.58	41.81
184.8	23.38
185.02	-50.35
185.239	58.2
185.459	33.62
185.679	0.85
185.898	-23.72
186.118	74.58
186.338	93.01
186.557	37.72
186.777	-31.91
186.997	11.09
187.216	-21.67
187.436	41.81
187.655	62.29
187.875	90.96
188.095	-46.25
188.314	-13.48
188.534	33.62
188.753	33.62
188.973	4.95
189.192	72.53
189.412	-13.48
189.631	21.33
189.851	-58.54
190.07	-3.24
190.29	-36.01
190.509	-76.97
190.729	45.91
190.948	50
191.168	115.54
191.387	29.52
191.607	-40.11
191.826	74.58
192.045	31.57
192.265	82.77
192.484	76.63
192.704	13.14
192.923	-15.53
193.142	88.92
193.362	35.67
193.581	101.2
193.8	31.57
194.02	76.63
194.239	31.57
194.458	-9.39
194.678	7
194.897	27.48
195.116	9.05
195.335	52.05
195.555	93.01
195.774	80.72
195.993	-11.43
196.212	70.48
196.432	-107.69
196.651	25.43
196.87	21.33
197.089	74.58
197.308	117.59
197.528	-29.87
197.747	-7.34
197.966	58.2
198.185	109.4
198.404	2.9
198.623	72.53
198.842	105.3
199.062	9.05
199.281	107.35
199.5	0.85
199.719	74.58
199.938	62.29
200.157	23.38
200.376	58.2
200.595	66.39
200.814	23.38
201.033	0.85
201.252	11.09
201.471	90.96
201.69	-29.87
201.909	-40.11
202.128	74.58
202.347	99.16
202.566	9.05
202.785	25.43
203.004	39.76
203.223	95.06
203.442	76.63
203.661	25.43
203.879	-1.19
204.098	-7.34
204.317	68.44
204.536	-42.15
204.755	43.86
204.974	-3.24
205.193	54.1
205.411	115.54
205.63	-23.72
205.849	-23.72
206.068	33.62
206.287	60.24
206.505	-3.24
206.724	68.44
206.943	41.81
207.162	27.48
207.381	-13.48
207.599	41.81
207.818	2.9
208.037	-19.63
208.255	25.43
208.474	11.09
208.693	-3.24
208.911	7
209.13	35.67
209.349	58.2
209.567	41.81
209.786	21.33
210.005	-38.06
210.223	23.38
210.442	-48.3
210.661	-3.24
210.879	11.09
211.098	50
211.316	-38.06
211.535	29.52
211.753	93.01
211.972	35.67
212.191	70.48
212.409	21.33
212.628	47.96
212.846	43.86
213.065	9.05
213.283	9.05
213.502	25.43
213.72	9.05
213.938	17.24
214.157	62.29
214.375	109.4
214.594	21.33
214.812	-27.82
215.031	41.81
215.249	11.09
215.467	-23.72
215.686	31.57
215.904	23.38
216.122	21.33
216.341	115.54
216.559	31.57
216.778	74.58
216.996	9.05
217.214	17.24
217.432	21.33
217.651	76.63
217.869	13.14
218.087	9.05
218.306	68.44
218.524	60.24
218.742	66.39
218.96	13.14
219.179	58.2
219.397	29.52
219.615	101.2
219.833	33.62
220.051	-13.48
220.27	54.1
220.488	50
220.706	-3.24
220.924	-15.53
221.142	-15.53
221.36	33.62
221.578	25.43
221.796	11.09
222.015	9.05
222.233	82.77
222.451	72.53
222.669	37.72
222.887	50
223.105	35.67
223.323	17.24
223.541	-33.96
223.759	82.77
223.977	19.29
224.195	103.25
224.413	66.39
224.631	95.06
224.849	17.24
225.067	27.48
225.285	-15.53
225.503	41.81
225.721	62.29
225.939	-38.06
226.157	11.09
226.375	58.2
226.592	66.39
226.81	-27.82
227.028	47.96
227.246	80.72
227.464	76.63
227.682	86.87
227.9	33.62
228.117	56.15
228.335	17.24
228.553	-13.48
228.771	50
228.989	37.72
229.206	115.54
229.424	78.68
229.642	-36.01
229.86	-11.43
230.077	25.43
230.295	64.34
230.513	23.38
230.731	33.62
230.948	74.58
231.166	107.35
231.384	45.91
231.601	29.52
231.819	164.69
232.037	21.33
232.254	25.43
232.472	41.81
232.689	11.09
232.907	52.05
233.125	4.95
233.342	25.43
233.56	66.39
233.777	21.33
233.995	-11.43
234.213	84.82
234.43	-31.91
234.648	52.05
234.865	41.81
235.083	33.62
235.3	21.33
235.518	9.05
235.735	68.44
235.953	39.76
236.17	7
236.388	0.85
236.605	9.05
236.822	4.95
237.04	56.15
237.257	13.14
237.475	82.77
237.692	-9.39
237.909	140.12
238.127	21.33
238.344	66.39
238.562	21.33
238.779	-36.01
238.996	-44.2
239.214	9.05
239.431	25.43
239.648	-11.43
239.865	-27.82
240.083	41.81
240.3	21.33
240.517	107.35
240.735	9.05
240.952	35.67
241.169	29.52
241.386	45.91
241.603	43.86
241.821	19.29
242.038	54.1
242.255	33.62
242.472	-7.34
242.689	52.05
242.907	21.33
243.124	54.1
243.341	19.29
243.558	-5.29
243.775	37.72
243.992	-7.34
244.209	29.52
244.426	72.53
244.643	86.87
244.86	-19.63
245.078	9.05
245.295	35.67
245.512	-29.87
245.729	-1.19
245.946	52.05
246.163	19.29
246.38	131.92
246.597	-64.68
246.814	64.34
247.031	70.48
247.248	52.05
247.464	23.38
247.681	41.81
247.898	52.05
248.115	133.97
248.332	-29.87
248.549	80.72
248.766	127.83
248.983	82.77
249.2	33.62
249.417	41.81
249.633	99.16
249.85	99.16
250.067	72.53
250.284	4.95
250.501	25.43
250.717	41.81
250.934	54.1
251.151	31.57
251.368	25.43
251.585	39.76
251.801	4.95
252.018	27.48
252.235	31.57
252.451	-15.53
252.668	7
252.885	90.96
253.102	17.24
253.318	27.48
253.535	50
253.752	74.58
253.968	64.34
254.185	-17.58
254.401	33.62
254.618	23.38
254.835	66.39
255.051	27.48
255.268	9.05
255.484	19.29
255.701	-31.91
255.917	45.91
256.134	43.86
256.351	58.2
256.567	-46.25
256.784	66.39
257	43.86
257.217	37.72
257.433	78.68
257.65	-60.59
257.866	37.72
258.082	-3.24
258.299	43.86
258.515	-3.24
258.732	21.33
258.948	62.29
259.165	80.72
259.381	-1.19
259.597	23.38
259.814	23.38
260.03	25.43
260.246	52.05
260.463	-3.24
260.679	99.16
260.895	50
261.112	74.58
261.328	52.05
261.544	31.57
261.761	68.44
261.977	35.67
262.193	2.9
262.409	56.15
262.626	50
262.842	45.91
263.058	45.91
263.274	78.68
263.49	23.38
263.707	66.39
263.923	58.2
264.139	9.05
264.355	50
264.571	70.48
264.787	47.96
265.004	95.06
265.22	9.05
265.436	-11.43
265.652	29.52
265.868	52.05
266.084	-23.72
266.3	109.4
266.516	19.29
266.732	47.96
266.948	-21.67
267.164	50
267.38	78.68
267.596	113.49
267.812	35.67
268.028	-25.77
268.244	33.62
268.46	41.81
268.676	39.76
268.892	41.81
269.108	82.77
269.324	47.96
269.54	-52.39
269.756	52.05
269.972	37.72
270.188	43.86
270.403	-7.34
270.619	45.91
270.835	123.73
271.051	-19.63
271.267	-33.96
271.483	74.58
271.698	62.29
271.914	23.38
272.13	-13.48
272.346	19.29
272.562	29.52
272.777	4.95
272.993	82.77
273.209	21.33
273.425	50
273.64	-15.53
273.856	19.29
274.072	33.62
274.287	33.62
274.503	37.72
274.719	-5.29
274.934	54.1
275.15	66.39
275.366	70.48
275.581	-3.24
275.797	70.48
276.012	0.85
276.228	115.54
276.444	66.39
276.659	27.48
276.875	-31.91
277.09	60.24
277.306	33.62
277.521	41.81
277.737	23.38
277.952	82.77
278.168	50
278.383	93.01
278.599	45.91
278.814	142.16
279.03	25.43
279.245	9.05
279.461	33.62
279.676	60.24
279.892	29.52
280.107	0.85
280.322	-56.49
280.538	27.48
280.753	39.76
280.969	58.2
281.184	-54.44
281.399	82.77
281.615	9.05
281.83	82.77
282.045	-7.34
282.26	29.52
282.476	58.2
282.691	74.58
282.906	13.14
283.122	156.5
283.337	33.62
283.552	19.29
283.767	-40.11
283.983	93.01
284.198	17.24
284.413	25.43
284.628	-21.67
284.843	33.62
285.058	54.1
285.274	17.24
285.489	-48.3
285.704	60.24
285.919	62.29
286.134	17.24
286.349	58.2
286.564	107.35
286.779	82.77
286.995	60.24
287.21	2.9
287.425	41.81
287.64	0.85
287.855	45.91
288.07	21.33
288.285	68.44
288.5	43.86
288.715	9.05
288.93	11.09
289.145	58.2
289.36	19.29
289.575	19.29
289.79	45.91
290.004	25.43
290.219	140.12
290.434	50
290.649	64.34
290.864	33.62
291.079	29.52
291.294	41.81
291.509	-1.19
291.724	25.43
291.938	17.24
292.153	66.39
292.368	41.81
292.583	68.44
292.798	109.4
293.012	-17.58
293.227	-52.39
293.442	70.48
293.657	41.81
293.871	99.16
294.086	50
294.301	-7.34
294.516	80.72
294.73	-5.29
294.945	11.09
295.16	-15.53
295.374	-13.48
295.589	45.91
295.804	2.9
296.018	13.14
296.233	19.29
296.447	-1.19
296.662	58.2
296.877	-3.24
297.091	-15.53
297.306	70.48
297.52	11.09
297.735	-5.29
297.949	86.87
298.164	78.68
298.378	43.86
298.593	-17.58
298.807	99.16
299.022	27.48
299.236	66.39
299.451	33.62
299.665	41.81
299.88	43.86
300.094	76.63
300.309	9.05
300.523	47.96
300.737	33.62
300.952	90.96
301.166	76.63
301.381	76.63
301.595	27.48
301.809	31.57
302.024	168.79
302.238	-29.87
302.452	37.72
302.667	4.95
302.881	43.86
303.095	-33.96
303.309	82.77
303.524	-40.11
303.738	70.48
303.952	7
304.166	66.39
304.381	-97.45
304.595	99.16
304.809	50
305.023	7
305.237	70.48
305.452	-31.91
305.666	-21.67
305.88	-21.67
306.094	74.58
306.308	11.09
306.522	9.05
306.736	-40.11
306.95	107.35
307.164	25.43
307.379	-5.29
307.593	33.62
307.807	68.44
308.021	52.05
308.235	50
308.449	66.39
308.663	43.86
308.877	78.68
309.091	60.24
309.305	-7.34
309.519	-33.96
309.733	4.95
309.947	54.1
310.161	25.43
310.374	37.72
310.588	99.16
310.802	41.81
311.016	17.24
311.23	99.16
311.444	25.43
311.658	80.72
311.872	9.05
312.085	109.4
312.299	74.58
312.513	78.68
312.727	-21.67
312.941	11.09
313.154	52.05
313.368	7
313.582	60.24
313.796	37.72
314.009	0.85
314.223	80.72
314.437	29.52
314.651	136.02
314.864	-5.29
315.078	-38.06
315.292	33.62
315.505	62.29
315.719	4.95
315.933	105.3
316.146	74.58
316.36	37.72
316.573	150.36
316.787	13.14
317.001	115.54
317.214	-31.91
317.428	-19.63
317.641	37.72
317.855	25.43
318.068	33.62
318.282	45.91
318.495	86.87
318.709	74.58
318.922	4.95
319.136	68.44
319.349	125.78
319.563	66.39
319.776	17.24
319.99	-3.24
320.203	41.81
320.417	58.2
320.63	33.62
320.843	82.77
321.057	45.91
321.27	-48.3
321.483	88.92
321.697	97.11
321.91	43.86
322.124	31.57
322.337	11.09
322.55	68.44
322.763	99.16
322.977	-13.48
323.19	82.77
323.403	54.1
323.617	27.48
323.83	101.2
324.043	2.9
324.256	54.1
324.469	50
324.683	160.59
324.896	35.67
325.109	86.87
325.322	31.57
325.535	54.1
325.748	60.24
325.962	25.43
326.175	60.24
326.388	66.39
326.601	-13.48
326.814	52.05
327.027	123.73
327.24	72.53
327.453	25.43
327.666	13.14
327.879	56.15
328.092	86.87
328.305	95.06
328.518	74.58
328.731	13.14
328.944	68.44
329.157	56.15
329.37	107.35
329.583	90.96
329.796	88.92
330.009	47.96
330.222	23.38
330.435	-29.87
330.648	-11.43
330.861	21.33
331.073	62.29
331.286	52.05
331.499	27.48
331.712	47.96
331.925	-15.53
332.138	33.62
332.35	62.29
332.563	-5.29
332.776	43.86
332.989	41.81
333.202	84.82
333.414	90.96
333.627	103.25
333.84	80.72
334.053	127.83
334.265	21.33
334.478	33.62
334.691	7
334.903	107.35
335.116	17.24
335.329	90.96
335.541	50
335.754	21.33
335.966	23.38
336.179	-7.34
336.392	-21.67
336.604	11.09
336.817	-7.34
337.029	80.72
337.242	50
337.454	4.95
337.667	17.24
337.88	52.05
338.092	-19.63
338.305	43.86
338.517	0.85
338.729	50
338.942	41.81
339.154	-13.48
339.367	15.19
339.579	101.2
339.792	37.72
340.004	41.81
340.217	123.73
340.429	109.4
340.641	47.96
340.854	13.14
341.066	115.54
341.278	74.58
341.491	43.86
341.703	68.44
341.915	-21.67
342.128	95.06
342.34	25.43
342.552	64.34
342.764	64.34
342.977	19.29
343.189	-31.91
343.401	103.25
343.613	52.05
343.826	82.77
344.038	-31.91
344.25	78.68
344.462	58.2
344.674	21.33
344.886	-48.3
345.099	11.09
345.311	68.44
345.523	29.52
345.735	60.24
345.947	101.2
346.159	52.05
346.371	2.9
346.583	74.58
346.795	107.35
347.007	-11.43
347.219	-5.29
347.431	86.87
347.643	138.07
347.855	25.43
348.067	78.68
348.279	19.29
348.491	101.2
348.703	99.16
348.915	-29.87
349.127	119.64
349.339	90.96
349.551	-7.34
349.763	90.96
349.975	-5.29
350.187	115.54
350.399	9.05
350.61	50
350.822	11.09
351.034	62.29
351.246	41.81
351.458	37.72
351.669	11.09
351.881	68.44
352.093	119.64
352.305	45.91
352.517	21.33
352.728	103.25
352.94	7
353.152	127.83
353.363	29.52
353.575	99.16
353.787	33.62
353.999	15.19
354.21	156.5
354.422	70.48
354.633	21.33
354.845	23.38
355.057	62.29
355.268	90.96
355.48	74.58
355.692	54.1
355.903	37.72
356.115	23.38
356.326	62.29
356.538	66.39
356.749	43.86
356.961	74.58
357.172	33.62
357.384	58.2
357.595	84.82
357.807	41.81
358.018	13.14
358.23	78.68
358.441	156.5
358.653	54.1
358.864	76.63
359.075	86.87
359.287	93.01
359.498	156.5
359.709	43.86
359.921	-52.39
360.132	97.11
360.344	27.48
360.555	140.12
360.766	90.96
360.977	0.85
361.189	50
361.4	54.1
361.611	54.1
361.823	21.33
362.034	33.62
362.245	52.05
362.456	74.58
362.667	105.3
362.879	37.72
363.09	133.97
363.301	41.81
363.512	19.29
363.723	43.86
363.935	52.05
364.146	74.58
364.357	62.29
364.568	37.72
364.779	-5.29
364.99	82.77
365.201	66.39
365.412	103.25
365.623	74.58
365.834	41.81
366.045	54.1
366.256	45.91
366.467	23.38
366.678	74.58
366.889	50
367.1	127.83
367.311	95.06
367.522	11.09
367.733	74.58
367.944	70.48
368.155	90.96
368.366	84.82
368.577	93.01
368.788	107.35
368.999	35.67
369.209	66.39
369.42	142.16
369.631	115.54
369.842	52.05
370.053	97.11
370.264	35.67
370.474	45.91
370.685	68.44
370.896	43.86
371.107	74.58
371.317	62.29
371.528	-3.24
371.739	127.83
371.95	50
372.16	68.44
372.371	58.2
372.582	97.11
372.792	58.2
373.003	41.81
373.214	-7.34
373.424	117.59
373.635	23.38
373.846	84.82
374.056	21.33
374.267	74.58
374.477	13.14
374.688	39.76
374.898	15.19
375.109	74.58
375.319	-3.24
375.53	37.72
375.74	60.24
375.951	-40.11
376.161	111.44
376.372	123.73
376.582	62.29
376.793	21.33
377.003	41.81
377.214	66.39
377.424	37.72
377.635	117.59
377.845	2.9
378.055	127.83
378.266	58.2
378.476	74.58
378.686	35.67
378.897	78.68
379.107	82.77
379.317	39.76
379.528	27.48
379.738	54.1
379.948	52.05
380.158	99.16
380.369	107.35
380.579	66.39
380.789	-9.39
380.999	25.43
381.21	74.58
381.42	146.26
381.63	17.24
381.84	93.01
382.05	101.2
382.261	41.81
382.471	66.39
382.681	66.39
382.891	45.91
383.101	17.24
383.311	27.48
383.521	37.72
383.731	115.54
383.941	123.73
384.151	113.49
384.361	60.24
384.571	43.86
384.781	93.01
384.991	72.53
385.201	95.06
385.411	17.24
385.621	9.05
385.831	-5.29
386.041	93.01
386.251	21.33
386.461	11.09
386.671	74.58
386.881	60.24
387.091	82.77
387.301	86.87
387.511	80.72
387.72	189.27
387.93	19.29
388.14	76.63
388.35	93.01
388.56	150.36
388.769	39.76
388.979	33.62
389.189	74.58
389.399	84.82
389.609	86.87
389.818	35.67
390.028	37.72
390.238	88.92
390.447	74.58
390.657	47.96
390.867	142.16
391.076	-13.48
391.286	21.33
391.496	99.16
391.705	68.44
391.915	193.36
392.125	25.43
392.334	50
392.544	99.16
392.753	41.81
392.963	60.24
393.172	86.87
393.382	58.2
393.591	152.4
393.801	50
394.01	111.44
394.22	125.78
394.429	74.58
394.639	115.54
394.848	93.01
395.058	43.86
395.267	99.16
395.477	35.67
395.686	129.88
395.895	144.21
396.105	150.36
396.314	172.88
396.524	101.2
396.733	80.72
396.942	127.83
397.152	123.73
397.361	121.68
397.57	109.4
397.78	107.35
397.989	99.16
398.198	174.93
398.407	117.59
398.617	131.92
398.826	117.59
399.035	64.34
399.244	183.12
399.453	121.68
399.663	33.62
399.872	160.59
400.081	90.96
400.29	174.93
400.499	95.06
400.708	164.69
400.917	191.31
401.127	105.3
401.336	115.54
401.545	140.12
401.754	133.97
401.963	113.49
402.172	93.01
402.381	123.73
402.59	99.16
402.799	158.55
403.008	254.8
403.217	179.03
403.426	150.36
403.635	127.83
403.844	113.49
404.053	99.16
404.262	156.5
404.471	201.55
404.68	164.69
404.888	150.36
405.097	273.23
405.306	195.41
405.515	158.55
405.724	172.88
405.933	211.79
406.142	287.57
406.35	185.17
406.559	226.13
406.768	232.27
406.977	320.34
407.185	222.03
407.394	256.85
407.603	230.23
407.812	287.57
408.02	254.8
408.229	246.61
408.438	275.28
408.646	351.06
408.855	287.57
409.064	295.76
409.272	289.62
409.481	328.53
409.69	410.45
409.898	312.14
410.107	371.54
410.315	394.06
410.524	406.35
410.733	416.59
410.941	424.78
411.15	418.64
411.358	506.7
411.567	404.3
411.775	430.93
411.984	451.41
412.192	572.24
412.401	533.33
412.609	551.76
412.818	566.09
413.026	629.58
413.234	648.01
413.443	518.99
413.651	648.01
413.86	662.35
414.068	803.66
414.276	795.47
414.485	729.93
414.693	752.46
414.901	873.29
415.11	838.47
415.318	822.09
415.526	885.58
415.734	887.62
415.943	942.92
416.151	1131.33
416.359	1002.31
416.567	1041.22
416.776	1102.66
416.984	1057.61
417.192	1155.91
417.4	1256.26
417.608	1110.85
417.817	1184.58
418.025	1272.64
418.233	1385.28
418.441	1377.09
418.649	1512.25
418.857	1397.57
419.065	1536.83
419.273	1485.63
419.481	1651.52
419.689	1672
419.897	1780.54
420.105	1837.88
420.313	1977.14
420.521	1966.9
420.729	1997.62
420.937	1971
421.145	2163.51
421.353	2175.8
421.561	2167.6
421.769	2401.07
421.977	2392.88
422.185	2376.5
422.393	2566.96
422.601	2712.36
422.809	2749.23
423.017	2818.86
423.224	2925.35
423.432	3042.09
423.64	2962.22
423.848	3230.5
424.056	3109.67
424.263	3429.15
424.471	3261.22
424.679	3470.11
424.887	3531.55
425.094	3879.71
425.302	3787.55
425.51	3908.38
425.718	4072.22
425.925	4014.87
426.133	4203.29
426.341	4373.27
426.548	4641.55
426.756	4768.52
426.964	4807.44
427.171	5038.86
427.379	5163.78
427.586	5235.46
427.794	5233.41
428.001	5546.75
428.209	5757.69
428.417	5729.02
428.624	5999.35
428.832	6095.61
429.039	6218.49
429.247	6136.57
429.454	6816.49
429.662	7146.22
429.869	6623.98
430.076	7101.16
430.284	6959.85
430.491	7135.98
430.699	7633.63
430.906	7701.22
431.114	7789.28
431.321	8016.6
431.528	8180.44
431.736	8790.74
431.943	9061.07
432.15	8942.28
432.358	9169.61
432.565	9392.84
432.772	9323.21
432.979	9933.5
433.187	10134.2
433.394	10052.28
433.601	10867.38
433.808	10920.62
434.016	10511.03
434.223	11295.4
434.43	11768.48
434.637	11528.87
434.844	12583.57
435.052	12673.68
435.259	12794.51
435.466	12694.16
435.673	12329.63
435.88	13517.45
436.087	14230.14
436.294	14148.22
436.501	13716.1
436.708	13968
436.915	14705.27
437.122	15024.75
437.329	15104.62
437.537	15749.73
437.743	15723.11
437.95	15792.74
438.157	16519.77
438.364	17052.24
438.571	17154.64
438.778	17224.27
438.985	18750.01
439.192	17695.3
439.399	18432.57
439.606	17916.48
439.813	18895.41
440.02	20218.4
440.227	19620.39
440.433	19532.33
440.64	20632.09
440.847	20388.38
441.054	20535.84
441.261	22168.07
441.467	21613.07
441.674	22174.21
441.881	22847.99
442.088	23167.48
442.294	22536.7
442.501	23267.83
442.708	23841.26
442.914	24875.48
443.121	25487.82
443.328	24783.32
443.534	26704.32
443.741	25747.92
443.948	25481.68
444.154	27249.08
444.361	27380.15
444.568	27777.45
444.774	27535.79
444.981	28072.36
445.187	28438.95
445.394	29860.24
445.6	29325.72
445.807	32141.67
446.013	30904.7
446.22	31525.24
446.426	32594.28
446.633	32893.28
446.839	33841.49
447.046	32549.22
447.252	34494.79
447.459	34414.92
447.665	34036.05
447.871	35682.61
448.078	36591.91
448.284	35578.17
448.491	36761.89
448.697	37835.03
448.903	38936.84
449.11	38277.39
449.316	38123.79
449.522	38568.2
449.728	39420.16
449.935	39950.58
450.141	39874.8
450.347	40958.18
450.553	39710.97
450.76	40007.92
450.966	41328.86
451.172	40986.85
451.378	42010.84
451.584	41027.81
451.791	42066.13
451.997	42029.27
452.203	42209.49
452.409	42459.34
452.615	42490.06
452.821	40909.03
453.027	40528.11
453.233	42705.1
453.44	41191.65
453.646	41574.62
453.852	41289.95
454.058	42576.08
454.264	40804.58
454.47	42358.99
454.676	40794.34
454.882	41947.35
455.088	38668.55
455.294	39186.69
455.5	39753.97
455.705	40196.34
455.911	38568.2
456.117	37771.54
456.323	37081.38
456.529	35518.78
456.735	36833.57
456.941	36092.21
457.147	35230.01
457.352	34261.32
457.558	33915.22
457.764	34019.66
457.97	33808.72
458.176	32772.45
458.381	33012.06
458.587	31166.84
458.793	31050.11
458.999	29581.71
459.204	31687.03
459.41	30716.29
459.616	28987.8
459.821	28854.69
460.027	28705.18
460.233	28375.46
460.438	27066.81
460.644	27193.78
460.85	25942.47
461.055	25469.39
461.261	25543.12
461.466	23515.63
461.672	22909.43
461.878	24529.38
462.083	22977.01
462.289	22503.93
462.494	22272.51
462.7	21242.39
462.905	20705.82
463.111	21590.54
463.316	21383.7
463.522	21119.51
463.727	21242.39
463.932	21103.12
464.138	20902.42
464.343	21060.12
464.549	20636.19
464.754	20896.28
464.959	20894.23
465.165	20515.36
465.37	19661.35
465.575	19161.65
465.781	19980.84
465.986	19905.06
466.191	19386.93
466.397	18979.38
466.602	18008.64
466.807	18936.37
467.012	18983.48
467.218	18766.39
467.423	18364.99
467.628	18756.15
467.833	19337.77
468.038	18508.35
468.244	18238.02
468.449	18938.42
468.654	18248.25
468.859	18240.06
469.064	17902.15
469.269	17279.57
469.474	17433.16
469.679	17836.61
469.885	17343.05
470.09	17607.24
470.295	17443.4
470.5	17074.77
470.705	17216.08
470.91	16685.65
471.115	16460.38
471.32	17072.72
471.525	16759.38
471.73	16239.2
471.935	16165.47
472.139	15669.86
472.344	16067.17
472.549	15532.65
472.754	15526.5
472.959	15297.13
473.164	14865.01
473.369	14844.53
473.574	15307.37
473.778	15293.04
473.983	14942.83
474.188	15018.61
474.393	14232.19
474.598	14273.15
474.802	14320.25
475.007	13933.18
475.212	14207.61
475.417	13824.64
475.621	13666.95
475.826	13802.11
476.031	13449.86
476.235	13003.41
476.44	13394.57
476.645	13189.77
476.849	13372.04
477.054	12870.29
477.259	12921.49
477.463	12794.51
477.668	12210.84
477.872	12610.2
478.077	12530.33
478.282	12309.15
478.486	12116.64
478.691	12059.29
478.895	12010.14
479.1	11748
479.304	12018.33
479.509	11502.25
479.713	11717.28
479.918	11674.28
480.122	11225.77
480.326	11451.05
480.531	11399.85
480.735	11207.34
480.94	11426.47
481.144	11780.77
481.348	11215.53
481.553	11195.05
481.757	10904.24
481.961	11129.52
482.166	11350.7
482.37	11233.96
482.574	10945.2
482.778	11090.6
482.983	11193
483.187	11141.8
483.391	11057.84
483.595	10885.81
483.8	10945.2
484.004	11150
484.208	11162.28
484.412	10885.81
484.616	11328.17
484.821	11121.32
485.025	10959.53
485.229	11131.56
485.433	10900.14
485.637	11227.82
485.841	10775.22
486.045	11080.36
486.249	11133.61
486.453	10998.45
486.657	11016.88
486.861	10986.16
487.065	10681.01
487.269	11082.41
487.473	10939.05
487.677	11170.47
487.881	10955.44
488.085	11094.7
488.289	11160.24
488.493	11094.7
488.697	11231.91
488.901	11147.95
489.105	10945.2
489.309	11129.52
489.512	11223.72
489.716	11215.53
489.92	11264.68
490.124	11098.8
490.328	11358.89
490.531	11158.19
490.735	11289.26
490.939	11516.58
491.143	11240.11
491.346	11299.5
491.55	11502.25
491.754	11483.81
491.958	11641.51
492.161	11547.3
492.365	11621.03
492.569	11704.99
492.772	11518.63
492.976	11909.79
493.18	11772.58
493.383	11897.5
493.587	11874.98
493.79	12137.12
493.994	12071.58
494.197	12075.68
494.401	11973.28
494.605	12300.95
494.808	12538.52
495.012	12614.29
495.215	12526.23
495.419	12714.64
495.622	12563.09
495.825	13001.36
496.029	12765.84
496.232	13089.42
496.436	12952.21
496.639	13245.07
496.843	13363.85
497.046	13683.33
497.249	13681.28
497.453	13863.55
497.656	13929.09
497.859	13996.67
498.063	14109.31
498.266	14365.31
498.469	14199.42
498.673	14664.31
498.876	14729.84
499.079	14946.93
499.282	14879.35
499.485	15065.71
499.689	15297.13
499.892	15393.39
500.095	15467.11
500.298	15676.01
500.501	15893.09
500.705	16317.02
500.908	16370.27
501.111	16527.96
501.314	16527.96
501.517	16917.08
501.72	17420.88
501.923	17113.68
502.126	17523.27
502.329	17341
502.532	17566.28
502.735	17947.2
502.938	18182.72
503.141	18113.09
503.344	18559.55
503.547	18602.55
503.75	18969.14
503.953	18997.81
504.156	19253.81
504.359	19393.07
504.562	19272.24
504.765	19782.18
504.968	19735.08
505.17	20021.8
505.373	20193.83
505.576	20732.44
505.779	20738.58
505.982	20818.46
506.185	21377.55
506.387	21506.57
506.59	21606.92
506.793	22018.57
506.996	21758.47
507.198	22391.3
507.401	22538.75
507.604	23024.12
507.807	23085.56
508.009	23007.73
508.212	23523.82
508.415	23579.12
508.617	24056.29
508.82	23968.23
509.022	24164.84
509.225	24816.09
509.428	24891.87
509.63	25278.93
509.833	24945.11
510.035	25993.67
510.238	25608.65
510.44	25741.77
510.643	26311.11
510.845	26526.14
511.048	26589.63
511.25	26528.19
511.453	26800.57
511.655	28215.72
511.858	27451.83
512.06	27890.09
512.262	28254.63
512.465	28211.62
512.667	28672.42
512.87	28961.18
513.072	28934.56
513.274	29485.46
513.477	29714.83
513.679	29790.61
513.881	30204.3
514.084	30677.38
514.286	30200.2
514.488	30548.36
514.69	31379.83
514.893	31711.6
515.095	31707.51
515.297	32018.8
515.499	32342.38
515.701	32921.95
515.904	33022.3
516.106	33032.54
516.308	33038.69
516.51	33605.97
516.712	33612.12
516.914	34328.91
517.116	34715.97
517.318	34666.82
517.52	35002.69
517.722	35199.29
517.925	35318.07
518.127	36073.77
518.329	35969.33
518.531	35920.18
518.733	36540.71
518.935	36954.4
519.136	36974.88
519.338	37245.21
519.54	37738.77
519.742	37679.38
519.944	38390.03
520.146	38729.99
520.348	38533.39
520.55	39119.1
520.752	38779.14
520.954	39670.01
521.155	39442.68
521.357	40245.49
521.559	40468.72
521.761	41064.67
521.963	40913.13
522.164	41017.57
522.366	41066.72
522.568	41728.22
522.77	41509.08
522.971	42678.47
523.173	42066.13
523.375	42105.04
523.576	42277.07
523.778	42578.12
523.98	43157.7
524.181	42905.8
524.383	43387.07
524.584	43882.68
524.786	43811
524.988	43735.23
525.189	44511.41
525.391	44470.45
525.592	44595.37
525.794	44810.41
525.995	44742.83
526.197	45054.12
526.398	45383.84
526.6	45688.99
526.801	45197.48
527.003	45914.26
527.204	45756.57
527.406	46518.42
527.607	46026.9
527.808	46405.78
528.01	45791.39
528.211	46198.93
528.412	46850.19
528.614	46817.42
528.815	47272.07
529.016	47337.6
529.218	46590.09
529.419	47007.88
529.62	46921.87
529.822	46973.06
530.023	46745.74
530.224	47284.36
530.425	46911.63
530.626	47237.25
530.828	46839.95
531.029	47947.9
531.23	47648.89
531.431	47423.62
531.632	47599.74
531.833	48126.07
532.035	47915.13
532.236	47919.23
532.437	48042.1
532.638	47794.3
532.839	48271.48
533.04	48402.55
533.241	47614.08
533.442	48625.78
533.643	48021.62
533.844	48107.64
534.045	48230.52
534.246	47581.31
534.447	48351.35
534.648	47951.99
534.849	48287.86
535.05	48095.35
535.251	48191.61
535.451	48334.96
535.652	48380.02
535.853	47796.35
536.054	48437.36
536.255	48427.12
536.456	47302.79
536.657	48578.67
536.857	48369.78
537.058	48236.66
537.259	48275.57
537.46	48470.13
537.66	47964.28
537.861	48298.1
538.062	47900.79
538.263	48328.82
538.463	48400.5
538.664	47995
538.865	47937.66
539.065	48429.17
539.266	48099.45
539.466	48509.04
539.667	47904.89
539.868	48275.57
540.068	48130.17
540.269	47716.48
540.469	48341.11
540.67	47974.52
540.87	48124.02
541.071	48257.14
541.271	48427.12
541.472	48099.45
541.672	48066.68
541.873	47927.42
542.073	47790.2
542.274	48273.52
542.474	48173.17
542.675	47435.91
542.875	48445.55
543.075	47665.28
543.276	47687.81
543.476	48095.35
543.676	47794.3
543.877	48156.79
544.077	47677.57
544.277	47675.52
544.478	47761.53
544.678	47999.1
544.878	47933.56
545.078	48105.59
545.279	47894.65
545.479	47896.7
545.679	47863.93
545.879	47796.35
546.079	47872.12
546.28	47782.01
546.48	47181.96
546.68	47868.03
546.88	47526.02
547.08	47900.79
547.28	47446.15
547.48	47233.16
547.68	47728.77
547.88	47028.36
548.081	48181.37
548.281	47566.98
548.481	47196.29
548.681	48169.08
548.881	47667.33
549.081	47511.68
549.28	47147.14
549.48	47659.13
549.68	47597.7
549.88	48439.41
550.08	47257.73
550.28	47368.32
550.48	47470.72
550.68	47487.1
550.88	47048.84
551.08	47294.6
551.279	47415.43
551.479	47198.34
551.679	47581.31
551.879	47431.81
552.079	47554.69
552.278	46880.91
552.478	47274.12
552.678	47263.88
552.878	47607.93
553.077	46938.25
553.277	46739.6
553.477	47831.16
553.676	46731.4
553.876	46641.29
554.076	47081.61
554.275	46629.01
554.475	46502.03
554.674	46968.97
554.874	47274.12
555.074	47016.07
555.273	47368.32
555.473	47233.16
555.672	46557.33
555.872	46633.1
556.071	46594.19
556.271	47032.46
556.47	46418.07
556.67	46436.5
556.869	46321.81
557.068	46831.75
557.268	46575.76
557.467	46266.52
557.667	46413.97
557.866	46635.15
558.065	46217.36
558.265	46452.88
558.464	46194.84
558.663	46370.96
558.863	45852.83
559.062	46481.55
559.261	45758.62
559.461	46723.21
559.66	45615.26
559.859	45881.5
560.058	45568.16
560.258	46213.27
560.457	45220
560.656	46151.83
560.855	45672.6
561.054	45897.88
561.253	45355.17
561.453	45869.21
561.652	45265.06
561.851	45705.37
562.05	45428.9
562.249	44832.94
562.448	45056.17
562.647	45428.9
562.846	45160.61
563.045	45015.21
563.244	45084.84
563.443	45344.93
563.642	44390.58
563.841	44798.12
564.04	44660.91
564.239	45277.35
564.438	44673.2
564.637	44443.82
564.836	45041.83
565.035	44499.12
565.234	44599.47
565.432	44355.76
565.631	44660.91
565.83	44464.3
566.029	43991.22
566.228	44224.69
566.427	44275.89
566.625	43899.06
566.824	43507.9
567.023	43976.89
567.222	43299.01
567.42	43966.65
567.619	43622.59
567.818	43268.29
568.016	43782.33
568.215	43759.8
568.414	43192.51
568.612	43585.72
568.811	43155.65
569.01	43460.8
569.208	42793.16
569.407	43268.29
569.605	42537.16
569.804	43077.83
570.002	42762.44
570.201	42969.29
570.4	41908.44
570.598	42598.6
570.797	42244.3
570.995	42651.85
571.193	41933.01
571.392	42795.21
571.59	41990.36
571.789	42184.91
571.987	41744.6
572.186	42068.18
572.384	41400.54
572.582	42025.17
572.781	41859.29
572.979	41242.85
573.177	42090.71
573.376	41789.66
573.574	40964.32
573.772	41212.13
573.971	41201.89
574.169	40761.58
574.367	40732.9
574.565	40763.62
574.763	40755.43
574.962	40966.37
575.16	40622.31
575.358	40499.44
575.556	39975.16
575.754	40833.25
575.952	40286.45
576.151	40460.52
576.349	39887.09
576.547	39747.83
576.745	40157.42
576.943	39839.99
577.141	40038.64
577.339	40061.17
577.537	39803.13
577.735	39520.51
577.933	39366.91
578.131	39483.64
578.329	39360.76
578.527	38918.4
578.725	38924.55
578.923	38793.48
579.121	38867.2
579.319	39000.32
579.516	38777.09
579.714	38707.46
579.912	38705.41
580.11	38596.87
580.308	38324.49
580.506	38129.94
580.704	37929.23
580.901	38017.3
581.099	38246.67
581.297	37900.56
581.495	37972.24
581.692	38236.43
581.89	37468.44
582.088	37953.81
582.285	37566.74
582.483	37785.88
582.681	37409.05
582.878	37064.99
583.076	36954.4
583.274	37378.33
583.471	36798.76
583.669	36952.35
583.866	36933.92
584.064	36944.16
584.262	36370.73
584.459	36862.24
584.657	36200.75
584.854	36671.78
585.052	35850.55
585.249	36354.35
585.447	36305.2
585.644	35672.37
585.841	36047.15
586.039	36145.45
586.236	35655.99
586.434	35494.2
586.631	35690.8
586.828	35717.43
587.026	35440.95
587.223	35737.91
587.42	34928.96
587.618	35107.13
587.815	35131.71
588.012	34740.55
588.21	34849.09
588.407	35002.69
588.604	34677.06
588.801	34079.05
588.999	34566.47
589.196	34814.27
589.393	34216.27
589.59	34462.02
589.787	33970.51
589.984	33950.03
590.182	33694.04
590.379	33837.39
590.576	33855.82
590.773	33495.38
590.97	33659.22
591.167	33591.64
591.364	33157.47
591.561	33626.45
591.758	33108.32
591.955	32991.58
592.152	33223
592.349	33044.83
592.546	33040.73
592.743	32698.72
592.94	32495.97
593.137	32862.56
593.334	32944.48
593.531	32432.49
593.727	32639.33
593.924	32553.32
594.121	31834.48
594.318	32508.26
594.515	31842.67
594.712	31867.25
594.908	31869.3
595.105	31699.31
595.302	31537.52
595.499	31463.8
595.696	31529.33
595.892	31218.04
596.089	31705.46
596.286	31377.78
596.482	31363.45
596.679	31029.63
596.876	31091.07
597.072	31005.05
597.269	31160.7
597.466	30736.77
597.662	30898.56
597.859	30824.83
598.055	30742.91
598.252	30460.29
598.448	30243.21
598.645	30091.66
598.841	30024.08
599.038	30161.29
599.234	30114.19
599.431	29827.47
599.627	29720.98
599.824	30181.77
600.02	29421.97
600.217	29276.57
600.413	29831.57
600.609	29751.7
600.806	29280.66
601.002	29225.37
601.198	29251.99
601.395	29055.39
601.591	29069.72
601.787	28930.46
601.984	28887.45
602.18	28946.84
602.376	28639.65
602.572	28600.74
602.769	28762.53
602.965	28180.9
603.161	28541.35
603.357	28377.51
603.553	28004.78
603.75	28004.78
603.946	27984.3
604.142	28193.19
604.338	27677.1
604.534	28037.55
604.73	27799.98
604.926	27707.82
605.122	27666.86
605.318	27425.2
605.514	27419.06
605.71	26986.94
605.906	26937.79
606.102	26952.12
606.298	27054.52
606.494	27210.17
606.69	27222.45
606.886	26986.94
607.082	26843.58
607.278	27128.25
607.474	26810.81
607.67	26681.79
607.866	26251.72
608.062	26943.93
608.257	26495.43
608.453	26542.53
608.649	26694.08
608.845	26245.57
609.041	26085.83
609.236	26315.2
609.432	26008.01
609.628	26169.8
609.824	25969.1
610.019	25799.12
610.215	25850.31
610.411	26089.93
610.606	25866.7
610.802	25659.85
610.998	25807.31
611.193	25797.07
611.389	25565.65
611.584	25735.63
611.78	25518.54
611.976	25549.26
612.171	25534.93
612.367	25338.32
612.562	25313.75
612.758	25188.82
612.953	25229.78
613.149	25080.28
613.344	25061.85
613.539	25416.15
613.735	25059.8
613.93	24988.12
614.126	25160.15
614.321	25268.69
614.517	25031.13
614.712	24836.57
614.907	25102.81
615.103	24883.67
615.298	24410.59
615.493	24842.71
615.688	24277.47
615.884	24922.59
616.079	24463.84
616.274	24574.43
616.47	24084.97
616.665	24377.83
616.86	24515.04
617.055	24289.76
617.25	24281.57
617.445	24404.45
617.641	24199.65
617.836	24269.28
618.031	23740.91
618.226	24191.46
618.421	23808.49
618.616	23957.99
618.811	23652.84
619.006	23859.69
619.201	23194.1
619.396	23611.89
619.591	23042.55
619.786	23429.62
619.981	23079.41
620.176	23378.42
620.371	22821.37
620.566	23228.91
620.761	22774.27
620.956	22974.97
621.151	22460.93
621.346	22610.43
621.541	22276.61
621.735	22573.56
621.93	22188.55
622.125	22153.73
622.32	21867.02
622.515	22252.03
622.709	22006.28
622.904	21807.62
623.099	21750.28
623.294	21627.4
623.488	21275.15
623.683	21373.46
623.878	21350.93
624.072	21223.95
624.267	21209.62
624.462	21010.96
624.656	20636.19
624.851	20832.79
625.046	20554.27
625.24	20562.46
625.435	20034.08
625.629	20249.12
625.824	20073
626.018	19808.81
626.213	19827.24
626.407	19687.98
626.602	19515.95
626.796	19825.19
626.991	19515.95
627.185	19474.99
627.38	19161.65
627.574	19268.14
627.768	19184.18
627.963	18958.9
628.157	18711.1
628.352	18938.42
628.546	18244.16
628.74	18862.65
628.935	18514.49
629.129	18551.35
629.323	18080.32
629.517	17988.16
629.712	18250.3
629.906	18072.13
630.1	17863.24
630.294	17717.83
630.489	17633.86
630.683	17766.98
630.877	17214.03
631.071	17422.92
631.265	17234.51
631.459	17263.18
631.653	17050.19
631.848	17218.13
632.042	17138.26
632.236	17134.16
632.43	16847.44
632.624	17103.44
632.818	16835.16
633.012	16452.19
633.206	16345.69
633.4	16581.21
633.594	16194.14
633.788	16441.95
633.982	16374.36
634.176	16175.71
634.369	15833.7
634.563	15921.76
634.757	15868.52
634.951	15704.68
635.145	15854.18
635.339	15774.31
635.533	15526.5
635.726	15524.46
635.92	15323.76
636.114	15483.5
636.308	15315.56
636.501	15307.37
636.695	15135.34
636.889	15073.9
637.083	15116.91
637.276	14875.25
637.47	14836.34
637.664	14566.01
637.857	14582.39
638.051	14721.65
638.244	14432.89
638.438	14488.18
638.632	14412.41
638.825	14174.85
639.019	14150.27
639.212	14160.51
639.406	14090.88
639.599	14105.21
639.793	13996.67
639.986	13609.61
640.18	13625.99
640.373	13804.16
640.567	13599.37
640.76	13636.23
640.954	13648.52
641.147	13378.19
641.34	13349.51
641.534	13413
641.727	13056.65
641.92	13116.05
642.114	12931.73
642.307	12831.38
642.5	12894.86
642.694	12651.16
642.887	12872.34
643.08	12761.75
643.273	12544.66
643.467	12378.78
643.66	12575.38
643.853	12268.19
644.046	12343.96
644.239	12165.79
644.432	12337.82
644.626	12165.79
644.819	12108.44
645.012	11973.28
645.205	12001.95
645.398	11915.94
645.591	11715.23
645.784	11969.18
645.977	11743.91
646.17	11588.26
646.363	11752.1
646.556	11674.28
646.749	11422.38
646.942	11702.95
647.135	11596.45
647.328	11403.94
647.521	11309.74
647.714	11014.83
647.907	11078.32
648.099	11258.54
648.292	11274.92
648.485	10926.77
648.678	10922.67
648.871	10980.01
649.064	10767.03
649.256	10832.56
649.449	10838.7
649.642	10601.14
649.835	10652.34
650.027	10545.84
650.22	10500.79
650.413	10324.66
650.605	10433.21
650.798	10431.16
650.991	10361.53
651.183	10285.75
651.376	10062.52
651.568	10222.27
651.761	10068.67
651.954	10003.13
652.146	9849.54
652.339	9982.65
652.531	9923.26
652.724	9816.77
652.916	9740.99
653.109	9646.79
653.301	9599.68
653.494	9745.09
653.686	9501.38
653.879	9552.58
654.071	9585.35
654.263	9362.12
654.456	9300.68
654.648	9376.45
654.84	9183.95
655.033	9308.87
655.225	9185.99
655.417	9265.86
655.61	8825.55
655.802	9067.21
655.994	8999.63
656.186	8901.33
656.379	8880.85
656.571	8755.92
656.763	8743.63
656.955	8768.21
657.148	8766.16
657.34	8880.85
657.532	8585.94
657.724	8514.26
657.916	8725.2
658.108	8540.88
658.3	8268.5
658.492	8618.71
658.684	8254.17
658.876	8180.44
659.068	8149.72
659.26	8159.96
659.452	8321.75
659.644	8315.61
659.836	7863.01
660.028	8205.02
660.22	7963.36
660.412	8004.32
660.604	7957.21
660.796	7875.29
660.988	7877.34
661.18	7664.35
661.372	7836.38
661.563	7811.81
661.755	7709.41
661.947	7627.49
662.139	7555.81
662.331	7578.34
662.522	7391.97
662.714	7566.05
662.906	7447.27
663.097	7580.39
663.289	7586.53
663.481	7291.62
663.673	7201.51
663.864	7328.49
664.056	7172.84
664.247	7238.37
664.439	7009
664.631	7097.07
664.822	7015.15
665.014	7041.77
665.205	6996.71
665.397	7031.53
665.588	6871.79
665.78	7054.06
665.971	6828.78
666.163	6802.16
666.354	6824.69
666.546	6710
666.737	6679.28
666.929	6734.57
667.12	6615.79
667.311	6732.53
667.503	6511.35
667.694	6490.87
667.885	6361.84
668.077	6595.31
668.268	6380.28
668.459	6562.55
668.651	6404.85
668.842	6296.31
669.033	6142.71
669.224	6259.45
669.416	6230.77
669.607	6275.83
669.798	6134.52
669.989	6300.41
670.18	6187.77
670.371	6277.88
670.563	6068.98
670.754	6126.33
670.945	5876.48
671.136	5933.82
671.327	6015.74
671.518	6021.88
671.709	5985.02
671.9	6079.22
672.091	5919.48
672.282	5810.94
672.473	5778.17
672.664	5833.47
672.855	5769.98
673.046	5575.42
673.237	5929.72
673.428	5870.33
673.619	5659.39
673.809	5593.86
674	5597.95
674.191	5673.73
674.382	5499.65
674.573	5479.17
674.764	5511.94
674.954	5597.95
675.145	5376.77
675.336	5454.59
675.527	5507.84
675.717	5450.5
675.908	5333.76
676.099	5483.27
676.289	5358.34
676.48	5333.76
676.671	5317.38
676.861	5233.41
677.052	5305.09
677.243	5288.71
677.433	5366.53
677.624	5102.34
677.814	5202.69
678.005	5167.88
678.195	5153.54
678.386	5040.9
678.576	5151.49
678.767	4936.46
678.957	4948.75
679.148	5042.95
679.338	5012.23
679.529	4946.7
679.719	4899.59
679.909	4864.78
680.1	4991.75
680.29	4899.59
680.481	4694.8
680.671	4858.64
680.861	4819.72
681.052	4965.13
681.242	4862.73
681.432	4858.64
681.622	4805.39
681.813	4762.38
682.003	4887.31
682.193	4711.18
682.383	4756.24
682.573	4727.57
682.764	4645.65
682.954	4688.65
683.144	4653.84
683.334	4666.13
683.524	4578.06
683.714	4573.97
683.904	4530.96
684.094	4598.54
684.284	4629.26
684.474	4655.89
684.664	4483.86
684.854	4651.79
685.044	4498.19
685.234	4449.04
685.424	4582.16
685.614	4383.51
685.804	4465.43
685.994	4360.98
686.184	4418.32
686.374	4391.7
686.564	4299.54
686.753	4236.05
686.943	4236.05
687.133	4395.79
687.323	4268.82
687.513	4465.43
687.702	4201.24
687.892	4162.33
688.082	4240.15
688.272	4104.98
688.461	4061.98
688.651	4135.7
688.841	3986.2
689.03	4070.17
689.22	4076.31
689.41	3887.9
689.599	4041.5
689.789	3975.96
689.979	3920.67
690.168	3904.28
690.358	3861.27
690.547	4014.87
690.737	3984.15
690.926	3906.33
691.116	3851.03
691.305	3937.05
691.495	3709.72
691.684	3734.3
691.874	3752.73
692.063	3830.55
692.252	3848.99
692.442	3816.22
692.631	3732.25
692.82	3728.16
693.01	3617.57
693.199	3607.33
693.388	3699.48
693.578	3650.33
693.767	3638.05
693.956	3722.01
694.146	3609.37
694.335	3597.09
694.524	3687.2
694.713	3623.71
694.902	3539.74
695.092	3570.46
695.281	3672.86
695.47	3580.7
695.659	3474.21
695.848	3441.44
696.037	3377.95
696.226	3463.97
696.415	3423.01
696.604	3511.07
696.793	3478.3
696.982	3361.57
697.171	3404.58
697.36	3490.59
697.549	3441.44
697.738	3384.1
697.927	3261.22
698.116	3463.97
698.305	3474.21
698.494	3293.99
698.683	3263.27
698.872	3380
699.061	3382.05
699.25	3265.32
699.438	3236.64
699.627	3285.8
699.816	3371.81
700.005	3222.31
700.193	3357.47
700.382	3320.61
700.571	3171.11
700.76	3306.27
700.948	3187.49
701.137	3148.58
701.326	3263.27
701.514	3154.73
701.703	3259.17
701.892	3273.51
702.08	3263.27
702.269	3050.28
702.457	3263.27
702.646	3107.62
702.834	3083.05
703.023	3044.13
703.212	2986.79
703.4	3128.1
703.589	3046.18
703.777	2990.89
703.965	3056.42
704.154	3048.23
704.342	2964.26
704.531	2900.78
704.719	2992.94
704.907	2990.89
705.096	2892.59
705.284	2999.08
705.472	2923.3
705.661	2908.97
705.849	3066.66
706.037	2911.02
706.226	2978.6
706.414	3107.62
706.602	2939.69
706.79	3058.47
706.979	3056.42
707.167	2861.87
707.355	2986.79
707.543	2982.7
707.731	2769.71
707.919	2976.55
708.107	2933.54
708.296	3023.66
708.484	2804.52
708.672	2906.92
708.86	2960.17
709.048	2865.96
709.236	2835.24
709.424	2935.59
709.612	2853.67
709.8	2822.95
709.988	2728.75
710.176	2857.77
710.364	2825
710.551	2888.49
710.739	2849.58
710.927	2708.27
711.115	2695.98
711.303	2851.63
711.491	2784.04
711.679	2880.3
711.866	2755.37
712.054	2820.91
712.242	2773.8
712.43	2865.96
712.617	2792.23
712.805	2831.15
712.993	2753.32
713.181	2644.78
713.368	2777.9
713.556	2747.18
713.744	2738.99
713.931	2724.65
714.119	2605.87
714.306	2558.77
714.494	2802.47
714.682	2589.49
714.869	2616.11
715.057	2646.83
715.244	2515.76
715.432	2687.79
715.619	2622.25
715.807	2698.03
715.994	2673.45
716.182	2536.24
716.369	2589.49
716.556	2607.92
716.744	2618.16
716.931	2573.1
717.119	2603.82
717.306	2581.29
717.493	2609.97
717.681	2519.85
717.868	2482.99
718.055	2409.26
718.242	2644.78
718.43	2640.69
718.617	2585.39
718.804	2577.2
718.991	2589.49
719.179	2480.94
719.366	2392.88
719.553	2431.79
719.74	2548.53
719.927	2575.15
720.114	2415.41
720.301	2499.38
720.488	2493.23
720.676	2413.36
720.863	2380.59
721.05	2501.42
721.237	2417.46
721.424	2544.43
721.611	2534.19
721.798	2368.31
721.985	2548.53
722.172	2396.98
722.358	2431.79
722.545	2409.26
722.732	2454.32
722.919	2462.51
723.106	2270
723.293	2368.31
723.48	2351.92
723.667	2419.5
723.853	2310.96
724.04	2409.26
724.227	2347.83
724.414	2392.88
724.6	2423.6
724.787	2362.16
724.974	2417.46
725.161	2372.4
725.347	2376.5
725.534	2347.83
725.72	2294.58
725.907	2419.5
726.094	2280.24
726.28	2229.04
726.467	2261.81
726.653	2343.73
726.84	2433.84
727.027	2460.46
727.213	2237.24
727.4	2319.15
727.586	2257.71
727.773	2163.51
727.959	2163.51
728.145	2251.57
728.332	2280.24
728.518	2253.62
728.705	2138.93
728.891	2282.29
729.077	2302.77
729.264	2214.71
729.45	2143.03
729.636	2212.66
729.823	2245.43
730.009	2200.37
730.195	2362.16
730.382	2169.65
730.568	2222.9
730.754	2147.12
730.94	2212.66
731.126	2116.41
731.313	2272.05
731.499	2190.13
731.685	2163.51
731.871	2290.48
732.057	2179.89
732.243	2249.52
732.429	2136.88
732.615	2222.9
732.801	2097.97
732.987	2179.89
733.173	2159.41
733.359	2204.47
733.545	2167.6
733.731	2089.78
733.917	2216.76
734.103	2114.36
734.289	2073.4
734.475	2046.77
734.661	2292.53
734.847	2108.21
735.033	2208.56
735.219	2061.11
735.404	2024.25
735.59	2167.6
735.776	2159.41
735.962	2073.4
736.148	2163.51
736.333	2040.63
736.519	2149.17
736.705	2057.01
736.89	2024.25
737.076	2057.01
737.262	2075.45
737.447	2102.07
737.633	2050.87
737.819	1991.48
738.004	1950.52
738.19	2050.87
738.375	2034.49
738.561	2149.17
738.747	1934.14
738.932	1944.38
739.118	1907.51
739.303	2018.1
739.489	2001.72
739.674	1827.64
739.859	1839.93
740.045	1846.07
740.23	1938.23
740.416	1971
740.601	1962.81
740.786	1893.18
740.972	1852.22
741.157	1821.5
741.342	1899.32
741.528	1940.28
741.713	1960.76
741.898	1846.07
742.084	1848.12
742.269	1794.87
742.454	1868.6
742.639	1946.42
742.824	1780.54
743.01	1895.22
743.195	1854.27
743.38	1708.86
743.565	1848.12
743.75	1741.63
743.935	1749.82
744.12	1844.03
744.305	1760.06
744.49	1753.91
744.675	1786.68
744.86	1706.81
745.045	1745.72
745.23	1696.57
745.415	1729.34
745.6	1715
745.785	1719.1
745.97	1706.81
746.155	1696.57
746.34	1788.73
746.525	1600.32
746.71	1641.28
746.895	1598.27
747.079	1588.03
747.264	1561.41
747.449	1534.78
747.634	1688.38
747.819	1526.59
748.003	1581.89
748.188	1569.6
748.373	1489.73
748.557	1547.07
748.742	1540.93
748.927	1428.29
749.111	1551.17
749.296	1559.36
749.481	1532.73
749.665	1485.63
749.85	1405.76
750.034	1532.73
750.219	1557.31
750.404	1502.01
750.588	1465.15
750.773	1534.78
750.957	1397.57
751.141	1442.62
751.326	1418.05
751.51	1311.55
751.695	1401.66
751.879	1446.72
752.064	1463.1
752.248	1356.61
752.432	1352.51
752.617	1340.22
752.801	1377.09
752.985	1235.78
753.17	1360.7
753.354	1274.69
753.538	1344.32
753.722	1282.88
753.907	1368.9
754.091	1231.68
754.275	1311.55
754.459	1233.73
754.643	1237.83
754.828	1286.98
755.012	1221.44
755.196	1198.92
755.38	1178.44
755.564	1252.16
755.748	1207.11
755.932	1149.76
756.116	1188.68
756.3	1108.8
756.484	1092.42
756.668	1176.39
756.852	1196.87
757.036	1157.96
757.22	1090.37
757.404	1067.85
757.588	1114.95
757.772	1110.85
757.956	1131.33
758.14	1053.51
758.323	1090.37
758.507	1117
758.691	1067.85
758.875	1135.43
759.059	1104.71
759.242	1033.03
759.426	969.54
759.61	1024.84
759.794	1024.84
759.977	944.97
760.161	1151.81
760.345	1102.66
760.528	1010.5
760.712	1016.65
760.895	1012.55
761.079	975.69
761.263	1012.55
761.446	1000.26
761.63	1026.89
761.813	961.35
761.997	977.73
762.18	955.21
762.364	977.73
762.547	918.34
762.731	938.82
762.914	951.11
763.098	928.58
763.281	877.38
763.464	1041.22
763.648	906.06
763.831	926.54
764.015	895.82
764.198	830.28
764.381	846.66
764.564	975.69
764.748	918.34
764.931	922.44
765.114	877.38
765.297	940.87
765.481	764.75
765.664	865.1
765.847	895.82
766.03	869.19
766.213	836.42
766.397	861
766.58	840.52
766.763	910.15
766.946	844.62
767.129	787.27
767.312	856.9
767.495	897.86
767.678	850.76
767.861	803.66
768.044	830.28
768.227	889.67
768.41	885.58
768.593	813.9
768.776	828.23
768.959	805.71
769.142	822.09
769.324	789.32
769.507	934.73
769.69	869.19
769.873	674.64
770.056	910.15
770.239	781.13
770.421	885.58
770.604	795.47
770.787	813.9
770.97	770.89
771.152	731.98
771.335	750.41
771.518	738.12
771.7	789.32
771.883	803.66
772.066	807.75
772.248	740.17
772.431	736.07
772.613	791.37
772.796	711.5
772.978	717.64
773.161	701.26
773.343	783.18
773.526	631.63
773.708	648.01
773.891	682.83
774.073	682.83
774.256	760.65
774.438	703.31
774.621	670.54
774.803	699.21
774.985	641.87
775.168	686.92
775.35	568.14
775.532	656.2
775.715	652.11
775.897	738.12
776.079	633.68
776.261	713.55
776.444	590.67
776.626	723.79
776.808	623.44
776.99	617.29
777.173	619.34
777.355	598.86
777.537	600.91
777.719	553.8
777.901	582.48
778.083	609.1
778.265	602.96
778.447	625.48
778.629	557.9
778.811	594.76
778.993	643.92
779.175	498.51
779.357	619.34
779.539	600.91
779.721	553.8
779.903	529.23
780.085	559.95
780.267	559.95
780.449	615.24
780.631	527.18
780.812	562
780.994	475.98
781.176	475.98
781.358	549.71
781.54	492.37
781.721	590.67
781.903	506.7
782.085	410.45
782.267	539.47
782.448	480.08
782.63	445.26
782.812	492.37
782.993	518.99
783.175	461.65
783.357	451.41
783.538	478.03
783.72	500.56
783.901	455.5
784.083	492.37
784.264	549.71
784.446	478.03
784.627	465.74
784.809	557.9
784.99	437.07
785.172	492.37
785.353	371.54
785.535	453.45
785.716	414.54
785.897	435.02
786.079	432.97
786.26	443.21
786.441	412.5
786.623	426.83
786.804	375.63
786.985	453.45
787.167	426.83
787.348	422.73
787.529	422.73
787.71	478.03
787.891	461.65
788.073	353.1
788.254	338.77
788.435	394.06
788.616	346.96
788.797	467.79
788.978	318.29
789.159	303.95
789.34	359.25
789.522	430.93
789.703	351.06
789.884	336.72
790.065	385.87
790.246	344.91
790.427	330.58
790.607	369.49
790.788	303.95
790.969	381.78
791.15	353.1
791.331	361.3
791.512	310.1
791.693	363.34
791.874	318.29
792.054	287.57
792.235	385.87
792.416	320.34
792.597	387.92
792.778	328.53
792.958	353.1
793.139	301.9
793.32	320.34
793.5	271.19
793.681	291.66
793.862	308.05
794.042	344.91
794.223	281.43
794.404	295.76
794.584	256.85
794.765	279.38
794.945	222.03
795.126	340.82
795.306	328.53
795.487	312.14
795.667	310.1
795.848	267.09
796.028	252.75
796.209	371.54
796.389	283.47
796.57	318.29
796.75	209.75
796.93	273.23
797.111	269.14
797.291	254.8
797.471	181.07
797.652	277.33
797.832	238.42
798.012	254.8
798.192	244.56
798.373	260.95
798.553	230.23
798.733	256.85
798.913	295.76
799.093	166.74
799.274	166.74
799.454	234.32
799.634	246.61
799.814	279.38
799.994	213.84
800.174	271.19
800.354	187.22
800.534	201.55
800.714	260.95
800.894	256.85
801.074	209.75
801.254	230.23
801.434	250.71
801.614	236.37
801.794	152.4
801.974	777.03
802.154	181.07
802.334	248.66
802.514	164.69
802.693	232.27
802.873	281.43
803.053	222.03
803.233	230.23
803.413	189.27
803.592	215.89
803.772	238.42
803.952	148.31
804.131	115.54
804.311	217.94
804.491	234.32
804.67	191.31
804.85	295.76
805.03	172.88
805.209	224.08
805.389	158.55
805.568	207.7
805.748	199.51
805.928	174.93
806.107	240.47
806.287	207.7
806.466	211.79
806.646	201.55
806.825	238.42
807.004	205.65
807.184	156.5
807.363	185.17
807.543	142.16
807.722	144.21
807.901	262.99
808.081	127.83
808.26	185.17
808.439	197.46
808.619	127.83
808.798	138.07
808.977	213.84
809.156	152.4
809.336	191.31
809.515	238.42
809.694	144.21
809.873	191.31
810.052	158.55
810.231	224.08
810.411	140.12
810.59	187.22
810.769	144.21
810.948	181.07
811.127	90.96
811.306	172.88
811.485	78.68
811.664	162.64
811.843	164.69
812.022	160.59
812.201	136.02
812.38	230.23
812.559	228.18
812.737	189.27
812.916	138.07
813.095	125.78
813.274	90.96
813.453	187.22
813.632	148.31
813.811	224.08
813.989	90.96
814.168	86.87
814.347	144.21
814.526	107.35
814.704	140.12
814.883	213.84
815.062	140.12
815.24	123.73
815.419	160.59
815.598	152.4
815.776	164.69
815.955	129.88
816.133	66.39
816.312	117.59
816.49	76.63
816.669	181.07
816.847	172.88
817.026	140.12
817.204	115.54
817.383	195.41
817.561	174.93
817.74	158.55
817.918	150.36
818.097	125.78
818.275	131.92
818.453	90.96
818.632	74.58
818.81	152.4
818.988	70.48
819.167	219.99
819.345	86.87
819.523	152.4
819.701	54.1
819.879	136.02
820.058	160.59
820.236	158.55
820.414	111.44
820.592	123.73
820.77	109.4
820.948	131.92
821.127	144.21
821.305	54.1
821.483	152.4
821.661	115.54
821.839	119.64
822.017	156.5
822.195	86.87
822.373	93.01
822.551	82.77
822.729	86.87
822.907	95.06
823.085	189.27
823.262	105.3
823.44	107.35
823.618	82.77
823.796	103.25
823.974	148.31
824.152	72.53
824.329	103.25
824.507	189.27
824.685	74.58
824.863	86.87
825.04	82.77
825.218	93.01
825.396	107.35
825.574	119.64
825.751	111.44
825.929	58.2
826.107	17.24
826.284	131.92
826.462	76.63
826.639	66.39
826.817	82.77
826.994	115.54
827.172	41.81
827.349	164.69
827.527	125.78
827.704	101.2
827.882	62.29
828.059	90.96
828.237	58.2
828.414	54.1
828.591	127.83
828.769	101.2
828.946	54.1
829.124	70.48
829.301	131.92
829.478	127.83
829.655	113.49
829.833	82.77
830.01	47.96
830.187	164.69
830.364	29.52
830.542	123.73
830.719	74.58
830.896	90.96
831.073	82.77
831.25	107.35
831.427	84.82
831.604	111.44
831.782	136.02
831.959	-15.53
832.136	29.52
832.313	41.81
832.49	121.68
832.667	60.24
832.844	111.44
833.021	33.62
833.198	107.35
833.374	99.16
833.551	60.24
833.728	119.64
833.905	56.15
834.082	17.24
834.259	103.25
834.436	62.29
834.612	15.19
834.789	66.39
834.966	11.09
835.143	97.11
835.319	54.1
835.496	64.34
835.673	-11.43
835.85	70.48
836.026	58.2
836.203	119.64
836.38	-31.91
836.556	95.06
836.733	45.91
836.909	60.24
837.086	117.59
837.262	113.49
837.439	74.58
837.616	60.24
837.792	50
837.968	60.24
838.145	50
838.321	64.34
838.498	25.43
838.674	66.39
838.851	80.72
839.027	58.2
839.203	80.72
839.38	60.24
839.556	33.62
839.732	84.82
839.909	74.58
840.085	56.15
840.261	41.81
840.437	52.05
840.614	33.62
840.79	23.38
840.966	7
841.142	58.2
841.318	74.58
841.494	74.58
841.671	101.2
841.847	9.05
842.023	-11.43
842.199	82.77
842.375	-19.63
842.551	13.14
842.727	111.44
842.903	111.44
843.079	41.81
843.255	47.96
843.431	33.62
843.607	76.63
843.783	90.96
843.959	68.44
844.134	33.62
844.31	115.54
844.486	54.1
844.662	54.1
844.838	58.2
845.013	115.54
845.189	13.14
845.365	11.09
845.541	70.48
845.716	74.58
845.892	115.54
846.068	113.49
846.244	39.76
846.419	90.96
846.595	2.9
846.77	-72.87
846.946	78.68
847.122	82.77
847.297	4.95
847.473	129.88
847.648	-5.29
847.824	25.43
847.999	39.76
848.175	17.24
848.35	11.09
848.526	82.77
848.701	101.2
848.876	37.72
849.052	33.62
849.227	70.48
849.403	2.9
849.578	62.29
849.753	11.09
849.929	45.91
850.104	66.39
850.279	29.52
850.454	82.77
850.63	70.48
850.805	142.16
850.98	54.1
851.155	33.62
851.33	41.81
851.505	29.52
851.681	60.24
851.856	-21.67
852.031	99.16
852.206	-15.53
852.381	70.48
852.556	56.15
852.731	2.9
852.906	66.39
853.081	43.86
853.256	29.52
853.431	43.86
853.606	-31.91
853.781	39.76
853.956	-7.34
854.131	25.43
854.305	50
854.48	17.24
854.655	56.15
854.83	105.3
855.005	17.24
855.18	60.24
855.354	41.81
855.529	86.87
855.704	70.48
855.879	90.96
856.053	50
856.228	68.44
856.403	21.33
856.577	66.39
856.752	0.85
856.926	-9.39
857.101	-15.53
857.276	11.09
857.45	29.52
857.625	41.81
857.799	-48.3
857.974	-3.24
858.148	-40.11
858.323	21.33
858.497	-70.83
858.672	-42.15
858.846	-48.3
859.02	-7.34
859.195	15.19
859.369	64.34
859.543	19.29
859.718	29.52
859.892	41.81
860.066	27.48
860.241	9.05
860.415	-5.29
860.589	31.57
860.763	17.24
860.938	15.19
861.112	39.76
861.286	37.72
861.46	9.05
861.634	-11.43
861.808	52.05
861.982	19.29
862.157	52.05
862.331	-15.53
862.505	39.76
862.679	-21.67
862.853	-60.59
863.027	-15.53
863.201	27.48
863.375	11.09
863.549	82.77
863.722	66.39
863.896	105.3
864.07	25.43
864.244	17.24
864.418	45.91
864.592	43.86
864.766	-27.82
864.939	-21.67
865.113	-31.91
865.287	9.05
865.461	-62.63
865.634	17.24
865.808	-15.53
865.982	-40.11
866.156	-64.68
866.329	50
866.503	21.33
866.676	13.14
866.85	17.24
867.024	-29.87
867.197	-3.24
867.371	2.9
867.544	17.24
867.718	19.29
867.891	50
868.065	-15.53
868.238	0.85
868.412	62.29
868.585	13.14
868.759	19.29
868.932	-31.91
869.105	17.24
869.279	33.62
869.452	-3.24
869.625	4.95
869.799	17.24
869.972	4.95
870.145	-9.39
870.319	70.48
870.492	41.81
870.665	-5.29
870.838	45.91
871.011	-48.3
871.185	86.87
871.358	9.05
871.531	13.14
871.704	11.09
871.877	105.3
872.05	-68.78
872.223	-13.48
872.396	41.81
872.569	86.87
872.742	58.2
872.915	35.67
873.088	-40.11
873.261	-7.34
873.434	39.76
873.607	-17.58
873.78	33.62
873.953	13.14
874.126	66.39
874.299	-60.59
874.471	-38.06
874.644	17.24
874.817	82.77
874.99	25.43
875.163	-9.39
875.335	60.24
875.508	-19.63
875.681	0.85
875.853	50
876.026	-21.67
876.199	17.24
876.371	-15.53
876.544	15.19
876.717	-15.53
876.889	-31.91
877.062	74.58
877.234	60.24
877.407	25.43
877.579	50
877.752	35.67
877.924	29.52
878.097	25.43
878.269	121.68
878.442	-15.53
878.614	-5.29
878.786	9.05
878.959	37.72
879.131	25.43
879.303	23.38
879.476	68.44
879.648	88.92
879.82	-19.63
879.993	23.38
880.165	54.1
880.337	-31.91
880.509	58.2
880.681	-38.06
880.854	50
881.026	0.85
881.198	13.14
881.37	27.48
881.542	19.29
881.714	-58.54
881.886	60.24
882.058	-7.34
882.23	21.33
882.402	-11.43
882.574	35.67
882.746	58.2
882.918	99.16
883.09	-3.24
883.262	60.24
883.434	21.33
883.606	90.96
883.778	35.67
883.95	-25.77
884.122	13.14
884.293	82.77
884.465	-44.2
884.637	45.91
884.809	-70.83
884.98	9.05
885.152	-17.58
885.324	-17.58
885.496	31.57
885.667	74.58
885.839	-1.19
886.011	131.92
886.182	25.43
886.354	45.91
886.525	19.29
886.697	66.39
886.869	9.05
887.04	33.62
887.212	0.85
887.383	0.85
887.555	88.92
887.726	21.33
887.897	17.24
888.069	17.24
888.24	7
888.412	27.48
888.583	-23.72
888.754	54.1
888.926	7
889.097	-31.91
889.268	-11.43
889.44	99.16
889.611	9.05
889.782	-25.77
889.953	-40.11
890.125	64.34
890.296	-44.2
890.467	101.2
890.638	-64.68
890.809	-68.78
890.98	4.95
891.151	86.87
891.323	41.81
891.494	-40.11
891.665	9.05
891.836	0.85
892.007	-7.34
892.178	21.33
892.349	-1.19
892.52	-44.2
892.691	-42.15
892.862	2.9
893.032	17.24
893.203	21.33
893.374	-54.44
893.545	58.2
893.716	-27.82
893.887	-21.67
894.057	-23.72
894.228	-15.53
894.399	45.91
894.57	82.77
894.74	-5.29
894.911	17.24
895.082	31.57
895.253	-27.82
895.423	33.62
895.594	95.06
895.764	15.19
895.935	-46.25
896.106	68.44
896.276	-64.68
896.447	-48.3
896.617	17.24
896.788	-64.68
896.958	11.09
897.129	-54.44
897.299	-31.91
897.47	-46.25
897.64	35.67
897.81	-1.19
897.981	27.48
898.151	-68.78
898.322	-11.43
898.492	0.85
898.662	9.05
898.832	9.05
899.003	54.1
899.173	33.62
899.343	29.52
899.513	-11.43
