Data from USB4F104151__29__14-16-27-733.txt Node

Date: Thu Mar 13 14:16:27 EDT 2025
User: louis
Spectrometer: USB4F10415
Trigger mode: 4
Integration Time (sec): 2.000000E-2
Scans to average: 1
Electric dark correction enabled: true
Nonlinearity correction enabled: false
Boxcar width: 0
XAxis mode: Wavelengths
Number of Pixels in Spectrum: 3648
>>>>>Begin Spectral Data<<<<<
178.204	-126.46
178.424	-126.46
178.644	-126.46
178.864	-32.26
179.084	-108.03
179.304	-9.73
179.524	33.28
179.744	-19.97
179.964	47.62
180.184	12.8
180.404	39.42
180.624	4.61
180.844	49.66
181.064	-97.79
181.283	-50.69
181.503	-40.45
181.723	31.23
181.943	47.62
182.163	154.11
182.383	8.7
182.602	55.81
182.822	53.76
183.042	107.01
183.262	20.99
183.482	31.23
183.701	-13.82
183.921	-34.3
184.141	-19.97
184.361	117.25
184.58	61.95
184.8	55.81
185.02	6.66
185.239	37.38
185.459	-7.68
185.679	4.61
185.898	4.61
186.118	16.9
186.338	-13.82
186.557	102.91
186.777	18.94
186.997	29.18
187.216	64
187.436	94.72
187.655	49.66
187.875	37.38
188.095	4.61
188.314	78.33
188.534	84.48
188.753	6.66
188.973	72.19
189.192	59.9
189.412	86.53
189.631	45.57
189.851	55.81
190.07	129.53
190.29	33.28
190.509	90.62
190.729	6.66
190.948	53.76
191.168	127.49
191.387	45.57
191.607	20.99
191.826	59.9
192.045	57.86
192.265	12.8
192.484	53.76
192.704	20.99
192.923	12.8
193.142	47.62
193.362	-1.54
193.581	96.77
193.8	33.28
194.02	113.15
194.239	18.94
194.458	29.18
194.678	4.61
194.897	49.66
195.116	-11.78
195.335	74.24
195.555	70.14
195.774	29.18
195.993	61.95
196.212	45.57
196.432	37.38
196.651	127.49
196.87	-13.82
197.089	78.33
197.308	-11.78
197.528	111.1
197.747	-15.87
197.966	68.09
198.185	127.49
198.404	-32.26
198.623	66.05
198.842	111.1
199.062	68.09
199.281	8.7
199.5	29.18
199.719	31.23
199.938	111.1
200.157	76.29
200.376	64
200.595	74.24
200.814	82.43
201.033	88.57
201.252	66.05
201.471	94.72
201.69	55.81
201.909	23.04
202.128	113.15
202.347	-3.58
202.566	41.47
202.785	47.62
203.004	31.23
203.223	115.2
203.442	57.86
203.661	27.14
203.879	70.14
204.098	6.66
204.317	-17.92
204.536	86.53
204.755	53.76
204.974	61.95
205.193	20.99
205.411	90.62
205.63	12.8
205.849	4.61
206.068	18.94
206.287	-28.16
206.505	92.67
206.724	68.09
206.943	86.53
207.162	39.42
207.381	88.57
207.599	39.42
207.818	59.9
208.037	59.9
208.255	72.19
208.474	82.43
208.693	27.14
208.911	20.99
209.13	23.04
209.349	20.99
209.567	45.57
209.786	41.47
210.005	29.18
210.223	64
210.442	-9.73
210.661	86.53
210.879	12.8
211.098	78.33
211.316	-7.68
211.535	41.47
211.753	-15.87
211.972	152.06
212.191	-9.73
212.409	41.47
212.628	78.33
212.846	33.28
213.065	98.81
213.283	78.33
213.502	4.61
213.72	72.19
213.938	2.56
214.157	47.62
214.375	86.53
214.594	49.66
214.812	70.14
215.031	70.14
215.249	23.04
215.467	45.57
215.686	-28.16
215.904	70.14
216.122	70.14
216.341	39.42
216.559	55.81
216.778	102.91
216.996	94.72
217.214	4.61
217.432	51.71
217.651	86.53
217.869	125.44
218.087	-24.06
218.306	70.14
218.524	-13.82
218.742	12.8
218.96	72.19
219.179	45.57
219.397	45.57
219.615	37.38
219.833	-32.26
220.051	-19.97
220.27	168.45
220.488	51.71
220.706	109.05
220.924	57.86
221.142	64
221.36	90.62
221.578	53.76
221.796	27.14
222.015	94.72
222.233	68.09
222.451	111.1
222.669	23.04
222.887	31.23
223.105	31.23
223.323	45.57
223.541	-19.97
223.759	107.01
223.977	37.38
224.195	25.09
224.413	43.52
224.631	47.62
224.849	64
225.067	96.77
225.285	25.09
225.503	14.85
225.721	66.05
225.939	55.81
226.157	45.57
226.375	41.47
226.592	12.8
226.81	64
227.028	51.71
227.246	102.91
227.464	94.72
227.682	8.7
227.9	55.81
228.117	64
228.335	82.43
228.553	18.94
228.771	115.2
228.989	53.76
229.206	18.94
229.424	12.8
229.642	53.76
229.86	-36.35
230.077	12.8
230.295	23.04
230.513	33.28
230.731	80.38
230.948	86.53
231.166	82.43
231.384	39.42
231.601	70.14
231.819	33.28
232.037	45.57
232.254	4.61
232.472	53.76
232.689	70.14
232.907	109.05
233.125	70.14
233.342	-26.11
233.56	25.09
233.777	-7.68
233.995	8.7
234.213	16.9
234.43	53.76
234.648	98.81
234.865	72.19
235.083	70.14
235.3	47.62
235.518	61.95
235.735	6.66
235.953	55.81
236.17	31.23
236.388	68.09
236.605	6.66
236.822	74.24
237.04	25.09
237.257	16.9
237.475	-15.87
237.692	25.09
237.909	-3.58
238.127	84.48
238.344	47.62
238.562	70.14
238.779	-28.16
238.996	29.18
239.214	37.38
239.431	25.09
239.648	-9.73
239.865	64
240.083	80.38
240.3	6.66
240.517	92.67
240.735	-7.68
240.952	61.95
241.169	-28.16
241.386	20.99
241.603	78.33
241.821	4.61
242.038	29.18
242.255	82.43
242.472	39.42
242.689	61.95
242.907	72.19
243.124	33.28
243.341	72.19
243.558	72.19
243.775	29.18
243.992	25.09
244.209	0.51
244.426	8.7
244.643	123.39
244.86	45.57
245.078	86.53
245.295	-3.58
245.512	25.09
245.729	98.81
245.946	80.38
246.163	10.75
246.38	-9.73
246.597	66.05
246.814	74.24
247.031	4.61
247.248	61.95
247.464	-40.45
247.681	86.53
247.898	135.68
248.115	119.29
248.332	12.8
248.549	37.38
248.766	113.15
248.983	20.99
249.2	39.42
249.417	94.72
249.633	20.99
249.85	6.66
250.067	0.51
250.284	57.86
250.501	127.49
250.717	74.24
250.934	37.38
251.151	4.61
251.368	-3.58
251.585	55.81
251.801	78.33
252.018	16.9
252.235	72.19
252.451	70.14
252.668	35.33
252.885	66.05
253.102	37.38
253.318	-24.06
253.535	-28.16
253.752	29.18
253.968	-32.26
254.185	25.09
254.401	64
254.618	111.1
254.835	-5.63
255.051	119.29
255.268	74.24
255.484	23.04
255.701	68.09
255.917	86.53
256.134	64
256.351	98.81
256.567	-1.54
256.784	45.57
257	-5.63
257.217	76.29
257.433	82.43
257.65	47.62
257.866	92.67
258.082	-50.69
258.299	20.99
258.515	37.38
258.732	-40.45
258.948	70.14
259.165	45.57
259.381	53.76
259.597	16.9
259.814	86.53
260.03	6.66
260.246	16.9
260.463	117.25
260.679	47.62
260.895	4.61
261.112	70.14
261.328	31.23
261.544	66.05
261.761	119.29
261.977	70.14
262.193	-15.87
262.409	57.86
262.626	-7.68
262.842	12.8
263.058	6.66
263.274	-44.54
263.49	53.76
263.707	53.76
263.923	39.42
264.139	16.9
264.355	61.95
264.571	133.63
264.787	78.33
265.004	115.2
265.22	59.9
265.436	49.66
265.652	12.8
265.868	113.15
266.084	47.62
266.3	70.14
266.516	66.05
266.732	45.57
266.948	37.38
267.164	37.38
267.38	70.14
267.596	137.73
267.812	88.57
268.028	29.18
268.244	-7.68
268.46	119.29
268.676	45.57
268.892	47.62
269.108	33.28
269.324	6.66
269.54	8.7
269.756	-3.58
269.972	45.57
270.188	72.19
270.403	10.75
270.619	10.75
270.835	70.14
271.051	-3.58
271.267	68.09
271.483	37.38
271.698	39.42
271.914	-15.87
272.13	70.14
272.346	-34.3
272.562	12.8
272.777	-7.68
272.993	47.62
273.209	55.81
273.425	88.57
273.64	4.61
273.856	43.52
274.072	57.86
274.287	12.8
274.503	102.91
274.719	20.99
274.934	31.23
275.15	-17.92
275.366	61.95
275.581	-9.73
275.797	72.19
276.012	45.57
276.228	115.2
276.444	57.86
276.659	96.77
276.875	57.86
277.09	14.85
277.306	37.38
277.521	29.18
277.737	0.51
277.952	-38.4
278.168	53.76
278.383	31.23
278.599	49.66
278.814	61.95
279.03	45.57
279.245	78.33
279.461	51.71
279.676	-52.74
279.892	37.38
280.107	8.7
280.322	41.47
280.538	6.66
280.753	68.09
280.969	70.14
281.184	64
281.399	10.75
281.615	47.62
281.83	72.19
282.045	45.57
282.26	10.75
282.476	49.66
282.691	80.38
282.906	121.34
283.122	39.42
283.337	100.86
283.552	115.2
283.767	94.72
283.983	47.62
284.198	0.51
284.413	102.91
284.628	51.71
284.843	55.81
285.058	133.63
285.274	88.57
285.489	16.9
285.704	61.95
285.919	51.71
286.134	16.9
286.349	39.42
286.564	6.66
286.779	82.43
286.995	82.43
287.21	53.76
287.425	12.8
287.64	4.61
287.855	78.33
288.07	23.04
288.285	96.77
288.5	86.53
288.715	33.28
288.93	47.62
289.145	16.9
289.36	23.04
289.575	64
289.79	154.11
290.004	55.81
290.219	37.38
290.434	49.66
290.649	4.61
290.864	27.14
291.079	45.57
291.294	-15.87
291.509	64
291.724	37.38
291.938	37.38
292.153	115.2
292.368	29.18
292.583	72.19
292.798	74.24
293.012	78.33
293.227	49.66
293.442	113.15
293.657	31.23
293.871	109.05
294.086	35.33
294.301	119.29
294.516	25.09
294.73	96.77
294.945	12.8
295.16	96.77
295.374	113.15
295.589	20.99
295.804	45.57
296.018	12.8
296.233	111.1
296.447	49.66
296.662	-15.87
296.877	-40.45
297.091	31.23
297.306	88.57
297.52	49.66
297.735	35.33
297.949	-19.97
298.164	53.76
298.378	20.99
298.593	47.62
298.807	53.76
299.022	12.8
299.236	61.95
299.451	107.01
299.665	51.71
299.88	113.15
300.094	-13.82
300.309	84.48
300.523	74.24
300.737	96.77
300.952	57.86
301.166	45.57
301.381	45.57
301.595	20.99
301.809	55.81
302.024	55.81
302.238	31.23
302.452	96.77
302.667	-1.54
302.881	123.39
303.095	102.91
303.309	20.99
303.524	78.33
303.738	64
303.952	12.8
304.166	39.42
304.381	-24.06
304.595	98.81
304.809	39.42
305.023	4.61
305.237	59.9
305.452	64
305.666	47.62
305.88	57.86
306.094	127.49
306.308	59.9
306.522	39.42
306.736	129.53
306.95	35.33
307.164	64
307.379	59.9
307.593	61.95
307.807	53.76
308.021	55.81
308.235	29.18
308.449	49.66
308.663	-28.16
308.877	82.43
309.091	86.53
309.305	86.53
309.519	-54.78
309.733	35.33
309.947	16.9
310.161	-3.58
310.374	-3.58
310.588	39.42
310.802	37.38
311.016	96.77
311.23	64
311.444	29.18
311.658	61.95
311.872	74.24
312.085	64
312.299	70.14
312.513	18.94
312.727	59.9
312.941	49.66
313.154	53.76
313.368	39.42
313.582	111.1
313.796	70.14
314.009	53.76
314.223	86.53
314.437	61.95
314.651	70.14
314.864	53.76
315.078	117.25
315.292	4.61
315.505	12.8
315.719	39.42
315.933	70.14
316.146	53.76
316.36	-5.63
316.573	-5.63
316.787	55.81
317.001	156.16
317.214	-75.26
317.428	66.05
317.641	74.24
317.855	61.95
318.068	53.76
318.282	37.38
318.495	107.01
318.709	0.51
318.922	35.33
319.136	90.62
319.349	51.71
319.563	49.66
319.776	33.28
319.99	-52.74
320.203	90.62
320.417	12.8
320.63	45.57
320.843	39.42
321.057	94.72
321.27	23.04
321.483	115.2
321.697	111.1
321.91	88.57
322.124	23.04
322.337	18.94
322.55	37.38
322.763	104.96
322.977	41.47
323.19	29.18
323.403	86.53
323.617	66.05
323.83	96.77
324.043	61.95
324.256	80.38
324.469	31.23
324.683	-1.54
324.896	119.29
325.109	98.81
325.322	39.42
325.535	61.95
325.748	94.72
325.962	82.43
326.175	131.58
326.388	20.99
326.601	135.68
326.814	33.28
327.027	90.62
327.24	131.58
327.453	4.61
327.666	145.92
327.879	80.38
328.092	82.43
328.305	-17.92
328.518	14.85
328.731	-3.58
328.944	70.14
329.157	-17.92
329.37	14.85
329.583	119.29
329.796	59.9
330.009	16.9
330.222	90.62
330.435	27.14
330.648	102.91
330.861	29.18
331.073	90.62
331.286	31.23
331.499	51.71
331.712	76.29
331.925	111.1
332.138	-3.58
332.35	119.29
332.563	66.05
332.776	49.66
332.989	76.29
333.202	88.57
333.414	31.23
333.627	-11.78
333.84	70.14
334.053	25.09
334.265	70.14
334.478	37.38
334.691	74.24
334.903	31.23
335.116	111.1
335.329	20.99
335.541	66.05
335.754	29.18
335.966	0.51
336.179	82.43
336.392	123.39
336.604	80.38
336.817	0.51
337.029	74.24
337.242	49.66
337.454	94.72
337.667	16.9
337.88	37.38
338.092	-3.58
338.305	14.85
338.517	39.42
338.729	109.05
338.942	70.14
339.154	29.18
339.367	-46.59
339.579	111.1
339.792	10.75
340.004	47.62
340.217	37.38
340.429	57.86
340.641	-15.87
340.854	90.62
341.066	23.04
341.278	61.95
341.491	94.72
341.703	20.99
341.915	45.57
342.128	53.76
342.34	92.67
342.552	82.43
342.764	57.86
342.977	70.14
343.189	-3.58
343.401	82.43
343.613	-44.54
343.826	78.33
344.038	12.8
344.25	74.24
344.462	6.66
344.674	127.49
344.886	49.66
345.099	113.15
345.311	84.48
345.523	78.33
345.735	55.81
345.947	115.2
346.159	-9.73
346.371	53.76
346.583	107.01
346.795	90.62
347.007	84.48
347.219	102.91
347.431	27.14
347.643	107.01
347.855	64
348.067	55.81
348.279	-3.58
348.491	160.25
348.703	45.57
348.915	70.14
349.127	37.38
349.339	109.05
349.551	25.09
349.763	104.96
349.975	16.9
350.187	94.72
350.399	47.62
350.61	25.09
350.822	47.62
351.034	78.33
351.246	66.05
351.458	43.52
351.669	53.76
351.881	135.68
352.093	55.81
352.305	131.58
352.517	-9.73
352.728	88.57
352.94	168.45
353.152	88.57
353.363	29.18
353.575	31.23
353.787	121.34
353.999	47.62
354.21	23.04
354.422	137.73
354.633	55.81
354.845	94.72
355.057	82.43
355.268	57.86
355.48	41.47
355.692	61.95
355.903	74.24
356.115	94.72
356.326	55.81
356.538	102.91
356.749	102.91
356.961	76.29
357.172	20.99
357.384	14.85
357.595	113.15
357.807	8.7
358.018	57.86
358.23	55.81
358.441	53.76
358.653	55.81
358.864	51.71
359.075	66.05
359.287	82.43
359.498	102.91
359.709	115.2
359.921	137.73
360.132	-1.54
360.344	61.95
360.555	2.56
360.766	113.15
360.977	45.57
361.189	158.21
361.4	59.9
361.611	78.33
361.823	80.38
362.034	57.86
362.245	25.09
362.456	94.72
362.667	-7.68
362.879	23.04
363.09	43.52
363.301	33.28
363.512	74.24
363.723	25.09
363.935	23.04
364.146	90.62
364.357	72.19
364.568	104.96
364.779	39.42
364.99	94.72
365.201	68.09
365.412	141.82
365.623	-9.73
365.834	102.91
366.045	49.66
366.256	92.67
366.467	107.01
366.678	57.86
366.889	41.47
367.1	102.91
367.311	74.24
367.522	29.18
367.733	86.53
367.944	61.95
368.155	111.1
368.366	94.72
368.577	61.95
368.788	117.25
368.999	4.61
369.209	90.62
369.42	127.49
369.631	96.77
369.842	45.57
370.053	37.38
370.264	59.9
370.474	135.68
370.685	16.9
370.896	131.58
371.107	86.53
371.317	14.85
371.528	66.05
371.739	16.9
371.95	96.77
372.16	57.86
372.371	47.62
372.582	47.62
372.792	70.14
373.003	12.8
373.214	57.86
373.424	74.24
373.635	88.57
373.846	115.2
374.056	115.2
374.267	61.95
374.477	127.49
374.688	131.58
374.898	66.05
375.109	78.33
375.319	49.66
375.53	53.76
375.74	78.33
375.951	16.9
376.161	74.24
376.372	70.14
376.582	123.39
376.793	107.01
377.003	-1.54
377.214	98.81
377.424	-1.54
377.635	78.33
377.845	119.29
378.055	33.28
378.266	53.76
378.476	70.14
378.686	55.81
378.897	0.51
379.107	51.71
379.317	94.72
379.528	137.73
379.738	86.53
379.948	-17.92
380.158	66.05
380.369	12.8
380.579	37.38
380.789	27.14
380.999	80.38
381.21	102.91
381.42	147.97
381.63	2.56
381.84	88.57
382.05	59.9
382.261	72.19
382.471	55.81
382.681	10.75
382.891	135.68
383.101	25.09
383.311	57.86
383.521	80.38
383.731	70.14
383.941	88.57
384.151	59.9
384.361	66.05
384.571	29.18
384.781	86.53
384.991	49.66
385.201	98.81
385.411	127.49
385.621	61.95
385.831	53.76
386.041	80.38
386.251	53.76
386.461	121.34
386.671	66.05
386.881	102.91
387.091	49.66
387.301	115.2
387.511	55.81
387.72	164.35
387.93	94.72
388.14	111.1
388.35	25.09
388.56	115.2
388.769	195.07
388.979	10.75
389.189	55.81
389.399	47.62
389.609	121.34
389.818	49.66
390.028	78.33
390.238	143.87
390.447	80.38
390.657	78.33
390.867	82.43
391.076	88.57
391.286	141.82
391.496	53.76
391.705	72.19
391.915	78.33
392.125	37.38
392.334	78.33
392.544	143.87
392.753	72.19
392.963	78.33
393.172	78.33
393.382	20.99
393.591	104.96
393.801	123.39
394.01	90.62
394.22	51.71
394.429	94.72
394.639	49.66
394.848	88.57
395.058	-9.73
395.267	78.33
395.477	119.29
395.686	127.49
395.895	78.33
396.105	96.77
396.314	104.96
396.524	98.81
396.733	78.33
396.942	111.1
397.152	127.49
397.361	76.29
397.57	137.73
397.78	135.68
397.989	135.68
398.198	162.3
398.407	121.34
398.617	61.95
398.826	78.33
399.035	66.05
399.244	131.58
399.453	98.81
399.663	125.44
399.872	78.33
400.081	102.91
400.29	154.11
400.499	53.76
400.708	160.25
400.917	96.77
401.127	127.49
401.336	119.29
401.545	152.06
401.754	127.49
401.963	47.62
402.172	158.21
402.381	98.81
402.59	121.34
402.799	94.72
403.008	117.25
403.217	111.1
403.426	143.87
403.635	178.69
403.844	127.49
404.053	276.99
404.262	115.2
404.471	180.73
404.68	213.5
404.888	119.29
405.097	186.88
405.306	178.69
405.515	199.16
405.724	178.69
405.933	254.46
406.142	201.21
406.35	193.02
406.559	217.6
406.768	233.98
406.977	242.17
407.185	225.79
407.394	180.73
407.603	168.45
407.812	262.65
408.02	213.5
408.229	203.26
408.438	274.94
408.646	276.99
408.855	346.62
409.064	197.12
409.272	190.97
409.481	287.23
409.69	320
409.898	287.23
410.107	229.88
410.315	326.14
410.524	279.04
410.733	397.82
410.941	262.65
411.15	350.71
411.358	438.78
411.567	453.11
411.775	350.71
411.984	248.32
412.192	414.2
412.401	416.25
412.609	467.45
412.818	545.27
413.026	434.68
413.234	500.22
413.443	479.74
413.651	508.41
413.86	575.99
414.068	537.08
414.276	672.25
414.485	629.24
414.693	647.67
414.901	713.21
415.11	616.95
415.318	684.53
415.526	743.92
415.734	776.69
415.943	741.88
416.151	760.31
416.359	795.12
416.567	889.33
416.776	872.95
416.984	877.04
417.192	1044.98
417.4	997.87
417.608	1038.83
417.817	1075.7
418.025	1128.94
418.233	1118.7
418.441	1130.99
418.649	1085.94
418.857	1262.06
419.065	1300.97
419.273	1276.4
419.481	1331.69
419.689	1374.7
419.897	1479.15
420.105	1507.82
420.313	1626.6
420.521	1626.6
420.729	1614.31
420.937	1665.51
421.145	1751.53
421.353	1761.77
421.561	1876.45
421.769	1905.12
421.977	1950.18
422.185	1970.66
422.393	2150.88
422.601	2218.46
422.809	2144.74
423.017	2322.91
423.224	2255.33
423.432	2486.75
423.64	2413.02
423.848	2560.47
424.056	2503.13
424.263	2650.58
424.471	2724.31
424.679	2798.04
424.887	2972.11
425.094	3051.99
425.302	3097.04
425.51	3158.48
425.718	3394
425.925	3269.07
426.133	3383.76
426.341	3557.83
426.548	3838.41
426.756	3813.83
426.964	3805.64
427.171	3938.76
427.379	4141.5
427.586	4198.85
427.794	4323.77
428.001	4561.34
428.209	4651.45
428.417	4452.8
428.624	5011.89
428.832	4848.05
429.039	4891.06
429.247	4882.87
429.454	5384.62
429.662	5781.93
429.869	5394.86
430.076	5804.46
430.284	5616.04
430.491	5896.61
430.699	6087.08
430.906	6320.54
431.114	6216.1
431.321	6463.9
431.528	6566.3
431.736	6977.94
431.943	7522.7
432.15	7176.59
432.358	7336.34
432.565	7639.44
432.772	7721.35
432.979	7948.68
433.187	7915.91
433.394	8020.36
433.601	8862.07
433.808	8601.98
434.016	8614.27
434.223	9142.64
434.43	9376.11
434.637	9386.35
434.844	9970.02
435.052	9916.78
435.259	10035.56
435.466	10162.53
435.673	10047.85
435.88	10592.61
436.087	11180.37
436.294	11250
436.501	11049.3
436.708	11231.57
436.915	11755.85
437.122	12108.1
437.329	12155.21
437.537	12527.94
437.743	12661.05
437.95	12452.16
438.157	13199.67
438.364	13750.57
438.571	13572.4
438.778	13699.37
438.985	15022.36
439.192	14397.73
439.399	14852.38
439.606	14217.51
439.813	15251.74
440.02	16277.77
440.227	16034.06
440.433	15651.09
440.64	15954.19
440.847	16212.23
441.054	16726.27
441.261	17799.41
441.467	17572.08
441.674	17711.35
441.881	18622.69
442.088	18438.37
442.294	18364.65
442.501	18667.75
442.708	19202.27
442.914	19826.9
443.121	20695.24
443.328	20256.97
443.534	21348.54
443.741	20746.44
443.948	20510.92
444.154	22161.58
444.361	21827.76
444.568	22290.6
444.774	22085.81
444.981	22425.77
445.187	23134.37
445.394	24148.11
445.6	23558.3
445.807	26228.85
446.013	24754.31
446.22	25024.64
446.426	26499.18
446.633	26546.28
446.839	27576.41
447.046	26255.47
447.252	28121.17
447.459	27899.99
447.665	27682.91
447.871	28858.44
448.078	30068.79
448.284	28461.13
448.491	29632.57
448.697	30949.42
448.903	31287.33
449.11	31199.27
449.316	30898.22
449.522	31170.6
449.728	32141.33
449.935	32301.08
450.141	32206.87
450.347	33339.4
450.553	31850.52
450.76	32450.58
450.966	33243.14
451.172	32872.46
451.378	34162.68
451.584	33349.64
451.791	34035.7
451.997	34138.1
452.203	34607.09
452.409	34508.79
452.615	34373.62
452.821	32868.36
453.027	32813.07
453.233	34242.55
453.44	32770.06
453.646	33306.63
453.852	33662.97
454.058	33898.49
454.264	33134.6
454.47	33699.84
454.676	32851.98
454.882	34004.99
455.088	31029.29
455.294	31209.51
455.5	31985.69
455.705	32026.65
455.911	31129.64
456.117	30613.55
456.323	30167.09
456.529	28596.3
456.735	29708.35
456.941	28946.5
457.147	28516.43
457.352	27795.54
457.558	27549.79
457.764	27674.71
457.97	26947.68
458.176	26202.22
458.381	26417.26
458.587	25157.76
458.793	25043.07
458.999	23761.05
459.204	25950.32
459.41	24809.61
459.616	23257.25
459.821	23277.72
460.027	23355.55
460.233	22640.81
460.438	21674.17
460.644	21862.58
460.85	20764.87
461.055	20340.94
461.261	20551.88
461.466	18800.87
461.672	18235.63
461.878	19755.22
462.083	18352.36
462.289	18376.94
462.494	18127.08
462.7	17010.94
462.905	16554.24
463.111	17285.37
463.316	17074.43
463.522	16957.69
463.727	16943.36
463.932	16931.07
464.138	16441.61
464.343	16781.57
464.549	16216.33
464.754	16625.92
464.959	16756.99
465.165	16648.45
465.37	15921.42
465.575	15581.46
465.781	16281.86
465.986	16075.02
466.191	15618.32
466.397	15286.55
466.602	14629.15
466.807	15298.84
467.012	14905.63
467.218	14987.55
467.423	14807.33
467.628	14987.55
467.833	15165.72
468.038	14924.06
468.244	14571.81
468.449	14862.62
468.654	14407.97
468.859	14698.78
469.064	14561.57
469.269	13922.6
469.474	13977.9
469.679	14070.06
469.885	13906.22
470.09	14004.52
470.295	13758.77
470.5	13402.42
470.705	13672.75
470.91	13531.44
471.115	13488.43
471.32	13488.43
471.525	13297.97
471.73	13068.6
471.935	12931.39
472.139	12513.6
472.344	12505.41
472.549	12613.95
472.754	12523.84
472.959	12192.07
473.164	12071.24
473.369	11923.79
473.574	12192.07
473.778	12122.44
473.983	12028.23
474.188	11991.37
474.393	11376.98
474.598	11452.75
474.802	11290.96
475.007	11145.56
475.212	11209.04
475.417	11028.82
475.621	11006.3
475.826	10891.61
476.031	10789.21
476.235	10357.09
476.44	10819.93
476.645	10539.36
476.849	10492.26
477.054	10250.6
477.259	10154.34
477.463	10203.49
477.668	10068.33
477.872	10033.51
478.077	9884.01
478.282	9662.83
478.486	9464.18
478.691	9515.37
478.895	9560.43
479.1	9523.57
479.304	9441.65
479.509	9294.19
479.713	9353.59
479.918	9089.4
480.122	9032.05
480.326	9015.67
480.531	9232.76
480.735	9015.67
480.94	9091.45
481.144	9185.65
481.348	8853.88
481.553	8923.51
481.757	8847.74
481.961	8882.55
482.166	9001.33
482.37	8966.52
482.574	8647.04
482.778	8679.8
482.983	8765.82
483.187	8892.79
483.391	9159.03
483.595	8712.57
483.8	8821.11
484.004	8931.7
484.208	8956.28
484.412	8780.15
484.616	8884.6
484.821	8900.98
485.025	8778.11
485.229	9105.78
485.433	8921.46
485.637	8814.97
485.841	8876.41
486.045	8757.63
486.249	8774.01
486.453	8765.82
486.657	8630.65
486.861	8847.74
487.065	8558.97
487.269	8913.27
487.473	8917.37
487.677	8821.11
487.881	8827.26
488.085	8688
488.289	8763.77
488.493	8851.83
488.697	8900.98
488.901	8966.52
489.105	8810.87
489.309	8929.66
489.512	8935.8
489.716	8835.45
489.92	8933.75
490.124	8894.84
490.328	8993.14
490.531	9064.82
490.735	9009.53
490.939	9249.14
491.143	9030.01
491.346	8927.61
491.55	9232.76
491.754	9288.05
491.958	9482.61
492.161	9288.05
492.365	9290.1
492.569	9306.48
492.772	9279.86
492.976	9630.06
493.18	9331.06
493.383	9648.49
493.587	9623.92
493.79	9793.9
493.994	9677.16
494.197	9838.95
494.401	9771.37
494.605	9949.54
494.808	9943.4
495.012	9802.09
495.215	10056.04
495.419	10170.72
495.622	10113.38
495.825	10113.38
496.029	10451.3
496.232	10355.04
496.436	10482.02
496.639	10645.85
496.843	10559.84
497.046	11024.73
497.249	11147.61
497.453	11155.8
497.656	11143.51
497.859	11262.29
498.063	11219.28
498.266	11362.64
498.469	11508.05
498.673	11606.35
498.876	11690.32
499.079	11925.83
499.282	11923.79
499.485	11868.49
499.689	12302.66
499.892	12300.61
500.095	12374.34
500.298	12579.14
500.501	12710.21
500.705	12919.1
500.908	13154.62
501.111	13220.15
501.314	13279.54
501.517	13537.59
501.72	13506.87
501.923	13732.14
502.126	13981.99
502.329	14094.63
502.532	14160.17
502.735	14211.37
502.938	14496.03
503.141	14498.08
503.344	14846.24
503.547	14807.33
503.75	15167.77
503.953	15200.54
504.156	15360.28
504.359	15511.83
504.562	15599.89
504.765	16171.27
504.968	16197.9
505.17	16371.97
505.373	16316.68
505.576	16388.36
505.779	16650.5
505.982	16953.6
506.185	17402.1
506.387	17320.18
506.59	17215.74
506.793	17537.27
506.996	17643.76
507.198	18194.67
507.401	17907.95
507.604	18071.79
507.807	18596.07
508.009	18751.71
508.212	18714.85
508.415	19411.16
508.617	19306.71
508.82	19685.59
509.022	19431.64
509.225	19777.75
509.428	19824.85
509.63	20156.62
509.833	20275.4
510.035	20785.35
510.238	20746.44
510.44	20969.66
510.643	21182.65
510.845	21360.83
511.048	21553.34
511.25	21661.88
511.453	22192.3
511.655	22640.81
511.858	22298.8
512.06	22943.91
512.262	22972.58
512.465	22511.78
512.667	23175.33
512.87	23328.92
513.072	23636.12
513.274	24137.87
513.477	24291.47
513.679	24404.11
513.881	24639.62
514.084	25075.84
514.286	24830.09
514.488	25163.9
514.69	25870.45
514.893	25614.46
515.095	25833.59
515.297	26234.99
515.499	26370.16
515.701	26878.05
515.904	26830.95
516.106	27148.39
516.308	27459.68
516.51	27549.79
516.712	27736.15
516.914	28012.63
517.116	28233.81
517.318	28401.74
517.52	28665.93
517.722	28780.62
517.925	29356.1
518.127	29440.06
518.329	29798.46
518.531	29825.08
518.733	30326.83
518.935	30373.94
519.136	30230.58
519.338	30869.54
519.54	31299.62
519.742	31494.18
519.944	31494.18
520.146	31985.69
520.348	32591.89
520.55	32727.05
520.752	32530.45
520.954	32708.62
521.155	32819.21
521.357	33298.44
521.559	33714.17
521.761	33769.47
521.963	33832.96
522.164	34254.84
522.366	34512.88
522.568	34799.6
522.77	34926.57
522.971	35155.94
523.173	34936.81
523.375	35477.47
523.576	35649.5
523.778	35551.2
523.98	36032.47
524.181	35821.53
524.383	35819.49
524.584	36802.51
524.786	36462.55
524.988	36583.38
525.189	37115.85
525.391	37373.89
525.592	37351.37
525.794	37728.19
525.995	37439.43
526.197	37724.1
526.398	37633.99
526.6	38311.86
526.801	38334.39
527.003	38397.88
527.204	38356.92
527.406	38582.2
527.607	38950.83
527.808	39143.34
528.01	38371.25
528.211	39069.61
528.412	39931.81
528.614	39307.18
528.815	39225.26
529.016	39528.36
529.218	39159.72
529.419	39354.28
529.62	39651.23
529.822	39696.29
530.023	39907.23
530.224	39860.13
530.425	39950.24
530.626	39466.92
530.828	39788.45
531.029	40308.63
531.23	40140.7
531.431	40107.93
531.632	40052.64
531.833	40370.07
532.035	40261.53
532.236	40513.43
532.437	40697.75
532.638	40181.66
532.839	41101.2
533.04	40718.23
533.241	40347.54
533.442	41369.48
533.643	41004.94
533.844	40632.21
534.045	40386.46
534.246	40320.92
534.447	40906.64
534.648	40794
534.849	41172.88
535.05	40621.97
535.251	40445.85
535.451	40421.27
535.652	40834.96
535.853	40763.28
536.054	40994.7
536.255	40998.8
536.456	40650.64
536.657	41236.36
536.857	40619.92
537.058	40359.83
537.259	41164.68
537.46	40931.22
537.66	40400.79
537.861	40724.37
538.062	40898.45
538.263	40814.48
538.463	40783.76
538.664	40720.27
538.865	41144.2
539.065	40894.35
539.266	40316.82
539.466	41041.81
539.667	40183.71
539.868	41228.17
540.068	40816.53
540.269	40355.74
540.469	40884.11
540.67	40552.34
540.87	40845.2
541.071	40509.33
541.271	41195.4
541.472	40271.77
541.672	40327.06
541.873	40230.81
542.073	40435.61
542.274	40529.81
542.474	40607.64
542.675	39825.31
542.875	40750.99
543.075	40429.46
543.276	40122.27
543.476	40415.13
543.676	40302.49
543.877	40398.74
544.077	40470.42
544.277	40656.79
544.478	40372.12
544.678	40355.74
544.878	40263.58
545.078	40269.72
545.279	39960.48
545.479	40066.97
545.679	40300.44
545.879	40236.95
546.079	40267.67
546.28	40294.3
546.48	39845.79
546.68	40468.37
546.88	40009.63
547.08	40040.35
547.28	40302.49
547.48	40062.88
547.68	40365.98
547.88	39880.61
548.081	40290.2
548.281	40128.41
548.481	40103.84
548.681	40433.56
548.881	40286.11
549.081	40130.46
549.28	40071.07
549.48	40388.5
549.68	40042.4
549.88	40699.79
550.08	39749.54
550.28	40112.03
550.48	40286.11
550.68	40386.46
550.88	39804.83
551.08	40138.65
551.279	39989.15
551.479	39585.7
551.679	40001.44
551.879	39710.63
552.079	40134.56
552.278	39737.25
552.478	39993.25
552.678	39888.8
552.878	40040.35
553.077	40017.82
553.277	39536.55
553.477	39751.59
553.676	39862.18
553.876	39651.23
554.076	39321.51
554.275	40167.32
554.475	39133.1
554.674	39235.5
554.874	39524.26
555.074	39266.22
555.273	39806.88
555.473	39673.76
555.672	39669.67
555.872	39464.87
556.071	39223.21
556.271	39608.23
556.47	39597.99
556.67	38948.78
556.869	39133.1
557.068	39647.14
557.268	39212.97
557.467	38977.45
557.667	39135.15
557.866	38899.63
558.065	39090.09
558.265	38786.99
558.464	38772.66
558.663	39425.96
558.863	38629.3
559.062	39405.48
559.261	38377.4
559.461	38815.66
559.66	38365.11
559.859	38725.55
560.058	38531
560.258	38469.56
560.457	38293.43
560.656	38895.53
560.855	38350.77
561.054	38621.11
561.253	38385.59
561.453	38416.31
561.652	38561.72
561.851	38442.93
562.05	38295.48
562.249	37892.03
562.448	38201.27
562.647	38166.46
562.846	38143.93
563.045	37906.37
563.244	37488.58
563.443	37715.9
563.642	37525.44
563.841	37894.08
564.04	37564.35
564.239	37824.45
564.438	37455.81
564.637	37656.51
564.836	37363.65
565.035	37128.14
565.234	37713.86
565.432	36995.02
565.631	37314.5
565.83	37791.68
566.029	36892.62
566.228	36655.06
566.427	36884.43
566.625	36513.75
566.824	36546.51
567.023	36898.76
567.222	36132.82
567.42	36540.37
567.619	36669.39
567.818	36575.19
568.016	36435.92
568.215	36491.22
568.414	36057.05
568.612	36505.55
568.811	36106.2
569.01	36102.11
569.208	35688.42
569.407	36055
569.605	35514.34
569.804	35729.37
570.002	35399.65
570.201	35774.43
570.4	35626.98
570.598	35252.2
570.797	35244.01
570.995	35211.24
571.193	34826.22
571.392	35348.45
571.59	35045.35
571.789	35151.85
571.987	34476.02
572.186	34961.39
572.384	34856.94
572.582	34854.89
572.781	34908.14
572.979	34471.92
573.177	34570.22
573.376	34717.68
573.574	33992.7
573.772	34234.36
573.971	34004.99
574.169	33798.14
574.367	33949.69
574.565	34220.02
574.763	33513.47
574.962	33839.1
575.16	33128.45
575.358	33630.21
575.556	33167.37
575.754	33136.65
575.952	32886.79
576.151	33404.93
576.349	32765.96
576.547	32880.65
576.745	32972.81
576.943	32919.56
577.141	33163.27
577.339	32612.37
577.537	32671.76
577.735	32382.99
577.933	32442.38
578.131	32213.01
578.329	32208.92
578.527	32206.87
578.725	32204.82
578.923	32528.4
579.121	31774.75
579.319	32098.33
579.516	32235.54
579.714	31926.3
579.912	31694.88
580.11	31549.47
580.308	31572
580.506	31207.46
580.704	31299.62
580.901	31936.54
581.099	31324.19
581.297	31191.08
581.495	31193.12
581.692	31172.64
581.89	31100.97
582.088	31109.16
582.285	30869.54
582.483	31262.75
582.681	30580.78
582.878	30722.09
583.076	30326.83
583.274	30863.4
583.471	30048.31
583.669	30126.13
583.866	30308.4
584.064	30568.49
584.262	30220.34
584.459	30267.44
584.657	29802.55
584.854	30158.9
585.052	29542.46
585.249	29880.38
585.447	30273.59
585.644	29575.23
585.841	29542.46
586.039	29730.87
586.236	29368.38
586.434	29325.38
586.631	28868.68
586.828	29491.26
587.026	29044.8
587.223	28819.53
587.42	28778.57
587.618	28932.17
587.815	28897.35
588.012	28510.28
588.21	28328.02
588.407	28964.93
588.604	28403.79
588.801	28180.56
588.999	28332.11
589.196	28301.39
589.393	28155.99
589.59	28029.01
589.787	27727.96
589.984	27684.95
590.182	27752.54
590.379	28035.16
590.576	27465.82
590.773	27740.25
590.97	27678.81
591.167	27533.4
591.364	27351.13
591.561	27340.89
591.758	27000.93
591.955	26925.16
592.152	27261.02
592.349	26916.97
592.546	26746.98
592.743	26763.37
592.94	26671.21
593.137	26951.78
593.334	26919.01
593.531	26185.84
593.727	26419.31
593.924	26519.66
594.121	26255.47
594.318	26390.64
594.515	26124.4
594.712	26568.81
594.908	26173.55
595.105	26093.68
595.302	25720.95
595.499	26005.62
595.696	26116.21
595.892	25737.34
596.089	25743.48
596.286	25886.84
596.482	25391.23
596.679	25497.72
596.876	25548.92
597.072	25254.01
597.269	25294.97
597.466	24803.46
597.662	25188.48
597.859	25352.32
598.055	24946.82
598.252	24733.83
598.448	24891.52
598.645	24572.04
598.841	24483.98
599.038	24596.62
599.234	24400.01
599.431	24330.38
599.627	24283.28
599.824	24219.79
600.02	24268.94
600.217	24064.14
600.413	24098.96
600.609	23711.89
600.806	23992.47
601.002	24060.05
601.198	23845.01
601.395	23734.42
601.591	23509.15
601.787	23560.34
601.984	23249.05
602.18	23517.34
602.376	23435.42
602.572	23519.39
602.769	23169.18
602.965	23216.29
603.161	23181.47
603.357	22837.41
603.553	22939.81
603.75	22948
603.946	22630.57
604.142	22864.04
604.338	22505.64
604.534	22622.37
604.73	22263.98
604.926	22423.72
605.122	22294.7
605.318	22436.01
605.514	22171.82
605.71	22212.78
605.906	22012.08
606.102	22343.85
606.298	22046.9
606.494	22042.8
606.69	22272.17
606.886	21934.26
607.082	21772.47
607.278	21962.93
607.474	21751.99
607.67	21840.05
607.866	21412.03
608.062	21756.08
608.257	21618.87
608.453	21766.32
608.649	21731.51
608.845	21452.98
609.041	21336.25
609.236	21559.48
609.432	21272.76
609.628	21328.06
609.824	20949.18
610.019	20830.4
610.215	21059.77
610.411	21317.82
610.606	21262.52
610.802	21057.73
610.998	20768.96
611.193	20822.21
611.389	20527.3
611.584	20885.7
611.78	20734.15
611.976	20543.69
612.171	20984
612.367	20568.26
612.562	20728
612.758	20316.36
612.953	20287.69
613.149	20781.25
613.344	20445.38
613.539	20668.61
613.735	20353.23
613.93	20535.49
614.126	20256.97
614.321	20371.66
614.517	20246.73
614.712	20078.8
614.907	20007.12
615.103	20132.04
615.298	20078.8
615.493	20326.6
615.688	19998.93
615.884	20211.92
616.079	19689.68
616.274	19863.76
616.47	19900.62
616.665	19402.97
616.86	19769.55
617.055	19728.59
617.25	19550.42
617.445	19640.53
617.641	19228.89
617.836	19269.85
618.031	19069.15
618.226	19540.18
618.421	19566.81
618.616	19144.92
618.811	18997.47
619.006	19579.09
619.201	18794.72
619.396	19052.77
619.591	18886.88
619.786	18979.04
619.981	18661.6
620.176	18987.23
620.371	18604.26
620.566	18604.26
620.761	18512.1
620.956	18653.41
621.151	18079.98
621.346	18340.07
621.541	18106.6
621.735	18131.18
621.93	17764.59
622.125	17891.57
622.32	17617.14
622.515	17805.55
622.709	17500.4
622.904	17651.95
623.099	17608.95
623.294	17516.79
623.488	17101.05
623.683	17367.29
623.878	17144.06
624.072	17144.06
624.267	16855.29
624.462	16834.82
624.656	16642.31
624.851	16783.62
625.046	16632.07
625.24	16623.87
625.435	16441.61
625.629	16496.9
625.824	16230.66
626.018	16189.7
626.213	15718.67
626.407	16210.18
626.602	15847.69
626.796	15876.37
626.991	15692.05
627.185	15628.56
627.38	15618.32
627.574	15550.74
627.768	15337.75
627.963	15302.93
628.157	15178.01
628.352	15229.21
628.546	15046.94
628.74	15268.12
628.935	14801.18
629.129	15112.47
629.323	14952.73
629.517	14889.24
629.712	14842.14
629.906	14543.14
630.1	14356.77
630.294	14405.92
630.489	14278.95
630.683	14381.35
630.877	14037.29
631.071	14227.75
631.265	14194.98
631.459	14035.24
631.653	13728.05
631.848	13746.48
632.042	13869.36
632.236	13627.7
632.43	13670.7
632.624	13857.07
632.818	13599.02
633.012	13435.19
633.206	13447.47
633.4	13340.98
633.594	13220.15
633.788	13105.46
633.982	13257.01
634.176	13048.12
634.369	13050.17
634.563	13039.93
634.757	12644.67
634.951	12710.21
635.145	12769.6
635.339	12810.56
635.533	12456.26
635.726	12605.76
635.92	12640.58
636.114	12394.82
636.308	12243.27
636.501	12476.74
636.695	12464.45
636.889	12015.94
637.083	12042.57
637.276	12173.64
637.47	11968.84
637.664	12020.04
637.857	11794.76
638.051	11827.53
638.244	11598.16
638.438	11755.85
638.632	11587.92
638.825	11506
639.019	11536.72
639.212	11387.22
639.406	11268.44
639.599	11247.96
639.793	11309.4
639.986	11254.1
640.18	11161.94
640.373	11163.99
640.567	10936.67
640.76	10893.66
640.954	10830.17
641.147	10801.5
641.34	10854.75
641.534	10795.36
641.727	10643.81
641.92	10553.69
642.114	10432.86
642.307	10318.18
642.5	10459.49
642.694	10400.1
642.887	10217.83
643.08	10285.41
643.273	10185.06
643.467	10211.68
643.66	10205.54
643.853	9931.11
644.046	10019.18
644.239	10107.24
644.432	9929.06
644.626	9699.69
644.819	9703.79
645.012	9953.64
645.205	9701.74
645.398	9853.29
645.591	9535.85
645.784	9539.95
645.977	9408.88
646.17	9447.79
646.363	9435.5
646.556	9484.66
646.749	9341.3
646.942	9226.61
647.135	9146.74
647.328	9001.33
647.521	9236.85
647.714	8943.99
647.907	9060.73
648.099	8892.79
648.292	8864.12
648.485	8802.68
648.678	8843.64
648.871	8708.48
649.064	8845.69
649.256	8714.62
649.449	8614.27
649.642	8360.32
649.835	8505.73
650.027	8610.17
650.22	8485.25
650.413	8534.4
650.605	8356.22
650.798	8407.42
650.991	8210.82
651.183	8364.42
651.376	8180.1
651.568	8227.2
651.761	8112.52
651.954	8081.8
652.146	8141.19
652.339	8149.38
652.531	7821.7
652.724	7977.35
652.916	7833.99
653.109	7856.52
653.301	7872.9
653.494	7786.89
653.686	7578
653.879	7967.11
654.071	7723.4
654.263	7631.24
654.456	7616.91
654.648	7641.48
654.84	7485.84
655.033	7465.36
655.225	7291.28
655.417	7199.12
655.61	7459.21
655.802	7303.57
655.994	7147.92
656.186	7365.01
656.379	7199.12
656.571	7166.35
656.763	7100.82
656.955	7094.68
657.148	7029.14
657.34	6996.37
657.532	6943.13
657.724	6857.11
657.916	6920.6
658.108	6748.57
658.3	6803.86
658.492	6746.52
658.684	6723.99
658.876	6728.09
659.068	6779.29
659.26	6537.63
659.452	6701.47
659.644	6746.52
659.836	6621.59
660.028	6629.79
660.22	6461.85
660.412	6508.96
660.604	6379.93
660.796	6394.27
660.988	6400.41
661.18	6306.21
661.372	6355.36
661.563	6330.78
661.755	6107.55
661.947	6218.15
662.139	6181.28
662.331	6044.07
662.522	6130.08
662.714	6130.08
662.906	6201.76
663.097	5806.5
663.289	5872.04
663.481	5826.98
663.673	6029.73
663.864	5853.61
664.056	5786.02
664.247	5869.99
664.439	5806.5
664.631	5884.33
664.822	5706.15
665.014	5792.17
665.205	5593.51
665.397	5689.77
665.588	5812.65
665.78	5652.91
665.971	5609.9
666.163	5560.75
666.354	5556.65
666.546	5405.1
666.737	5235.12
666.929	5466.54
667.12	5581.23
667.311	5396.91
667.503	5398.96
667.694	5335.47
667.885	5366.19
668.077	5198.26
668.268	5319.09
668.459	5288.37
668.651	5216.69
668.842	5175.73
669.033	5147.06
669.224	5077.43
669.416	5290.42
669.607	5298.61
669.798	5118.39
669.989	5155.25
670.18	5151.15
670.371	5071.28
670.563	4975.03
670.754	5140.91
670.945	4999.6
671.136	4915.64
671.327	4819.38
671.518	4903.35
671.709	4929.97
671.9	4868.53
672.091	4903.35
672.282	4960.69
672.473	4809.14
672.664	4784.57
672.855	4716.98
673.046	4800.95
673.237	4813.24
673.428	4620.73
673.619	4690.36
673.809	4635.07
674	4749.75
674.191	4628.92
674.382	4606.39
674.573	4583.87
674.764	4575.67
674.954	4669.88
675.145	4637.11
675.336	4532.67
675.527	4512.19
675.717	4420.03
675.908	4424.12
676.099	4614.59
676.289	4460.99
676.48	4450.75
676.671	4415.93
676.861	4510.14
677.052	4448.7
677.243	4420.03
677.433	4422.08
677.624	4460.99
677.814	4460.99
678.005	4315.58
678.195	4381.12
678.386	4442.56
678.576	4381.12
678.767	4420.03
678.957	4248
679.148	4364.73
679.338	4331.97
679.529	4395.45
679.719	4305.34
679.909	4571.58
680.1	4299.2
680.29	4342.21
680.481	4075.97
680.671	4415.93
680.861	4288.96
681.052	4372.93
681.242	4157.89
681.432	4321.73
681.622	4065.73
681.813	4190.66
682.003	4059.59
682.193	4168.13
682.383	4149.7
682.573	4241.86
682.764	4204.99
682.954	4092.35
683.144	4262.33
683.334	4118.98
683.524	4043.2
683.714	4166.08
683.904	4012.48
684.094	4053.44
684.284	4053.44
684.474	4057.54
684.664	4086.21
684.854	4071.87
685.044	4116.93
685.234	3867.08
685.424	4030.91
685.614	3903.94
685.804	4151.74
685.994	3994.05
686.184	4010.43
686.374	3897.8
686.564	3924.42
686.753	3785.16
686.943	3858.89
687.133	3776.97
687.323	3953.09
687.513	3955.14
687.702	3801.54
687.892	3760.58
688.082	3762.63
688.272	3830.21
688.461	3682.76
688.651	3641.8
688.841	3774.92
689.03	3596.75
689.22	3752.39
689.41	3645.9
689.599	3617.22
689.789	3684.81
689.979	3600.84
690.168	3668.42
690.358	3654.09
690.547	3600.84
690.737	3516.87
690.926	3545.55
691.116	3551.69
691.305	3568.07
691.495	3578.31
691.684	3563.98
691.874	3606.98
692.063	3434.96
692.252	3445.2
692.442	3342.8
692.631	3486.15
692.82	3520.97
693.01	3430.86
693.199	3453.39
693.388	3412.43
693.578	3346.89
693.767	3457.48
693.956	3396.04
694.146	3353.04
694.335	3250.64
694.524	3342.8
694.713	3299.79
694.902	3338.7
695.092	3346.89
695.281	3332.56
695.47	3332.56
695.659	3330.51
695.848	3287.5
696.037	3234.25
696.226	3240.4
696.415	3226.06
696.604	3226.06
696.793	3230.16
696.982	3244.49
697.171	3328.46
697.36	3051.99
697.549	3199.44
697.738	3195.34
697.927	3142.1
698.116	3183.06
698.305	3158.48
698.494	3232.21
698.683	2994.64
698.872	3111.38
699.061	3049.94
699.25	3158.48
699.438	3199.44
699.627	3221.97
699.816	3117.52
700.005	2990.55
700.193	3029.46
700.382	3230.16
700.571	3084.75
700.76	3019.22
700.948	3221.97
701.137	3013.07
701.326	3191.25
701.514	3047.89
701.703	3031.51
701.892	2976.21
702.08	3060.18
702.269	3004.88
702.457	2998.74
702.646	3113.42
702.834	2914.77
703.023	3054.03
703.212	3021.27
703.4	3207.63
703.589	3076.56
703.777	3006.93
703.965	3125.71
704.154	3049.94
704.342	2957.78
704.531	3062.23
704.719	2945.49
704.907	2996.69
705.096	2839
705.284	2834.9
705.472	2800.09
705.661	3035.6
705.849	2988.5
706.037	2998.74
706.226	3013.07
706.414	2793.94
706.602	2906.58
706.79	2980.31
706.979	2879.96
707.167	2904.53
707.355	2871.76
707.543	2900.44
707.731	2925.01
707.919	2961.87
708.107	2912.72
708.296	2890.2
708.484	2900.44
708.672	2853.33
708.86	2994.64
709.048	2875.86
709.236	2884.05
709.424	2857.43
709.612	2826.71
709.8	2818.52
709.988	2900.44
710.176	2898.39
710.364	2945.49
710.551	2816.47
710.739	2824.66
710.927	2953.68
711.115	2816.47
711.303	2765.27
711.491	2787.8
711.679	2798.04
711.866	2787.8
712.054	2765.27
712.242	2740.69
712.43	2800.09
712.617	2732.5
712.805	2789.85
712.993	2716.12
713.181	2863.57
713.368	2759.13
713.556	2824.66
713.744	2611.67
713.931	2761.17
714.119	2650.58
714.306	2867.67
714.494	2757.08
714.682	2781.65
714.869	2707.93
715.057	2611.67
715.244	2740.69
715.432	2666.97
715.619	2689.49
715.807	2693.59
715.994	2652.63
716.182	2742.74
716.369	2703.83
716.556	2613.72
716.744	2646.49
716.931	2771.41
717.119	2691.54
717.306	2619.86
717.493	2642.39
717.681	2666.97
717.868	2589.14
718.055	2617.82
718.242	2789.85
718.43	2662.87
718.617	2734.55
718.804	2605.53
718.991	2611.67
719.179	2583
719.366	2544.09
719.553	2626.01
719.74	2750.93
719.927	2695.64
720.114	2585.05
720.301	2521.56
720.488	2714.07
720.676	2552.28
720.863	2603.48
721.05	2650.58
721.237	2521.56
721.424	2523.61
721.611	2537.95
721.798	2564.57
721.985	2552.28
722.172	2470.36
722.358	2496.99
722.545	2539.99
722.732	2503.13
722.919	2578.9
723.106	2544.09
723.293	2548.19
723.48	2462.17
723.667	2585.05
723.853	2603.48
724.04	2507.23
724.227	2576.86
724.414	2476.51
724.6	2527.71
724.787	2535.9
724.974	2638.3
725.161	2439.64
725.347	2415.07
725.534	2509.27
725.72	2494.94
725.907	2544.09
726.094	2501.08
726.28	2398.68
726.467	2447.83
726.653	2472.41
726.84	2421.21
727.027	2548.19
727.213	2318.81
727.4	2521.56
727.586	2511.32
727.773	2413.02
727.959	2421.21
728.145	2365.92
728.332	2486.75
728.518	2476.51
728.705	2453.98
728.891	2429.4
729.077	2322.91
729.264	2343.39
729.45	2341.34
729.636	2359.77
729.823	2343.39
730.009	2300.38
730.195	2429.4
730.382	2345.44
730.568	2449.88
730.754	2284
730.94	2294.24
731.126	2302.43
731.313	2355.68
731.499	2331.1
731.685	2462.17
731.871	2417.12
732.057	2294.24
732.243	2363.87
732.429	2380.25
732.615	2488.79
732.801	2324.96
732.987	2257.37
733.173	2243.04
733.359	2318.81
733.545	2214.37
733.731	2240.99
733.917	2357.72
734.103	2320.86
734.289	2363.87
734.475	2255.33
734.661	2284
734.847	2335.2
735.033	2308.57
735.219	2335.2
735.404	2284
735.59	2208.22
735.776	2167.26
735.962	2290.14
736.148	2284
736.333	2331.1
736.519	2230.75
736.705	2267.61
736.89	2302.43
737.076	2251.23
737.262	2144.74
737.447	2222.56
737.633	2169.31
737.819	2257.37
738.004	2185.69
738.19	2212.32
738.375	2206.17
738.561	2265.57
738.747	2240.99
738.932	2234.85
739.118	2183.65
739.303	2265.57
739.489	2204.13
739.674	2085.34
739.859	2142.69
740.045	2171.36
740.23	2167.26
740.416	2107.87
740.601	2185.69
740.786	2030.05
740.972	2136.54
741.157	2071.01
741.342	2134.5
741.528	2150.88
741.713	2122.21
741.898	1978.85
742.084	2050.53
742.269	2103.78
742.454	2011.62
742.639	2077.15
742.824	1999.33
743.01	2019.81
743.195	2120.16
743.38	1917.41
743.565	1946.08
743.75	1876.45
743.935	1995.23
744.12	1933.79
744.305	1939.94
744.49	1933.79
744.675	1915.36
744.86	2089.44
745.045	1933.79
745.23	1923.55
745.415	1817.06
745.6	1907.17
745.785	1880.55
745.97	1858.02
746.155	1817.06
746.34	1796.58
746.525	1778.15
746.71	1829.35
746.895	1833.44
747.079	1798.63
747.264	1716.71
747.449	1794.53
747.634	1774.05
747.819	1706.47
748.003	1802.72
748.188	1704.42
748.373	1726.95
748.557	1755.62
748.742	1647.08
748.927	1675.75
749.111	1667.56
749.296	1661.41
749.481	1667.56
749.665	1593.83
749.85	1679.85
750.034	1642.98
750.219	1571.3
750.404	1665.51
750.588	1669.61
750.773	1577.45
750.957	1538.54
751.141	1593.83
751.326	1561.06
751.51	1505.77
751.695	1604.07
751.879	1614.31
752.064	1567.21
752.248	1501.67
752.432	1432.04
752.617	1479.15
752.801	1421.8
752.985	1475.05
753.17	1411.56
753.354	1366.51
753.538	1384.94
753.722	1528.3
753.907	1372.65
754.091	1364.46
754.275	1348.08
754.459	1331.69
754.643	1382.89
754.828	1429.99
755.012	1364.46
755.196	1421.8
755.38	1278.44
755.564	1253.87
755.748	1391.08
755.932	1409.51
756.116	1270.25
756.3	1243.63
756.484	1286.64
756.668	1217.01
756.852	1196.53
757.036	1288.68
757.22	1298.92
757.404	1167.85
757.588	1225.2
757.772	1206.77
757.956	1243.63
758.14	1120.75
758.323	1139.18
758.507	1178.09
758.691	1227.25
758.875	1194.48
759.059	1262.06
759.242	1171.95
759.426	1145.33
759.61	1147.37
759.794	1085.94
759.977	1145.33
760.161	1194.48
760.345	1135.09
760.528	1077.74
760.712	1049.07
760.895	1130.99
761.079	1071.6
761.263	1081.84
761.446	1120.75
761.63	1047.02
761.813	1032.69
761.997	1032.69
762.18	987.63
762.364	1126.89
762.547	1073.65
762.731	1004.02
762.914	1034.74
763.098	948.72
763.281	1024.5
763.464	940.53
763.648	999.92
763.831	969.2
764.015	932.34
764.198	999.92
764.381	967.15
764.564	860.66
764.748	995.82
764.931	967.15
765.114	979.44
765.297	993.78
765.481	948.72
765.664	940.53
765.847	881.14
766.03	883.19
766.213	975.35
766.397	958.96
766.58	883.19
766.763	1016.3
766.946	922.1
767.129	981.49
767.312	868.85
767.495	1022.45
767.678	846.32
767.861	913.91
768.044	975.35
768.227	866.8
768.41	922.1
768.593	850.42
768.776	926.19
768.959	920.05
769.142	899.57
769.324	807.41
769.507	874.99
769.69	877.04
769.873	823.8
770.056	920.05
770.239	774.64
770.421	885.23
770.604	725.49
770.787	791.03
770.97	834.04
771.152	840.18
771.335	758.26
771.518	852.47
771.7	821.75
771.883	819.7
772.066	782.84
772.248	831.99
772.431	803.32
772.613	842.23
772.796	807.41
772.978	815.6
773.161	756.21
773.343	705.01
773.526	780.79
773.708	659.96
773.891	758.26
774.073	760.31
774.256	700.92
774.438	741.88
774.621	692.73
774.803	627.19
774.985	774.64
775.168	752.12
775.35	741.88
775.532	766.45
775.715	799.22
775.897	799.22
776.079	707.06
776.261	709.11
776.444	641.53
776.626	635.38
776.808	702.97
776.99	629.24
777.173	676.34
777.355	545.27
777.537	655.86
777.719	682.49
777.901	621.05
778.083	586.23
778.265	537.08
778.447	692.73
778.629	619
778.811	719.35
778.993	545.27
779.175	621.05
779.357	635.38
779.539	610.81
779.721	539.13
779.903	610.81
780.085	571.9
780.267	594.42
780.449	557.56
780.631	610.81
780.812	543.22
780.994	676.34
781.176	535.03
781.358	506.36
781.54	475.64
781.721	578.04
781.903	520.7
782.085	473.59
782.267	516.6
782.448	481.78
782.63	537.08
782.812	561.66
782.993	522.74
783.175	463.35
783.357	487.93
783.538	547.32
783.72	479.74
783.901	487.93
784.083	412.15
784.264	406.01
784.446	401.91
784.627	424.44
784.809	481.78
784.99	526.84
785.172	446.97
785.353	449.02
785.535	451.07
785.716	526.84
785.897	430.59
786.079	430.59
786.26	424.44
786.441	420.35
786.623	356.86
786.804	496.12
786.985	375.29
787.167	481.78
787.348	367.1
787.529	451.07
787.71	422.39
787.891	328.19
788.073	442.87
788.254	367.1
788.435	399.87
788.616	354.81
788.797	365.05
788.978	315.9
789.159	408.06
789.34	395.77
789.522	322.04
789.703	363
789.884	363
790.065	406.01
790.246	399.87
790.427	358.91
790.607	406.01
790.788	324.09
790.969	315.9
791.15	373.24
791.331	363
791.512	283.13
791.693	363
791.874	258.56
792.054	332.28
792.235	252.41
792.416	399.87
792.597	358.91
792.778	383.48
792.958	311.8
793.139	381.43
793.32	410.11
793.5	221.69
793.681	422.39
793.862	336.38
794.042	307.71
794.223	262.65
794.404	324.09
794.584	287.23
794.765	295.42
794.945	274.94
795.126	315.9
795.306	344.57
795.487	276.99
795.667	260.6
795.848	266.75
796.028	348.67
796.209	315.9
796.389	279.04
796.57	260.6
796.75	217.6
796.93	348.67
797.111	324.09
797.291	297.47
797.471	350.71
797.652	332.28
797.832	201.21
798.012	324.09
798.192	258.56
798.373	244.22
798.553	274.94
798.733	233.98
798.913	236.03
799.093	225.79
799.274	186.88
799.454	244.22
799.634	252.41
799.814	340.47
799.994	299.52
800.174	266.75
800.354	324.09
800.534	264.7
800.714	283.13
800.894	178.69
801.074	193.02
801.254	242.17
801.434	283.13
801.614	274.94
801.794	178.69
801.974	758.26
802.154	178.69
802.334	295.42
802.514	209.4
802.693	172.54
802.873	225.79
803.053	285.18
803.233	246.27
803.413	244.22
803.592	262.65
803.772	135.68
803.952	262.65
804.131	254.46
804.311	209.4
804.491	225.79
804.67	197.12
804.85	102.91
805.03	184.83
805.209	244.22
805.389	231.93
805.568	250.36
805.748	166.4
805.928	236.03
806.107	211.45
806.287	236.03
806.466	221.69
806.646	254.46
806.825	137.73
807.004	221.69
807.184	205.31
807.363	254.46
807.543	229.88
807.722	170.49
807.901	188.93
808.081	197.12
808.26	184.83
808.439	254.46
808.619	143.87
808.798	176.64
808.977	201.21
809.156	205.31
809.336	248.32
809.515	143.87
809.694	82.43
809.873	133.63
810.052	186.88
810.231	184.83
810.411	244.22
810.59	139.77
810.769	186.88
810.948	176.64
811.127	176.64
811.306	156.16
811.485	186.88
811.664	211.45
811.843	164.35
812.022	123.39
812.201	195.07
812.38	152.06
812.559	80.38
812.737	227.84
812.916	127.49
813.095	172.54
813.274	111.1
813.453	160.25
813.632	162.3
813.811	162.3
813.989	94.72
814.168	174.59
814.347	172.54
814.526	207.36
814.704	160.25
814.883	188.93
815.062	127.49
815.24	174.59
815.419	141.82
815.598	119.29
815.776	147.97
815.955	143.87
816.133	123.39
816.312	123.39
816.49	186.88
816.669	150.01
816.847	152.06
817.026	135.68
817.204	147.97
817.383	113.15
817.561	96.77
817.74	168.45
817.918	135.68
818.097	129.53
818.275	104.96
818.453	184.83
818.632	139.77
818.81	90.62
818.988	102.91
819.167	162.3
819.345	143.87
819.523	129.53
819.701	86.53
819.879	168.45
820.058	193.02
820.236	147.97
820.414	147.97
820.592	139.77
820.77	213.5
820.948	166.4
821.127	96.77
821.305	154.11
821.483	90.62
821.661	143.87
821.839	127.49
822.017	98.81
822.195	86.53
822.373	186.88
822.551	59.9
822.729	80.38
822.907	61.95
823.085	154.11
823.262	80.38
823.44	225.79
823.618	162.3
823.796	78.33
823.974	129.53
824.152	86.53
824.329	152.06
824.507	176.64
824.685	156.16
824.863	113.15
825.04	111.1
825.218	113.15
825.396	127.49
825.574	197.12
825.751	98.81
825.929	156.16
826.107	57.86
826.284	86.53
826.462	147.97
826.639	137.73
826.817	68.09
826.994	117.25
827.172	109.05
827.349	162.3
827.527	123.39
827.704	82.43
827.882	176.64
828.059	111.1
828.237	127.49
828.414	78.33
828.591	51.71
828.769	74.24
828.946	57.86
829.124	154.11
829.301	135.68
829.478	16.9
829.655	70.14
829.833	154.11
830.01	121.34
830.187	154.11
830.364	72.19
830.542	70.14
830.719	123.39
830.896	152.06
831.073	147.97
831.25	137.73
831.427	188.93
831.604	74.24
831.782	96.77
831.959	113.15
832.136	57.86
832.313	121.34
832.49	88.57
832.667	61.95
832.844	104.96
833.021	66.05
833.198	49.66
833.374	98.81
833.551	125.44
833.728	104.96
833.905	72.19
834.082	88.57
834.259	119.29
834.436	98.81
834.612	76.29
834.789	100.86
834.966	47.62
835.143	129.53
835.319	45.57
835.496	111.1
835.673	68.09
835.85	135.68
836.026	70.14
836.203	94.72
836.38	35.33
836.556	88.57
836.733	70.14
836.909	86.53
837.086	72.19
837.262	29.18
837.439	74.24
837.616	121.34
837.792	70.14
837.968	96.77
838.145	47.62
838.321	78.33
838.498	53.76
838.674	111.1
838.851	45.57
839.027	66.05
839.203	94.72
839.38	102.91
839.556	51.71
839.732	119.29
839.909	78.33
840.085	133.63
840.261	51.71
840.437	27.14
840.614	96.77
840.79	121.34
840.966	61.95
841.142	96.77
841.318	64
841.494	135.68
841.671	80.38
841.847	64
842.023	-11.78
842.199	64
842.375	141.82
842.551	96.77
842.727	2.56
842.903	82.43
843.079	43.52
843.255	190.97
843.431	37.38
843.607	115.2
843.783	33.28
843.959	82.43
844.134	-15.87
844.31	53.76
844.486	88.57
844.662	139.77
844.838	-3.58
845.013	72.19
845.189	123.39
845.365	74.24
845.541	47.62
845.716	53.76
845.892	61.95
846.068	20.99
846.244	6.66
846.419	131.58
846.595	33.28
846.77	35.33
846.946	41.47
847.122	107.01
847.297	78.33
847.473	127.49
847.648	10.75
847.824	57.86
847.999	49.66
848.175	14.85
848.35	59.9
848.526	20.99
848.701	20.99
848.876	47.62
849.052	66.05
849.227	64
849.403	180.73
849.578	0.51
849.753	78.33
849.929	64
850.104	61.95
850.279	23.04
850.454	-44.54
850.63	39.42
850.805	33.28
850.98	68.09
851.155	64
851.33	16.9
851.505	31.23
851.681	70.14
851.856	39.42
852.031	53.76
852.206	2.56
852.381	45.57
852.556	37.38
852.731	82.43
852.906	49.66
853.081	35.33
853.256	115.2
853.431	37.38
853.606	53.76
853.781	53.76
853.956	4.61
854.131	14.85
854.305	-17.92
854.48	33.28
854.655	37.38
854.83	61.95
855.005	39.42
855.18	-19.97
855.354	23.04
855.529	70.14
855.704	16.9
855.879	90.62
856.053	14.85
856.228	39.42
856.403	94.72
856.577	33.28
856.752	10.75
856.926	37.38
857.101	41.47
857.276	-15.87
857.45	14.85
857.625	12.8
857.799	57.86
857.974	31.23
858.148	25.09
858.323	53.76
858.497	4.61
858.672	29.18
858.846	16.9
859.02	27.14
859.195	16.9
859.369	0.51
859.543	49.66
859.718	29.18
859.892	53.76
860.066	-11.78
860.241	37.38
860.415	61.95
860.589	20.99
860.763	12.8
860.938	33.28
861.112	53.76
861.286	12.8
861.46	82.43
861.634	-56.83
861.808	94.72
861.982	-1.54
862.157	-11.78
862.331	-15.87
862.505	39.42
862.679	-1.54
862.853	55.81
863.027	-15.87
863.201	145.92
863.375	129.53
863.549	43.52
863.722	70.14
863.896	0.51
864.07	39.42
864.244	37.38
864.418	102.91
864.592	35.33
864.766	104.96
864.939	31.23
865.113	-58.88
865.287	115.2
865.461	74.24
865.634	72.19
865.808	-19.97
865.982	-34.3
866.156	-30.21
866.329	51.71
866.503	33.28
866.676	53.76
866.85	-7.68
867.024	12.8
867.197	49.66
867.371	143.87
867.544	51.71
867.718	37.38
867.891	-1.54
868.065	64
868.238	-11.78
868.412	55.81
868.585	-15.87
868.759	6.66
868.932	-19.97
869.105	-34.3
869.279	96.77
869.452	55.81
869.625	74.24
869.799	72.19
869.972	20.99
870.145	-32.26
870.319	18.94
870.492	16.9
870.665	20.99
870.838	37.38
871.011	23.04
871.185	-24.06
871.358	20.99
871.531	35.33
871.704	8.7
871.877	66.05
872.05	20.99
872.223	16.9
872.396	80.38
872.569	45.57
872.742	-1.54
872.915	27.14
873.088	16.9
873.261	61.95
873.434	123.39
873.607	16.9
873.78	2.56
873.953	-11.78
874.126	96.77
874.299	33.28
874.471	8.7
874.644	82.43
874.817	33.28
874.99	129.53
875.163	18.94
875.335	70.14
875.508	16.9
875.681	72.19
875.853	-9.73
876.026	8.7
876.199	29.18
876.371	57.86
876.544	35.33
876.717	23.04
876.889	45.57
877.062	-3.58
877.234	49.66
877.407	-3.58
877.579	45.57
877.752	8.7
877.924	12.8
878.097	-17.92
878.269	29.18
878.442	53.76
878.614	51.71
878.786	23.04
878.959	-15.87
879.131	20.99
879.303	2.56
879.476	-3.58
879.648	123.39
879.82	31.23
879.993	61.95
880.165	49.66
880.337	41.47
880.509	111.1
880.681	8.7
880.854	-26.11
881.026	-3.58
881.198	45.57
881.37	23.04
881.542	-40.45
881.714	20.99
881.886	-17.92
882.058	49.66
882.23	61.95
882.402	-11.78
882.574	45.57
882.746	68.09
882.918	45.57
883.09	33.28
883.262	45.57
883.434	20.99
883.606	-30.21
883.778	-69.12
883.95	29.18
884.122	-34.3
884.293	88.57
884.465	2.56
884.637	90.62
884.809	14.85
884.98	84.48
885.152	78.33
885.324	6.66
885.496	-67.07
885.667	-19.97
885.839	49.66
886.011	45.57
886.182	0.51
886.354	8.7
886.525	-17.92
886.697	90.62
886.869	-34.3
887.04	31.23
887.212	31.23
887.383	68.09
887.555	39.42
887.726	-40.45
887.897	-42.5
888.069	23.04
888.24	39.42
888.412	-1.54
888.583	-28.16
888.754	-22.02
888.926	6.66
889.097	-9.73
889.268	-28.16
889.44	4.61
889.611	49.66
889.782	-7.68
889.953	20.99
890.125	158.21
890.296	-81.41
890.467	37.38
890.638	8.7
890.809	39.42
890.98	70.14
891.151	31.23
891.323	64
891.494	8.7
891.665	37.38
891.836	43.52
892.007	64
892.178	53.76
892.349	-54.78
892.52	-19.97
892.691	47.62
892.862	121.34
893.032	-15.87
893.203	31.23
893.374	31.23
893.545	51.71
893.716	31.23
893.887	123.39
894.057	86.53
894.228	31.23
894.399	31.23
894.57	84.48
894.74	25.09
894.911	-56.83
895.082	12.8
895.253	6.66
895.423	27.14
895.594	74.24
895.764	41.47
895.935	61.95
896.106	64
896.276	-50.69
896.447	8.7
896.617	70.14
896.788	6.66
896.958	-28.16
897.129	37.38
897.299	-24.06
897.47	88.57
897.64	86.53
897.81	-5.63
897.981	37.38
898.151	39.42
898.322	-5.63
898.492	72.19
898.662	23.04
898.832	90.62
899.003	64
899.173	27.14
899.343	31.23
899.513	16.9
