Data from USB4F104151__211__14-21-08-073.txt Node

Date: Thu Mar 13 14:21:08 EDT 2025
User: louis
Spectrometer: USB4F10415
Trigger mode: 4
Integration Time (sec): 2.000000E-2
Scans to average: 1
Electric dark correction enabled: true
Nonlinearity correction enabled: false
Boxcar width: 0
XAxis mode: Wavelengths
Number of Pixels in Spectrum: 3648
>>>>>Begin Spectral Data<<<<<
178.204	-66.56
178.424	-66.56
178.644	-66.56
178.864	-87.04
179.084	-134.14
179.304	5.12
179.524	-74.75
179.744	-33.79
179.964	74.75
180.184	29.7
180.404	15.36
180.624	21.5
180.844	-1.02
181.064	7.17
181.283	17.41
181.503	-68.61
181.723	7.17
181.943	-91.13
182.163	84.99
182.383	35.84
182.602	50.18
182.822	23.55
183.042	72.7
183.262	31.74
183.482	54.27
183.701	-13.31
183.921	31.74
184.141	-5.12
184.361	27.65
184.58	-23.55
184.8	50.18
185.02	33.79
185.239	56.32
185.459	48.13
185.679	68.61
185.898	-7.17
186.118	93.18
186.338	70.65
186.557	23.55
186.777	-17.41
186.997	-11.26
187.216	-9.22
187.436	17.41
187.655	138.24
187.875	-11.26
188.095	27.65
188.314	91.13
188.534	-5.12
188.753	23.55
188.973	-11.26
189.192	66.56
189.412	23.55
189.631	5.12
189.851	105.47
190.07	76.8
190.29	-23.55
190.509	-15.36
190.729	39.94
190.948	31.74
191.168	123.9
191.387	17.41
191.607	-15.36
191.826	72.7
192.045	9.22
192.265	72.7
192.484	3.07
192.704	95.23
192.923	27.65
193.142	80.89
193.362	35.84
193.581	80.89
193.8	58.37
194.02	80.89
194.239	31.74
194.458	-46.08
194.678	87.04
194.897	103.42
195.116	-11.26
195.335	33.79
195.555	52.22
195.774	19.46
195.993	33.79
196.212	25.6
196.432	-5.12
196.651	48.13
196.87	19.46
197.089	91.13
197.308	7.17
197.528	132.09
197.747	-13.31
197.966	66.56
198.185	91.13
198.404	9.22
198.623	44.03
198.842	-21.5
199.062	74.75
199.281	113.66
199.5	60.42
199.719	64.51
199.938	58.37
200.157	1.02
200.376	162.81
200.595	58.37
200.814	9.22
201.033	-9.22
201.252	103.42
201.471	-56.32
201.69	93.18
201.909	76.8
202.128	80.89
202.347	35.84
202.566	78.85
202.785	56.32
203.004	-17.41
203.223	56.32
203.442	44.03
203.661	80.89
203.879	68.61
204.098	58.37
204.317	-17.41
204.536	41.98
204.755	35.84
204.974	62.46
205.193	29.7
205.411	130.05
205.63	64.51
205.849	56.32
206.068	39.94
206.287	27.65
206.505	33.79
206.724	41.98
206.943	48.13
207.162	25.6
207.381	15.36
207.599	58.37
207.818	48.13
208.037	72.7
208.255	89.09
208.474	44.03
208.693	56.32
208.911	44.03
209.13	54.27
209.349	27.65
209.567	39.94
209.786	52.22
210.005	23.55
210.223	7.17
210.442	41.98
210.661	72.7
210.879	19.46
211.098	121.85
211.316	7.17
211.535	5.12
211.753	58.37
211.972	80.89
212.191	48.13
212.409	23.55
212.628	68.61
212.846	7.17
213.065	23.55
213.283	25.6
213.502	29.7
213.72	58.37
213.938	91.13
214.157	58.37
214.375	27.65
214.594	25.6
214.812	19.46
215.031	23.55
215.249	-1.02
215.467	105.47
215.686	7.17
215.904	82.94
216.122	48.13
216.341	9.22
216.559	33.79
216.778	44.03
216.996	-31.74
217.214	48.13
217.432	-25.6
217.651	-25.6
217.869	-37.89
218.087	15.36
218.306	-44.03
218.524	62.46
218.742	11.26
218.96	74.75
219.179	23.55
219.397	31.74
219.615	66.56
219.833	56.32
220.051	39.94
220.27	74.75
220.488	5.12
220.706	74.75
220.924	93.18
221.142	5.12
221.36	7.17
221.578	60.42
221.796	21.5
222.015	80.89
222.233	-29.7
222.451	7.17
222.669	50.18
222.887	80.89
223.105	-15.36
223.323	62.46
223.541	-21.5
223.759	23.55
223.977	-9.22
224.195	99.33
224.413	89.09
224.631	134.14
224.849	44.03
225.067	44.03
225.285	-33.79
225.503	15.36
225.721	-23.55
225.939	17.41
226.157	97.28
226.375	62.46
226.592	-23.55
226.81	-54.27
227.028	37.89
227.246	66.56
227.464	-1.02
227.682	31.74
227.9	15.36
228.117	84.99
228.335	-52.22
228.553	3.07
228.771	93.18
228.989	52.22
229.206	23.55
229.424	31.74
229.642	39.94
229.86	9.22
230.077	41.98
230.295	78.85
230.513	54.27
230.731	25.6
230.948	33.79
231.166	91.13
231.384	37.89
231.601	44.03
231.819	93.18
232.037	37.89
232.254	58.37
232.472	72.7
232.689	3.07
232.907	9.22
233.125	19.46
233.342	56.32
233.56	15.36
233.777	39.94
233.995	56.32
234.213	19.46
234.43	-29.7
234.648	39.94
234.865	-23.55
235.083	97.28
235.3	-37.89
235.518	105.47
235.735	78.85
235.953	25.6
236.17	107.52
236.388	74.75
236.605	39.94
236.822	82.94
237.04	-5.12
237.257	21.5
237.475	17.41
237.692	41.98
237.909	58.37
238.127	-7.17
238.344	60.42
238.562	66.56
238.779	37.89
238.996	1.02
239.214	-41.98
239.431	35.84
239.648	50.18
239.865	39.94
240.083	60.42
240.3	105.47
240.517	27.65
240.735	78.85
240.952	64.51
241.169	41.98
241.386	113.66
241.603	-1.02
241.821	23.55
242.038	48.13
242.255	-3.07
242.472	-39.94
242.689	68.61
242.907	80.89
243.124	9.22
243.341	-23.55
243.558	31.74
243.775	-58.37
243.992	-29.7
244.209	48.13
244.426	117.76
244.643	105.47
244.86	80.89
245.078	58.37
245.295	134.14
245.512	-41.98
245.729	138.24
245.946	64.51
246.163	60.42
246.38	7.17
246.597	21.5
246.814	13.31
247.031	31.74
247.248	87.04
247.464	56.32
247.681	41.98
247.898	60.42
248.115	50.18
248.332	13.31
248.549	68.61
248.766	97.28
248.983	27.65
249.2	25.6
249.417	31.74
249.633	15.36
249.85	66.56
250.067	37.89
250.284	66.56
250.501	72.7
250.717	19.46
250.934	-39.94
251.151	15.36
251.368	23.55
251.585	31.74
251.801	115.71
252.018	-11.26
252.235	25.6
252.451	31.74
252.668	1.02
252.885	76.8
253.102	11.26
253.318	3.07
253.535	7.17
253.752	54.27
253.968	19.46
254.185	39.94
254.401	-39.94
254.618	17.41
254.835	15.36
255.051	107.52
255.268	41.98
255.484	44.03
255.701	41.98
255.917	62.46
256.134	56.32
256.351	58.37
256.567	56.32
256.784	39.94
257	31.74
257.217	66.56
257.433	105.47
257.65	89.09
257.866	76.8
258.082	66.56
258.299	52.22
258.515	89.09
258.732	-1.02
258.948	9.22
259.165	97.28
259.381	11.26
259.597	89.09
259.814	84.99
260.03	62.46
260.246	15.36
260.463	48.13
260.679	89.09
260.895	15.36
261.112	31.74
261.328	9.22
261.544	-3.07
261.761	46.08
261.977	21.5
262.193	-23.55
262.409	23.55
262.626	-1.02
262.842	72.7
263.058	17.41
263.274	105.47
263.49	89.09
263.707	177.15
263.923	39.94
264.139	23.55
264.355	93.18
264.571	54.27
264.787	39.94
265.004	72.7
265.22	64.51
265.436	52.22
265.652	60.42
265.868	37.89
266.084	-9.22
266.3	56.32
266.516	35.84
266.732	89.09
266.948	35.84
267.164	99.33
267.38	37.89
267.596	68.61
267.812	154.62
268.028	89.09
268.244	27.65
268.46	99.33
268.676	50.18
268.892	84.99
269.108	29.7
269.324	134.14
269.54	56.32
269.756	101.37
269.972	97.28
270.188	58.37
270.403	-31.74
270.619	99.33
270.835	99.33
271.051	76.8
271.267	-21.5
271.483	19.46
271.698	60.42
271.914	48.13
272.13	41.98
272.346	48.13
272.562	-13.31
272.777	89.09
272.993	31.74
273.209	1.02
273.425	56.32
273.64	50.18
273.856	17.41
274.072	56.32
274.287	54.27
274.503	125.95
274.719	117.76
274.934	62.46
275.15	-31.74
275.366	72.7
275.581	44.03
275.797	48.13
276.012	62.46
276.228	-17.41
276.444	68.61
276.659	105.47
276.875	19.46
277.09	23.55
277.306	23.55
277.521	17.41
277.737	68.61
277.952	89.09
278.168	64.51
278.383	37.89
278.599	58.37
278.814	64.51
279.03	25.6
279.245	105.47
279.461	123.9
279.676	68.61
279.892	25.6
280.107	48.13
280.322	70.65
280.538	56.32
280.753	-1.02
280.969	138.24
281.184	33.79
281.399	35.84
281.615	-9.22
281.83	78.85
282.045	101.37
282.26	48.13
282.476	78.85
282.691	21.5
282.906	-48.13
283.122	52.22
283.337	15.36
283.552	72.7
283.767	66.56
283.983	84.99
284.198	60.42
284.413	15.36
284.628	72.7
284.843	25.6
285.058	52.22
285.274	115.71
285.489	39.94
285.704	91.13
285.919	-1.02
286.134	17.41
286.349	21.5
286.564	72.7
286.779	91.13
286.995	66.56
287.21	46.08
287.425	80.89
287.64	-9.22
287.855	48.13
288.07	-37.89
288.285	113.66
288.5	31.74
288.715	25.6
288.93	84.99
289.145	58.37
289.36	138.24
289.575	23.55
289.79	99.33
290.004	78.85
290.219	115.71
290.434	72.7
290.649	128
290.864	11.26
291.079	72.7
291.294	64.51
291.509	84.99
291.724	52.22
291.938	66.56
292.153	48.13
292.368	46.08
292.583	64.51
292.798	3.07
293.012	52.22
293.227	23.55
293.442	56.32
293.657	66.56
293.871	54.27
294.086	99.33
294.301	166.91
294.516	58.37
294.73	3.07
294.945	9.22
295.16	33.79
295.374	58.37
295.589	105.47
295.804	15.36
296.018	78.85
296.233	107.52
296.447	39.94
296.662	-25.6
296.877	134.14
297.091	23.55
297.306	33.79
297.52	60.42
297.735	76.8
297.949	-1.02
298.164	101.37
298.378	54.27
298.593	33.79
298.807	52.22
299.022	15.36
299.236	123.9
299.451	25.6
299.665	27.65
299.88	7.17
300.094	9.22
300.309	37.89
300.523	52.22
300.737	9.22
300.952	68.61
301.166	80.89
301.381	11.26
301.595	74.75
301.809	13.31
302.024	17.41
302.238	23.55
302.452	-17.41
302.667	9.22
302.881	50.18
303.095	105.47
303.309	89.09
303.524	58.37
303.738	60.42
303.952	46.08
304.166	31.74
304.381	3.07
304.595	52.22
304.809	17.41
305.023	56.32
305.237	15.36
305.452	101.37
305.666	9.22
305.88	23.55
306.094	68.61
306.308	27.65
306.522	31.74
306.736	56.32
306.95	29.7
307.164	66.56
307.379	-17.41
307.593	35.84
307.807	54.27
308.021	70.65
308.235	74.75
308.449	91.13
308.663	46.08
308.877	173.05
309.091	115.71
309.305	50.18
309.519	1.02
309.733	41.98
309.947	1.02
310.161	60.42
310.374	121.85
310.588	56.32
310.802	3.07
311.016	31.74
311.23	48.13
311.444	48.13
311.658	15.36
311.872	60.42
312.085	5.12
312.299	123.9
312.513	109.57
312.727	146.43
312.941	84.99
313.154	35.84
313.368	52.22
313.582	60.42
313.796	15.36
314.009	-70.65
314.223	44.03
314.437	29.7
314.651	125.95
314.864	136.19
315.078	15.36
315.292	80.89
315.505	54.27
315.719	72.7
315.933	50.18
316.146	72.7
316.36	72.7
316.573	138.24
316.787	27.65
317.001	56.32
317.214	21.5
317.428	107.52
317.641	-17.41
317.855	39.94
318.068	-1.02
318.282	76.8
318.495	23.55
318.709	91.13
318.922	56.32
319.136	44.03
319.349	72.7
319.563	76.8
319.776	15.36
319.99	17.41
320.203	84.99
320.417	60.42
320.63	-9.22
320.843	80.89
321.057	125.95
321.27	84.99
321.483	134.14
321.697	72.7
321.91	41.98
322.124	72.7
322.337	66.56
322.55	25.6
322.763	9.22
322.977	37.89
323.19	68.61
323.403	39.94
323.617	31.74
323.83	60.42
324.043	76.8
324.256	44.03
324.469	-50.18
324.683	95.23
324.896	46.08
325.109	66.56
325.322	9.22
325.535	97.28
325.748	80.89
325.962	64.51
326.175	64.51
326.388	105.47
326.601	60.42
326.814	58.37
327.027	37.89
327.24	115.71
327.453	-9.22
327.666	37.89
327.879	68.61
328.092	60.42
328.305	121.85
328.518	-13.31
328.731	115.71
328.944	31.74
329.157	31.74
329.37	-41.98
329.583	56.32
329.796	113.66
330.009	31.74
330.222	72.7
330.435	48.13
330.648	-5.12
330.861	17.41
331.073	41.98
331.286	19.46
331.499	27.65
331.712	1.02
331.925	48.13
332.138	105.47
332.35	72.7
332.563	7.17
332.776	89.09
332.989	113.66
333.202	82.94
333.414	3.07
333.627	44.03
333.84	52.22
334.053	101.37
334.265	41.98
334.478	52.22
334.691	15.36
334.903	29.7
335.116	91.13
335.329	9.22
335.541	130.05
335.754	107.52
335.966	44.03
336.179	23.55
336.392	-15.36
336.604	101.37
336.817	48.13
337.029	76.8
337.242	93.18
337.454	105.47
337.667	58.37
337.88	68.61
338.092	48.13
338.305	74.75
338.517	25.6
338.729	91.13
338.942	123.9
339.154	87.04
339.367	-11.26
339.579	-1.02
339.792	-7.17
340.004	101.37
340.217	68.61
340.429	39.94
340.641	-9.22
340.854	58.37
341.066	15.36
341.278	115.71
341.491	-1.02
341.703	48.13
341.915	25.6
342.128	121.85
342.34	78.85
342.552	35.84
342.764	41.98
342.977	52.22
343.189	130.05
343.401	33.79
343.613	113.66
343.826	39.94
344.038	-37.89
344.25	119.81
344.462	146.43
344.674	74.75
344.886	101.37
345.099	23.55
345.311	17.41
345.523	109.57
345.735	-25.6
345.947	74.75
346.159	107.52
346.371	72.7
346.583	91.13
346.795	171.01
347.007	-25.6
347.219	162.81
347.431	9.22
347.643	29.7
347.855	52.22
348.067	52.22
348.279	66.56
348.491	68.61
348.703	-44.03
348.915	97.28
349.127	-7.17
349.339	48.13
349.551	-25.6
349.763	84.99
349.975	144.38
350.187	138.24
350.399	89.09
350.61	72.7
350.822	25.6
351.034	13.31
351.246	107.52
351.458	113.66
351.669	58.37
351.881	52.22
352.093	56.32
352.305	1.02
352.517	109.57
352.728	146.43
352.94	44.03
353.152	76.8
353.363	-7.17
353.575	39.94
353.787	109.57
353.999	52.22
354.21	74.75
354.422	-5.12
354.633	-9.22
354.845	58.37
355.057	101.37
355.268	128
355.48	93.18
355.692	35.84
355.903	-31.74
356.115	48.13
356.326	35.84
356.538	62.46
356.749	138.24
356.961	23.55
357.172	23.55
357.384	74.75
357.595	111.61
357.807	99.33
358.018	66.56
358.23	31.74
358.441	107.52
358.653	123.9
358.864	56.32
359.075	-11.26
359.287	50.18
359.498	39.94
359.709	-5.12
359.921	23.55
360.132	97.28
360.344	56.32
360.555	9.22
360.766	105.47
360.977	64.51
361.189	97.28
361.4	23.55
361.611	138.24
361.823	99.33
362.034	56.32
362.245	-11.26
362.456	-7.17
362.667	39.94
362.879	76.8
363.09	44.03
363.301	-5.12
363.512	68.61
363.723	89.09
363.935	66.56
364.146	52.22
364.357	70.65
364.568	58.37
364.779	25.6
364.99	66.56
365.201	44.03
365.412	179.2
365.623	21.5
365.834	89.09
366.045	121.85
366.256	64.51
366.467	89.09
366.678	19.46
366.889	9.22
367.1	5.12
367.311	-23.55
367.522	50.18
367.733	19.46
367.944	56.32
368.155	68.61
368.366	97.28
368.577	78.85
368.788	91.13
368.999	33.79
369.209	84.99
369.42	107.52
369.631	97.28
369.842	11.26
370.053	19.46
370.264	105.47
370.474	1.02
370.685	132.09
370.896	9.22
371.107	121.85
371.317	60.42
371.528	87.04
371.739	70.65
371.95	66.56
372.16	62.46
372.371	19.46
372.582	31.74
372.792	27.65
373.003	80.89
373.214	101.37
373.424	82.94
373.635	56.32
373.846	48.13
374.056	25.6
374.267	68.61
374.477	7.17
374.688	3.07
374.898	132.09
375.109	27.65
375.319	72.7
375.53	95.23
375.74	72.7
375.951	80.89
376.161	58.37
376.372	41.98
376.582	52.22
376.793	105.47
377.003	56.32
377.214	23.55
377.424	125.95
377.635	56.32
377.845	50.18
378.055	35.84
378.266	101.37
378.476	76.8
378.686	140.29
378.897	68.61
379.107	113.66
379.317	64.51
379.528	80.89
379.738	62.46
379.948	13.31
380.158	76.8
380.369	11.26
380.579	154.62
380.789	60.42
380.999	39.94
381.21	74.75
381.42	113.66
381.63	68.61
381.84	113.66
382.05	132.09
382.261	123.9
382.471	64.51
382.681	27.65
382.891	154.62
383.101	41.98
383.311	21.5
383.521	37.89
383.731	99.33
383.941	115.71
384.151	17.41
384.361	82.94
384.571	89.09
384.781	64.51
384.991	82.94
385.201	91.13
385.411	72.7
385.621	89.09
385.831	44.03
386.041	171.01
386.251	115.71
386.461	89.09
386.671	56.32
386.881	80.89
387.091	66.56
387.301	72.7
387.511	99.33
387.72	82.94
387.93	1.02
388.14	15.36
388.35	82.94
388.56	107.52
388.769	91.13
388.979	132.09
389.189	70.65
389.399	15.36
389.609	113.66
389.818	52.22
390.028	39.94
390.238	97.28
390.447	58.37
390.657	105.47
390.867	64.51
391.076	31.74
391.286	48.13
391.496	48.13
391.705	-13.31
391.915	76.8
392.125	123.9
392.334	39.94
392.544	97.28
392.753	58.37
392.963	84.99
393.172	60.42
393.382	105.47
393.591	134.14
393.801	84.99
394.01	99.33
394.22	105.47
394.429	56.32
394.639	84.99
394.848	39.94
395.058	82.94
395.267	48.13
395.477	76.8
395.686	80.89
395.895	80.89
396.105	115.71
396.314	138.24
396.524	130.05
396.733	54.27
396.942	97.28
397.152	154.62
397.361	121.85
397.57	27.65
397.78	66.56
397.989	5.12
398.198	166.91
398.407	148.48
398.617	146.43
398.826	189.44
399.035	76.8
399.244	87.04
399.453	93.18
399.663	123.9
399.872	121.85
400.081	89.09
400.29	195.58
400.499	87.04
400.708	121.85
400.917	17.41
401.127	187.39
401.336	48.13
401.545	158.72
401.754	35.84
401.963	199.68
402.172	125.95
402.381	52.22
402.59	134.14
402.799	50.18
403.008	236.54
403.217	72.7
403.426	179.2
403.635	48.13
403.844	121.85
404.053	138.24
404.262	142.33
404.471	138.24
404.68	162.81
404.888	148.48
405.097	183.29
405.306	130.05
405.515	121.85
405.724	195.58
405.933	171.01
406.142	191.49
406.35	173.05
406.559	142.33
406.768	191.49
406.977	220.16
407.185	207.87
407.394	173.05
407.603	130.05
407.812	281.6
408.02	191.49
408.229	179.2
408.438	175.1
408.646	238.59
408.855	220.16
409.064	203.77
409.272	254.97
409.481	322.56
409.69	283.64
409.898	222.2
410.107	279.55
410.315	295.93
410.524	265.21
410.733	252.92
410.941	285.69
411.15	404.47
411.358	316.41
411.567	441.34
411.775	326.65
411.984	443.39
412.192	400.38
412.401	322.56
412.609	476.15
412.818	461.82
413.026	486.39
413.234	459.77
413.443	478.2
413.651	510.97
413.86	556.02
414.068	560.12
414.276	603.13
414.485	603.13
414.693	732.15
414.901	691.19
415.11	617.46
415.318	685.05
415.526	648.18
415.734	760.82
415.943	785.4
416.151	756.72
416.359	709.62
416.567	861.17
416.776	902.13
416.984	924.66
417.192	963.57
417.4	824.31
417.608	943.09
417.817	932.85
418.025	998.38
418.233	1084.4
418.441	1080.3
418.649	1002.48
418.857	1184.75
419.065	1154.03
419.273	1129.45
419.481	1217.52
419.689	1381.35
419.897	1350.64
420.105	1418.22
420.313	1407.98
420.521	1434.6
420.729	1442.79
420.937	1457.13
421.145	1608.68
421.353	1623.02
421.561	1711.08
421.769	1842.15
421.977	1821.67
422.185	1756.13
422.393	2003.94
422.601	2098.14
422.809	1997.79
423.017	2063.33
423.224	2145.25
423.432	2153.44
423.64	2165.73
423.848	2427.87
424.056	2360.28
424.263	2595.8
424.471	2450.39
424.679	2624.47
424.887	2800.6
425.094	2806.74
425.302	2833.36
425.51	2917.33
425.718	2958.29
425.925	3169.23
426.133	3251.15
426.341	3322.83
426.548	3466.19
426.756	3531.72
426.964	3546.06
427.171	3705.8
427.379	3873.73
427.586	3896.26
427.794	4035.52
428.001	4070.34
428.209	4373.44
428.417	4142.02
428.624	4531.13
428.832	4488.12
429.039	4395.96
429.247	4604.86
429.454	4973.49
429.662	5286.83
429.869	4922.29
430.076	5178.29
430.284	5116.85
430.491	5299.12
430.699	5596.07
430.906	5548.97
431.114	5872.55
431.321	5999.52
431.528	6120.35
431.736	6392.73
431.943	6960.02
432.15	6523.8
432.358	6658.97
432.565	6970.26
432.772	7035.8
432.979	7332.75
433.187	7394.19
433.394	7451.53
433.601	8014.73
433.808	7936.9
434.016	7981.96
434.223	8297.35
434.43	8698.75
434.637	8686.46
434.844	9147.25
435.052	9274.23
435.259	9243.51
435.466	9362.29
435.673	9419.63
435.88	9954.15
436.087	10509.15
436.294	10546.02
436.501	10271.59
436.708	10562.4
436.915	10920.79
437.122	11217.75
437.329	11305.81
437.537	11795.28
437.743	11830.09
437.95	11674.45
438.157	12473.15
438.364	12739.39
438.571	12669.76
438.778	12567.36
438.985	13822.77
439.192	13257.53
439.399	13894.44
439.606	13335.35
439.813	14211.88
440.02	15037.21
440.227	14748.45
440.433	14668.58
440.64	15182.62
440.847	14992.16
441.054	15340.31
441.261	16263.94
441.467	16134.92
441.674	16577.28
441.881	17283.83
442.088	17173.24
442.294	16769.79
442.501	17406.71
442.708	17914.61
442.914	18352.87
443.121	19047.13
443.328	18350.82
443.534	19790.55
443.741	19391.19
443.948	19086.04
444.154	20579.01
444.361	20376.27
444.568	20456.14
444.774	20513.48
444.981	20703.94
445.187	21240.51
445.394	22143.66
445.6	21764.79
445.807	23939.73
446.013	22745.76
446.22	23450.27
446.426	24392.33
446.633	24748.68
446.839	25283.2
447.046	24294.03
447.252	25735.8
447.459	25559.67
447.665	25662.07
447.871	26593.9
448.078	27773.53
448.284	26526.32
448.491	27417.18
448.697	28295.76
448.903	28828.23
449.11	28897.86
449.316	28471.89
449.522	29274.69
449.728	29739.58
449.935	29964.85
450.141	29567.55
450.347	30620.2
450.553	29770.3
450.76	30028.34
450.966	30818.86
451.172	30587.44
451.378	31410.72
451.584	30433.84
451.791	31656.48
451.997	31515.17
452.203	31793.69
452.409	31805.98
452.615	31863.32
452.821	30548.53
453.027	29927.99
453.233	31740.44
453.44	30671.4
453.646	30863.91
453.852	30900.78
454.058	31511.07
454.264	30284.34
454.47	31494.69
454.676	30761.51
454.882	31408.67
455.088	28914.25
455.294	29002.31
455.5	29698.62
455.705	29930.04
455.911	28574.28
456.117	28377.68
456.323	28039.76
456.529	26530.41
456.735	27419.23
456.941	26763.88
457.147	26372.72
457.352	26004.08
457.558	25526.91
457.764	25703.03
457.97	25102.98
458.176	24267.41
458.381	24416.91
458.587	23425.69
458.793	23081.63
458.999	22133.42
459.204	23448.22
459.41	22932.13
459.616	21441.21
459.821	21568.18
460.027	21324.47
460.233	21144.25
460.438	20202.19
460.644	20187.85
460.85	19348.18
461.055	19188.44
461.261	18899.68
461.466	17439.48
461.672	17113.85
461.878	18209.51
462.083	17197.82
462.289	17107.71
462.494	16618.24
462.7	15919.89
462.905	15446.8
463.111	15854.35
463.316	16120.59
463.522	15577.87
463.727	15706.9
463.932	15600.4
464.138	15201.05
464.343	15725.33
464.549	14926.62
464.754	15563.54
464.959	15485.72
465.165	15414.04
465.37	14781.21
465.575	14557.99
465.781	15031.07
465.986	14826.27
466.191	14246.69
466.397	14248.74
466.602	13634.35
466.807	14230.31
467.012	13919.02
467.218	13951.79
467.423	13667.12
467.628	13908.78
467.833	14316.33
468.038	13855.53
468.244	13587.25
468.449	14052.14
468.654	13511.47
468.859	13189.94
469.064	13507.38
469.269	12761.92
469.474	13341.49
469.679	13316.92
469.885	12911.42
470.09	12909.37
470.295	13114.17
470.5	12624.7
470.705	12794.68
470.91	12464.96
471.115	12237.64
471.32	12426.05
471.525	12479.3
471.73	12276.55
471.935	12254.02
472.139	12034.89
472.344	11930.44
472.549	11690.83
472.754	11576.14
472.959	11436.88
473.164	11287.38
473.369	11203.41
473.574	11545.42
473.778	11371.35
473.983	11287.38
474.188	11127.64
474.393	10724.19
474.598	10750.81
474.802	10734.43
475.007	10593.12
475.212	10378.08
475.417	10152.81
475.621	10181.48
475.826	10505.06
476.031	10013.54
476.235	9679.72
476.44	10154.85
476.645	9911.14
476.849	9689.96
477.054	9522.03
477.259	9421.68
477.463	9620.33
477.668	9202.55
477.872	9384.82
478.077	9268.08
478.282	8993.65
478.486	9003.89
478.691	9071.48
478.895	8977.27
479.1	8962.94
479.304	8840.06
479.509	8733.56
479.713	8878.97
479.918	8649.6
480.122	8528.77
480.326	8797.05
480.531	8751.99
480.735	8555.39
480.94	8543.1
481.144	8530.81
481.348	8242.05
481.553	8444.8
481.757	8258.43
481.961	8303.49
482.166	8225.67
482.37	8354.69
482.574	8102.79
482.778	8260.48
482.983	8475.52
483.187	8266.63
483.391	8153.99
483.595	8084.36
483.8	8252.29
484.004	8209.28
484.208	8389.5
484.412	8280.96
484.616	8240
484.821	8268.67
485.025	7990.15
485.229	8330.11
485.433	8153.99
485.637	8252.29
485.841	8227.71
486.045	8227.71
486.249	8190.85
486.453	8092.55
486.657	8117.12
486.861	8391.55
487.065	7967.62
487.269	8213.38
487.473	8139.65
487.677	8084.36
487.881	8256.39
488.085	8348.54
488.289	8315.78
488.493	8186.76
488.697	8260.48
488.901	8117.12
489.105	8137.6
489.309	8305.54
489.512	8360.83
489.716	8375.17
489.92	8444.8
490.124	8328.06
490.328	8510.33
490.531	8512.38
490.735	8262.53
490.939	8332.16
491.143	8391.55
491.346	8371.07
491.55	8452.99
491.754	8567.68
491.958	8643.45
492.161	8414.08
492.365	8502.14
492.569	8577.92
492.772	8706.94
492.976	8801.15
493.18	8756.09
493.383	8782.71
493.587	8874.87
493.79	9012.09
493.994	8930.17
494.197	8950.65
494.401	9042.81
494.605	9214.84
494.808	9347.95
495.012	9364.34
495.215	9280.37
495.419	9513.84
495.622	9153.4
495.825	9462.64
496.029	9620.33
496.232	9833.32
496.436	9597.81
496.639	9913.19
496.843	9757.55
497.046	10144.61
497.249	10115.94
497.453	10253.16
497.656	10505.06
497.859	10494.82
498.063	10435.42
498.266	10654.56
498.469	10738.52
498.673	10720.09
498.876	10832.73
499.079	10881.88
499.282	10894.17
499.485	11498.32
499.689	11334.48
499.892	11451.22
500.095	11416.4
500.298	11795.28
500.501	11557.71
500.705	11948.87
500.908	12143.43
501.111	12206.92
501.314	12436.29
501.517	12620.61
501.72	12497.73
501.923	12401.47
502.126	12966.71
502.329	12985.15
502.532	13077.3
502.735	13108.02
502.938	13624.11
503.141	13613.87
503.344	13851.44
503.547	13763.37
503.75	14099.24
503.953	14195.5
504.156	14314.28
504.359	14365.48
504.562	14371.62
504.765	14742.3
504.968	15033.11
505.17	15024.92
505.373	15053.59
505.576	15293.21
505.779	15735.57
505.982	15614.74
506.185	15926.03
506.387	15850.25
506.59	16171.79
506.793	16476.93
506.996	16378.63
507.198	16753.41
507.401	16612.1
507.604	16777.98
507.807	17189.63
508.009	17365.75
508.212	17658.61
508.415	17873.65
508.617	17742.58
508.82	17945.33
509.022	17801.97
509.225	18492.13
509.428	18600.68
509.63	18621.16
509.833	18746.08
510.035	19344.09
510.238	19253.98
510.44	19317.47
510.643	19448.54
510.845	19688.15
511.048	19905.23
511.25	20126.41
511.453	20083.41
511.655	20882.11
511.858	20828.87
512.06	20830.91
512.262	21183.16
512.465	20970.18
512.667	21447.35
512.87	21611.19
513.072	21725.88
513.274	22110.89
513.477	22338.22
513.679	22233.77
513.881	22682.28
514.084	22823.59
514.286	22911.65
514.488	22938.27
514.69	23730.84
514.893	23454.36
515.095	23673.49
515.297	23716.5
515.499	24191.63
515.701	24142.48
515.904	24748.68
516.106	24695.43
516.308	25295.49
516.51	25350.78
516.712	25272.96
516.914	25475.71
517.116	26118.77
517.318	25838.2
517.52	26118.77
517.722	26403.44
517.925	27040.36
518.127	26741.35
518.329	27036.26
518.531	27116.13
518.733	27636.31
518.935	27849.3
519.136	27966.04
519.338	28191.31
519.54	28582.48
519.742	28588.62
519.944	28398.16
520.146	29325.89
520.348	29284.93
520.55	29567.55
520.752	29743.67
520.954	30073.4
521.155	29946.42
521.357	30566.96
521.559	30472.75
521.761	30974.5
521.963	30687.79
522.164	31140.39
522.366	31584.8
522.568	31592.99
522.77	31789.59
522.971	31732.25
523.173	32076.31
523.375	32592.4
523.576	32475.66
523.778	32201.24
523.98	33370.63
524.181	33114.63
524.383	33163.78
524.584	33364.48
524.786	33452.55
524.988	33221.13
525.189	33470.98
525.391	33657.34
525.592	34480.63
525.794	34198.01
525.995	34189.81
526.197	34032.12
526.398	34646.51
526.6	34922.99
526.801	34638.32
527.003	35322.34
527.204	34748.91
527.406	35391.97
527.607	35002.86
527.808	35441.12
528.01	35107.3
528.211	35217.89
528.412	35942.88
528.614	36004.31
528.815	36123.1
529.016	36139.48
529.218	35684.83
529.419	36325.85
529.62	36061.66
529.822	36106.71
530.023	36073.95
530.224	36018.65
530.425	36473.3
530.626	36198.87
530.828	36088.28
531.029	36747.73
531.23	36579.79
531.431	36266.45
531.632	36841.93
531.833	36663.76
532.035	36880.85
532.236	36987.34
532.437	37169.61
532.638	36936.14
532.839	36876.75
533.04	36946.38
533.241	36704.72
533.442	37224.9
533.643	37054.92
533.844	36889.04
534.045	36964.81
534.246	36821.45
534.447	37097.93
534.648	37112.27
534.849	37315.01
535.05	37185.99
535.251	37235.14
535.451	37140.94
535.652	37573.06
535.853	37167.56
536.054	37505.48
536.255	37208.52
536.456	37126.6
536.657	37413.32
536.857	36952.52
537.058	36944.33
537.259	37626.31
537.46	37161.42
537.66	37251.53
537.861	37282.25
538.062	37153.23
538.263	37216.71
538.463	36999.63
538.664	36895.18
538.865	37142.99
539.065	37257.67
539.266	37089.74
539.466	37501.38
539.667	37089.74
539.868	37683.65
540.068	37358.02
540.269	37036.49
540.469	37333.45
540.67	37171.66
540.87	37267.91
541.071	37142.99
541.271	37458.37
541.472	37384.65
541.672	36878.8
541.873	37337.54
542.073	36655.57
542.274	37441.99
542.474	37265.86
542.675	36794.83
542.875	37548.48
543.075	36909.52
543.276	36753.87
543.476	37226.95
543.676	37181.9
543.877	37077.45
544.077	36975.05
544.277	36915.66
544.478	36846.03
544.678	37241.29
544.878	36854.22
545.078	37099.98
545.279	36325.85
545.479	36948.43
545.679	36843.98
545.879	36782.54
546.079	36927.95
546.28	37124.55
546.48	36790.73
546.68	37063.11
546.88	37126.6
547.08	36819.41
547.28	36893.13
547.48	36788.69
547.68	36645.33
547.88	36592.08
548.081	37194.18
548.281	36583.89
548.481	36682.19
548.681	36983.24
548.881	36501.97
549.081	36766.16
549.28	36692.43
549.48	36942.28
549.68	36573.65
549.88	37335.49
550.08	36317.65
550.28	36567.51
550.48	36465.11
550.68	37163.46
550.88	36489.68
551.08	36549.07
551.279	36864.46
551.479	36338.13
551.679	36698.58
551.879	36745.68
552.079	36719.06
552.278	36882.89
552.478	36684.24
552.678	36669.9
552.878	36794.83
553.077	36456.92
553.277	36067.8
553.477	36975.05
553.676	36448.72
553.876	36581.84
554.076	36422.1
554.275	36432.34
554.475	35992.03
554.674	36360.66
554.874	36692.43
555.074	36205.02
555.273	36401.62
555.473	36663.76
555.672	36016.6
555.872	36073.95
556.071	36422.1
556.271	36282.84
556.47	36121.05
556.67	35854.81
556.869	35619.3
557.068	35883.48
557.268	36071.9
557.467	35795.42
557.667	35643.87
557.866	35834.33
558.065	36047.32
558.265	35500.51
558.464	35594.72
558.663	35848.67
558.863	35211.75
559.062	35899.87
559.261	35158.5
559.461	35944.92
559.66	35303.91
559.859	35598.82
560.058	35293.67
560.258	35449.32
560.457	34974.19
560.656	35584.48
560.855	35408.36
561.054	34900.46
561.253	34955.75
561.453	35213.8
561.652	35326.44
561.851	35353.06
562.05	34890.22
562.249	34834.92
562.448	35025.39
562.647	34933.23
562.846	34697.71
563.045	34609.65
563.244	34288.12
563.443	35107.3
563.642	34279.92
563.841	34587.12
564.04	34445.81
564.239	34634.22
564.438	33882.62
564.637	34402.8
564.836	34396.66
565.035	33942.01
565.234	34212.34
565.432	33794.56
565.631	33792.51
565.83	34126.33
566.029	34144.76
566.228	33864.19
566.427	33671.68
566.625	33761.79
566.824	33307.14
567.023	33997.31
567.222	33108.49
567.42	33681.92
567.619	33894.91
567.818	33501.7
568.016	33225.22
568.215	33221.13
568.414	33284.61
568.612	33106.44
568.811	32715.28
569.01	33049.1
569.208	32559.63
569.407	33012.23
569.605	32524.82
569.804	33004.04
570.002	32592.4
570.201	32748.04
570.4	32217.62
570.598	31978.01
570.797	32309.78
570.995	32305.68
571.193	31738.4
571.392	32496.14
571.59	31707.68
571.789	32027.16
571.987	31844.89
572.186	31859.23
572.384	31730.2
572.582	31883.8
572.781	31891.99
572.979	31547.93
573.177	31396.38
573.376	31689.24
573.574	31386.15
573.772	31355.43
573.971	31066.66
574.169	31087.14
574.367	30351.92
574.565	31074.85
574.763	30870.06
574.962	30638.64
575.16	30401.07
575.358	30833.19
575.556	30286.39
575.754	30874.15
575.952	30489.13
576.151	30644.78
576.349	30249.52
576.547	30290.48
576.745	30341.68
576.943	30368.3
577.141	29952.57
577.339	29940.28
577.537	29905.46
577.735	30290.48
577.933	29669.95
578.131	29731.39
578.329	29487.68
578.527	29344.32
578.725	29602.36
578.923	29772.35
579.121	29203.01
579.319	29200.96
579.516	29510.21
579.714	29141.57
579.912	29166.15
580.11	28967.49
580.308	28992.07
580.506	28897.86
580.704	28725.83
580.901	28967.49
581.099	29026.89
581.297	28457.55
581.495	28152.4
581.692	28873.29
581.89	28240.47
582.088	28527.18
582.285	28596.81
582.483	28508.75
582.681	28217.94
582.878	28193.36
583.076	27963.99
583.274	27933.27
583.471	27218.53
583.669	28043.86
583.866	27572.83
584.064	27796.06
584.262	27380.32
584.459	27619.93
584.657	27568.73
584.854	27615.83
585.052	26786.41
585.249	27638.36
585.447	27337.31
585.644	26499.69
585.841	27077.22
586.039	27419.23
586.236	26702.44
586.434	26778.22
586.631	26817.13
586.828	26987.11
587.026	26677.86
587.223	26559.08
587.42	26587.75
587.618	26448.49
587.815	26331.76
588.012	26458.73
588.21	26501.74
588.407	26313.33
588.604	26133.11
588.801	25999.99
588.999	26014.32
589.196	26040.95
589.393	25819.77
589.59	25567.87
589.787	25610.87
589.984	25553.53
590.182	25549.43
590.379	25592.44
590.576	25361.02
590.773	25305.73
590.97	25236.09
591.167	25121.41
591.364	25143.94
591.561	25004.67
591.758	24765.06
591.955	24720.01
592.152	24951.43
592.349	24613.51
592.546	24705.67
592.743	24992.39
592.94	24294.03
593.137	24470.15
593.334	24529.55
593.531	24615.56
593.727	24517.26
593.924	24361.61
594.121	24103.57
594.318	24283.79
594.515	23863.96
594.712	24078.99
594.908	23823
595.105	24081.04
595.302	23564.95
595.499	24105.62
595.696	23732.89
595.892	23528.09
596.089	23870.1
596.286	23620.25
596.482	23349.92
596.679	23458.46
596.876	23333.53
597.072	23245.47
597.269	23093.92
597.466	22829.73
597.662	22903.46
597.859	23079.58
598.055	22999.71
598.252	22938.27
598.448	23038.62
598.645	22487.72
598.841	22604.46
599.038	22768.29
599.234	22612.65
599.431	22370.99
599.627	22153.9
599.824	22555.3
600.02	22299.31
600.217	22162.09
600.413	22143.66
600.609	21891.76
600.806	22045.36
601.002	21988.02
601.198	21799.6
601.395	21666.49
601.591	21385.91
601.787	21818.04
601.984	21502.65
602.18	21512.89
602.376	21572.28
602.572	21461.69
602.769	21353.15
602.965	21291.71
603.161	21324.47
603.357	21064.38
603.553	21220.03
603.75	21084.86
603.946	20847.3
604.142	20871.87
604.338	20738.76
604.534	20933.31
604.73	20753.09
604.926	20529.86
605.122	20628.17
605.318	20536.01
605.514	20409.03
605.71	20472.52
605.906	20288.2
606.102	20335.31
606.298	20343.5
606.494	20282.06
606.69	20040.4
606.886	20126.41
607.082	19976.91
607.278	20359.88
607.474	19821.27
607.67	20013.77
607.866	19944.14
608.062	19964.62
608.257	19780.31
608.453	19894.99
608.649	19841.75
608.845	19702.48
609.041	19661.52
609.236	20019.92
609.432	19725.01
609.628	19360.47
609.824	19407.58
610.019	19401.43
610.215	19319.51
610.411	19409.62
610.606	19313.37
610.802	19376.86
610.998	19208.92
611.193	19395.29
611.389	19180.25
611.584	19268.31
611.78	19038.94
611.976	19309.27
612.171	19026.65
612.367	19071.71
612.562	19053.28
612.758	18715.36
612.953	18891.49
613.149	18766.56
613.344	18744.03
613.539	18961.12
613.735	18965.21
613.93	18672.36
614.126	18498.28
614.321	18819.81
614.517	18768.61
614.712	18711.27
614.907	18424.55
615.103	18612.96
615.298	18221.8
615.493	18778.85
615.688	18186.99
615.884	18680.55
616.079	18195.18
616.274	18356.97
616.47	18025.2
616.665	18469.61
616.86	18354.92
617.055	18193.13
617.25	18051.82
617.445	18072.3
617.641	17773.3
617.836	18238.19
618.031	17681.14
618.226	17857.26
618.421	17533.68
618.616	17853.17
618.811	17492.73
619.006	17703.67
619.201	17431.29
619.396	17236.73
619.591	17300.22
619.786	17627.89
619.981	17242.87
620.176	17222.39
620.371	17234.68
620.566	17189.63
620.761	17152.76
620.956	17091.32
621.151	16990.97
621.346	17029.88
621.541	16554.76
621.735	16743.17
621.93	16618.24
622.125	16812.8
622.32	16409.35
622.515	16534.28
622.709	16425.73
622.904	16397.06
623.099	16003.85
623.294	15620.88
623.488	15778.58
623.683	16050.96
623.878	15727.38
624.072	15731.47
624.267	15715.09
624.462	15502.1
624.656	15459.09
624.851	15477.52
625.046	15416.08
625.24	15096.6
625.435	15170.33
625.629	14957.34
625.824	15018.78
626.018	14910.24
626.213	14727.97
626.407	14740.26
626.602	14584.61
626.796	14564.13
626.991	14582.56
627.185	14359.33
627.38	14293.8
627.574	14297.89
627.768	14146.34
627.963	14162.73
628.157	14072.62
628.352	14062.38
628.546	13919.02
628.74	14115.62
628.935	13644.59
629.129	13751.09
629.323	13564.72
629.517	13560.63
629.712	13400.88
629.906	13564.72
630.1	13146.94
630.294	13490.99
630.489	13378.36
630.683	13081.4
630.877	13017.91
631.071	12929.85
631.265	12925.75
631.459	12761.92
631.653	12774.21
631.848	12829.5
632.042	12587.84
632.236	12608.32
632.43	12335.94
632.624	12479.3
632.818	12456.77
633.012	12294.98
633.206	12206.92
633.4	12337.99
633.594	12137.29
633.788	12127.05
633.982	11922.25
634.176	11983.69
634.369	12028.74
634.563	11772.75
634.757	11848.52
634.951	12081.99
635.145	11656.01
635.339	11742.03
635.533	11449.17
635.726	11572.05
635.92	11336.53
636.114	11430.74
636.308	11453.27
636.501	11305.81
636.695	11164.5
636.889	11164.5
637.083	11072.34
637.276	11058.01
637.47	11148.12
637.664	10750.81
637.857	10986.33
638.051	10740.57
638.244	10806.11
638.438	10828.63
638.632	10599.26
638.825	10599.26
639.019	10462.05
639.212	10439.52
639.406	10500.96
639.599	10429.28
639.793	10326.88
639.986	10183.52
640.18	10204
640.373	10306.4
640.567	10019.69
640.76	10052.45
640.954	9993.06
641.147	10013.54
641.34	9937.77
641.534	9821.03
641.727	9954.15
641.92	9933.67
642.114	9644.91
642.307	9659.24
642.5	9612.14
642.694	9519.98
642.887	9339.76
643.08	9585.52
643.273	9374.58
643.467	9337.71
643.66	9079.67
643.853	9173.88
644.046	9071.48
644.239	9202.55
644.432	9059.19
644.626	9022.33
644.819	8948.6
645.012	8958.84
645.205	8872.82
645.398	8866.68
645.591	8954.74
645.784	8668.03
645.977	8729.47
646.17	8721.27
646.363	8559.49
646.556	8559.49
646.749	8401.79
646.942	8659.84
647.135	8444.8
647.328	8436.61
647.521	8356.74
647.714	8235.91
647.907	8231.81
648.099	8192.9
648.292	8299.39
648.485	8117.12
648.678	8024.97
648.871	8000.39
649.064	7809.93
649.256	7984.01
649.449	7930.76
649.642	7998.34
649.835	7756.68
650.027	7834.5
650.22	7828.36
650.413	7859.08
650.605	7789.45
650.798	7719.82
650.991	7652.24
651.183	7680.91
651.376	7539.6
651.568	7529.36
651.761	7621.52
651.954	7406.48
652.146	7461.77
652.339	7332.75
652.531	7289.74
652.724	7218.07
652.916	7136.15
653.109	7173.01
653.301	7125.91
653.494	7242.64
653.686	6933.4
653.879	7279.5
654.071	6839.19
654.263	7035.8
654.456	6988.69
654.648	7019.41
654.84	6929.3
655.033	6847.38
655.225	6874.01
655.417	6808.47
655.61	6701.98
655.802	6620.06
655.994	6597.53
656.186	6599.58
656.379	6620.06
656.571	6499.23
656.763	6538.14
656.955	6321.06
657.148	6372.25
657.34	6579.1
657.532	6380.45
657.724	6304.67
657.916	6259.62
658.108	6314.91
658.3	6267.81
658.492	6302.62
658.684	6206.37
658.876	6208.42
659.068	6163.36
659.26	6155.17
659.452	6241.18
659.644	6187.94
659.836	6106.02
660.028	5962.66
660.22	5884.84
660.412	5858.21
660.604	6003.62
660.796	6108.07
660.988	5938.09
661.18	5884.84
661.372	5708.71
661.563	5741.48
661.755	5718.95
661.947	5747.62
662.139	5807.02
662.331	5643.18
662.522	5512.11
662.714	5653.42
662.906	5634.99
663.097	5544.88
663.289	5667.75
663.481	5350.32
663.673	5438.38
663.864	5499.82
664.056	5413.81
664.247	5366.7
664.439	5366.7
664.631	5360.56
664.822	5434.29
665.014	5307.31
665.205	5241.78
665.397	5135.28
665.588	5168.05
665.78	5041.08
665.971	5110.71
666.163	5323.69
666.354	5079.99
666.546	5135.28
666.737	5028.79
666.929	5030.84
667.12	4981.68
667.311	4979.64
667.503	4860.85
667.694	5041.08
667.885	5032.88
668.077	4961.2
668.268	4862.9
668.459	4783.03
668.651	4930.48
668.842	4709.3
669.033	4729.78
669.224	4756.41
669.416	4823.99
669.607	4656.06
669.798	4672.44
669.989	4772.79
670.18	4656.06
670.371	4756.41
670.563	4719.54
670.754	4692.92
670.945	4481.98
671.136	4598.71
671.327	4580.28
671.518	4539.32
671.709	4602.81
671.9	4703.16
672.091	4524.99
672.282	4561.85
672.473	4430.78
672.664	4459.45
672.855	4463.55
673.046	4402.11
673.237	4563.9
673.428	4350.91
673.619	4393.92
673.809	4320.19
674	4289.47
674.191	4406.2
674.382	4398.01
674.573	4344.77
674.764	4176.83
674.954	4443.07
675.145	4244.42
675.336	4207.55
675.527	4301.76
675.717	4129.73
675.908	4234.18
676.099	4152.26
676.289	4185.02
676.48	4246.46
676.671	4203.46
676.861	4277.18
677.052	4115.39
677.243	4058.05
677.433	4078.53
677.624	4135.87
677.814	4023.23
678.005	4162.5
678.195	4000.71
678.386	4238.27
678.576	3972.04
678.767	4008.9
678.957	4006.85
679.148	4135.87
679.338	4099.01
679.529	4068.29
679.719	4053.95
679.909	4119.49
680.1	4072.39
680.29	3906.5
680.481	4082.63
680.671	4035.52
680.861	3967.94
681.052	3902.4
681.242	3865.54
681.432	3951.56
681.622	3881.92
681.813	3767.24
682.003	4031.43
682.193	3943.36
682.383	3982.28
682.573	3959.75
682.764	3859.4
682.954	3822.53
683.144	4021.19
683.334	3767.24
683.524	3910.6
683.714	3693.51
683.904	3695.56
684.094	3808.2
684.284	3754.95
684.474	3734.47
684.664	3777.48
684.854	3765.19
685.044	3804.1
685.234	3646.41
685.424	3630.02
685.614	3562.44
685.804	3668.94
685.994	3791.81
686.184	3699.66
686.374	3607.5
686.564	3601.35
686.753	3695.56
686.943	3662.79
687.133	3804.1
687.323	3599.31
687.513	3589.07
687.702	3564.49
687.892	3566.54
688.082	3619.78
688.272	3566.54
688.461	3505.1
688.651	3537.87
688.841	3292.11
689.03	3480.52
689.22	3468.24
689.41	3308.49
689.599	3437.52
689.789	3451.85
689.979	3285.97
690.168	3308.49
690.358	3316.69
690.547	3374.03
690.737	3316.69
690.926	3269.58
691.116	3285.97
691.305	3374.03
691.495	3367.88
691.684	3253.2
691.874	3212.24
692.063	3193.81
692.252	3374.03
692.442	3253.2
692.631	3204.05
692.82	3261.39
693.01	3128.27
693.199	3296.21
693.388	3042.26
693.578	3070.93
693.767	3165.14
693.956	2958.29
694.146	3007.44
694.335	2966.48
694.524	3048.4
694.713	3056.59
694.902	2978.77
695.092	3099.6
695.281	2886.61
695.47	3083.22
695.659	3087.31
695.848	2911.19
696.037	2937.81
696.226	2991.06
696.415	2931.67
696.604	3099.6
696.793	2821.08
696.982	2835.41
697.171	2948.05
697.36	2890.71
697.549	2921.43
697.738	2866.13
697.927	2876.37
698.116	2972.63
698.305	2757.59
698.494	2827.22
698.683	2950.1
698.872	2933.72
699.061	2819.03
699.25	2708.44
699.438	2743.25
699.627	2778.07
699.816	2855.89
700.005	2851.8
700.193	2851.8
700.382	2726.87
700.571	2870.23
700.76	2757.59
700.948	2825.17
701.137	2702.29
701.326	2786.26
701.514	2685.91
701.703	2733.01
701.892	2714.58
702.08	2794.45
702.269	2821.08
702.457	2694.1
702.646	2577.37
702.834	2722.77
703.023	2683.86
703.212	2794.45
703.4	2761.69
703.589	2673.62
703.777	2665.43
703.965	2626.52
704.154	2567.13
704.342	2737.11
704.531	2622.42
704.719	2696.15
704.907	2677.72
705.096	2552.79
705.284	2622.42
705.472	2726.87
705.661	2579.42
705.849	2687.96
706.037	2595.8
706.226	2565.08
706.414	2616.28
706.602	2634.71
706.79	2685.91
706.979	2606.04
707.167	2716.63
707.355	2587.61
707.543	2673.62
707.731	2677.72
707.919	2616.28
708.107	2620.38
708.296	2505.69
708.484	2597.85
708.672	2509.79
708.86	2698.2
709.048	2550.75
709.236	2595.8
709.424	2540.51
709.612	2530.27
709.8	2554.84
709.988	2515.93
710.176	2552.79
710.364	2597.85
710.551	2575.32
710.739	2515.93
710.927	2444.25
711.115	2530.27
711.303	2606.04
711.491	2458.59
711.679	2522.07
711.866	2595.8
712.054	2524.12
712.242	2350.04
712.43	2575.32
712.617	2485.21
712.805	2520.03
712.993	2464.73
713.181	2495.45
713.368	2563.03
713.556	2421.72
713.744	2479.07
713.931	2534.36
714.119	2509.79
714.306	2382.81
714.494	2464.73
714.682	2415.58
714.869	2401.24
715.057	2438.11
715.244	2431.96
715.432	2343.9
715.619	2366.43
715.807	2358.24
715.994	2391
716.182	2409.44
716.369	2401.24
716.556	2399.2
716.744	2450.39
716.931	2391
717.119	2446.3
717.306	2378.72
717.493	2380.76
717.681	2284.51
717.868	2415.58
718.055	2458.59
718.242	2376.67
718.43	2372.57
718.617	2358.24
718.804	2386.91
718.991	2382.81
719.179	2407.39
719.366	2317.28
719.553	2229.21
719.74	2315.23
719.927	2327.52
720.114	2364.38
720.301	2368.48
720.488	2497.5
720.676	2259.93
720.863	2249.69
721.05	2421.72
721.237	2358.24
721.424	2362.33
721.611	2452.44
721.798	2259.93
721.985	2368.48
722.172	2241.5
722.358	2311.13
722.545	2249.69
722.732	2290.65
722.919	2384.86
723.106	2210.78
723.293	2251.74
723.48	2284.51
723.667	2321.37
723.853	2247.65
724.04	2317.28
724.227	2225.12
724.414	2313.18
724.6	2350.04
724.787	2307.04
724.974	2378.72
725.161	2343.9
725.347	2221.02
725.534	2089.95
725.72	2292.7
725.907	2329.56
726.094	2358.24
726.28	2239.45
726.467	2354.14
726.653	2307.04
726.84	2266.08
727.027	2218.97
727.213	2317.28
727.4	2296.8
727.586	2268.13
727.773	2280.41
727.959	2298.84
728.145	2251.74
728.332	2149.34
728.518	2221.02
728.705	2218.97
728.891	2223.07
729.077	2173.92
729.264	2259.93
729.45	2251.74
729.636	2231.26
729.823	2284.51
730.009	2331.61
730.195	2186.21
730.382	2155.49
730.568	2157.54
730.754	2304.99
730.94	2137.06
731.126	2278.37
731.313	2210.78
731.499	2178.01
731.685	2184.16
731.871	2171.87
732.057	2135.01
732.243	2235.36
732.429	2194.4
732.615	2272.22
732.801	2067.42
732.987	2188.25
733.173	2180.06
733.359	2202.59
733.545	2165.73
733.731	2165.73
733.917	2239.45
734.103	2198.49
734.289	2186.21
734.475	2130.91
734.661	2171.87
734.847	2120.67
735.033	2198.49
735.219	2147.3
735.404	2116.58
735.59	2106.34
735.776	2163.68
735.962	2194.4
736.148	2092
736.333	2079.71
736.519	2112.48
736.705	2120.67
736.89	2214.88
737.076	2071.52
737.262	2038.75
737.447	2032.61
737.633	2149.34
737.819	2067.42
738.004	2157.54
738.19	1958.88
738.375	1997.79
738.561	2163.68
738.747	2024.42
738.932	2092
739.118	2038.75
739.303	2132.96
739.489	2122.72
739.674	2010.08
739.859	2030.56
740.045	2124.77
740.23	2053.09
740.416	2079.71
740.601	2102.24
740.786	1958.88
740.972	2024.42
741.157	1971.17
741.342	1948.64
741.528	1989.6
741.713	2046.94
741.898	2001.89
742.084	2040.8
742.269	2008.03
742.454	1924.07
742.639	1987.55
742.824	1981.41
743.01	1960.93
743.195	2106.34
743.38	1950.69
743.565	1848.29
743.75	1987.55
743.935	1793
744.12	1833.96
744.305	1879.01
744.49	1866.72
744.675	1846.24
744.86	1838.05
745.045	1899.49
745.23	1862.63
745.415	1784.8
745.6	1897.44
745.785	1850.34
745.97	1879.01
746.155	1801.19
746.34	1840.1
746.525	1817.57
746.71	1784.8
746.895	1846.24
747.079	1758.18
747.264	1700.84
747.449	1790.95
747.634	1661.93
747.819	1637.35
748.003	1715.17
748.188	1655.78
748.373	1719.27
748.557	1522.66
748.742	1706.98
748.927	1668.07
749.111	1698.79
749.296	1582.06
749.481	1629.16
749.665	1629.16
749.85	1516.52
750.034	1606.63
750.219	1557.48
750.404	1590.25
750.588	1545.19
750.773	1557.48
750.957	1483.75
751.141	1614.82
751.326	1485.8
751.51	1442.79
751.695	1457.13
751.879	1549.29
752.064	1557.48
752.248	1463.27
752.432	1459.18
752.617	1465.32
752.801	1440.75
752.985	1420.27
753.17	1407.98
753.354	1434.6
753.538	1407.98
753.722	1205.23
753.907	1369.07
754.091	1248.24
754.275	1328.11
754.459	1383.4
754.643	1385.45
754.828	1340.4
755.012	1330.16
755.196	1299.44
755.38	1289.2
755.564	1250.28
755.748	1272.81
755.932	1317.87
756.116	1203.18
756.3	1260.52
756.484	1260.52
756.668	1158.13
756.852	1180.65
757.036	1100.78
757.22	1266.67
757.404	1264.62
757.588	1227.76
757.772	1246.19
757.956	1203.18
758.14	1186.8
758.323	1102.83
758.507	1154.03
758.691	1113.07
758.875	1170.41
759.059	1065.97
759.242	1123.31
759.426	1076.21
759.61	1129.45
759.794	1119.21
759.977	1129.45
760.161	1108.98
760.345	1063.92
760.528	1059.82
760.712	1108.98
760.895	1084.4
761.079	1080.3
761.263	1004.53
761.446	1047.54
761.63	1106.93
761.813	1080.3
761.997	1022.96
762.18	924.66
762.364	1008.62
762.547	957.43
762.731	990.19
762.914	998.38
763.098	936.95
763.281	990.19
763.464	973.81
763.648	1049.58
763.831	982
764.015	871.41
764.198	807.92
764.381	943.09
764.564	904.18
764.748	957.43
764.931	951.28
765.114	908.27
765.297	869.36
765.481	949.23
765.664	879.6
765.847	875.51
766.03	914.42
766.213	879.6
766.397	893.94
766.58	961.52
766.763	883.7
766.946	869.36
767.129	973.81
767.312	902.13
767.495	883.7
767.678	820.21
767.861	834.55
768.044	834.55
768.227	801.78
768.41	865.27
768.593	816.12
768.776	785.4
768.959	844.79
769.142	891.89
769.324	793.59
769.507	834.55
769.69	793.59
769.873	816.12
770.056	887.79
770.239	836.6
770.421	875.51
770.604	771.06
770.787	697.33
770.97	795.64
771.152	834.55
771.335	797.68
771.518	750.58
771.7	740.34
771.883	850.93
772.066	752.63
772.248	760.82
772.431	713.72
772.613	762.87
772.796	740.34
772.978	750.58
773.161	736.24
773.343	713.72
773.526	699.38
773.708	793.59
773.891	654.33
774.073	740.34
774.256	687.09
774.438	769.01
774.621	707.57
774.803	726
774.985	697.33
775.168	715.77
775.35	633.85
775.532	699.38
775.715	678.9
775.897	728.05
776.079	623.61
776.261	687.09
776.444	658.42
776.626	703.48
776.808	592.89
776.99	623.61
777.173	527.35
777.355	625.65
777.537	631.8
777.719	695.29
777.901	697.33
778.083	578.55
778.265	539.64
778.447	582.65
778.629	568.31
778.811	607.22
778.993	484.34
779.175	617.46
779.357	474.1
779.539	576.5
779.721	596.98
779.903	605.17
780.085	484.34
780.267	687.09
780.449	515.06
780.631	596.98
780.812	590.84
780.994	523.26
781.176	486.39
781.358	515.06
781.54	388.09
781.721	498.68
781.903	510.97
782.085	500.73
782.267	498.68
782.448	474.1
782.63	470.01
782.812	517.11
782.993	500.73
783.175	470.01
783.357	474.1
783.538	467.96
783.72	465.91
783.901	490.49
784.083	472.06
784.264	474.1
784.446	410.62
784.627	480.25
784.809	396.28
784.99	498.68
785.172	441.34
785.353	437.24
785.535	396.28
785.716	427
785.897	375.8
786.079	386.04
786.26	375.8
786.441	459.77
786.623	361.47
786.804	353.27
786.985	396.28
787.167	410.62
787.348	318.46
787.529	367.61
787.71	400.38
787.891	386.04
788.073	338.94
788.254	322.56
788.435	343.03
788.616	383.99
788.797	351.23
788.978	402.43
789.159	349.18
789.34	461.82
789.522	347.13
789.703	408.57
789.884	330.75
790.065	402.43
790.246	396.28
790.427	334.84
790.607	404.47
790.788	351.23
790.969	357.37
791.15	343.03
791.331	310.27
791.512	410.62
791.693	263.16
791.874	254.97
792.054	390.14
792.235	279.55
792.416	304.12
792.597	312.32
792.778	244.73
792.958	361.47
793.139	271.36
793.32	336.89
793.5	381.95
793.681	320.51
793.862	261.12
794.042	232.44
794.223	265.21
794.404	240.64
794.584	244.73
794.765	293.88
794.945	254.97
795.126	347.13
795.306	328.7
795.487	228.35
795.667	211.96
795.848	326.65
796.028	312.32
796.209	279.55
796.389	214.01
796.57	244.73
796.75	302.08
796.93	244.73
797.111	322.56
797.291	191.49
797.471	259.07
797.652	230.4
797.832	197.63
798.012	302.08
798.192	271.36
798.373	261.12
798.553	279.55
798.733	244.73
798.913	191.49
799.093	332.79
799.274	304.12
799.454	211.96
799.634	252.92
799.814	281.6
799.994	183.29
800.174	293.88
800.354	209.92
800.534	236.54
800.714	334.84
800.894	252.92
801.074	263.16
801.254	269.31
801.434	222.2
801.614	222.2
801.794	207.87
801.974	734.2
802.154	232.44
802.334	236.54
802.514	191.49
802.693	201.72
802.873	259.07
803.053	269.31
803.233	230.4
803.413	203.77
803.592	181.25
803.772	177.15
803.952	121.85
804.131	181.25
804.311	259.07
804.491	175.1
804.67	193.53
804.85	158.72
805.03	273.4
805.209	257.02
805.389	195.58
805.568	140.29
805.748	199.68
805.928	138.24
806.107	134.14
806.287	236.54
806.466	230.4
806.646	148.48
806.825	156.67
807.004	168.96
807.184	279.55
807.363	252.92
807.543	205.82
807.722	152.57
807.901	220.16
808.081	246.78
808.26	136.19
808.439	220.16
808.619	207.87
808.798	162.81
808.977	191.49
809.156	181.25
809.336	177.15
809.515	263.16
809.694	82.94
809.873	166.91
810.052	238.59
810.231	187.39
810.411	146.43
810.59	179.2
810.769	168.96
810.948	183.29
811.127	199.68
811.306	222.2
811.485	150.53
811.664	183.29
811.843	220.16
812.022	189.44
812.201	128
812.38	117.76
812.559	138.24
812.737	244.73
812.916	181.25
813.095	91.13
813.274	80.89
813.453	173.05
813.632	214.01
813.811	179.2
813.989	54.27
814.168	125.95
814.347	119.81
814.526	84.99
814.704	191.49
814.883	236.54
815.062	89.09
815.24	183.29
815.419	103.42
815.598	84.99
815.776	150.53
815.955	183.29
816.133	146.43
816.312	183.29
816.49	162.81
816.669	130.05
816.847	154.62
817.026	84.99
817.204	109.57
817.383	138.24
817.561	64.51
817.74	189.44
817.918	123.9
818.097	64.51
818.275	121.85
818.453	193.53
818.632	252.92
818.81	66.56
818.988	52.22
819.167	109.57
819.345	91.13
819.523	103.42
819.701	148.48
819.879	76.8
820.058	132.09
820.236	138.24
820.414	39.94
820.592	177.15
820.77	82.94
820.948	119.81
821.127	115.71
821.305	164.86
821.483	64.51
821.661	138.24
821.839	154.62
822.017	148.48
822.195	99.33
822.373	80.89
822.551	103.42
822.729	121.85
822.907	89.09
823.085	109.57
823.262	64.51
823.44	121.85
823.618	107.52
823.796	136.19
823.974	89.09
824.152	97.28
824.329	97.28
824.507	162.81
824.685	166.91
824.863	74.75
825.04	87.04
825.218	150.53
825.396	91.13
825.574	72.7
825.751	138.24
825.929	154.62
826.107	82.94
826.284	76.8
826.462	105.47
826.639	68.61
826.817	74.75
826.994	115.71
827.172	128
827.349	164.86
827.527	117.76
827.704	113.66
827.882	113.66
828.059	89.09
828.237	99.33
828.414	95.23
828.591	60.42
828.769	117.76
828.946	68.61
829.124	179.2
829.301	78.85
829.478	64.51
829.655	89.09
829.833	138.24
830.01	48.13
830.187	171.01
830.364	105.47
830.542	105.47
830.719	50.18
830.896	82.94
831.073	72.7
831.25	19.46
831.427	146.43
831.604	23.55
831.782	148.48
831.959	91.13
832.136	82.94
832.313	115.71
832.49	121.85
832.667	99.33
832.844	87.04
833.021	39.94
833.198	74.75
833.374	84.99
833.551	91.13
833.728	60.42
833.905	119.81
834.082	33.79
834.259	140.29
834.436	101.37
834.612	70.65
834.789	76.8
834.966	84.99
835.143	76.8
835.319	95.23
835.496	64.51
835.673	93.18
835.85	103.42
836.026	105.47
836.203	107.52
836.38	91.13
836.556	89.09
836.733	33.79
836.909	105.47
837.086	44.03
837.262	84.99
837.439	44.03
837.616	76.8
837.792	142.33
837.968	107.52
838.145	144.38
838.321	87.04
838.498	103.42
838.674	50.18
838.851	23.55
839.027	89.09
839.203	48.13
839.38	84.99
839.556	72.7
839.732	89.09
839.909	74.75
840.085	76.8
840.261	105.47
840.437	58.37
840.614	66.56
840.79	74.75
840.966	99.33
841.142	-11.26
841.318	103.42
841.494	72.7
841.671	33.79
841.847	52.22
842.023	93.18
842.199	54.27
842.375	5.12
842.551	31.74
842.727	35.84
842.903	33.79
843.079	13.31
843.255	146.43
843.431	60.42
843.607	130.05
843.783	39.94
843.959	3.07
844.134	66.56
844.31	99.33
844.486	66.56
844.662	-56.32
844.838	11.26
845.013	76.8
845.189	58.37
845.365	37.89
845.541	66.56
845.716	25.6
845.892	76.8
846.068	134.14
846.244	76.8
846.419	44.03
846.595	54.27
846.77	39.94
846.946	105.47
847.122	-25.6
847.297	78.85
847.473	44.03
847.648	54.27
847.824	41.98
847.999	62.46
848.175	39.94
848.35	58.37
848.526	84.99
848.701	54.27
848.876	68.61
849.052	60.42
849.227	105.47
849.403	33.79
849.578	87.04
849.753	82.94
849.929	72.7
850.104	48.13
850.279	97.28
850.454	140.29
850.63	66.56
850.805	9.22
850.98	66.56
851.155	-74.75
851.33	74.75
851.505	21.5
851.681	68.61
851.856	19.46
852.031	56.32
852.206	66.56
852.381	-9.22
852.556	54.27
852.731	35.84
852.906	9.22
853.081	52.22
853.256	50.18
853.431	89.09
853.606	-39.94
853.781	109.57
853.956	-68.61
854.131	39.94
854.305	7.17
854.48	93.18
854.655	17.41
854.83	56.32
855.005	25.6
855.18	99.33
855.354	72.7
855.529	56.32
855.704	48.13
855.879	56.32
856.053	50.18
856.228	50.18
856.403	39.94
856.577	152.57
856.752	-1.02
856.926	17.41
857.101	7.17
857.276	15.36
857.45	111.61
857.625	17.41
857.799	-52.22
857.974	56.32
858.148	44.03
858.323	101.37
858.497	39.94
858.672	27.65
858.846	41.98
859.02	17.41
859.195	-33.79
859.369	68.61
859.543	54.27
859.718	39.94
859.892	21.5
860.066	48.13
860.241	-60.42
860.415	-25.6
860.589	-5.12
860.763	56.32
860.938	105.47
861.112	76.8
861.286	89.09
861.46	95.23
861.634	64.51
861.808	50.18
861.982	-11.26
862.157	74.75
862.331	7.17
862.505	13.31
862.679	58.37
862.853	19.46
863.027	-9.22
863.201	64.51
863.375	-9.22
863.549	15.36
863.722	46.08
863.896	23.55
864.07	17.41
864.244	31.74
864.418	39.94
864.592	23.55
864.766	56.32
864.939	84.99
865.113	58.37
865.287	15.36
865.461	-15.36
865.634	23.55
865.808	50.18
865.982	64.51
866.156	46.08
866.329	58.37
866.503	35.84
866.676	39.94
866.85	11.26
867.024	-5.12
867.197	-5.12
867.371	107.52
867.544	89.09
867.718	31.74
867.891	-31.74
868.065	60.42
868.238	-58.37
868.412	39.94
868.585	17.41
868.759	80.89
868.932	17.41
869.105	60.42
869.279	44.03
869.452	33.79
869.625	7.17
869.799	74.75
869.972	39.94
870.145	41.98
870.319	39.94
870.492	-7.17
870.665	11.26
870.838	50.18
871.011	-17.41
871.185	31.74
871.358	68.61
871.531	72.7
871.704	-35.84
871.877	-5.12
872.05	-1.02
872.223	-1.02
872.396	-1.02
872.569	50.18
872.742	-19.46
872.915	82.94
873.088	-1.02
873.261	-9.22
873.434	-9.22
873.607	130.05
873.78	72.7
873.953	-5.12
874.126	-15.36
874.299	41.98
874.471	-17.41
874.644	-3.07
874.817	25.6
874.99	111.61
875.163	76.8
875.335	-5.12
875.508	23.55
875.681	52.22
875.853	37.89
876.026	39.94
876.199	11.26
876.371	101.37
876.544	-17.41
876.717	48.13
876.889	54.27
877.062	7.17
877.234	-54.27
877.407	-33.79
877.579	-17.41
877.752	103.42
877.924	44.03
878.097	11.26
878.269	-7.17
878.442	39.94
878.614	39.94
878.786	31.74
878.959	76.8
879.131	1.02
879.303	-31.74
879.476	64.51
879.648	-7.17
879.82	33.79
879.993	7.17
880.165	21.5
880.337	-58.37
880.509	-7.17
880.681	76.8
880.854	76.8
881.026	23.55
881.198	72.7
881.37	33.79
881.542	89.09
881.714	41.98
881.886	33.79
882.058	-9.22
882.23	66.56
882.402	-21.5
882.574	-17.41
882.746	7.17
882.918	82.94
883.09	132.09
883.262	50.18
883.434	-9.22
883.606	78.85
883.778	-13.31
883.95	3.07
884.122	-1.02
884.293	39.94
884.465	-33.79
884.637	31.74
884.809	52.22
884.98	-7.17
885.152	82.94
885.324	101.37
885.496	52.22
885.667	64.51
885.839	7.17
886.011	64.51
886.182	41.98
886.354	58.37
886.525	5.12
886.697	46.08
886.869	-9.22
887.04	-19.46
887.212	17.41
887.383	76.8
887.555	9.22
887.726	27.65
887.897	-7.17
888.069	15.36
888.24	15.36
888.412	35.84
888.583	-7.17
888.754	21.5
888.926	-25.6
889.097	9.22
889.268	-39.94
889.44	48.13
889.611	58.37
889.782	29.7
889.953	13.31
890.125	70.65
890.296	27.65
890.467	-31.74
890.638	-21.5
890.809	17.41
890.98	-1.02
891.151	48.13
891.323	87.04
891.494	48.13
891.665	19.46
891.836	48.13
892.007	37.89
892.178	19.46
892.349	7.17
892.52	25.6
892.691	39.94
892.862	-21.5
893.032	17.41
893.203	27.65
893.374	25.6
893.545	27.65
893.716	50.18
893.887	15.36
894.057	27.65
894.228	39.94
894.399	17.41
894.57	74.75
894.74	39.94
894.911	15.36
895.082	-35.84
895.253	56.32
895.423	31.74
895.594	-13.31
895.764	15.36
895.935	-13.31
896.106	33.79
896.276	29.7
896.447	44.03
896.617	39.94
896.788	11.26
896.958	19.46
897.129	33.79
897.299	7.17
897.47	19.46
897.64	13.31
897.81	17.41
897.981	-25.6
898.151	-37.89
898.322	54.27
898.492	-29.7
898.662	25.6
898.832	19.46
899.003	-7.17
899.173	78.85
899.343	-1.02
899.513	48.13
