Data from USB4F104151__106__14-18-12-715.txt Node

Date: Thu Mar 13 14:18:12 EDT 2025
User: louis
Spectrometer: USB4F10415
Trigger mode: 4
Integration Time (sec): 2.000000E-2
Scans to average: 1
Electric dark correction enabled: true
Nonlinearity correction enabled: false
Boxcar width: 0
XAxis mode: Wavelengths
Number of Pixels in Spectrum: 3648
>>>>>Begin Spectral Data<<<<<
178.204	-112.47
178.424	-112.47
178.644	-112.47
178.864	-96.08
179.084	-83.8
179.304	-26.45
179.524	8.36
179.744	12.46
179.964	-20.31
180.184	-32.6
180.404	-10.07
180.624	-59.22
180.844	-16.21
181.064	37.03
181.283	82.09
181.503	18.6
181.723	6.31
181.943	16.55
182.163	106.67
182.383	2.22
182.602	118.95
182.822	39.08
183.042	102.57
183.262	22.7
183.482	39.08
183.701	104.62
183.921	10.41
184.141	96.43
184.361	2.22
184.58	10.41
184.8	84.14
185.02	51.37
185.239	53.42
185.459	96.43
185.679	145.58
185.898	-40.79
186.118	80.04
186.338	26.79
186.557	57.51
186.777	8.36
186.997	34.99
187.216	39.08
187.436	67.75
187.655	55.47
187.875	82.09
188.095	106.67
188.314	34.99
188.534	133.29
188.753	10.41
188.973	106.67
189.192	14.51
189.412	69.8
189.631	88.23
189.851	45.23
190.07	-10.07
190.29	88.23
190.509	88.23
190.729	67.75
190.948	41.13
191.168	116.9
191.387	80.04
191.607	28.84
191.826	32.94
192.045	-44.88
192.265	-18.26
192.484	43.18
192.704	-10.07
192.923	-1.88
193.142	118.95
193.362	67.75
193.581	90.28
193.8	14.51
194.02	125.1
194.239	26.79
194.458	18.6
194.678	94.38
194.897	67.75
195.116	141.48
195.335	96.43
195.555	39.08
195.774	8.36
195.993	30.89
196.212	92.33
196.432	75.95
196.651	73.9
196.87	47.27
197.089	14.51
197.308	98.47
197.528	55.47
197.747	-10.07
197.966	-22.36
198.185	41.13
198.404	43.18
198.623	73.9
198.842	47.27
199.062	67.75
199.281	123.05
199.5	45.23
199.719	98.47
199.938	0.17
200.157	22.7
200.376	104.62
200.595	30.89
200.814	65.71
201.033	75.95
201.252	80.04
201.471	6.31
201.69	80.04
201.909	10.41
202.128	-3.93
202.347	65.71
202.566	178.34
202.785	20.65
203.004	10.41
203.223	106.67
203.442	37.03
203.661	88.23
203.879	86.19
204.098	82.09
204.317	-14.17
204.536	112.81
204.755	82.09
204.974	39.08
205.193	47.27
205.411	82.09
205.63	-1.88
205.849	88.23
206.068	-12.12
206.287	75.95
206.505	88.23
206.724	26.79
206.943	-18.26
207.162	69.8
207.381	63.66
207.599	88.23
207.818	75.95
208.037	30.89
208.255	59.56
208.474	41.13
208.693	129.19
208.911	32.94
209.13	104.62
209.349	-1.88
209.567	82.09
209.786	82.09
210.005	24.75
210.223	82.09
210.442	41.13
210.661	71.85
210.879	-22.36
211.098	57.51
211.316	75.95
211.535	67.75
211.753	49.32
211.972	80.04
212.191	65.71
212.409	51.37
212.628	41.13
212.846	24.75
213.065	22.7
213.283	137.38
213.502	47.27
213.72	-18.26
213.938	-10.07
214.157	129.19
214.375	39.08
214.594	6.31
214.812	73.9
215.031	65.71
215.249	82.09
215.467	45.23
215.686	30.89
215.904	137.38
216.122	65.71
216.341	112.81
216.559	63.66
216.778	63.66
216.996	100.52
217.214	43.18
217.432	49.32
217.651	59.56
217.869	22.7
218.087	98.47
218.306	34.99
218.524	14.51
218.742	55.47
218.96	73.9
219.179	2.22
219.397	45.23
219.615	145.58
219.833	43.18
220.051	8.36
220.27	49.32
220.488	96.43
220.706	30.89
220.924	71.85
221.142	106.67
221.36	57.51
221.578	92.33
221.796	-36.69
222.015	47.27
222.233	94.38
222.451	88.23
222.669	-3.93
222.887	18.6
223.105	39.08
223.323	51.37
223.541	20.65
223.759	28.84
223.977	-1.88
224.195	90.28
224.413	75.95
224.631	-5.97
224.849	-26.45
225.067	34.99
225.285	90.28
225.503	118.95
225.721	6.31
225.939	51.37
226.157	57.51
226.375	121
226.592	59.56
226.81	39.08
227.028	84.14
227.246	88.23
227.464	39.08
227.682	114.86
227.9	84.14
228.117	34.99
228.335	143.53
228.553	26.79
228.771	65.71
228.989	59.56
229.206	112.81
229.424	-10.07
229.642	-24.4
229.86	32.94
230.077	96.43
230.295	-14.17
230.513	67.75
230.731	114.86
230.948	80.04
231.166	145.58
231.384	110.76
231.601	41.13
231.819	88.23
232.037	63.66
232.254	2.22
232.472	6.31
232.689	6.31
232.907	55.47
233.125	84.14
233.342	92.33
233.56	16.55
233.777	2.22
233.995	0.17
234.213	51.37
234.43	-1.88
234.648	104.62
234.865	43.18
235.083	63.66
235.3	57.51
235.518	43.18
235.735	106.67
235.953	57.51
236.17	26.79
236.388	57.51
236.605	45.23
236.822	55.47
237.04	131.24
237.257	2.22
237.475	-18.26
237.692	51.37
237.909	84.14
238.127	88.23
238.344	10.41
238.562	34.99
238.779	2.22
238.996	41.13
239.214	86.19
239.431	94.38
239.648	51.37
239.865	80.04
240.083	0.17
240.3	39.08
240.517	14.51
240.735	14.51
240.952	192.68
241.169	129.19
241.386	-46.93
241.603	180.39
241.821	71.85
242.038	-8.02
242.255	47.27
242.472	-10.07
242.689	114.86
242.907	47.27
243.124	51.37
243.341	90.28
243.558	90.28
243.775	26.79
243.992	26.79
244.209	96.43
244.426	125.1
244.643	108.71
244.86	53.42
245.078	86.19
245.295	69.8
245.512	47.27
245.729	47.27
245.946	30.89
246.163	55.47
246.38	30.89
246.597	2.22
246.814	43.18
247.031	153.77
247.248	47.27
247.464	16.55
247.681	45.23
247.898	80.04
248.115	39.08
248.332	73.9
248.549	88.23
248.766	82.09
248.983	80.04
249.2	71.85
249.417	39.08
249.633	37.03
249.85	75.95
250.067	39.08
250.284	16.55
250.501	53.42
250.717	75.95
250.934	-3.93
251.151	71.85
251.368	73.9
251.585	43.18
251.801	82.09
252.018	32.94
252.235	71.85
252.451	2.22
252.668	12.46
252.885	88.23
253.102	98.47
253.318	26.79
253.535	118.95
253.752	82.09
253.968	106.67
254.185	61.61
254.401	34.99
254.618	80.04
254.835	94.38
255.051	161.96
255.268	14.51
255.484	121
255.701	59.56
255.917	94.38
256.134	41.13
256.351	73.9
256.567	98.47
256.784	59.56
257	22.7
257.217	116.9
257.433	63.66
257.65	10.41
257.866	51.37
258.082	18.6
258.299	-3.93
258.515	80.04
258.732	39.08
258.948	71.85
259.165	18.6
259.381	-5.97
259.597	43.18
259.814	49.32
260.03	6.31
260.246	30.89
260.463	61.61
260.679	53.42
260.895	73.9
261.112	14.51
261.328	-3.93
261.544	41.13
261.761	116.9
261.977	-10.07
262.193	63.66
262.409	43.18
262.626	145.58
262.842	73.9
263.058	45.23
263.274	69.8
263.49	121
263.707	49.32
263.923	84.14
264.139	37.03
264.355	98.47
264.571	59.56
264.787	49.32
265.004	55.47
265.22	55.47
265.436	32.94
265.652	57.51
265.868	106.67
266.084	32.94
266.3	65.71
266.516	57.51
266.732	98.47
266.948	178.34
267.164	88.23
267.38	55.47
267.596	121
267.812	153.77
268.028	96.43
268.244	69.8
268.46	43.18
268.676	53.42
268.892	80.04
269.108	14.51
269.324	98.47
269.54	57.51
269.756	55.47
269.972	0.17
270.188	-8.02
270.403	116.9
270.619	-42.84
270.835	90.28
271.051	20.65
271.267	39.08
271.483	51.37
271.698	80.04
271.914	47.27
272.13	47.27
272.346	75.95
272.562	61.61
272.777	96.43
272.993	73.9
273.209	41.13
273.425	6.31
273.64	39.08
273.856	108.71
274.072	22.7
274.287	-36.69
274.503	57.51
274.719	104.62
274.934	47.27
275.15	22.7
275.366	59.56
275.581	47.27
275.797	135.34
276.012	43.18
276.228	65.71
276.444	53.42
276.659	92.33
276.875	164.01
277.09	145.58
277.306	24.75
277.521	112.81
277.737	71.85
277.952	63.66
278.168	51.37
278.383	157.86
278.599	47.27
278.814	112.81
279.03	71.85
279.245	47.27
279.461	96.43
279.676	108.71
279.892	-12.12
280.107	133.29
280.322	24.75
280.538	153.77
280.753	59.56
280.969	88.23
281.184	61.61
281.399	49.32
281.615	53.42
281.83	26.79
282.045	41.13
282.26	88.23
282.476	96.43
282.691	71.85
282.906	37.03
283.122	98.47
283.337	63.66
283.552	43.18
283.767	75.95
283.983	112.81
284.198	39.08
284.413	71.85
284.628	114.86
284.843	178.34
285.058	88.23
285.274	6.31
285.489	96.43
285.704	26.79
285.919	108.71
286.134	98.47
286.349	73.9
286.564	18.6
286.779	90.28
286.995	90.28
287.21	69.8
287.425	121
287.64	67.75
287.855	14.51
288.07	-26.45
288.285	106.67
288.5	51.37
288.715	80.04
288.93	-30.55
289.145	90.28
289.36	108.71
289.575	18.6
289.79	90.28
290.004	30.89
290.219	65.71
290.434	39.08
290.649	-24.4
290.864	90.28
291.079	57.51
291.294	45.23
291.509	-1.88
291.724	6.31
291.938	104.62
292.153	112.81
292.368	-22.36
292.583	71.85
292.798	92.33
293.012	63.66
293.227	63.66
293.442	14.51
293.657	112.81
293.871	63.66
294.086	84.14
294.301	112.81
294.516	55.47
294.73	71.85
294.945	18.6
295.16	39.08
295.374	82.09
295.589	49.32
295.804	80.04
296.018	92.33
296.233	121
296.447	88.23
296.662	90.28
296.877	80.04
297.091	88.23
297.306	84.14
297.52	30.89
297.735	131.24
297.949	59.56
298.164	30.89
298.378	30.89
298.593	73.9
298.807	80.04
299.022	49.32
299.236	73.9
299.451	24.75
299.665	37.03
299.88	8.36
300.094	80.04
300.309	82.09
300.523	49.32
300.737	73.9
300.952	92.33
301.166	57.51
301.381	63.66
301.595	16.55
301.809	88.23
302.024	116.9
302.238	41.13
302.452	47.27
302.667	75.95
302.881	98.47
303.095	14.51
303.309	77.99
303.524	96.43
303.738	41.13
303.952	26.79
304.166	112.81
304.381	-18.26
304.595	88.23
304.809	6.31
305.023	110.76
305.237	96.43
305.452	84.14
305.666	14.51
305.88	63.66
306.094	80.04
306.308	47.27
306.522	10.41
306.736	182.44
306.95	106.67
307.164	84.14
307.379	106.67
307.593	86.19
307.807	139.43
308.021	39.08
308.235	157.86
308.449	94.38
308.663	82.09
308.877	155.82
309.091	20.65
309.305	41.13
309.519	61.61
309.733	98.47
309.947	75.95
310.161	153.77
310.374	82.09
310.588	118.95
310.802	18.6
311.016	98.47
311.23	61.61
311.444	75.95
311.658	10.41
311.872	100.52
312.085	114.86
312.299	12.46
312.513	129.19
312.727	24.75
312.941	30.89
313.154	90.28
313.368	67.75
313.582	-34.64
313.796	18.6
314.009	82.09
314.223	147.62
314.437	71.85
314.651	80.04
314.864	71.85
315.078	-1.88
315.292	80.04
315.505	67.75
315.719	80.04
315.933	82.09
316.146	96.43
316.36	10.41
316.573	71.85
316.787	75.95
317.001	53.42
317.214	108.71
317.428	65.71
317.641	90.28
317.855	30.89
318.068	90.28
318.282	67.75
318.495	116.9
318.709	86.19
318.922	22.7
319.136	112.81
319.349	141.48
319.563	39.08
319.776	63.66
319.99	34.99
320.203	88.23
320.417	88.23
320.63	108.71
320.843	129.19
321.057	102.57
321.27	80.04
321.483	116.9
321.697	34.99
321.91	147.62
322.124	49.32
322.337	55.47
322.55	20.65
322.763	106.67
322.977	39.08
323.19	16.55
323.403	104.62
323.617	84.14
323.83	112.81
324.043	92.33
324.256	106.67
324.469	34.99
324.683	88.23
324.896	125.1
325.109	108.71
325.322	30.89
325.535	180.39
325.748	123.05
325.962	92.33
326.175	98.47
326.388	-5.97
326.601	55.47
326.814	28.84
327.027	6.31
327.24	143.53
327.453	39.08
327.666	63.66
327.879	100.52
328.092	112.81
328.305	80.04
328.518	112.81
328.731	61.61
328.944	63.66
329.157	82.09
329.37	84.14
329.583	133.29
329.796	73.9
330.009	118.95
330.222	57.51
330.435	153.77
330.648	96.43
330.861	88.23
331.073	88.23
331.286	63.66
331.499	80.04
331.712	67.75
331.925	166.06
332.138	39.08
332.35	129.19
332.563	73.9
332.776	96.43
332.989	55.47
333.202	129.19
333.414	80.04
333.627	63.66
333.84	59.56
334.053	88.23
334.265	6.31
334.478	94.38
334.691	77.99
334.903	88.23
335.116	12.46
335.329	73.9
335.541	71.85
335.754	98.47
335.966	2.22
336.179	67.75
336.392	24.75
336.604	69.8
336.817	90.28
337.029	153.77
337.242	55.47
337.454	71.85
337.667	53.42
337.88	116.9
338.092	106.67
338.305	164.01
338.517	102.57
338.729	131.24
338.942	63.66
339.154	129.19
339.367	123.05
339.579	49.32
339.792	77.99
340.004	47.27
340.217	63.66
340.429	59.56
340.641	71.85
340.854	71.85
341.066	110.76
341.278	104.62
341.491	104.62
341.703	43.18
341.915	32.94
342.128	49.32
342.34	98.47
342.552	28.84
342.764	67.75
342.977	133.29
343.189	80.04
343.401	157.86
343.613	41.13
343.826	96.43
344.038	55.47
344.25	96.43
344.462	92.33
344.674	96.43
344.886	43.18
345.099	63.66
345.311	-24.4
345.523	90.28
345.735	82.09
345.947	108.71
346.159	47.27
346.371	69.8
346.583	43.18
346.795	63.66
347.007	100.52
347.219	57.51
347.431	20.65
347.643	39.08
347.855	-12.12
348.067	86.19
348.279	82.09
348.491	98.47
348.703	77.99
348.915	88.23
349.127	32.94
349.339	106.67
349.551	-18.26
349.763	77.99
349.975	73.9
350.187	102.57
350.399	98.47
350.61	145.58
350.822	24.75
351.034	104.62
351.246	43.18
351.458	145.58
351.669	39.08
351.881	22.7
352.093	125.1
352.305	90.28
352.517	145.58
352.728	8.36
352.94	53.42
353.152	37.03
353.363	26.79
353.575	51.37
353.787	123.05
353.999	84.14
354.21	92.33
354.422	147.62
354.633	112.81
354.845	71.85
355.057	71.85
355.268	63.66
355.48	67.75
355.692	47.27
355.903	71.85
356.115	121
356.326	26.79
356.538	88.23
356.749	0.17
356.961	94.38
357.172	92.33
357.384	129.19
357.595	143.53
357.807	108.71
358.018	37.03
358.23	131.24
358.441	88.23
358.653	223.4
358.864	77.99
359.075	26.79
359.287	47.27
359.498	131.24
359.709	110.76
359.921	55.47
360.132	14.51
360.344	88.23
360.555	100.52
360.766	106.67
360.977	164.01
361.189	98.47
361.4	112.81
361.611	145.58
361.823	116.9
362.034	75.95
362.245	98.47
362.456	73.9
362.667	47.27
362.879	86.19
363.09	65.71
363.301	131.24
363.512	172.2
363.723	100.52
363.935	20.65
364.146	30.89
364.357	84.14
364.568	65.71
364.779	24.75
364.99	155.82
365.201	73.9
365.412	186.54
365.623	41.13
365.834	59.56
366.045	88.23
366.256	131.24
366.467	14.51
366.678	73.9
366.889	104.62
367.1	106.67
367.311	106.67
367.522	129.19
367.733	67.75
367.944	125.1
368.155	51.37
368.366	129.19
368.577	125.1
368.788	63.66
368.999	24.75
369.209	161.96
369.42	139.43
369.631	88.23
369.842	63.66
370.053	39.08
370.264	114.86
370.474	34.99
370.685	6.31
370.896	80.04
371.107	127.14
371.317	80.04
371.528	102.57
371.739	147.62
371.95	75.95
372.16	63.66
372.371	65.71
372.582	67.75
372.792	112.81
373.003	96.43
373.214	161.96
373.424	129.19
373.635	147.62
373.846	112.81
374.056	57.51
374.267	82.09
374.477	102.57
374.688	84.14
374.898	139.43
375.109	108.71
375.319	59.56
375.53	145.58
375.74	94.38
375.951	90.28
376.161	55.47
376.372	135.34
376.582	170.15
376.793	112.81
377.003	139.43
377.214	123.05
377.424	82.09
377.635	57.51
377.845	84.14
378.055	112.81
378.266	22.7
378.476	77.99
378.686	123.05
378.897	90.28
379.107	116.9
379.317	71.85
379.528	121
379.738	61.61
379.948	121
380.158	88.23
380.369	118.95
380.579	82.09
380.789	77.99
380.999	129.19
381.21	96.43
381.42	159.91
381.63	71.85
381.84	88.23
382.05	155.82
382.261	88.23
382.471	161.96
382.681	49.32
382.891	104.62
383.101	84.14
383.311	37.03
383.521	30.89
383.731	112.81
383.941	110.76
384.151	92.33
384.361	121
384.571	133.29
384.781	131.24
384.991	137.38
385.201	198.82
385.411	129.19
385.621	123.05
385.831	139.43
386.041	151.72
386.251	30.89
386.461	131.24
386.671	174.25
386.881	108.71
387.091	57.51
387.301	121
387.511	114.86
387.72	88.23
387.93	98.47
388.14	80.04
388.35	161.96
388.56	121
388.769	114.86
388.979	131.24
389.189	-1.88
389.399	104.62
389.609	147.62
389.818	133.29
390.028	100.52
390.238	67.75
390.447	73.9
390.657	104.62
390.867	34.99
391.076	39.08
391.286	73.9
391.496	71.85
391.705	155.82
391.915	106.67
392.125	129.19
392.334	133.29
392.544	137.38
392.753	30.89
392.963	143.53
393.172	143.53
393.382	121
393.591	116.9
393.801	82.09
394.01	96.43
394.22	125.1
394.429	139.43
394.639	106.67
394.848	121
395.058	37.03
395.267	123.05
395.477	75.95
395.686	170.15
395.895	121
396.105	178.34
396.314	106.67
396.524	80.04
396.733	67.75
396.942	192.68
397.152	135.34
397.361	98.47
397.57	155.82
397.78	121
397.989	186.54
398.198	290.98
398.407	166.06
398.617	141.48
398.826	174.25
399.035	84.14
399.244	102.57
399.453	211.11
399.663	186.54
399.872	276.65
400.081	153.77
400.29	217.26
400.499	211.11
400.708	223.4
400.917	121
401.127	209.06
401.336	49.32
401.545	213.16
401.754	219.3
401.963	237.74
402.172	225.45
402.381	188.58
402.59	180.39
402.799	159.91
403.008	245.93
403.217	268.45
403.426	260.26
403.635	272.55
403.844	174.25
404.053	231.59
404.262	164.01
404.471	235.69
404.68	247.97
404.888	243.88
405.097	207.02
405.306	235.69
405.515	227.5
405.724	338.09
405.933	284.84
406.142	286.89
406.35	280.74
406.559	247.97
406.768	346.28
406.977	342.18
407.185	252.07
407.394	336.04
407.603	256.17
407.812	352.42
408.02	362.66
408.229	323.75
408.438	315.56
408.646	387.24
408.855	323.75
409.064	395.43
409.272	430.24
409.481	430.24
409.69	506.02
409.898	465.06
410.107	450.72
410.315	491.68
410.524	555.17
410.733	546.98
410.941	442.53
411.15	481.44
411.358	622.75
411.567	620.71
411.775	557.22
411.984	575.65
412.192	653.47
412.401	606.37
412.609	669.86
412.818	690.34
413.026	698.53
413.234	784.54
413.443	798.88
413.651	792.73
413.86	841.89
414.068	895.13
414.276	888.99
414.485	923.8
414.693	989.34
414.901	1030.3
415.11	1030.3
415.318	1046.68
415.526	1071.26
415.734	1056.92
415.943	1052.83
416.151	1153.18
416.359	1220.76
416.567	1214.62
416.776	1276.06
416.984	1347.73
417.192	1464.47
417.4	1400.98
417.608	1489.04
417.817	1452.18
418.025	1642.64
418.233	1681.55
418.441	1622.16
418.649	1695.89
418.857	1839.25
419.065	1984.65
419.273	1835.15
419.481	1878.16
419.689	1939.6
419.897	2046.09
420.105	2089.1
420.313	2279.56
420.521	2242.7
420.729	2277.51
420.937	2439.3
421.145	2611.33
421.353	2572.42
421.561	2764.93
421.769	2947.2
421.977	2914.43
422.185	2990.21
422.393	3100.8
422.601	3303.54
422.809	3264.63
423.017	3270.78
423.224	3358.84
423.432	3627.12
423.64	3539.06
423.848	3856.5
424.056	3766.39
424.263	4014.19
424.471	4108.4
424.679	4077.68
424.887	4391.02
425.094	4528.23
425.302	4456.55
425.51	4733.03
425.718	4753.51
425.925	4966.49
426.133	5120.09
426.341	5406.81
426.548	5572.69
426.756	5660.76
426.964	5724.24
427.171	5840.98
427.379	6021.2
427.586	6107.21
427.794	6305.87
428.001	6641.73
428.209	6885.44
428.417	6854.72
428.624	7387.19
428.832	7381.05
429.039	7309.37
429.247	7444.54
429.454	7938.1
429.662	8296.49
429.869	7938.1
430.076	8575.02
430.284	8312.88
430.491	8833.06
430.699	9162.78
430.906	8923.17
431.114	9281.57
431.321	9660.44
431.528	9973.78
431.736	10260.49
431.943	10965
432.15	10471.43
432.358	10645.51
432.565	11266.05
432.772	11335.68
432.979	11659.26
433.187	11911.16
433.394	11884.53
433.601	12980.2
433.808	12967.91
434.016	12736.49
434.223	13285.34
434.43	14045.14
434.637	13789.14
434.844	14720.97
435.052	15124.42
435.259	14874.57
435.466	15093.7
435.673	14825.42
435.88	16035.77
436.087	16441.26
436.294	16684.97
436.501	16132.02
436.708	16797.61
436.915	17266.6
437.122	18050.97
437.329	18012.06
437.537	18560.91
437.743	18683.79
437.95	18720.65
438.157	19480.45
438.364	20133.75
438.571	20187
438.778	20375.41
438.985	21968.73
439.192	21317.48
439.399	22284.12
439.606	21702.5
439.813	22914.89
440.02	24250.17
440.227	23371.59
440.433	23455.56
440.64	24037.18
440.847	23947.07
441.054	24657.71
441.261	26195.74
441.467	25917.22
441.674	26525.46
441.881	27350.79
442.088	27356.94
442.294	26918.67
442.501	27574.02
442.708	27877.12
442.914	29697.77
443.121	30482.14
443.328	29519.59
443.534	31704.77
443.741	30650.07
443.948	30306.01
444.154	32609.98
444.361	32558.78
444.568	32528.06
444.774	32566.97
444.981	33019.57
445.187	33978.02
445.394	35591.82
445.6	34616.99
445.807	38151.78
446.013	36382.34
446.22	37080.69
446.426	38620.77
446.633	38696.54
446.839	40152.65
447.046	38487.65
447.252	40521.28
447.459	40666.69
447.665	40642.11
447.871	41926.19
448.078	44144.14
448.284	42114.6
448.491	43001.37
448.697	44267.02
448.903	45547
449.11	45411.83
449.316	44467.72
449.522	45581.81
449.728	47015.39
449.935	46898.66
450.141	46771.68
450.347	48018.89
450.553	46761.44
450.76	47347.16
450.966	48674.24
451.172	48317.9
451.378	49485.24
451.584	48029.13
451.791	49515.96
451.997	48981.44
452.203	50384.3
452.409	50322.86
452.615	50079.15
452.821	48393.67
453.027	47711.7
453.233	50011.57
453.44	48238.03
453.646	48995.78
453.852	49046.97
454.058	49880.5
454.264	48047.57
454.47	49522.1
454.676	48158.16
454.882	49438.14
455.088	45557.24
455.294	45987.31
455.5	47388.12
455.705	47066.59
455.911	45268.47
456.117	44688.9
456.323	43957.77
456.529	41766.45
456.735	43705.87
456.941	42712.61
457.147	41606.7
457.352	40777.28
457.558	40070.73
457.764	40764.99
457.97	39632.46
458.176	39085.65
458.381	38968.92
458.587	37187.19
458.793	37017.21
458.999	34803.35
459.204	37707.37
459.41	36537.98
459.616	34184.87
459.821	34119.33
460.027	34018.98
460.233	33203.89
460.438	31735.49
460.644	32286.4
460.85	30731.99
461.055	30176.99
461.261	30222.05
461.466	27873.03
461.672	27352.84
461.878	28976.88
462.083	27471.62
462.289	26810.13
462.494	26459.93
462.7	25126.7
462.905	24502.07
463.111	25302.82
463.316	25632.55
463.522	24944.43
463.727	24774.45
463.932	24799.02
464.138	24917.81
464.343	25042.73
464.549	23942.97
464.754	24522.55
464.959	24540.98
465.165	24110.91
465.37	23312.2
465.575	22941.52
465.781	23889.73
465.986	23680.83
466.191	22808.4
466.397	22495.06
466.602	21364.58
466.807	22302.55
467.012	22363.99
467.218	22300.5
467.423	21657.44
467.628	22220.63
467.833	22869.84
468.038	21765.98
468.244	21297
468.449	22241.11
468.654	21368.68
468.859	21458.79
469.064	21428.07
469.269	20561.78
469.474	20707.18
469.679	21063.53
469.885	20381.56
470.09	20623.22
470.295	20719.47
470.5	19883.9
470.705	20389.75
470.91	20103.03
471.115	19296.13
471.32	19810.17
471.525	19863.42
471.73	19298.18
471.935	19183.49
472.139	18409.36
472.344	18907.02
472.549	18642.83
472.754	18274.2
472.959	18212.76
473.164	17684.38
473.369	17325.99
473.574	17979.29
473.778	17651.61
473.983	17729.44
474.188	17844.12
474.393	16945.06
474.598	17002.41
474.802	16912.3
475.007	16539.57
475.212	16840.62
475.417	16119.73
475.621	16156.6
475.826	16138.16
476.031	15683.52
476.235	15724.47
476.44	15966.14
476.645	15361.98
476.849	15472.57
477.054	15247.3
477.259	15144.9
477.463	14866.38
477.668	14821.32
477.872	14919.62
478.077	14866.38
478.282	14331.86
478.486	14141.39
478.691	14131.16
478.895	14231.51
479.1	14032.85
479.304	14100.44
479.509	13684.7
479.713	14071.76
479.918	13727.71
480.122	13223.9
480.326	13559.77
480.531	13191.14
480.735	13432.8
480.94	13193.19
481.144	13623.26
481.348	12974.05
481.553	13213.67
481.757	12853.22
481.961	13074.4
482.166	13471.71
482.37	13203.43
482.574	12867.56
482.778	13058.02
482.983	13449.18
483.187	13002.72
483.391	13068.26
483.595	12957.67
483.8	12771.3
484.004	12982.24
484.208	13221.86
484.412	12847.08
484.616	13017.06
484.821	13033.44
485.025	12673
485.229	12986.34
485.433	13039.59
485.637	13172.71
485.841	12982.24
486.045	12802.02
486.249	12783.59
486.453	12687.34
486.657	13047.78
486.861	12988.39
487.065	12632.04
487.269	13027.3
487.473	12697.58
487.677	12972
487.881	13078.5
488.085	12707.82
488.289	12918.76
488.493	12894.18
488.697	13096.93
488.901	12918.76
489.105	13021.16
489.309	13031.4
489.512	12943.33
489.716	13064.16
489.92	13129.7
490.124	13205.47
490.328	13105.12
490.531	12939.24
490.735	13385.69
490.939	13350.88
491.143	13211.62
491.346	13311.97
491.55	13350.88
491.754	13551.58
491.958	13524.96
492.161	13404.13
492.365	13402.08
492.569	13305.82
492.772	13606.88
492.976	13766.62
493.18	13719.51
493.383	14008.28
493.587	14059.48
493.79	14311.38
493.994	13703.13
494.197	14237.65
494.401	14245.84
494.605	14270.42
494.808	14512.08
495.012	14546.89
495.215	14878.66
495.419	14727.11
495.622	14663.63
495.825	14841.8
496.029	14940.1
496.232	15251.39
496.436	15062.98
496.639	15480.77
496.843	15468.48
497.046	15869.88
497.249	16005.05
497.453	15994.81
497.656	16197.56
497.859	16127.92
498.063	16418.74
498.266	16629.68
498.469	16760.75
498.673	16682.92
498.876	16883.63
499.079	17127.33
499.282	17295.27
499.485	17690.52
499.689	17727.39
499.892	18016.15
500.095	18063.26
500.298	18171.8
500.501	18261.91
500.705	18741.13
500.908	18982.79
501.111	18999.18
501.314	19310.47
501.517	19378.05
501.72	19646.33
501.923	19515.26
502.126	20225.91
502.329	20451.19
502.532	20313.97
502.735	20690.8
502.938	20983.66
503.141	21034.86
503.344	21327.72
503.547	21469.03
503.75	21837.66
503.953	21899.1
504.156	22159.19
504.359	22570.83
504.562	22798.16
504.765	23125.83
504.968	23199.56
505.17	23224.14
505.373	23451.46
505.576	24008.51
505.779	24061.76
505.982	24256.31
506.185	24796.98
506.387	24958.77
506.59	25151.27
506.793	26023.71
506.996	25364.26
507.198	26099.48
507.401	26044.19
507.604	26439.45
507.807	27039.5
508.009	26867.47
508.212	27404.04
508.415	27227.92
508.617	27684.61
508.82	27940.61
509.022	27637.51
509.225	28595.96
509.428	28563.19
509.63	29026.03
509.833	29056.75
510.035	29935.33
510.238	29449.96
510.44	30099.17
510.643	30398.17
510.845	30521.05
511.048	30459.61
511.25	31262.41
511.453	31143.63
511.655	32229.05
511.858	31991.49
512.06	32134.85
512.262	32650.94
512.465	32358.08
512.667	32937.65
512.87	33459.88
513.072	33261.23
513.274	34242.21
513.477	34836.12
513.679	34469.53
513.881	34838.17
514.084	35174.03
514.286	35237.52
514.488	35823.24
514.69	36761.21
514.893	36624
515.095	36429.44
515.297	36841.08
515.499	37002.87
515.701	37682.8
515.904	38205.03
516.106	37942.89
516.308	38555.23
516.51	38927.96
516.712	39003.74
516.914	39308.88
517.116	39847.5
517.318	40150.6
517.52	40072.78
517.722	40382.02
517.925	40967.74
518.127	41379.38
518.329	41461.3
518.531	41565.74
518.733	42249.77
518.935	42616.35
519.136	42513.95
519.338	42982.94
519.54	43527.7
519.742	43720.21
519.944	43892.24
520.146	44580.35
520.348	44566.02
520.55	44979.71
520.752	45155.83
520.954	46058.99
521.155	45612.53
521.357	46007.79
521.559	46224.87
521.761	47189.47
521.963	46853.6
522.164	47187.42
522.366	47191.51
522.568	47916.5
522.77	47728.08
522.971	48326.09
523.173	48211.4
523.375	48825.79
523.576	48491.97
523.778	48874.94
523.98	49380.79
524.181	49855.92
524.383	49778.1
524.584	50541.99
524.786	50269.61
524.988	50431.4
525.189	51318.17
525.391	51058.08
525.592	51094.94
525.794	51809.68
525.995	51449.24
526.197	51457.43
526.398	51742.1
526.6	52096.4
526.801	52284.81
527.003	52407.69
527.204	52407.69
527.406	53300.61
527.607	52841.86
527.808	53380.48
528.01	52301.2
528.211	53153.15
528.412	53511.55
528.614	53775.73
528.815	53540.22
529.016	53783.93
529.218	53364.09
529.419	53765.49
529.62	54357.36
529.822	53906.8
530.023	54322.54
530.224	54934.88
530.425	54306.16
530.626	54023.54
530.828	54050.16
531.029	55119.2
531.23	54218.1
531.431	54603.11
531.632	54637.93
531.833	55299.42
532.035	54914.4
532.236	54695.27
532.437	54564.2
532.638	54844.77
532.839	55373.15
533.04	55209.31
533.241	54488.43
533.442	55733.59
533.643	55227.74
533.844	55256.42
534.045	55182.69
534.246	54734.18
534.447	55563.61
534.648	55141.73
534.849	55623
535.05	55012.71
535.251	55094.63
535.451	55223.65
535.652	55399.77
535.853	54906.21
536.054	55090.53
536.255	55420.25
536.456	54302.06
536.657	56038.74
536.857	55315.81
537.058	54680.94
537.259	55711.06
537.46	55324
537.66	55080.29
537.861	55549.28
538.062	55168.35
538.263	55534.94
538.463	54977.89
538.664	55215.46
538.865	55332.19
539.065	55731.54
539.266	54685.03
539.466	55170.4
539.667	54431.08
539.868	55395.68
540.068	55283.04
540.269	55004.52
540.469	55338.33
540.67	55068
540.87	54502.76
541.071	55076.19
541.271	55217.5
541.472	54836.58
541.672	54865.25
541.873	54969.7
542.073	54269.29
542.274	54924.64
542.474	54902.12
542.675	54793.57
542.875	55233.89
543.075	55219.55
543.276	54807.91
543.476	55326.05
543.676	54408.56
543.877	54875.49
544.077	54812.01
544.277	55059.81
544.478	54797.67
544.678	55342.43
544.878	54492.52
545.078	55184.74
545.279	54410.6
545.479	54187.38
545.679	54836.58
545.879	54947.17
546.079	54363.5
546.28	54578.54
546.48	54259.05
546.68	54574.44
546.88	54500.72
547.08	54637.93
547.28	54232.43
547.48	54121.84
547.68	54498.67
547.88	54189.42
548.081	54953.32
548.281	54291.82
548.481	54125.94
548.681	54398.32
548.881	54484.33
549.081	54254.96
549.28	54396.27
549.48	54367.6
549.68	54248.81
549.88	54635.88
550.08	54273.39
550.28	54674.79
550.48	54099.31
550.68	54582.63
550.88	54060.4
551.08	54248.81
551.279	54263.15
551.479	53865.84
551.679	53532.03
551.879	53777.78
552.079	53984.63
552.278	53837.17
552.478	54115.7
552.678	54390.12
552.878	54119.79
553.077	54244.72
553.277	53577.08
553.477	54203.76
553.676	53888.37
553.876	53366.14
554.076	53697.91
554.275	53609.85
554.475	53093.76
554.674	54089.07
554.874	53562.75
555.074	53208.45
555.273	53843.32
555.473	54283.63
555.672	53210.49
555.872	53429.63
556.071	53769.59
556.271	53388.67
556.47	53226.88
556.67	53198.21
556.869	53024.13
557.068	53493.11
557.268	52897.16
557.467	53243.26
557.667	53237.12
557.866	52972.93
558.065	53044.61
558.265	52647.3
558.464	52657.54
558.663	53362.04
558.863	52329.87
559.062	53357.95
559.261	52143.5
559.461	53302.65
559.66	52530.57
559.859	52401.55
560.058	52700.55
560.258	52540.81
560.457	51996.05
560.656	52684.17
560.855	52565.38
561.054	52381.07
561.253	51721.62
561.453	52356.49
561.652	52358.54
561.851	52589.96
562.05	51840.4
562.249	51791.25
562.448	52192.65
562.647	52018.58
562.846	52120.98
563.045	52012.43
563.244	51260.83
563.443	51819.92
563.642	51148.19
563.841	51096.99
564.04	51482.01
564.239	50939.3
564.438	50957.73
564.637	51213.73
564.836	51254.68
565.035	50427.31
565.234	51256.73
565.432	50705.83
565.631	50472.36
565.83	51340.7
566.029	50515.37
566.228	50380.2
566.427	50443.69
566.625	49991.09
566.824	49829.3
567.023	50345.39
567.222	49685.94
567.42	50222.51
567.619	49888.69
567.818	49894.83
568.016	49642.93
568.215	50292.14
568.414	49499.58
568.612	49827.25
568.811	49593.78
569.01	49587.64
569.208	48833.99
569.407	49190.33
569.605	48932.29
569.804	49563.06
570.002	49139.13
570.201	48854.47
570.4	48729.54
570.598	48344.52
570.797	48059.85
570.995	48670.15
571.193	48037.33
571.392	48479.69
571.59	48133.58
571.789	48324.04
571.987	48235.98
572.186	48008.65
572.384	47488.47
572.582	47988.17
572.781	47728.08
572.979	47228.38
573.177	47853.01
573.376	47726.03
573.574	47435.22
573.772	47179.23
573.971	46960.09
574.169	47066.59
574.367	46796.26
574.565	47177.18
574.763	46884.32
574.962	46777.82
575.16	46394.85
575.358	47435.22
575.556	46116.33
575.754	46462.44
575.952	46036.46
576.151	46472.68
576.349	45948.4
576.547	45964.78
576.745	45954.54
576.943	45817.33
577.141	45721.07
577.339	45749.74
577.537	45573.62
577.735	45411.83
577.933	45166.07
578.131	45424.12
578.329	44891.65
578.527	45172.22
578.725	44725.76
578.923	44942.84
579.121	44449.28
579.319	44717.57
579.516	44656.13
579.714	44498.44
579.912	44189.19
580.11	44142.09
580.308	44344.84
580.506	43988.49
580.704	43376.15
580.901	43884.05
581.099	44457.48
581.297	43574.8
581.495	43380.24
581.692	43843.09
581.89	43228.7
582.088	43466.26
582.285	43073.05
582.483	43488.79
582.681	43159.06
582.878	43109.91
583.076	42587.68
583.274	43472.4
583.471	41879.08
583.669	42511.91
583.866	42135.08
584.064	42649.12
584.262	42090.02
584.459	42522.15
584.657	41942.57
584.854	42159.66
585.052	41295.41
585.249	41455.15
585.447	41496.11
585.644	40953.4
585.841	41193.01
586.039	41709.1
586.236	41281.08
586.434	41338.42
586.631	40724.03
586.828	41129.53
587.026	41068.09
587.223	40773.18
587.42	40543.81
587.618	40789.56
587.815	40046.15
588.012	40027.72
588.21	40052.3
588.407	40273.48
588.604	39661.13
588.801	40013.38
588.999	39540.3
589.196	39968.33
589.393	39874.12
589.59	39325.27
589.787	39476.82
589.984	38905.43
590.182	39042.65
590.379	39179.86
590.576	39106.13
590.773	38964.82
590.97	38434.4
591.167	38956.63
591.364	38020.71
591.561	38544.99
591.758	38045.29
591.955	38332
592.152	38620.77
592.349	37965.42
592.546	38104.68
592.743	37946.98
592.94	37248.63
593.137	37793.39
593.334	37566.06
593.531	37078.64
593.727	37459.57
593.924	37551.73
594.121	36918.9
594.318	37600.88
594.515	36824.7
594.712	37105.27
594.908	36617.85
595.105	36644.48
595.302	36312.7
595.499	36318.85
595.696	36466.3
595.892	36394.62
596.089	36310.66
596.286	36003.46
596.482	36159.11
596.679	35942.02
596.876	35776.14
597.072	35745.42
597.269	35751.56
597.466	35083.92
597.662	35092.12
597.859	35380.88
598.055	35298.96
598.252	34952.85
598.448	34969.24
598.645	34688.67
598.841	34512.54
599.038	34655.9
599.234	34500.25
599.431	34481.82
599.627	34510.49
599.824	34668.19
600.02	34537.12
600.217	34225.82
600.413	33869.48
600.609	33982.12
600.806	33658.54
601.002	33859.24
601.198	33521.32
601.395	33394.35
601.591	33447.6
601.787	33668.78
601.984	33070.77
602.18	33347.25
602.376	33183.41
602.572	32843.45
602.769	32702.14
602.965	32714.42
603.161	32976.56
603.357	32528.06
603.553	32040.64
603.75	32489.15
603.946	32028.35
604.142	32366.27
604.338	31837.89
604.534	32194.24
604.73	31770.31
604.926	31913.67
605.122	32040.64
605.318	31700.68
605.514	31542.99
605.71	31428.3
605.906	31430.35
606.102	31657.67
606.298	31647.43
606.494	31131.34
606.69	31137.49
606.886	31534.79
607.082	30854.87
607.278	31102.67
607.474	30684.89
607.67	30815.96
607.866	30254.81
608.062	31194.83
608.257	30447.32
608.453	30346.97
608.649	30592.73
608.845	30058.21
609.041	30174.94
609.236	30502.62
609.432	30043.87
609.628	30396.12
609.824	29873.89
610.019	29988.58
610.215	29923.04
610.411	29953.76
610.606	29546.22
610.802	29626.09
610.998	29581.03
611.193	29382.38
611.389	29523.69
611.584	29308.65
611.78	29239.02
611.976	29621.99
612.171	29361.9
612.367	29189.87
612.562	28987.12
612.758	28798.71
612.953	28765.94
613.149	29134.57
613.344	28821.23
613.539	29409
613.735	28743.41
613.93	29062.9
614.126	28602.1
614.321	28843.76
614.517	29110
614.712	28772.08
614.907	28710.64
615.103	28657.4
615.298	28178.17
615.493	28532.47
615.688	28061.44
615.884	28507.9
616.079	27897.6
616.274	28040.96
616.47	28110.59
616.665	28448.5
616.86	28106.49
617.055	28059.39
617.25	27946.75
617.445	28069.63
617.641	27680.52
617.836	27784.96
618.031	27420.42
618.226	27610.89
618.421	27260.68
618.616	27674.37
618.811	27150.09
619.006	27780.87
619.201	26744.59
619.396	26879.76
619.591	26750.74
619.786	26867.47
619.981	26195.74
620.176	26955.54
620.371	26660.63
620.566	26562.33
620.761	26132.25
620.956	26488.6
621.151	25902.88
621.346	26322.71
621.541	25952.03
621.735	26107.68
621.93	25382.7
622.125	25360.17
622.32	25149.23
622.515	25308.97
622.709	25052.97
622.904	25046.83
623.099	24844.08
623.294	24770.35
623.488	24575.8
623.683	24837.94
623.878	24184.63
624.072	24278.84
624.267	24381.24
624.462	24041.28
624.656	24119.1
624.851	23646.02
625.046	23527.24
625.24	23775.04
625.435	22900.56
625.629	23074.63
625.824	23211.85
626.018	23136.07
626.213	22490.96
626.407	22734.67
626.602	22304.6
626.796	22599.51
626.991	22667.09
627.185	22355.8
627.38	22493.01
627.574	22222.68
627.768	21911.39
627.963	21968.73
628.157	21923.68
628.352	21825.37
628.546	21380.96
628.74	21413.73
628.935	21229.41
629.129	21469.03
629.323	20883.31
629.517	20979.56
629.712	20655.98
629.906	20590.45
630.1	20471.67
630.294	20678.51
630.489	20475.76
630.683	20535.15
630.877	20275.06
631.071	20299.64
631.265	20227.96
631.459	20068.22
631.653	19908.47
631.848	19541.89
632.042	19539.84
632.236	19386.24
632.43	19316.61
632.624	19333
632.818	19099.53
633.012	18915.21
633.206	19259.27
633.4	19001.22
633.594	18925.45
633.788	18808.72
633.982	18728.84
634.176	18511.76
634.369	18626.45
634.563	18411.41
634.757	18327.44
634.951	18159.51
635.145	18134.93
635.339	17762.2
635.533	18020.25
635.726	18057.11
635.92	17596.32
636.114	17739.68
636.308	17586.08
636.501	17653.66
636.695	17616.8
636.889	17368.99
637.083	17067.94
637.276	17205.16
637.47	17225.64
637.664	17076.13
637.857	16906.15
638.051	16871.34
638.244	16633.77
638.438	16713.64
638.632	16754.6
638.825	16226.23
639.019	16576.43
639.212	16302
639.406	16062.39
639.599	16207.8
639.793	16308.15
639.986	15890.36
640.18	16111.54
640.373	15775.67
640.567	15830.97
640.76	15726.52
640.954	15476.67
641.147	15603.64
641.34	15177.67
641.534	15224.77
641.727	15294.4
641.92	15194.05
642.114	15163.33
642.307	15228.87
642.5	14723.02
642.694	14804.94
642.887	14804.94
643.08	14866.38
643.273	14489.55
643.467	14487.5
643.66	14503.89
643.853	14370.77
644.046	14555.08
644.239	14364.62
644.432	14260.18
644.626	13998.04
644.819	14057.43
645.012	13901.78
645.205	14096.34
645.398	14016.47
645.591	13688.79
645.784	13834.2
645.977	13576.16
646.17	13346.78
646.363	13301.73
646.556	13326.3
646.749	13338.59
646.942	13365.21
647.135	13221.86
647.328	12926.95
647.521	13058.02
647.714	12931.05
647.907	12855.27
648.099	12900.33
648.292	13015.01
648.485	12695.53
648.678	12394.48
648.871	12797.93
649.064	12556.27
649.256	12488.68
649.449	12580.84
649.642	12490.73
649.835	12236.78
650.027	12103.67
650.22	12238.83
650.413	12228.59
650.605	12062.71
650.798	11896.82
650.991	11730.94
651.183	12009.46
651.376	11681.78
651.568	11657.21
651.761	11444.22
651.954	11669.5
652.146	11440.12
652.339	11519.99
652.531	11528.19
652.724	11151.36
652.916	11147.26
653.109	11405.31
653.301	11341.82
653.494	11266.05
653.686	10967.04
653.879	11343.87
654.071	11048.96
654.263	10895.36
654.456	10893.32
654.648	10833.93
654.84	10571.79
655.033	10803.21
655.225	10453
655.417	10543.11
655.61	10616.84
655.802	10635.27
655.994	10420.24
656.186	10493.96
656.379	10377.23
656.571	10090.51
656.763	10135.57
656.955	10199.06
657.148	10291.21
657.34	10059.79
657.532	10139.66
657.724	9912.34
657.916	9828.37
658.108	9881.62
658.3	9762.84
658.492	9941.01
658.684	9705.49
658.876	9558.04
659.068	9590.81
659.26	9631.77
659.452	9447.45
659.644	9379.87
659.836	9426.97
660.028	9390.11
660.22	9205.79
660.412	9216.03
660.604	9293.85
660.796	9041.95
660.988	9058.34
661.18	8994.85
661.372	8914.98
661.563	9166.88
661.755	8806.44
661.947	8716.33
662.139	9000.99
662.331	8810.53
662.522	8738.85
662.714	8935.46
662.906	8679.46
663.097	8652.84
663.289	8665.13
663.481	8388.65
663.673	8456.23
663.864	8613.93
664.056	8333.36
664.247	8400.94
664.439	8216.62
664.631	8319.02
664.822	8271.92
665.014	8409.13
665.205	8161.33
665.397	8044.59
665.588	8149.04
665.78	8091.7
665.971	7895.09
666.163	8065.07
666.354	7938.1
666.546	7854.13
666.737	7782.45
666.929	7886.9
667.12	7915.57
667.311	7706.68
667.503	7551.03
667.694	7645.24
667.885	7594.04
668.077	7483.45
668.268	7419.96
668.459	7548.98
668.651	7491.64
668.842	7555.13
669.033	7329.85
669.224	7172.16
669.416	7458.87
669.607	7348.28
669.798	7282.75
669.989	7319.61
670.18	7147.58
670.371	7274.56
670.563	7213.12
670.754	7239.74
670.945	7008.32
671.136	7071.81
671.327	7034.94
671.518	6953.02
671.709	7010.37
671.9	7159.87
672.091	6901.83
672.282	6965.31
672.473	6877.25
672.664	6967.36
672.855	7006.27
673.046	6846.53
673.237	6879.3
673.428	6641.73
673.619	6781
673.809	6549.57
674	6748.23
674.191	6641.73
674.382	6570.05
674.573	6731.84
674.764	6438.98
674.954	6645.83
675.145	6535.24
675.336	6486.09
675.527	6547.53
675.717	6486.09
675.908	6365.26
676.099	6322.25
676.289	6381.64
676.48	6182.99
676.671	6144.08
676.861	6434.89
677.052	6232.14
677.243	5965.9
677.433	6170.7
677.624	6248.52
677.814	6185.04
678.005	6123.6
678.195	6182.99
678.386	6226
678.576	6056.01
678.767	6037.58
678.957	6080.59
679.148	6193.23
679.338	6080.59
679.529	5970
679.719	5996.62
679.909	5933.14
680.1	5949.52
680.29	6109.26
680.481	5988.43
680.671	6010.96
680.861	5754.96
681.052	5818.45
681.242	5894.22
681.432	5851.22
681.622	5879.89
681.813	5888.08
682.003	5814.35
682.193	5748.82
682.383	5767.25
682.573	5838.93
682.764	5716.05
682.954	5642.32
683.144	5740.63
683.334	5646.42
683.524	5765.2
683.714	5683.28
683.904	5627.99
684.094	5613.65
684.284	5527.64
684.474	5605.46
684.664	5533.78
684.854	5638.23
685.044	5449.82
685.234	5429.34
685.424	5562.45
685.614	5447.77
685.804	5486.68
685.994	5378.14
686.184	5470.3
686.374	5265.5
686.564	5351.51
686.753	5322.84
686.943	5285.98
687.133	5347.42
687.323	5242.97
687.513	5349.47
687.702	5161.05
687.892	5263.45
688.082	5314.65
688.272	5167.2
688.461	5144.67
688.651	5265.5
688.841	5226.59
689.03	5103.71
689.22	5183.58
689.41	5159
689.599	5003.36
689.789	5048.41
689.979	5034.08
690.168	5007.45
690.358	4833.38
690.547	4931.68
690.737	4911.2
690.926	4870.24
691.116	4757.6
691.305	4845.66
691.495	4702.31
691.684	4696.16
691.874	4796.51
692.063	4520.04
692.252	4675.68
692.442	4626.53
692.631	4579.43
692.82	4628.58
693.01	4610.15
693.199	4710.5
693.388	4503.65
693.578	4728.93
693.767	4497.51
693.956	4384.87
694.146	4524.13
694.335	4470.89
694.524	4485.22
694.713	4479.08
694.902	4399.21
695.092	4409.45
695.281	4440.17
695.47	4405.35
695.659	4384.87
695.848	4341.86
696.037	4255.85
696.226	4305
696.415	4331.62
696.604	4358.25
696.793	4202.6
696.982	4261.99
697.171	4337.77
697.36	4290.67
697.549	4106.35
697.738	4145.26
697.927	4194.41
698.116	4327.53
698.305	4214.89
698.494	4276.33
698.683	4065.39
698.872	4180.07
699.061	4094.06
699.25	4132.97
699.438	4130.92
699.627	4112.49
699.816	4153.45
700.005	4040.81
700.193	4087.92
700.382	4030.57
700.571	4044.91
700.76	3913.84
700.948	3934.32
701.137	4135.02
701.326	4075.63
701.514	3979.37
701.703	3881.07
701.892	3975.28
702.08	3999.85
702.269	3922.03
702.457	3913.84
702.646	4003.95
702.834	3856.5
703.023	3911.79
703.212	3862.64
703.4	3700.85
703.589	3639.41
703.777	3838.06
703.965	3747.95
704.154	3903.6
704.342	3694.71
704.531	3876.98
704.719	3856.5
704.907	3868.78
705.096	3764.34
705.284	3825.78
705.472	3944.56
705.661	3786.86
705.849	3823.73
706.037	3700.85
706.226	3735.67
706.414	3690.61
706.602	3690.61
706.79	3686.51
706.979	3565.68
707.167	3776.63
707.355	3594.36
707.543	3725.43
707.731	3700.85
707.919	3655.79
708.107	3561.59
708.296	3635.32
708.484	3690.61
708.672	3659.89
708.86	3549.3
709.048	3551.35
709.236	3596.4
709.424	3641.46
709.612	3575.92
709.8	3680.37
709.988	3537.01
710.176	3537.01
710.364	3610.74
710.551	3549.3
710.739	3469.43
710.927	3440.76
711.115	3498.1
711.303	3539.06
711.491	3463.29
711.679	3373.18
711.866	3455.09
712.054	3541.11
712.242	3414.13
712.43	3551.35
712.617	3393.65
712.805	3455.09
712.993	3489.91
713.181	3305.59
713.368	3307.64
713.556	3479.67
713.744	3463.29
713.931	3483.77
714.119	3381.37
714.306	3446.9
714.494	3414.13
714.682	3362.94
714.869	3151.99
715.057	3242.11
715.244	3258.49
715.432	3274.87
715.619	3336.31
715.807	3467.38
715.994	3229.82
716.182	3334.26
716.369	3307.64
716.556	3186.81
716.744	3317.88
716.931	3291.26
717.119	3313.78
717.306	3274.87
717.493	3164.28
717.681	3184.76
717.868	3201.15
718.055	3211.39
718.242	3119.23
718.43	3217.53
718.617	3203.19
718.804	3170.43
718.991	3065.98
719.179	3121.28
719.366	3192.95
719.553	3094.65
719.74	3172.47
719.927	3127.42
720.114	3168.38
720.301	3227.77
720.488	3045.5
720.676	3217.53
720.863	3135.61
721.05	3154.04
721.237	3227.77
721.424	3172.47
721.611	3078.27
721.798	3027.07
721.985	3094.65
722.172	3037.31
722.358	3104.89
722.545	3086.46
722.732	3127.42
722.919	3135.61
723.106	3008.64
723.293	3012.73
723.48	3039.36
723.667	2990.21
723.853	2996.35
724.04	2916.48
724.227	3016.83
724.414	2918.53
724.6	3078.27
724.787	2904.19
724.974	3008.64
725.161	3010.68
725.347	2947.2
725.534	3027.07
725.72	2945.15
725.907	2996.35
726.094	2967.68
726.28	2994.3
726.467	2941.05
726.653	3000.44
726.84	3033.21
727.027	2891.9
727.213	2852.99
727.4	2973.82
727.586	2840.7
727.773	2949.25
727.959	2908.29
728.145	2982.01
728.332	2939.01
728.518	2963.58
728.705	2863.23
728.891	2850.94
729.077	2902.14
729.264	2840.7
729.45	2939.01
729.636	2832.51
729.823	2879.61
730.009	2850.94
730.195	2726.02
730.382	2867.33
730.568	2943.1
730.754	2769.02
730.94	2691.2
731.126	2941.05
731.313	2875.52
731.499	2715.78
731.685	2916.48
731.871	2939.01
732.057	2955.39
732.243	2863.23
732.429	2736.26
732.615	2801.79
732.801	2861.18
732.987	2754.69
733.173	2801.79
733.359	2834.56
733.545	2728.07
733.731	2711.68
733.917	2791.55
734.103	2697.35
734.289	2660.48
734.475	2615.43
734.661	2801.79
734.847	2691.2
735.033	2652.29
735.219	2689.15
735.404	2709.63
735.59	2713.73
735.776	2648.19
735.962	2838.66
736.148	2715.78
736.333	2615.43
736.519	2685.06
736.705	2629.76
736.89	2652.29
737.076	2730.11
737.262	2623.62
737.447	2773.12
737.633	2547.84
737.819	2719.87
738.004	2594.95
738.19	2582.66
738.375	2640
738.561	2586.76
738.747	2644.1
738.932	2715.78
739.118	2521.22
739.303	2607.23
739.489	2609.28
739.674	2470.02
739.859	2566.28
740.045	2566.28
740.23	2588.8
740.416	2496.64
740.601	2543.75
740.786	2422.92
740.972	2437.25
741.157	2504.84
741.342	2449.54
741.528	2377.86
741.713	2365.57
741.898	2451.59
742.084	2400.39
742.269	2324.62
742.454	2455.69
742.639	2431.11
742.824	2392.2
743.01	2379.91
743.195	2449.54
743.38	2396.29
743.565	2414.73
743.75	2275.46
743.935	2437.25
744.12	2345.09
744.305	2326.66
744.49	2267.27
744.675	2193.55
744.86	2283.66
745.045	2295.94
745.23	2197.64
745.415	2130.06
745.6	2164.87
745.785	2218.12
745.97	2379.91
746.155	2277.51
746.34	2283.66
746.525	2177.16
746.71	2203.79
746.895	2119.82
747.079	2128.01
747.264	2042
747.449	2142.35
747.634	2064.52
747.819	1964.17
748.003	2160.78
748.188	2119.82
748.373	2013.32
748.557	2060.43
748.742	1968.27
748.927	2001.04
749.111	1941.65
749.296	1939.6
749.481	1955.98
749.665	2042
749.85	1919.12
750.034	1976.46
750.219	1898.64
750.404	1841.29
750.588	1906.83
750.773	1853.58
750.957	1812.62
751.141	2037.9
751.326	1898.64
751.51	1884.3
751.695	1867.92
751.879	1874.06
752.064	1767.57
752.248	1708.18
752.432	1759.38
752.617	1804.43
752.801	1732.75
752.985	1769.62
753.17	1622.16
753.354	1759.38
753.538	1704.08
753.722	1659.03
753.907	1726.61
754.091	1636.5
754.275	1677.46
754.459	1603.73
754.643	1613.97
754.828	1644.69
755.012	1714.32
755.196	1597.59
755.38	1509.52
755.564	1595.54
755.748	1554.58
755.932	1554.58
756.116	1579.15
756.3	1441.94
756.484	1495.19
756.668	1482.9
756.852	1400.98
757.036	1482.9
757.22	1509.52
757.404	1443.99
757.588	1362.07
757.772	1484.95
757.956	1302.68
758.14	1380.5
758.323	1394.84
758.507	1476.76
758.691	1317.01
758.875	1513.62
759.059	1374.36
759.242	1263.77
759.426	1337.49
759.61	1403.03
759.794	1349.78
759.977	1247.38
760.161	1349.78
760.345	1364.12
760.528	1333.4
760.712	1284.25
760.895	1247.38
761.079	1263.77
761.263	1253.53
761.446	1206.42
761.63	1286.3
761.813	1177.75
761.997	1222.81
762.18	1212.57
762.364	1214.62
762.547	1319.06
762.731	1231
762.914	1206.42
763.098	1161.37
763.281	1218.71
763.464	1138.84
763.648	1269.91
763.831	1157.27
764.015	1194.14
764.198	1144.99
764.381	1194.14
764.564	1241.24
764.748	1192.09
764.931	1161.37
765.114	1085.59
765.297	1116.31
765.481	1185.94
765.664	1194.14
765.847	1159.32
766.03	1194.14
766.213	1030.3
766.397	1099.93
766.58	989.34
766.763	1106.07
766.946	1085.59
767.129	1083.55
767.312	1056.92
767.495	1112.22
767.678	1042.59
767.861	1097.88
768.044	1032.35
768.227	1065.11
768.41	964.76
768.593	1124.51
768.776	1079.45
768.959	989.34
769.142	1030.3
769.324	999.58
769.507	1005.72
769.69	1013.92
769.873	968.86
770.056	1087.64
770.239	919.71
770.421	968.86
770.604	991.39
770.787	1009.82
770.97	1028.25
771.152	972.96
771.335	968.86
771.518	948.38
771.7	1007.77
771.883	970.91
772.066	1099.93
772.248	915.61
772.431	1018.01
772.613	932
772.796	891.04
772.978	891.04
773.161	907.42
773.343	886.94
773.526	809.12
773.708	909.47
773.891	899.23
774.073	852.13
774.256	833.69
774.438	899.23
774.621	778.4
774.803	915.61
774.985	893.09
775.168	841.89
775.35	854.17
775.532	833.69
775.715	770.21
775.897	778.4
776.079	774.3
776.261	792.73
776.444	825.5
776.626	811.17
776.808	792.73
776.99	866.46
777.173	813.21
777.355	778.4
777.537	688.29
777.719	755.87
777.901	780.45
778.083	702.62
778.265	706.72
778.447	731.3
778.629	653.47
778.811	731.3
778.993	739.49
779.175	755.87
779.357	753.82
779.539	698.53
779.721	710.82
779.903	700.58
780.085	743.58
780.267	751.78
780.449	581.79
780.631	665.76
780.812	651.42
780.994	661.66
781.176	661.66
781.358	688.29
781.54	647.33
781.721	600.23
781.903	549.03
782.085	653.47
782.267	628.9
782.448	522.4
782.63	579.75
782.812	632.99
782.993	641.18
783.175	538.79
783.357	665.76
783.538	551.07
783.72	557.22
783.901	602.27
784.083	620.71
784.264	497.83
784.446	536.74
784.627	559.27
784.809	532.64
784.99	524.45
785.172	565.41
785.353	540.83
785.535	481.44
785.716	551.07
785.897	538.79
786.079	542.88
786.26	512.16
786.441	518.31
786.623	522.4
786.804	450.72
786.985	573.6
787.167	465.06
787.348	491.68
787.529	481.44
787.71	526.5
787.891	438.44
788.073	456.87
788.254	463.01
788.435	503.97
788.616	473.25
788.797	469.16
788.978	467.11
789.159	471.2
789.34	555.17
789.522	407.72
789.703	434.34
789.884	440.48
790.065	395.43
790.246	463.01
790.427	506.02
790.607	514.21
790.788	411.81
790.969	456.87
791.15	467.11
791.331	465.06
791.512	448.68
791.693	379.04
791.874	424.1
792.054	493.73
792.235	358.57
792.416	426.15
792.597	432.29
792.778	460.96
792.958	393.38
793.139	475.3
793.32	436.39
793.5	383.14
793.681	415.91
793.862	387.24
794.042	358.57
794.223	309.41
794.404	295.08
794.584	350.37
794.765	415.91
794.945	315.56
795.126	393.38
795.306	475.3
795.487	407.72
795.667	276.65
795.848	393.38
796.028	370.85
796.209	313.51
796.389	342.18
796.57	389.28
796.75	327.85
796.93	356.52
797.111	325.8
797.291	342.18
797.471	282.79
797.652	387.24
797.832	321.7
798.012	350.37
798.192	268.45
798.373	288.93
798.553	366.76
798.733	303.27
798.913	350.37
799.093	319.65
799.274	338.09
799.454	331.94
799.634	411.81
799.814	319.65
799.994	366.76
800.174	221.35
800.354	301.22
800.534	358.57
800.714	288.93
800.894	284.84
801.074	207.02
801.254	280.74
801.434	366.76
801.614	247.97
801.794	247.97
801.974	845.98
802.154	307.37
802.334	311.46
802.514	258.21
802.693	293.03
802.873	245.93
803.053	325.8
803.233	268.45
803.413	278.69
803.592	252.07
803.772	243.88
803.952	309.41
804.131	313.51
804.311	311.46
804.491	301.22
804.67	319.65
804.85	194.73
805.03	258.21
805.209	268.45
805.389	270.5
805.568	256.17
805.748	198.82
805.928	260.26
806.107	274.6
806.287	329.89
806.466	274.6
806.646	147.62
806.825	209.06
807.004	243.88
807.184	235.69
807.363	276.65
807.543	239.78
807.722	231.59
807.901	209.06
808.081	243.88
808.26	186.54
808.439	186.54
808.619	280.74
808.798	188.58
808.977	180.39
809.156	215.21
809.336	202.92
809.515	221.35
809.694	258.21
809.873	194.73
810.052	215.21
810.231	211.11
810.411	215.21
810.59	235.69
810.769	145.58
810.948	213.16
811.127	131.24
811.306	233.64
811.485	180.39
811.664	278.69
811.843	186.54
812.022	233.64
812.201	194.73
812.38	196.78
812.559	194.73
812.737	194.73
812.916	172.2
813.095	221.35
813.274	131.24
813.453	178.34
813.632	278.69
813.811	297.13
813.989	198.82
814.168	129.19
814.347	194.73
814.526	209.06
814.704	180.39
814.883	260.26
815.062	186.54
815.24	245.93
815.419	178.34
815.598	164.01
815.776	123.05
815.955	145.58
816.133	94.38
816.312	252.07
816.49	104.62
816.669	215.21
816.847	221.35
817.026	243.88
817.204	153.77
817.383	170.15
817.561	137.38
817.74	168.1
817.918	194.73
818.097	129.19
818.275	184.49
818.453	188.58
818.632	145.58
818.81	104.62
818.988	147.62
819.167	164.01
819.345	164.01
819.523	155.82
819.701	172.2
819.879	202.92
820.058	137.38
820.236	202.92
820.414	157.86
820.592	145.58
820.77	202.92
820.948	123.05
821.127	166.06
821.305	139.43
821.483	149.67
821.661	157.86
821.839	182.44
822.017	133.29
822.195	90.28
822.373	133.29
822.551	180.39
822.729	157.86
822.907	96.43
823.085	161.96
823.262	100.52
823.44	149.67
823.618	131.24
823.796	145.58
823.974	96.43
824.152	125.1
824.329	123.05
824.507	157.86
824.685	133.29
824.863	100.52
825.04	161.96
825.218	123.05
825.396	170.15
825.574	147.62
825.751	114.86
825.929	211.11
826.107	116.9
826.284	192.68
826.462	184.49
826.639	69.8
826.817	39.08
826.994	166.06
827.172	65.71
827.349	182.44
827.527	170.15
827.704	184.49
827.882	161.96
828.059	108.71
828.237	98.47
828.414	211.11
828.591	125.1
828.769	145.58
828.946	57.51
829.124	127.14
829.301	155.82
829.478	149.67
829.655	135.34
829.833	123.05
830.01	67.75
830.187	215.21
830.364	129.19
830.542	125.1
830.719	123.05
830.896	213.16
831.073	118.95
831.25	129.19
831.427	153.77
831.604	135.34
831.782	141.48
831.959	121
832.136	137.38
832.313	186.54
832.49	51.37
832.667	168.1
832.844	53.42
833.021	104.62
833.198	106.67
833.374	100.52
833.551	88.23
833.728	108.71
833.905	106.67
834.082	73.9
834.259	164.01
834.436	114.86
834.612	98.47
834.789	106.67
834.966	67.75
835.143	174.25
835.319	75.95
835.496	133.29
835.673	139.43
835.85	98.47
836.026	49.32
836.203	129.19
836.38	127.14
836.556	96.43
836.733	155.82
836.909	125.1
837.086	90.28
837.262	67.75
837.439	98.47
837.616	51.37
837.792	102.57
837.968	102.57
838.145	47.27
838.321	127.14
838.498	96.43
838.674	131.24
838.851	47.27
839.027	55.47
839.203	80.04
839.38	121
839.556	71.85
839.732	73.9
839.909	41.13
840.085	71.85
840.261	133.29
840.437	135.34
840.614	106.67
840.79	147.62
840.966	161.96
841.142	71.85
841.318	112.81
841.494	47.27
841.671	39.08
841.847	-1.88
842.023	71.85
842.199	90.28
842.375	110.76
842.551	-18.26
842.727	57.51
842.903	161.96
843.079	73.9
843.255	190.63
843.431	123.05
843.607	34.99
843.783	-10.07
843.959	125.1
844.134	41.13
844.31	110.76
844.486	-3.93
844.662	98.47
844.838	75.95
845.013	145.58
845.189	39.08
845.365	96.43
845.541	63.66
845.716	37.03
845.892	90.28
846.068	39.08
846.244	82.09
846.419	67.75
846.595	-30.55
846.77	69.8
846.946	114.86
847.122	-18.26
847.297	8.36
847.473	98.47
847.648	96.43
847.824	63.66
847.999	18.6
848.175	90.28
848.35	153.77
848.526	96.43
848.701	73.9
848.876	43.18
849.052	90.28
849.227	161.96
849.403	41.13
849.578	71.85
849.753	55.47
849.929	73.9
850.104	-8.02
850.279	51.37
850.454	63.66
850.63	121
850.805	55.47
850.98	65.71
851.155	49.32
851.33	57.51
851.505	-22.36
851.681	98.47
851.856	41.13
852.031	104.62
852.206	57.51
852.381	30.89
852.556	106.67
852.731	59.56
852.906	55.47
853.081	98.47
853.256	114.86
853.431	47.27
853.606	84.14
853.781	75.95
853.956	77.99
854.131	88.23
854.305	30.89
854.48	116.9
854.655	-10.07
854.83	92.33
855.005	47.27
855.18	112.81
855.354	125.1
855.529	22.7
855.704	104.62
855.879	47.27
856.053	55.47
856.228	114.86
856.403	37.03
856.577	55.47
856.752	77.99
856.926	108.71
857.101	34.99
857.276	125.1
857.45	32.94
857.625	57.51
857.799	73.9
857.974	51.37
858.148	-32.6
858.323	96.43
858.497	-1.88
858.672	6.31
858.846	30.89
859.02	100.52
859.195	71.85
859.369	90.28
859.543	114.86
859.718	57.51
859.892	80.04
860.066	106.67
860.241	6.31
860.415	16.55
860.589	43.18
860.763	114.86
860.938	28.84
861.112	80.04
861.286	30.89
861.46	30.89
861.634	96.43
861.808	114.86
861.982	57.51
862.157	39.08
862.331	55.47
862.505	80.04
862.679	75.95
862.853	-34.64
863.027	63.66
863.201	84.14
863.375	8.36
863.549	71.85
863.722	86.19
863.896	141.48
864.07	80.04
864.244	37.03
864.418	18.6
864.592	71.85
864.766	18.6
864.939	112.81
865.113	51.37
865.287	18.6
865.461	20.65
865.634	86.19
865.808	55.47
865.982	0.17
866.156	39.08
866.329	82.09
866.503	71.85
866.676	71.85
866.85	112.81
867.024	55.47
867.197	30.89
867.371	-5.97
867.544	96.43
867.718	49.32
867.891	39.08
868.065	-30.55
868.238	80.04
868.412	69.8
868.585	75.95
868.759	53.42
868.932	67.75
869.105	71.85
869.279	71.85
869.452	4.27
869.625	90.28
869.799	28.84
869.972	22.7
870.145	82.09
870.319	75.95
870.492	53.42
870.665	28.84
870.838	24.75
871.011	12.46
871.185	41.13
871.358	30.89
871.531	82.09
871.704	82.09
871.877	84.14
872.05	8.36
872.223	0.17
872.396	49.32
872.569	6.31
872.742	47.27
872.915	88.23
873.088	20.65
873.261	8.36
873.434	96.43
873.607	73.9
873.78	137.38
873.953	41.13
874.126	88.23
874.299	90.28
874.471	24.75
874.644	-46.93
874.817	-10.07
874.99	80.04
875.163	18.6
875.335	30.89
875.508	8.36
875.681	12.46
875.853	2.22
876.026	6.31
876.199	63.66
876.371	39.08
876.544	71.85
876.717	12.46
876.889	59.56
877.062	30.89
877.234	-3.93
877.407	14.51
877.579	55.47
877.752	30.89
877.924	80.04
878.097	-16.21
878.269	55.47
878.442	37.03
878.614	34.99
878.786	88.23
878.959	57.51
879.131	55.47
879.303	-18.26
879.476	39.08
879.648	47.27
879.82	24.75
879.993	24.75
880.165	30.89
880.337	16.55
880.509	12.46
880.681	-18.26
880.854	34.99
881.026	47.27
881.198	106.67
881.37	14.51
881.542	-12.12
881.714	10.41
881.886	73.9
882.058	104.62
882.23	-26.45
882.402	-38.74
882.574	80.04
882.746	88.23
882.918	88.23
883.09	34.99
883.262	39.08
883.434	24.75
883.606	-22.36
883.778	71.85
883.95	49.32
884.122	75.95
884.293	55.47
884.465	-32.6
884.637	96.43
884.809	-1.88
884.98	57.51
885.152	32.94
885.324	49.32
885.496	-28.5
885.667	71.85
885.839	-14.17
886.011	32.94
886.182	30.89
886.354	-1.88
886.525	22.7
886.697	39.08
886.869	-42.84
887.04	26.79
887.212	32.94
887.383	32.94
887.555	75.95
887.726	14.51
887.897	-8.02
888.069	26.79
888.24	57.51
888.412	14.51
888.583	43.18
888.754	55.47
888.926	-14.17
889.097	6.31
889.268	14.51
889.44	63.66
889.611	26.79
889.782	-30.55
889.953	-18.26
890.125	30.89
890.296	-22.36
890.467	59.56
890.638	88.23
890.809	32.94
890.98	-36.69
891.151	-3.93
891.323	82.09
891.494	164.01
891.665	14.51
891.836	80.04
892.007	-18.26
892.178	49.32
892.349	-16.21
892.52	47.27
892.691	8.36
892.862	43.18
893.032	22.7
893.203	73.9
893.374	39.08
893.545	73.9
893.716	18.6
893.887	82.09
894.057	-51.03
894.228	6.31
894.399	30.89
894.57	20.65
894.74	-10.07
894.911	8.36
895.082	-32.6
895.253	10.41
895.423	41.13
895.594	57.51
895.764	116.9
895.935	63.66
896.106	6.31
896.276	2.22
896.447	26.79
896.617	88.23
896.788	22.7
896.958	24.75
897.129	24.75
897.299	43.18
897.47	30.89
897.64	73.9
897.81	96.43
897.981	61.61
898.151	-42.84
898.322	8.36
898.492	49.32
898.662	49.32
898.832	10.41
899.003	39.08
899.173	26.79
899.343	26.79
899.513	28.84
