Data from USB4F104151__284__14-23-32-041.txt Node

Date: Thu Mar 13 14:23:32 EDT 2025
User: louis
Spectrometer: USB4F10415
Trigger mode: 4
Integration Time (sec): 2.000000E-2
Scans to average: 1
Electric dark correction enabled: true
Nonlinearity correction enabled: false
Boxcar width: 0
XAxis mode: Wavelengths
Number of Pixels in Spectrum: 3648
>>>>>Begin Spectral Data<<<<<
178.204	-16.55
178.424	-16.55
178.644	-16.55
178.864	-98.47
179.084	-102.57
179.304	-41.13
179.524	16.21
179.744	-2.22
179.964	40.79
180.184	-0.17
180.404	3.93
180.624	8.02
180.844	28.5
181.064	-0.17
181.283	28.5
181.503	-20.65
181.723	-61.61
181.943	36.69
182.163	130.9
182.383	36.69
182.602	141.14
182.822	67.41
183.042	14.17
183.262	40.79
183.482	69.46
183.701	46.93
183.921	12.12
184.141	-51.37
184.361	73.56
184.58	-16.55
184.8	16.21
185.02	-2.22
185.239	38.74
185.459	44.88
185.679	-6.31
185.898	-12.46
186.118	-0.17
186.338	30.55
186.557	96.08
186.777	16.21
186.997	28.5
187.216	28.5
187.436	102.23
187.655	22.36
187.875	-10.41
188.095	44.88
188.314	53.08
188.534	65.36
188.753	55.12
188.973	-2.22
189.192	36.69
189.412	10.07
189.631	26.45
189.851	57.17
190.07	36.69
190.29	-39.08
190.509	51.03
190.729	34.64
190.948	44.88
191.168	120.66
191.387	69.46
191.607	30.55
191.826	122.71
192.045	14.17
192.265	-0.17
192.484	69.46
192.704	83.8
192.923	20.31
193.142	135
193.362	14.17
193.581	28.5
193.8	53.08
194.02	44.88
194.239	46.93
194.458	124.76
194.678	61.27
194.897	89.94
195.116	28.5
195.335	94.04
195.555	-28.84
195.774	-12.46
195.993	96.08
196.212	20.31
196.432	-84.14
196.651	-26.79
196.87	22.36
197.089	28.5
197.308	12.12
197.528	53.08
197.747	10.07
197.966	-12.46
198.185	34.64
198.404	26.45
198.623	55.12
198.842	-14.51
199.062	3.93
199.281	77.65
199.5	69.46
199.719	65.36
199.938	-8.36
200.157	110.42
200.376	55.12
200.595	-2.22
200.814	36.69
201.033	14.17
201.252	69.46
201.471	-10.41
201.69	61.27
201.909	20.31
202.128	71.51
202.347	108.37
202.566	20.31
202.785	-12.46
203.004	-69.8
203.223	143.19
203.442	32.6
203.661	-69.8
203.879	36.69
204.098	10.07
204.317	-0.17
204.536	-22.7
204.755	3.93
204.974	48.98
205.193	-20.65
205.411	128.85
205.63	14.17
205.849	85.84
206.068	48.98
206.287	55.12
206.505	36.69
206.724	-4.27
206.943	-18.6
207.162	-12.46
207.381	-8.36
207.599	24.4
207.818	32.6
208.037	3.93
208.255	110.42
208.474	63.32
208.693	24.4
208.911	77.65
209.13	-69.8
209.349	16.21
209.567	46.93
209.786	106.32
210.005	53.08
210.223	-18.6
210.442	36.69
210.661	24.4
210.879	55.12
211.098	28.5
211.316	44.88
211.535	38.74
211.753	65.36
211.972	28.5
212.191	-28.84
212.409	71.51
212.628	-0.17
212.846	-37.03
213.065	32.6
213.283	102.23
213.502	12.12
213.72	-18.6
213.938	3.93
214.157	122.71
214.375	87.89
214.594	-4.27
214.812	-4.27
215.031	3.93
215.249	28.5
215.467	24.4
215.686	40.79
215.904	104.28
216.122	12.12
216.341	22.36
216.559	94.04
216.778	85.84
216.996	53.08
217.214	91.99
217.432	-12.46
217.651	14.17
217.869	-0.17
218.087	-2.22
218.306	71.51
218.524	28.5
218.742	44.88
218.96	87.89
219.179	44.88
219.397	126.8
219.615	85.84
219.833	151.38
220.051	12.12
220.27	51.03
220.488	75.6
220.706	28.5
220.924	12.12
221.142	40.79
221.36	-39.08
221.578	65.36
221.796	-32.94
222.015	10.07
222.233	5.97
222.451	44.88
222.669	28.5
222.887	87.89
223.105	28.5
223.323	24.4
223.541	20.31
223.759	53.08
223.977	3.93
224.195	65.36
224.413	63.32
224.631	22.36
224.849	85.84
225.067	139.09
225.285	40.79
225.503	8.02
225.721	-59.56
225.939	-22.7
226.157	22.36
226.375	94.04
226.592	-45.23
226.81	22.36
227.028	73.56
227.246	73.56
227.464	14.17
227.682	77.65
227.9	55.12
228.117	46.93
228.335	42.84
228.553	1.88
228.771	69.46
228.989	-4.27
229.206	55.12
229.424	12.12
229.642	100.18
229.86	55.12
230.077	5.97
230.295	8.02
230.513	77.65
230.731	79.7
230.948	48.98
231.166	79.7
231.384	30.55
231.601	14.17
231.819	81.75
232.037	-26.79
232.254	51.03
232.472	89.94
232.689	30.55
232.907	55.12
233.125	20.31
233.342	-71.85
233.56	20.31
233.777	5.97
233.995	61.27
234.213	153.43
234.43	44.88
234.648	-37.03
234.865	20.31
235.083	87.89
235.3	-18.6
235.518	53.08
235.735	79.7
235.953	69.46
236.17	-41.13
236.388	104.28
236.605	24.4
236.822	108.37
237.04	38.74
237.257	34.64
237.475	53.08
237.692	8.02
237.909	42.84
238.127	69.46
238.344	30.55
238.562	30.55
238.779	-18.6
238.996	14.17
239.214	20.31
239.431	110.42
239.648	12.12
239.865	24.4
240.083	40.79
240.3	12.12
240.517	28.5
240.735	106.32
240.952	79.7
241.169	61.27
241.386	57.17
241.603	65.36
241.821	3.93
242.038	61.27
242.255	48.98
242.472	-47.27
242.689	30.55
242.907	-18.6
243.124	22.36
243.341	20.31
243.558	-26.79
243.775	-28.84
243.992	-24.75
244.209	116.56
244.426	91.99
244.643	55.12
244.86	69.46
245.078	75.6
245.295	51.03
245.512	3.93
245.729	96.08
245.946	104.28
246.163	61.27
246.38	120.66
246.597	30.55
246.814	36.69
247.031	10.07
247.248	71.51
247.464	8.02
247.681	44.88
247.898	61.27
248.115	-8.36
248.332	36.69
248.549	-4.27
248.766	106.32
248.983	77.65
249.2	79.7
249.417	59.22
249.633	-12.46
249.85	8.02
250.067	26.45
250.284	38.74
250.501	59.22
250.717	20.31
250.934	20.31
251.151	-20.65
251.368	71.51
251.585	65.36
251.801	89.94
252.018	-28.84
252.235	30.55
252.451	-20.65
252.668	53.08
252.885	69.46
253.102	94.04
253.318	69.46
253.535	38.74
253.752	102.23
253.968	28.5
254.185	69.46
254.401	87.89
254.618	3.93
254.835	1.88
255.051	100.18
255.268	28.5
255.484	-2.22
255.701	75.6
255.917	53.08
256.134	53.08
256.351	118.61
256.567	46.93
256.784	-61.61
257	-20.65
257.217	91.99
257.433	44.88
257.65	51.03
257.866	77.65
258.082	30.55
258.299	22.36
258.515	98.13
258.732	-24.75
258.948	106.32
259.165	40.79
259.381	-57.51
259.597	55.12
259.814	44.88
260.03	-18.6
260.246	3.93
260.463	104.28
260.679	94.04
260.895	57.17
261.112	61.27
261.328	48.98
261.544	20.31
261.761	110.42
261.977	32.6
262.193	28.5
262.409	-8.36
262.626	46.93
262.842	-41.13
263.058	36.69
263.274	79.7
263.49	171.86
263.707	81.75
263.923	55.12
264.139	67.41
264.355	-37.03
264.571	-4.27
264.787	-6.31
265.004	53.08
265.22	38.74
265.436	46.93
265.652	10.07
265.868	94.04
266.084	24.4
266.3	38.74
266.516	53.08
266.732	55.12
266.948	55.12
267.164	-4.27
267.38	26.45
267.596	-0.17
267.812	85.84
268.028	34.64
268.244	55.12
268.46	44.88
268.676	20.31
268.892	53.08
269.108	-12.46
269.324	83.8
269.54	22.36
269.756	51.03
269.972	42.84
270.188	-41.13
270.403	53.08
270.619	46.93
270.835	51.03
271.051	-10.41
271.267	44.88
271.483	14.17
271.698	8.02
271.914	110.42
272.13	10.07
272.346	57.17
272.562	20.31
272.777	28.5
272.993	77.65
273.209	36.69
273.425	26.45
273.64	-20.65
273.856	3.93
274.072	108.37
274.287	22.36
274.503	20.31
274.719	167.76
274.934	40.79
275.15	-12.46
275.366	55.12
275.581	61.27
275.797	184.15
276.012	61.27
276.228	40.79
276.444	48.98
276.659	89.94
276.875	44.88
277.09	81.75
277.306	36.69
277.521	79.7
277.737	28.5
277.952	53.08
278.168	44.88
278.383	61.27
278.599	73.56
278.814	16.21
279.03	55.12
279.245	65.36
279.461	32.6
279.676	132.95
279.892	26.45
280.107	55.12
280.322	5.97
280.538	55.12
280.753	32.6
280.969	89.94
281.184	61.27
281.399	77.65
281.615	-53.42
281.83	59.22
282.045	-12.46
282.26	16.21
282.476	32.6
282.691	48.98
282.906	-20.65
283.122	55.12
283.337	69.46
283.552	85.84
283.767	-12.46
283.983	110.42
284.198	51.03
284.413	20.31
284.628	38.74
284.843	16.21
285.058	53.08
285.274	-6.31
285.489	-8.36
285.704	24.4
285.919	-4.27
286.134	-18.6
286.349	100.18
286.564	20.31
286.779	79.7
286.995	20.31
287.21	67.41
287.425	63.32
287.64	28.5
287.855	59.22
288.07	48.98
288.285	28.5
288.5	-4.27
288.715	3.93
288.93	65.36
289.145	28.5
289.36	77.65
289.575	30.55
289.79	73.56
290.004	-4.27
290.219	48.98
290.434	40.79
290.649	-10.41
290.864	44.88
291.079	28.5
291.294	28.5
291.509	34.64
291.724	30.55
291.938	81.75
292.153	14.17
292.368	-10.41
292.583	40.79
292.798	57.17
293.012	85.84
293.227	-18.6
293.442	53.08
293.657	57.17
293.871	85.84
294.086	63.32
294.301	65.36
294.516	30.55
294.73	89.94
294.945	-10.41
295.16	81.75
295.374	-22.7
295.589	44.88
295.804	28.5
296.018	-49.32
296.233	106.32
296.447	-2.22
296.662	-32.94
296.877	143.19
297.091	24.4
297.306	28.5
297.52	53.08
297.735	28.5
297.949	-10.41
298.164	81.75
298.378	96.08
298.593	32.6
298.807	-2.22
299.022	44.88
299.236	94.04
299.451	34.64
299.665	12.12
299.88	57.17
300.094	36.69
300.309	-2.22
300.523	22.36
300.737	12.12
300.952	77.65
301.166	8.02
301.381	36.69
301.595	-22.7
301.809	44.88
302.024	57.17
302.238	-14.51
302.452	87.89
302.667	53.08
302.881	63.32
303.095	69.46
303.309	59.22
303.524	28.5
303.738	57.17
303.952	20.31
304.166	28.5
304.381	-139.43
304.595	83.8
304.809	38.74
305.023	40.79
305.237	36.69
305.452	61.27
305.666	57.17
305.88	102.23
306.094	53.08
306.308	53.08
306.522	46.93
306.736	69.46
306.95	57.17
307.164	5.97
307.379	57.17
307.593	118.61
307.807	89.94
308.021	77.65
308.235	73.56
308.449	44.88
308.663	126.8
308.877	94.04
309.091	67.41
309.305	46.93
309.519	24.4
309.733	81.75
309.947	12.12
310.161	126.8
310.374	38.74
310.588	77.65
310.802	36.69
311.016	110.42
311.23	71.51
311.444	38.74
311.658	118.61
311.872	124.76
312.085	53.08
312.299	55.12
312.513	147.28
312.727	85.84
312.941	69.46
313.154	44.88
313.368	3.93
313.582	36.69
313.796	75.6
314.009	46.93
314.223	32.6
314.437	36.69
314.651	34.64
314.864	-12.46
315.078	83.8
315.292	32.6
315.505	69.46
315.719	38.74
315.933	8.02
316.146	28.5
316.36	10.07
316.573	81.75
316.787	57.17
317.001	48.98
317.214	-18.6
317.428	63.32
317.641	14.17
317.855	55.12
318.068	61.27
318.282	55.12
318.495	89.94
318.709	85.84
318.922	40.79
319.136	81.75
319.349	69.46
319.563	63.32
319.776	28.5
319.99	-8.36
320.203	77.65
320.417	87.89
320.63	42.84
320.843	69.46
321.057	48.98
321.27	44.88
321.483	77.65
321.697	20.31
321.91	1.88
322.124	89.94
322.337	73.56
322.55	18.26
322.763	51.03
322.977	106.32
323.19	-28.84
323.403	69.46
323.617	5.97
323.83	153.43
324.043	69.46
324.256	108.37
324.469	-2.22
324.683	135
324.896	73.56
325.109	94.04
325.322	-41.13
325.535	48.98
325.748	61.27
325.962	22.36
326.175	114.52
326.388	112.47
326.601	22.36
326.814	40.79
327.027	-18.6
327.24	40.79
327.453	40.79
327.666	159.57
327.879	108.37
328.092	75.6
328.305	-2.22
328.518	46.93
328.731	16.21
328.944	135
329.157	102.23
329.37	85.84
329.583	44.88
329.796	20.31
330.009	-8.36
330.222	28.5
330.435	14.17
330.648	36.69
330.861	22.36
331.073	20.31
331.286	85.84
331.499	30.55
331.712	-49.32
331.925	-32.94
332.138	26.45
332.35	30.55
332.563	57.17
332.776	61.27
332.989	-39.08
333.202	63.32
333.414	24.4
333.627	118.61
333.84	12.12
334.053	36.69
334.265	71.51
334.478	36.69
334.691	24.4
334.903	110.42
335.116	-2.22
335.329	46.93
335.541	73.56
335.754	32.6
335.966	20.31
336.179	-12.46
336.392	24.4
336.604	96.08
336.817	89.94
337.029	55.12
337.242	55.12
337.454	36.69
337.667	61.27
337.88	153.43
338.092	63.32
338.305	30.55
338.517	28.5
338.729	57.17
338.942	77.65
339.154	32.6
339.367	44.88
339.579	81.75
339.792	-49.32
340.004	126.8
340.217	65.36
340.429	36.69
340.641	-8.36
340.854	12.12
341.066	8.02
341.278	118.61
341.491	65.36
341.703	73.56
341.915	69.46
342.128	98.13
342.34	77.65
342.552	28.5
342.764	36.69
342.977	16.21
343.189	48.98
343.401	48.98
343.613	28.5
343.826	69.46
344.038	-18.6
344.25	67.41
344.462	-22.7
344.674	3.93
344.886	26.45
345.099	75.6
345.311	48.98
345.523	22.36
345.735	40.79
345.947	38.74
346.159	73.56
346.371	26.45
346.583	38.74
346.795	67.41
347.007	63.32
347.219	40.79
347.431	22.36
347.643	69.46
347.855	-2.22
348.067	114.52
348.279	20.31
348.491	57.17
348.703	16.21
348.915	67.41
349.127	36.69
349.339	-8.36
349.551	28.5
349.763	63.32
349.975	48.98
350.187	96.08
350.399	110.42
350.61	42.84
350.822	114.52
351.034	65.36
351.246	44.88
351.458	63.32
351.669	79.7
351.881	104.28
352.093	38.74
352.305	73.56
352.517	69.46
352.728	96.08
352.94	118.61
353.152	24.4
353.363	46.93
353.575	71.51
353.787	71.51
353.999	20.31
354.21	96.08
354.422	69.46
354.633	28.5
354.845	44.88
355.057	53.08
355.268	118.61
355.48	-2.22
355.692	22.36
355.903	65.36
356.115	79.7
356.326	-16.55
356.538	110.42
356.749	30.55
356.961	151.38
357.172	71.51
357.384	55.12
357.595	57.17
357.807	16.21
358.018	53.08
358.23	24.4
358.441	130.9
358.653	130.9
358.864	36.69
359.075	81.75
359.287	57.17
359.498	77.65
359.709	46.93
359.921	135
360.132	73.56
360.344	-14.51
360.555	5.97
360.766	71.51
360.977	61.27
361.189	61.27
361.4	28.5
361.611	112.47
361.823	63.32
362.034	59.22
362.245	-14.51
362.456	87.89
362.667	-24.75
362.879	22.36
363.09	-20.65
363.301	22.36
363.512	83.8
363.723	22.36
363.935	34.64
364.146	116.56
364.357	91.99
364.568	106.32
364.779	53.08
364.99	102.23
365.201	3.93
365.412	69.46
365.623	81.75
365.834	53.08
366.045	61.27
366.256	63.32
366.467	65.36
366.678	48.98
366.889	57.17
367.1	8.02
367.311	3.93
367.522	53.08
367.733	57.17
367.944	69.46
368.155	-14.51
368.366	18.26
368.577	94.04
368.788	44.88
368.999	14.17
369.209	118.61
369.42	102.23
369.631	135
369.842	-10.41
370.053	61.27
370.264	112.47
370.474	20.31
370.685	40.79
370.896	73.56
371.107	44.88
371.317	61.27
371.528	-4.27
371.739	42.84
371.95	81.75
372.16	57.17
372.371	20.31
372.582	-22.7
372.792	34.64
373.003	96.08
373.214	143.19
373.424	63.32
373.635	5.97
373.846	96.08
374.056	61.27
374.267	36.69
374.477	55.12
374.688	20.31
374.898	81.75
375.109	40.79
375.319	-16.55
375.53	79.7
375.74	89.94
375.951	137.04
376.161	67.41
376.372	73.56
376.582	73.56
376.793	100.18
377.003	79.7
377.214	94.04
377.424	-53.42
377.635	89.94
377.845	-8.36
378.055	126.8
378.266	83.8
378.476	89.94
378.686	20.31
378.897	118.61
379.107	126.8
379.317	145.24
379.528	108.37
379.738	102.23
379.948	-12.46
380.158	182.1
380.369	-12.46
380.579	73.56
380.789	10.07
380.999	55.12
381.21	-45.23
381.42	147.28
381.63	77.65
381.84	67.41
382.05	128.85
382.261	36.69
382.471	114.52
382.681	108.37
382.891	192.34
383.101	59.22
383.311	38.74
383.521	53.08
383.731	116.56
383.941	44.88
384.151	14.17
384.361	110.42
384.571	12.12
384.781	167.76
384.991	106.32
385.201	79.7
385.411	75.6
385.621	141.14
385.831	65.36
386.041	53.08
386.251	38.74
386.461	104.28
386.671	167.76
386.881	91.99
387.091	14.17
387.301	30.55
387.511	116.56
387.72	44.88
387.93	94.04
388.14	143.19
388.35	24.4
388.56	79.7
388.769	81.75
388.979	104.28
389.189	34.64
389.399	26.45
389.609	-18.6
389.818	83.8
390.028	44.88
390.238	77.65
390.447	77.65
390.657	118.61
390.867	14.17
391.076	77.65
391.286	130.9
391.496	96.08
391.705	28.5
391.915	77.65
392.125	48.98
392.334	87.89
392.544	10.07
392.753	63.32
392.963	46.93
393.172	120.66
393.382	69.46
393.591	85.84
393.801	57.17
394.01	139.09
394.22	100.18
394.429	77.65
394.639	122.71
394.848	57.17
395.058	51.03
395.267	69.46
395.477	122.71
395.686	130.9
395.895	126.8
396.105	143.19
396.314	180.05
396.524	85.84
396.733	114.52
396.942	122.71
397.152	114.52
397.361	128.85
397.57	98.13
397.78	59.22
397.989	114.52
398.198	167.76
398.407	147.28
398.617	135
398.826	87.89
399.035	87.89
399.244	40.79
399.453	132.95
399.663	157.52
399.872	96.08
400.081	110.42
400.29	128.85
400.499	55.12
400.708	106.32
400.917	112.47
401.127	233.3
401.336	122.71
401.545	120.66
401.754	175.95
401.963	143.19
402.172	1.88
402.381	87.89
402.59	141.14
402.799	118.61
403.008	137.04
403.217	102.23
403.426	122.71
403.635	94.04
403.844	184.15
404.053	182.1
404.262	112.47
404.471	251.73
404.68	163.67
404.888	151.38
405.097	120.66
405.306	200.53
405.515	151.38
405.724	208.72
405.933	184.15
406.142	171.86
406.35	175.95
406.559	249.68
406.768	153.43
406.977	241.49
407.185	208.72
407.394	257.87
407.603	112.47
407.812	192.34
408.02	235.35
408.229	249.68
408.438	317.26
408.646	239.44
408.855	229.2
409.064	249.68
409.272	286.54
409.481	241.49
409.69	347.98
409.898	266.07
410.107	290.64
410.315	323.41
410.524	302.93
410.733	354.13
410.941	337.74
411.15	444.24
411.358	380.75
411.567	393.04
411.775	356.18
411.984	464.72
412.192	360.27
412.401	458.57
412.609	507.73
412.818	513.87
413.026	597.84
413.234	544.59
413.443	603.98
413.651	528.21
413.86	487.25
414.068	626.51
414.276	722.76
414.485	651.08
414.693	663.37
414.901	737.1
415.11	790.35
415.318	765.77
415.526	761.67
415.734	806.73
415.943	839.5
416.151	808.78
416.359	857.93
416.567	929.61
416.776	989
416.984	986.95
417.192	1044.29
417.4	1019.72
417.608	1027.91
417.817	1060.68
418.025	1161.03
418.233	1244.99
418.441	1167.17
418.649	1275.71
418.857	1298.24
419.065	1349.44
419.273	1298.24
419.481	1388.35
419.689	1507.13
419.897	1525.57
420.105	1584.96
420.313	1623.87
420.521	1730.36
420.729	1763.13
420.937	1781.56
421.145	1840.95
421.353	1935.16
421.561	2031.41
421.769	2015.03
421.977	2133.81
422.185	2086.71
422.393	2264.88
422.601	2330.42
422.809	2371.38
423.017	2354.99
423.224	2502.45
423.432	2686.76
423.64	2510.64
423.848	2836.27
424.056	2811.69
424.263	2905.9
424.471	2987.82
424.679	3012.39
424.887	3096.36
425.094	3137.32
425.302	3317.54
425.51	3194.66
425.718	3442.46
425.925	3583.77
426.133	3641.12
426.341	3927.83
426.548	4009.75
426.756	3940.12
426.964	4153.11
427.171	4275.99
427.379	4462.35
427.586	4388.63
427.794	4661.01
428.001	4820.75
428.209	4921.1
428.417	5050.12
428.624	5406.47
428.832	5263.11
429.039	5254.92
429.247	5199.62
429.454	5771.01
429.662	5910.27
429.869	5701.37
430.076	5969.66
430.284	5871.36
430.491	6301.43
430.699	6586.1
430.906	6696.69
431.114	6549.23
431.321	7012.07
431.528	7112.42
431.736	7311.08
431.943	7685.86
432.15	7732.96
432.358	7778.01
432.565	8091.35
432.772	8062.68
432.979	8629.97
433.187	8568.53
433.394	8685.26
433.601	9307.85
433.808	9254.6
434.016	9117.39
434.223	9742.02
434.43	10219.19
434.637	9901.76
434.844	10677.94
435.052	10796.72
435.259	10671.79
435.466	11009.71
435.673	10905.26
435.88	11468.45
436.087	12011.17
436.294	11898.53
436.501	11703.97
436.708	12021.41
436.915	12347.03
437.122	12830.35
437.329	12889.74
437.537	13299.34
437.743	13749.89
437.95	13569.67
438.157	14159.49
438.364	14790.26
438.571	14497.4
438.778	14751.35
438.985	15986.27
439.192	15472.23
439.399	15959.65
439.606	15490.66
439.813	16604.76
440.02	17397.32
440.227	16948.82
440.433	16856.66
440.64	17667.66
440.847	17403.47
441.054	17905.22
441.261	18830.9
441.467	18759.22
441.674	19242.54
441.881	19871.27
442.088	19858.98
442.294	19213.87
442.501	20106.79
442.708	20430.37
442.914	21202.45
443.121	21984.77
443.328	21433.87
443.534	23154.16
443.741	22500.86
443.948	21982.73
444.154	23545.33
444.361	23756.27
444.568	23930.34
444.774	23692.78
444.981	23743.98
445.187	24661.47
445.394	25634.25
445.6	25593.29
445.807	27805.1
446.013	26848.7
446.22	27035.06
446.426	28226.98
446.633	28501.41
446.839	29152.66
447.046	27798.96
447.252	29511.06
447.459	29547.92
447.665	29480.34
447.871	30866.81
448.078	32224.62
448.284	30766.46
448.491	31620.47
448.697	32931.17
448.903	33369.43
449.11	33588.56
449.316	32939.36
449.522	33377.62
449.728	34409.8
449.935	34641.22
450.141	34856.26
450.347	35368.25
450.553	34118.99
450.76	34827.59
450.966	35826.99
451.172	35413.3
451.378	36310.32
451.584	35595.57
451.791	36455.72
451.997	36805.92
452.203	37145.89
452.409	36812.07
452.615	37074.21
452.821	35640.63
453.027	35153.21
453.233	37205.28
453.44	35581.24
453.646	36480.3
453.852	36672.81
454.058	36568.36
454.264	35837.23
454.47	36508.97
454.676	35515.7
454.882	36869.41
455.088	33805.65
455.294	34506.05
455.5	34950.46
455.705	35188.03
455.911	33795.41
456.117	33484.12
456.323	32669.03
456.529	30993.79
456.735	32347.5
456.941	31649.14
457.147	31686
457.352	30350.73
457.558	30270.86
457.764	30205.32
457.97	29457.81
458.176	28755.36
458.381	28966.3
458.587	27436.47
458.793	27491.76
458.999	26353.09
459.204	28210.6
459.41	27139.51
459.616	25449.94
459.821	25462.22
460.027	25468.37
460.233	24845.79
460.438	23766.51
460.644	23993.83
460.85	22873.59
461.055	22357.5
461.261	22418.94
461.466	20571.68
461.672	20094.5
461.878	21485.07
462.083	20360.73
462.289	19713.58
462.494	19633.71
462.7	18433.6
462.905	18449.98
463.111	19138.1
463.316	18730.55
463.522	18447.93
463.727	18390.59
463.932	18429.5
464.138	18177.6
464.343	18216.51
464.549	17737.29
464.754	18388.54
464.959	18304.57
465.165	18105.92
465.37	17471.05
465.575	17063.5
465.781	17462.86
465.986	17522.25
466.191	16997.97
466.397	16651.86
466.602	15781.48
466.807	16377.44
467.012	16453.21
467.218	16305.76
467.423	15978.08
467.628	16254.56
467.833	16954.96
468.038	16514.65
468.244	15847.01
468.449	16434.78
468.654	15957.6
468.859	16039.52
469.064	15863.4
469.269	15079.02
469.474	15529.58
469.679	15466.09
469.885	15128.17
470.09	15081.07
470.295	15076.98
470.5	14923.38
470.705	14704.24
470.91	14710.39
471.115	14288.51
471.32	14823.03
471.525	14790.26
471.73	14102.14
471.935	14253.69
472.139	13743.75
472.344	13907.59
472.549	13840
472.754	13756.04
472.959	13098.64
473.164	13031.05
473.369	12889.74
473.574	13438.6
473.778	13522.57
473.983	13131.4
474.188	13074.06
474.393	12496.53
474.598	12557.97
474.802	12482.2
475.007	12365.46
475.212	12586.65
475.417	11890.34
475.621	11906.72
475.826	12054.17
476.031	11822.75
476.235	11605.67
476.44	11857.57
476.645	11626.15
476.849	11497.13
477.054	11566.76
477.259	11425.45
477.463	11204.27
477.668	11165.35
477.872	11015.85
478.077	10997.42
478.282	10663.6
478.486	10755.76
478.691	10520.24
478.895	10479.29
479.1	10596.02
479.304	10419.89
479.509	10172.09
479.713	10286.78
479.918	10077.88
480.122	9838.27
480.326	9985.72
480.531	10065.6
480.735	9961.15
480.94	9969.34
481.144	10084.03
481.348	9524.93
481.553	9735.87
481.757	9604.8
481.961	9926.33
482.166	9905.85
482.37	9875.13
482.574	9569.99
482.778	9535.17
482.983	9590.47
483.187	9727.68
483.391	9678.53
483.595	9481.92
483.8	9326.28
484.004	9635.52
484.208	9762.5
484.412	9705.15
484.616	9676.48
484.821	9594.56
485.025	9545.41
485.229	9821.89
485.433	9514.69
485.637	9451.21
485.841	9606.85
486.045	9461.44
486.249	9537.22
486.453	9498.31
486.657	9463.49
486.861	9717.44
487.065	9459.4
487.269	9684.67
487.473	9481.92
487.677	9602.75
487.881	9807.55
488.085	9625.28
488.289	9563.84
488.493	9584.32
488.697	9746.11
488.901	9821.89
489.105	9580.23
489.309	9918.14
489.512	9629.38
489.716	9785.02
489.92	9795.26
490.124	9606.85
490.328	9998.01
490.531	9598.66
490.735	9907.9
490.939	9852.61
491.143	9957.05
491.346	9871.04
491.55	9729.73
491.754	10045.12
491.958	10245.82
492.161	9971.39
492.365	10073.79
492.569	10137.27
492.772	10129.08
492.976	10192.57
493.18	10286.78
493.383	10337.98
493.587	10481.33
493.79	10448.57
493.994	10571.44
494.197	10542.77
494.401	10657.46
494.605	10739.38
494.808	10786.48
495.012	10804.91
495.215	10849.97
495.419	10892.98
495.622	10933.93
495.825	11189.93
496.029	11116.2
496.232	11511.46
496.436	11396.78
496.639	11740.83
496.843	11509.41
497.046	11660.96
497.249	12054.17
497.453	11773.6
497.656	11900.58
497.859	12029.6
498.063	12170.91
498.266	12406.42
498.469	12295.83
498.673	12457.62
498.876	12865.17
499.079	12983.95
499.282	13012.62
499.485	13260.43
499.689	13143.69
499.892	13180.56
500.095	13352.59
500.298	13960.83
500.501	13809.28
500.705	14048.89
500.908	13960.83
501.111	14102.14
501.314	14651
501.517	14681.72
501.72	14581.37
501.923	14601.85
502.126	15019.63
502.329	15289.96
502.532	15394.41
502.735	15445.61
502.938	15605.35
503.141	15691.37
503.344	15717.99
503.547	16047.71
503.75	16535.13
503.953	16754.26
504.156	16752.21
504.359	16879.19
504.562	16778.84
504.765	17309.26
504.968	17389.13
505.17	17430.09
505.373	17471.05
505.576	17870.4
505.779	18181.7
505.982	17884.74
506.185	18628.15
506.387	18628.15
506.59	18705.98
506.793	19238.45
506.996	19516.97
507.198	19680.81
507.401	19709.48
507.604	19746.34
507.807	20131.36
508.009	20180.51
508.212	20520.48
508.415	20782.62
508.617	21001.75
508.82	20848.15
509.022	20913.69
509.225	21239.31
509.428	21739.02
509.63	21988.87
509.833	22093.32
510.035	22316.54
510.238	22269.44
510.44	22128.13
510.643	22998.52
510.845	23086.58
511.048	23047.67
511.25	23576.05
511.453	23530.99
511.655	24174.05
511.858	24311.27
512.06	24251.88
512.262	24524.26
512.465	24663.52
512.667	25093.59
512.87	25294.29
513.072	25310.68
513.274	25859.53
513.477	26086.86
513.679	26305.99
513.881	26473.92
514.084	26547.65
514.286	26826.17
514.488	26533.31
514.69	27651.5
514.893	27735.47
515.095	27905.45
515.297	28114.34
515.499	28257.7
515.701	28450.21
515.904	28763.55
516.106	28908.96
516.308	29222.3
516.51	29826.45
516.712	29361.56
516.914	30014.86
517.116	30655.87
517.318	30522.76
517.52	30580.1
517.722	30696.83
517.925	31104.38
518.127	31884.65
518.329	31739.25
518.531	32122.22
518.733	32568.68
518.935	32638.31
519.136	32609.64
519.338	33154.4
519.54	33512.79
519.742	33375.58
519.944	33963.34
520.146	34198.86
520.348	34155.85
520.55	34573.64
520.752	34547.01
520.954	35036.48
521.155	34846.02
521.357	35329.34
521.559	35573.05
521.761	35982.64
521.963	36011.31
522.164	36502.82
522.366	36709.67
522.568	36947.23
522.77	37176.61
522.971	37590.3
523.173	37000.48
523.375	37932.31
523.576	37754.13
523.778	37741.85
523.98	38274.32
524.181	38470.92
524.383	38534.41
524.584	39249.15
524.786	38731.01
524.988	38595.85
525.189	39617.78
525.391	39339.26
525.592	39748.85
525.794	39529.72
525.995	40236.27
526.197	40004.85
526.398	40045.81
526.6	40436.97
526.801	40488.17
527.003	40774.89
527.204	41340.13
527.406	41172.19
527.607	41329.89
527.808	41888.98
528.01	40746.22
528.211	41278.69
528.412	42190.03
528.614	41721.05
528.815	41546.97
529.016	42124.5
529.218	41858.26
529.419	41985.24
529.62	41493.72
529.822	41813.21
530.023	41852.12
530.224	42128.59
530.425	42642.63
530.626	41821.4
530.828	41909.46
531.029	43238.59
531.23	42153.17
531.431	42575.05
531.632	42511.56
531.833	42824.9
532.035	42685.64
532.236	42544.33
532.437	42507.47
532.638	42263.76
532.839	42783.94
533.04	42812.62
533.241	42683.59
533.442	43369.66
533.643	42824.9
533.844	42812.62
534.045	43232.45
534.246	42558.67
534.447	43128
534.648	43269.31
534.849	43109.57
535.05	42484.94
535.251	42853.58
535.451	42671.31
535.652	43076.8
535.853	42765.51
536.054	42753.22
536.255	42820.81
536.456	42443.98
536.657	43230.4
536.857	42323.15
537.058	43009.22
537.259	42900.68
537.46	43003.08
537.66	42628.3
537.861	42646.73
538.062	42443.98
538.263	42513.61
538.463	42460.37
538.664	42538.19
538.865	42679.5
539.065	42755.27
539.266	42149.07
539.466	42790.09
539.667	41964.76
539.868	42439.89
540.068	42796.23
540.269	42515.66
540.469	42740.94
540.67	42339.54
540.87	42519.76
541.071	42446.03
541.271	42687.69
541.472	42317.01
541.672	42544.33
541.873	42224.85
542.073	41612.51
542.274	42829
542.474	42185.94
542.675	41729.24
542.875	42413.26
543.075	42755.27
543.276	41944.28
543.476	42710.22
543.676	42327.25
543.877	42274
544.077	42538.19
544.277	42339.54
544.478	42245.33
544.678	42771.66
544.878	42620.11
545.078	41981.14
545.279	41813.21
545.479	42030.29
545.679	42222.8
545.879	41792.73
546.079	41786.58
546.28	42423.5
546.48	41788.63
546.68	41796.82
546.88	42036.44
547.08	42046.68
547.28	41688.28
547.48	41635.03
547.68	42073.3
547.88	41366.75
548.081	41981.14
548.281	42036.44
548.481	42011.86
548.681	42663.11
548.881	42116.31
549.081	42030.29
549.28	41655.51
549.48	42190.03
549.68	42034.39
549.88	42052.82
550.08	41811.16
550.28	42106.07
550.48	42067.16
550.68	41917.65
550.88	41991.38
551.08	41972.95
551.279	42065.11
551.479	41784.54
551.679	42032.34
551.879	41635.03
552.079	42228.94
552.278	41577.69
552.478	42024.15
552.678	41907.41
552.878	41772.25
553.077	41909.46
553.277	41340.13
553.477	41837.78
553.676	41964.76
553.876	41635.03
554.076	41487.58
554.275	41659.61
554.475	41567.45
554.674	41620.7
554.874	41608.41
555.074	41522.4
555.273	41768.15
555.473	41780.44
555.672	41530.59
555.872	41374.94
556.071	41239.78
556.271	41641.18
556.47	41508.06
556.67	41471.2
556.869	41129.19
557.068	41385.18
557.268	40985.83
557.467	41135.33
557.667	41278.69
557.866	41665.75
558.065	41460.96
558.265	41030.88
558.464	40787.17
558.663	41376.99
558.863	40598.76
559.062	41207.01
559.261	40084.72
559.461	41268.45
559.66	40420.59
559.859	41166.05
560.058	40424.68
560.258	40813.8
560.457	40377.58
560.656	40772.84
560.855	40570.09
561.054	40625.39
561.253	40119.54
561.453	40574.19
561.652	40201.46
561.851	40668.39
562.05	40197.36
562.249	40039.67
562.448	40226.03
562.647	40502.51
562.846	40090.87
563.045	40287.47
563.244	39718.14
563.443	40256.75
563.642	39912.69
563.841	39949.56
564.04	40117.49
564.239	40103.15
564.438	39765.24
564.637	40047.86
564.836	39533.82
565.035	39451.9
565.234	39501.05
565.432	39410.94
565.631	39273.73
565.83	39257.34
566.029	39113.98
566.228	38884.61
566.427	39091.46
566.625	38759.69
566.824	38485.26
567.023	39062.79
567.222	38235.41
567.42	38810.89
567.619	38577.42
567.818	38520.07
568.016	38618.38
568.215	38657.29
568.414	38128.91
568.612	38704.39
568.811	38026.51
569.01	38071.57
569.208	37893.4
569.407	38092.05
569.605	37885.2
569.804	38012.18
570.002	37883.16
570.201	37965.07
570.4	37694.74
570.598	37365.02
570.797	37371.16
570.995	37231.9
571.193	36748.58
571.392	37489.95
571.59	36973.86
571.789	36865.31
571.987	36891.94
572.186	37178.65
572.384	36599.08
572.582	36908.32
572.781	36574.5
572.979	36234.54
573.177	36162.86
573.376	36398.38
573.574	36191.53
573.772	36521.26
573.971	36052.27
574.169	35724.6
574.367	36134.19
574.565	36126
574.763	35720.5
574.962	35593.53
575.16	35429.69
575.358	35779.89
575.556	35536.18
575.754	35880.24
575.952	34766.15
576.151	35591.48
576.349	35026.24
576.547	35073.34
576.745	34972.99
576.943	35310.91
577.141	34798.91
577.339	34579.78
577.537	34719.04
577.735	34633.03
577.933	34571.59
578.131	34661.7
578.329	34200.91
578.527	34137.42
578.725	34680.13
578.923	34153.8
579.121	33944.91
579.319	33944.91
579.516	33987.92
579.714	33928.53
579.912	33752.4
580.11	33776.98
580.308	33305.95
580.506	33236.31
580.704	33023.33
580.901	32974.17
581.099	33201.5
581.297	32939.36
581.495	32771.43
581.692	32845.15
581.89	32826.72
582.088	33021.28
582.285	32456.04
582.483	32763.23
582.681	32497
582.878	32550.24
583.076	32464.23
583.274	32691.55
583.471	32032.11
583.669	32353.64
583.866	32236.91
584.064	32144.75
584.262	31630.71
584.459	31745.39
584.657	31524.21
584.854	32161.13
585.052	31454.58
585.249	31599.99
585.447	31335.8
585.644	31081.85
585.841	31257.98
586.039	31423.86
586.236	31061.37
586.434	31049.08
586.631	31104.38
586.828	30700.93
587.026	30897.53
587.223	30668.16
587.42	30672.26
587.618	30526.85
587.815	30340.49
588.012	30324.1
588.21	30270.86
588.407	30569.86
588.604	30029.2
588.801	29836.69
588.999	29808.01
589.196	30037.39
589.393	29934.99
589.59	29855.12
589.787	29605.27
589.984	29539.73
590.182	29513.11
590.379	29123.99
590.576	29406.61
590.773	29052.31
590.97	29138.33
591.167	29427.09
591.364	28781.98
591.561	29033.88
591.758	28868
591.955	28734.88
592.152	29064.6
592.349	28403.11
592.546	29011.35
592.743	28698.02
592.94	28376.48
593.137	28427.68
593.334	28454.31
593.531	28001.71
593.727	28394.92
593.924	27993.51
594.121	27794.86
594.318	28061.1
594.515	27706.8
594.712	27966.89
594.908	27751.85
595.105	27975.08
595.302	27401.65
595.499	27309.49
595.696	27456.95
595.892	27174.33
596.089	27528.63
596.286	27293.11
596.482	27024.82
596.679	27024.82
596.876	27010.49
597.072	26711.49
597.269	26928.57
597.466	26394.05
597.662	26529.22
597.859	26451.39
598.055	26715.58
598.252	26394.05
598.448	26381.76
598.645	26041.8
598.841	26062.28
599.038	25951.69
599.234	25900.49
599.431	25777.61
599.627	25726.41
599.824	26156.49
600.02	25718.22
600.217	25794
600.413	26004.94
600.609	25624.01
600.806	25243.09
601.002	25470.42
601.198	25437.65
601.395	24942.04
601.591	25101.78
601.787	25327.06
601.984	24999.38
602.18	25443.79
602.376	24827.35
602.572	24778.2
602.769	24718.81
602.965	24792.54
603.161	24600.03
603.357	24681.95
603.553	24624.61
603.75	24251.88
603.946	24350.18
604.142	24372.71
604.338	24055.27
604.534	24288.74
604.73	23985.64
604.926	24012.26
605.122	23969.26
605.318	23725.55
605.514	23838.19
605.71	23985.64
605.906	23817.71
606.102	23885.29
606.298	23635.44
606.494	23797.23
606.69	23754.22
606.886	23440.88
607.082	23240.18
607.278	23717.36
607.474	23090.68
607.67	23207.41
607.866	23082.49
608.062	23442.93
608.257	23023.09
608.453	23121.4
608.649	23178.74
608.845	22906.36
609.041	22744.57
609.236	22834.68
609.432	22828.54
609.628	22664.7
609.824	22560.25
610.019	22412.8
610.215	22828.54
610.411	22490.62
610.606	22547.97
610.802	22445.57
610.998	22343.17
611.193	22668.8
611.389	22279.68
611.584	22244.87
611.78	22324.74
611.976	22484.48
612.171	22144.52
612.367	22451.71
612.562	22070.79
612.758	21720.59
612.953	21831.18
613.149	22183.43
613.344	21990.92
613.539	22349.31
613.735	21843.46
613.93	22056.45
614.126	21759.5
614.321	22081.03
614.517	21870.09
614.712	21644.81
614.907	21495.31
615.103	21687.82
615.298	21681.67
615.493	21964.29
615.688	21163.54
615.884	22066.69
616.079	21509.65
616.274	21452.3
616.47	21292.56
616.665	21366.29
616.86	21462.54
617.055	21380.62
617.25	20829.72
617.445	21181.97
617.641	21026.32
617.836	21212.69
618.031	20860.44
618.226	21079.57
618.421	20858.39
618.616	20934.17
618.811	20520.48
619.006	21007.89
619.201	20555.29
619.396	20594.2
619.591	20373.02
619.786	20573.72
619.981	20057.64
620.176	20352.54
620.371	19807.78
620.566	20043.3
620.761	20106.79
620.956	19975.72
621.151	19605.03
621.346	19914.28
621.541	19596.84
621.735	19852.84
621.93	19015.22
622.125	19459.63
622.32	19197.49
622.515	19285.55
622.709	18988.6
622.904	19045.94
623.099	19062.32
623.294	19109.43
623.488	18619.96
623.683	18830.9
623.878	18357.82
624.072	18630.2
624.267	18325.05
624.462	18546.23
624.656	17989.19
624.851	18077.25
625.046	18005.57
625.24	17641.03
625.435	17808.97
625.629	17690.18
625.824	17626.7
626.018	17628.74
626.213	17219.15
626.407	17215.05
626.602	17167.95
626.796	17305.17
626.991	17124.94
627.185	17114.7
627.38	16911.96
627.574	16645.72
627.768	16698.97
627.963	16567.9
628.157	16469.59
628.352	16418.39
628.546	16307.8
628.74	16350.81
628.935	16086.62
629.129	16019.04
629.323	15994.47
629.517	15810.15
629.712	15771.24
629.906	15857.25
630.1	15703.65
630.294	15588.97
630.489	15361.64
630.683	15642.21
630.877	15015.54
631.071	15050.35
631.265	15197.81
631.459	15134.32
631.653	14827.12
631.848	14966.38
632.042	15224.43
632.236	14995.06
632.43	14712.44
632.624	14628.47
632.818	14655.09
633.012	14497.4
633.206	14495.35
633.4	14302.84
633.594	14298.75
633.788	14114.43
633.982	14339.71
634.176	14065.28
634.369	13719.17
634.563	14091.9
634.757	13768.32
634.951	13772.42
635.145	13663.88
635.339	13883.01
635.533	13737.6
635.726	13667.97
635.92	13291.15
636.114	13387.4
636.308	13350.54
636.501	13250.19
636.695	13084.3
636.889	12830.35
637.083	12879.5
637.276	12848.79
637.47	12940.94
637.664	12703.38
637.857	12660.37
638.051	12861.07
638.244	12549.78
638.438	12445.34
638.632	12400.28
638.825	12418.71
639.019	12359.32
639.212	12336.79
639.406	12132
639.599	12269.21
639.793	12086.94
639.986	11798.18
640.18	11878.05
640.373	11802.27
640.567	11679.4
640.76	12037.79
640.954	11802.27
641.147	11572.9
641.34	11540.13
641.534	11435.69
641.727	11472.55
641.92	11298.47
642.114	11210.41
642.307	11140.78
642.5	11218.6
642.694	11075.24
642.887	10878.64
643.08	11263.66
643.273	11136.68
643.467	10755.76
643.66	10823.34
643.853	10737.33
644.046	10532.53
644.239	10542.77
644.432	10483.38
644.626	10428.09
644.819	10604.21
645.012	10442.42
645.205	10335.93
645.398	10426.04
645.591	10282.68
645.784	10206.91
645.977	9932.48
646.17	10081.98
646.363	10055.36
646.556	9787.07
646.749	10047.16
646.942	10096.32
647.135	9909.95
647.328	9998.01
647.521	9795.26
647.714	9373.38
647.907	9756.35
648.099	9416.39
648.292	9676.48
648.485	9602.75
648.678	9350.85
648.871	9512.64
649.064	9178.83
649.256	9359.05
649.449	9256.65
649.642	9113.29
649.835	8933.07
650.027	8955.6
650.22	8959.69
650.413	8998.6
650.605	8965.84
650.798	8797.9
650.991	8615.63
651.183	8767.18
651.376	8490.71
651.568	8539.86
651.761	8748.75
651.954	8556.24
652.146	8593.11
652.339	8384.21
652.531	8398.55
652.724	8402.65
652.916	8257.24
653.109	8365.78
653.301	8330.97
653.494	8275.67
653.686	8181.46
653.879	8281.81
654.071	8068.83
654.263	8062.68
654.456	8013.53
654.648	7978.72
654.84	7876.32
655.033	7861.98
655.225	7876.32
655.417	7755.49
655.61	7859.93
655.802	7685.86
655.994	7683.81
656.186	7626.46
656.379	7587.55
656.571	7589.6
656.763	7349.99
656.955	7405.28
657.148	7483.11
657.34	7556.83
657.532	7272.17
657.724	7272.17
657.916	7519.97
658.108	7446.24
658.3	7102.18
658.492	7188.2
658.684	6975.21
658.876	6993.64
659.068	6979.31
659.26	6946.54
659.452	6856.43
659.644	7081.71
659.836	6786.8
660.028	6772.46
660.22	6590.19
660.412	6772.46
660.604	6645.49
660.796	6674.16
660.988	6598.38
661.18	6598.38
661.372	6633.2
661.563	6815.47
661.755	6436.6
661.947	6491.89
662.139	6579.95
662.331	6625.01
662.522	6385.4
662.714	6430.45
662.906	6360.82
663.097	6145.78
663.289	6278.9
663.481	6260.47
663.673	6156.02
663.864	6188.79
664.056	6115.06
664.247	6133.5
664.439	6135.54
664.631	6166.26
664.822	6074.1
665.014	6135.54
665.205	5949.18
665.397	6029.05
665.588	5928.7
665.78	5852.92
665.971	5697.28
666.163	5910.27
666.354	5771.01
666.546	5877.5
666.737	5594.88
666.929	5545.73
667.12	5644.03
667.311	5754.62
667.503	5506.82
667.694	5631.74
667.885	5633.79
668.077	5584.64
668.268	5435.14
668.459	5627.65
668.651	5383.94
668.842	5357.32
669.033	5467.91
669.224	5232.39
669.416	5424.9
669.607	5332.74
669.798	5273.35
669.989	5381.89
670.18	5265.16
670.371	5150.47
670.563	5345.03
670.754	5238.53
670.945	5105.42
671.136	5162.76
671.327	5117.7
671.518	5142.28
671.709	5027.59
671.9	5078.79
672.091	5187.33
672.282	4984.59
672.473	5035.78
672.664	4859.66
672.855	5050.12
673.046	5062.41
673.237	4894.47
673.428	4951.82
673.619	4906.76
673.809	4777.74
674	4767.5
674.191	4796.17
674.382	4871.95
674.573	4695.82
674.764	4656.91
674.954	4681.49
675.145	4665.1
675.336	4722.45
675.527	4712.21
675.717	4628.24
675.908	4630.29
676.099	4548.37
676.289	4566.8
676.48	4665.1
676.671	4687.63
676.861	4577.04
677.052	4701.97
677.243	4636.43
677.433	4452.11
677.624	4534.03
677.814	4503.31
678.005	4509.46
678.195	4525.84
678.386	4536.08
678.576	4411.15
678.767	4583.18
678.957	4486.93
679.148	4513.55
679.338	4568.85
679.529	4452.11
679.719	4241.17
679.909	4386.58
680.1	4411.15
680.29	4445.97
680.481	4366.1
680.671	4302.61
680.861	4325.14
681.052	4288.28
681.242	4349.71
681.432	4280.08
681.622	4243.22
681.813	4300.56
682.003	4345.62
682.193	4210.45
682.383	4366.1
682.573	4159.25
682.764	4173.59
682.954	4339.48
683.144	4153.11
683.334	4212.5
683.524	4185.88
683.714	4288.28
683.904	4165.4
684.094	4118.29
684.284	4067.1
684.474	4271.89
684.664	4067.1
684.854	4298.52
685.044	4101.91
685.234	4042.52
685.424	4144.92
685.614	3970.84
685.804	3964.7
685.994	4077.34
686.184	4140.82
686.374	4058.9
686.564	4060.95
686.753	3979.03
686.943	3714.84
687.133	3989.27
687.323	3825.43
687.513	3917.59
687.702	3860.25
687.892	3882.78
688.082	3893.02
688.272	3819.29
688.461	3741.47
688.651	3811.1
688.841	3665.69
689.03	3778.33
689.22	3634.97
689.41	3788.57
689.599	3614.49
689.789	3702.56
689.979	3602.21
690.168	3749.66
690.358	3624.73
690.547	3563.29
690.737	3594.01
690.926	3784.48
691.116	3489.57
691.305	3698.46
691.495	3651.36
691.684	3673.89
691.874	3579.68
692.063	3704.6
692.252	3458.85
692.442	3464.99
692.631	3469.09
692.82	3546.91
693.01	3575.58
693.199	3419.94
693.388	3483.42
693.578	3510.05
693.767	3438.37
693.956	3460.9
694.146	3413.79
694.335	3530.53
694.524	3323.68
694.713	3378.98
694.902	3391.27
695.092	3372.83
695.281	3286.82
695.47	3266.34
695.659	3348.26
695.848	3254.05
696.037	3268.39
696.226	3477.28
696.415	3256.1
696.604	3467.04
696.793	3211.04
696.982	3325.73
697.171	3256.1
697.36	3268.39
697.549	3266.34
697.738	3309.35
697.927	3143.46
698.116	3403.55
698.305	3194.66
698.494	3233.57
698.683	3233.57
698.872	3143.46
699.061	3129.13
699.25	3303.2
699.438	3225.38
699.627	3174.18
699.816	3200.8
700.005	3225.38
700.193	3190.56
700.382	3264.29
700.571	3211.04
700.76	3137.32
700.948	3198.76
701.137	3092.26
701.326	3112.74
701.514	3108.65
701.703	3206.95
701.892	3209
702.08	3049.25
702.269	3153.7
702.457	3272.48
702.646	3182.37
702.834	3067.69
703.023	3129.13
703.212	3071.78
703.4	3092.26
703.589	3209
703.777	3186.47
703.965	3002.15
704.154	3127.08
704.342	2905.9
704.531	3024.68
704.719	3012.39
704.907	3028.78
705.096	3024.68
705.284	3036.97
705.472	2985.77
705.661	3002.15
705.849	3073.83
706.037	3084.07
706.226	3094.31
706.414	3002.15
706.602	2946.86
706.79	3039.01
706.979	3075.88
707.167	3118.89
707.355	2819.88
707.543	3012.39
707.731	2975.53
707.919	3061.54
708.107	2850.6
708.296	2852.65
708.484	2887.47
708.672	2948.9
708.86	2989.86
709.048	3047.21
709.236	2811.69
709.424	2912.04
709.612	3014.44
709.8	2930.47
709.988	3002.15
710.176	2924.33
710.364	2953
710.551	2903.85
710.739	2914.09
710.927	2879.27
711.115	2909.99
711.303	2914.09
711.491	2799.4
711.679	2887.47
711.866	2760.49
712.054	2922.28
712.242	2674.48
712.43	2887.47
712.617	2932.52
712.805	2840.36
712.993	2883.37
713.181	2729.77
713.368	2838.31
713.556	2754.35
713.744	2666.28
713.931	2879.27
714.119	2758.44
714.306	2723.63
714.494	2731.82
714.682	2785.07
714.869	2729.77
715.057	2713.39
715.244	2684.72
715.432	2846.51
715.619	2780.97
715.807	2801.45
715.994	2776.87
716.182	2688.81
716.369	2744.11
716.556	2690.86
716.744	2592.56
716.931	2715.44
717.119	2774.83
717.306	2588.46
717.493	2588.46
717.681	2756.4
717.868	2510.64
718.055	2608.94
718.242	2594.61
718.43	2615.09
718.617	2578.22
718.804	2725.68
718.991	2733.87
719.179	2627.37
719.366	2623.28
719.553	2627.37
719.74	2615.09
719.927	2617.13
720.114	2649.9
720.301	2555.69
720.488	2508.59
720.676	2561.84
720.863	2508.59
721.05	2641.71
721.237	2555.69
721.424	2598.7
721.611	2506.54
721.798	2508.59
721.985	2600.75
722.172	2518.83
722.358	2488.11
722.545	2621.23
722.732	2539.31
722.919	2543.41
723.106	2457.39
723.293	2457.39
723.48	2492.21
723.667	2393.9
723.853	2361.14
724.04	2506.54
724.227	2459.44
724.414	2467.63
724.6	2420.53
724.787	2508.59
724.974	2463.54
725.161	2586.41
725.347	2418.48
725.534	2346.8
725.72	2375.47
725.907	2477.87
726.094	2563.89
726.28	2373.43
726.467	2400.05
726.653	2354.99
726.84	2477.87
727.027	2393.9
727.213	2428.72
727.4	2344.75
727.586	2346.8
727.773	2316.08
727.959	2428.72
728.145	2494.26
728.332	2412.34
728.518	2297.65
728.705	2305.84
728.891	2285.36
729.077	2377.52
729.264	2314.03
729.45	2240.31
729.636	2260.79
729.823	2348.85
730.009	2322.23
730.195	2398
730.382	2391.86
730.568	2316.08
730.754	2258.74
730.94	2322.23
731.126	2314.03
731.313	2150.2
731.499	2297.65
731.685	2297.65
731.871	2193.2
732.057	2357.04
732.243	2244.4
732.429	2305.84
732.615	2277.17
732.801	2191.16
732.987	2254.64
733.173	2314.03
733.359	2248.5
733.545	2133.81
733.731	2176.82
733.917	2273.07
734.103	2137.91
734.289	2248.5
734.475	2166.58
734.661	2168.63
734.847	2176.82
735.033	2182.96
735.219	2080.57
735.404	2092.85
735.59	2103.09
735.776	2113.33
735.962	2156.34
736.148	2113.33
736.333	2223.92
736.519	2119.48
736.705	2107.19
736.89	2189.11
737.076	2150.2
737.262	2035.51
737.447	2180.92
737.633	1994.55
737.819	2125.62
738.004	2119.48
738.19	2043.7
738.375	2068.28
738.561	2074.42
738.747	1998.65
738.932	2076.47
739.118	1947.45
739.303	2010.93
739.489	2068.28
739.674	2010.93
739.859	2090.81
740.045	2109.24
740.23	1916.73
740.416	1892.15
740.601	2158.39
740.786	1931.06
740.972	2010.93
741.157	2094.9
741.342	1969.98
741.528	2094.9
741.713	1965.88
741.898	2002.74
742.084	1986.36
742.269	1886.01
742.454	1955.64
742.639	1941.3
742.824	1843
743.01	1900.34
743.195	1888.06
743.38	1808.19
743.565	1863.48
743.75	1769.27
743.935	1670.97
744.12	1849.15
744.305	1775.42
744.49	1799.99
744.675	1822.52
744.86	1775.42
745.045	1791.8
745.23	1673.02
745.415	1871.67
745.6	1767.23
745.785	1744.7
745.97	1711.93
746.155	1736.51
746.34	1822.52
746.525	1802.04
746.71	1718.08
746.895	1699.64
747.079	1822.52
747.264	1662.78
747.449	1695.55
747.634	1748.79
747.819	1697.6
748.003	1609.53
748.188	1699.64
748.373	1601.34
748.557	1673.02
748.742	1703.74
748.927	1537.85
749.111	1613.63
749.296	1552.19
749.481	1601.34
749.665	1580.86
749.85	1488.7
750.034	1630.01
750.219	1593.15
750.404	1529.66
750.588	1552.19
750.773	1455.94
750.957	1556.29
751.141	1464.13
751.326	1410.88
751.51	1453.89
751.695	1595.2
751.879	1447.74
752.064	1396.54
752.248	1355.58
752.432	1488.7
752.617	1429.31
752.801	1447.74
752.985	1404.74
753.17	1464.13
753.354	1427.26
753.538	1357.63
753.722	1249.09
753.907	1165.12
754.091	1357.63
754.275	1290.05
754.459	1257.28
754.643	1306.43
754.828	1228.61
755.012	1312.58
755.196	1249.09
755.38	1324.87
755.564	1175.36
755.748	1302.34
755.932	1273.67
756.116	1228.61
756.3	1138.5
756.484	1224.51
756.668	1201.99
756.852	1222.47
757.036	1240.9
757.22	1122.12
757.404	1077.06
757.588	1275.71
757.772	1171.27
757.956	1136.45
758.14	1167.17
758.323	1097.54
758.507	1128.26
758.691	1163.08
758.875	1072.96
759.059	1105.73
759.242	1038.15
759.426	1105.73
759.61	991.05
759.794	1154.88
759.977	1003.33
760.161	1142.6
760.345	995.14
760.528	1089.35
760.712	1009.48
760.895	1056.58
761.079	1109.83
761.263	962.37
761.446	964.42
761.63	978.76
761.813	1085.25
761.997	1038.15
762.18	1070.92
762.364	1011.53
762.547	1044.29
762.731	980.81
762.914	986.95
763.098	945.99
763.281	902.98
763.464	960.33
763.648	1011.53
763.831	913.22
764.015	950.09
764.198	921.42
764.381	921.42
764.564	872.26
764.748	841.54
764.931	970.57
765.114	1036.1
765.297	880.46
765.481	841.54
765.664	876.36
765.847	900.94
766.03	909.13
766.213	825.16
766.397	884.55
766.58	790.35
766.763	855.88
766.946	821.06
767.129	849.74
767.312	786.25
767.495	814.92
767.678	765.77
767.861	859.98
768.044	890.7
768.227	970.57
768.41	827.21
768.593	882.5
768.776	845.64
768.959	827.21
769.142	810.82
769.324	849.74
769.507	880.46
769.69	874.31
769.873	751.43
770.056	831.3
770.239	763.72
770.421	843.59
770.604	745.29
770.787	724.81
770.97	759.63
771.152	773.96
771.335	724.81
771.518	802.63
771.7	755.53
771.883	724.81
772.066	737.1
772.248	798.54
772.431	810.82
772.613	761.67
772.796	726.86
772.978	642.89
773.161	847.69
773.343	761.67
773.526	667.47
773.708	724.81
773.891	683.85
774.073	712.52
774.256	640.84
774.438	718.67
774.621	659.28
774.803	589.64
774.985	702.28
775.168	720.71
775.35	620.36
775.532	784.2
775.715	591.69
775.897	726.86
776.079	642.89
776.261	784.2
776.444	659.28
776.626	663.37
776.808	560.97
776.99	603.98
777.173	577.36
777.355	681.8
777.537	544.59
777.719	642.89
777.901	667.47
778.083	571.21
778.265	630.6
778.447	618.32
778.629	622.41
778.811	579.4
778.993	614.22
779.175	640.84
779.357	520.01
779.539	536.4
779.721	560.97
779.903	646.99
780.085	552.78
780.267	585.55
780.449	573.26
780.631	554.83
780.812	544.59
780.994	548.68
781.176	438.09
781.358	532.3
781.54	472.91
781.721	544.59
781.903	511.82
782.085	507.73
782.267	456.53
782.448	489.29
782.63	438.09
782.812	464.72
782.993	491.34
783.175	528.21
783.357	442.19
783.538	479.05
783.72	448.33
783.901	440.14
784.083	470.86
784.264	479.05
784.446	458.57
784.627	446.29
784.809	513.87
784.99	415.57
785.172	534.35
785.353	315.22
785.535	431.95
785.716	495.44
785.897	397.14
786.079	419.66
786.26	374.61
786.441	509.77
786.623	364.37
786.804	413.52
786.985	495.44
787.167	429.9
787.348	362.32
787.529	403.28
787.71	470.86
787.891	429.9
788.073	421.71
788.254	311.12
788.435	401.23
788.616	417.61
788.797	282.45
788.978	341.84
789.159	364.37
789.34	438.09
789.522	331.6
789.703	372.56
789.884	403.28
790.065	374.61
790.246	366.42
790.427	350.03
790.607	290.64
790.788	325.46
790.969	284.5
791.15	274.26
791.331	360.27
791.512	282.45
791.693	153.43
791.874	309.07
792.054	274.26
792.235	298.83
792.416	253.78
792.597	249.68
792.778	360.27
792.958	292.69
793.139	304.98
793.32	268.11
793.5	282.45
793.681	323.41
793.862	292.69
794.042	221.01
794.223	255.83
794.404	294.74
794.584	237.39
794.765	302.93
794.945	323.41
795.126	288.59
795.306	323.41
795.487	284.5
795.667	227.15
795.848	266.07
796.028	298.83
796.209	268.11
796.389	319.31
796.57	282.45
796.75	208.72
796.93	243.54
797.111	225.11
797.291	253.78
797.471	184.15
797.652	307.02
797.832	180.05
798.012	253.78
798.192	237.39
798.373	247.63
798.553	300.88
798.733	216.91
798.913	192.34
799.093	225.11
799.274	270.16
799.454	272.21
799.634	257.87
799.814	235.35
799.994	253.78
800.174	270.16
800.354	200.53
800.534	282.45
800.714	333.65
800.894	261.97
801.074	290.64
801.254	169.81
801.434	241.49
801.614	225.11
801.794	210.77
801.974	792.39
802.154	216.91
802.334	221.01
802.514	216.91
802.693	159.57
802.873	216.91
803.053	202.58
803.233	212.82
803.413	155.47
803.592	128.85
803.772	192.34
803.952	112.47
804.131	221.01
804.311	208.72
804.491	225.11
804.67	153.43
804.85	188.24
805.03	241.49
805.209	223.06
805.389	208.72
805.568	153.43
805.748	145.24
805.928	182.1
806.107	159.57
806.287	167.76
806.466	221.01
806.646	77.65
806.825	192.34
807.004	149.33
807.184	221.01
807.363	151.38
807.543	192.34
807.722	161.62
807.901	243.54
808.081	225.11
808.26	96.08
808.439	120.66
808.619	153.43
808.798	190.29
808.977	122.71
809.156	167.76
809.336	208.72
809.515	182.1
809.694	175.95
809.873	85.84
810.052	208.72
810.231	139.09
810.411	178
810.59	200.53
810.769	157.52
810.948	135
811.127	118.61
811.306	77.65
811.485	126.8
811.664	235.35
811.843	200.53
812.022	167.76
812.201	98.13
812.38	159.57
812.559	143.19
812.737	192.34
812.916	71.51
813.095	157.52
813.274	229.2
813.453	165.71
813.632	167.76
813.811	155.47
813.989	126.8
814.168	200.53
814.347	161.62
814.526	147.28
814.704	135
814.883	261.97
815.062	143.19
815.24	182.1
815.419	51.03
815.598	216.91
815.776	137.04
815.955	135
816.133	159.57
816.312	137.04
816.49	151.38
816.669	186.19
816.847	44.88
817.026	143.19
817.204	59.22
817.383	110.42
817.561	110.42
817.74	208.72
817.918	94.04
818.097	139.09
818.275	128.85
818.453	139.09
818.632	126.8
818.81	46.93
818.988	94.04
819.167	149.33
819.345	145.24
819.523	141.14
819.701	167.76
819.879	151.38
820.058	145.24
820.236	137.04
820.414	87.89
820.592	128.85
820.77	96.08
820.948	120.66
821.127	128.85
821.305	143.19
821.483	85.84
821.661	130.9
821.839	118.61
822.017	102.23
822.195	116.56
822.373	69.46
822.551	163.67
822.729	143.19
822.907	98.13
823.085	110.42
823.262	126.8
823.44	102.23
823.618	137.04
823.796	194.39
823.974	63.32
824.152	98.13
824.329	85.84
824.507	89.94
824.685	118.61
824.863	44.88
825.04	118.61
825.218	122.71
825.396	85.84
825.574	96.08
825.751	75.6
825.929	159.57
826.107	75.6
826.284	20.31
826.462	79.7
826.639	83.8
826.817	96.08
826.994	-0.17
827.172	65.36
827.349	77.65
827.527	122.71
827.704	135
827.882	98.13
828.059	102.23
828.237	61.27
828.414	153.43
828.591	61.27
828.769	30.55
828.946	98.13
829.124	94.04
829.301	145.24
829.478	63.32
829.655	126.8
829.833	98.13
830.01	73.56
830.187	69.46
830.364	69.46
830.542	14.17
830.719	42.84
830.896	118.61
831.073	161.62
831.25	87.89
831.427	30.55
831.604	40.79
831.782	124.76
831.959	145.24
832.136	73.56
832.313	75.6
832.49	89.94
832.667	116.56
832.844	20.31
833.021	96.08
833.198	63.32
833.374	98.13
833.551	44.88
833.728	182.1
833.905	73.56
834.082	53.08
834.259	110.42
834.436	81.75
834.612	55.12
834.789	85.84
834.966	67.41
835.143	135
835.319	-53.42
835.496	81.75
835.673	61.27
835.85	55.12
836.026	63.32
836.203	106.32
836.38	48.98
836.556	55.12
836.733	22.36
836.909	53.08
837.086	83.8
837.262	46.93
837.439	61.27
837.616	-0.17
837.792	118.61
837.968	51.03
838.145	61.27
838.321	16.21
838.498	96.08
838.674	112.47
838.851	53.08
839.027	77.65
839.203	48.98
839.38	63.32
839.556	-8.36
839.732	94.04
839.909	-0.17
840.085	145.24
840.261	24.4
840.437	116.56
840.614	108.37
840.79	69.46
840.966	110.42
841.142	135
841.318	46.93
841.494	12.12
841.671	59.22
841.847	36.69
842.023	-39.08
842.199	184.15
842.375	69.46
842.551	26.45
842.727	10.07
842.903	128.85
843.079	-26.79
843.255	61.27
843.431	-18.6
843.607	46.93
843.783	81.75
843.959	98.13
844.134	-16.55
844.31	96.08
844.486	38.74
844.662	-2.22
844.838	10.07
845.013	63.32
845.189	77.65
845.365	110.42
845.541	30.55
845.716	61.27
845.892	36.69
846.068	94.04
846.244	-12.46
846.419	67.41
846.595	46.93
846.77	40.79
846.946	83.8
847.122	14.17
847.297	143.19
847.473	91.99
847.648	-20.65
847.824	55.12
847.999	28.5
848.175	-16.55
848.35	-20.65
848.526	104.28
848.701	61.27
848.876	28.5
849.052	61.27
849.227	89.94
849.403	38.74
849.578	63.32
849.753	53.08
849.929	24.4
850.104	8.02
850.279	55.12
850.454	8.02
850.63	130.9
850.805	83.8
850.98	30.55
851.155	69.46
851.33	12.12
851.505	79.7
851.681	94.04
851.856	12.12
852.031	38.74
852.206	40.79
852.381	-0.17
852.556	46.93
852.731	22.36
852.906	5.97
853.081	79.7
853.256	61.27
853.431	48.98
853.606	34.64
853.781	36.69
853.956	-57.51
854.131	-26.79
854.305	38.74
854.48	89.94
854.655	61.27
854.83	40.79
855.005	28.5
855.18	28.5
855.354	10.07
855.529	114.52
855.704	65.36
855.879	89.94
856.053	38.74
856.228	46.93
856.403	22.36
856.577	100.18
856.752	22.36
856.926	102.23
857.101	24.4
857.276	3.93
857.45	65.36
857.625	77.65
857.799	28.5
857.974	46.93
858.148	14.17
858.323	57.17
858.497	36.69
858.672	57.17
858.846	63.32
859.02	57.17
859.195	3.93
859.369	20.31
859.543	87.89
859.718	36.69
859.892	55.12
860.066	20.31
860.241	79.7
860.415	53.08
860.589	55.12
860.763	40.79
860.938	-10.41
861.112	38.74
861.286	3.93
861.46	20.31
861.634	20.31
861.808	73.56
861.982	53.08
862.157	12.12
862.331	-0.17
862.505	30.55
862.679	57.17
862.853	-2.22
863.027	-4.27
863.201	143.19
863.375	20.31
863.549	3.93
863.722	-2.22
863.896	87.89
864.07	-28.84
864.244	16.21
864.418	96.08
864.592	53.08
864.766	71.51
864.939	-22.7
865.113	-43.18
865.287	94.04
865.461	14.17
865.634	24.4
865.808	48.98
865.982	14.17
866.156	-10.41
866.329	-18.6
866.503	44.88
866.676	83.8
866.85	94.04
867.024	-10.41
867.197	75.6
867.371	48.98
867.544	-26.79
867.718	14.17
867.891	85.84
868.065	-28.84
868.238	12.12
868.412	102.23
868.585	20.31
868.759	36.69
868.932	40.79
869.105	-10.41
869.279	-39.08
869.452	-4.27
869.625	10.07
869.799	1.88
869.972	-53.42
870.145	34.64
870.319	-8.36
870.492	77.65
870.665	71.51
870.838	-61.61
871.011	12.12
871.185	-41.13
871.358	69.46
871.531	44.88
871.704	8.02
871.877	38.74
872.05	5.97
872.223	16.21
872.396	-6.31
872.569	42.84
872.742	67.41
872.915	16.21
873.088	-2.22
873.261	-12.46
873.434	96.08
873.607	104.28
873.78	18.26
873.953	20.31
874.126	-20.65
874.299	-0.17
874.471	8.02
874.644	-2.22
874.817	65.36
874.99	94.04
875.163	-28.84
875.335	30.55
875.508	-10.41
875.681	126.8
875.853	-0.17
876.026	16.21
876.199	24.4
876.371	-0.17
876.544	3.93
876.717	77.65
876.889	55.12
877.062	36.69
877.234	12.12
877.407	40.79
877.579	42.84
877.752	36.69
877.924	-4.27
878.097	8.02
878.269	-53.42
878.442	5.97
878.614	-30.89
878.786	-12.46
878.959	44.88
879.131	-2.22
879.303	-102.57
879.476	79.7
879.648	-4.27
879.82	30.55
879.993	1.88
880.165	16.21
880.337	-30.89
880.509	10.07
880.681	-20.65
880.854	-12.46
881.026	12.12
881.198	71.51
881.37	85.84
881.542	36.69
881.714	-37.03
881.886	44.88
882.058	57.17
882.23	-53.42
882.402	36.69
882.574	108.37
882.746	53.08
882.918	44.88
883.09	85.84
883.262	69.46
883.434	-2.22
883.606	75.6
883.778	-18.6
883.95	40.79
884.122	-2.22
884.293	-32.94
884.465	-20.65
884.637	71.51
884.809	98.13
884.98	20.31
885.152	40.79
885.324	94.04
885.496	-45.23
885.667	28.5
885.839	-22.7
886.011	55.12
886.182	16.21
886.354	38.74
886.525	-6.31
886.697	18.26
886.869	28.5
887.04	8.02
887.212	75.6
887.383	61.27
887.555	-10.41
887.726	65.36
887.897	-18.6
888.069	89.94
888.24	104.28
888.412	42.84
888.583	14.17
888.754	69.46
888.926	-4.27
889.097	-37.03
889.268	-61.61
889.44	-45.23
889.611	-47.27
889.782	-28.84
889.953	-2.22
890.125	53.08
890.296	14.17
890.467	8.02
890.638	40.79
890.809	44.88
890.98	14.17
891.151	-41.13
891.323	14.17
891.494	38.74
891.665	57.17
891.836	12.12
892.007	40.79
892.178	-59.56
892.349	-12.46
892.52	53.08
892.691	28.5
892.862	-12.46
893.032	-6.31
893.203	59.22
893.374	81.75
893.545	1.88
893.716	46.93
893.887	40.79
894.057	-20.65
894.228	-18.6
894.399	69.46
894.57	44.88
894.74	-51.37
894.911	48.98
895.082	-8.36
895.253	3.93
895.423	48.98
895.594	-24.75
895.764	16.21
895.935	-8.36
896.106	14.17
896.276	8.02
896.447	36.69
896.617	16.21
896.788	-2.22
896.958	3.93
897.129	85.84
897.299	1.88
897.47	5.97
897.64	-6.31
897.81	38.74
897.981	-12.46
898.151	-57.51
898.322	55.12
898.492	-34.99
898.662	5.97
898.832	-28.84
899.003	20.31
899.173	12.12
899.343	65.36
899.513	5.97
