Data from USB4F104151__287__14-23-33-521.txt Node

Date: Thu Mar 13 14:23:33 EDT 2025
User: louis
Spectrometer: USB4F10415
Trigger mode: 4
Integration Time (sec): 2.000000E-2
Scans to average: 1
Electric dark correction enabled: true
Nonlinearity correction enabled: false
Boxcar width: 0
XAxis mode: Wavelengths
Number of Pixels in Spectrum: 3648
>>>>>Begin Spectral Data<<<<<
178.204	-42.67
178.424	-42.67
178.644	-42.67
178.864	-69.29
179.084	-126.63
179.304	-22.19
179.524	-3.75
179.744	24.92
179.964	61.78
180.184	-36.52
180.404	55.64
180.624	-20.14
180.844	49.49
181.064	-50.86
181.283	18.77
181.503	-77.48
181.723	0.34
181.943	-48.81
182.163	78.16
182.383	41.3
182.602	96.6
182.822	90.45
183.042	53.59
183.262	31.06
183.482	4.44
183.701	4.44
183.921	6.49
184.141	45.4
184.361	20.82
184.58	-16.04
184.8	35.16
185.02	47.44
185.239	88.4
185.459	53.59
185.679	-7.85
185.898	31.06
186.118	51.54
186.338	20.82
186.557	63.83
186.777	-3.75
186.997	43.35
187.216	33.11
187.436	24.92
187.655	82.26
187.875	-11.95
188.095	57.68
188.314	-3.75
188.534	20.82
188.753	-7.85
188.973	41.3
189.192	92.5
189.412	6.49
189.631	57.68
189.851	2.39
190.07	55.64
190.29	24.92
190.509	-18.09
190.729	61.78
190.948	35.16
191.168	102.74
191.387	102.74
191.607	72.02
191.826	43.35
192.045	59.73
192.265	57.68
192.484	-1.71
192.704	49.49
192.923	29.01
193.142	102.74
193.362	10.58
193.581	94.55
193.8	-3.75
194.02	45.4
194.239	2.39
194.458	37.2
194.678	61.78
194.897	14.68
195.116	4.44
195.335	63.83
195.555	-3.75
195.774	29.01
195.993	37.2
196.212	22.87
196.432	-3.75
196.651	-11.95
196.87	45.4
197.089	112.98
197.308	112.98
197.528	35.16
197.747	-50.86
197.966	-7.85
198.185	94.55
198.404	-9.9
198.623	8.53
198.842	98.64
199.062	119.12
199.281	139.6
199.5	47.44
199.719	131.41
199.938	63.83
200.157	110.93
200.376	61.78
200.595	86.36
200.814	-5.8
201.033	-7.85
201.252	86.36
201.471	-22.19
201.69	86.36
201.909	-28.33
202.128	69.97
202.347	-3.75
202.566	45.4
202.785	-11.95
203.004	-32.43
203.223	131.41
203.442	98.64
203.661	24.92
203.879	-3.75
204.098	-11.95
204.317	14.68
204.536	63.83
204.755	16.73
204.974	45.4
205.193	4.44
205.411	139.6
205.63	59.73
205.849	-36.52
206.068	-11.95
206.287	57.68
206.505	31.06
206.724	-7.85
206.943	29.01
207.162	18.77
207.381	49.49
207.599	74.07
207.818	39.25
208.037	119.12
208.255	31.06
208.474	45.4
208.693	-87.72
208.911	72.02
209.13	12.63
209.349	47.44
209.567	41.3
209.786	102.74
210.005	61.78
210.223	-18.09
210.442	-18.09
210.661	4.44
210.879	39.25
211.098	57.68
211.316	29.01
211.535	12.63
211.753	24.92
211.972	16.73
212.191	29.01
212.409	31.06
212.628	31.06
212.846	6.49
213.065	33.11
213.283	127.32
213.502	31.06
213.72	22.87
213.938	29.01
214.157	-28.33
214.375	63.83
214.594	-9.9
214.812	39.25
215.031	31.06
215.249	49.49
215.467	37.2
215.686	-16.04
215.904	102.74
216.122	8.53
216.341	127.32
216.559	45.4
216.778	29.01
216.996	33.11
217.214	72.02
217.432	47.44
217.651	-3.75
217.869	86.36
218.087	31.06
218.306	14.68
218.524	55.64
218.742	24.92
218.96	98.64
219.179	45.4
219.397	12.63
219.615	45.4
219.833	20.82
220.051	29.01
220.27	72.02
220.488	115.03
220.706	53.59
220.924	4.44
221.142	26.96
221.36	12.63
221.578	22.87
221.796	78.16
222.015	47.44
222.233	100.69
222.451	37.2
222.669	10.58
222.887	74.07
223.105	24.92
223.323	14.68
223.541	4.44
223.759	57.68
223.977	14.68
224.195	96.6
224.413	92.5
224.631	100.69
224.849	37.2
225.067	72.02
225.285	20.82
225.503	94.55
225.721	16.73
225.939	65.88
226.157	96.6
226.375	61.78
226.592	51.54
226.81	-9.9
227.028	80.21
227.246	127.32
227.464	31.06
227.682	112.98
227.9	67.92
228.117	104.79
228.335	-3.75
228.553	31.06
228.771	41.3
228.989	-1.71
229.206	-7.85
229.424	29.01
229.642	4.44
229.86	4.44
230.077	78.16
230.295	22.87
230.513	102.74
230.731	119.12
230.948	69.97
231.166	57.68
231.384	78.16
231.601	33.11
231.819	102.74
232.037	-28.33
232.254	-1.71
232.472	33.11
232.689	-20.14
232.907	117.08
233.125	-11.95
233.342	-28.33
233.56	80.21
233.777	86.36
233.995	-26.28
234.213	69.97
234.43	57.68
234.648	8.53
234.865	82.26
235.083	94.55
235.3	67.92
235.518	-34.47
235.735	135.51
235.953	129.36
236.17	2.39
236.388	119.12
236.605	45.4
236.822	63.83
237.04	43.35
237.257	53.59
237.475	37.2
237.692	53.59
237.909	16.73
238.127	22.87
238.344	74.07
238.562	41.3
238.779	49.49
238.996	6.49
239.214	-67.24
239.431	4.44
239.648	69.97
239.865	61.78
240.083	61.78
240.3	84.31
240.517	8.53
240.735	-40.62
240.952	61.78
241.169	51.54
241.386	69.97
241.603	41.3
241.821	119.12
242.038	90.45
242.255	33.11
242.472	39.25
242.689	69.97
242.907	74.07
243.124	53.59
243.341	110.93
243.558	37.2
243.775	45.4
243.992	-65.19
244.209	45.4
244.426	72.02
244.643	106.84
244.86	72.02
245.078	10.58
245.295	55.64
245.512	31.06
245.729	-20.14
245.946	20.82
246.163	94.55
246.38	115.03
246.597	-65.19
246.814	-24.23
247.031	69.97
247.248	100.69
247.464	-24.23
247.681	57.68
247.898	84.31
248.115	57.68
248.332	-42.67
248.549	61.78
248.766	63.83
248.983	96.6
249.2	74.07
249.417	53.59
249.633	59.73
249.85	61.78
250.067	80.21
250.284	4.44
250.501	67.92
250.717	37.2
250.934	29.01
251.151	24.92
251.368	31.06
251.585	39.25
251.801	43.35
252.018	-1.71
252.235	78.16
252.451	16.73
252.668	18.77
252.885	47.44
253.102	33.11
253.318	78.16
253.535	-16.04
253.752	63.83
253.968	-11.95
254.185	8.53
254.401	43.35
254.618	31.06
254.835	-18.09
255.051	69.97
255.268	12.63
255.484	29.01
255.701	53.59
255.917	137.56
256.134	41.3
256.351	2.39
256.567	55.64
256.784	47.44
257	-36.52
257.217	39.25
257.433	18.77
257.65	45.4
257.866	76.12
258.082	76.12
258.299	104.79
258.515	47.44
258.732	8.53
258.948	12.63
259.165	90.45
259.381	12.63
259.597	61.78
259.814	39.25
260.03	24.92
260.246	37.2
260.463	18.77
260.679	57.68
260.895	22.87
261.112	86.36
261.328	8.53
261.544	31.06
261.761	151.89
261.977	33.11
262.193	65.88
262.409	49.49
262.626	61.78
262.842	35.16
263.058	33.11
263.274	20.82
263.49	-50.86
263.707	121.17
263.923	55.64
264.139	8.53
264.355	45.4
264.571	86.36
264.787	37.2
265.004	80.21
265.22	37.2
265.436	92.5
265.652	43.35
265.868	74.07
266.084	37.2
266.3	72.02
266.516	20.82
266.732	61.78
266.948	69.97
267.164	47.44
267.38	-11.95
267.596	45.4
267.812	78.16
268.028	45.4
268.244	24.92
268.46	106.84
268.676	72.02
268.892	69.97
269.108	-3.75
269.324	-20.14
269.54	20.82
269.756	61.78
269.972	-34.47
270.188	47.44
270.403	2.39
270.619	20.82
270.835	90.45
271.051	-9.9
271.267	37.2
271.483	31.06
271.698	33.11
271.914	41.3
272.13	29.01
272.346	55.64
272.562	37.2
272.777	37.2
272.993	-16.04
273.209	37.2
273.425	47.44
273.64	29.01
273.856	-5.8
274.072	53.59
274.287	-18.09
274.503	102.74
274.719	69.97
274.934	24.92
275.15	-16.04
275.366	57.68
275.581	29.01
275.797	49.49
276.012	37.2
276.228	-11.95
276.444	37.2
276.659	90.45
276.875	10.58
277.09	88.4
277.306	-28.33
277.521	22.87
277.737	61.78
277.952	72.02
278.168	33.11
278.383	-28.33
278.599	51.54
278.814	41.3
279.03	53.59
279.245	74.07
279.461	8.53
279.676	69.97
279.892	16.73
280.107	-18.09
280.322	-5.8
280.538	-1.71
280.753	41.3
280.969	47.44
281.184	61.78
281.399	119.12
281.615	39.25
281.83	45.4
282.045	49.49
282.26	55.64
282.476	-7.85
282.691	14.68
282.906	86.36
283.122	16.73
283.337	4.44
283.552	104.79
283.767	29.01
283.983	69.97
284.198	29.01
284.413	78.16
284.628	29.01
284.843	94.55
285.058	117.08
285.274	49.49
285.489	-3.75
285.704	55.64
285.919	12.63
286.134	119.12
286.349	22.87
286.564	-11.95
286.779	88.4
286.995	59.73
287.21	-3.75
287.425	94.55
287.64	20.82
287.855	76.12
288.07	14.68
288.285	98.64
288.5	41.3
288.715	8.53
288.93	69.97
289.145	33.11
289.36	135.51
289.575	-42.67
289.79	18.77
290.004	43.35
290.219	45.4
290.434	96.6
290.649	57.68
290.864	53.59
291.079	39.25
291.294	35.16
291.509	-28.33
291.724	47.44
291.938	-44.71
292.153	78.16
292.368	20.82
292.583	74.07
292.798	39.25
293.012	86.36
293.227	43.35
293.442	90.45
293.657	86.36
293.871	37.2
294.086	-24.23
294.301	96.6
294.516	98.64
294.73	78.16
294.945	33.11
295.16	-1.71
295.374	63.83
295.589	49.49
295.804	69.97
296.018	22.87
296.233	65.88
296.447	82.26
296.662	63.83
296.877	135.51
297.091	16.73
297.306	51.54
297.52	55.64
297.735	24.92
297.949	49.49
298.164	82.26
298.378	115.03
298.593	57.68
298.807	-1.71
299.022	90.45
299.236	29.01
299.451	-16.04
299.665	51.54
299.88	22.87
300.094	72.02
300.309	49.49
300.523	43.35
300.737	-28.33
300.952	61.78
301.166	96.6
301.381	127.32
301.595	37.2
301.809	-11.95
302.024	86.36
302.238	61.78
302.452	110.93
302.667	100.69
302.881	88.4
303.095	69.97
303.309	69.97
303.524	41.3
303.738	65.88
303.952	24.92
304.166	82.26
304.381	41.3
304.595	41.3
304.809	39.25
305.023	61.78
305.237	76.12
305.452	49.49
305.666	110.93
305.88	86.36
306.094	106.84
306.308	12.63
306.522	61.78
306.736	41.3
306.95	-24.23
307.164	53.59
307.379	-7.85
307.593	117.08
307.807	90.45
308.021	98.64
308.235	29.01
308.449	29.01
308.663	86.36
308.877	94.55
309.091	74.07
309.305	47.44
309.519	39.25
309.733	53.59
309.947	39.25
310.161	20.82
310.374	41.3
310.588	-42.67
310.802	86.36
311.016	29.01
311.23	78.16
311.444	33.11
311.658	86.36
311.872	10.58
312.085	47.44
312.299	55.64
312.513	84.31
312.727	12.63
312.941	35.16
313.154	45.4
313.368	96.6
313.582	86.36
313.796	49.49
314.009	20.82
314.223	29.01
314.437	39.25
314.651	88.4
314.864	53.59
315.078	49.49
315.292	31.06
315.505	33.11
315.719	24.92
315.933	43.35
316.146	22.87
316.36	49.49
316.573	90.45
316.787	129.36
317.001	0.34
317.214	12.63
317.428	69.97
317.641	-3.75
317.855	41.3
318.068	35.16
318.282	104.79
318.495	90.45
318.709	43.35
318.922	57.68
319.136	94.55
319.349	119.12
319.563	135.51
319.776	45.4
319.99	0.34
320.203	63.83
320.417	88.4
320.63	37.2
320.843	108.88
321.057	51.54
321.27	53.59
321.483	6.49
321.697	55.64
321.91	45.4
322.124	90.45
322.337	14.68
322.55	14.68
322.763	43.35
322.977	74.07
323.19	26.96
323.403	69.97
323.617	33.11
323.83	16.73
324.043	102.74
324.256	57.68
324.469	45.4
324.683	31.06
324.896	53.59
325.109	96.6
325.322	26.96
325.535	53.59
325.748	86.36
325.962	14.68
326.175	-16.04
326.388	65.88
326.601	41.3
326.814	72.02
327.027	74.07
327.24	155.99
327.453	53.59
327.666	72.02
327.879	24.92
328.092	63.83
328.305	4.44
328.518	22.87
328.731	37.2
328.944	84.31
329.157	69.97
329.37	29.01
329.583	78.16
329.796	110.93
330.009	-16.04
330.222	53.59
330.435	31.06
330.648	53.59
330.861	33.11
331.073	55.64
331.286	137.56
331.499	78.16
331.712	-3.75
331.925	39.25
332.138	69.97
332.35	102.74
332.563	-16.04
332.776	96.6
332.989	47.44
333.202	45.4
333.414	31.06
333.627	0.34
333.84	-22.19
334.053	65.88
334.265	108.88
334.478	8.53
334.691	31.06
334.903	-3.75
335.116	-22.19
335.329	129.36
335.541	14.68
335.754	-5.8
335.966	53.59
336.179	82.26
336.392	47.44
336.604	72.02
336.817	65.88
337.029	20.82
337.242	20.82
337.454	45.4
337.667	69.97
337.88	35.16
338.092	96.6
338.305	80.21
338.517	20.82
338.729	53.59
338.942	53.59
339.154	16.73
339.367	69.97
339.579	63.83
339.792	14.68
340.004	-18.09
340.217	45.4
340.429	45.4
340.641	74.07
340.854	86.36
341.066	69.97
341.278	55.64
341.491	53.59
341.703	82.26
341.915	84.31
342.128	12.63
342.34	57.68
342.552	45.4
342.764	57.68
342.977	57.68
343.189	20.82
343.401	82.26
343.613	49.49
343.826	76.12
344.038	20.82
344.25	53.59
344.462	29.01
344.674	119.12
344.886	29.01
345.099	98.64
345.311	63.83
345.523	-32.43
345.735	6.49
345.947	72.02
346.159	78.16
346.371	55.64
346.583	84.31
346.795	65.88
347.007	14.68
347.219	59.73
347.431	45.4
347.643	18.77
347.855	61.78
348.067	119.12
348.279	94.55
348.491	86.36
348.703	45.4
348.915	61.78
349.127	115.03
349.339	47.44
349.551	6.49
349.763	98.64
349.975	102.74
350.187	61.78
350.399	90.45
350.61	104.79
350.822	-18.09
351.034	41.3
351.246	-13.99
351.458	59.73
351.669	80.21
351.881	53.59
352.093	12.63
352.305	78.16
352.517	41.3
352.728	63.83
352.94	98.64
353.152	72.02
353.363	45.4
353.575	133.46
353.787	61.78
353.999	53.59
354.21	53.59
354.422	37.2
354.633	29.01
354.845	78.16
355.057	57.68
355.268	24.92
355.48	88.4
355.692	33.11
355.903	14.68
356.115	55.64
356.326	-18.09
356.538	90.45
356.749	80.21
356.961	61.78
357.172	4.44
357.384	22.87
357.595	119.12
357.807	4.44
358.018	45.4
358.23	55.64
358.441	53.59
358.653	92.5
358.864	16.73
359.075	20.82
359.287	24.92
359.498	82.26
359.709	31.06
359.921	45.4
360.132	72.02
360.344	129.36
360.555	6.49
360.766	69.97
360.977	82.26
361.189	80.21
361.4	69.97
361.611	96.6
361.823	110.93
362.034	55.64
362.245	72.02
362.456	-3.75
362.667	94.55
362.879	80.21
363.09	86.36
363.301	12.63
363.512	106.84
363.723	10.58
363.935	-20.14
364.146	74.07
364.357	-11.95
364.568	47.44
364.779	18.77
364.99	96.6
365.201	69.97
365.412	57.68
365.623	37.2
365.834	20.82
366.045	80.21
366.256	65.88
366.467	4.44
366.678	86.36
366.889	98.64
367.1	110.93
367.311	69.97
367.522	31.06
367.733	110.93
367.944	100.69
368.155	14.68
368.366	29.01
368.577	41.3
368.788	55.64
368.999	33.11
369.209	0.34
369.42	108.88
369.631	127.32
369.842	65.88
370.053	110.93
370.264	20.82
370.474	80.21
370.685	61.78
370.896	123.22
371.107	90.45
371.317	80.21
371.528	123.22
371.739	8.53
371.95	135.51
372.16	102.74
372.371	29.01
372.582	47.44
372.792	24.92
373.003	96.6
373.214	37.2
373.424	43.35
373.635	78.16
373.846	84.31
374.056	20.82
374.267	153.94
374.477	59.73
374.688	47.44
374.898	24.92
375.109	39.25
375.319	88.4
375.53	57.68
375.74	65.88
375.951	45.4
376.161	106.84
376.372	119.12
376.582	90.45
376.793	12.63
377.003	-1.71
377.214	45.4
377.424	104.79
377.635	143.7
377.845	16.73
378.055	53.59
378.266	-11.95
378.476	168.27
378.686	63.83
378.897	39.25
379.107	104.79
379.317	4.44
379.528	41.3
379.738	69.97
379.948	61.78
380.158	22.87
380.369	127.32
380.579	67.92
380.789	106.84
380.999	104.79
381.21	53.59
381.42	104.79
381.63	39.25
381.84	61.78
382.05	94.55
382.261	102.74
382.471	22.87
382.681	-3.75
382.891	110.93
383.101	49.49
383.311	51.54
383.521	-42.67
383.731	106.84
383.941	117.08
384.151	72.02
384.361	41.3
384.571	92.5
384.781	-20.14
384.991	115.03
385.201	72.02
385.411	135.51
385.621	35.16
385.831	69.97
386.041	61.78
386.251	67.92
386.461	69.97
386.671	61.78
386.881	72.02
387.091	61.78
387.301	153.94
387.511	20.82
387.72	92.5
387.93	100.69
388.14	33.11
388.35	65.88
388.56	106.84
388.769	108.88
388.979	51.54
389.189	-11.95
389.399	49.49
389.609	119.12
389.818	88.4
390.028	131.41
390.238	59.73
390.447	63.83
390.657	33.11
390.867	90.45
391.076	78.16
391.286	166.23
391.496	72.02
391.705	22.87
391.915	143.7
392.125	143.7
392.334	94.55
392.544	63.83
392.753	53.59
392.963	24.92
393.172	108.88
393.382	53.59
393.591	141.65
393.801	35.16
394.01	78.16
394.22	57.68
394.429	74.07
394.639	4.44
394.848	86.36
395.058	94.55
395.267	98.64
395.477	121.17
395.686	45.4
395.895	131.41
396.105	102.74
396.314	96.6
396.524	82.26
396.733	90.45
396.942	127.32
397.152	127.32
397.361	211.28
397.57	127.32
397.78	115.03
397.989	65.88
398.198	78.16
398.407	61.78
398.617	129.36
398.826	192.85
399.035	119.12
399.244	117.08
399.453	104.79
399.663	145.75
399.872	170.32
400.081	29.01
400.29	137.56
400.499	168.27
400.708	151.89
400.917	174.42
401.127	102.74
401.336	139.6
401.545	127.32
401.754	127.32
401.963	133.46
402.172	155.99
402.381	106.84
402.59	98.64
402.799	180.56
403.008	112.98
403.217	129.36
403.426	143.7
403.635	135.51
403.844	110.93
404.053	162.13
404.262	112.98
404.471	184.66
404.68	102.74
404.888	153.94
405.097	168.27
405.306	151.89
405.515	274.77
405.724	209.23
405.933	160.08
406.142	209.23
406.35	289.1
406.559	221.52
406.768	237.91
406.977	235.86
407.185	258.39
407.394	225.62
407.603	211.28
407.812	246.1
408.02	262.48
408.229	242
408.438	170.32
408.646	260.43
408.855	244.05
409.064	262.48
409.272	336.21
409.481	295.25
409.69	264.53
409.898	319.82
410.107	330.06
410.315	356.69
410.524	293.2
410.733	416.08
410.941	397.65
411.15	428.37
411.358	397.65
411.567	395.6
411.775	450.89
411.984	448.85
412.192	446.8
412.401	424.27
412.609	504.14
412.818	483.66
413.026	536.91
413.234	512.33
413.443	506.19
413.651	543.05
413.86	594.25
414.068	604.49
414.276	651.6
414.485	686.41
414.693	667.98
414.901	708.94
415.11	803.15
415.318	813.38
415.526	727.37
415.734	889.16
415.943	876.87
416.151	934.22
416.359	958.79
416.567	901.45
416.776	893.26
416.984	1020.23
417.192	948.55
417.4	1036.61
417.608	1059.14
417.817	1071.43
418.025	1163.59
418.233	1216.83
418.441	1130.82
418.649	1233.22
418.857	1251.65
419.065	1501.5
419.273	1233.22
419.481	1417.54
419.689	1524.03
419.897	1564.99
420.105	1511.74
420.313	1567.04
420.521	1630.52
420.729	1741.11
420.937	1726.78
421.145	1823.03
421.353	1937.72
421.561	1947.96
421.769	2013.49
421.977	2119.99
422.185	2089.27
422.393	2275.63
422.601	2298.16
422.809	2261.3
423.017	2433.33
423.224	2462
423.432	2541.87
423.64	2597.17
423.848	2863.4
424.056	2691.37
424.263	2924.84
424.471	2851.11
424.679	3053.86
424.887	3268.9
425.094	3207.46
425.302	3264.8
425.51	3303.71
425.718	3518.75
425.925	3578.14
426.133	3576.09
426.341	3840.28
426.548	3985.69
426.756	3903.77
426.964	4086.04
427.171	4321.56
427.379	4286.74
427.586	4411.67
427.794	4630.8
428.001	4751.63
428.209	5083.4
428.417	4788.49
428.624	5452.03
428.832	5439.75
429.039	5290.24
429.247	5210.37
429.454	5839.1
429.662	6070.52
429.869	5722.37
430.076	6228.21
430.284	5779.71
430.491	6250.74
430.699	6615.28
430.906	6392.05
431.114	6641.9
431.321	6873.32
431.528	6965.48
431.736	7475.43
431.943	7936.22
432.15	7573.73
432.358	7534.82
432.565	8124.63
432.772	8190.17
432.979	8698.06
433.187	8542.42
433.394	8673.49
433.601	9185.48
433.808	9263.3
434.016	9285.83
434.223	9564.36
434.43	10252.47
434.637	9943.23
434.844	10621.11
435.052	10997.93
435.259	10907.82
435.466	10778.8
435.673	10801.33
435.88	11397.29
436.087	12056.73
436.294	12021.92
436.501	11841.7
436.708	12101.79
436.915	12456.09
437.122	12908.69
437.329	12923.02
437.537	13357.19
437.743	13508.74
437.95	13473.93
438.157	14278.78
438.364	14585.97
438.571	14686.33
438.778	14655.61
438.985	16083.04
439.192	15536.23
439.399	15849.57
439.606	15368.3
439.813	16167.01
440.02	17236.05
440.227	17260.62
440.433	16775.25
440.64	17354.83
440.847	17385.55
441.054	17848.39
441.261	18825.27
441.467	18749.5
441.674	19165.23
441.881	19882.02
442.088	19886.12
442.294	19626.03
442.501	20187.17
442.708	20584.48
442.914	21317.65
443.121	22177.79
443.328	21635.08
443.534	22904.82
443.741	22407.17
443.948	22087.68
444.154	23885.8
444.361	23672.81
444.568	23926.76
444.774	23504.88
444.981	24170.47
445.187	24676.32
445.394	25563.09
445.6	25454.54
445.807	27586.48
446.013	26595.26
446.22	27215.8
446.426	28018.6
446.633	28360.61
446.839	29167.51
447.046	28202.92
447.252	29693.84
447.459	29794.19
447.665	29816.72
447.871	31350.65
448.078	32259.95
448.284	30601.09
448.491	31711.09
448.697	32884.58
448.903	33449.81
449.11	33290.07
449.316	32900.96
449.522	33703.76
449.728	34479.94
449.935	34656.07
450.141	34608.97
450.347	35123.01
450.553	33994.57
450.76	34811.71
450.966	35989.3
451.172	35473.21
451.378	36693.8
451.584	35536.7
451.791	36622.12
451.997	36671.27
452.203	37058.34
452.409	37150.49
452.615	37076.77
452.821	35493.69
453.027	35295.03
453.233	37068.58
453.44	35755.83
453.646	35934
453.852	36388.65
454.058	36865.83
454.264	35956.53
454.47	36505.38
454.676	35671.86
454.882	37105.44
455.088	33849.17
455.294	34221.9
455.5	34795.33
455.705	35184.44
455.911	33785.68
456.117	33150.81
456.323	32841.57
456.529	31305.59
456.735	32425.83
456.941	31723.38
457.147	31305.59
457.352	30367.62
457.558	30005.13
457.764	30142.35
457.97	29704.08
458.176	28737.44
458.381	29224.86
458.587	27508.66
458.793	27850.67
458.999	26193.86
459.204	27893.68
459.41	27494.32
459.616	25468.88
459.821	25208.79
460.027	25176.02
460.233	24840.15
460.438	23836.65
460.644	24217.57
460.85	22855.67
461.055	22159.36
461.261	22372.35
461.466	20832.28
461.672	20109.35
461.878	21612.56
462.083	20279.33
462.289	19877.93
462.494	19607.59
462.7	18755.64
462.905	18288.7
463.111	19128.37
463.316	18858.04
463.522	18505.79
463.727	18620.47
463.932	18624.57
464.138	18344
464.343	18364.48
464.549	17924.16
464.754	18323.52
464.959	18501.69
465.165	18090.05
465.37	17332.3
465.575	17100.88
465.781	17774.66
465.986	17748.04
466.191	17174.61
466.397	16695.38
466.602	15872.1
466.807	16488.54
467.012	16597.08
467.218	16322.65
467.423	16113.76
467.628	16629.85
467.833	16848.98
468.038	16457.82
468.244	15814.76
468.449	16308.32
468.654	16027.74
468.859	16025.7
469.064	15730.79
469.269	15165.55
469.474	15306.86
469.679	15669.35
469.885	15093.87
470.09	15274.09
470.295	15243.37
470.5	15020.14
470.705	14872.69
470.91	14835.83
471.115	14465.14
471.32	14684.28
471.525	14811.25
471.73	14325.88
471.935	14354.55
472.139	13791.36
472.344	14057.6
472.549	13904
472.754	13639.81
472.959	13371.53
473.164	12963.98
473.369	12871.82
473.574	13498.5
473.778	13203.6
473.983	13336.71
474.188	13121.68
474.393	12466.33
474.598	12570.77
474.802	12613.78
475.007	12497.05
475.212	12568.73
475.417	11808.93
475.621	12241.05
475.826	12046.49
476.031	11821.22
476.235	11845.79
476.44	11821.22
476.645	11554.98
476.849	11722.91
477.054	11223.21
477.259	11188.39
477.463	11088.04
477.668	11167.91
477.872	11002.03
478.077	10680.5
478.282	10793.14
478.486	10604.72
478.691	10668.21
478.895	10600.63
479.1	10371.26
479.304	10574
479.509	10172.6
479.713	10332.34
479.918	10064.06
480.122	9994.43
480.326	10145.98
480.531	10072.25
480.735	9808.06
480.94	9793.73
481.144	10252.47
481.348	9623.75
481.553	9812.16
481.757	9748.67
481.961	9777.34
482.166	9820.35
482.37	9863.36
482.574	9720
482.778	9476.29
482.983	9951.42
483.187	9636.03
483.391	9871.55
483.595	9679.04
483.8	9689.28
484.004	9601.22
484.208	9973.95
484.412	9679.04
484.616	9658.56
484.821	9621.7
485.025	9398.47
485.229	9543.88
485.433	9760.96
485.637	9578.69
485.841	9740.48
486.045	9621.7
486.249	9466.05
486.453	9523.4
486.657	9638.08
486.861	9728.19
487.065	9498.82
487.269	9617.6
487.473	9615.55
487.677	9806.02
487.881	9769.15
488.085	9621.7
488.289	9498.82
488.493	9646.27
488.697	9703.62
488.901	9550.02
489.105	9742.53
489.309	9867.45
489.512	9863.36
489.716	9771.2
489.92	9498.82
490.124	9865.41
490.328	10205.37
490.531	9900.22
490.735	10027.2
490.939	9926.85
491.143	9760.96
491.346	9797.82
491.55	9924.8
491.754	10033.34
491.958	10256.57
492.161	10125.5
492.365	10115.26
492.569	10088.64
492.772	10193.08
492.976	10174.65
493.18	10154.17
493.383	10221.75
493.587	10559.67
493.79	10340.54
493.994	10584.24
494.197	10361.02
494.401	10754.23
494.605	10703.03
494.808	10784.94
495.012	10997.93
495.215	10928.3
495.419	11133.1
495.622	11030.7
495.825	11354.28
496.029	11137.2
496.232	11534.5
496.436	11370.66
496.639	11788.45
496.843	11712.67
497.046	11890.85
497.249	11862.18
497.453	12157.08
497.656	11866.27
497.859	12095.64
498.063	12267.67
498.266	12576.92
498.469	12351.64
498.673	12581.01
498.876	12904.59
499.079	12963.98
499.282	12929.17
499.485	13047.95
499.689	13127.82
499.892	13201.55
500.095	13459.59
500.298	13904
500.501	13637.77
500.705	14043.26
500.908	14192.76
501.111	14450.81
501.314	14323.83
501.517	14547.06
501.72	14696.57
501.923	14622.84
502.126	15102.06
502.329	15159.41
502.532	15065.2
502.735	15558.76
502.938	15628.39
503.141	15642.73
503.344	15863.91
503.547	16005.22
503.75	16283.74
503.953	16552.02
504.156	16793.69
504.359	16648.28
504.562	17045.59
504.765	17277.01
504.968	17446.99
505.17	17518.67
505.373	17451.08
505.576	17999.94
505.779	18206.78
505.982	18210.88
506.185	18622.52
506.387	18704.44
506.59	18579.51
506.793	19068.98
506.996	18933.81
507.198	19560.49
507.401	19312.69
507.604	19843.11
507.807	20322.34
508.009	20316.19
508.212	20332.58
508.415	20838.42
508.617	20703.26
508.82	21153.81
509.022	21168.15
509.225	21553.16
509.428	21592.08
509.63	21651.47
509.833	21919.75
510.035	22562.81
510.238	22421.5
510.44	22622.2
510.643	23209.97
510.845	23121.91
511.048	23095.28
511.25	23617.52
511.453	23400.43
511.655	24420.32
511.858	24035.3
512.06	24760.28
512.262	24555.49
512.465	24451.04
512.667	25264.08
512.87	25458.64
513.072	25309.14
513.274	26042.31
513.477	26257.35
513.679	26154.95
513.881	26873.79
514.084	26677.18
514.286	26673.09
514.488	26980.28
514.69	27594.67
514.893	27926.44
515.095	27604.91
515.297	28196.78
515.499	28426.15
515.701	28780.45
515.904	28860.32
516.106	28919.71
516.308	29636.5
516.51	29915.02
516.712	29656.98
516.914	29931.4
517.116	30347.14
517.318	30633.86
517.52	30969.72
517.722	30758.78
517.925	31600.5
518.127	31842.16
518.329	32061.29
518.531	31995.76
518.733	32608.1
518.935	32517.99
519.136	33159
519.338	33357.66
519.54	32939.87
519.742	33953.62
519.944	33752.91
520.146	34293.58
520.348	34226
520.55	34527.05
520.752	34598.73
520.954	35458.87
521.155	35026.75
521.357	35706.68
521.559	36065.07
521.761	36243.24
521.963	36343.59
522.164	36603.69
522.366	36697.89
522.568	37009.18
522.77	37021.47
522.971	37719.83
523.173	37310.24
523.375	37883.67
523.576	37971.73
523.778	38323.98
523.98	38534.92
524.181	38670.09
524.383	38500.11
524.584	39347.96
524.786	39227.13
524.988	38795.01
525.189	39554.81
525.391	39812.85
525.592	39945.97
525.794	39933.68
525.995	40322.8
526.197	39855.86
526.398	40486.64
526.6	40568.55
526.801	40689.38
527.003	40795.88
527.204	40830.69
527.406	41209.57
527.607	41176.8
527.808	41420.51
528.01	40838.89
528.211	41064.16
528.412	41973.46
528.614	41600.73
528.815	41676.51
529.016	42499.79
529.218	41879.25
529.419	42108.63
529.62	41985.75
529.822	42481.36
530.023	42294.99
530.224	41985.75
530.425	42436.3
530.626	41932.5
530.828	42223.31
531.029	43130.56
531.23	42198.74
531.431	42219.22
531.632	42786.5
531.833	43040.45
532.035	42518.22
532.236	42569.42
532.437	42876.62
532.638	42401.49
532.839	42940.1
533.04	42888.9
533.241	42686.15
533.442	43312.83
533.643	42745.55
533.844	42647.24
534.045	42901.19
534.246	42544.84
534.447	43167.43
534.648	42481.36
534.849	42680.01
535.05	42702.54
535.251	42964.68
535.451	42557.13
535.652	43019.97
535.853	42856.14
536.054	42581.71
536.255	42741.45
536.456	41901.78
536.657	43359.94
536.857	42763.98
537.058	42460.88
537.259	43210.43
537.46	43071.17
537.66	42622.67
537.861	42737.35
538.062	42956.49
538.263	42890.95
538.463	42653.39
538.664	42782.41
538.865	42755.78
539.065	42663.63
539.266	42262.22
539.466	43185.86
539.667	42309.33
539.868	42981.06
540.068	42624.71
540.269	42323.66
540.469	43040.45
540.67	42411.73
540.87	42718.92
541.071	42294.99
541.271	43038.4
541.472	42774.22
541.672	42364.62
541.873	42311.38
542.073	42000.08
542.274	42843.85
542.474	42497.74
542.675	41764.57
542.875	42737.35
543.075	42538.7
543.276	41862.87
543.476	42948.29
543.676	42415.82
543.877	42622.67
544.077	42417.87
544.277	42254.03
544.478	42360.53
544.678	42501.84
544.878	42376.91
545.078	42530.51
545.279	41807.58
545.479	42116.82
545.679	42456.78
545.879	42305.23
546.079	42430.16
546.28	42458.83
546.48	42051.28
546.68	42172.11
546.88	42079.96
547.08	42104.53
547.28	41918.17
547.48	41635.55
547.68	42510.03
547.88	41815.77
548.081	42004.18
548.281	42239.7
548.481	42030.8
548.681	42198.74
548.881	42057.43
549.081	42059.48
549.28	42112.72
549.48	41891.54
549.68	41922.26
549.88	42237.65
550.08	41864.92
550.28	42069.72
550.48	42094.29
550.68	42454.73
550.88	41864.92
551.08	42184.4
551.279	42208.98
551.479	41574.11
551.679	41944.79
551.879	41975.51
552.079	42237.65
552.278	42028.76
552.478	42217.17
552.678	42147.54
552.878	42041.04
553.077	41563.87
553.277	41490.14
553.477	42161.87
553.676	41494.24
553.876	41561.82
554.076	41809.62
554.275	41539.29
554.475	41477.85
554.674	41510.62
554.874	42159.83
555.074	41387.74
555.273	41819.86
555.473	41924.31
555.672	41043.68
555.872	41404.13
556.071	41621.21
556.271	41668.31
556.47	41418.46
556.67	41260.77
556.869	41221.86
557.068	41668.31
557.268	41322.21
557.467	41522.91
557.667	40908.52
557.866	41117.41
558.065	41215.71
558.265	40826.6
558.464	41006.82
558.663	41649.88
558.863	40945.38
559.062	41539.29
559.261	40595.18
559.461	41793.24
559.66	40333.04
559.859	41111.27
560.058	40771.3
560.258	40722.15
560.457	40376.05
560.656	40980.2
560.855	40552.17
561.054	40943.33
561.253	40548.07
561.453	40980.2
561.652	40824.55
561.851	40924.9
562.05	40472.3
562.249	40199.92
562.448	40701.67
562.647	39970.55
562.846	40031.99
563.045	40179.44
563.244	40206.06
563.443	40398.57
563.642	39634.68
563.841	39956.21
564.04	39759.61
564.239	40165.1
564.438	39622.39
564.637	39755.51
564.836	39984.88
565.035	39636.73
565.234	39538.43
565.432	39288.57
565.631	39130.88
565.83	39395.07
566.029	39290.62
566.228	39241.47
566.427	39448.32
566.625	38850.31
566.824	38766.34
567.023	39132.93
567.222	38256.4
567.42	38887.17
567.619	38848.26
567.818	38483.72
568.016	38330.12
568.215	38713.09
568.414	38227.73
568.612	38971.14
568.811	38420.24
569.01	38106.9
569.208	37893.91
569.407	38362.89
569.605	37748.5
569.804	38336.27
570.002	37752.6
570.201	37953.3
570.4	37971.73
570.598	37535.51
570.797	37416.73
570.995	37267.23
571.193	37349.15
571.392	37308.19
571.59	37127.97
571.789	37117.73
571.987	36962.08
572.186	37070.62
572.384	36853.54
572.582	36921.12
572.781	36790.05
572.979	36177.71
573.177	36804.39
573.376	36464.42
573.574	36118.32
573.772	36269.87
573.971	36120.37
574.169	35960.62
574.367	36069.17
574.565	35929.91
574.763	35860.27
574.962	35921.71
575.16	35299.13
575.358	36063.02
575.556	35768.12
575.754	35725.11
575.952	35477.3
576.151	35444.54
576.349	35266.36
576.547	35204.92
576.745	35030.85
576.943	35254.08
577.141	35430.2
577.339	34641.73
577.537	34731.84
577.735	34744.13
577.933	34647.88
578.131	34613.06
578.329	34416.46
578.527	34264.91
578.725	34090.83
578.923	34539.33
579.121	34023.25
579.319	33759.06
579.516	34082.64
579.714	33963.86
579.912	34084.69
580.11	33341.27
580.308	33541.97
580.506	33531.73
580.704	32993.12
580.901	33255.26
581.099	33539.93
581.297	32790.37
581.495	33257.31
581.692	33306.46
581.89	32771.94
582.088	33048.41
582.285	32790.37
582.483	32843.62
582.681	32823.14
582.878	32532.32
583.076	32751.46
583.274	32751.46
583.471	32053.1
583.669	32534.37
583.866	31913.84
584.064	32118.64
584.262	31686.51
584.459	31887.21
584.657	31885.17
584.854	31934.32
585.052	31688.56
585.249	31934.32
585.447	31864.69
585.644	31506.29
585.841	31475.57
586.039	31678.32
586.236	31133.56
586.434	31084.41
586.631	30992.25
586.828	31162.23
587.026	30992.25
587.223	31137.66
587.42	31047.55
587.618	30533.51
587.815	30881.66
588.012	30287.75
588.21	30355.33
588.407	30547.84
588.604	29996.94
588.801	29976.46
588.999	30459.78
589.196	29915.02
589.393	29978.51
589.59	29986.7
589.787	29726.61
589.984	29392.79
590.182	29159.32
590.379	29681.55
590.576	29247.38
590.773	29429.65
590.97	29101.98
591.167	29540.24
591.364	28929.95
591.561	29210.52
591.758	28774.3
591.955	28790.69
592.152	29069.21
592.349	28956.57
592.546	28657.57
592.743	28809.12
592.94	28436.39
593.137	28237.73
593.334	28524.45
593.531	28202.92
593.727	28266.41
593.924	28391.33
594.121	27735.98
594.318	28114.86
594.515	27969.45
594.712	27912.11
594.908	27668.4
595.105	27688.88
595.302	27301.81
595.499	27690.93
595.696	27588.53
595.892	27428.79
596.089	27232.18
596.286	27455.41
596.482	27443.12
596.679	26941.37
596.876	27027.38
597.072	27273.14
597.269	26933.18
597.466	26728.38
597.662	26576.83
597.859	26441.67
598.055	26564.54
598.252	26472.39
598.448	26390.47
598.645	26376.13
598.841	25980.87
599.038	26081.22
599.234	26163.14
599.431	26038.22
599.627	26066.89
599.824	25911.24
600.02	25870.28
600.217	25634.77
600.413	25528.27
600.609	25638.86
600.806	25225.17
601.002	25651.15
601.198	25319.38
601.395	25249.75
601.591	24987.61
601.787	25403.35
601.984	24676.32
602.18	25204.69
602.376	24766.43
602.572	24940.5
602.769	24799.19
602.965	24803.29
603.161	24813.53
603.357	24455.14
603.553	24754.14
603.75	24895.45
603.946	24317.92
604.142	24360.93
604.338	23980.01
604.534	24362.98
604.73	24055.78
604.926	23949.29
605.122	24315.87
605.318	23812.07
605.514	23822.31
605.71	23738.35
605.906	23656.43
606.102	23957.48
606.298	23760.87
606.494	23986.15
606.69	23562.22
606.886	23740.4
607.082	23472.11
607.278	23750.63
607.474	23160.82
607.67	23422.96
607.866	22790.14
608.062	23101.43
608.257	23054.33
608.453	23160.82
608.649	23042.04
608.845	23015.41
609.041	23105.52
609.236	23003.13
609.432	22888.44
609.628	22786.04
609.824	22679.55
610.019	22827
610.215	22743.03
610.411	22771.71
610.606	22497.28
610.802	22650.88
610.998	22593.53
611.193	22476.8
611.389	22298.63
611.584	22284.29
611.78	22358.02
611.976	22482.94
612.171	22304.77
612.367	22530.05
612.562	22151.17
612.758	21583.88
612.953	21921.8
613.149	22302.72
613.344	21886.98
613.539	22292.48
613.735	21870.6
613.93	22138.88
614.126	21817.35
614.321	21985.29
614.517	21569.55
614.712	21868.55
614.907	21673.99
615.103	21776.39
615.298	21612.56
615.493	21952.52
615.688	21248.02
615.884	22087.68
616.079	21456.91
616.274	21372.94
616.47	21606.41
616.665	21692.43
616.86	21444.62
617.055	21188.63
617.25	21268.5
617.445	21590.03
617.641	21256.21
617.836	21127.19
618.031	21012.5
618.226	20996.12
618.421	20791.32
618.616	20938.77
618.811	20803.61
619.006	20731.93
619.201	20592.67
619.396	20858.9
619.591	20162.59
619.786	20500.51
619.981	20144.16
620.176	20543.52
620.371	20066.34
620.566	20297.76
620.761	19961.89
620.956	20324.38
621.151	19562.54
621.346	19709.99
621.541	19726.38
621.735	20031.52
621.93	19513.39
622.125	19458.09
622.32	19044.4
622.515	19218.48
622.709	19017.78
622.904	18960.44
623.099	18919.48
623.294	18972.72
623.488	18686.01
623.683	18894.9
623.878	18489.4
624.072	18800.69
624.267	18444.35
624.462	18313.28
624.656	18092.1
624.851	18075.71
625.046	17991.75
625.24	18147.39
625.435	17821.77
625.629	17766.47
625.824	17680.46
626.018	17494.09
626.213	17221.71
626.407	17250.38
626.602	16746.58
626.796	17133.65
626.991	17045.59
627.185	17006.67
627.38	17047.63
627.574	17111.12
627.768	16709.72
627.963	16629.85
628.157	16242.78
628.352	16584.79
628.546	16359.52
628.74	16433.24
628.935	16148.57
629.129	16175.2
629.323	16015.46
629.517	15845.48
629.712	15781.99
629.906	16005.22
630.1	15384.68
630.294	15585.38
630.489	15380.59
630.683	15628.39
630.877	15102.06
631.071	15257.71
631.265	15206.51
631.459	15077.49
631.653	15143.02
631.848	15048.82
632.042	15001.71
632.236	14985.33
632.43	14864.5
632.624	14751.86
632.818	14475.38
633.012	14557.3
633.206	14499.96
633.4	14559.35
633.594	14225.53
633.788	14270.59
633.982	14270.59
634.176	14135.42
634.369	13787.27
634.563	13926.53
634.757	13779.08
634.951	13987.97
635.145	13824.13
635.339	13795.46
635.533	13561.99
635.726	13441.16
635.92	13273.23
636.114	13525.13
636.308	13332.62
636.501	13262.99
636.695	13088.91
636.889	13050
637.083	13301.9
637.276	13027.47
637.47	12837.01
637.664	12884.11
637.857	12728.47
638.051	12685.46
638.244	12669.08
638.438	12478.61
638.632	12411.03
638.825	12275.87
639.019	12302.49
639.212	12302.49
639.406	12353.69
639.599	12275.87
639.793	12152.99
639.986	12026.01
640.18	12073.12
640.373	11997.34
640.567	11702.43
640.76	11792.55
640.954	11763.87
641.147	11450.53
641.34	11628.71
641.534	11573.41
641.727	11346.09
641.92	11395.24
642.114	11298.98
642.307	11190.44
642.5	11258.03
642.694	11020.46
642.887	10961.07
643.08	11153.58
643.273	11055.28
643.467	10977.45
643.66	10735.79
643.853	10707.12
644.046	10567.86
644.239	10793.14
644.432	10635.44
644.626	10606.77
644.819	10457.27
645.012	10492.09
645.205	10328.25
645.398	10385.59
645.591	10213.56
645.784	10074.3
645.977	10268.86
646.17	10023.1
646.363	10027.2
646.556	9896.13
646.749	9793.73
646.942	10066.11
647.135	9816.26
647.328	9875.65
647.521	9726.14
647.714	9435.33
647.907	9597.12
648.099	9617.6
648.292	9650.37
648.485	9388.23
648.678	9443.53
648.871	9326.79
649.064	9167.05
649.256	9597.12
649.449	9179.34
649.642	9242.82
649.835	9111.75
650.027	8995.02
650.22	8972.49
650.413	9035.98
650.605	9025.74
650.798	8802.51
650.991	8853.71
651.183	8759.5
651.376	8628.43
651.568	8722.64
651.761	8671.44
651.954	8655.06
652.146	8581.33
652.339	8612.05
652.531	8632.53
652.724	8278.23
652.916	8218.84
653.109	7971.04
653.301	8474.84
653.494	8171.74
653.686	8046.81
653.879	8188.12
654.071	8122.59
654.263	7975.13
654.456	7962.84
654.648	8020.19
654.84	8055
655.033	7842.01
655.225	7960.8
655.417	7905.5
655.61	7790.81
655.802	7692.51
655.994	7803.1
656.186	7602.4
656.379	7721.18
656.571	7758.05
656.763	7399.65
656.955	7502.05
657.148	7483.62
657.34	7518.43
657.532	7182.57
657.724	7467.24
657.916	7330.02
658.108	7219.43
658.3	7260.39
658.492	7334.12
658.684	7196.9
658.876	7080.17
659.068	7033.07
659.26	7051.5
659.452	7053.55
659.644	6908.14
659.836	6775.02
660.028	6992.11
660.22	6836.46
660.412	6854.89
660.604	6602.99
660.796	6641.9
660.988	6648.05
661.18	6607.09
661.372	6592.75
661.563	6674.67
661.755	6619.38
661.947	6605.04
662.139	6195.45
662.331	6471.92
662.522	6449.39
662.714	6373.62
662.906	6324.47
663.097	6164.73
663.289	6170.87
663.481	6213.88
663.673	6340.85
663.864	6181.11
664.056	6252.79
664.247	6177.02
664.439	5996.79
664.631	5986.55
664.822	5959.93
665.014	5943.55
665.205	5832.96
665.397	6062.33
665.588	5820.67
665.78	6013.18
665.971	5779.71
666.163	5945.59
666.354	5794.04
666.546	5763.33
666.737	5632.26
666.929	5865.72
667.12	5828.86
667.311	5748.99
667.503	5624.06
667.694	5669.12
667.885	5554.43
668.077	5566.72
668.268	5624.06
668.459	5525.76
668.651	5398.79
668.842	5411.07
669.033	5501.19
669.224	5394.69
669.416	5472.51
669.607	5120.26
669.798	5421.31
669.989	5185.8
670.18	5251.33
670.371	5331.2
670.563	5161.22
670.754	5132.55
670.945	5181.7
671.136	5157.13
671.327	5181.7
671.518	5130.5
671.709	5161.22
671.9	5212.42
672.091	5091.59
672.282	5017.86
672.473	4976.91
672.664	5009.67
672.855	4917.51
673.046	4837.64
673.237	4917.51
673.428	4946.19
673.619	4823.31
673.809	4813.07
674	4813.07
674.191	4839.69
674.382	4765.96
674.573	4888.84
674.764	4751.63
674.954	4747.53
675.145	4731.15
675.336	4788.49
675.527	4682
675.717	4682
675.908	4675.85
676.099	4870.41
676.289	4612.37
676.48	4694.29
676.671	4587.79
676.861	4682
677.052	4452.63
677.243	4538.64
677.433	4563.22
677.624	4505.87
677.814	4606.22
678.005	4524.3
678.195	4546.83
678.386	4497.68
678.576	4360.47
678.767	4512.02
678.957	4411.67
679.148	4454.67
679.338	4444.43
679.529	4489.49
679.719	4446.48
679.909	4411.67
680.1	4430.1
680.29	4440.34
680.481	4374.8
680.671	4393.23
680.861	4315.41
681.052	4280.6
681.242	4368.66
681.432	4280.6
681.622	4290.84
681.813	4299.03
682.003	4223.25
682.193	4239.64
682.383	4192.53
682.573	4182.29
682.764	4192.53
682.954	4296.98
683.144	4159.77
683.334	4163.86
683.524	4100.37
683.714	4102.42
683.904	4159.77
684.094	4157.72
684.284	4092.18
684.474	4251.92
684.664	4210.97
684.854	4045.08
685.044	3961.11
685.234	4098.33
685.424	4182.29
685.614	4008.22
685.804	3993.88
685.994	4014.36
686.184	3965.21
686.374	3963.16
686.564	3909.91
686.753	3916.06
686.943	3965.21
687.133	3889.43
687.323	4018.46
687.513	3985.69
687.702	3936.54
687.892	3903.77
688.082	3911.96
688.272	3957.02
688.461	3807.52
688.651	3993.88
688.841	3793.18
689.03	3674.4
689.22	3815.71
689.41	3744.03
689.599	3731.74
689.789	3791.13
689.979	3692.83
690.168	3717.4
690.358	3641.63
690.547	3625.25
690.737	3776.8
690.926	3739.93
691.116	3596.57
691.305	3641.63
691.495	3608.86
691.684	3553.57
691.874	3615.01
692.063	3412.26
692.252	3559.71
692.442	3516.7
692.631	3602.72
692.82	3563.81
693.01	3481.89
693.199	3600.67
693.388	3535.14
693.578	3436.83
693.767	3520.8
693.956	3365.15
694.146	3490.08
694.335	3338.53
694.524	3385.63
694.713	3377.44
694.902	3383.59
695.092	3402.02
695.281	3281.19
695.47	3266.85
695.659	3350.82
695.848	3309.86
696.037	3219.75
696.226	3432.74
696.415	3170.6
696.604	3238.18
696.793	3406.11
696.982	3350.82
697.171	3342.63
697.36	3363.11
697.549	3191.08
697.738	3207.46
697.927	3330.34
698.116	3309.86
698.305	3275.04
698.494	3215.65
698.683	3262.76
698.872	3402.02
699.061	3191.08
699.25	3178.79
699.438	3164.45
699.627	3354.91
699.816	3313.95
700.005	3348.77
700.193	3289.38
700.382	3246.37
700.571	3168.55
700.76	3129.64
700.948	3207.46
701.137	3197.22
701.326	3223.84
701.514	3080.49
701.703	3100.97
701.892	3148.07
702.08	3182.88
702.269	3172.64
702.457	3068.2
702.646	2996.52
702.834	3078.44
703.023	3174.69
703.212	3109.16
703.4	3166.5
703.589	3191.08
703.777	3076.39
703.965	2980.14
704.154	3070.25
704.342	2961.7
704.531	3072.29
704.719	3125.54
704.907	2986.28
705.096	2961.7
705.284	2998.57
705.472	3033.38
705.661	2963.75
705.849	3012.9
706.037	3049.77
706.226	3060.01
706.414	3033.38
706.602	2937.13
706.79	2978.09
706.979	3033.38
707.167	2902.31
707.355	2904.36
707.543	3014.95
707.731	3080.49
707.919	3039.53
708.107	2955.56
708.296	2963.75
708.484	2838.83
708.672	2902.31
708.86	2955.56
709.048	2849.07
709.236	2992.42
709.424	2892.07
709.612	2933.03
709.8	2787.63
709.988	3019.05
710.176	2896.17
710.364	2935.08
710.551	2892.07
710.739	2842.92
710.927	2885.93
711.115	2799.91
711.303	2801.96
711.491	2797.87
711.679	2785.58
711.866	2816.3
712.054	2830.63
712.242	2826.54
712.43	2822.44
712.617	2814.25
712.805	2896.17
712.993	2844.97
713.181	2683.18
713.368	2777.39
713.556	2879.79
713.744	2799.91
713.931	2810.15
714.119	2849.07
714.306	2785.58
714.494	2605.36
714.682	2767.15
714.869	2691.37
715.057	2765.1
715.244	2830.63
715.432	2769.2
715.619	2718
715.807	2652.46
715.994	2742.57
716.182	2742.57
716.369	2797.87
716.556	2744.62
716.744	2650.41
716.931	2740.52
717.119	2660.65
717.306	2742.57
717.493	2629.93
717.681	2695.47
717.868	2677.04
718.055	2699.56
718.242	2570.54
718.43	2691.37
718.617	2674.99
718.804	2638.13
718.991	2664.75
719.179	2672.94
719.366	2679.08
719.553	2662.7
719.74	2638.13
719.927	2703.66
720.114	2453.81
720.301	2591.02
720.488	2464.05
720.676	2603.31
720.863	2584.88
721.05	2558.25
721.237	2502.96
721.424	2548.01
721.611	2552.11
721.798	2478.38
721.985	2576.69
722.172	2531.63
722.358	2617.65
722.545	2527.53
722.732	2472.24
722.919	2486.58
723.106	2441.52
723.293	2521.39
723.48	2447.66
723.667	2566.45
723.853	2476.34
724.04	2570.54
724.227	2468.14
724.414	2371.89
724.6	2412.85
724.787	2427.18
724.974	2464.05
725.161	2367.79
725.347	2314.55
725.534	2445.62
725.72	2412.85
725.907	2347.31
726.094	2490.67
726.28	2412.85
726.467	2390.32
726.653	2361.65
726.84	2367.79
727.027	2494.77
727.213	2437.42
727.4	2371.89
727.586	2341.17
727.773	2404.66
727.959	2361.65
728.145	2353.46
728.332	2363.7
728.518	2443.57
728.705	2330.93
728.891	2326.83
729.077	2261.3
729.264	2208.05
729.45	2292.02
729.636	2390.32
729.823	2314.55
730.009	2341.17
730.195	2265.39
730.382	2203.96
730.568	2236.72
730.754	2306.35
730.94	2275.63
731.126	2339.12
731.313	2142.52
731.499	2283.83
731.685	2298.16
731.871	2337.07
732.057	2281.78
732.243	2392.37
732.429	2259.25
732.615	2283.83
732.801	2261.3
732.987	2267.44
733.173	2259.25
733.359	2081.08
733.545	2273.59
733.731	2165.04
733.917	2257.2
734.103	2281.78
734.289	2259.25
734.475	2160.95
734.661	2220.34
734.847	2195.76
735.033	2208.05
735.219	2220.34
735.404	2167.09
735.59	2175.28
735.776	2050.36
735.962	2185.52
736.148	2154.8
736.333	2105.65
736.519	2111.8
736.705	2165.04
736.89	2257.2
737.076	2177.33
737.262	2068.79
737.447	2019.64
737.633	2111.8
737.819	2109.75
738.004	2040.12
738.19	2052.41
738.375	2146.61
738.561	2089.27
738.747	2011.45
738.932	1970.49
739.118	2146.61
739.303	2142.52
739.489	1962.3
739.674	2011.45
739.859	2009.4
740.045	1921.34
740.23	1958.2
740.416	2048.31
740.601	1964.34
740.786	1988.92
740.972	2027.83
741.157	2070.84
741.342	1966.39
741.528	1882.42
741.713	2117.94
741.898	2052.41
742.084	1962.3
742.269	1990.97
742.454	1956.15
742.639	1995.06
742.824	1927.48
743.01	1931.58
743.195	1935.67
743.38	1966.39
743.565	1898.81
743.75	1841.47
743.935	1898.81
744.12	1794.36
744.305	1859.9
744.49	1861.94
744.675	1786.17
744.86	1857.85
745.045	1843.51
745.23	1800.51
745.415	1798.46
745.6	1814.84
745.785	1753.4
745.97	1794.36
746.155	1757.5
746.34	1925.43
746.525	1726.78
746.71	1798.46
746.895	1679.68
747.079	1737.02
747.264	1659.2
747.449	1605.95
747.634	1626.43
747.819	1691.96
748.003	1663.29
748.188	1679.68
748.373	1616.19
748.557	1624.38
748.742	1675.58
748.927	1618.24
749.111	1642.81
749.296	1571.13
749.481	1589.57
749.665	1446.21
749.85	1552.7
750.034	1593.66
750.219	1466.69
750.404	1515.84
750.588	1446.21
750.773	1472.83
750.957	1503.55
751.141	1405.25
751.326	1476.93
751.51	1478.97
751.695	1511.74
751.879	1464.64
752.064	1444.16
752.248	1454.4
752.432	1380.67
752.617	1546.56
752.801	1380.67
752.985	1339.71
753.17	1409.34
753.354	1388.86
753.538	1339.71
753.722	1452.35
753.907	1358.14
754.091	1327.43
754.275	1268.03
754.459	1255.75
754.643	1429.82
754.828	1349.95
755.012	1337.66
755.196	1278.27
755.38	1311.04
755.564	1325.38
755.748	1233.22
755.932	1282.37
756.116	1151.3
756.3	1227.07
756.484	1241.41
756.668	1255.75
756.852	1079.62
757.036	1182.02
757.22	1192.26
757.404	1132.87
757.588	1204.55
757.772	1198.4
757.956	1128.77
758.14	1200.45
758.323	1130.82
758.507	1139.01
758.691	1110.34
758.875	1163.59
759.059	1096
759.242	987.46
759.426	1134.92
759.61	1110.34
759.794	1102.15
759.977	1118.53
760.161	1130.82
760.345	1065.29
760.528	1075.52
760.712	1136.96
760.895	1100.1
761.079	1067.33
761.263	954.69
761.446	1118.53
761.63	989.51
761.813	1040.71
761.997	1014.09
762.18	983.37
762.364	1012.04
762.547	897.35
762.731	979.27
762.914	946.5
763.098	981.32
763.281	905.54
763.464	909.64
763.648	1001.8
763.831	1020.23
764.015	901.45
764.198	923.98
764.381	864.58
764.564	1024.33
764.748	883.02
764.931	852.3
765.114	897.35
765.297	913.74
765.481	856.39
765.664	872.78
765.847	874.82
766.03	954.69
766.213	893.26
766.397	913.74
766.58	823.62
766.763	829.77
766.946	776.52
767.129	815.43
767.312	684.36
767.495	911.69
767.678	842.06
767.861	883.02
768.044	846.15
768.227	864.58
768.41	815.43
768.593	837.96
768.776	979.27
768.959	868.68
769.142	823.62
769.324	774.47
769.507	743.75
769.69	801.1
769.873	727.37
770.056	885.06
770.239	790.86
770.421	858.44
770.604	817.48
770.787	880.97
770.97	782.67
771.152	797
771.335	833.86
771.518	776.52
771.7	774.47
771.883	778.57
772.066	792.91
772.248	749.9
772.431	749.9
772.613	717.13
772.796	655.69
772.978	760.14
773.161	749.9
773.343	801.1
773.526	762.19
773.708	721.23
773.891	635.21
774.073	745.8
774.256	696.65
774.438	778.57
774.621	614.73
774.803	682.31
774.985	614.73
775.168	651.6
775.35	719.18
775.532	579.92
775.715	594.25
775.897	692.55
776.079	555.34
776.261	620.88
776.444	678.22
776.626	637.26
776.808	614.73
776.99	645.45
777.173	584.01
777.355	627.02
777.537	622.92
777.719	676.17
777.901	571.72
778.083	541.01
778.265	610.64
778.447	541.01
778.629	581.96
778.811	581.96
778.993	661.84
779.175	616.78
779.357	622.92
779.539	504.14
779.721	538.96
779.903	581.96
780.085	534.86
780.267	553.29
780.449	536.91
780.631	522.57
780.812	612.68
780.994	579.92
781.176	504.14
781.358	520.53
781.54	489.81
781.721	557.39
781.903	448.85
782.085	479.57
782.267	450.89
782.448	541.01
782.63	434.51
782.812	459.09
782.993	473.42
783.175	452.94
783.357	471.37
783.538	495.95
783.72	454.99
783.901	500.05
784.083	491.85
784.264	450.89
784.446	393.55
784.627	418.13
784.809	422.22
784.99	342.35
785.172	465.23
785.353	391.5
785.535	481.61
785.716	430.41
785.897	414.03
786.079	446.8
786.26	328.02
786.441	375.12
786.623	409.94
786.804	364.88
786.985	375.12
787.167	407.89
787.348	389.46
787.529	356.69
787.71	424.27
787.891	354.64
788.073	389.46
788.254	430.41
788.435	450.89
788.616	385.36
788.797	371.02
788.978	405.84
789.159	330.06
789.34	426.32
789.522	342.35
789.703	317.78
789.884	282.96
790.065	373.07
790.246	350.54
790.427	309.58
790.607	346.45
790.788	293.2
790.969	360.78
791.15	350.54
791.331	323.92
791.512	338.26
791.693	305.49
791.874	272.72
792.054	385.36
792.235	309.58
792.416	274.77
792.597	303.44
792.778	317.78
792.958	242
793.139	328.02
793.32	381.26
793.5	315.73
793.681	342.35
793.862	268.63
794.042	254.29
794.223	313.68
794.404	258.39
794.584	285.01
794.765	293.2
794.945	268.63
795.126	254.29
795.306	309.58
795.487	280.91
795.667	280.91
795.848	274.77
796.028	295.25
796.209	268.63
796.389	330.06
796.57	242
796.75	217.43
796.93	233.81
797.111	233.81
797.291	311.63
797.471	270.67
797.652	282.96
797.832	229.71
798.012	266.58
798.192	254.29
798.373	233.81
798.553	299.34
798.733	258.39
798.913	162.13
799.093	186.71
799.274	268.63
799.454	274.77
799.634	291.15
799.814	254.29
799.994	221.52
800.174	184.66
800.354	176.47
800.534	242
800.714	293.2
800.894	211.28
801.074	162.13
801.254	192.85
801.434	299.34
801.614	178.51
801.794	194.9
801.974	835.91
802.154	225.62
802.334	282.96
802.514	184.66
802.693	213.33
802.873	258.39
803.053	188.75
803.233	233.81
803.413	254.29
803.592	225.62
803.772	129.36
803.952	235.86
804.131	139.6
804.311	209.23
804.491	295.25
804.67	143.7
804.85	145.75
805.03	258.39
805.209	262.48
805.389	188.75
805.568	168.27
805.748	215.38
805.928	203.09
806.107	121.17
806.287	219.47
806.466	151.89
806.646	201.04
806.825	164.18
807.004	287.06
807.184	246.1
807.363	123.22
807.543	194.9
807.722	168.27
807.901	209.23
808.081	196.95
808.26	170.32
808.439	242
808.619	162.13
808.798	158.03
808.977	225.62
809.156	233.81
809.336	207.19
809.515	244.05
809.694	176.47
809.873	186.71
810.052	196.95
810.231	229.71
810.411	205.14
810.59	160.08
810.769	90.45
810.948	147.8
811.127	133.46
811.306	180.56
811.485	211.28
811.664	160.08
811.843	188.75
812.022	131.41
812.201	80.21
812.38	168.27
812.559	143.7
812.737	192.85
812.916	115.03
813.095	131.41
813.274	135.51
813.453	203.09
813.632	184.66
813.811	143.7
813.989	102.74
814.168	112.98
814.347	131.41
814.526	112.98
814.704	151.89
814.883	72.02
815.062	125.27
815.24	182.61
815.419	141.65
815.598	135.51
815.776	160.08
815.955	141.65
816.133	92.5
816.312	194.9
816.49	106.84
816.669	153.94
816.847	88.4
817.026	104.79
817.204	110.93
817.383	37.2
817.561	164.18
817.74	184.66
817.918	119.12
818.097	123.22
818.275	88.4
818.453	135.51
818.632	172.37
818.81	137.56
818.988	106.84
819.167	112.98
819.345	123.22
819.523	110.93
819.701	155.99
819.879	237.91
820.058	147.8
820.236	78.16
820.414	133.46
820.592	102.74
820.77	129.36
820.948	94.55
821.127	137.56
821.305	164.18
821.483	61.78
821.661	137.56
821.839	69.97
822.017	45.4
822.195	162.13
822.373	90.45
822.551	145.75
822.729	98.64
822.907	110.93
823.085	74.07
823.262	86.36
823.44	129.36
823.618	78.16
823.796	112.98
823.974	80.21
824.152	82.26
824.329	115.03
824.507	41.3
824.685	47.44
824.863	88.4
825.04	115.03
825.218	131.41
825.396	86.36
825.574	69.97
825.751	92.5
825.929	76.12
826.107	94.55
826.284	108.88
826.462	162.13
826.639	69.97
826.817	86.36
826.994	96.6
827.172	74.07
827.349	108.88
827.527	80.21
827.704	162.13
827.882	74.07
828.059	162.13
828.237	80.21
828.414	176.47
828.591	16.73
828.769	49.49
828.946	47.44
829.124	192.85
829.301	61.78
829.478	110.93
829.655	139.6
829.833	106.84
830.01	55.64
830.187	12.63
830.364	45.4
830.542	41.3
830.719	147.8
830.896	102.74
831.073	94.55
831.25	98.64
831.427	125.27
831.604	31.06
831.782	80.21
831.959	80.21
832.136	127.32
832.313	29.01
832.49	110.93
832.667	74.07
832.844	61.78
833.021	119.12
833.198	14.68
833.374	16.73
833.551	8.53
833.728	110.93
833.905	115.03
834.082	69.97
834.259	57.68
834.436	168.27
834.612	80.21
834.789	53.59
834.966	4.44
835.143	110.93
835.319	24.92
835.496	131.41
835.673	88.4
835.85	80.21
836.026	110.93
836.203	106.84
836.38	24.92
836.556	86.36
836.733	45.4
836.909	94.55
837.086	69.97
837.262	14.68
837.439	8.53
837.616	88.4
837.792	29.01
837.968	90.45
838.145	22.87
838.321	104.79
838.498	72.02
838.674	119.12
838.851	92.5
839.027	41.3
839.203	20.82
839.38	-3.75
839.556	-24.23
839.732	102.74
839.909	61.78
840.085	45.4
840.261	86.36
840.437	110.93
840.614	-5.8
840.79	127.32
840.966	14.68
841.142	47.44
841.318	4.44
841.494	53.59
841.671	86.36
841.847	53.59
842.023	76.12
842.199	147.8
842.375	125.27
842.551	12.63
842.727	-24.23
842.903	119.12
843.079	26.96
843.255	76.12
843.431	0.34
843.607	112.98
843.783	72.02
843.959	6.49
844.134	20.82
844.31	53.59
844.486	31.06
844.662	94.55
844.838	63.83
845.013	104.79
845.189	63.83
845.365	69.97
845.541	37.2
845.716	20.82
845.892	53.59
846.068	61.78
846.244	69.97
846.419	39.25
846.595	-38.57
846.77	65.88
846.946	102.74
847.122	96.6
847.297	43.35
847.473	78.16
847.648	-40.62
847.824	102.74
847.999	94.55
848.175	43.35
848.35	20.82
848.526	45.4
848.701	94.55
848.876	84.31
849.052	67.92
849.227	49.49
849.403	47.44
849.578	123.22
849.753	53.59
849.929	94.55
850.104	57.68
850.279	41.3
850.454	74.07
850.63	20.82
850.805	4.44
850.98	37.2
851.155	43.35
851.33	121.17
851.505	-9.9
851.681	78.16
851.856	0.34
852.031	43.35
852.206	24.92
852.381	63.83
852.556	-38.57
852.731	112.98
852.906	16.73
853.081	65.88
853.256	72.02
853.431	45.4
853.606	-20.14
853.781	-1.71
853.956	-18.09
854.131	106.84
854.305	45.4
854.48	20.82
854.655	14.68
854.83	12.63
855.005	57.68
855.18	72.02
855.354	102.74
855.529	82.26
855.704	-18.09
855.879	110.93
856.053	37.2
856.228	110.93
856.403	10.58
856.577	45.4
856.752	61.78
856.926	-7.85
857.101	37.2
857.276	78.16
857.45	121.17
857.625	129.36
857.799	59.73
857.974	47.44
858.148	39.25
858.323	20.82
858.497	35.16
858.672	14.68
858.846	10.58
859.02	96.6
859.195	-3.75
859.369	-52.91
859.543	47.44
859.718	47.44
859.892	-11.95
860.066	-9.9
860.241	102.74
860.415	-18.09
860.589	39.25
860.763	37.2
860.938	2.39
861.112	12.63
861.286	-1.71
861.46	41.3
861.634	29.01
861.808	57.68
861.982	45.4
862.157	-3.75
862.331	53.59
862.505	39.25
862.679	-36.52
862.853	29.01
863.027	47.44
863.201	31.06
863.375	-44.71
863.549	41.3
863.722	61.78
863.896	53.59
864.07	-3.75
864.244	35.16
864.418	121.17
864.592	12.63
864.766	72.02
864.939	41.3
865.113	4.44
865.287	117.08
865.461	41.3
865.634	49.49
865.808	90.45
865.982	112.98
866.156	12.63
866.329	94.55
866.503	6.49
866.676	137.56
866.85	41.3
867.024	29.01
867.197	55.64
867.371	49.49
867.544	39.25
867.718	26.96
867.891	86.36
868.065	61.78
868.238	104.79
868.412	-112.3
868.585	57.68
868.759	45.4
868.932	24.92
869.105	26.96
869.279	57.68
869.452	63.83
869.625	86.36
869.799	-7.85
869.972	6.49
870.145	57.68
870.319	82.26
870.492	43.35
870.665	-46.76
870.838	4.44
871.011	57.68
871.185	20.82
871.358	37.2
871.531	14.68
871.704	29.01
871.877	74.07
872.05	47.44
872.223	-28.33
872.396	22.87
872.569	63.83
872.742	-28.33
872.915	61.78
873.088	53.59
873.261	-1.71
873.434	20.82
873.607	14.68
873.78	-30.38
873.953	-30.38
874.126	4.44
874.299	65.88
874.471	26.96
874.644	-40.62
874.817	29.01
874.99	67.92
875.163	-5.8
875.335	45.4
875.508	57.68
875.681	82.26
875.853	-11.95
876.026	20.82
876.199	-3.75
876.371	61.78
876.544	-3.75
876.717	74.07
876.889	-18.09
877.062	72.02
877.234	-79.53
877.407	16.73
877.579	76.12
877.752	69.97
877.924	4.44
878.097	20.82
878.269	53.59
878.442	12.63
878.614	29.01
878.786	115.03
878.959	8.53
879.131	0.34
879.303	-91.82
879.476	-1.71
879.648	16.73
879.82	-16.04
879.993	33.11
880.165	102.74
880.337	-28.33
880.509	45.4
880.681	6.49
880.854	47.44
881.026	108.88
881.198	61.78
881.37	2.39
881.542	78.16
881.714	74.07
881.886	45.4
882.058	-28.33
882.23	41.3
882.402	-20.14
882.574	22.87
882.746	53.59
882.918	-11.95
883.09	53.59
883.262	-20.14
883.434	-36.52
883.606	-3.75
883.778	18.77
883.95	67.92
884.122	-42.67
884.293	76.12
884.465	37.2
884.637	20.82
884.809	47.44
884.98	57.68
885.152	12.63
885.324	76.12
885.496	35.16
885.667	55.64
885.839	4.44
886.011	63.83
886.182	86.36
886.354	-7.85
886.525	90.45
886.697	-52.91
886.869	-42.67
887.04	51.54
887.212	-34.47
887.383	47.44
887.555	20.82
887.726	-9.9
887.897	24.92
888.069	8.53
888.24	37.2
888.412	-18.09
888.583	12.63
888.754	0.34
888.926	-83.63
889.097	37.2
889.268	0.34
889.44	47.44
889.611	0.34
889.782	22.87
889.953	29.01
890.125	14.68
890.296	-3.75
890.467	16.73
890.638	12.63
890.809	-50.86
890.98	-9.9
891.151	-9.9
891.323	-3.75
891.494	29.01
891.665	-65.19
891.836	29.01
892.007	18.77
892.178	14.68
892.349	-24.23
892.52	-3.75
892.691	-7.85
892.862	-75.43
893.032	-7.85
893.203	-52.91
893.374	45.4
893.545	24.92
893.716	24.92
893.887	37.2
894.057	-20.14
894.228	37.2
894.399	-50.86
894.57	45.4
894.74	45.4
894.911	57.68
895.082	-3.75
895.253	-36.52
895.423	-18.09
895.594	-38.57
895.764	43.35
895.935	29.01
896.106	4.44
896.276	-3.75
896.447	-34.47
896.617	-16.04
896.788	6.49
896.958	-1.71
897.129	-13.99
897.299	12.63
897.47	26.96
897.64	4.44
897.81	-75.43
897.981	20.82
898.151	20.82
898.322	-1.71
898.492	20.82
898.662	20.82
898.832	-20.14
899.003	14.68
899.173	29.01
899.343	-46.76
899.513	-20.14
