Data from USB4F104151__192__14-20-24-428.txt Node

Date: Thu Mar 13 14:20:24 EDT 2025
User: louis
Spectrometer: USB4F10415
Trigger mode: 4
Integration Time (sec): 2.000000E-2
Scans to average: 1
Electric dark correction enabled: true
Nonlinearity correction enabled: false
Boxcar width: 0
XAxis mode: Wavelengths
Number of Pixels in Spectrum: 3648
>>>>>Begin Spectral Data<<<<<
178.204	-82.09
178.424	-82.09
178.644	-82.09
178.864	-200.87
179.084	-151.72
179.304	8.02
179.524	12.12
179.744	44.88
179.964	32.6
180.184	-28.84
180.404	-63.66
180.624	12.12
180.844	1.88
181.064	-61.61
181.283	-0.17
181.503	14.17
181.723	28.5
181.943	-55.47
182.163	20.31
182.383	57.17
182.602	79.7
182.822	61.27
183.042	16.21
183.262	-8.36
183.482	-8.36
183.701	10.07
183.921	20.31
184.141	-28.84
184.361	-30.89
184.58	26.45
184.8	32.6
185.02	44.88
185.239	16.21
185.459	-0.17
185.679	34.64
185.898	40.79
186.118	85.84
186.338	53.08
186.557	34.64
186.777	40.79
186.997	1.88
187.216	32.6
187.436	34.64
187.655	16.21
187.875	61.27
188.095	16.21
188.314	100.18
188.534	83.8
188.753	69.46
188.973	-6.31
189.192	3.93
189.412	40.79
189.631	40.79
189.851	-0.17
190.07	14.17
190.29	24.4
190.509	-26.79
190.729	94.04
190.948	48.98
191.168	139.09
191.387	26.45
191.607	-4.27
191.826	89.94
192.045	122.71
192.265	-18.6
192.484	32.6
192.704	22.36
192.923	-45.23
193.142	118.61
193.362	57.17
193.581	40.79
193.8	30.55
194.02	34.64
194.239	-16.55
194.458	81.75
194.678	24.4
194.897	-32.94
195.116	48.98
195.335	65.36
195.555	42.84
195.774	-8.36
195.993	102.23
196.212	26.45
196.432	18.26
196.651	8.02
196.87	38.74
197.089	94.04
197.308	3.93
197.528	-16.55
197.747	18.26
197.966	-37.03
198.185	44.88
198.404	12.12
198.623	-2.22
198.842	10.07
199.062	81.75
199.281	77.65
199.5	-0.17
199.719	1.88
199.938	42.84
200.157	26.45
200.376	42.84
200.595	83.8
200.814	85.84
201.033	85.84
201.252	28.5
201.471	-16.55
201.69	94.04
201.909	24.4
202.128	-41.13
202.347	40.79
202.566	42.84
202.785	-8.36
203.004	-6.31
203.223	85.84
203.442	91.99
203.661	8.02
203.879	104.28
204.098	65.36
204.317	8.02
204.536	40.79
204.755	126.8
204.974	3.93
205.193	-10.41
205.411	81.75
205.63	67.41
205.849	81.75
206.068	18.26
206.287	1.88
206.505	55.12
206.724	1.88
206.943	73.56
207.162	-73.9
207.381	32.6
207.599	75.6
207.818	42.84
208.037	73.56
208.255	81.75
208.474	-22.7
208.693	-4.27
208.911	-26.79
209.13	36.69
209.349	-24.75
209.567	48.98
209.786	114.52
210.005	57.17
210.223	-20.65
210.442	-30.89
210.661	57.17
210.879	42.84
211.098	40.79
211.316	118.61
211.535	98.13
211.753	-65.71
211.972	-90.28
212.191	28.5
212.409	44.88
212.628	57.17
212.846	-16.55
213.065	48.98
213.283	28.5
213.502	-6.31
213.72	-8.36
213.938	59.22
214.157	34.64
214.375	98.13
214.594	16.21
214.812	28.5
215.031	44.88
215.249	34.64
215.467	51.03
215.686	77.65
215.904	85.84
216.122	-16.55
216.341	81.75
216.559	73.56
216.778	59.22
216.996	14.17
217.214	18.26
217.432	-10.41
217.651	75.6
217.869	53.08
218.087	40.79
218.306	67.41
218.524	8.02
218.742	57.17
218.96	20.31
219.179	71.51
219.397	1.88
219.615	114.52
219.833	-37.03
220.051	-57.51
220.27	26.45
220.488	44.88
220.706	40.79
220.924	32.6
221.142	34.64
221.36	1.88
221.578	57.17
221.796	-16.55
222.015	16.21
222.233	-4.27
222.451	67.41
222.669	-41.13
222.887	42.84
223.105	38.74
223.323	18.26
223.541	32.6
223.759	63.32
223.977	53.08
224.195	55.12
224.413	73.56
224.631	73.56
224.849	30.55
225.067	114.52
225.285	28.5
225.503	42.84
225.721	-26.79
225.939	83.8
226.157	24.4
226.375	69.46
226.592	48.98
226.81	20.31
227.028	81.75
227.246	28.5
227.464	-8.36
227.682	91.99
227.9	-22.7
228.117	59.22
228.335	24.4
228.553	-12.46
228.771	42.84
228.989	89.94
229.206	32.6
229.424	-0.17
229.642	24.4
229.86	-55.47
230.077	73.56
230.295	-6.31
230.513	-6.31
230.731	77.65
230.948	61.27
231.166	85.84
231.384	8.02
231.601	81.75
231.819	161.62
232.037	24.4
232.254	67.41
232.472	-57.51
232.689	53.08
232.907	46.93
233.125	-0.17
233.342	77.65
233.56	57.17
233.777	-0.17
233.995	81.75
234.213	122.71
234.43	32.6
234.648	48.98
234.865	57.17
235.083	57.17
235.3	32.6
235.518	10.07
235.735	192.34
235.953	98.13
236.17	65.36
236.388	69.46
236.605	51.03
236.822	16.21
237.04	26.45
237.257	26.45
237.475	-16.55
237.692	57.17
237.909	53.08
238.127	28.5
238.344	73.56
238.562	-0.17
238.779	5.97
238.996	42.84
239.214	55.12
239.431	73.56
239.648	-41.13
239.865	67.41
240.083	28.5
240.3	112.47
240.517	-16.55
240.735	-82.09
240.952	48.98
241.169	69.46
241.386	-39.08
241.603	59.22
241.821	-0.17
242.038	59.22
242.255	67.41
242.472	32.6
242.689	32.6
242.907	36.69
243.124	-8.36
243.341	-32.94
243.558	48.98
243.775	40.79
243.992	57.17
244.209	16.21
244.426	57.17
244.643	44.88
244.86	51.03
245.078	89.94
245.295	108.37
245.512	51.03
245.729	-22.7
245.946	73.56
246.163	75.6
246.38	8.02
246.597	38.74
246.814	65.36
247.031	-4.27
247.248	67.41
247.464	57.17
247.681	44.88
247.898	89.94
248.115	40.79
248.332	40.79
248.549	108.37
248.766	85.84
248.983	42.84
249.2	18.26
249.417	69.46
249.633	100.18
249.85	110.42
250.067	14.17
250.284	16.21
250.501	57.17
250.717	53.08
250.934	-16.55
251.151	32.6
251.368	32.6
251.585	38.74
251.801	65.36
252.018	18.26
252.235	18.26
252.451	-16.55
252.668	-4.27
252.885	24.4
253.102	61.27
253.318	53.08
253.535	18.26
253.752	91.99
253.968	71.51
254.185	-39.08
254.401	77.65
254.618	16.21
254.835	36.69
255.051	106.32
255.268	42.84
255.484	-12.46
255.701	18.26
255.917	46.93
256.134	91.99
256.351	32.6
256.567	-12.46
256.784	8.02
257	-20.65
257.217	42.84
257.433	20.31
257.65	53.08
257.866	85.84
258.082	32.6
258.299	44.88
258.515	40.79
258.732	57.17
258.948	44.88
259.165	-41.13
259.381	18.26
259.597	-14.51
259.814	8.02
260.03	20.31
260.246	-32.94
260.463	48.98
260.679	30.55
260.895	59.22
261.112	69.46
261.328	44.88
261.544	38.74
261.761	91.99
261.977	5.97
262.193	3.93
262.409	104.28
262.626	42.84
262.842	116.56
263.058	-41.13
263.274	20.31
263.49	-32.94
263.707	98.13
263.923	67.41
264.139	32.6
264.355	16.21
264.571	46.93
264.787	-37.03
265.004	83.8
265.22	40.79
265.436	-24.75
265.652	-32.94
265.868	40.79
266.084	3.93
266.3	44.88
266.516	10.07
266.732	48.98
266.948	-0.17
267.164	-14.51
267.38	18.26
267.596	94.04
267.812	114.52
268.028	79.7
268.244	-0.17
268.46	53.08
268.676	53.08
268.892	26.45
269.108	-32.94
269.324	3.93
269.54	-37.03
269.756	28.5
269.972	12.12
270.188	32.6
270.403	40.79
270.619	24.4
270.835	34.64
271.051	67.41
271.267	5.97
271.483	61.27
271.698	36.69
271.914	46.93
272.13	44.88
272.346	63.32
272.562	89.94
272.777	65.36
272.993	67.41
273.209	-14.51
273.425	-30.89
273.64	34.64
273.856	57.17
274.072	51.03
274.287	-0.17
274.503	65.36
274.719	44.88
274.934	-0.17
275.15	-0.17
275.366	57.17
275.581	18.26
275.797	28.5
276.012	5.97
276.228	28.5
276.444	24.4
276.659	100.18
276.875	26.45
277.09	8.02
277.306	3.93
277.521	36.69
277.737	44.88
277.952	3.93
278.168	28.5
278.383	-0.17
278.599	85.84
278.814	53.08
279.03	30.55
279.245	65.36
279.461	48.98
279.676	40.79
279.892	-0.17
280.107	-14.51
280.322	-49.32
280.538	122.71
280.753	-69.8
280.969	16.21
281.184	53.08
281.399	40.79
281.615	59.22
281.83	-0.17
282.045	-71.85
282.26	28.5
282.476	141.14
282.691	42.84
282.906	122.71
283.122	18.26
283.337	1.88
283.552	89.94
283.767	-0.17
283.983	102.23
284.198	48.98
284.413	67.41
284.628	-28.84
284.843	44.88
285.058	69.46
285.274	-67.75
285.489	22.36
285.704	57.17
285.919	-12.46
286.134	69.46
286.349	57.17
286.564	61.27
286.779	61.27
286.995	-4.27
287.21	3.93
287.425	51.03
287.64	65.36
287.855	16.21
288.07	-28.84
288.285	73.56
288.5	1.88
288.715	16.21
288.93	-41.13
289.145	18.26
289.36	40.79
289.575	-45.23
289.79	73.56
290.004	20.31
290.219	16.21
290.434	8.02
290.649	34.64
290.864	57.17
291.079	83.8
291.294	-28.84
291.509	34.64
291.724	73.56
291.938	94.04
292.153	122.71
292.368	40.79
292.583	12.12
292.798	-49.32
293.012	83.8
293.227	63.32
293.442	112.47
293.657	34.64
293.871	100.18
294.086	-10.41
294.301	91.99
294.516	42.84
294.73	26.45
294.945	3.93
295.16	65.36
295.374	110.42
295.589	132.95
295.804	12.12
296.018	-32.94
296.233	30.55
296.447	91.99
296.662	40.79
296.877	-10.41
297.091	28.5
297.306	40.79
297.52	16.21
297.735	130.9
297.949	28.5
298.164	-0.17
298.378	24.4
298.593	20.31
298.807	-0.17
299.022	34.64
299.236	48.98
299.451	135
299.665	-20.65
299.88	48.98
300.094	32.6
300.309	81.75
300.523	38.74
300.737	12.12
300.952	32.6
301.166	48.98
301.381	-30.89
301.595	16.21
301.809	26.45
302.024	48.98
302.238	-30.89
302.452	77.65
302.667	24.4
302.881	-8.36
303.095	-8.36
303.309	65.36
303.524	-20.65
303.738	57.17
303.952	-12.46
304.166	-32.94
304.381	18.26
304.595	147.28
304.809	53.08
305.023	108.37
305.237	20.31
305.452	89.94
305.666	57.17
305.88	102.23
306.094	51.03
306.308	8.02
306.522	89.94
306.736	48.98
306.95	98.13
307.164	34.64
307.379	28.5
307.593	73.56
307.807	16.21
308.021	89.94
308.235	94.04
308.449	3.93
308.663	-24.75
308.877	106.32
309.091	79.7
309.305	59.22
309.519	40.79
309.733	98.13
309.947	18.26
310.161	81.75
310.374	63.32
310.588	53.08
310.802	57.17
311.016	24.4
311.23	46.93
311.444	-6.31
311.658	26.45
311.872	32.6
312.085	89.94
312.299	75.6
312.513	51.03
312.727	40.79
312.941	24.4
313.154	-16.55
313.368	-8.36
313.582	61.27
313.796	44.88
314.009	61.27
314.223	57.17
314.437	100.18
314.651	26.45
314.864	91.99
315.078	8.02
315.292	-8.36
315.505	24.4
315.719	91.99
315.933	36.69
316.146	51.03
316.36	14.17
316.573	65.36
316.787	104.28
317.001	36.69
317.214	32.6
317.428	48.98
317.641	3.93
317.855	67.41
318.068	40.79
318.282	34.64
318.495	61.27
318.709	57.17
318.922	-30.89
319.136	159.57
319.349	108.37
319.563	5.97
319.776	67.41
319.99	36.69
320.203	81.75
320.417	26.45
320.63	40.79
320.843	100.18
321.057	67.41
321.27	89.94
321.483	44.88
321.697	51.03
321.91	38.74
322.124	46.93
322.337	8.02
322.55	16.21
322.763	32.6
322.977	36.69
323.19	-37.03
323.403	102.23
323.617	20.31
323.83	81.75
324.043	-55.47
324.256	73.56
324.469	28.5
324.683	147.28
324.896	14.17
325.109	98.13
325.322	10.07
325.535	-24.75
325.748	69.46
325.962	61.27
326.175	5.97
326.388	-16.55
326.601	59.22
326.814	32.6
327.027	-51.37
327.24	75.6
327.453	-34.99
327.666	10.07
327.879	48.98
328.092	-0.17
328.305	34.64
328.518	65.36
328.731	83.8
328.944	-12.46
329.157	83.8
329.37	40.79
329.583	34.64
329.796	91.99
330.009	8.02
330.222	42.84
330.435	32.6
330.648	55.12
330.861	-20.65
331.073	20.31
331.286	20.31
331.499	22.36
331.712	71.51
331.925	32.6
332.138	110.42
332.35	122.71
332.563	44.88
332.776	85.84
332.989	-41.13
333.202	67.41
333.414	22.36
333.627	83.8
333.84	28.5
334.053	67.41
334.265	26.45
334.478	20.31
334.691	73.56
334.903	48.98
335.116	-32.94
335.329	38.74
335.541	57.17
335.754	108.37
335.966	30.55
336.179	65.36
336.392	75.6
336.604	26.45
336.817	-24.75
337.029	106.32
337.242	38.74
337.454	59.22
337.667	28.5
337.88	83.8
338.092	114.52
338.305	26.45
338.517	48.98
338.729	98.13
338.942	42.84
339.154	-24.75
339.367	10.07
339.579	69.46
339.792	65.36
340.004	114.52
340.217	32.6
340.429	40.79
340.641	24.4
340.854	89.94
341.066	26.45
341.278	65.36
341.491	89.94
341.703	32.6
341.915	16.21
342.128	51.03
342.34	79.7
342.552	42.84
342.764	-49.32
342.977	40.79
343.189	178
343.401	94.04
343.613	-51.37
343.826	24.4
344.038	-0.17
344.25	61.27
344.462	-63.66
344.674	69.46
344.886	65.36
345.099	-4.27
345.311	120.66
345.523	51.03
345.735	3.93
345.947	-14.51
346.159	26.45
346.371	149.33
346.583	-6.31
346.795	94.04
347.007	22.36
347.219	22.36
347.431	40.79
347.643	112.47
347.855	-24.75
348.067	81.75
348.279	18.26
348.491	32.6
348.703	85.84
348.915	26.45
349.127	-30.89
349.339	30.55
349.551	102.23
349.763	106.32
349.975	81.75
350.187	32.6
350.399	73.56
350.61	94.04
350.822	65.36
351.034	73.56
351.246	130.9
351.458	98.13
351.669	75.6
351.881	40.79
352.093	89.94
352.305	32.6
352.517	34.64
352.728	75.6
352.94	126.8
353.152	-0.17
353.363	-32.94
353.575	28.5
353.787	151.38
353.999	139.09
354.21	96.08
354.422	5.97
354.633	20.31
354.845	98.13
355.057	63.32
355.268	61.27
355.48	77.65
355.692	-22.7
355.903	98.13
356.115	28.5
356.326	44.88
356.538	155.47
356.749	8.02
356.961	40.79
357.172	20.31
357.384	-16.55
357.595	110.42
357.807	57.17
358.018	8.02
358.23	87.89
358.441	143.19
358.653	89.94
358.864	26.45
359.075	61.27
359.287	147.28
359.498	73.56
359.709	102.23
359.921	44.88
360.132	-8.36
360.344	8.02
360.555	108.37
360.766	65.36
360.977	12.12
361.189	51.03
361.4	36.69
361.611	1.88
361.823	77.65
362.034	65.36
362.245	12.12
362.456	81.75
362.667	16.21
362.879	102.23
363.09	26.45
363.301	83.8
363.512	114.52
363.723	48.98
363.935	42.84
364.146	46.93
364.357	48.98
364.568	122.71
364.779	32.6
364.99	122.71
365.201	8.02
365.412	89.94
365.623	12.12
365.834	-2.22
366.045	98.13
366.256	100.18
366.467	69.46
366.678	48.98
366.889	12.12
367.1	53.08
367.311	85.84
367.522	69.46
367.733	24.4
367.944	100.18
368.155	-0.17
368.366	8.02
368.577	77.65
368.788	57.17
368.999	40.79
369.209	48.98
369.42	120.66
369.631	98.13
369.842	75.6
370.053	73.56
370.264	81.75
370.474	40.79
370.685	94.04
370.896	51.03
371.107	51.03
371.317	77.65
371.528	73.56
371.739	110.42
371.95	38.74
372.16	3.93
372.371	42.84
372.582	57.17
372.792	20.31
373.003	24.4
373.214	24.4
373.424	-12.46
373.635	77.65
373.846	118.61
374.056	126.8
374.267	61.27
374.477	69.46
374.688	-20.65
374.898	137.04
375.109	108.37
375.319	40.79
375.53	57.17
375.74	28.5
375.951	18.26
376.161	114.52
376.372	106.32
376.582	65.36
376.793	71.51
377.003	40.79
377.214	-28.84
377.424	75.6
377.635	75.6
377.845	-16.55
378.055	20.31
378.266	-2.22
378.476	114.52
378.686	48.98
378.897	36.69
379.107	98.13
379.317	114.52
379.528	3.93
379.738	55.12
379.948	48.98
380.158	67.41
380.369	67.41
380.579	75.6
380.789	36.69
380.999	-2.22
381.21	130.9
381.42	143.19
381.63	98.13
381.84	81.75
382.05	89.94
382.261	100.18
382.471	77.65
382.681	40.79
382.891	98.13
383.101	151.38
383.311	55.12
383.521	48.98
383.731	89.94
383.941	40.79
384.151	48.98
384.361	81.75
384.571	3.93
384.781	65.36
384.991	57.17
385.201	94.04
385.411	122.71
385.621	108.37
385.831	104.28
386.041	-0.17
386.251	44.88
386.461	59.22
386.671	157.52
386.881	59.22
387.091	106.32
387.301	-37.03
387.511	57.17
387.72	-4.27
387.93	91.99
388.14	32.6
388.35	87.89
388.56	114.52
388.769	116.56
388.979	124.76
389.189	106.32
389.399	10.07
389.609	26.45
389.818	98.13
390.028	1.88
390.238	28.5
390.447	100.18
390.657	67.41
390.867	65.36
391.076	8.02
391.286	120.66
391.496	67.41
391.705	79.7
391.915	118.61
392.125	40.79
392.334	57.17
392.544	36.69
392.753	32.6
392.963	48.98
393.172	114.52
393.382	79.7
393.591	139.09
393.801	102.23
394.01	89.94
394.22	139.09
394.429	42.84
394.639	124.76
394.848	122.71
395.058	24.4
395.267	55.12
395.477	75.6
395.686	175.95
395.895	59.22
396.105	126.8
396.314	73.56
396.524	143.19
396.733	81.75
396.942	165.71
397.152	83.8
397.361	79.7
397.57	106.32
397.78	118.61
397.989	57.17
398.198	163.67
398.407	112.47
398.617	40.79
398.826	100.18
399.035	192.34
399.244	167.76
399.453	151.38
399.663	200.53
399.872	16.21
400.081	159.57
400.29	157.52
400.499	32.6
400.708	132.95
400.917	106.32
401.127	81.75
401.336	116.56
401.545	157.52
401.754	190.29
401.963	204.63
402.172	114.52
402.381	116.56
402.59	141.14
402.799	130.9
403.008	91.99
403.217	110.42
403.426	137.04
403.635	124.76
403.844	36.69
404.053	126.8
404.262	98.13
404.471	231.25
404.68	141.14
404.888	108.37
405.097	122.71
405.306	171.86
405.515	167.76
405.724	147.28
405.933	194.39
406.142	159.57
406.35	208.72
406.559	139.09
406.768	221.01
406.977	204.63
407.185	180.05
407.394	212.82
407.603	255.83
407.812	178
408.02	272.21
408.229	278.35
408.438	290.64
408.646	124.76
408.855	235.35
409.064	212.82
409.272	231.25
409.481	245.59
409.69	339.79
409.898	319.31
410.107	321.36
410.315	302.93
410.524	319.31
410.733	409.42
410.941	337.74
411.15	362.32
411.358	384.85
411.567	382.8
411.775	401.23
411.984	390.99
412.192	442.19
412.401	450.38
412.609	472.91
412.818	501.58
413.026	540.49
413.234	509.77
413.443	501.58
413.651	528.21
413.86	614.22
414.068	622.41
414.276	640.84
414.485	606.03
414.693	636.75
414.901	657.23
415.11	704.33
415.318	696.14
415.526	720.71
415.734	749.39
415.943	728.91
416.151	909.13
416.359	819.02
416.567	915.27
416.776	982.85
416.984	986.95
417.192	1007.43
417.4	974.66
417.608	964.42
417.817	1048.39
418.025	1120.07
418.233	1181.51
418.441	1154.88
418.649	1253.19
418.857	1222.47
419.065	1310.53
419.273	1265.47
419.481	1400.64
419.689	1447.74
419.897	1562.43
420.105	1533.76
420.313	1580.86
420.521	1537.85
420.729	1572.67
420.937	1568.57
421.145	1724.22
421.353	1826.62
421.561	1898.3
421.769	1959.74
421.977	2035.51
422.185	2027.32
422.393	2164.53
422.601	2416.43
422.809	2195.25
423.017	2350.9
423.224	2416.43
423.432	2531.12
423.64	2594.61
423.848	2658.09
424.056	2680.62
424.263	2766.64
424.471	2754.35
424.679	2885.42
424.887	3071.78
425.094	3206.95
425.302	3211.04
425.51	3174.18
425.718	3270.44
425.925	3307.3
426.133	3520.29
426.341	3653.41
426.548	3893.02
426.756	3860.25
426.964	3929.88
427.171	4132.63
427.379	4351.76
427.586	4200.21
427.794	4423.44
428.001	4667.15
428.209	4716.3
428.417	4734.73
428.624	5054.22
428.832	5070.6
429.039	5177.09
429.247	5021.45
429.454	5547.78
429.662	5906.17
429.869	5721.85
430.076	5783.29
430.284	5791.48
430.491	6043.39
430.699	6512.37
430.906	6149.88
431.114	6266.61
431.321	6573.81
431.528	6852.33
431.736	7276.26
431.943	7683.81
432.15	7356.13
432.358	7288.55
432.565	7829.21
432.772	7708.38
432.979	8199.9
433.187	8318.68
433.394	8210.14
433.601	8898.25
433.808	8920.78
434.016	8756.94
434.223	9303.75
434.43	9635.52
434.637	9543.36
434.844	10073.79
435.052	10518.2
435.259	10389.17
435.466	10612.4
435.673	10274.49
435.88	11167.4
436.087	11597.48
436.294	11556.52
436.501	11173.55
436.708	11472.55
436.915	11767.46
437.122	12353.18
437.329	12633.75
437.537	12787.35
437.743	12811.92
437.95	12963.47
438.157	13362.83
438.364	13995.65
438.571	13995.65
438.778	14126.72
438.985	15433.32
439.192	14720.63
439.399	15240.81
439.606	14753.4
439.813	15697.51
440.02	16836.18
440.227	16334.43
440.433	16055.9
440.64	16688.73
440.847	16678.49
441.054	17032.79
441.261	18347.58
441.467	18044.48
441.674	18058.82
441.881	18783.8
442.088	19158.58
442.294	18646.58
442.501	19033.65
442.708	19564.07
442.914	20078.11
443.121	20971.03
443.328	20534.81
443.534	21986.82
443.741	21487.12
443.948	20762.14
444.154	22466.05
444.361	22382.08
444.568	22691.32
444.774	22625.79
444.981	22605.31
445.187	23291.38
445.394	24479.2
445.6	24356.32
445.807	26668.48
446.013	25167.32
446.22	26029.51
446.426	26785.21
446.633	27131.32
446.839	27860.4
447.046	26686.91
447.252	28413.35
447.459	28480.93
447.665	28048.81
447.871	29386.13
448.078	30418.31
448.284	29095.32
448.491	29922.7
448.697	31321.46
448.903	31812.98
449.11	31901.04
449.316	31280.5
449.522	31585.65
449.728	32920.93
449.935	32761.19
450.141	32890.21
450.347	33639.76
450.553	33238.36
450.76	32935.26
450.966	34217.29
451.172	33869.14
451.378	34864.45
451.584	33936.72
451.791	34706.76
451.997	34469.19
452.203	35016
452.409	35634.49
452.615	35228.99
452.821	33850.7
453.027	33275.23
453.233	35233.08
453.44	33500.5
453.646	34352.46
453.852	34377.03
454.058	34823.49
454.264	33705.3
454.47	34594.12
454.676	33619.28
454.882	35167.55
455.088	31776.11
455.294	32777.57
455.5	32806.24
455.705	33076.57
455.911	31796.59
456.117	31393.14
456.323	30942.59
456.529	29244.82
456.735	30850.43
456.941	29603.22
457.147	29519.25
457.352	28552.61
457.558	28376.48
457.764	28214.69
457.97	27323.83
458.176	27241.91
458.381	27065.78
458.587	25794
458.793	25843.15
458.999	24659.42
459.204	26273.22
459.41	25529.81
459.616	23758.31
459.821	23942.63
460.027	23551.47
460.233	23467.5
460.438	22054.4
460.644	22359.55
460.85	21392.91
461.055	20741.66
461.261	20622.87
461.466	19287.6
461.672	18802.23
461.878	20006.44
462.083	19007.03
462.289	18558.52
462.494	18273.85
462.7	17481.29
462.905	17186.38
463.111	17647.18
463.316	17536.59
463.522	17346.12
463.727	17358.41
463.932	17432.14
464.138	16852.56
464.343	17208.91
464.549	16866.9
464.754	17225.29
464.959	16985.68
465.165	16973.39
465.37	16338.52
465.575	15842.92
465.781	16461.4
465.986	16422.49
466.191	15851.11
466.397	15515.24
466.602	14689.91
466.807	15484.52
467.012	15570.54
467.218	15318.64
467.423	15337.07
467.628	15122.03
467.833	15881.83
468.038	15304.3
468.244	14962.29
468.449	15398.51
468.654	14943.86
468.859	14628.47
469.064	14548.6
469.269	14200.44
469.474	14249.6
469.679	14741.11
469.885	14050.94
470.09	14356.09
470.295	14237.31
470.5	13999.74
470.705	13807.23
470.91	13434.5
471.115	13379.21
471.32	13696.64
471.525	13680.26
471.73	13368.97
471.935	13266.57
472.139	12895.89
472.344	13131.4
472.549	12803.73
472.754	12730
472.959	12490.39
473.164	12240.54
473.369	11992.73
473.574	12613.27
473.778	12285.59
473.983	12218.01
474.188	12181.15
474.393	11650.72
474.598	11366.06
474.802	11617.96
475.007	11505.32
475.212	11495.08
475.417	11277.99
475.621	10981.04
475.826	11296.42
476.031	10774.19
476.235	10673.84
476.44	10845.87
476.645	10692.27
476.849	10829.49
477.054	10536.63
477.259	10467
477.463	10446.52
477.668	10241.72
477.872	10356.41
478.077	9973.44
478.282	9901.76
478.486	9862.85
478.691	9699.01
478.895	9635.52
479.1	9707.2
479.304	9600.71
479.509	9371.33
479.713	9469.64
479.918	9381.57
480.122	9252.55
480.326	9268.94
480.531	9475.78
480.735	9236.17
480.94	9062.09
481.144	9400.01
481.348	9074.38
481.553	9076.43
481.757	8830.67
481.961	9027.28
482.166	9264.84
482.37	9139.91
482.574	8949.45
482.778	8920.78
482.983	9205.45
483.187	8947.4
483.391	8949.45
483.595	8916.69
483.8	8898.25
484.004	9000.65
484.208	8879.82
484.412	8873.68
484.616	8984.27
484.821	9035.47
485.025	8765.14
485.229	9115.34
485.433	9019.08
485.637	8885.97
485.841	8810.19
486.045	8969.93
486.249	8951.5
486.453	8822.48
486.657	8912.59
486.861	8840.91
487.065	8734.42
487.269	8920.78
487.473	8773.33
487.677	8814.29
487.881	9068.23
488.085	8861.39
488.289	8875.73
488.493	8697.55
488.697	8869.58
488.901	8920.78
489.105	9039.56
489.309	9092.81
489.512	9148.11
489.716	9066.19
489.92	9023.18
490.124	9023.18
490.328	9158.35
490.531	9158.35
490.735	9250.5
490.939	9342.66
491.143	9283.27
491.346	9273.03
491.55	9289.42
491.754	9184.97
491.958	9326.28
492.161	9375.43
492.365	9422.53
492.569	9406.15
492.772	9451.21
492.976	9371.33
493.18	9483.97
493.383	9789.12
493.587	9625.28
493.79	9772.74
493.994	9608.9
494.197	9789.12
494.401	9785.02
494.605	9653.95
494.808	10045.12
495.012	10022.59
495.215	10180.28
495.419	10426.04
495.622	10145.47
495.825	10213.05
496.029	10428.09
496.232	10598.07
496.436	10761.91
496.639	10702.51
496.843	10716.85
497.046	10960.56
497.249	11105.96
497.453	11065
497.656	11214.51
497.859	11017.9
498.063	11359.91
498.266	11435.69
498.469	11603.62
498.673	11556.52
498.876	11798.18
499.079	12023.45
499.282	11906.72
499.485	12097.18
499.689	12101.28
499.892	12336.79
500.095	12355.22
500.298	12732.05
500.501	12803.73
500.705	12934.8
500.908	13115.02
501.111	13393.54
501.314	13434.5
501.517	13334.15
501.72	13545.09
501.923	13522.57
502.126	13995.65
502.329	14124.67
502.532	14261.88
502.735	14278.27
502.938	14507.64
503.141	14593.65
503.344	14935.67
503.547	14892.66
503.75	15269.48
503.953	15437.42
504.156	15472.23
504.359	15801.96
504.562	15533.67
504.765	15912.55
504.968	16080.48
505.17	16219.74
505.373	16537.18
505.576	16561.75
505.779	16784.98
505.982	16688.73
506.185	17122.9
506.387	17161.81
506.59	17198.67
506.793	17481.29
506.996	17948.23
507.198	17962.56
507.401	18107.97
507.604	18316.86
507.807	18632.25
508.009	18312.77
508.212	18923.06
508.415	19185.2
508.617	19172.91
508.82	19424.81
509.022	19355.18
509.225	19981.86
509.428	20127.27
509.63	20012.58
509.833	20104.74
510.035	20596.25
510.238	20778.52
510.44	20803.1
510.643	20862.49
510.845	21413.39
511.048	21593.61
511.25	21689.87
511.453	21530.12
511.655	22480.38
511.858	22257.15
512.06	22410.75
512.262	22767.1
512.465	22709.75
512.667	23164.4
512.87	23348.72
513.072	23297.52
513.274	24069.61
513.477	23748.07
513.679	24083.94
513.881	24550.88
514.084	24663.52
514.286	24712.67
514.488	24976.86
514.69	25527.76
514.893	25632.21
515.095	25480.66
515.297	25650.64
515.499	25966.03
515.701	26295.75
515.904	26361.28
516.106	26772.92
516.308	26967.48
516.51	27141.56
516.712	27356.6
516.914	27491.76
517.116	28095.91
517.318	28386.72
517.52	28194.22
517.722	28384.68
517.925	28356
518.127	28824.99
518.329	29203.86
518.531	29222.3
518.733	29865.36
518.935	29912.46
519.136	29635.99
519.338	30248.33
519.54	30178.7
519.742	30500.23
519.944	30576
520.146	31440.25
520.348	31274.36
520.55	31509.88
520.752	31567.22
520.954	32079.21
521.155	32071.02
521.357	32583.01
521.559	32943.45
521.761	33052
521.963	33041.76
522.164	33244.51
522.366	33582.42
522.568	33846.61
522.77	33582.42
522.971	33934.67
523.173	33545.56
523.375	34313.55
523.576	34346.31
523.778	34495.81
523.98	34809.15
524.181	34932.03
524.383	34897.22
524.584	35798.32
524.786	35685.68
524.988	35231.04
525.189	35927.35
525.391	36140.33
525.592	36115.76
525.794	36287.79
525.995	36629.8
526.197	36582.7
526.398	36422.95
526.6	36664.61
526.801	36822.31
527.003	36945.19
527.204	37448.99
527.406	37379.35
527.607	37309.72
527.808	37813.52
528.01	37444.89
528.211	37561.62
528.412	38210.83
528.614	37928.21
528.815	37874.96
529.016	38188.3
529.218	37895.44
529.419	38190.35
529.62	38214.93
529.822	38257.93
530.023	38331.66
530.224	38427.91
530.425	38335.76
530.626	38448.39
530.828	38245.65
531.029	39167.23
531.23	38847.75
531.431	38579.46
531.632	38958.34
531.833	39105.79
532.035	39001.35
532.236	38948.1
532.437	39265.53
532.638	38569.22
532.839	39011.59
533.04	39116.03
533.241	38923.52
533.442	39886.07
533.643	39165.18
533.844	38735.11
534.045	38628.62
534.246	38790.41
534.447	38853.89
534.648	39081.22
534.849	39367.93
535.05	39109.89
535.251	39496.95
535.451	38499.59
535.652	39116.03
535.853	39034.11
536.054	39138.56
536.255	39404.8
536.456	39097.6
536.657	39507.19
536.857	39324.93
537.058	39085.31
537.259	39333.12
537.46	39054.59
537.66	39302.4
537.861	38901
538.062	39376.12
538.263	38907.14
538.463	38939.91
538.664	38827.27
538.865	38999.3
539.065	39222.53
539.266	38741.25
539.466	39335.17
539.667	38702.34
539.868	39240.96
540.068	39070.98
540.269	38690.05
540.469	39427.32
540.67	39195.9
540.87	38569.22
541.071	39030.02
541.271	39015.68
541.472	39087.36
541.672	38438.15
541.873	39003.39
542.073	38485.26
542.274	39208.19
542.474	39030.02
542.675	38739.21
542.875	39089.41
543.075	38984.96
543.276	37924.11
543.476	39275.77
543.676	38532.36
543.877	38991.11
544.077	38554.89
544.277	38563.08
544.478	38728.97
544.678	38847.75
544.878	38706.44
545.078	38681.86
545.279	38366.48
545.479	38579.46
545.679	38794.5
545.879	38751.49
546.079	38712.58
546.28	38616.33
546.48	38669.58
546.68	38511.88
546.88	38737.16
547.08	38800.65
547.28	38360.33
547.48	38298.89
547.68	38583.56
547.88	38253.84
548.081	38634.76
548.281	38640.9
548.481	38343.95
548.681	38438.15
548.881	38581.51
549.081	38659.34
549.28	38329.61
549.48	38671.62
549.68	38397.2
549.88	38804.74
550.08	38325.52
550.28	38563.08
550.48	38233.36
550.68	38632.71
550.88	38264.08
551.08	38182.16
551.279	38464.78
551.479	37821.72
551.679	38284.56
551.879	37999.89
552.079	38292.75
552.278	38229.26
552.478	38108.43
552.678	37971.22
552.878	38370.57
553.077	38149.39
553.277	37958.93
553.477	38352.14
553.676	38106.38
553.876	38276.37
554.076	38018.32
554.275	38040.85
554.475	37926.16
554.674	38098.19
554.874	38012.18
555.074	37575.96
555.273	38024.47
555.473	37776.66
555.672	37451.03
555.872	37879.06
556.071	37653.78
556.271	38083.86
556.47	37917.97
556.67	37561.62
556.869	37387.55
557.068	37627.16
557.268	37530.9
557.467	37805.33
557.667	37616.92
557.866	37676.31
558.065	37567.77
558.265	37360.92
558.464	37266.72
558.663	37690.65
558.863	36928.8
559.062	37598.49
559.261	37180.7
559.461	37694.74
559.66	36781.35
559.859	37424.41
560.058	36826.4
560.258	37102.88
560.457	36893.99
560.656	37117.21
560.855	37106.98
561.054	37096.74
561.253	36930.85
561.453	36990.24
561.652	36826.4
561.851	36973.86
562.05	36541.74
562.249	36609.32
562.448	36848.93
562.647	36580.65
562.846	36674.85
563.045	36605.22
563.244	36128.05
563.443	36924.71
563.642	35958.06
563.841	36324.65
564.04	36097.33
564.239	36551.98
564.438	35839.28
564.637	36369.71
564.836	36445.48
565.035	35786.04
565.234	35751.22
565.432	36126
565.631	35804.47
565.83	36031.79
566.029	35792.18
566.228	35847.47
566.427	35601.72
566.625	34968.9
566.824	35231.04
567.023	35458.36
567.222	35147.07
567.42	35697.97
567.619	35099.97
567.818	35196.22
568.016	35104.06
568.215	35376.44
568.414	34983.23
568.612	35282.23
568.811	35028.29
569.01	35206.46
569.208	34401.61
569.407	35104.06
569.605	34272.59
569.804	34843.97
570.002	34487.62
570.201	34417.99
570.4	34153.8
570.598	34291.02
570.797	34248.01
570.995	34647.36
571.193	33731.92
571.392	34590.02
571.59	34059.6
571.789	34071.89
571.987	34020.69
572.186	33965.39
572.384	33688.92
572.582	33912.14
572.781	33701.2
572.979	33607
573.177	33611.09
573.376	33684.82
573.574	33342.81
573.772	33332.57
573.971	33250.65
574.169	33146.2
574.367	32859.49
574.565	33250.65
574.763	32859.49
574.962	32929.12
575.16	32546.15
575.358	32738.66
575.556	32472.42
575.754	32820.58
575.952	32126.32
576.151	32492.9
576.349	32214.38
576.547	32228.71
576.745	32494.95
576.943	32249.19
577.141	32056.68
577.339	32005.48
577.537	31802.74
577.735	32058.73
577.933	31464.82
578.131	31778.16
578.329	31495.54
578.527	31585.65
578.725	31413.62
578.923	31585.65
579.121	31171.96
579.319	31331.7
579.516	31540.6
579.714	31333.75
579.912	31378.81
580.11	30846.33
580.308	31169.91
580.506	31008.12
580.704	30293.38
580.901	30946.69
581.099	30750.08
581.297	30455.17
581.495	30582.15
581.692	30625.15
581.89	30133.64
582.088	30504.32
582.285	30008.72
582.483	30289.29
582.681	30184.84
582.878	30066.06
583.076	29967.76
583.274	30283.14
583.471	29664.66
583.669	29773.2
583.866	29521.3
584.064	30035.34
584.262	29322.65
584.459	29558.16
584.657	29398.42
584.854	29365.65
585.052	29158.81
585.249	29326.74
585.447	29050.27
585.644	28831.13
585.841	28874.14
586.039	29267.35
586.236	28888.48
586.434	28640.67
586.631	28392.87
586.828	28720.54
587.026	28579.23
587.223	28235.17
587.42	28409.25
587.618	28528.03
587.815	27979.18
588.012	28095.91
588.21	27970.99
588.407	28222.89
588.604	27741.61
588.801	27864.49
588.999	27563.44
589.196	27782.57
589.393	27796.91
589.59	27731.37
589.787	27504.05
589.984	27583.92
590.182	27205.05
590.379	27426.23
590.576	27063.74
590.773	27184.57
590.97	26922.43
591.167	27069.88
591.364	26699.2
591.561	27102.65
591.758	26611.14
591.955	26662.33
592.152	26973.63
592.349	26650.05
592.546	26500.54
592.743	26664.38
592.94	26293.7
593.137	26262.98
593.334	26437.06
593.531	26312.13
593.727	26295.75
593.924	25986.5
594.121	25742.8
594.318	25976.26
594.515	25673.17
594.712	26041.8
594.908	25583.05
595.105	25525.71
595.302	25234.9
595.499	25597.39
595.696	25669.07
595.892	24950.23
596.089	25550.29
596.286	24972.76
596.482	25107.93
596.679	25091.54
596.876	25204.18
597.072	24708.57
597.269	25150.93
597.466	24522.21
597.662	24632.8
597.859	24724.96
598.055	24827.35
598.252	24198.63
598.448	24354.27
598.645	24196.58
598.841	24255.97
599.038	24169.96
599.234	24165.86
599.431	23971.3
599.627	24198.63
599.824	24352.23
600.02	23911.91
600.217	23758.31
600.413	23502.32
600.609	23723.5
600.806	23541.23
601.002	23752.17
601.198	23438.83
601.395	23342.58
601.591	23420.4
601.787	23272.95
601.984	23168.5
602.18	23696.88
602.376	23019
602.572	23252.47
602.769	23113.2
602.965	22775.29
603.161	22732.28
603.357	22732.28
603.553	22576.64
603.75	22930.94
603.946	22478.33
604.142	22478.33
604.338	22406.66
604.534	22431.23
604.73	21976.58
604.926	22228.48
605.122	22130.18
605.318	21999.11
605.514	21939.72
605.71	21814.79
605.906	21954.05
606.102	21771.79
606.298	21988.87
606.494	21868.04
606.69	21614.09
606.886	21444.11
607.082	21024.28
607.278	21773.83
607.474	21356.05
607.67	21700.11
607.866	21263.89
608.062	21616.14
608.257	21560.84
608.453	21390.86
608.649	21310.99
608.845	21042.71
609.041	21206.55
609.236	20960.79
609.432	20991.51
609.628	21374.48
609.824	20901.4
610.019	20876.82
610.215	20712.99
610.411	20874.77
610.606	20755.99
610.802	21063.19
610.998	20835.86
611.193	20829.72
611.389	20674.07
611.584	20682.27
611.78	20563.48
611.976	20637.21
612.171	20692.51
612.367	20483.61
612.562	20067.88
612.758	20086.31
612.953	19990.05
613.149	20547.1
613.344	20125.22
613.539	20338.21
613.735	20143.65
613.93	20323.87
614.126	19928.61
614.321	20205.09
614.517	19930.66
614.712	20266.53
614.907	19762.73
615.103	20125.22
615.298	19947.04
615.493	20244
615.688	19719.72
615.884	19973.67
616.079	19545.64
616.274	19562.03
616.47	19785.26
616.665	19775.02
616.86	19398.19
617.055	19406.38
617.25	19289.65
617.445	19521.07
617.641	19250.74
617.836	19502.64
618.031	19168.82
618.226	19297.84
618.421	19119.67
618.616	19766.82
618.811	18751.03
619.006	19256.88
619.201	18943.54
619.396	18978.36
619.591	18697.78
619.786	18773.56
619.981	18589.24
620.176	18722.36
620.371	18388.54
620.566	18345.53
620.761	18253.37
620.956	18460.22
621.151	17980.99
621.346	18376.25
621.541	18118.21
621.735	18124.35
621.93	17884.74
622.125	17854.02
622.32	17665.61
622.515	17481.29
622.709	17348.17
622.904	17677.9
623.099	17536.59
623.294	17452.62
623.488	17104.46
623.683	17450.57
623.878	16762.45
624.072	16936.53
624.267	16834.13
624.462	17002.07
624.656	16705.11
624.851	16719.45
625.046	16367.2
625.24	16514.65
625.435	16330.33
625.629	16277.08
625.824	16373.34
626.018	16146.01
626.213	16043.62
626.407	16000.61
626.602	15939.17
626.796	16006.75
626.991	15562.34
627.185	15752.8
627.38	15738.47
627.574	15429.23
627.768	15203.95
627.963	15191.66
628.157	15191.66
628.352	15113.84
628.546	15044.21
628.74	15101.55
628.935	14931.57
629.129	14857.84
629.323	14532.22
629.517	14632.57
629.712	14515.83
629.906	14628.47
630.1	14446.2
630.294	14470.78
630.489	14272.12
630.683	14450.3
630.877	13956.74
631.071	13969.02
631.265	13868.67
631.459	13960.83
631.653	13708.93
631.848	13721.22
632.042	13731.46
632.236	13876.87
632.43	13620.87
632.624	13557.38
632.818	13381.26
633.012	13598.34
633.206	13434.5
633.4	13434.5
633.594	12899.98
633.788	13160.08
633.982	13033.1
634.176	13088.4
634.369	12863.12
634.563	12822.16
634.757	12697.24
634.951	12869.26
635.145	12633.75
635.339	12793.49
635.533	12353.18
635.726	12603.03
635.92	12375.7
636.114	12369.56
636.308	12306.07
636.501	12263.07
636.695	12332.7
636.889	11916.96
637.083	12025.5
637.276	12060.32
637.47	12097.18
637.664	11859.62
637.857	11740.83
638.051	11828.9
638.244	11781.79
638.438	11714.21
638.632	11622.05
638.825	11478.69
639.019	11206.31
639.212	11214.51
639.406	11513.51
639.599	11433.64
639.793	11300.52
639.986	11151.02
640.18	11198.12
640.373	11007.66
640.567	10847.92
640.76	11019.95
640.954	11120.3
641.147	10798.77
641.34	10749.62
641.534	10772.14
641.727	10684.08
641.92	10649.27
642.114	10473.14
642.307	10628.79
642.5	10364.6
642.694	10278.58
642.887	10227.39
643.08	10487.48
643.273	10284.73
643.467	10198.71
643.66	10176.19
643.853	10153.66
644.046	9928.38
644.239	10002.11
644.432	9891.52
644.626	9772.74
644.819	9782.98
645.012	9645.76
645.205	9486.02
645.398	9889.47
645.591	9496.26
645.784	9494.21
645.977	9332.42
646.17	9481.92
646.363	9264.84
646.556	9334.47
646.749	9289.42
646.942	9180.87
647.135	9078.47
647.328	9289.42
647.521	9027.28
647.714	8867.53
647.907	9146.06
648.099	9154.25
648.292	9150.15
648.485	8955.6
648.678	8816.33
648.871	8851.15
649.064	8603.35
649.256	8783.57
649.449	8427.22
649.642	8572.63
649.835	8650.45
650.027	8558.29
650.22	8658.64
650.413	8390.36
650.605	8369.88
650.798	8322.77
650.991	8261.34
651.183	8187.61
651.376	8216.28
651.568	8267.48
651.761	8142.55
651.954	8021.72
652.146	8089.31
652.339	8111.83
652.531	8052.44
652.724	7970.52
652.916	7694.05
653.109	7851.74
653.301	7632.61
653.494	7796.45
653.686	7728.86
653.879	8011.48
654.071	7696.1
654.263	7648.99
654.456	7528.16
654.648	7655.14
654.84	7442.15
655.033	7499.49
655.225	7393
655.417	7243.49
655.61	7284.45
655.802	7220.97
655.994	7335.65
656.186	7257.83
656.379	7204.58
656.571	7233.25
656.763	7069.42
656.955	7071.47
657.148	7038.7
657.34	6962.92
657.532	6954.73
657.724	7100.14
657.916	6788.85
658.108	7016.17
658.3	6807.28
658.492	6751.98
658.684	6768.37
658.876	6751.98
659.068	6665.97
659.26	6514.42
659.452	6565.62
659.644	6579.95
659.836	6588.14
660.028	6582
660.22	6399.73
660.412	6467.31
660.604	6344.44
660.796	6270.71
660.988	6258.42
661.18	6330.1
661.372	6233.85
661.563	6059.77
661.755	6213.37
661.947	6217.46
662.139	6176.5
662.331	6305.53
662.522	5986.04
662.714	6041.34
662.906	6086.39
663.097	6045.43
663.289	6012.67
663.481	5840.64
663.673	5969.66
663.864	5975.8
664.056	5732.09
664.247	5764.86
664.439	5689.09
664.631	5777.15
664.822	5742.33
665.014	5834.49
665.205	5637.89
665.397	5648.13
665.588	5693.18
665.78	5467.91
665.971	5611.26
666.163	5615.36
666.354	5316.36
666.546	5482.24
666.737	5531.39
666.929	5302.02
667.12	5394.18
667.311	5340.93
667.503	5312.26
667.694	5478.15
667.885	5222.15
668.077	5168.9
668.268	5154.57
668.459	5252.87
668.651	5148.42
668.842	5273.35
669.033	5293.83
669.224	5279.49
669.416	5089.03
669.607	5021.45
669.798	5080.84
669.989	5177.09
670.18	5189.38
670.371	5125.9
670.563	5000.97
670.754	4927.24
670.945	4810.51
671.136	4939.53
671.327	4824.84
671.518	4757.26
671.709	4906.76
671.9	4982.54
672.091	4931.34
672.282	4845.32
672.473	4695.82
672.664	4718.35
672.855	4759.31
673.046	4792.08
673.237	4757.26
673.428	4738.83
673.619	4661.01
673.809	4753.16
674	4595.47
674.191	4730.64
674.382	4726.54
674.573	4509.46
674.764	4587.28
674.954	4558.61
675.145	4394.77
675.336	4591.38
675.527	4472.59
675.717	4605.71
675.908	4521.74
676.099	4503.31
676.289	4572.94
676.48	4458.26
676.671	4357.91
676.861	4488.98
677.052	4419.35
677.243	4429.59
677.433	4189.97
677.624	4302.61
677.814	4302.61
678.005	4364.05
678.195	4398.87
678.386	4243.22
678.576	4212.5
678.767	4235.03
678.957	4120.34
679.148	4284.18
679.338	4245.27
679.529	4374.29
679.719	4224.79
679.909	4267.8
680.1	4179.73
680.29	4153.11
680.481	4169.49
680.671	4286.23
680.861	4169.49
681.052	4220.69
681.242	4130.58
681.432	4118.29
681.622	4022.04
681.813	4036.38
682.003	4224.79
682.193	3991.32
682.383	3989.27
682.573	4054.81
682.764	4044.57
682.954	3974.94
683.144	4038.42
683.334	3850.01
683.524	3960.6
683.714	3940.12
683.904	3956.5
684.094	3997.46
684.284	4093.72
684.474	4089.62
684.664	3983.13
684.854	3950.36
685.044	3970.84
685.234	3974.94
685.424	3843.87
685.614	3925.79
685.804	3720.99
685.994	3768.09
686.184	3858.2
686.374	3764
686.564	3772.19
686.753	3735.32
686.943	3682.08
687.133	3776.28
687.323	3817.24
687.513	3704.6
687.702	3645.21
687.892	3757.85
688.082	3628.83
688.272	3630.88
688.461	3632.93
688.651	3622.69
688.841	3559.2
689.03	3720.99
689.22	3522.34
689.41	3538.72
689.599	3587.87
689.789	3540.77
689.979	3491.62
690.168	3602.21
690.358	3467.04
690.547	3491.62
690.737	3256.1
690.926	3333.92
691.116	3415.84
691.305	3342.11
691.495	3446.56
691.684	3327.78
691.874	3413.79
692.063	3249.96
692.252	3497.76
692.442	3415.84
692.631	3393.31
692.82	3145.51
693.01	3202.85
693.199	3163.94
693.388	3176.23
693.578	3299.11
693.767	3178.28
693.956	3243.81
694.146	3174.18
694.335	3245.86
694.524	3172.13
694.713	3186.47
694.902	3362.59
695.092	3088.17
695.281	3075.88
695.47	3155.75
695.659	3014.44
695.848	3153.7
696.037	3006.25
696.226	3131.17
696.415	3131.17
696.604	3057.45
696.793	3039.01
696.982	2998.06
697.171	3047.21
697.36	3026.73
697.549	3051.3
697.738	2991.91
697.927	2895.66
698.116	3039.01
698.305	2909.99
698.494	3079.97
698.683	2983.72
698.872	2883.37
699.061	2967.34
699.25	3063.59
699.438	2998.06
699.627	2924.33
699.816	2885.42
700.005	2887.47
700.193	2815.79
700.382	2877.23
700.571	2860.84
700.76	2909.99
700.948	3018.54
701.137	2838.31
701.326	2793.26
701.514	2819.88
701.703	2791.21
701.892	2866.99
702.08	2936.62
702.269	2897.71
702.457	2764.59
702.646	2873.13
702.834	2799.4
703.023	2893.61
703.212	2836.27
703.4	2852.65
703.589	2690.86
703.777	2744.11
703.965	2717.48
704.154	2725.68
704.342	2762.54
704.531	2594.61
704.719	2748.2
704.907	2828.07
705.096	2664.24
705.284	2740.01
705.472	2721.58
705.661	2752.3
705.849	2725.68
706.037	2737.96
706.226	2705.2
706.414	2703.15
706.602	2690.86
706.79	2776.87
706.979	2647.85
707.167	2684.72
707.355	2557.74
707.543	2602.8
707.731	2703.15
707.919	2649.9
708.107	2615.09
708.296	2608.94
708.484	2750.25
708.672	2639.66
708.86	2643.76
709.048	2715.44
709.236	2637.61
709.424	2567.98
709.612	2621.23
709.8	2606.89
709.988	2613.04
710.176	2654
710.364	2527.02
710.551	2596.65
710.739	2506.54
710.927	2617.13
711.115	2600.75
711.303	2486.06
711.491	2582.32
711.679	2527.02
711.866	2514.73
712.054	2547.5
712.242	2469.68
712.43	2600.75
712.617	2637.61
712.805	2604.85
712.993	2529.07
713.181	2551.6
713.368	2631.47
713.556	2592.56
713.744	2543.41
713.931	2758.44
714.119	2432.82
714.306	2592.56
714.494	2481.97
714.682	2518.83
714.869	2477.87
715.057	2469.68
715.244	2514.73
715.432	2486.06
715.619	2457.39
715.807	2473.78
715.994	2529.07
716.182	2447.15
716.369	2522.93
716.556	2471.73
716.744	2490.16
716.931	2508.59
717.119	2473.78
717.306	2533.17
717.493	2451.25
717.681	2441.01
717.868	2406.19
718.055	2361.14
718.242	2522.93
718.43	2363.19
718.617	2506.54
718.804	2389.81
718.991	2383.66
719.179	2471.73
719.366	2428.72
719.553	2447.15
719.74	2420.53
719.927	2369.33
720.114	2455.34
720.301	2359.09
720.488	2338.61
720.676	2359.09
720.863	2385.71
721.05	2430.77
721.237	2381.62
721.424	2420.53
721.611	2516.78
721.798	2244.4
721.985	2395.95
722.172	2383.66
722.358	2252.59
722.545	2373.43
722.732	2387.76
722.919	2477.87
723.106	2400.05
723.293	2383.66
723.48	2371.38
723.667	2395.95
723.853	2275.12
724.04	2365.23
724.227	2361.14
724.414	2228.02
724.6	2260.79
724.787	2416.43
724.974	2383.66
725.161	2318.13
725.347	2244.4
725.534	2234.16
725.72	2338.61
725.907	2395.95
726.094	2234.16
726.28	2252.59
726.467	2254.64
726.653	2164.53
726.84	2328.37
727.027	2309.94
727.213	2193.2
727.4	2268.98
727.586	2293.55
727.773	2295.6
727.959	2264.88
728.145	2322.23
728.332	2252.59
728.518	2238.26
728.705	2369.33
728.891	2252.59
729.077	2303.79
729.264	2164.53
729.45	2230.07
729.636	2178.87
729.823	2219.83
730.009	2211.64
730.195	2150.2
730.382	2328.37
730.568	2246.45
730.754	2158.39
730.94	2182.96
731.126	2289.46
731.313	2221.88
731.499	2217.78
731.685	2182.96
731.871	2187.06
732.057	2217.78
732.243	2275.12
732.429	2244.4
732.615	2248.5
732.801	2193.2
732.987	2225.97
733.173	2260.79
733.359	2244.4
733.545	2228.02
733.731	2195.25
733.917	2309.94
734.103	2031.41
734.289	2230.07
734.475	2182.96
734.661	2305.84
734.847	2309.94
735.033	2154.29
735.219	2228.02
735.404	2178.87
735.59	2060.09
735.776	2252.59
735.962	2182.96
736.148	2252.59
736.333	2113.33
736.519	2182.96
736.705	2187.06
736.89	2051.89
737.076	2099
737.262	2105.14
737.447	2166.58
737.633	2131.76
737.819	2185.01
738.004	2123.57
738.19	2137.91
738.375	2244.4
738.561	2166.58
738.747	2146.1
738.932	2008.89
739.118	2164.53
739.303	1982.26
739.489	2076.47
739.674	2111.29
739.859	2041.65
740.045	2080.57
740.23	2096.95
740.416	1924.92
740.601	2017.08
740.786	2035.51
740.972	2006.84
741.157	2039.61
741.342	1929.02
741.528	1978.17
741.713	1982.26
741.898	1939.26
742.084	1990.45
742.269	1910.58
742.454	1957.69
742.639	2017.08
742.824	1945.4
743.01	1967.93
743.195	2002.74
743.38	1959.74
743.565	1896.25
743.75	1894.2
743.935	1908.54
744.12	1955.64
744.305	1890.1
744.49	1877.82
744.675	1867.58
744.86	1843
745.045	1808.19
745.23	1777.47
745.415	1883.96
745.6	1851.19
745.785	1793.85
745.97	1867.58
746.155	1855.29
746.34	1793.85
746.525	1789.75
746.71	1748.79
746.895	1689.4
747.079	1843
747.264	1670.97
747.449	1736.51
747.634	1654.59
747.819	1713.98
748.003	1617.72
748.188	1765.18
748.373	1720.12
748.557	1773.37
748.742	1765.18
748.927	1759.03
749.111	1679.16
749.296	1630.01
749.481	1625.92
749.665	1716.03
749.85	1697.6
750.034	1679.16
750.219	1648.44
750.404	1541.95
750.588	1472.32
750.773	1482.56
750.957	1500.99
751.141	1511.23
751.326	1453.89
751.51	1408.83
751.695	1517.37
751.879	1470.27
752.064	1531.71
752.248	1470.27
752.432	1640.25
752.617	1500.99
752.801	1451.84
752.985	1453.89
753.17	1386.3
753.354	1408.83
753.538	1412.93
753.722	1408.83
753.907	1439.55
754.091	1421.12
754.275	1314.63
754.459	1343.3
754.643	1294.15
754.828	1318.72
755.012	1417.02
755.196	1259.33
755.38	1326.91
755.564	1212.23
755.748	1236.8
755.932	1228.61
756.116	1257.28
756.3	1228.61
756.484	1306.43
756.668	1263.43
756.852	1173.32
757.036	1201.99
757.22	1175.36
757.404	1191.75
757.588	1212.23
757.772	1187.65
757.956	1208.13
758.14	1181.51
758.323	1075.01
758.507	1056.58
758.691	1138.5
758.875	1118.02
759.059	1126.21
759.242	1113.92
759.426	1113.92
759.61	1126.21
759.794	1054.53
759.977	1138.5
760.161	1230.66
760.345	1144.64
760.528	1072.96
760.712	1099.59
760.895	1072.96
761.079	997.19
761.263	1048.39
761.446	1122.12
761.63	1056.58
761.813	986.95
761.997	1023.81
762.18	1023.81
762.364	943.94
762.547	859.98
762.731	952.13
762.914	900.94
763.098	1036.1
763.281	1023.81
763.464	1060.68
763.648	986.95
763.831	1089.35
764.015	1003.33
764.198	993.09
764.381	868.17
764.564	917.32
764.748	1034.05
764.931	917.32
765.114	819.02
765.297	896.84
765.481	919.37
765.664	882.5
765.847	847.69
766.03	892.74
766.213	970.57
766.397	950.09
766.58	819.02
766.763	952.13
766.946	851.78
767.129	831.3
767.312	888.65
767.495	892.74
767.678	794.44
767.861	872.26
768.044	872.26
768.227	925.51
768.41	802.63
768.593	894.79
768.776	778.06
768.959	782.15
769.142	917.32
769.324	835.4
769.507	915.27
769.69	851.78
769.873	802.63
770.056	892.74
770.239	776.01
770.421	849.74
770.604	782.15
770.787	753.48
770.97	808.78
771.152	755.53
771.335	745.29
771.518	786.25
771.7	790.35
771.883	800.59
772.066	720.71
772.248	819.02
772.431	792.39
772.613	769.87
772.796	784.2
772.978	733
773.161	798.54
773.343	687.95
773.526	755.53
773.708	671.56
773.891	698.19
774.073	765.77
774.256	649.04
774.438	726.86
774.621	663.37
774.803	728.91
774.985	706.38
775.168	640.84
775.35	710.47
775.532	712.52
775.715	730.95
775.897	663.37
776.079	663.37
776.261	646.99
776.444	657.23
776.626	739.15
776.808	585.55
776.99	616.27
777.173	642.89
777.355	560.97
777.537	587.6
777.719	638.8
777.901	575.31
778.083	606.03
778.265	577.36
778.447	622.41
778.629	573.26
778.811	556.88
778.993	552.78
779.175	591.69
779.357	589.64
779.539	610.12
779.721	565.07
779.903	620.36
780.085	532.3
780.267	593.74
780.449	503.63
780.631	571.21
780.812	558.92
780.994	534.35
781.176	487.25
781.358	499.53
781.54	495.44
781.721	560.97
781.903	524.11
782.085	501.58
782.267	569.16
782.448	483.15
782.63	468.81
782.812	458.57
782.993	550.73
783.175	454.48
783.357	442.19
783.538	536.4
783.72	509.77
783.901	442.19
784.083	444.24
784.264	491.34
784.446	558.92
784.627	491.34
784.809	419.66
784.99	397.14
785.172	386.9
785.353	483.15
785.535	417.61
785.716	356.18
785.897	360.27
786.079	419.66
786.26	460.62
786.441	438.09
786.623	399.18
786.804	403.28
786.985	352.08
787.167	403.28
787.348	413.52
787.529	384.85
787.71	425.81
787.891	452.43
788.073	401.23
788.254	405.33
788.435	425.81
788.616	434
788.797	390.99
788.978	380.75
789.159	370.51
789.34	382.8
789.522	366.42
789.703	352.08
789.884	403.28
790.065	380.75
790.246	376.66
790.427	343.89
790.607	415.57
790.788	329.55
790.969	294.74
791.15	327.5
791.331	241.49
791.512	372.56
791.693	386.9
791.874	319.31
792.054	331.6
792.235	321.36
792.416	284.5
792.597	268.11
792.778	339.79
792.958	345.94
793.139	245.59
793.32	253.78
793.5	335.7
793.681	298.83
793.862	313.17
794.042	354.13
794.223	280.4
794.404	274.26
794.584	272.21
794.765	231.25
794.945	241.49
795.126	323.41
795.306	356.18
795.487	257.87
795.667	245.59
795.848	194.39
796.028	319.31
796.209	233.3
796.389	282.45
796.57	294.74
796.75	218.96
796.93	290.64
797.111	208.72
797.291	208.72
797.471	237.39
797.652	237.39
797.832	200.53
798.012	288.59
798.192	247.63
798.373	221.01
798.553	282.45
798.733	266.07
798.913	249.68
799.093	239.44
799.274	261.97
799.454	255.83
799.634	335.7
799.814	304.98
799.994	227.15
800.174	235.35
800.354	165.71
800.534	188.24
800.714	237.39
800.894	245.59
801.074	286.54
801.254	208.72
801.434	175.95
801.614	223.06
801.794	190.29
801.974	687.95
802.154	171.86
802.334	261.97
802.514	161.62
802.693	253.78
802.873	155.47
803.053	192.34
803.233	184.15
803.413	214.87
803.592	206.67
803.772	245.59
803.952	245.59
804.131	147.28
804.311	253.78
804.491	257.87
804.67	184.15
804.85	149.33
805.03	227.15
805.209	196.43
805.389	237.39
805.568	237.39
805.748	178
805.928	196.43
806.107	237.39
806.287	190.29
806.466	159.57
806.646	223.06
806.825	186.19
807.004	122.71
807.184	192.34
807.363	186.19
807.543	223.06
807.722	139.09
807.901	227.15
808.081	286.54
808.26	83.8
808.439	200.53
808.619	163.67
808.798	198.48
808.977	114.52
809.156	216.91
809.336	147.28
809.515	186.19
809.694	132.95
809.873	182.1
810.052	157.52
810.231	280.4
810.411	182.1
810.59	192.34
810.769	100.18
810.948	130.9
811.127	10.07
811.306	180.05
811.485	192.34
811.664	126.8
811.843	114.52
812.022	122.71
812.201	139.09
812.38	206.67
812.559	198.48
812.737	137.04
812.916	51.03
813.095	118.61
813.274	202.58
813.453	147.28
813.632	198.48
813.811	118.61
813.989	120.66
814.168	132.95
814.347	155.47
814.526	155.47
814.704	155.47
814.883	85.84
815.062	94.04
815.24	77.65
815.419	85.84
815.598	155.47
815.776	38.74
815.955	87.89
816.133	147.28
816.312	79.7
816.49	130.9
816.669	124.76
816.847	122.71
817.026	196.43
817.204	59.22
817.383	124.76
817.561	116.56
817.74	110.42
817.918	120.66
818.097	55.12
818.275	128.85
818.453	104.28
818.632	139.09
818.81	81.75
818.988	147.28
819.167	108.37
819.345	114.52
819.523	135
819.701	81.75
819.879	100.18
820.058	165.71
820.236	171.86
820.414	122.71
820.592	147.28
820.77	143.19
820.948	124.76
821.127	135
821.305	155.47
821.483	73.56
821.661	83.8
821.839	120.66
822.017	147.28
822.195	167.76
822.373	91.99
822.551	104.28
822.729	188.24
822.907	110.42
823.085	159.57
823.262	28.5
823.44	139.09
823.618	108.37
823.796	104.28
823.974	59.22
824.152	73.56
824.329	71.51
824.507	149.33
824.685	102.23
824.863	94.04
825.04	48.98
825.218	83.8
825.396	67.41
825.574	81.75
825.751	100.18
825.929	165.71
826.107	85.84
826.284	28.5
826.462	163.67
826.639	81.75
826.817	22.36
826.994	32.6
827.172	81.75
827.349	91.99
827.527	108.37
827.704	151.38
827.882	100.18
828.059	89.94
828.237	83.8
828.414	139.09
828.591	34.64
828.769	63.32
828.946	3.93
829.124	135
829.301	10.07
829.478	51.03
829.655	157.52
829.833	75.6
830.01	20.31
830.187	124.76
830.364	67.41
830.542	10.07
830.719	98.13
830.896	102.23
831.073	69.46
831.25	44.88
831.427	124.76
831.604	40.79
831.782	-0.17
831.959	106.32
832.136	65.36
832.313	34.64
832.49	132.95
832.667	79.7
832.844	69.46
833.021	91.99
833.198	48.98
833.374	63.32
833.551	46.93
833.728	32.6
833.905	77.65
834.082	73.56
834.259	44.88
834.436	83.8
834.612	34.64
834.789	100.18
834.966	40.79
835.143	40.79
835.319	-4.27
835.496	89.94
835.673	53.08
835.85	69.46
836.026	51.03
836.203	73.56
836.38	77.65
836.556	110.42
836.733	85.84
836.909	85.84
837.086	46.93
837.262	16.21
837.439	81.75
837.616	57.17
837.792	116.56
837.968	48.98
838.145	73.56
838.321	16.21
838.498	118.61
838.674	94.04
838.851	100.18
839.027	91.99
839.203	44.88
839.38	98.13
839.556	16.21
839.732	83.8
839.909	-6.31
840.085	145.24
840.261	24.4
840.437	1.88
840.614	112.47
840.79	89.94
840.966	139.09
841.142	89.94
841.318	36.69
841.494	26.45
841.671	1.88
841.847	55.12
842.023	16.21
842.199	44.88
842.375	118.61
842.551	42.84
842.727	18.26
842.903	34.64
843.079	28.5
843.255	44.88
843.431	53.08
843.607	114.52
843.783	16.21
843.959	73.56
844.134	53.08
844.31	151.38
844.486	34.64
844.662	16.21
844.838	40.79
845.013	14.17
845.189	63.32
845.365	94.04
845.541	73.56
845.716	34.64
845.892	48.98
846.068	53.08
846.244	73.56
846.419	18.26
846.595	55.12
846.77	10.07
846.946	85.84
847.122	96.08
847.297	40.79
847.473	71.51
847.648	-12.46
847.824	69.46
847.999	-0.17
848.175	-16.55
848.35	20.31
848.526	55.12
848.701	108.37
848.876	67.41
849.052	20.31
849.227	14.17
849.403	110.42
849.578	30.55
849.753	-20.65
849.929	69.46
850.104	57.17
850.279	106.32
850.454	24.4
850.63	59.22
850.805	59.22
850.98	40.79
851.155	28.5
851.33	42.84
851.505	40.79
851.681	89.94
851.856	-14.51
852.031	85.84
852.206	-8.36
852.381	-20.65
852.556	-65.71
852.731	94.04
852.906	85.84
853.081	28.5
853.256	42.84
853.431	32.6
853.606	28.5
853.781	26.45
853.956	16.21
854.131	8.02
854.305	-24.75
854.48	100.18
854.655	63.32
854.83	65.36
855.005	10.07
855.18	59.22
855.354	34.64
855.529	40.79
855.704	22.36
855.879	12.12
856.053	42.84
856.228	-6.31
856.403	16.21
856.577	10.07
856.752	20.31
856.926	3.93
857.101	-32.94
857.276	48.98
857.45	44.88
857.625	42.84
857.799	65.36
857.974	71.51
858.148	32.6
858.323	67.41
858.497	-8.36
858.672	69.46
858.846	28.5
859.02	135
859.195	-104.62
859.369	-8.36
859.543	61.27
859.718	85.84
859.892	26.45
860.066	48.98
860.241	-32.94
860.415	34.64
860.589	10.07
860.763	65.36
860.938	-10.41
861.112	34.64
861.286	75.6
861.46	3.93
861.634	73.56
861.808	10.07
861.982	57.17
862.157	-32.94
862.331	108.37
862.505	10.07
862.679	-80.04
862.853	28.5
863.027	-24.75
863.201	16.21
863.375	3.93
863.549	135
863.722	36.69
863.896	20.31
864.07	48.98
864.244	1.88
864.418	36.69
864.592	-45.23
864.766	40.79
864.939	-0.17
865.113	-4.27
865.287	67.41
865.461	24.4
865.634	48.98
865.808	-47.27
865.982	30.55
866.156	44.88
866.329	34.64
866.503	67.41
866.676	53.08
866.85	3.93
867.024	8.02
867.197	100.18
867.371	-10.41
867.544	12.12
867.718	24.4
867.891	18.26
868.065	-53.42
868.238	16.21
868.412	8.02
868.585	32.6
868.759	-8.36
868.932	-12.46
869.105	24.4
869.279	46.93
869.452	-37.03
869.625	40.79
869.799	-8.36
869.972	22.36
870.145	-96.43
870.319	65.36
870.492	16.21
870.665	28.5
870.838	-0.17
871.011	-8.36
871.185	8.02
871.358	65.36
871.531	10.07
871.704	-41.13
871.877	-18.6
872.05	36.69
872.223	-49.32
872.396	22.36
872.569	28.5
872.742	28.5
872.915	-14.51
873.088	8.02
873.261	-6.31
873.434	63.32
873.607	69.46
873.78	30.55
873.953	-30.89
874.126	51.03
874.299	-24.75
874.471	-63.66
874.644	-49.32
874.817	-0.17
874.99	141.14
875.163	53.08
875.335	12.12
875.508	1.88
875.681	61.27
875.853	-24.75
876.026	94.04
876.199	81.75
876.371	-57.51
876.544	-20.65
876.717	-30.89
876.889	61.27
877.062	65.36
877.234	-6.31
877.407	32.6
877.579	20.31
877.752	14.17
877.924	-30.89
878.097	94.04
878.269	1.88
878.442	40.79
878.614	89.94
878.786	59.22
878.959	18.26
879.131	63.32
879.303	-22.7
879.476	16.21
879.648	-14.51
879.82	46.93
879.993	20.31
880.165	24.4
880.337	-32.94
880.509	1.88
880.681	89.94
880.854	81.75
881.026	10.07
881.198	83.8
881.37	-28.84
881.542	1.88
881.714	14.17
881.886	-32.94
882.058	10.07
882.23	10.07
882.402	51.03
882.574	-37.03
882.746	-22.7
882.918	10.07
883.09	-39.08
883.262	10.07
883.434	26.45
883.606	40.79
883.778	75.6
883.95	48.98
884.122	112.47
884.293	-69.8
884.465	77.65
884.637	10.07
884.809	10.07
884.98	42.84
885.152	18.26
885.324	22.36
885.496	28.5
885.667	44.88
885.839	-12.46
886.011	3.93
886.182	12.12
886.354	48.98
886.525	-22.7
886.697	-22.7
886.869	-10.41
887.04	10.07
887.212	16.21
887.383	94.04
887.555	38.74
887.726	48.98
887.897	71.51
888.069	16.21
888.24	-16.55
888.412	-51.37
888.583	18.26
888.754	-16.55
888.926	24.4
889.097	-4.27
889.268	-20.65
889.44	40.79
889.611	-53.42
889.782	30.55
889.953	48.98
890.125	18.26
890.296	-30.89
890.467	44.88
890.638	-49.32
890.809	36.69
890.98	16.21
891.151	24.4
891.323	91.99
891.494	18.26
891.665	16.21
891.836	8.02
892.007	18.26
892.178	32.6
892.349	65.36
892.52	55.12
892.691	12.12
892.862	3.93
893.032	5.97
893.203	16.21
893.374	73.56
893.545	1.88
893.716	5.97
893.887	28.5
894.057	28.5
894.228	81.75
894.399	-43.18
894.57	65.36
894.74	-8.36
894.911	-53.42
895.082	-10.41
895.253	-20.65
895.423	-63.66
895.594	-65.71
895.764	-4.27
895.935	-59.56
896.106	16.21
896.276	-39.08
896.447	-47.27
896.617	12.12
896.788	-65.71
896.958	34.64
897.129	34.64
897.299	12.12
897.47	30.55
897.64	24.4
897.81	-30.89
897.981	-12.46
898.151	5.97
898.322	20.31
898.492	8.02
898.662	24.4
898.832	8.02
899.003	10.07
899.173	46.93
899.343	-30.89
899.513	-14.51
