Data from USB4F104151__113__14-18-19-433.txt Node

Date: Thu Mar 13 14:18:19 EDT 2025
User: louis
Spectrometer: USB4F10415
Trigger mode: 4
Integration Time (sec): 2.000000E-2
Scans to average: 1
Electric dark correction enabled: true
Nonlinearity correction enabled: false
Boxcar width: 0
XAxis mode: Wavelengths
Number of Pixels in Spectrum: 3648
>>>>>Begin Spectral Data<<<<<
178.204	-108.54
178.424	-108.54
178.644	-108.54
178.864	-159.74
179.084	-174.08
179.304	81.92
179.524	-36.86
179.744	-55.3
179.964	-4.1
180.184	28.67
180.404	-20.48
180.624	22.53
180.844	36.86
181.064	-83.97
181.283	-4.1
181.503	6.14
181.723	28.67
181.943	-45.06
182.163	4.1
182.383	-4.1
182.602	-36.86
182.822	12.29
183.042	28.67
183.262	-36.86
183.482	-4.1
183.701	32.77
183.921	20.48
184.141	-77.82
184.361	81.92
184.58	18.43
184.8	55.3
185.02	47.1
185.239	55.3
185.459	-45.06
185.679	38.91
185.898	30.72
186.118	98.3
186.338	16.38
186.557	102.4
186.777	-10.24
186.997	22.53
187.216	-26.62
187.436	96.25
187.655	55.3
187.875	28.67
188.095	-14.34
188.314	12.29
188.534	-40.96
188.753	2.05
188.973	45.06
189.192	110.59
189.412	28.67
189.631	4.1
189.851	14.34
190.07	77.82
190.29	-36.86
190.509	86.01
190.729	-4.1
190.948	22.53
191.168	86.01
191.387	-4.1
191.607	-10.24
191.826	32.77
192.045	40.96
192.265	-22.53
192.484	2.05
192.704	30.72
192.923	-20.48
193.142	110.59
193.362	-59.39
193.581	-14.34
193.8	-18.43
194.02	53.25
194.239	63.49
194.458	67.58
194.678	71.68
194.897	36.86
195.116	12.29
195.335	22.53
195.555	-20.48
195.774	32.77
195.993	-2.05
196.212	53.25
196.432	-2.05
196.651	-24.58
196.87	-36.86
197.089	81.92
197.308	90.11
197.528	53.25
197.747	65.53
197.966	-18.43
198.185	55.3
198.404	61.44
198.623	-4.1
198.842	-4.1
199.062	-53.25
199.281	2.05
199.5	49.15
199.719	26.62
199.938	110.59
200.157	18.43
200.376	4.1
200.595	53.25
200.814	16.38
201.033	110.59
201.252	90.11
201.471	38.91
201.69	20.48
201.909	40.96
202.128	22.53
202.347	6.14
202.566	47.1
202.785	-40.96
203.004	32.77
203.223	77.82
203.442	-12.29
203.661	57.34
203.879	14.34
204.098	51.2
204.317	28.67
204.536	104.45
204.755	71.68
204.974	28.67
205.193	45.06
205.411	104.45
205.63	18.43
205.849	-8.19
206.068	-12.29
206.287	-18.43
206.505	16.38
206.724	26.62
206.943	24.58
207.162	61.44
207.381	114.69
207.599	-55.3
207.818	73.73
208.037	36.86
208.255	38.91
208.474	-61.44
208.693	53.25
208.911	10.24
209.13	83.97
209.349	-40.96
209.567	2.05
209.786	75.77
210.005	49.15
210.223	86.01
210.442	6.14
210.661	94.21
210.879	-20.48
211.098	12.29
211.316	24.58
211.535	59.39
211.753	45.06
211.972	90.11
212.191	4.1
212.409	12.29
212.628	-2.05
212.846	38.91
213.065	61.44
213.283	10.24
213.502	30.72
213.72	38.91
213.938	32.77
214.157	-14.34
214.375	16.38
214.594	12.29
214.812	18.43
215.031	45.06
215.249	-2.05
215.467	28.67
215.686	43.01
215.904	36.86
216.122	18.43
216.341	18.43
216.559	67.58
216.778	36.86
216.996	45.06
217.214	36.86
217.432	67.58
217.651	94.21
217.869	4.1
218.087	53.25
218.306	12.29
218.524	40.96
218.742	4.1
218.96	43.01
219.179	47.1
219.397	4.1
219.615	129.02
219.833	-26.62
220.051	24.58
220.27	8.19
220.488	22.53
220.706	-18.43
220.924	63.49
221.142	-16.38
221.36	12.29
221.578	61.44
221.796	-16.38
222.015	10.24
222.233	16.38
222.451	71.68
222.669	73.73
222.887	2.05
223.105	-28.67
223.323	-28.67
223.541	63.49
223.759	63.49
223.977	28.67
224.195	55.3
224.413	-32.77
224.631	20.48
224.849	24.58
225.067	102.4
225.285	-32.77
225.503	-32.77
225.721	4.1
225.939	-47.1
226.157	24.58
226.375	106.49
226.592	24.58
226.81	-16.38
227.028	65.53
227.246	114.69
227.464	88.06
227.682	-6.14
227.9	45.06
228.117	55.3
228.335	92.16
228.553	90.11
228.771	40.96
228.989	6.14
229.206	4.1
229.424	-12.29
229.642	38.91
229.86	-83.97
230.077	16.38
230.295	-0
230.513	73.73
230.731	86.01
230.948	102.4
231.166	90.11
231.384	16.38
231.601	20.48
231.819	16.38
232.037	14.34
232.254	-0
232.472	-86.01
232.689	-49.15
232.907	67.58
233.125	-28.67
233.342	14.34
233.56	65.53
233.777	-45.06
233.995	-18.43
234.213	30.72
234.43	36.86
234.648	22.53
234.865	61.44
235.083	81.92
235.3	22.53
235.518	-4.1
235.735	92.16
235.953	61.44
236.17	-6.14
236.388	-40.96
236.605	47.1
236.822	40.96
237.04	32.77
237.257	4.1
237.475	-45.06
237.692	96.25
237.909	57.34
238.127	-28.67
238.344	8.19
238.562	100.35
238.779	-47.1
238.996	-6.14
239.214	-26.62
239.431	45.06
239.648	-2.05
239.865	47.1
240.083	20.48
240.3	28.67
240.517	57.34
240.735	67.58
240.952	47.1
241.169	-45.06
241.386	8.19
241.603	36.86
241.821	-38.91
242.038	61.44
242.255	16.38
242.472	36.86
242.689	69.63
242.907	69.63
243.124	34.82
243.341	8.19
243.558	59.39
243.775	24.58
243.992	28.67
244.209	65.53
244.426	2.05
244.643	59.39
244.86	98.3
245.078	12.29
245.295	12.29
245.512	55.3
245.729	28.67
245.946	45.06
246.163	-67.58
246.38	47.1
246.597	-18.43
246.814	16.38
247.031	30.72
247.248	69.63
247.464	12.29
247.681	-2.05
247.898	10.24
248.115	20.48
248.332	-12.29
248.549	110.59
248.766	81.92
248.983	63.49
249.2	102.4
249.417	88.06
249.633	-20.48
249.85	45.06
250.067	32.77
250.284	-51.2
250.501	10.24
250.717	-4.1
250.934	-47.1
251.151	24.58
251.368	30.72
251.585	96.25
251.801	-4.1
252.018	-83.97
252.235	47.1
252.451	-2.05
252.668	6.14
252.885	38.91
253.102	28.67
253.318	-45.06
253.535	20.48
253.752	4.1
253.968	18.43
254.185	20.48
254.401	-34.82
254.618	-16.38
254.835	-16.38
255.051	65.53
255.268	14.34
255.484	20.48
255.701	53.25
255.917	94.21
256.134	8.19
256.351	49.15
256.567	63.49
256.784	43.01
257	-38.91
257.217	36.86
257.433	43.01
257.65	75.77
257.866	14.34
258.082	-20.48
258.299	20.48
258.515	81.92
258.732	16.38
258.948	8.19
259.165	69.63
259.381	-10.24
259.597	51.2
259.814	22.53
260.03	4.1
260.246	61.44
260.463	114.69
260.679	40.96
260.895	43.01
261.112	49.15
261.328	45.06
261.544	63.49
261.761	32.77
261.977	12.29
262.193	-4.1
262.409	98.3
262.626	61.44
262.842	-16.38
263.058	-0
263.274	16.38
263.49	-49.15
263.707	77.82
263.923	116.73
264.139	-59.39
264.355	-20.48
264.571	63.49
264.787	98.3
265.004	24.58
265.22	34.82
265.436	28.67
265.652	-20.48
265.868	94.21
266.084	30.72
266.3	43.01
266.516	-24.58
266.732	-26.62
266.948	20.48
267.164	49.15
267.38	38.91
267.596	65.53
267.812	45.06
268.028	-4.1
268.244	14.34
268.46	43.01
268.676	73.73
268.892	40.96
269.108	-10.24
269.324	24.58
269.54	-83.97
269.756	53.25
269.972	-30.72
270.188	-61.44
270.403	-16.38
270.619	20.48
270.835	36.86
271.051	-2.05
271.267	-20.48
271.483	36.86
271.698	28.67
271.914	57.34
272.13	16.38
272.346	6.14
272.562	18.43
272.777	-4.1
272.993	22.53
273.209	2.05
273.425	63.49
273.64	22.53
273.856	22.53
274.072	61.44
274.287	-24.58
274.503	49.15
274.719	12.29
274.934	57.34
275.15	53.25
275.366	30.72
275.581	-12.29
275.797	40.96
276.012	-38.91
276.228	12.29
276.444	-4.1
276.659	40.96
276.875	-4.1
277.09	14.34
277.306	12.29
277.521	-12.29
277.737	2.05
277.952	4.1
278.168	79.87
278.383	-12.29
278.599	51.2
278.814	26.62
279.03	22.53
279.245	45.06
279.461	-6.14
279.676	-16.38
279.892	24.58
280.107	18.43
280.322	-34.82
280.538	34.82
280.753	12.29
280.969	-2.05
281.184	-16.38
281.399	94.21
281.615	110.59
281.83	47.1
282.045	55.3
282.26	22.53
282.476	34.82
282.691	47.1
282.906	-24.58
283.122	32.77
283.337	90.11
283.552	32.77
283.767	-0
283.983	53.25
284.198	-10.24
284.413	28.67
284.628	49.15
284.843	45.06
285.058	75.77
285.274	65.53
285.489	-2.05
285.704	141.31
285.919	-6.14
286.134	69.63
286.349	-10.24
286.564	-51.2
286.779	-36.86
286.995	-2.05
287.21	-12.29
287.425	28.67
287.64	-0
287.855	110.59
288.07	-8.19
288.285	45.06
288.5	90.11
288.715	53.25
288.93	-10.24
289.145	32.77
289.36	20.48
289.575	34.82
289.79	-36.86
290.004	12.29
290.219	45.06
290.434	12.29
290.649	-75.77
290.864	12.29
291.079	24.58
291.294	69.63
291.509	20.48
291.724	43.01
291.938	30.72
292.153	69.63
292.368	16.38
292.583	77.82
292.798	45.06
293.012	12.29
293.227	81.92
293.442	43.01
293.657	71.68
293.871	98.3
294.086	20.48
294.301	45.06
294.516	94.21
294.73	63.49
294.945	-14.34
295.16	36.86
295.374	22.53
295.589	-2.05
295.804	16.38
296.018	53.25
296.233	102.4
296.447	32.77
296.662	-4.1
296.877	12.29
297.091	51.2
297.306	47.1
297.52	47.1
297.735	-36.86
297.949	61.44
298.164	86.01
298.378	-14.34
298.593	57.34
298.807	-0
299.022	28.67
299.236	86.01
299.451	45.06
299.665	10.24
299.88	45.06
300.094	20.48
300.309	63.49
300.523	20.48
300.737	94.21
300.952	36.86
301.166	4.1
301.381	53.25
301.595	45.06
301.809	-14.34
302.024	36.86
302.238	30.72
302.452	22.53
302.667	90.11
302.881	122.88
303.095	28.67
303.309	63.49
303.524	38.91
303.738	55.3
303.952	71.68
304.166	-36.86
304.381	16.38
304.595	88.06
304.809	-24.58
305.023	61.44
305.237	-67.58
305.452	-2.05
305.666	88.06
305.88	61.44
306.094	61.44
306.308	-8.19
306.522	18.43
306.736	61.44
306.95	49.15
307.164	12.29
307.379	6.14
307.593	94.21
307.807	73.73
308.021	92.16
308.235	24.58
308.449	69.63
308.663	73.73
308.877	47.1
309.091	40.96
309.305	102.4
309.519	-36.86
309.733	53.25
309.947	6.14
310.161	77.82
310.374	14.34
310.588	36.86
310.802	49.15
311.016	55.3
311.23	38.91
311.444	14.34
311.658	45.06
311.872	47.1
312.085	73.73
312.299	61.44
312.513	57.34
312.727	92.16
312.941	94.21
313.154	71.68
313.368	22.53
313.582	36.86
313.796	4.1
314.009	45.06
314.223	51.2
314.437	102.4
314.651	51.2
314.864	90.11
315.078	53.25
315.292	71.68
315.505	12.29
315.719	45.06
315.933	18.43
316.146	4.1
316.36	6.14
316.573	22.53
316.787	20.48
317.001	53.25
317.214	-26.62
317.428	-4.1
317.641	81.92
317.855	12.29
318.068	-51.2
318.282	4.1
318.495	63.49
318.709	118.78
318.922	4.1
319.136	126.97
319.349	88.06
319.563	14.34
319.776	34.82
319.99	63.49
320.203	110.59
320.417	75.77
320.63	71.68
320.843	51.2
321.057	12.29
321.27	22.53
321.483	14.34
321.697	53.25
321.91	83.97
322.124	69.63
322.337	65.53
322.55	-59.39
322.763	67.58
322.977	69.63
323.19	86.01
323.403	-12.29
323.617	8.19
323.83	102.4
324.043	-18.43
324.256	34.82
324.469	47.1
324.683	18.43
324.896	-10.24
325.109	65.53
325.322	-8.19
325.535	118.78
325.748	-10.24
325.962	-10.24
326.175	83.97
326.388	75.77
326.601	-16.38
326.814	-26.62
327.027	-2.05
327.24	79.87
327.453	49.15
327.666	2.05
327.879	38.91
328.092	43.01
328.305	-57.34
328.518	36.86
328.731	-22.53
328.944	55.3
329.157	-4.1
329.37	49.15
329.583	69.63
329.796	96.25
330.009	6.14
330.222	55.3
330.435	55.3
330.648	65.53
330.861	69.63
331.073	24.58
331.286	43.01
331.499	61.44
331.712	63.49
331.925	-40.96
332.138	65.53
332.35	88.06
332.563	22.53
332.776	118.78
332.989	36.86
333.202	47.1
333.414	53.25
333.627	-8.19
333.84	10.24
334.053	53.25
334.265	110.59
334.478	16.38
334.691	73.73
334.903	86.01
335.116	28.67
335.329	26.62
335.541	55.3
335.754	114.69
335.966	4.1
336.179	61.44
336.392	75.77
336.604	16.38
336.817	45.06
337.029	81.92
337.242	-16.38
337.454	55.3
337.667	36.86
337.88	71.68
338.092	49.15
338.305	38.91
338.517	77.82
338.729	32.77
338.942	32.77
339.154	12.29
339.367	12.29
339.579	34.82
339.792	-4.1
340.004	40.96
340.217	14.34
340.429	20.48
340.641	-22.53
340.854	40.96
341.066	2.05
341.278	110.59
341.491	75.77
341.703	61.44
341.915	24.58
342.128	8.19
342.34	77.82
342.552	22.53
342.764	81.92
342.977	38.91
343.189	26.62
343.401	65.53
343.613	118.78
343.826	24.58
344.038	55.3
344.25	92.16
344.462	77.82
344.674	73.73
344.886	-6.14
345.099	-8.19
345.311	28.67
345.523	49.15
345.735	-47.1
345.947	75.77
346.159	-4.1
346.371	81.92
346.583	126.97
346.795	116.73
347.007	22.53
347.219	61.44
347.431	16.38
347.643	65.53
347.855	-20.48
348.067	129.02
348.279	-12.29
348.491	-20.48
348.703	-8.19
348.915	94.21
349.127	43.01
349.339	45.06
349.551	81.92
349.763	34.82
349.975	69.63
350.187	106.49
350.399	92.16
350.61	8.19
350.822	77.82
351.034	-4.1
351.246	-18.43
351.458	61.44
351.669	32.77
351.881	102.4
352.093	112.64
352.305	88.06
352.517	83.97
352.728	102.4
352.94	100.35
353.152	45.06
353.363	-4.1
353.575	16.38
353.787	143.36
353.999	69.63
354.21	43.01
354.422	20.48
354.633	94.21
354.845	69.63
355.057	77.82
355.268	71.68
355.48	47.1
355.692	6.14
355.903	36.86
356.115	12.29
356.326	75.77
356.538	129.02
356.749	94.21
356.961	135.17
357.172	51.2
357.384	26.62
357.595	94.21
357.807	83.97
358.018	-10.24
358.23	75.77
358.441	65.53
358.653	53.25
358.864	30.72
359.075	22.53
359.287	30.72
359.498	86.01
359.709	24.58
359.921	86.01
360.132	73.73
360.344	28.67
360.555	77.82
360.766	40.96
360.977	106.49
361.189	110.59
361.4	4.1
361.611	86.01
361.823	30.72
362.034	28.67
362.245	-26.62
362.456	4.1
362.667	55.3
362.879	77.82
363.09	118.78
363.301	18.43
363.512	10.24
363.723	108.54
363.935	20.48
364.146	12.29
364.357	135.17
364.568	36.86
364.779	-28.67
364.99	96.25
365.201	77.82
365.412	120.83
365.623	53.25
365.834	36.86
366.045	-4.1
366.256	96.25
366.467	69.63
366.678	77.82
366.889	69.63
367.1	26.62
367.311	30.72
367.522	-59.39
367.733	120.83
367.944	118.78
368.155	65.53
368.366	16.38
368.577	63.49
368.788	90.11
368.999	-20.48
369.209	65.53
369.42	-26.62
369.631	75.77
369.842	30.72
370.053	20.48
370.264	61.44
370.474	16.38
370.685	49.15
370.896	30.72
371.107	8.19
371.317	38.91
371.528	53.25
371.739	47.1
371.95	38.91
372.16	102.4
372.371	-49.15
372.582	16.38
372.792	81.92
373.003	77.82
373.214	65.53
373.424	77.82
373.635	-16.38
373.846	106.49
374.056	36.86
374.267	32.77
374.477	102.4
374.688	90.11
374.898	30.72
375.109	77.82
375.319	79.87
375.53	104.45
375.74	53.25
375.951	55.3
376.161	32.77
376.372	71.68
376.582	61.44
376.793	53.25
377.003	43.01
377.214	14.34
377.424	96.25
377.635	57.34
377.845	4.1
378.055	61.44
378.266	30.72
378.476	28.67
378.686	116.73
378.897	51.2
379.107	61.44
379.317	73.73
379.528	14.34
379.738	63.49
379.948	38.91
380.158	14.34
380.369	6.14
380.579	22.53
380.789	45.06
380.999	32.77
381.21	133.12
381.42	55.3
381.63	104.45
381.84	59.39
382.05	104.45
382.261	73.73
382.471	110.59
382.681	38.91
382.891	88.06
383.101	65.53
383.311	63.49
383.521	-8.19
383.731	102.4
383.941	126.97
384.151	51.2
384.361	-28.67
384.571	94.21
384.781	14.34
384.991	53.25
385.201	147.45
385.411	73.73
385.621	14.34
385.831	63.49
386.041	4.1
386.251	114.69
386.461	30.72
386.671	69.63
386.881	40.96
387.091	104.45
387.301	-28.67
387.511	36.86
387.72	38.91
387.93	36.86
388.14	-20.48
388.35	83.97
388.56	153.6
388.769	77.82
388.979	-2.05
389.189	32.77
389.399	118.78
389.609	69.63
389.818	71.68
390.028	86.01
390.238	151.55
390.447	49.15
390.657	49.15
390.867	45.06
391.076	14.34
391.286	118.78
391.496	77.82
391.705	112.64
391.915	71.68
392.125	86.01
392.334	65.53
392.544	104.45
392.753	92.16
392.963	90.11
393.172	133.12
393.382	69.63
393.591	135.17
393.801	40.96
394.01	143.36
394.22	81.92
394.429	71.68
394.639	49.15
394.848	102.4
395.058	135.17
395.267	116.73
395.477	126.97
395.686	98.3
395.895	147.45
396.105	184.32
396.314	118.78
396.524	139.26
396.733	159.74
396.942	102.4
397.152	55.3
397.361	206.84
397.57	110.59
397.78	137.21
397.989	47.1
398.198	202.75
398.407	73.73
398.617	131.07
398.826	139.26
399.035	135.17
399.244	174.08
399.453	96.25
399.663	122.88
399.872	151.55
400.081	102.4
400.29	124.93
400.499	96.25
400.708	143.36
400.917	145.41
401.127	90.11
401.336	184.32
401.545	102.4
401.754	251.9
401.963	192.51
402.172	106.49
402.381	112.64
402.59	116.73
402.799	186.37
403.008	163.84
403.217	137.21
403.426	116.73
403.635	212.99
403.844	225.28
404.053	124.93
404.262	167.93
404.471	225.28
404.68	192.51
404.888	208.89
405.097	215.04
405.306	182.27
405.515	161.79
405.724	180.22
405.933	208.89
406.142	258.04
406.35	251.9
406.559	227.32
406.768	319.48
406.977	235.52
407.185	280.57
407.394	315.39
407.603	284.67
407.812	339.96
408.02	327.67
408.229	311.29
408.438	233.47
408.646	315.39
408.855	315.39
409.064	348.15
409.272	380.92
409.481	460.79
409.69	339.96
409.898	385.02
410.107	442.36
410.315	339.96
410.524	464.89
410.733	423.93
410.941	417.79
411.15	536.57
411.358	532.47
411.567	509.94
411.775	495.61
411.984	477.18
412.192	544.76
412.401	634.87
412.609	557.05
412.818	702.45
413.026	587.77
413.234	698.36
413.443	724.98
413.651	735.22
413.86	714.74
414.068	901.11
414.276	890.87
414.485	856.05
414.693	933.87
414.901	905.2
415.11	972.79
415.318	890.87
415.526	993.26
415.734	1069.04
415.943	1064.94
416.151	1128.43
416.359	1124.33
416.567	1183.73
416.776	1224.69
416.984	1320.94
417.192	1294.32
417.4	1331.18
417.608	1314.8
417.817	1372.14
418.025	1445.87
418.233	1675.24
418.441	1572.84
418.649	1642.47
418.857	1849.32
419.065	1691.62
419.273	1738.73
419.481	1830.88
419.689	1964
419.897	2111.46
420.105	2021.35
420.313	2035.68
420.521	2179.04
420.729	2228.19
420.937	2365.4
421.145	2408.41
421.353	2478.04
421.561	2551.77
421.769	2686.93
421.977	2815.96
422.185	2723.8
422.393	3010.51
422.601	3215.31
422.809	3076.05
423.017	3086.29
423.224	3321.81
423.432	3520.46
423.64	3487.69
423.848	3559.37
424.056	3772.36
424.263	3975.11
424.471	3848.13
424.679	4022.21
424.887	4155.33
425.094	4298.69
425.302	4566.97
425.51	4526.01
425.718	4591.55
425.925	4777.91
426.133	4923.32
426.341	5107.63
426.548	5312.43
426.756	5275.57
426.964	5484.46
427.171	5853.09
427.379	6006.69
427.586	5916.58
427.794	6234.02
428.001	6354.85
428.209	6774.68
428.417	6576.03
428.624	7032.72
428.832	7100.31
429.039	7204.75
429.247	7165.84
429.454	7671.69
429.662	8216.45
429.869	7591.82
430.076	8236.93
430.284	7939.97
430.491	8310.66
430.699	8824.7
430.906	8937.34
431.114	9000.82
431.321	9305.97
431.528	9516.91
431.736	9998.18
431.943	10538.85
432.15	10131.3
432.358	10182.5
432.565	10731.36
432.772	10829.66
432.979	11468.62
433.187	11628.37
433.394	11530.06
433.601	12592.96
433.808	12455.75
434.016	12314.44
434.223	12988.22
434.43	13594.42
434.637	13242.17
434.844	14063.4
435.052	14561.06
435.259	14595.87
435.466	14593.83
435.673	14249.77
435.88	15292.18
436.087	16006.92
436.294	15990.54
436.501	15843.09
436.708	16062.22
436.915	16563.97
437.122	17346.3
437.329	17397.49
437.537	17839.86
437.743	17968.88
437.95	17981.17
438.157	19027.68
438.364	19431.13
438.571	19433.18
438.778	19531.48
438.985	21370.55
439.192	20602.57
439.399	21216.96
439.606	20502.22
439.813	21937.84
440.02	23342.75
440.227	23203.49
440.433	22480.55
440.64	23420.57
440.847	23205.53
441.054	23512.73
441.261	25257.6
441.467	24925.83
441.674	25615.99
441.881	26388.08
442.088	26076.79
442.294	26046.07
442.501	26601.07
442.708	27485.79
442.914	28366.42
443.121	29599.29
443.328	28597.84
443.534	30660.14
443.741	30299.7
443.948	29435.45
444.154	31602.21
444.361	31364.64
444.568	31256.1
444.774	31766.04
444.981	31880.73
445.187	32869.9
445.394	33838.59
445.6	33793.53
445.807	36783.57
446.013	35294.69
446.22	35700.19
446.426	37340.61
446.633	38086.07
446.839	39134.63
447.046	37221.83
447.252	39308.71
447.459	39353.77
447.665	39327.14
447.871	40449.43
448.078	42333.56
448.284	40773.01
448.491	41612.68
448.697	43283.82
448.903	43863.39
449.11	44090.72
449.316	43418.99
449.522	44318.04
449.728	45270.35
449.935	45577.54
450.141	45618.5
450.347	46247.23
450.553	44961.11
450.76	45729.09
450.966	47406.38
451.172	46794.04
451.378	47834.41
451.584	46955.83
451.791	48493.85
451.997	48008.48
452.203	49063.19
452.409	48891.16
452.615	48524.57
452.821	46980.4
453.027	45669.7
453.233	48633.11
453.44	46517.56
453.646	47095.09
453.852	47645.99
454.058	48483.61
454.264	46662.97
454.47	47824.17
454.676	46277.95
454.882	47586.6
455.088	44008.8
455.294	44819.8
455.5	45524.3
455.705	45954.37
455.911	44615
456.117	43214.19
456.323	42628.47
456.529	40474.01
456.735	42429.82
456.941	41344.39
457.147	40531.35
457.352	39370.15
457.558	39456.17
457.764	39175.59
457.97	38092.22
458.176	37729.73
458.381	37766.59
458.587	35646.94
458.793	35415.52
458.999	34412.02
459.204	36734.42
459.41	35182.06
459.616	32855.56
459.821	33021.45
460.027	33410.56
460.233	32312.85
460.438	30770.73
460.644	30897.7
460.85	29699.64
461.055	29079.11
461.261	29183.55
461.466	27104.87
461.672	26392.17
461.878	28221.01
462.083	25972.34
462.289	25771.64
462.494	25652.86
462.7	24612.49
462.905	23789.2
463.111	24387.21
463.316	24655.5
463.522	24045.2
463.727	24280.72
463.932	24313.48
464.138	23869.08
464.343	23907.99
464.549	23262.88
464.754	23758.49
464.959	23758.49
465.165	23275.16
465.37	22660.77
465.575	21943.99
465.781	22845.09
465.986	23008.93
466.191	22167.21
466.397	21925.55
466.602	20557.51
466.807	21315.26
467.012	21651.13
467.218	21354.17
467.423	20780.74
467.628	21092.03
467.833	22097.58
468.038	21300.92
468.244	20674.24
468.449	21429.94
468.654	20899.52
468.859	20500.17
469.064	20592.33
469.269	19791.57
469.474	19863.25
469.679	20494.02
469.885	19490.52
470.09	19918.54
470.295	19795.67
470.5	19236.57
470.705	19633.88
470.91	19310.3
471.115	18673.38
471.32	19130.08
471.525	18816.74
471.73	18777.83
471.935	18562.79
472.139	18044.65
472.344	18067.18
472.549	17981.17
472.754	17579.76
472.959	17626.87
473.164	16992
473.369	16772.86
473.574	17647.35
473.778	17428.21
473.983	17028.86
474.188	17022.72
474.393	16287.5
474.598	16457.48
474.802	16068.36
475.007	16150.28
475.212	16035.6
475.417	15445.78
475.621	15683.34
475.826	15642.39
476.031	15142.68
476.235	14962.46
476.44	15212.31
476.645	14829.34
476.849	15152.92
477.054	14718.75
477.259	14634.78
477.463	14389.03
477.668	14026.54
477.872	14561.06
478.077	14047.02
478.282	13729.58
478.486	13760.3
478.691	13659.95
478.895	13631.28
479.1	13500.21
479.304	13209.4
479.509	13080.38
479.713	13231.93
479.918	13008.7
480.122	12848.96
480.326	13047.61
480.531	13276.98
480.735	12803.9
480.94	12859.2
481.144	13135.67
481.348	12590.91
481.553	12783.42
481.757	12613.44
481.961	12408.64
482.166	12824.38
482.37	12547.9
482.574	12275.52
482.778	12554.05
482.983	12711.74
483.187	12492.61
483.391	12701.5
483.595	12506.95
483.8	12238.66
484.004	12402.5
484.208	12533.57
484.412	12621.63
484.616	12394.31
484.821	12535.62
485.025	12318.53
485.229	12480.32
485.433	12285.76
485.637	12500.8
485.841	12195.65
486.045	12253
486.249	12341.06
486.453	12285.76
486.657	12334.92
486.861	12547.9
487.065	12066.63
487.269	12621.63
487.473	12103.5
487.677	12445.51
487.881	12341.06
488.085	12422.98
488.289	12492.61
488.493	12332.87
488.697	12386.11
488.901	12693.31
489.105	12390.21
489.309	12595.01
489.512	12605.25
489.716	12490.56
489.92	12357.44
490.124	12525.38
490.328	12853.05
490.531	12554.05
490.735	12506.95
490.939	12468.03
491.143	12810.04
491.346	12613.44
491.55	12842.81
491.754	12943.16
491.958	13381.43
492.161	12941.11
492.365	13162.3
492.569	13057.85
492.772	13180.73
492.976	13330.23
493.18	13066.04
493.383	13520.69
493.587	13358.9
493.79	13682.48
493.994	13479.73
494.197	13471.54
494.401	13545.27
494.605	13606.7
494.808	13870.89
495.012	14020.39
495.215	14012.2
495.419	14118.7
495.622	14204.71
495.825	14475.04
496.029	14384.93
496.232	14671.65
496.436	14464.8
496.639	14923.55
496.843	14796.57
497.046	14999.32
497.249	15359.77
497.453	15140.63
497.656	15669.01
497.859	15484.69
498.063	15560.47
498.266	15789.84
498.469	16060.17
498.673	16160.52
498.876	16346.89
499.079	16604.93
499.282	16437
499.485	16854.78
499.689	16680.71
499.892	17405.69
500.095	17067.77
500.298	17772.27
500.501	17442.55
500.705	17829.62
500.908	18140.91
501.111	18349.8
501.314	18470.63
501.517	18685.67
501.72	18923.23
501.923	18779.87
502.126	19422.94
502.329	19486.42
502.532	19467.99
502.735	19918.54
502.938	20143.82
503.141	20209.36
503.344	20643.52
503.547	20369.1
503.75	20983.49
503.953	21278.4
504.156	21290.68
504.359	21622.45
504.562	21327.55
504.765	22042.29
504.968	22124.21
505.17	22519.46
505.373	22804.13
505.576	23019.17
505.779	23279.26
505.982	23195.29
506.185	23936.66
506.387	23924.37
506.59	24204.94
506.793	24512.14
506.996	24454.79
507.198	24970.88
507.401	25118.34
507.604	25230.97
507.807	25839.22
508.009	26189.42
508.212	26209.9
508.415	26379.89
508.617	26805.86
508.82	26914.41
509.022	26400.37
509.225	27739.74
509.428	27588.19
509.63	27840.09
509.833	28010.07
510.035	28788.3
510.238	27956.82
510.44	29169.22
510.643	29390.4
510.845	29447.74
511.048	29455.93
511.25	29767.23
511.453	30283.31
511.655	30899.75
511.858	30791.21
512.06	30967.34
512.262	31364.64
512.465	31209
512.667	31936.02
512.87	31903.26
513.072	31868.44
513.274	32503.31
513.477	33050.12
513.679	33453.57
513.881	33586.69
514.084	34027
514.286	33809.92
514.488	34070.01
514.69	35218.92
514.893	34833.9
515.095	35214.82
515.297	35888.6
515.499	35714.53
515.701	35929.56
515.904	36738.51
516.106	36572.63
516.308	36916.68
516.51	37148.11
516.712	37594.56
516.914	38049.21
517.116	38577.59
517.318	38378.93
517.52	38276.54
517.722	38636.98
517.925	39325.1
518.127	39746.98
518.329	39902.62
518.531	40066.46
518.733	40402.33
518.935	40910.22
519.136	40887.7
519.338	41598.34
519.54	41551.24
519.742	41930.11
519.944	42177.92
520.146	42591.61
520.348	42749.3
520.55	43122.03
520.752	43652.45
520.954	44258.65
521.155	43644.26
521.357	44279.13
521.559	44918.1
521.761	45165.9
521.963	45030.74
522.164	45632.84
522.366	45440.33
522.568	46265.66
522.77	45847.88
522.971	46677.3
523.173	46339.39
523.375	47127.86
523.576	46843.19
523.778	47428.91
523.98	48000.29
524.181	47764.78
524.383	48088.35
524.584	48581.91
524.786	48651.55
524.988	48000.29
525.189	48923.93
525.391	49030.42
525.592	49575.18
525.794	49356.05
525.995	49810.7
526.197	49587.47
526.398	49669.39
526.6	50058.5
526.801	50488.57
527.003	51004.66
527.204	50566.4
527.406	50906.36
527.607	50922.74
527.808	51158.26
528.01	50527.49
528.211	51277.04
528.412	52167.91
528.614	51408.11
528.815	51152.12
529.016	52268.26
529.218	51346.67
529.419	51510.51
529.62	52200.68
529.822	52178.15
530.023	52466.91
530.224	52344.03
530.425	51967.21
530.626	51969.25
530.828	51993.83
531.029	53030.1
531.23	51844.33
531.431	52473.06
531.632	52939.99
531.833	53138.65
532.035	52935.9
532.236	53044.44
532.437	53273.81
532.638	52522.21
532.839	53363.92
533.04	53470.42
533.241	53118.17
533.442	53765.32
533.643	53294.29
533.844	52931.8
534.045	53279.96
534.246	53191.89
534.447	53740.75
534.648	52989.14
534.849	53372.11
535.05	52882.65
535.251	53011.67
535.451	53253.33
535.652	53492.94
535.853	53269.72
536.054	53650.64
536.255	52980.95
536.456	52847.83
536.657	54066.38
536.857	53468.37
537.058	52980.95
537.259	53525.71
537.46	53277.91
537.66	52921.56
537.861	53218.52
538.062	53058.77
538.263	53189.84
538.463	53173.46
538.664	52954.33
538.865	53216.47
539.065	53069.01
539.266	52843.74
539.466	53519.57
539.667	52739.29
539.868	53296.34
540.068	52911.32
540.269	53658.83
540.469	53499.09
540.67	52886.75
540.87	53077.21
541.071	53017.82
541.271	52993.24
541.472	52817.11
541.672	52878.55
541.873	53026.01
542.073	52235.49
542.274	53273.81
542.474	52688.09
542.675	52550.88
542.875	53595.34
543.075	53019.86
543.276	52319.46
543.476	53060.82
543.676	52554.97
543.877	52784.35
544.077	53239
544.277	52888.79
544.478	53050.58
544.678	53214.42
544.878	52268.26
545.078	52913.37
545.279	52421.86
545.479	52591.84
545.679	52831.45
545.879	52798.68
546.079	52694.24
546.28	52913.37
546.48	52266.21
546.68	52757.72
546.88	53077.21
547.08	52798.68
547.28	52475.1
547.48	52073.7
547.68	52743.39
547.88	52280.55
548.081	52870.36
548.281	52681.95
548.481	52075.75
548.681	52657.37
548.881	53093.59
549.081	52483.3
549.28	52102.37
549.48	52796.63
549.68	52575.45
549.88	52933.85
550.08	51977.45
550.28	52274.4
550.48	52141.28
550.68	52624.6
550.88	52346.08
551.08	52401.38
551.279	52468.96
551.479	51705.07
551.679	52446.43
551.879	52016.36
552.079	52593.89
552.278	51881.19
552.478	52143.33
552.678	51821.8
552.878	52446.43
553.077	51877.1
553.277	51774.7
553.477	52608.22
553.676	52042.98
553.876	51889.38
554.076	51694.83
554.275	51789.03
554.475	51205.36
554.674	51987.69
554.874	51967.21
555.074	51774.7
555.273	52069.61
555.473	51666.16
555.672	51383.54
555.872	51289.33
556.071	51969.25
556.271	52090.09
556.47	51561.71
556.67	51047.67
556.869	51049.72
557.068	51563.76
557.268	51019
557.467	51453.17
557.667	51330.29
557.866	51258.61
558.065	51244.27
558.265	51150.07
558.464	50734.33
558.663	51336.43
558.863	51004.66
559.062	51377.39
559.261	50896.12
559.461	51129.59
559.66	50470.14
559.859	50808.06
560.058	50390.27
560.258	50625.79
560.457	49995.01
560.656	50529.53
560.855	50285.82
561.054	50703.61
561.253	50416.89
561.453	50294.02
561.652	50693.37
561.851	50328.83
562.05	49810.7
562.249	50124.04
562.448	50076.93
562.647	50124.04
562.846	49741.07
563.045	49777.93
563.244	49440.01
563.443	50087.17
563.642	49458.45
563.841	49315.09
564.04	49517.84
564.239	50011.4
564.438	48862.49
564.637	49612.04
564.836	49372.43
565.035	48938.26
565.234	49476.88
565.432	48995.6
565.631	48741.66
565.83	49020.18
566.029	48848.15
566.228	48938.26
566.427	48751.9
566.625	48330.01
566.824	48471.32
567.023	48489.76
567.222	47838.5
567.42	48409.89
567.619	48350.49
567.818	47908.13
568.016	48016.68
568.215	48031.01
568.414	47815.97
568.612	48041.25
568.811	47277.36
569.01	47723.82
569.208	47072.56
569.407	47430.96
569.605	47117.62
569.804	47652.14
570.002	46918.96
570.201	47594.79
570.4	46810.42
570.598	46923.06
570.797	46531.9
570.995	46726.46
571.193	46269.76
571.392	46794.04
571.59	46327.1
571.789	46024
571.987	46015.81
572.186	45884.74
572.384	45505.87
572.582	46187.84
572.781	46036.29
572.979	45688.13
573.177	45710.66
573.376	46095.68
573.574	45425.99
573.772	45634.89
573.971	45653.32
574.169	45176.14
574.367	45008.21
574.565	45501.77
574.763	44590.42
574.962	44512.6
575.16	44344.67
575.358	44840.28
575.556	44123.49
575.754	44918.1
575.952	43732.32
576.151	44793.17
576.349	43521.38
576.547	43697.51
576.745	43982.18
576.943	44023.14
577.141	44105.06
577.339	44107.1
577.537	43709.8
577.735	43437.42
577.933	42782.07
578.131	43558.25
578.329	42876.27
578.527	42737.01
578.725	42820.98
578.923	42935.66
579.121	42558.84
579.319	42784.12
579.516	42708.34
579.714	42651
579.912	42376.57
580.11	42425.72
580.308	42575.22
580.506	42296.7
580.704	41915.78
580.901	42124.67
581.099	42077.57
581.297	41674.12
581.495	41639.3
581.692	41876.86
581.89	41153.93
582.088	41905.54
582.285	41395.59
582.483	41745.79
582.681	41082.25
582.878	41131.4
583.076	40568.21
583.274	41117.07
583.471	40560.02
583.669	40560.02
583.866	40232.35
584.064	40377.75
584.262	39851.42
584.459	40856.98
584.657	39675.3
584.854	40517.01
585.052	39665.06
585.249	40363.42
585.447	39828.9
585.644	39435.69
585.841	39593.38
586.039	39757.22
586.236	39075.24
586.434	39179.69
586.631	38966.7
586.828	39140.78
587.026	38786.48
587.223	39026.09
587.42	38727.09
587.618	38772.14
587.815	38292.92
588.012	38286.78
588.21	38303.16
588.407	38380.98
588.604	38299.06
588.801	37543.36
588.999	37998.01
589.196	37529.03
589.393	37801.41
589.59	37498.31
589.787	37518.79
589.984	37584.32
590.182	36996.56
590.379	37336.52
590.576	37125.58
590.773	37383.62
590.97	37129.67
591.167	36902.35
591.364	36181.46
591.561	36933.07
591.758	36820.43
591.955	36509.14
592.152	36955.6
592.349	36382.16
592.546	36521.43
592.743	36236.76
592.94	35583.46
593.137	35784.16
593.334	36062.68
593.531	35065.32
593.727	35884.51
593.924	35415.52
594.121	35010.03
594.318	35925.47
594.515	34926.06
594.712	35091.94
594.908	34676.21
595.105	35071.46
595.302	34713.07
595.499	34983.4
595.696	34668.01
595.892	34424.31
596.089	34897.39
596.286	34649.58
596.482	34446.83
596.679	34317.81
596.876	34139.64
597.072	33830.4
597.269	34219.51
597.466	33938.94
597.662	33459.71
597.859	33318.4
598.055	33318.4
598.252	33125.89
598.448	33283.59
598.645	32812.56
598.841	32689.68
599.038	33289.73
599.234	33017.35
599.431	32775.69
599.627	32683.53
599.824	32826.89
600.02	32419.35
600.217	32462.35
600.413	32155.16
600.609	32265.75
600.806	32079.38
601.002	32251.41
601.198	31946.26
601.395	31759.9
601.591	31682.08
601.787	31587.87
601.984	31694.36
602.18	31755.8
602.376	31301.15
602.572	31139.36
602.769	31108.65
602.965	30844.46
603.161	31094.31
603.357	31006.25
603.553	30895.66
603.75	30791.21
603.946	30768.68
604.142	30830.12
604.338	30559.79
604.534	30713.39
604.73	30301.75
604.926	30402.1
605.122	30658.09
605.318	29875.77
605.514	30010.93
605.71	29668.92
605.906	30006.84
606.102	29896.25
606.298	29873.72
606.494	29609.53
606.69	29724.22
606.886	29709.88
607.082	29367.87
607.278	29630.01
607.474	28708.43
607.67	29607.48
607.866	28833.35
608.062	29365.82
608.257	28999.24
608.453	29195.84
608.649	28962.37
608.845	28862.02
609.041	28608.08
609.236	28911.17
609.432	28788.3
609.628	28808.78
609.824	28423.76
610.019	28536.4
610.215	28679.75
610.411	28485.2
610.606	28241.49
610.802	28477.01
610.998	28364.37
611.193	28282.45
611.389	28003.92
611.584	28026.45
611.78	27960.92
611.976	27969.11
612.171	28005.97
612.367	28268.11
612.562	27817.56
612.758	27373.15
612.953	27231.84
613.149	27876.95
613.344	27285.09
613.539	27594.33
613.735	27506.27
613.93	27549.28
614.126	27375.2
614.321	27725.4
614.517	27407.97
614.712	27459.16
614.907	27162.21
615.103	27270.75
615.298	27029.09
615.493	27123.3
615.688	26816.1
615.884	27231.84
616.079	26422.89
616.274	26762.86
616.47	26431.08
616.665	26885.73
616.86	26549.87
617.055	26670.7
617.25	26586.73
617.445	26775.14
617.641	26191.47
617.836	26304.11
618.031	25896.56
618.226	26369.65
618.421	26214
618.616	26390.13
618.811	25855.61
619.006	25955.96
619.201	25511.55
619.396	26031.73
619.591	25503.35
619.786	25681.53
619.981	25392.76
620.176	25718.39
620.371	25106.05
620.566	24944.26
620.761	24694.41
620.956	24974.98
621.151	24659.59
621.346	24972.93
621.541	24252.05
621.735	24663.69
621.93	24211.09
622.125	24086.16
622.32	24026.77
622.515	23930.51
622.709	23832.21
622.904	23793.3
623.099	23789.2
623.294	23623.32
623.488	23457.43
623.683	23482.01
623.878	22859.43
624.072	23121.57
624.267	22992.55
624.462	22937.25
624.656	22797.99
624.851	22578.86
625.046	22378.15
625.24	22630.05
625.435	21968.56
625.629	22308.52
625.824	22087.34
626.018	21767.86
626.213	21540.54
626.407	21704.37
626.602	21278.4
626.796	21561.01
626.991	21354.17
627.185	21186.24
627.38	21038.78
627.574	21083.84
627.768	20874.95
627.963	20584.13
628.157	20606.66
628.352	20674.24
628.546	20385.48
628.74	20557.51
628.935	20086.48
629.129	20242.12
629.323	20076.24
629.517	19941.07
629.712	19756.75
629.906	19910.35
630.1	19517.14
630.294	19642.07
630.489	19255
630.683	19429.08
630.877	19060.45
631.071	19029.73
631.265	19171.04
631.459	19068.64
631.653	18712.29
631.848	18925.28
632.042	18503.4
632.236	18718.43
632.43	18435.81
632.624	18626.28
632.818	18437.86
633.012	18095.85
633.206	18286.31
633.4	17960.69
633.594	17878.77
633.788	17839.86
633.982	17477.37
634.176	17604.34
634.369	17712.88
634.563	17526.52
634.757	17352.44
634.951	17399.54
635.145	17307.38
635.339	17145.59
635.533	16985.85
635.726	17229.56
635.92	16979.71
636.114	16834.3
636.308	16746.24
636.501	16959.23
636.695	16826.11
636.889	16363.27
637.083	16490.24
637.276	16396.04
637.47	16461.57
637.664	16041.74
637.857	16201.48
638.051	16242.44
638.244	15568.66
638.438	15779.6
638.632	15861.52
638.825	15544.08
639.019	15402.77
639.212	15372.05
639.406	15281.94
639.599	15533.84
639.793	15314.71
639.986	15095.58
640.18	15064.86
640.373	14903.07
640.567	14685.98
640.76	14774.05
640.954	14839.58
641.147	14741.28
641.34	14757.66
641.534	14429.99
641.727	14505.76
641.92	14335.78
642.114	14303.01
642.307	14241.57
642.5	14155.56
642.694	14049.07
642.887	13911.85
643.08	13989.67
643.273	13938.48
643.467	13868.84
643.66	13434.67
643.853	13598.51
644.046	13449.01
644.239	13449.01
644.432	13440.82
644.626	13309.75
644.819	13317.94
645.012	13279.03
645.205	13180.73
645.398	13193.01
645.591	12949.31
645.784	13082.42
645.977	12906.3
646.17	12791.61
646.363	12793.66
646.556	12472.13
646.749	12554.05
646.942	12560.19
647.135	12480.32
647.328	12359.49
647.521	12490.56
647.714	12343.11
647.907	12504.9
648.099	12269.38
648.292	12040.01
648.485	11947.85
648.678	11814.73
648.871	11976.52
649.064	11669.33
649.256	11915.08
649.449	11824.97
649.642	11900.75
649.835	11450.19
650.027	11501.39
650.22	11562.83
650.413	11380.56
650.605	11513.68
650.798	11261.78
650.991	11276.12
651.183	11149.14
651.376	10909.53
651.568	11327.32
651.761	10970.97
651.954	11284.31
652.146	11038.55
652.339	10743.64
652.531	10811.23
652.724	10897.24
652.916	10614.62
653.109	10669.92
653.301	10620.77
653.494	10549.09
653.686	10295.14
653.879	10547.04
654.071	10383.2
654.263	10276.71
654.456	10481.5
654.648	10172.26
654.84	10041.19
655.033	10129.25
655.225	9949.03
655.417	9840.49
655.61	10258.28
655.802	9934.7
655.994	9789.29
656.186	9811.82
656.379	9553.77
656.571	9541.49
656.763	9674.6
656.955	9539.44
657.148	9574.25
657.34	9543.53
657.532	9342.83
657.724	9353.07
657.916	9326.45
658.108	9326.45
658.3	9398.13
658.492	9023.35
658.684	9047.93
658.876	9019.25
659.068	9021.3
659.26	8953.72
659.452	8951.67
659.644	9064.31
659.836	8740.73
660.028	8929.14
660.22	8542.08
660.412	8851.32
660.604	8667
660.796	8863.61
660.988	8482.69
661.18	8517.5
661.372	8630.14
661.563	8488.83
661.755	8370.05
661.947	8421.25
662.139	8482.69
662.331	8216.45
662.522	8146.82
662.714	8187.78
662.906	7966.6
663.097	8001.41
663.289	8318.85
663.481	7925.64
663.673	8109.96
663.864	7884.68
664.056	8028.04
664.247	7776.14
664.439	7765.9
664.631	7915.4
664.822	7647.12
665.014	7778.19
665.205	7446.41
665.397	7634.83
665.588	7632.78
665.78	7755.66
665.971	7544.72
666.163	7415.69
666.354	7427.98
666.546	7532.43
666.737	7409.55
666.929	7305.1
667.12	7327.63
667.311	7225.23
667.503	7204.75
667.694	7421.84
667.885	7225.23
668.077	7165.84
668.268	7059.35
668.459	6952.85
668.651	6975.38
668.842	7032.72
669.033	6961.05
669.224	6895.51
669.416	7010.2
669.607	6885.27
669.798	6748.06
669.989	6885.27
670.18	6746.01
670.371	6750.1
670.563	6690.71
670.754	6774.68
670.945	6555.55
671.136	6778.78
671.327	6592.41
671.518	6621.08
671.709	6604.7
671.9	6561.69
672.091	6408.09
672.282	6563.74
672.473	6600.6
672.664	6289.31
672.855	6322.08
673.046	6320.03
673.237	6590.36
673.428	6336.42
673.619	6457.25
673.809	6342.56
674	6274.98
674.191	6145.95
674.382	6141.86
674.573	6246.3
674.764	6156.19
674.954	6166.43
675.145	6012.84
675.336	6041.51
675.527	6164.39
675.717	6010.79
675.908	6045.6
676.099	6000.55
676.289	5984.16
676.48	6051.75
676.671	6051.75
676.861	6045.6
677.052	5955.49
677.243	5789.61
677.433	5939.11
677.624	5842.85
677.814	5918.63
678.005	5769.13
678.195	5830.57
678.386	5683.11
678.576	5642.15
678.767	5613.48
678.957	5681.07
679.148	5762.98
679.338	5644.2
679.529	5494.7
679.719	5654.44
679.909	5750.7
680.1	5492.65
680.29	5418.93
680.481	5607.34
680.671	5650.35
680.861	5459.88
681.052	5377.97
681.242	5420.97
681.432	5541.8
681.622	5347.25
681.813	5466.03
682.003	5429.17
682.193	5349.29
682.383	5535.66
682.573	5337.01
682.764	5410.73
682.954	5332.91
683.144	5380.01
683.334	5345.2
683.524	5298.1
683.714	5279.66
683.904	5187.5
684.094	5291.95
684.284	5154.74
684.474	5236.66
684.664	5328.81
684.854	5205.94
685.044	5193.65
685.234	5105.59
685.424	5048.24
685.614	5005.24
685.804	5150.64
685.994	5087.15
686.184	4902.84
686.374	5134.26
686.564	4954.04
686.753	5044.15
686.943	5021.62
687.133	4988.85
687.323	4853.69
687.513	5005.24
687.702	4890.55
687.892	4804.53
688.082	4841.4
688.272	4906.93
688.461	4859.83
688.651	4759.48
688.841	4773.82
689.03	4700.09
689.22	4751.29
689.41	4734.9
689.599	4706.23
689.789	4706.23
689.979	4476.86
690.168	4665.27
690.358	4523.96
690.547	4624.31
690.737	4689.85
690.926	4530.11
691.116	4517.82
691.305	4739
691.495	4411.32
691.684	4440
691.874	4603.83
692.063	4483
692.252	4419.52
692.442	4274.11
692.631	4337.6
692.82	4353.98
693.01	4274.11
693.199	4331.45
693.388	4179.9
693.578	4171.71
693.767	4313.02
693.956	4220.86
694.146	4188.1
694.335	4192.19
694.524	4202.43
694.713	4157.38
694.902	4179.9
695.092	4224.96
695.281	4075.46
695.47	4214.72
695.659	4102.08
695.848	4085.7
696.037	4184
696.226	4153.28
696.415	3985.35
696.604	4050.88
696.793	3997.63
696.982	3981.25
697.171	4022.21
697.36	3973.06
697.549	4028.35
697.738	3782.6
697.927	3839.94
698.116	4052.93
698.305	3925.96
698.494	3899.33
698.683	3925.96
698.872	3872.71
699.061	3833.8
699.25	3839.94
699.438	3880.9
699.627	3839.94
699.816	3923.91
700.005	3889.09
700.193	3864.52
700.382	3975.11
700.571	3889.09
700.76	3901.38
700.948	3858.37
701.137	3831.75
701.326	3874.76
701.514	3727.3
701.703	3860.42
701.892	3790.79
702.08	3776.45
702.269	3743.69
702.457	3665.86
702.646	3733.45
702.834	3639.24
703.023	3751.88
703.212	3725.26
703.4	3698.63
703.589	3643.34
703.777	3663.82
703.965	3669.96
704.154	3669.96
704.342	3682.25
704.531	3692.49
704.719	3534.79
704.907	3682.25
705.096	3692.49
705.284	3547.08
705.472	3637.19
705.661	3643.34
705.849	3510.22
706.037	3559.37
706.226	3561.42
706.414	3596.23
706.602	3618.76
706.79	3637.19
706.979	3479.5
707.167	3510.22
707.355	3499.98
707.543	3362.76
707.731	3520.46
707.919	3485.64
708.107	3485.64
708.296	3491.79
708.484	3428.3
708.672	3373
708.86	3397.58
709.048	3547.08
709.236	3420.11
709.424	3348.43
709.612	3387.34
709.8	3391.44
709.988	3379.15
710.176	3487.69
710.364	3411.92
710.551	3393.48
710.739	3198.93
710.927	3370.96
711.115	3289.04
711.303	3291.09
711.491	3268.56
711.679	3239.89
711.866	3256.27
712.054	3403.72
712.242	3250.13
712.43	3377.1
712.617	3289.04
712.805	3272.65
712.993	3162.06
713.181	3235.79
713.368	3262.41
713.556	3416.01
713.744	3209.17
713.931	3325.9
714.119	3252.17
714.306	3227.6
714.494	3280.85
714.682	3100.62
714.869	3166.16
715.057	3114.96
715.244	3137.49
715.432	3182.54
715.619	3119.06
715.807	3133.39
715.994	3076.05
716.182	3106.77
716.369	3151.82
716.556	3241.93
716.744	3057.62
716.931	3133.39
717.119	3090.38
717.306	3080.14
717.493	3051.47
717.681	3088.34
717.868	3162.06
718.055	3053.52
718.242	3131.34
718.43	3127.25
718.617	3174.35
718.804	3149.78
718.991	3049.43
719.179	3106.77
719.366	2969.55
719.553	3063.76
719.74	3086.29
719.927	2998.23
720.114	2981.84
720.301	2990.03
720.488	2920.4
720.676	3006.42
720.863	2971.6
721.05	2981.84
721.237	2967.51
721.424	3002.32
721.611	3012.56
721.798	2904.02
721.985	2959.31
722.172	2854.87
722.358	2914.26
722.545	2881.49
722.732	2906.07
722.919	2930.64
723.106	2928.6
723.293	2848.72
723.48	2791.38
723.667	2840.53
723.853	2893.78
724.04	2912.21
724.227	2875.35
724.414	2756.57
724.6	2944.98
724.787	2777.05
724.974	2818
725.161	2807.77
725.347	2772.95
725.534	2820.05
725.72	2871.25
725.907	2944.98
726.094	2854.87
726.28	2850.77
726.467	2877.4
726.653	2772.95
726.84	2846.68
727.027	2830.29
727.213	2715.61
727.4	2760.66
727.586	2865.11
727.773	2762.71
727.959	2758.61
728.145	2707.41
728.332	2742.23
728.518	2756.57
728.705	2895.83
728.891	2809.81
729.077	2600.92
729.264	2643.93
729.45	2672.6
729.636	2746.33
729.823	2791.38
730.009	2699.22
730.195	2709.46
730.382	2750.42
730.568	2854.87
730.754	2691.03
730.94	2676.7
731.126	2709.46
731.313	2699.22
731.499	2584.54
731.685	2682.84
731.871	2758.61
732.057	2650.07
732.243	2666.46
732.429	2701.27
732.615	2738.13
732.801	2797.53
732.987	2664.41
733.173	2633.69
733.359	2584.54
733.545	2662.36
733.731	2680.79
733.917	2588.63
734.103	2664.41
734.289	2537.43
734.475	2578.39
734.661	2688.98
734.847	2576.34
735.033	2602.97
735.219	2576.34
735.404	2574.3
735.59	2514.91
735.776	2480.09
735.962	2551.77
736.148	2478.04
736.333	2633.69
736.519	2660.31
736.705	2588.63
736.89	2478.04
737.076	2541.53
737.262	2463.71
737.447	2482.14
737.633	2371.55
737.819	2426.84
738.004	2527.19
738.19	2432.99
738.375	2475.99
738.561	2482.14
738.747	2523.1
738.932	2363.36
739.118	2580.44
739.303	2355.16
739.489	2504.67
739.674	2361.31
739.859	2398.17
740.045	2430.94
740.23	2398.17
740.416	2355.16
740.601	2406.36
740.786	2316.25
740.972	2422.75
741.157	2420.7
741.342	2244.57
741.528	2344.92
741.713	2322.4
741.898	2346.97
742.084	2365.4
742.269	2379.74
742.454	2215.9
742.639	2392.03
742.824	2199.52
743.01	2281.44
743.195	2277.34
743.38	2240.48
743.565	2265.05
743.75	2179.04
743.935	2293.72
744.12	2289.63
744.305	2193.37
744.49	2230.24
744.675	2152.42
744.86	2220
745.045	2234.33
745.23	2105.31
745.415	2129.89
745.6	2154.46
745.785	2193.37
745.97	2076.64
746.155	2084.83
746.34	2127.84
746.525	2111.46
746.71	2054.11
746.895	2101.22
747.079	2037.73
747.264	2084.83
747.449	2035.68
747.634	2078.69
747.819	2007.01
748.003	2093.02
748.188	1892.32
748.373	2062.3
748.557	1941.47
748.742	1972.19
748.927	1880.04
749.111	1904.61
749.296	1869.8
749.481	1906.66
749.665	1953.76
749.85	1841.12
750.034	1820.64
750.219	1861.6
750.404	1757.16
750.588	1773.54
750.773	1691.62
750.957	1839.08
751.141	1744.87
751.326	1794.02
751.51	1689.57
751.695	1691.62
751.879	1710.05
752.064	1650.66
752.248	1646.57
752.432	1732.58
752.617	1601.51
752.801	1593.32
752.985	1628.14
753.17	1648.61
753.354	1611.75
753.538	1638.37
753.722	1660.9
753.907	1581.03
754.091	1497.07
754.275	1558.5
754.459	1560.55
754.643	1572.84
754.828	1449.96
755.012	1634.28
755.196	1462.25
755.38	1548.26
755.564	1482.73
755.748	1363.95
755.932	1404.91
756.116	1509.35
756.3	1343.47
756.484	1429.48
756.668	1382.38
756.852	1376.23
757.036	1353.71
757.22	1347.56
757.404	1400.81
757.588	1273.84
757.772	1370.09
757.956	1370.09
758.14	1294.32
758.323	1286.12
758.507	1380.33
758.691	1339.37
758.875	1224.69
759.059	1308.65
759.242	1228.78
759.426	1175.53
759.61	1208.3
759.794	1177.58
759.977	1259.5
760.161	1331.18
760.345	1218.54
760.528	1284.08
760.712	1224.69
760.895	1191.92
761.079	1200.11
761.263	1103.86
761.446	1228.78
761.63	1241.07
761.813	1216.49
761.997	1126.38
762.18	1159.15
762.364	1265.64
762.547	1120.24
762.731	1103.86
762.914	1138.67
763.098	1110
763.281	1138.67
763.464	1085.42
763.648	1013.74
763.831	1083.38
764.015	1085.42
764.198	1091.57
764.381	1167.34
764.564	1028.08
764.748	1093.62
764.931	1146.86
765.114	1028.08
765.297	1048.56
765.481	1003.5
765.664	1046.51
765.847	1118.19
766.03	1069.04
766.213	1052.66
766.397	1011.7
766.58	1032.18
766.763	1032.18
766.946	995.31
767.129	980.98
767.312	907.25
767.495	995.31
767.678	966.64
767.861	948.21
768.044	1050.61
768.227	1028.08
768.41	987.12
768.593	905.2
768.776	974.83
768.959	880.63
769.142	921.59
769.324	983.02
769.507	993.26
769.69	964.59
769.873	909.3
770.056	1019.89
770.239	870.39
770.421	962.55
770.604	905.2
770.787	866.29
770.97	950.26
771.152	933.87
771.335	919.54
771.518	825.33
771.7	956.4
771.883	921.59
772.066	831.48
772.248	884.72
772.431	890.87
772.613	856.05
772.796	880.63
772.978	839.67
773.161	829.43
773.343	880.63
773.526	868.34
773.708	767.99
773.891	800.76
774.073	866.29
774.256	827.38
774.438	792.56
774.621	835.57
774.803	876.53
774.985	765.94
775.168	800.76
775.35	755.7
775.532	776.18
775.715	788.47
775.897	757.75
776.079	747.51
776.261	757.75
776.444	815.09
776.626	782.32
776.808	765.94
776.99	716.79
777.173	757.75
777.355	661.49
777.537	755.7
777.719	696.31
777.901	755.7
778.083	776.18
778.265	622.58
778.447	634.87
778.629	626.68
778.811	739.32
778.993	595.96
779.175	659.45
779.357	636.92
779.539	620.53
779.721	651.25
779.903	618.49
780.085	604.15
780.267	735.22
780.449	643.06
780.631	645.11
780.812	702.45
780.994	563.19
781.176	604.15
781.358	561.14
781.54	563.19
781.721	548.86
781.903	569.34
782.085	571.38
782.267	569.34
782.448	503.8
782.63	563.19
782.812	610.29
782.993	511.99
783.175	569.34
783.357	522.23
783.538	528.38
783.72	536.57
783.901	419.83
784.083	561.14
784.264	524.28
784.446	473.08
784.627	454.65
784.809	497.66
784.99	536.57
785.172	464.89
785.353	522.23
785.535	503.8
785.716	438.27
785.897	397.31
786.079	520.18
786.26	409.59
786.441	462.84
786.623	495.61
786.804	393.21
786.985	432.12
787.167	409.59
787.348	432.12
787.529	481.27
787.71	442.36
787.891	481.27
788.073	409.59
788.254	393.21
788.435	407.55
788.616	376.83
788.797	434.17
788.978	413.69
789.159	432.12
789.34	430.07
789.522	528.38
789.703	339.96
789.884	403.45
790.065	393.21
790.246	458.74
790.427	339.96
790.607	442.36
790.788	411.64
790.969	309.24
791.15	413.69
791.331	315.39
791.512	360.44
791.693	342.01
791.874	315.39
792.054	462.84
792.235	417.79
792.416	409.59
792.597	417.79
792.778	358.39
792.958	337.91
793.139	315.39
793.32	333.82
793.5	368.63
793.681	360.44
793.862	352.25
794.042	364.54
794.223	319.48
794.404	352.25
794.584	204.8
794.765	262.14
794.945	348.15
795.126	307.2
795.306	309.24
795.487	307.2
795.667	266.24
795.848	317.44
796.028	286.72
796.209	331.77
796.389	372.73
796.57	307.2
796.75	274.43
796.93	276.48
797.111	217.08
797.291	243.71
797.471	241.66
797.652	299
797.832	221.18
798.012	299
798.192	235.52
798.373	262.14
798.553	227.32
798.733	288.76
798.913	315.39
799.093	376.83
799.274	247.8
799.454	249.85
799.634	266.24
799.814	301.05
799.994	339.96
800.174	284.67
800.354	313.34
800.534	223.23
800.714	196.6
800.894	290.81
801.074	133.12
801.254	299
801.434	212.99
801.614	204.8
801.794	192.51
801.974	798.71
802.154	208.89
802.334	217.08
802.514	184.32
802.693	290.81
802.873	268.28
803.053	225.28
803.233	217.08
803.413	264.19
803.592	249.85
803.772	237.56
803.952	161.79
804.131	217.08
804.311	167.93
804.491	180.22
804.67	206.84
804.85	200.7
805.03	184.32
805.209	219.13
805.389	200.7
805.568	147.45
805.748	157.69
805.928	188.41
806.107	198.65
806.287	229.37
806.466	159.74
806.646	192.51
806.825	206.84
807.004	174.08
807.184	143.36
807.363	184.32
807.543	194.56
807.722	126.97
807.901	210.94
808.081	200.7
808.26	188.41
808.439	174.08
808.619	178.17
808.798	137.21
808.977	253.95
809.156	196.6
809.336	188.41
809.515	157.69
809.694	249.85
809.873	167.93
810.052	178.17
810.231	169.98
810.411	149.5
810.59	233.47
810.769	155.65
810.948	194.56
811.127	229.37
811.306	143.36
811.485	120.83
811.664	194.56
811.843	167.93
812.022	258.04
812.201	63.49
812.38	249.85
812.559	147.45
812.737	159.74
812.916	102.4
813.095	118.78
813.274	112.64
813.453	116.73
813.632	178.17
813.811	169.98
813.989	106.49
814.168	188.41
814.347	180.22
814.526	77.82
814.704	229.37
814.883	96.25
815.062	118.78
815.24	143.36
815.419	180.22
815.598	153.6
815.776	120.83
815.955	100.35
816.133	71.68
816.312	180.22
816.49	59.39
816.669	94.21
816.847	86.01
817.026	131.07
817.204	71.68
817.383	102.4
817.561	178.17
817.74	133.12
817.918	165.89
818.097	139.26
818.275	118.78
818.453	94.21
818.632	176.13
818.81	135.17
818.988	147.45
819.167	135.17
819.345	192.51
819.523	96.25
819.701	135.17
819.879	145.41
820.058	122.88
820.236	110.59
820.414	151.55
820.592	102.4
820.77	180.22
820.948	126.97
821.127	114.69
821.305	102.4
821.483	96.25
821.661	241.66
821.839	118.78
822.017	61.44
822.195	71.68
822.373	176.13
822.551	145.41
822.729	196.6
822.907	129.02
823.085	118.78
823.262	139.26
823.44	94.21
823.618	61.44
823.796	131.07
823.974	102.4
824.152	92.16
824.329	163.84
824.507	47.1
824.685	57.34
824.863	141.31
825.04	131.07
825.218	135.17
825.396	38.91
825.574	194.56
825.751	65.53
825.929	61.44
826.107	55.3
826.284	124.93
826.462	165.89
826.639	133.12
826.817	122.88
826.994	88.06
827.172	79.87
827.349	98.3
827.527	75.77
827.704	102.4
827.882	178.17
828.059	83.97
828.237	45.06
828.414	96.25
828.591	55.3
828.769	30.72
828.946	77.82
829.124	126.97
829.301	81.92
829.478	200.7
829.655	90.11
829.833	73.73
830.01	20.48
830.187	90.11
830.364	120.83
830.542	61.44
830.719	75.77
830.896	90.11
831.073	51.2
831.25	118.78
831.427	45.06
831.604	151.55
831.782	40.96
831.959	38.91
832.136	69.63
832.313	61.44
832.49	63.49
832.667	18.43
832.844	-30.72
833.021	90.11
833.198	67.58
833.374	135.17
833.551	77.82
833.728	55.3
833.905	49.15
834.082	104.45
834.259	73.73
834.436	75.77
834.612	104.45
834.789	-4.1
834.966	8.19
835.143	38.91
835.319	63.49
835.496	126.97
835.673	47.1
835.85	100.35
836.026	79.87
836.203	63.49
836.38	65.53
836.556	-8.19
836.733	57.34
836.909	-12.29
837.086	-20.48
837.262	20.48
837.439	55.3
837.616	49.15
837.792	-0
837.968	61.44
838.145	34.82
838.321	81.92
838.498	6.14
838.674	63.49
838.851	38.91
839.027	61.44
839.203	-12.29
839.38	49.15
839.556	20.48
839.732	65.53
839.909	55.3
840.085	83.97
840.261	63.49
840.437	36.86
840.614	40.96
840.79	67.58
840.966	47.1
841.142	110.59
841.318	-10.24
841.494	88.06
841.671	71.68
841.847	77.82
842.023	12.29
842.199	92.16
842.375	86.01
842.551	-14.34
842.727	24.58
842.903	36.86
843.079	59.39
843.255	16.38
843.431	-10.24
843.607	12.29
843.783	81.92
843.959	55.3
844.134	90.11
844.31	65.53
844.486	38.91
844.662	14.34
844.838	81.92
845.013	18.43
845.189	24.58
845.365	88.06
845.541	47.1
845.716	-4.1
845.892	77.82
846.068	55.3
846.244	-4.1
846.419	71.68
846.595	110.59
846.77	-20.48
846.946	12.29
847.122	-2.05
847.297	-28.67
847.473	79.87
847.648	110.59
847.824	77.82
847.999	-0
848.175	-22.53
848.35	-2.05
848.526	12.29
848.701	53.25
848.876	28.67
849.052	6.14
849.227	14.34
849.403	8.19
849.578	-0
849.753	71.68
849.929	104.45
850.104	-4.1
850.279	6.14
850.454	61.44
850.63	40.96
850.805	32.77
850.98	18.43
851.155	22.53
851.33	14.34
851.505	4.1
851.681	163.84
851.856	32.77
852.031	65.53
852.206	14.34
852.381	45.06
852.556	53.25
852.731	69.63
852.906	-8.19
853.081	61.44
853.256	79.87
853.431	-43.01
853.606	-10.24
853.781	-16.38
853.956	36.86
854.131	104.45
854.305	16.38
854.48	14.34
854.655	-4.1
854.83	16.38
855.005	18.43
855.18	14.34
855.354	34.82
855.529	81.92
855.704	18.43
855.879	53.25
856.053	-2.05
856.228	24.58
856.403	4.1
856.577	126.97
856.752	-0
856.926	28.67
857.101	12.29
857.276	-53.25
857.45	-28.67
857.625	75.77
857.799	18.43
857.974	-32.77
858.148	-57.34
858.323	98.3
858.497	-16.38
858.672	28.67
858.846	81.92
859.02	88.06
859.195	-36.86
859.369	-16.38
859.543	45.06
859.718	22.53
859.892	-10.24
860.066	-8.19
860.241	-20.48
860.415	18.43
860.589	36.86
860.763	6.14
860.938	24.58
861.112	69.63
861.286	-12.29
861.46	10.24
861.634	22.53
861.808	129.02
861.982	22.53
862.157	-75.77
862.331	-61.44
862.505	8.19
862.679	-4.1
862.853	59.39
863.027	-53.25
863.201	14.34
863.375	49.15
863.549	28.67
863.722	-28.67
863.896	36.86
864.07	-24.58
864.244	-30.72
864.418	38.91
864.592	-22.53
864.766	45.06
864.939	-10.24
865.113	12.29
865.287	71.68
865.461	6.14
865.634	-65.54
865.808	40.96
865.982	-0
866.156	16.38
866.329	-6.14
866.503	79.87
866.676	24.58
866.85	28.67
867.024	-0
867.197	38.91
867.371	14.34
867.544	-2.05
867.718	24.58
867.891	12.29
868.065	12.29
868.238	8.19
868.412	-24.58
868.585	-12.29
868.759	-18.43
868.932	20.48
869.105	-12.29
869.279	-18.43
869.452	-6.14
869.625	-45.06
869.799	16.38
869.972	-2.05
870.145	-65.54
870.319	4.1
870.492	-16.38
870.665	-34.82
870.838	16.38
871.011	-34.82
871.185	10.24
871.358	-53.25
871.531	4.1
871.704	-0
871.877	4.1
872.05	-53.25
872.223	-24.58
872.396	86.01
872.569	-10.24
872.742	-30.72
872.915	94.21
873.088	71.68
873.261	-20.48
873.434	-18.43
873.607	14.34
873.78	-22.53
873.953	20.48
874.126	-0
874.299	-10.24
874.471	-2.05
874.644	-22.53
874.817	40.96
874.99	20.48
875.163	81.92
875.335	-28.67
875.508	28.67
875.681	18.43
875.853	-32.77
876.026	28.67
876.199	53.25
876.371	38.91
876.544	4.1
876.717	-26.62
876.889	20.48
877.062	47.1
877.234	6.14
877.407	-69.63
877.579	-4.1
877.752	12.29
877.924	22.53
878.097	18.43
878.269	30.72
878.442	12.29
878.614	-32.77
878.786	30.72
878.959	24.58
879.131	-34.82
879.303	-18.43
879.476	8.19
879.648	22.53
879.82	14.34
879.993	-34.82
880.165	-51.2
880.337	-40.96
880.509	-18.43
880.681	-61.44
880.854	-28.67
881.026	26.62
881.198	6.14
881.37	-57.34
881.542	-61.44
881.714	-4.1
881.886	-88.06
882.058	8.19
882.23	47.1
882.402	53.25
882.574	47.1
882.746	-38.91
882.918	86.01
883.09	-30.72
883.262	-20.48
883.434	20.48
883.606	-79.87
883.778	-2.05
883.95	-0
884.122	-32.77
884.293	51.2
884.465	4.1
884.637	-26.62
884.809	-47.1
884.98	36.86
885.152	12.29
885.324	36.86
885.496	-12.29
885.667	49.15
885.839	12.29
886.011	6.14
886.182	-2.05
886.354	40.96
886.525	4.1
886.697	22.53
886.869	-20.48
887.04	-2.05
887.212	53.25
887.383	43.01
887.555	4.1
887.726	45.06
887.897	-45.06
888.069	57.34
888.24	40.96
888.412	22.53
888.583	20.48
888.754	-2.05
888.926	-47.1
889.097	-73.73
889.268	-40.96
889.44	-67.58
889.611	-53.25
889.782	-16.38
889.953	-83.97
890.125	-10.24
890.296	-24.58
890.467	61.44
890.638	30.72
890.809	-16.38
890.98	14.34
891.151	-4.1
891.323	12.29
891.494	26.62
891.665	-4.1
891.836	71.68
892.007	-4.1
892.178	45.06
892.349	24.58
892.52	4.1
892.691	22.53
892.862	28.67
893.032	-40.96
893.203	-24.58
893.374	-10.24
893.545	4.1
893.716	-53.25
893.887	30.72
894.057	-28.67
894.228	-24.58
894.399	-49.15
894.57	-43.01
894.74	12.29
894.911	-20.48
895.082	-83.97
895.253	-12.29
895.423	-81.92
895.594	20.48
895.764	47.1
895.935	-24.58
896.106	6.14
896.276	-26.62
896.447	53.25
896.617	-26.62
896.788	-38.91
896.958	2.05
897.129	12.29
897.299	-6.14
897.47	55.3
897.64	61.44
897.81	8.19
897.981	22.53
898.151	-12.29
898.322	-30.72
898.492	53.25
898.662	38.91
898.832	-28.67
899.003	65.53
899.173	45.06
899.343	8.19
899.513	-51.2
