Data from USB4F104151__20__14-16-09-579.txt Node

Date: Thu Mar 13 14:16:09 EDT 2025
User: louis
Spectrometer: USB4F10415
Trigger mode: 4
Integration Time (sec): 2.000000E-2
Scans to average: 1
Electric dark correction enabled: true
Nonlinearity correction enabled: false
Boxcar width: 0
XAxis mode: Wavelengths
Number of Pixels in Spectrum: 3648
>>>>>Begin Spectral Data<<<<<
178.204	-130.05
178.424	-130.05
178.644	-130.05
178.864	-111.61
179.084	-99.33
179.304	31.74
179.524	-17.41
179.744	-29.7
179.964	-5.12
180.184	-25.6
180.404	37.89
180.624	82.94
180.844	31.74
181.064	-54.27
181.283	-29.7
181.503	-46.08
181.723	23.55
181.943	-107.52
182.163	56.32
182.383	-17.41
182.602	-25.6
182.822	50.18
183.042	31.74
183.262	1.02
183.482	-1.02
183.701	48.13
183.921	5.12
184.141	-82.94
184.361	15.36
184.58	23.55
184.8	-74.75
185.02	44.03
185.239	25.6
185.459	101.37
185.679	48.13
185.898	-80.89
186.118	-17.41
186.338	11.26
186.557	60.42
186.777	-33.79
186.997	17.41
187.216	56.32
187.436	23.55
187.655	33.79
187.875	-25.6
188.095	-29.7
188.314	44.03
188.534	39.94
188.753	-5.12
188.973	19.46
189.192	93.18
189.412	13.31
189.631	23.55
189.851	-1.02
190.07	-1.02
190.29	-97.28
190.509	3.07
190.729	-41.98
190.948	58.37
191.168	179.2
191.387	13.31
191.607	15.36
191.826	37.89
192.045	60.42
192.265	7.17
192.484	-15.36
192.704	33.79
192.923	-54.27
193.142	48.13
193.362	103.42
193.581	31.74
193.8	56.32
194.02	89.09
194.239	27.65
194.458	58.37
194.678	27.65
194.897	-19.46
195.116	-23.55
195.335	-7.17
195.555	31.74
195.774	-62.46
195.993	-46.08
196.212	9.22
196.432	33.79
196.651	5.12
196.87	-13.31
197.089	166.91
197.308	91.13
197.528	52.22
197.747	-17.41
197.966	1.02
198.185	150.53
198.404	72.7
198.623	107.52
198.842	91.13
199.062	1.02
199.281	121.85
199.5	48.13
199.719	50.18
199.938	119.81
200.157	31.74
200.376	56.32
200.595	66.56
200.814	84.99
201.033	7.17
201.252	-7.17
201.471	27.65
201.69	39.94
201.909	19.46
202.128	62.46
202.347	72.7
202.566	-25.6
202.785	-37.89
203.004	-11.26
203.223	89.09
203.442	9.22
203.661	-25.6
203.879	15.36
204.098	13.31
204.317	48.13
204.536	56.32
204.755	23.55
204.974	48.13
205.193	56.32
205.411	68.61
205.63	-17.41
205.849	-25.6
206.068	-60.42
206.287	44.03
206.505	48.13
206.724	-5.12
206.943	68.61
207.162	5.12
207.381	25.6
207.599	-7.17
207.818	48.13
208.037	3.07
208.255	15.36
208.474	-23.55
208.693	17.41
208.911	7.17
209.13	107.52
209.349	52.22
209.567	-19.46
209.786	-17.41
210.005	39.94
210.223	72.7
210.442	-37.89
210.661	9.22
210.879	-19.46
211.098	62.46
211.316	35.84
211.535	87.04
211.753	-70.65
211.972	-56.32
212.191	-15.36
212.409	-107.52
212.628	-11.26
212.846	74.75
213.065	-5.12
213.283	37.89
213.502	15.36
213.72	31.74
213.938	23.55
214.157	9.22
214.375	74.75
214.594	13.31
214.812	50.18
215.031	3.07
215.249	44.03
215.467	-17.41
215.686	66.56
215.904	62.46
216.122	-76.8
216.341	91.13
216.559	35.84
216.778	-9.22
216.996	58.37
217.214	48.13
217.432	60.42
217.651	56.32
217.869	-3.07
218.087	23.55
218.306	23.55
218.524	82.94
218.742	-25.6
218.96	5.12
219.179	-13.31
219.397	7.17
219.615	54.27
219.833	7.17
220.051	-9.22
220.27	74.75
220.488	-29.7
220.706	27.65
220.924	19.46
221.142	-58.37
221.36	62.46
221.578	-17.41
221.796	37.89
222.015	39.94
222.233	-1.02
222.451	80.89
222.669	-50.18
222.887	62.46
223.105	-33.79
223.323	5.12
223.541	-13.31
223.759	7.17
223.977	-9.22
224.195	-15.36
224.413	48.13
224.631	-5.12
224.849	91.13
225.067	132.09
225.285	1.02
225.503	9.22
225.721	-105.47
225.939	-1.02
226.157	60.42
226.375	41.98
226.592	56.32
226.81	56.32
227.028	19.46
227.246	99.33
227.464	-3.07
227.682	39.94
227.9	7.17
228.117	33.79
228.335	60.42
228.553	-1.02
228.771	5.12
228.989	-58.37
229.206	7.17
229.424	-7.17
229.642	5.12
229.86	89.09
230.077	39.94
230.295	19.46
230.513	109.57
230.731	25.6
230.948	-3.07
231.166	58.37
231.384	56.32
231.601	52.22
231.819	1.02
232.037	1.02
232.254	29.7
232.472	80.89
232.689	46.08
232.907	93.18
233.125	48.13
233.342	25.6
233.56	-5.12
233.777	-31.74
233.995	41.98
234.213	74.75
234.43	-9.22
234.648	41.98
234.865	-9.22
235.083	78.85
235.3	39.94
235.518	64.51
235.735	21.5
235.953	-1.02
236.17	37.89
236.388	5.12
236.605	9.22
236.822	-50.18
237.04	48.13
237.257	-54.27
237.475	-17.41
237.692	80.89
237.909	-27.65
238.127	29.7
238.344	78.85
238.562	35.84
238.779	21.5
238.996	-64.51
239.214	31.74
239.431	105.47
239.648	-41.98
239.865	60.42
240.083	121.85
240.3	-41.98
240.517	21.5
240.735	-25.6
240.952	72.7
241.169	27.65
241.386	35.84
241.603	54.27
241.821	-29.7
242.038	-15.36
242.255	-39.94
242.472	-17.41
242.689	15.36
242.907	64.51
243.124	125.95
243.341	-7.17
243.558	66.56
243.775	-17.41
243.992	17.41
244.209	35.84
244.426	171.01
244.643	-7.17
244.86	23.55
245.078	-3.07
245.295	39.94
245.512	27.65
245.729	-27.65
245.946	31.74
246.163	-7.17
246.38	66.56
246.597	35.84
246.814	-27.65
247.031	31.74
247.248	89.09
247.464	-3.07
247.681	56.32
247.898	-17.41
248.115	44.03
248.332	-50.18
248.549	93.18
248.766	44.03
248.983	80.89
249.2	74.75
249.417	80.89
249.633	72.7
249.85	97.28
250.067	58.37
250.284	23.55
250.501	41.98
250.717	99.33
250.934	13.31
251.151	48.13
251.368	7.17
251.585	56.32
251.801	52.22
252.018	50.18
252.235	33.79
252.451	-23.55
252.668	58.37
252.885	-46.08
253.102	15.36
253.318	7.17
253.535	80.89
253.752	23.55
253.968	-41.98
254.185	56.32
254.401	11.26
254.618	-17.41
254.835	41.98
255.051	-5.12
255.268	60.42
255.484	64.51
255.701	3.07
255.917	7.17
256.134	-15.36
256.351	50.18
256.567	11.26
256.784	23.55
257	-91.13
257.217	99.33
257.433	48.13
257.65	99.33
257.866	109.57
258.082	39.94
258.299	-5.12
258.515	84.99
258.732	-21.5
258.948	-1.02
259.165	17.41
259.381	-15.36
259.597	50.18
259.814	23.55
260.03	-23.55
260.246	-15.36
260.463	33.79
260.679	78.85
260.895	60.42
261.112	25.6
261.328	19.46
261.544	46.08
261.761	33.79
261.977	87.04
262.193	3.07
262.409	52.22
262.626	84.99
262.842	15.36
263.058	-25.6
263.274	9.22
263.49	11.26
263.707	25.6
263.923	31.74
264.139	23.55
264.355	7.17
264.571	56.32
264.787	-5.12
265.004	54.27
265.22	35.84
265.436	39.94
265.652	89.09
265.868	68.61
266.084	-56.32
266.3	44.03
266.516	3.07
266.732	3.07
266.948	52.22
267.164	15.36
267.38	44.03
267.596	31.74
267.812	99.33
268.028	46.08
268.244	23.55
268.46	-9.22
268.676	-5.12
268.892	66.56
269.108	27.65
269.324	-41.98
269.54	-87.04
269.756	39.94
269.972	13.31
270.188	23.55
270.403	-78.85
270.619	33.79
270.835	64.51
271.051	44.03
271.267	5.12
271.483	-15.36
271.698	-17.41
271.914	-64.51
272.13	19.46
272.346	11.26
272.562	-37.89
272.777	23.55
272.993	3.07
273.209	84.99
273.425	56.32
273.64	-11.26
273.856	56.32
274.072	-3.07
274.287	19.46
274.503	-5.12
274.719	64.51
274.934	31.74
275.15	9.22
275.366	64.51
275.581	-15.36
275.797	25.6
276.012	-72.7
276.228	41.98
276.444	7.17
276.659	113.66
276.875	-5.12
277.09	31.74
277.306	68.61
277.521	-44.03
277.737	-25.6
277.952	93.18
278.168	39.94
278.383	17.41
278.599	-46.08
278.814	70.65
279.03	7.17
279.245	39.94
279.461	-1.02
279.676	-1.02
279.892	50.18
280.107	15.36
280.322	-1.02
280.538	52.22
280.753	5.12
280.969	31.74
281.184	56.32
281.399	41.98
281.615	33.79
281.83	60.42
282.045	-17.41
282.26	-19.46
282.476	29.7
282.691	54.27
282.906	35.84
283.122	-9.22
283.337	37.89
283.552	-25.6
283.767	3.07
283.983	68.61
284.198	68.61
284.413	48.13
284.628	17.41
284.843	25.6
285.058	44.03
285.274	9.22
285.489	-7.17
285.704	60.42
285.919	37.89
286.134	25.6
286.349	25.6
286.564	19.46
286.779	68.61
286.995	91.13
287.21	-37.89
287.425	58.37
287.64	46.08
287.855	87.04
288.07	-41.98
288.285	37.89
288.5	74.75
288.715	76.8
288.93	1.02
289.145	31.74
289.36	17.41
289.575	31.74
289.79	11.26
290.004	54.27
290.219	41.98
290.434	58.37
290.649	-27.65
290.864	50.18
291.079	7.17
291.294	27.65
291.509	48.13
291.724	89.09
291.938	52.22
292.153	84.99
292.368	-15.36
292.583	48.13
292.798	-1.02
293.012	56.32
293.227	113.66
293.442	23.55
293.657	52.22
293.871	68.61
294.086	-13.31
294.301	117.76
294.516	11.26
294.73	39.94
294.945	-48.13
295.16	17.41
295.374	64.51
295.589	-5.12
295.804	-23.55
296.018	56.32
296.233	9.22
296.447	91.13
296.662	-66.56
296.877	93.18
297.091	5.12
297.306	80.89
297.52	9.22
297.735	89.09
297.949	27.65
298.164	48.13
298.378	33.79
298.593	50.18
298.807	-15.36
299.022	76.8
299.236	76.8
299.451	1.02
299.665	-17.41
299.88	115.71
300.094	-9.22
300.309	-13.31
300.523	48.13
300.737	31.74
300.952	58.37
301.166	1.02
301.381	-17.41
301.595	9.22
301.809	27.65
302.024	64.51
302.238	31.74
302.452	39.94
302.667	-25.6
302.881	44.03
303.095	56.32
303.309	11.26
303.524	25.6
303.738	115.71
303.952	15.36
304.166	72.7
304.381	3.07
304.595	58.37
304.809	1.02
305.023	25.6
305.237	31.74
305.452	76.8
305.666	56.32
305.88	56.32
306.094	39.94
306.308	33.79
306.522	17.41
306.736	19.46
306.95	9.22
307.164	23.55
307.379	-1.02
307.593	78.85
307.807	56.32
308.021	31.74
308.235	23.55
308.449	-13.31
308.663	29.7
308.877	82.94
309.091	-11.26
309.305	41.98
309.519	68.61
309.733	31.74
309.947	-5.12
310.161	80.89
310.374	66.56
310.588	76.8
310.802	48.13
311.016	44.03
311.23	19.46
311.444	58.37
311.658	29.7
311.872	80.89
312.085	60.42
312.299	54.27
312.513	31.74
312.727	74.75
312.941	-78.85
313.154	15.36
313.368	66.56
313.582	76.8
313.796	-17.41
314.009	15.36
314.223	-17.41
314.437	72.7
314.651	11.26
314.864	17.41
315.078	23.55
315.292	1.02
315.505	-33.79
315.719	35.84
315.933	72.7
316.146	-33.79
316.36	-9.22
316.573	78.85
316.787	17.41
317.001	29.7
317.214	-66.56
317.428	11.26
317.641	-11.26
317.855	31.74
318.068	7.17
318.282	27.65
318.495	31.74
318.709	-54.27
318.922	3.07
319.136	121.85
319.349	105.47
319.563	82.94
319.776	33.79
319.99	-39.94
320.203	27.65
320.417	-9.22
320.63	-9.22
320.843	89.09
321.057	109.57
321.27	-41.98
321.483	9.22
321.697	99.33
321.91	87.04
322.124	60.42
322.337	35.84
322.55	31.74
322.763	9.22
322.977	48.13
323.19	19.46
323.403	76.8
323.617	50.18
323.83	82.94
324.043	87.04
324.256	64.51
324.469	-48.13
324.683	17.41
324.896	9.22
325.109	21.5
325.322	-25.6
325.535	11.26
325.748	3.07
325.962	89.09
326.175	72.7
326.388	25.6
326.601	7.17
326.814	41.98
327.027	-33.79
327.24	74.75
327.453	-11.26
327.666	31.74
327.879	111.61
328.092	39.94
328.305	7.17
328.518	-37.89
328.731	13.31
328.944	-9.22
329.157	21.5
329.37	7.17
329.583	60.42
329.796	64.51
330.009	3.07
330.222	56.32
330.435	91.13
330.648	23.55
330.861	82.94
331.073	72.7
331.286	93.18
331.499	1.02
331.712	17.41
331.925	64.51
332.138	89.09
332.35	66.56
332.563	58.37
332.776	35.84
332.989	58.37
333.202	58.37
333.414	31.74
333.627	1.02
333.84	82.94
334.053	41.98
334.265	41.98
334.478	-1.02
334.691	7.17
334.903	23.55
335.116	3.07
335.329	56.32
335.541	54.27
335.754	39.94
335.966	9.22
336.179	39.94
336.392	-15.36
336.604	76.8
336.817	44.03
337.029	46.08
337.242	-19.46
337.454	80.89
337.667	62.46
337.88	33.79
338.092	21.5
338.305	60.42
338.517	-19.46
338.729	89.09
338.942	13.31
339.154	15.36
339.367	31.74
339.579	15.36
339.792	31.74
340.004	60.42
340.217	41.98
340.429	1.02
340.641	15.36
340.854	-39.94
341.066	5.12
341.278	103.42
341.491	5.12
341.703	37.89
341.915	66.56
342.128	19.46
342.34	21.5
342.552	-9.22
342.764	74.75
342.977	56.32
343.189	37.89
343.401	7.17
343.613	62.46
343.826	23.55
344.038	-35.84
344.25	60.42
344.462	72.7
344.674	23.55
344.886	19.46
345.099	17.41
345.311	27.65
345.523	72.7
345.735	-48.13
345.947	56.32
346.159	80.89
346.371	27.65
346.583	58.37
346.795	60.42
347.007	146.43
347.219	11.26
347.431	11.26
347.643	70.65
347.855	9.22
348.067	91.13
348.279	-9.22
348.491	35.84
348.703	1.02
348.915	91.13
349.127	-25.6
349.339	107.52
349.551	97.28
349.763	35.84
349.975	52.22
350.187	72.7
350.399	56.32
350.61	35.84
350.822	64.51
351.034	-31.74
351.246	31.74
351.458	15.36
351.669	56.32
351.881	72.7
352.093	9.22
352.305	58.37
352.517	52.22
352.728	48.13
352.94	35.84
353.152	-11.26
353.363	33.79
353.575	25.6
353.787	72.7
353.999	15.36
354.21	76.8
354.422	54.27
354.633	9.22
354.845	23.55
355.057	80.89
355.268	62.46
355.48	72.7
355.692	48.13
355.903	89.09
356.115	-9.22
356.326	9.22
356.538	35.84
356.749	17.41
356.961	27.65
357.172	66.56
357.384	56.32
357.595	132.09
357.807	89.09
358.018	70.65
358.23	25.6
358.441	113.66
358.653	99.33
358.864	35.84
359.075	-9.22
359.287	68.61
359.498	101.37
359.709	23.55
359.921	31.74
360.132	35.84
360.344	76.8
360.555	-44.03
360.766	107.52
360.977	39.94
361.189	19.46
361.4	7.17
361.611	103.42
361.823	173.05
362.034	89.09
362.245	5.12
362.456	25.6
362.667	23.55
362.879	7.17
363.09	35.84
363.301	50.18
363.512	5.12
363.723	84.99
363.935	15.36
364.146	31.74
364.357	64.51
364.568	58.37
364.779	13.31
364.99	27.65
365.201	-15.36
365.412	125.95
365.623	-7.17
365.834	89.09
366.045	19.46
366.256	44.03
366.467	99.33
366.678	25.6
366.889	-25.6
367.1	41.98
367.311	56.32
367.522	39.94
367.733	-9.22
367.944	76.8
368.155	48.13
368.366	50.18
368.577	146.43
368.788	105.47
368.999	-29.7
369.209	76.8
369.42	48.13
369.631	70.65
369.842	31.74
370.053	-29.7
370.264	35.84
370.474	27.65
370.685	35.84
370.896	74.75
371.107	27.65
371.317	66.56
371.528	39.94
371.739	76.8
371.95	33.79
372.16	17.41
372.371	21.5
372.582	-17.41
372.792	109.57
373.003	101.37
373.214	97.28
373.424	138.24
373.635	-50.18
373.846	54.27
374.056	89.09
374.267	64.51
374.477	-3.07
374.688	60.42
374.898	62.46
375.109	25.6
375.319	60.42
375.53	19.46
375.74	70.65
375.951	62.46
376.161	33.79
376.372	60.42
376.582	76.8
376.793	41.98
377.003	31.74
377.214	48.13
377.424	35.84
377.635	31.74
377.845	-37.89
378.055	52.22
378.266	27.65
378.476	58.37
378.686	7.17
378.897	48.13
379.107	9.22
379.317	74.75
379.528	35.84
379.738	107.52
379.948	56.32
380.158	64.51
380.369	39.94
380.579	-23.55
380.789	144.38
380.999	-21.5
381.21	105.47
381.42	44.03
381.63	11.26
381.84	1.02
382.05	31.74
382.261	60.42
382.471	52.22
382.681	56.32
382.891	164.86
383.101	99.33
383.311	23.55
383.521	35.84
383.731	117.76
383.941	74.75
384.151	89.09
384.361	103.42
384.571	-1.02
384.781	48.13
384.991	39.94
385.201	115.71
385.411	31.74
385.621	121.85
385.831	70.65
386.041	99.33
386.251	54.27
386.461	91.13
386.671	56.32
386.881	44.03
387.091	33.79
387.301	64.51
387.511	76.8
387.72	91.13
387.93	142.33
388.14	76.8
388.35	7.17
388.56	23.55
388.769	91.13
388.979	93.18
389.189	87.04
389.399	7.17
389.609	121.85
389.818	136.19
390.028	107.52
390.238	82.94
390.447	9.22
390.657	66.56
390.867	25.6
391.076	56.32
391.286	-50.18
391.496	78.85
391.705	76.8
391.915	97.28
392.125	48.13
392.334	31.74
392.544	66.56
392.753	78.85
392.963	7.17
393.172	62.46
393.382	41.98
393.591	109.57
393.801	52.22
394.01	84.99
394.22	105.47
394.429	33.79
394.639	58.37
394.848	29.7
395.058	68.61
395.267	91.13
395.477	105.47
395.686	138.24
395.895	33.79
396.105	197.63
396.314	80.89
396.524	80.89
396.733	37.89
396.942	107.52
397.152	195.58
397.361	138.24
397.57	105.47
397.78	56.32
397.989	152.57
398.198	158.72
398.407	101.37
398.617	125.95
398.826	60.42
399.035	105.47
399.244	148.48
399.453	113.66
399.663	89.09
399.872	140.29
400.081	156.67
400.29	130.05
400.499	82.94
400.708	132.09
400.917	68.61
401.127	41.98
401.336	121.85
401.545	168.96
401.754	171.01
401.963	125.95
402.172	117.76
402.381	156.67
402.59	113.66
402.799	152.57
403.008	189.44
403.217	162.81
403.426	150.53
403.635	144.38
403.844	123.9
404.053	168.96
404.262	183.29
404.471	193.53
404.68	164.86
404.888	140.29
405.097	121.85
405.306	220.16
405.515	240.64
405.724	168.96
405.933	187.39
406.142	166.91
406.35	257.02
406.559	142.33
406.768	168.96
406.977	226.3
407.185	259.07
407.394	244.73
407.603	211.96
407.812	250.88
408.02	304.12
408.229	302.08
408.438	302.08
408.646	232.44
408.855	257.02
409.064	377.85
409.272	203.77
409.481	318.46
409.69	345.08
409.898	334.84
410.107	334.84
410.315	367.61
410.524	375.8
410.733	367.61
410.941	373.75
411.15	416.76
411.358	445.43
411.567	529.4
411.775	582.65
411.984	510.97
412.192	549.88
412.401	572.41
412.609	615.41
412.818	576.5
413.026	623.61
413.234	572.41
413.443	660.47
413.651	625.65
413.86	625.65
414.068	793.59
414.276	746.48
414.485	637.94
414.693	793.59
414.901	789.49
415.11	781.3
415.318	754.68
415.526	893.94
415.734	926.71
415.943	963.57
416.151	996.34
416.359	916.47
416.567	990.19
416.776	1051.63
416.984	1106.93
417.192	1219.57
417.4	1199.09
417.608	1072.11
417.817	1172.46
418.025	1371.12
418.233	1360.88
418.441	1334.25
418.649	1412.07
418.857	1502.19
419.065	1526.76
419.273	1610.73
419.481	1575.91
419.689	1719.27
419.897	1833.96
420.105	1809.38
420.313	1819.62
420.521	1915.87
420.729	1817.57
420.937	2036.7
421.145	2042.85
421.353	2204.64
421.561	2261.98
421.769	2350.04
421.977	2501.59
422.185	2386.91
422.393	2603.99
422.601	2751.45
422.809	2614.23
423.017	2776.02
423.224	2800.6
423.432	2853.84
423.64	2857.94
423.848	3259.34
424.056	3179.47
424.263	3367.88
424.471	3431.37
424.679	3466.19
424.887	3695.56
425.094	3888.07
425.302	3759.05
425.51	3828.68
425.718	4088.77
425.925	4074.43
426.133	4254.66
426.341	4524.99
426.548	4643.77
426.756	4770.74
426.964	4682.68
427.171	4938.68
427.379	5034.93
427.586	5137.33
427.794	5260.21
428.001	5583.79
428.209	5852.07
428.417	5761.96
428.624	6286.24
428.832	6134.69
429.039	6103.97
429.247	6060.96
429.454	6695.83
429.662	7107.48
429.869	6785.94
430.076	7138.2
430.284	7025.56
430.491	7322.51
430.699	7721.87
430.906	7676.81
431.114	7873.42
431.321	7979.91
431.528	8342.4
431.736	8698.75
431.943	9104.25
432.15	8940.41
432.358	9177.97
432.565	9452.4
432.772	9388.91
432.979	9980.78
433.187	10036.07
433.394	10005.35
433.601	10853.21
433.808	11021.14
434.016	10912.6
434.223	11316.05
434.43	12022.6
434.637	11780.94
434.844	12436.29
435.052	12606.27
435.259	12708.67
435.466	12583.74
435.673	12686.14
435.88	13318.96
436.087	13998.89
436.294	13953.84
436.501	13404.98
436.708	14129.96
436.915	14560.03
437.122	15112.99
437.329	14875.42
437.537	15440.66
437.743	15780.62
437.95	15852.3
438.157	16356.1
438.364	16816.9
438.571	17097.47
438.778	17259.26
438.985	18735.84
439.192	17959.66
439.399	18674.4
439.606	18017.01
439.813	19241.69
440.02	20685.51
440.227	20003.53
440.433	19888.85
440.64	20380.36
440.847	20353.74
441.054	20654.79
441.261	22248.11
441.467	21822.13
441.674	22158
441.881	23063.2
442.088	22946.47
442.294	23106.21
442.501	23394.97
442.708	24009.36
442.914	24849.03
443.121	25762.42
443.328	25072.26
443.534	26800.74
443.741	25999.99
443.948	25635.45
444.154	27458.14
444.361	27310.69
444.568	27562.59
444.774	27523.68
444.981	27746.9
445.187	28424.78
445.394	30067.25
445.6	29872.7
445.807	32723.47
446.013	31275.55
446.22	31578.65
446.426	32780.81
446.633	33335.81
446.839	34456.05
447.046	32819.72
447.252	34621.94
447.459	34660.85
447.665	34507.25
447.871	35652.06
448.078	37435.84
448.284	35899.87
448.491	37050.83
448.697	37933.5
448.903	39152.04
449.11	38912.43
449.316	38670.77
449.522	38709.68
449.728	39887.26
449.935	40425.88
450.141	40030.62
450.347	40798.61
450.553	39563.68
450.76	40331.67
450.966	41642.37
451.172	41107.85
451.378	42209.66
451.584	41421.19
451.791	42430.84
451.997	42277.24
452.203	42826.1
452.409	42959.22
452.615	42834.29
452.821	40989.07
453.027	40810.9
453.233	42891.63
453.44	41030.03
453.646	41746.82
453.852	41841.03
454.058	42592.63
454.264	41062.8
454.47	42367.35
454.676	41331.08
454.882	42256.76
455.088	38773.17
455.294	39549.35
455.5	40165.79
455.705	40663.44
455.911	38668.72
456.117	37874.11
456.323	37423.56
456.529	35736.03
456.735	37466.56
456.941	36325.85
457.147	35592.67
457.352	34767.34
457.558	34417.14
457.764	34421.23
457.97	33835.52
458.176	33227.27
458.381	33333.76
458.587	31420.96
458.793	31373.86
458.999	30364.21
459.204	31982.1
459.41	31099.43
459.616	28858.95
459.821	29188.67
460.027	28820.04
460.233	28365.39
460.438	27132.51
460.644	27333.21
460.85	26298.99
461.055	25660.02
461.261	25780.85
461.466	23689.88
461.672	22807.2
461.878	24496.78
462.083	23204.51
462.289	22594.22
462.494	22364.84
462.7	21406.39
462.905	20783.81
463.111	21326.52
463.316	21379.77
463.522	21146.3
463.727	21082.81
463.932	21189.31
464.138	20869.83
464.343	20806.34
464.549	20591.3
464.754	20947.65
464.959	20732.61
465.165	20519.62
465.37	19694.29
465.575	19284.7
465.781	20110.03
465.986	20196.04
466.191	19610.32
466.397	19073.76
466.602	18287.34
466.807	18848.48
467.012	19081.95
467.218	18828
467.423	18703.07
467.628	18719.46
467.833	19315.42
468.038	18776.8
468.244	18182.89
468.449	18946.78
468.654	18258.67
468.859	18180.84
469.064	17898.22
469.269	17384.18
469.474	17505.01
469.679	17974
469.885	17134.33
470.09	17718
470.295	17261.3
470.5	17054.46
470.705	17228.54
470.91	16640.77
471.115	16694.02
471.32	16911.1
471.525	16757.5
471.73	16446.21
471.935	16030.48
472.139	15678.22
472.344	16032.52
472.549	15819.53
472.754	15784.72
472.959	15571.73
473.164	14842.65
473.369	14641.95
473.574	15608.59
473.778	15014.68
473.983	15188.76
474.188	14861.09
474.393	14271.27
474.598	14506.79
474.802	13933.36
475.007	14207.78
475.212	14103.34
475.417	13685.55
475.621	13822.77
475.826	13503.28
476.031	13280.05
476.235	13081.4
476.44	13527.86
476.645	13134.65
476.849	13146.94
477.054	13255.48
477.259	12876.6
477.463	12786.49
477.668	12270.4
477.872	12614.46
478.077	12749.63
478.282	12043.08
478.486	12057.42
478.691	12131.14
478.895	11967.31
479.1	11981.64
479.304	11846.48
479.509	11526.99
479.713	11670.35
479.918	11459.41
480.122	11060.06
480.326	11500.37
480.531	11555.66
480.735	11352.91
480.94	11219.8
481.144	11541.33
481.348	11172.69
481.553	11033.43
481.757	11025.24
481.961	11103.06
482.166	11238.23
482.37	11373.39
482.574	11103.06
482.778	11080.53
482.983	11258.71
483.187	11127.64
483.391	11043.67
483.595	10881.88
483.8	10976.09
484.004	11060.06
484.208	11176.79
484.412	11021.14
484.616	10959.7
484.821	10951.51
485.025	10814.3
485.229	11037.53
485.433	10937.18
485.637	10951.51
485.841	10957.66
486.045	10898.27
486.249	10775.39
486.453	10777.44
486.657	10988.38
486.861	10822.49
487.065	10613.6
487.269	10826.59
487.473	10810.2
487.677	10875.74
487.881	11131.73
488.085	10756.96
488.289	11131.73
488.493	10947.42
488.697	10988.38
488.901	11154.26
489.105	10967.9
489.309	10998.62
489.512	10969.94
489.716	11025.24
489.92	10922.84
490.124	11166.55
490.328	11281.24
490.531	11012.95
490.735	11250.52
490.939	11336.53
491.143	11213.65
491.346	11158.36
491.55	11166.55
491.754	11320.15
491.958	11412.31
492.161	11303.76
492.365	11340.63
492.569	11701.07
492.772	11336.53
492.976	11764.56
493.18	11756.36
493.383	11899.72
493.587	11922.25
493.79	11871.05
493.994	11782.99
494.197	12217.16
494.401	12174.15
494.605	12118.86
494.808	12389.19
495.012	12512.07
495.215	12432.19
495.419	12776.25
495.622	12467.01
495.825	12723.01
496.029	12577.6
496.232	12917.56
496.436	12880.7
496.639	13316.92
496.843	13337.4
497.046	13482.8
497.249	13665.07
497.453	13499.19
497.656	13781.81
497.859	13841.2
498.063	13742.89
498.266	14426.92
498.469	14019.37
498.673	14228.26
498.876	14388
499.079	14682.91
499.282	14453.54
499.485	14979.87
499.689	14836.51
499.892	15325.97
500.095	15299.35
500.298	15840.01
500.501	15588.11
500.705	15977.23
500.908	16032.52
501.111	16460.55
501.314	16315.14
501.517	16481.03
501.72	16730.88
501.923	16839.42
502.126	16704.26
502.329	17550.07
502.532	17324.79
502.735	17910.51
502.938	17840.88
503.141	17867.5
503.344	18201.32
503.547	18213.61
503.75	18576.1
503.953	18879.2
504.156	18887.39
504.359	19045.09
504.562	19413.72
504.765	19735.25
504.968	19831.51
505.17	20189.9
505.373	20167.37
505.576	20454.09
505.779	20486.86
505.982	20904.64
506.185	21250.75
506.387	21340.86
506.59	21066.43
506.793	21709.49
506.996	21625.53
507.198	22600.36
507.401	22438.57
507.604	22493.86
507.807	22624.93
508.009	23044.77
508.212	23149.21
508.415	23552.66
508.617	23685.78
508.82	23714.45
509.022	23911.06
509.225	24455.82
509.428	24615.56
509.63	24627.85
509.833	24564.36
510.035	25436.8
510.238	25236.09
510.44	25535.1
510.643	26075.76
510.845	26425.96
511.048	26182.26
511.25	26733.16
511.453	26833.51
511.655	27472.48
511.858	27175.52
512.06	27335.26
512.262	27783.77
512.465	27871.83
512.667	28375.63
512.87	28711.5
513.072	28889.67
513.274	29289.03
513.477	29442.62
513.679	29602.36
513.881	29878.84
514.084	29934.14
514.286	30028.34
514.488	30482.99
514.69	31545.89
514.893	31382.05
515.095	30849.58
515.297	32086.55
515.499	31668.76
515.701	32375.31
515.904	32340.5
516.106	32494.1
516.308	33010.18
516.51	33167.88
516.712	33677.82
516.914	34120.18
517.116	34087.42
517.318	34034.17
517.52	34236.92
517.722	34865.64
517.925	35009
518.127	35768.8
518.329	35684.83
518.531	35518.95
518.733	36248.02
518.935	36473.3
519.136	36553.17
519.338	37065.16
519.54	37198.28
519.742	37370.31
519.944	37519.81
520.146	37978.56
520.348	38087.1
520.55	38326.71
520.752	38431.16
520.954	39008.68
521.155	38965.68
521.357	39713.19
521.559	39506.34
521.761	40438.17
521.963	39979.42
522.164	40100.25
522.366	40696.21
522.568	40907.15
522.77	41021.84
522.971	41636.23
523.173	41560.45
523.375	41922.94
523.576	41415.05
523.778	41951.62
523.98	42101.12
524.181	42666.36
524.383	42510.71
524.584	43213.16
524.786	42948.98
524.988	42903.92
525.189	43467.11
525.391	43897.19
525.592	43770.21
525.794	43764.07
525.995	44028.26
526.197	44263.77
526.398	44396.89
526.6	44677.46
526.801	44460.38
527.003	44779.86
527.204	44656.98
527.406	45721.93
527.607	44994.9
527.808	45617.48
528.01	45150.54
528.211	45142.35
528.412	46377.28
528.614	46303.55
528.815	46033.22
529.016	46254.4
529.218	46102.85
529.419	46084.42
529.62	46422.33
529.822	46346.56
530.023	46430.52
530.224	46174.53
530.425	46469.43
530.626	46027.07
530.828	45961.54
531.029	47352.11
531.23	46043.46
531.431	46633.27
531.632	46737.72
531.833	47169.84
532.035	46926.13
532.236	46905.65
532.437	47483.18
532.638	46575.93
532.839	46883.12
533.04	47280.43
533.241	46702.9
533.442	47614.25
533.643	47175.98
533.844	47524.14
534.045	47182.13
534.246	46661.94
534.447	47436.08
534.648	47126.83
534.849	47352.11
535.05	46958.9
535.251	47249.71
535.451	46997.81
535.652	46874.93
535.853	47063.35
536.054	47036.72
536.255	47210.8
536.456	46707
536.657	47642.92
536.857	46928.18
537.058	46872.88
537.259	47333.68
537.46	47085.87
537.66	47165.74
537.861	47376.69
538.062	47204.66
538.263	47180.08
538.463	47128.88
538.664	46719.29
538.865	47026.48
539.065	47517.99
539.266	46659.9
539.466	47491.37
539.667	47024.43
539.868	47581.48
540.068	47059.25
540.269	46819.64
540.469	47423.79
540.67	46942.52
540.87	46833.97
541.071	46917.94
541.271	47126.83
541.472	46930.23
541.672	46983.48
541.873	46682.42
542.073	46221.63
542.274	47300.91
542.474	46678.33
542.675	46510.39
542.875	47118.64
543.075	46913.84
543.276	46057.79
543.476	47030.58
543.676	46885.17
543.877	46922.04
544.077	46598.46
544.277	46444.86
544.478	46455.1
544.678	46723.38
544.878	46534.97
545.078	46817.59
545.279	46729.53
545.479	46440.76
545.679	47188.27
545.879	46537.02
546.079	46569.79
546.28	46262.59
546.48	46115.14
546.68	46369.08
546.88	46737.72
547.08	46356.8
547.28	46788.92
547.48	45990.21
547.68	46367.04
547.88	46479.67
548.081	46289.21
548.281	46766.39
548.481	46180.67
548.681	46766.39
548.881	46467.39
549.081	46367.04
549.28	46250.3
549.48	46631.22
549.68	46285.12
549.88	46688.57
550.08	45957.44
550.28	46500.15
550.48	46147.9
550.68	46745.91
550.88	45809.99
551.08	45889.86
551.279	46025.03
551.479	46068.03
551.679	46059.84
551.879	46268.73
552.079	46704.95
552.278	46156.1
552.478	45936.96
552.678	45832.52
552.878	46090.56
553.077	45687.11
553.277	45670.73
553.477	46860.6
553.676	45779.27
553.876	45762.89
554.076	45797.7
554.275	45715.78
554.475	45777.22
554.674	45588.81
554.874	45580.62
555.074	45617.48
555.273	45859.14
555.473	46018.88
555.672	45576.52
555.872	45703.49
556.071	45746.5
556.271	45844.8
556.47	45390.16
556.67	45453.64
556.869	45494.6
557.068	45807.94
557.268	45150.54
557.467	45510.99
557.667	45242.7
557.866	45164.88
558.065	45396.3
558.265	45175.12
558.464	45046.1
558.663	45293.9
558.863	44665.17
559.062	45629.77
559.261	44812.63
559.461	45420.87
559.66	44644.69
559.859	45146.45
560.058	44867.92
560.258	44749.14
560.457	44808.53
560.656	44388.7
560.855	44800.34
561.054	44804.44
561.253	44304.73
561.453	44372.31
561.652	44495.19
561.851	44474.71
562.05	44349.79
562.249	43858.27
562.448	44681.56
562.647	44243.29
562.846	44370.27
563.045	44042.59
563.244	43850.08
563.443	44640.6
563.642	43606.37
563.841	44147.04
564.04	43872.61
564.239	43956.58
564.438	43772.26
564.637	43698.53
564.836	43962.72
565.035	43123.05
565.234	43635.05
565.432	43684.2
565.631	42897.78
565.83	43448.68
566.029	43108.72
566.228	43075.95
566.427	43108.72
566.625	43278.7
566.824	42740.08
567.023	42959.22
567.222	42000.77
567.42	42723.7
567.619	42740.08
567.818	42729.84
568.016	42127.74
568.215	42484.09
568.414	42168.7
568.612	42484.09
568.811	42137.98
569.01	42439.03
569.208	41726.34
569.407	42180.99
569.605	41474.44
569.804	41990.53
570.002	41779.59
570.201	41677.19
570.4	41693.57
570.598	41638.28
570.797	41103.76
570.995	41402.76
571.193	40946.06
571.392	41683.33
571.59	41116.04
571.789	41122.19
571.987	40956.3
572.186	40647.06
572.384	40886.67
572.582	40946.06
572.781	40905.1
572.979	40477.08
573.177	40741.27
573.376	40860.05
573.574	39907.74
573.772	40483.22
573.971	39858.59
574.169	40239.51
574.367	39514.53
574.565	39952.8
574.763	39748
574.962	39666.08
575.16	39508.39
575.358	39121.32
575.556	39043.5
575.754	39741.86
575.952	38928.81
576.151	39653.79
576.349	38781.36
576.547	39170.47
576.745	39016.88
576.943	39262.63
577.141	38601.14
577.339	39145.9
577.537	38595
577.735	38742.45
577.933	38474.16
578.131	38736.3
578.329	38422.97
578.527	38074.81
578.725	37972.41
578.923	38302.14
579.121	37941.69
579.319	38046.14
579.516	38271.42
579.714	38154.68
579.912	37317.06
580.11	37530.05
580.308	37462.47
580.506	37372.36
580.704	36882.89
580.901	37472.71
581.099	37284.3
581.297	37001.68
581.495	36958.67
581.692	37165.51
581.89	36927.95
582.088	37013.96
582.285	36385.24
582.483	36882.89
582.681	36811.21
582.878	36549.07
583.076	36123.1
583.274	36434.39
583.471	35869.15
583.669	36375
583.866	35740.13
584.064	36131.29
584.262	35764.7
584.459	35895.77
584.657	35467.75
584.854	35858.91
585.052	35258.85
585.249	35604.96
585.447	35295.72
585.644	34826.73
585.841	35115.5
586.039	35672.54
586.236	34849.26
586.434	35146.22
586.631	35033.58
586.828	34664.94
587.026	34869.74
587.223	34585.07
587.42	34318.84
587.618	34531.83
587.815	34279.92
588.012	33919.48
588.21	34120.18
588.407	34406.9
588.604	33851.9
588.801	33602.05
588.999	33796.6
589.196	33743.36
589.393	33468.93
589.59	33348.1
589.787	33282.56
589.984	33141.25
590.182	33184.26
590.379	32973.32
590.576	33157.64
590.773	32872.97
590.97	32666.13
591.167	33145.35
591.364	32367.12
591.561	32868.87
591.758	32315.92
591.955	32479.76
592.152	32414.23
592.349	32154.13
592.546	32498.19
592.743	32311.83
592.94	31629.85
593.137	31861.27
593.334	32066.07
593.531	31513.12
593.727	31705.63
593.924	31730.2
594.121	31205.92
594.318	31781.4
594.515	31128.1
594.712	31506.98
594.908	31052.33
595.105	31322.66
595.302	31050.28
595.499	31185.44
595.696	30601.77
595.892	30917.16
596.089	30595.63
596.286	30521.9
596.482	30253.62
596.679	30794.28
596.876	30409.26
597.072	30368.3
597.269	30255.67
597.466	29868.6
597.662	30024.25
597.859	29950.52
598.055	30069.3
598.252	29520.45
598.448	30022.2
598.645	29733.43
598.841	29147.72
599.038	29387.33
599.234	29798.97
599.431	29149.76
599.627	29243.97
599.824	29209.15
600.02	29061.7
600.217	29078.08
600.413	28955.21
600.609	28762.7
600.806	28820.04
601.002	28680.78
601.198	28136.02
601.395	28226.13
601.591	28107.35
601.787	28510.8
601.984	28361.3
602.18	28330.58
602.376	28224.08
602.572	28086.87
602.769	27886.17
602.965	27695.71
603.161	27974.23
603.357	27359.84
603.553	27417.18
603.75	27550.3
603.946	27208.29
604.142	27392.61
604.338	27087.46
604.534	27284.06
604.73	27312.74
604.926	26956.39
605.122	27114.08
605.318	26526.32
605.514	26700.39
605.71	26770.02
605.906	26475.12
606.102	26602.09
606.298	26720.87
606.494	26620.52
606.69	26401.39
606.886	26530.41
607.082	25830.01
607.278	26489.45
607.474	25956.98
607.67	26540.65
607.866	25965.17
608.062	26268.27
608.257	26120.82
608.453	25895.54
608.649	25922.16
608.845	25772.66
609.041	25514.62
609.236	25903.73
609.432	25438.84
609.628	25457.28
609.824	25674.36
610.019	25072.26
610.215	25313.92
610.411	25696.89
610.606	25291.39
610.802	25139.84
610.998	25207.42
611.193	25254.53
611.389	25121.41
611.584	25070.21
611.78	25182.85
611.976	25139.84
612.171	24894.08
612.367	24746.63
612.562	24910.47
612.758	24480.39
612.953	24457.87
613.149	24717.96
613.344	24615.56
613.539	24642.18
613.735	24332.94
613.93	24754.82
614.126	24412.81
614.321	24611.46
614.517	24218.25
614.712	24394.38
614.907	24042.13
615.103	24447.63
615.298	24257.17
615.493	24627.85
615.688	23786.13
615.884	24392.33
616.079	23841.43
616.274	24048.27
616.47	24011.41
616.665	24038.03
616.86	23599.77
617.055	23708.31
617.25	23612.06
617.445	24068.75
617.641	23163.55
617.836	23734.93
618.031	23429.79
618.226	23497.37
618.421	23218.85
618.616	23452.31
618.811	23005.86
619.006	23573.14
619.201	22702.76
619.396	23313.05
619.591	22469.29
619.786	22827.68
619.981	22434.47
620.176	22710.95
620.371	22594.22
620.566	22481.58
620.761	22114.99
620.956	22280.88
621.151	21805.75
621.346	22219.44
621.541	21807.8
621.735	21820.08
621.93	21676.73
622.125	21846.71
622.32	21449.4
622.515	21609.14
622.709	21023.42
622.904	21301.95
623.099	21152.45
623.294	21279.42
623.488	20890.31
623.683	20820.67
623.878	20759.24
624.072	20718.28
624.267	20884.16
624.462	20562.63
624.656	20050.64
624.851	20474.57
625.046	19831.51
625.24	19880.66
625.435	19811.03
625.629	19655.38
625.824	19432.15
626.018	19632.85
626.213	19364.57
626.407	19593.94
626.602	19301.08
626.796	19143.39
626.991	19266.27
627.185	18832.1
627.38	18557.67
627.574	18768.61
627.768	18778.85
627.963	18461.41
628.157	18492.13
628.352	18641.64
628.546	18275.05
628.74	18277.1
628.935	17943.28
629.129	18070.25
629.323	17836.78
629.517	17865.46
629.712	17447.67
629.906	17707.76
630.1	17492.73
630.294	17765.1
630.489	17394.42
630.683	17541.88
630.877	16990.97
631.071	17015.55
631.265	17146.62
631.459	17027.84
631.653	16843.52
631.848	17007.36
632.042	16835.33
632.236	16825.09
632.43	16485.12
632.624	16648.96
632.818	16454.4
633.012	16173.83
633.206	16259.85
633.4	16243.46
633.594	15790.86
633.788	16093.96
633.982	16012.04
634.176	15864.59
634.369	15547.15
634.563	15665.94
634.757	15627.03
634.951	15737.62
635.145	15274.77
635.339	15311.64
635.533	15127.32
635.726	15059.74
635.92	15088.41
636.114	14930.72
636.308	15147.8
636.501	14787.36
636.695	14764.83
636.889	14639.9
637.083	14719.78
637.276	14461.73
637.47	14375.72
637.664	14547.75
637.857	14568.23
638.051	14142.25
638.244	14230.31
638.438	14031.66
638.632	14209.83
638.825	13794.09
639.019	13794.09
639.212	13572.91
639.406	13652.78
639.599	13595.44
639.793	13480.75
639.986	13417.27
640.18	13484.85
640.373	13337.4
640.567	13251.38
640.76	13361.97
640.954	12886.84
641.147	12995.39
641.34	12880.7
641.534	13005.63
641.727	12819.26
641.92	12741.44
642.114	12536.64
642.307	12825.4
642.5	12571.46
642.694	12507.97
642.887	12329.8
643.08	12489.54
643.273	12395.33
643.467	12337.99
643.66	12239.69
643.853	12286.79
644.046	11998.02
644.239	12202.82
644.432	12120.9
644.626	11828.04
644.819	11907.91
645.012	11899.72
645.205	11780.94
645.398	11721.55
645.591	11596.62
645.784	11629.39
645.977	11404.11
646.17	11438.93
646.363	11324.24
646.556	11438.93
646.749	11084.63
646.942	11381.59
647.135	11164.5
647.328	11074.39
647.521	10906.46
647.714	10888.03
647.907	10910.55
648.099	10791.77
648.292	10851.16
648.485	10648.41
648.678	10658.65
648.871	10627.93
649.064	10509.15
649.256	10617.69
649.449	10533.73
649.642	10619.74
649.835	10267.49
650.027	10216.29
650.22	10152.81
650.413	10318.69
650.605	10120.04
650.798	10224.48
650.991	9907.05
651.183	10003.3
651.376	9739.12
651.568	9816.94
651.761	9861.99
651.954	9765.74
652.146	9710.44
652.339	9651.05
652.531	9567.09
652.724	9597.81
652.916	9542.51
653.109	9440.11
653.301	9405.3
653.494	9599.85
653.686	9286.51
653.879	9288.56
654.071	9290.61
654.263	9034.61
654.456	9028.47
654.648	9216.88
654.84	8944.5
655.033	8956.79
655.225	8924.02
655.417	8676.22
655.61	9032.57
655.802	8919.93
655.994	8952.7
656.186	8713.08
656.379	8737.66
656.571	8612.73
656.763	8590.2
656.955	8579.97
657.148	8559.49
657.34	8665.98
657.532	8512.38
657.724	8240
657.916	8350.59
658.108	8393.6
658.3	8192.9
658.492	8201.09
658.684	8133.51
658.876	7951.24
659.068	8045.45
659.26	7959.43
659.452	8041.35
659.644	8031.11
659.836	7848.84
660.028	7971.72
660.22	7725.96
660.412	7791.5
660.604	7875.46
660.796	7861.13
660.988	7582.6
661.18	7650.19
661.372	7652.24
661.563	7617.42
661.755	7463.82
661.947	7357.33
662.139	7510.93
662.331	7445.39
662.522	7486.35
662.714	7396.24
662.906	7289.74
663.097	7390.1
663.289	7197.59
663.481	6998.93
663.673	7072.66
663.864	6923.16
664.056	7146.39
664.247	6871.96
664.439	6880.15
664.631	7064.47
664.822	7007.13
665.014	6890.39
665.205	6802.33
665.397	6939.54
665.588	6896.53
665.78	6630.3
665.971	6648.73
666.163	6642.59
666.354	6669.21
666.546	6618.01
666.737	6585.24
666.929	6519.71
667.12	6503.32
667.311	6482.85
667.503	6218.66
667.694	6249.38
667.885	6314.91
668.077	6241.18
668.268	6261.66
668.459	6239.14
668.651	6120.35
668.842	6216.61
669.033	6151.07
669.224	6079.4
669.416	6339.49
669.607	6278.05
669.798	6249.38
669.989	6011.81
670.18	6013.86
670.371	6128.55
670.563	5917.61
670.754	5702.57
670.945	5923.75
671.136	5958.57
671.327	5995.43
671.518	5907.37
671.709	5700.52
671.9	5766.06
672.091	5733.29
672.282	5675.95
672.473	5563.31
672.664	5675.95
672.855	5677.99
673.046	5727.14
673.237	5802.92
673.428	5508.01
673.619	5618.6
673.809	5555.12
674	5520.3
674.191	5415.85
674.382	5485.48
674.573	5372.85
674.764	5405.61
674.954	5448.62
675.145	5487.53
675.336	5276.59
675.527	5286.83
675.717	5286.83
675.908	5196.72
676.099	5153.71
676.289	5258.16
676.48	5073.84
676.671	5206.96
676.861	5106.61
677.052	5190.58
677.243	5086.13
677.433	5159.86
677.624	5090.23
677.814	5045.17
678.005	5086.13
678.195	5110.71
678.386	5055.41
678.576	4979.64
678.767	4889.53
678.957	5063.6
679.148	5039.03
679.338	4826.04
679.529	4950.96
679.719	4912.05
679.909	4852.66
680.1	4922.29
680.29	4914.1
680.481	4789.17
680.671	4848.57
680.861	4760.5
681.052	4838.33
681.242	4742.07
681.432	4854.71
681.622	4590.52
681.813	4649.91
682.003	4656.06
682.193	4582.33
682.383	4600.76
682.573	4615.1
682.764	4574.14
682.954	4664.25
683.144	4578.23
683.334	4516.8
683.524	4600.76
683.714	4578.23
683.904	4508.6
684.094	4537.27
684.284	4608.95
684.474	4606.91
684.664	4301.76
684.854	4412.35
685.044	4359.1
685.234	4291.52
685.424	4320.19
685.614	4275.13
685.804	4352.96
685.994	4221.89
686.184	4381.63
686.374	4297.66
686.564	4350.91
686.753	4266.94
686.943	4162.5
687.133	4252.61
687.323	4234.18
687.513	4131.78
687.702	4062.15
687.892	4099.01
688.082	4225.98
688.272	4236.22
688.461	4107.2
688.651	4039.62
688.841	3947.46
689.03	3959.75
689.22	4043.71
689.41	3953.6
689.599	3931.08
689.789	4062.15
689.979	3886.02
690.168	3984.32
690.358	4043.71
690.547	3961.8
690.737	3748.81
690.926	3840.97
691.116	3840.97
691.305	3857.35
691.495	3742.66
691.684	3832.77
691.874	3752.9
692.063	3912.64
692.252	3761.09
692.442	3550.15
692.631	3781.57
692.82	3673.03
693.01	3605.45
693.199	3668.94
693.388	3617.74
693.578	3703.75
693.767	3605.45
693.956	3603.4
694.146	3554.25
694.335	3527.63
694.524	3554.25
694.713	3632.07
694.902	3638.22
695.092	3464.14
695.281	3566.54
695.47	3382.22
695.659	3480.52
695.848	3402.7
696.037	3423.18
696.226	3402.7
696.415	3503.05
696.604	3503.05
696.793	3425.23
696.982	3382.22
697.171	3568.59
697.36	3402.7
697.549	3322.83
697.738	3294.16
697.927	3288.01
698.116	3468.24
698.305	3410.89
698.494	3347.4
698.683	3277.77
698.872	3398.6
699.061	3087.31
699.25	3255.25
699.438	3259.34
699.627	3228.62
699.816	3267.53
700.005	3216.33
700.193	3115.98
700.382	3328.97
700.571	3234.77
700.76	3216.33
700.948	3206.1
701.137	3267.53
701.326	3218.38
701.514	3277.77
701.703	3154.9
701.892	3199.95
702.08	3189.71
702.269	3150.8
702.457	3064.79
702.646	3009.49
702.834	3032.02
703.023	3113.94
703.212	3349.45
703.4	3179.47
703.589	2984.91
703.777	3095.5
703.965	2890.71
704.154	2995.15
704.342	2898.9
704.531	3070.93
704.719	2989.01
704.907	3099.6
705.096	2964.43
705.284	3077.07
705.472	2972.63
705.661	2984.91
705.849	2956.24
706.037	2962.39
706.226	3046.35
706.414	2980.82
706.602	2882.52
706.79	3068.88
706.979	2909.14
707.167	3029.97
707.355	2866.13
707.543	2964.43
707.731	3099.6
707.919	2921.43
708.107	3034.07
708.296	2999.25
708.484	2808.79
708.672	2933.72
708.86	2933.72
709.048	2980.82
709.236	2843.6
709.424	2966.48
709.612	2970.58
709.8	2907.09
709.988	2792.41
710.176	2925.52
710.364	2939.86
710.551	2933.72
710.739	2833.36
710.927	2808.79
711.115	2833.36
711.303	2743.25
711.491	2849.75
711.679	2804.69
711.866	2833.36
712.054	2763.73
712.242	2751.45
712.43	2849.75
712.617	2782.17
712.805	2816.98
712.993	2927.57
713.181	2653.14
713.368	2827.22
713.556	2808.79
713.744	2690.01
713.931	2878.42
714.119	2642.9
714.306	2651.1
714.494	2698.2
714.682	2821.08
714.869	2647
715.057	2685.91
715.244	2620.38
715.432	2681.82
715.619	2761.69
715.807	2587.61
715.994	2630.62
716.182	2753.49
716.369	2753.49
716.556	2663.38
716.744	2587.61
716.931	2710.49
717.119	2616.28
717.306	2507.74
717.493	2677.72
717.681	2687.96
717.868	2628.57
718.055	2567.13
718.242	2583.51
718.43	2556.89
718.617	2677.72
718.804	2575.32
718.991	2464.73
719.179	2546.65
719.366	2622.42
719.553	2595.8
719.74	2665.43
719.927	2571.22
720.114	2558.94
720.301	2622.42
720.488	2444.25
720.676	2485.21
720.863	2556.89
721.05	2472.92
721.237	2581.46
721.424	2569.18
721.611	2491.35
721.798	2509.79
721.985	2507.74
722.172	2550.75
722.358	2507.74
722.545	2425.82
722.732	2491.35
722.919	2460.63
723.106	2493.4
723.293	2517.98
723.48	2530.27
723.667	2540.51
723.853	2425.82
724.04	2427.87
724.227	2403.29
724.414	2497.5
724.6	2358.24
724.787	2456.54
724.974	2462.68
725.161	2474.97
725.347	2444.25
725.534	2481.11
725.72	2319.32
725.907	2378.72
726.094	2509.79
726.28	2450.39
726.467	2382.81
726.653	2440.15
726.84	2415.58
727.027	2464.73
727.213	2440.15
727.4	2239.45
727.586	2450.39
727.773	2350.04
727.959	2300.89
728.145	2374.62
728.332	2268.13
728.518	2202.59
728.705	2499.55
728.891	2317.28
729.077	2380.76
729.264	2292.7
729.45	2257.89
729.636	2345.95
729.823	2440.15
730.009	2317.28
730.195	2311.13
730.382	2386.91
730.568	2317.28
730.754	2298.84
730.94	2343.9
731.126	2419.68
731.313	2257.89
731.499	2210.78
731.685	2249.69
731.871	2194.4
732.057	2327.52
732.243	2341.85
732.429	2206.69
732.615	2196.45
732.801	2286.56
732.987	2132.96
733.173	2343.9
733.359	2241.5
733.545	2178.01
733.731	2122.72
733.917	2202.59
734.103	2276.32
734.289	2276.32
734.475	2218.97
734.661	2317.28
734.847	2178.01
735.033	2221.02
735.219	2231.26
735.404	2139.1
735.59	2145.25
735.776	2243.55
735.962	2112.48
736.148	2274.27
736.333	2157.54
736.519	2094.05
736.705	2171.87
736.89	2081.76
737.076	2141.15
737.262	2083.81
737.447	2147.3
737.633	1977.31
737.819	2143.2
738.004	2143.2
738.19	2055.14
738.375	2057.18
738.561	2137.06
738.747	2196.45
738.932	2032.61
739.118	2026.47
739.303	2063.33
739.489	2030.56
739.674	2022.37
739.859	2061.28
740.045	2048.99
740.23	1893.35
740.416	2061.28
740.601	1995.75
740.786	2005.99
740.972	2003.94
741.157	2059.23
741.342	1954.79
741.528	1977.31
741.713	1969.12
741.898	1868.77
742.084	2022.37
742.269	1954.79
742.454	1965.03
742.639	1928.16
742.824	1907.68
743.01	1973.22
743.195	1948.64
743.38	2016.23
743.565	1936.35
743.75	1913.83
743.935	1911.78
744.12	1782.76
744.305	1850.34
744.49	1876.96
744.675	1762.28
744.86	1907.68
745.045	1879.01
745.23	1786.85
745.415	1819.62
745.6	1860.58
745.785	1770.47
745.97	1850.34
746.155	1821.67
746.34	1758.18
746.525	1711.08
746.71	1891.3
746.895	1682.41
747.079	1680.36
747.264	1772.52
747.449	1743.85
747.634	1717.22
747.819	1711.08
748.003	1612.78
748.188	1717.22
748.373	1680.36
748.557	1657.83
748.742	1647.59
748.927	1666.02
749.111	1625.06
749.296	1596.39
749.481	1670.12
749.665	1610.73
749.85	1489.9
750.034	1539.05
750.219	1612.78
750.404	1633.26
750.588	1555.43
750.773	1446.89
750.957	1549.29
751.141	1516.52
751.326	1514.47
751.51	1489.9
751.695	1469.42
751.879	1522.66
752.064	1459.18
752.248	1432.55
752.432	1399.79
752.617	1483.75
752.801	1506.28
752.985	1416.17
753.17	1336.3
753.354	1416.17
753.538	1358.83
753.722	1360.88
753.907	1367.02
754.091	1360.88
754.275	1348.59
754.459	1326.06
754.643	1293.29
754.828	1350.64
755.012	1426.41
755.196	1350.64
755.38	1221.61
755.564	1223.66
755.748	1235.95
755.932	1256.43
756.116	1268.72
756.3	1291.24
756.484	1129.45
756.668	1178.61
756.852	1201.13
757.036	1182.7
757.22	1145.84
757.404	1125.36
757.588	1141.74
757.772	1162.22
757.956	1178.61
758.14	1227.76
758.323	1158.13
758.507	1194.99
758.691	1156.08
758.875	1217.52
759.059	1139.69
759.242	1057.78
759.426	1068.02
759.61	1102.83
759.794	1139.69
759.977	1088.5
760.161	1129.45
760.345	1065.97
760.528	1022.96
760.712	1158.13
760.895	1074.16
761.079	1016.82
761.263	1076.21
761.446	1004.53
761.63	1020.91
761.813	998.38
761.997	1016.82
762.18	1018.86
762.364	1014.77
762.547	967.67
762.731	934.9
762.914	951.28
763.098	1035.25
763.281	988.14
763.464	941.04
763.648	973.81
763.831	887.79
764.015	982
764.198	957.43
764.381	973.81
764.564	1041.39
764.748	984.05
764.931	971.76
765.114	916.47
765.297	877.55
765.481	875.51
765.664	932.85
765.847	924.66
766.03	945.14
766.213	883.7
766.397	1002.48
766.58	957.43
766.763	969.71
766.946	898.03
767.129	826.36
767.312	904.18
767.495	1006.58
767.678	924.66
767.861	834.55
768.044	961.52
768.227	891.89
768.41	830.45
768.593	867.31
768.776	816.12
768.959	885.75
769.142	828.4
769.324	891.89
769.507	887.79
769.69	812.02
769.873	775.16
770.056	908.27
770.239	830.45
770.421	881.65
770.604	805.88
770.787	850.93
770.97	838.64
771.152	744.44
771.335	846.84
771.518	812.02
771.7	744.44
771.883	760.82
772.066	809.97
772.248	766.96
772.431	818.16
772.613	846.84
772.796	746.48
772.978	777.2
773.161	785.4
773.343	816.12
773.526	713.72
773.708	650.23
773.891	678.9
774.073	689.14
774.256	805.88
774.438	683
774.621	623.61
774.803	781.3
774.985	728.05
775.168	721.91
775.35	744.44
775.532	715.77
775.715	693.24
775.897	701.43
776.079	685.05
776.261	711.67
776.444	674.81
776.626	670.71
776.808	687.09
776.99	736.24
777.173	642.04
777.355	689.14
777.537	691.19
777.719	715.77
777.901	662.52
778.083	631.8
778.265	535.54
778.447	666.61
778.629	594.93
778.811	642.04
778.993	633.85
779.175	678.9
779.357	639.99
779.539	605.17
779.721	588.79
779.903	527.35
780.085	580.6
780.267	662.52
780.449	683
780.631	537.59
780.812	484.34
780.994	605.17
781.176	631.8
781.358	576.5
781.54	558.07
781.721	547.83
781.903	551.93
782.085	533.5
782.267	547.83
782.448	519.16
782.63	494.58
782.812	433.15
782.993	564.22
783.175	504.82
783.357	457.72
783.538	527.35
783.72	470.01
783.901	472.06
784.083	506.87
784.264	476.15
784.446	465.91
784.627	408.57
784.809	470.01
784.99	441.34
785.172	420.86
785.353	451.58
785.535	476.15
785.716	412.67
785.897	433.15
786.079	472.06
786.26	420.86
786.441	388.09
786.623	336.89
786.804	416.76
786.985	355.32
787.167	457.72
787.348	328.7
787.529	461.82
787.71	375.8
787.891	404.47
788.073	400.38
788.254	472.06
788.435	427
788.616	359.42
788.797	326.65
788.978	408.57
789.159	312.32
789.34	414.71
789.522	459.77
789.703	334.84
789.884	418.81
790.065	312.32
790.246	345.08
790.427	383.99
790.607	433.15
790.788	412.67
790.969	334.84
791.15	388.09
791.331	302.08
791.512	343.03
791.693	359.42
791.874	420.86
792.054	402.43
792.235	429.05
792.416	246.78
792.597	369.66
792.778	312.32
792.958	404.47
793.139	361.47
793.32	228.35
793.5	291.84
793.681	361.47
793.862	314.36
794.042	265.21
794.223	271.36
794.404	289.79
794.584	261.12
794.765	273.4
794.945	257.02
795.126	281.6
795.306	304.12
795.487	310.27
795.667	271.36
795.848	244.73
796.028	197.63
796.209	205.82
796.389	347.13
796.57	189.44
796.75	226.3
796.93	349.18
797.111	236.54
797.291	214.01
797.471	203.77
797.652	254.97
797.832	306.17
798.012	322.56
798.192	168.96
798.373	259.07
798.553	250.88
798.733	252.92
798.913	228.35
799.093	257.02
799.274	263.16
799.454	222.2
799.634	232.44
799.814	257.02
799.994	353.27
800.174	246.78
800.354	263.16
800.534	181.25
800.714	136.19
800.894	209.92
801.074	232.44
801.254	238.59
801.434	283.64
801.614	232.44
801.794	187.39
801.974	760.82
802.154	263.16
802.334	297.98
802.514	271.36
802.693	238.59
802.873	216.06
803.053	189.44
803.233	158.72
803.413	179.2
803.592	171.01
803.772	211.96
803.952	265.21
804.131	232.44
804.311	146.43
804.491	271.36
804.67	189.44
804.85	236.54
805.03	199.68
805.209	230.4
805.389	132.09
805.568	181.25
805.748	160.77
805.928	263.16
806.107	203.77
806.287	236.54
806.466	197.63
806.646	187.39
806.825	146.43
807.004	214.01
807.184	236.54
807.363	236.54
807.543	158.72
807.722	115.71
807.901	154.62
808.081	171.01
808.26	138.24
808.439	205.82
808.619	216.06
808.798	138.24
808.977	222.2
809.156	191.49
809.336	162.81
809.515	185.34
809.694	138.24
809.873	164.86
810.052	117.76
810.231	197.63
810.411	164.86
810.59	150.53
810.769	267.26
810.948	207.87
811.127	99.33
811.306	171.01
811.485	160.77
811.664	117.76
811.843	105.47
812.022	140.29
812.201	142.33
812.38	203.77
812.559	64.51
812.737	183.29
812.916	134.14
813.095	138.24
813.274	109.57
813.453	150.53
813.632	150.53
813.811	148.48
813.989	89.09
814.168	130.05
814.347	189.44
814.526	179.2
814.704	175.1
814.883	154.62
815.062	146.43
815.24	164.86
815.419	21.5
815.598	158.72
815.776	142.33
815.955	101.37
816.133	175.1
816.312	66.56
816.49	84.99
816.669	171.01
816.847	91.13
817.026	119.81
817.204	111.61
817.383	146.43
817.561	142.33
817.74	101.37
817.918	191.49
818.097	84.99
818.275	60.42
818.453	154.62
818.632	138.24
818.81	66.56
818.988	123.9
819.167	91.13
819.345	162.81
819.523	89.09
819.701	72.7
819.879	205.82
820.058	113.66
820.236	121.85
820.414	166.91
820.592	125.95
820.77	101.37
820.948	99.33
821.127	105.47
821.305	138.24
821.483	130.05
821.661	142.33
821.839	105.47
822.017	132.09
822.195	76.8
822.373	105.47
822.551	72.7
822.729	125.95
822.907	91.13
823.085	121.85
823.262	66.56
823.44	121.85
823.618	50.18
823.796	58.37
823.974	48.13
824.152	76.8
824.329	78.85
824.507	130.05
824.685	150.53
824.863	179.2
825.04	148.48
825.218	134.14
825.396	101.37
825.574	80.89
825.751	52.22
825.929	156.67
826.107	89.09
826.284	119.81
826.462	23.55
826.639	123.9
826.817	87.04
826.994	191.49
827.172	68.61
827.349	89.09
827.527	109.57
827.704	115.71
827.882	56.32
828.059	31.74
828.237	60.42
828.414	54.27
828.591	31.74
828.769	74.75
828.946	78.85
829.124	152.57
829.301	132.09
829.478	91.13
829.655	115.71
829.833	93.18
830.01	-41.98
830.187	146.43
830.364	64.51
830.542	91.13
830.719	76.8
830.896	97.28
831.073	87.04
831.25	44.03
831.427	105.47
831.604	72.7
831.782	3.07
831.959	91.13
832.136	44.03
832.313	138.24
832.49	99.33
832.667	60.42
832.844	89.09
833.021	132.09
833.198	70.65
833.374	160.77
833.551	60.42
833.728	23.55
833.905	121.85
834.082	19.46
834.259	82.94
834.436	84.99
834.612	15.36
834.789	109.57
834.966	93.18
835.143	91.13
835.319	15.36
835.496	82.94
835.673	76.8
835.85	128
836.026	39.94
836.203	105.47
836.38	-37.89
836.556	19.46
836.733	27.65
836.909	89.09
837.086	113.66
837.262	35.84
837.439	48.13
837.616	1.02
837.792	74.75
837.968	-3.07
838.145	-7.17
838.321	41.98
838.498	78.85
838.674	62.46
838.851	37.89
839.027	93.18
839.203	70.65
839.38	103.42
839.556	5.12
839.732	84.99
839.909	1.02
840.085	84.99
840.261	-9.22
840.437	15.36
840.614	74.75
840.79	41.98
840.966	33.79
841.142	105.47
841.318	60.42
841.494	74.75
841.671	31.74
841.847	7.17
842.023	13.31
842.199	48.13
842.375	70.65
842.551	7.17
842.727	56.32
842.903	44.03
843.079	15.36
843.255	80.89
843.431	101.37
843.607	54.27
843.783	17.41
843.959	107.52
844.134	-11.26
844.31	74.75
844.486	58.37
844.662	9.22
844.838	46.08
845.013	23.55
845.189	31.74
845.365	97.28
845.541	5.12
845.716	80.89
845.892	128
846.068	46.08
846.244	-21.5
846.419	39.94
846.595	-60.42
846.77	25.6
846.946	29.7
847.122	31.74
847.297	-41.98
847.473	72.7
847.648	13.31
847.824	50.18
847.999	31.74
848.175	35.84
848.35	50.18
848.526	72.7
848.701	123.9
848.876	52.22
849.052	64.51
849.227	66.56
849.403	27.65
849.578	93.18
849.753	23.55
849.929	9.22
850.104	82.94
850.279	72.7
850.454	52.22
850.63	93.18
850.805	68.61
850.98	60.42
851.155	-3.07
851.33	-21.5
851.505	82.94
851.681	111.61
851.856	-29.7
852.031	48.13
852.206	48.13
852.381	89.09
852.556	3.07
852.731	46.08
852.906	62.46
853.081	33.79
853.256	60.42
853.431	50.18
853.606	-33.79
853.781	-9.22
853.956	-23.55
854.131	25.6
854.305	82.94
854.48	70.65
854.655	13.31
854.83	91.13
855.005	-7.17
855.18	58.37
855.354	-5.12
855.529	74.75
855.704	1.02
855.879	41.98
856.053	-17.41
856.228	37.89
856.403	-62.46
856.577	41.98
856.752	27.65
856.926	76.8
857.101	97.28
857.276	-17.41
857.45	17.41
857.625	19.46
857.799	17.41
857.974	-41.98
858.148	9.22
858.323	56.32
858.497	-17.41
858.672	23.55
858.846	-17.41
859.02	11.26
859.195	-29.7
859.369	9.22
859.543	-9.22
859.718	64.51
859.892	56.32
860.066	9.22
860.241	-15.36
860.415	-35.84
860.589	33.79
860.763	7.17
860.938	-11.26
861.112	39.94
861.286	3.07
861.46	-11.26
861.634	19.46
861.808	29.7
861.982	-37.89
862.157	-25.6
862.331	68.61
862.505	-25.6
862.679	-15.36
862.853	17.41
863.027	23.55
863.201	39.94
863.375	39.94
863.549	56.32
863.722	64.51
863.896	80.89
864.07	-13.31
864.244	1.02
864.418	58.37
864.592	25.6
864.766	-41.98
864.939	64.51
865.113	-1.02
865.287	107.52
865.461	27.65
865.634	29.7
865.808	-23.55
865.982	-1.02
866.156	80.89
866.329	-15.36
866.503	-25.6
866.676	21.5
866.85	-13.31
867.024	-25.6
867.197	-29.7
867.371	15.36
867.544	11.26
867.718	-41.98
867.891	37.89
868.065	-25.6
868.238	48.13
868.412	33.79
868.585	105.47
868.759	-70.65
868.932	-9.22
869.105	-17.41
869.279	152.57
869.452	-23.55
869.625	-9.22
869.799	-60.42
869.972	15.36
870.145	-33.79
870.319	3.07
870.492	68.61
870.665	-9.22
870.838	17.41
871.011	-46.08
871.185	-46.08
871.358	-19.46
871.531	-19.46
871.704	-17.41
871.877	-13.31
872.05	31.74
872.223	-66.56
872.396	-58.37
872.569	76.8
872.742	-9.22
872.915	74.75
873.088	56.32
873.261	76.8
873.434	27.65
873.607	-9.22
873.78	56.32
873.953	-68.61
874.126	-11.26
874.299	46.08
874.471	15.36
874.644	46.08
874.817	35.84
874.99	60.42
875.163	39.94
875.335	-39.94
875.508	27.65
875.681	105.47
875.853	1.02
876.026	-48.13
876.199	-39.94
876.371	13.31
876.544	82.94
876.717	48.13
876.889	-15.36
877.062	76.8
877.234	-21.5
877.407	33.79
877.579	5.12
877.752	68.61
877.924	3.07
878.097	-27.65
878.269	-1.02
878.442	29.7
878.614	52.22
878.786	72.7
878.959	27.65
879.131	50.18
879.303	-35.84
879.476	-5.12
879.648	-5.12
879.82	-41.98
879.993	7.17
880.165	5.12
880.337	23.55
880.509	39.94
880.681	-9.22
880.854	54.27
881.026	27.65
881.198	99.33
881.37	-13.31
881.542	58.37
881.714	-35.84
881.886	78.85
882.058	-15.36
882.23	3.07
882.402	27.65
882.574	23.55
882.746	23.55
882.918	91.13
883.09	3.07
883.262	82.94
883.434	-50.18
883.606	23.55
883.778	-41.98
883.95	-25.6
884.122	41.98
884.293	31.74
884.465	27.65
884.637	76.8
884.809	58.37
884.98	-17.41
885.152	64.51
885.324	15.36
885.496	1.02
885.667	1.02
885.839	5.12
886.011	15.36
886.182	50.18
886.354	68.61
886.525	9.22
886.697	19.46
886.869	17.41
887.04	56.32
887.212	33.79
887.383	39.94
887.555	-1.02
887.726	-31.74
887.897	15.36
888.069	17.41
888.24	-21.5
888.412	50.18
888.583	-1.02
888.754	-9.22
888.926	-44.03
889.097	-33.79
889.268	-3.07
889.44	31.74
889.611	-9.22
889.782	-7.17
889.953	-23.55
890.125	52.22
890.296	-66.56
890.467	7.17
890.638	52.22
890.809	44.03
890.98	-41.98
891.151	25.6
891.323	33.79
891.494	15.36
891.665	41.98
891.836	-44.03
892.007	11.26
892.178	-33.79
892.349	39.94
892.52	-17.41
892.691	-48.13
892.862	-50.18
893.032	-25.6
893.203	48.13
893.374	23.55
893.545	-31.74
893.716	41.98
893.887	48.13
894.057	-17.41
894.228	15.36
894.399	-68.61
894.57	-21.5
894.74	11.26
894.911	-3.07
895.082	3.07
895.253	21.5
895.423	-44.03
895.594	56.32
895.764	-9.22
895.935	9.22
896.106	-5.12
896.276	64.51
896.447	66.56
896.617	-11.26
896.788	-56.32
896.958	-5.12
897.129	-1.02
897.299	-70.65
897.47	25.6
897.64	-1.02
897.81	-19.46
897.981	-1.02
898.151	-91.13
898.322	19.46
898.492	-50.18
898.662	27.65
898.832	15.36
899.003	-23.55
899.173	-1.02
899.343	-33.79
899.513	-33.79
