Data from USB4F104151__250__14-22-36-301.txt Node

Date: Thu Mar 13 14:22:36 EDT 2025
User: louis
Spectrometer: USB4F10415
Trigger mode: 4
Integration Time (sec): 2.000000E-2
Scans to average: 1
Electric dark correction enabled: true
Nonlinearity correction enabled: false
Boxcar width: 0
XAxis mode: Wavelengths
Number of Pixels in Spectrum: 3648
>>>>>Begin Spectral Data<<<<<
178.204	-147.62
178.424	-147.62
178.644	-147.62
178.864	-123.05
179.084	-47.27
179.304	24.4
179.524	34.64
179.744	-6.31
179.964	5.97
180.184	-80.04
180.404	-22.7
180.624	44.88
180.844	-30.89
181.064	-45.23
181.283	38.74
181.503	18.26
181.723	18.26
181.943	-80.04
182.163	18.26
182.383	10.07
182.602	12.12
182.822	36.69
183.042	8.02
183.262	1.88
183.482	51.03
183.701	14.17
183.921	46.93
184.141	-73.9
184.361	75.6
184.58	-14.51
184.8	77.65
185.02	10.07
185.239	30.55
185.459	36.69
185.679	44.88
185.898	-43.18
186.118	40.79
186.338	-71.85
186.557	59.22
186.777	-10.41
186.997	-30.89
187.216	-24.75
187.436	1.88
187.655	67.41
187.875	34.64
188.095	51.03
188.314	91.99
188.534	100.18
188.753	5.97
188.973	10.07
189.192	87.89
189.412	-49.32
189.631	79.7
189.851	36.69
190.07	36.69
190.29	-77.99
190.509	36.69
190.729	3.93
190.948	59.22
191.168	87.89
191.387	10.07
191.607	24.4
191.826	46.93
192.045	16.21
192.265	10.07
192.484	18.26
192.704	30.55
192.923	28.5
193.142	44.88
193.362	122.71
193.581	20.31
193.8	-12.46
194.02	36.69
194.239	8.02
194.458	26.45
194.678	-41.13
194.897	-14.51
195.116	34.64
195.335	75.6
195.555	51.03
195.774	16.21
195.993	14.17
196.212	-53.42
196.432	-10.41
196.651	-8.36
196.87	1.88
197.089	102.23
197.308	5.97
197.528	22.36
197.747	40.79
197.966	34.64
198.185	91.99
198.404	30.55
198.623	3.93
198.842	3.93
199.062	1.88
199.281	28.5
199.5	32.6
199.719	116.56
199.938	26.45
200.157	42.84
200.376	38.74
200.595	-71.85
200.814	5.97
201.033	-10.41
201.252	-4.27
201.471	44.88
201.69	55.12
201.909	40.79
202.128	51.03
202.347	-53.42
202.566	59.22
202.785	12.12
203.004	-34.99
203.223	120.66
203.442	53.08
203.661	55.12
203.879	38.74
204.098	44.88
204.317	-4.27
204.536	59.22
204.755	-22.7
204.974	-22.7
205.193	55.12
205.411	94.04
205.63	36.69
205.849	10.07
206.068	46.93
206.287	26.45
206.505	22.36
206.724	67.41
206.943	-57.51
207.162	12.12
207.381	5.97
207.599	42.84
207.818	30.55
208.037	10.07
208.255	42.84
208.474	28.5
208.693	1.88
208.911	-20.65
209.13	55.12
209.349	51.03
209.567	-75.95
209.786	53.08
210.005	22.36
210.223	-71.85
210.442	53.08
210.661	137.04
210.879	34.64
211.098	-4.27
211.316	20.31
211.535	85.84
211.753	-43.18
211.972	22.36
212.191	-77.99
212.409	18.26
212.628	-12.46
212.846	-24.75
213.065	18.26
213.283	-2.22
213.502	-22.7
213.72	-6.31
213.938	16.21
214.157	24.4
214.375	71.51
214.594	18.26
214.812	10.07
215.031	-28.84
215.249	14.17
215.467	59.22
215.686	24.4
215.904	1.88
216.122	10.07
216.341	108.37
216.559	69.46
216.778	5.97
216.996	-18.6
217.214	51.03
217.432	34.64
217.651	10.07
217.869	26.45
218.087	40.79
218.306	5.97
218.524	14.17
218.742	-47.27
218.96	59.22
219.179	3.93
219.397	20.31
219.615	69.46
219.833	53.08
220.051	1.88
220.27	38.74
220.488	-30.89
220.706	8.02
220.924	22.36
221.142	85.84
221.36	10.07
221.578	16.21
221.796	18.26
222.015	3.93
222.233	-4.27
222.451	61.27
222.669	48.98
222.887	28.5
223.105	26.45
223.323	18.26
223.541	3.93
223.759	18.26
223.977	14.17
224.195	34.64
224.413	151.38
224.631	42.84
224.849	18.26
225.067	40.79
225.285	18.26
225.503	42.84
225.721	20.31
225.939	26.45
226.157	71.51
226.375	73.56
226.592	-22.7
226.81	20.31
227.028	34.64
227.246	18.26
227.464	71.51
227.682	18.26
227.9	36.69
228.117	-10.41
228.335	-18.6
228.553	-37.03
228.771	-28.84
228.989	26.45
229.206	-47.27
229.424	46.93
229.642	77.65
229.86	-12.46
230.077	34.64
230.295	14.17
230.513	3.93
230.731	59.22
230.948	42.84
231.166	14.17
231.384	10.07
231.601	83.8
231.819	14.17
232.037	22.36
232.254	-26.79
232.472	-26.79
232.689	-0.17
232.907	75.6
233.125	16.21
233.342	26.45
233.56	53.08
233.777	75.6
233.995	53.08
234.213	85.84
234.43	53.08
234.648	5.97
234.865	-32.94
235.083	16.21
235.3	5.97
235.518	26.45
235.735	8.02
235.953	28.5
236.17	20.31
236.388	1.88
236.605	-4.27
236.822	34.64
237.04	38.74
237.257	-51.37
237.475	3.93
237.692	24.4
237.909	63.32
238.127	18.26
238.344	55.12
238.562	-6.31
238.779	57.17
238.996	-30.89
239.214	-75.95
239.431	42.84
239.648	42.84
239.865	79.7
240.083	-20.65
240.3	24.4
240.517	-94.38
240.735	28.5
240.952	44.88
241.169	51.03
241.386	36.69
241.603	30.55
241.821	20.31
242.038	36.69
242.255	-10.41
242.472	-22.7
242.689	69.46
242.907	-37.03
243.124	-10.41
243.341	-28.84
243.558	38.74
243.775	75.6
243.992	-6.31
244.209	75.6
244.426	71.51
244.643	63.32
244.86	-2.22
245.078	98.13
245.295	30.55
245.512	-39.08
245.729	18.26
245.946	20.31
246.163	59.22
246.38	10.07
246.597	-22.7
246.814	-63.66
247.031	69.46
247.248	20.31
247.464	55.12
247.681	-30.89
247.898	-6.31
248.115	-6.31
248.332	5.97
248.549	59.22
248.766	26.45
248.983	-4.27
249.2	67.41
249.417	26.45
249.633	14.17
249.85	-18.6
250.067	12.12
250.284	-34.99
250.501	16.21
250.717	79.7
250.934	-30.89
251.151	36.69
251.368	51.03
251.585	1.88
251.801	-32.94
252.018	-86.19
252.235	67.41
252.451	-47.27
252.668	1.88
252.885	3.93
253.102	-65.71
253.318	141.14
253.535	-14.51
253.752	26.45
253.968	-30.89
254.185	55.12
254.401	28.5
254.618	53.08
254.835	46.93
255.051	18.26
255.268	73.56
255.484	26.45
255.701	-4.27
255.917	10.07
256.134	96.08
256.351	-12.46
256.567	-10.41
256.784	12.12
257	-47.27
257.217	48.98
257.433	26.45
257.65	46.93
257.866	145.24
258.082	44.88
258.299	-37.03
258.515	36.69
258.732	28.5
258.948	-30.89
259.165	26.45
259.381	-24.75
259.597	30.55
259.814	-8.36
260.03	-34.99
260.246	108.37
260.463	-4.27
260.679	42.84
260.895	59.22
261.112	65.36
261.328	34.64
261.544	-6.31
261.761	100.18
261.977	38.74
262.193	67.41
262.409	1.88
262.626	-18.6
262.842	59.22
263.058	-2.22
263.274	26.45
263.49	32.6
263.707	38.74
263.923	1.88
264.139	12.12
264.355	46.93
264.571	3.93
264.787	51.03
265.004	55.12
265.22	40.79
265.436	63.32
265.652	75.6
265.868	32.6
266.084	-18.6
266.3	40.79
266.516	26.45
266.732	-26.79
266.948	67.41
267.164	12.12
267.38	32.6
267.596	-2.22
267.812	44.88
268.028	1.88
268.244	67.41
268.46	-37.03
268.676	83.8
268.892	34.64
269.108	1.88
269.324	18.26
269.54	46.93
269.756	63.32
269.972	100.18
270.188	-0.17
270.403	20.31
270.619	-20.65
270.835	67.41
271.051	-12.46
271.267	-37.03
271.483	-59.56
271.698	12.12
271.914	22.36
272.13	18.26
272.346	28.5
272.562	28.5
272.777	61.27
272.993	-8.36
273.209	1.88
273.425	26.45
273.64	-12.46
273.856	1.88
274.072	83.8
274.287	-20.65
274.503	-4.27
274.719	-12.46
274.934	57.17
275.15	26.45
275.366	22.36
275.581	10.07
275.797	46.93
276.012	5.97
276.228	-47.27
276.444	1.88
276.659	63.32
276.875	44.88
277.09	53.08
277.306	-20.65
277.521	36.69
277.737	34.64
277.952	100.18
278.168	-4.27
278.383	12.12
278.599	-51.37
278.814	22.36
279.03	1.88
279.245	44.88
279.461	34.64
279.676	30.55
279.892	53.08
280.107	73.56
280.322	8.02
280.538	83.8
280.753	-2.22
280.969	61.27
281.184	108.37
281.399	149.33
281.615	-34.99
281.83	112.47
282.045	-59.56
282.26	3.93
282.476	57.17
282.691	79.7
282.906	36.69
283.122	61.27
283.337	34.64
283.552	38.74
283.767	-6.31
283.983	46.93
284.198	26.45
284.413	-20.65
284.628	14.17
284.843	-30.89
285.058	38.74
285.274	44.88
285.489	-0.17
285.704	46.93
285.919	36.69
286.134	59.22
286.349	51.03
286.564	26.45
286.779	34.64
286.995	85.84
287.21	1.88
287.425	18.26
287.64	10.07
287.855	-47.27
288.07	-37.03
288.285	53.08
288.5	55.12
288.715	51.03
288.93	-45.23
289.145	42.84
289.36	-4.27
289.575	12.12
289.79	83.8
290.004	38.74
290.219	14.17
290.434	44.88
290.649	3.93
290.864	-12.46
291.079	22.36
291.294	108.37
291.509	20.31
291.724	42.84
291.938	-8.36
292.153	-28.84
292.368	26.45
292.583	-4.27
292.798	65.36
293.012	36.69
293.227	20.31
293.442	8.02
293.657	30.55
293.871	34.64
294.086	42.84
294.301	77.65
294.516	100.18
294.73	38.74
294.945	3.93
295.16	1.88
295.374	28.5
295.589	36.69
295.804	-34.99
296.018	83.8
296.233	-30.89
296.447	100.18
296.662	-6.31
296.877	-18.6
297.091	38.74
297.306	-2.22
297.52	-39.08
297.735	44.88
297.949	-26.79
298.164	85.84
298.378	42.84
298.593	30.55
298.807	1.88
299.022	42.84
299.236	73.56
299.451	38.74
299.665	1.88
299.88	18.26
300.094	51.03
300.309	55.12
300.523	-30.89
300.737	-4.27
300.952	34.64
301.166	38.74
301.381	-51.37
301.595	8.02
301.809	48.98
302.024	46.93
302.238	79.7
302.452	83.8
302.667	51.03
302.881	59.22
303.095	73.56
303.309	59.22
303.524	28.5
303.738	-28.84
303.952	-69.8
304.166	18.26
304.381	-12.46
304.595	79.7
304.809	96.08
305.023	-47.27
305.237	30.55
305.452	57.17
305.666	30.55
305.88	14.17
306.094	5.97
306.308	-16.55
306.522	91.99
306.736	30.55
306.95	63.32
307.164	89.94
307.379	83.8
307.593	30.55
307.807	42.84
308.021	20.31
308.235	28.5
308.449	34.64
308.663	18.26
308.877	104.28
309.091	38.74
309.305	75.6
309.519	-14.51
309.733	46.93
309.947	85.84
310.161	51.03
310.374	-22.7
310.588	-28.84
310.802	-14.51
311.016	40.79
311.23	-4.27
311.444	-22.7
311.658	-26.79
311.872	34.64
312.085	44.88
312.299	106.32
312.513	36.69
312.727	18.26
312.941	26.45
313.154	24.4
313.368	22.36
313.582	3.93
313.796	-12.46
314.009	34.64
314.223	-28.84
314.437	26.45
314.651	46.93
314.864	38.74
315.078	40.79
315.292	-4.27
315.505	30.55
315.719	-0.17
315.933	-4.27
316.146	-45.23
316.36	-77.99
316.573	55.12
316.787	122.71
317.001	30.55
317.214	-47.27
317.428	34.64
317.641	-30.89
317.855	-6.31
318.068	83.8
318.282	-12.46
318.495	106.32
318.709	26.45
318.922	5.97
319.136	22.36
319.349	42.84
319.563	-8.36
319.776	-20.65
319.99	22.36
320.203	42.84
320.417	18.26
320.63	-16.55
320.843	100.18
321.057	91.99
321.27	91.99
321.483	20.31
321.697	18.26
321.91	-12.46
322.124	42.84
322.337	-2.22
322.55	-8.36
322.763	38.74
322.977	3.93
323.19	10.07
323.403	-22.7
323.617	26.45
323.83	26.45
324.043	71.51
324.256	18.26
324.469	18.26
324.683	26.45
324.896	5.97
325.109	94.04
325.322	-26.79
325.535	22.36
325.748	5.97
325.962	-4.27
326.175	-8.36
326.388	-12.46
326.601	65.36
326.814	53.08
327.027	10.07
327.24	98.13
327.453	-4.27
327.666	24.4
327.879	112.47
328.092	79.7
328.305	-2.22
328.518	112.47
328.731	40.79
328.944	67.41
329.157	34.64
329.37	44.88
329.583	91.99
329.796	42.84
330.009	-47.27
330.222	42.84
330.435	26.45
330.648	102.23
330.861	24.4
331.073	59.22
331.286	46.93
331.499	-22.7
331.712	-14.51
331.925	1.88
332.138	63.32
332.35	71.51
332.563	8.02
332.776	83.8
332.989	51.03
333.202	-22.7
333.414	55.12
333.627	-2.22
333.84	-30.89
334.053	-2.22
334.265	-4.27
334.478	30.55
334.691	16.21
334.903	22.36
335.116	-39.08
335.329	18.26
335.541	-39.08
335.754	102.23
335.966	44.88
336.179	63.32
336.392	-53.42
336.604	-39.08
336.817	36.69
337.029	26.45
337.242	53.08
337.454	61.27
337.667	96.08
337.88	128.85
338.092	26.45
338.305	-20.65
338.517	-14.51
338.729	75.6
338.942	34.64
339.154	-0.17
339.367	8.02
339.579	18.26
339.792	1.88
340.004	44.88
340.217	-30.89
340.429	106.32
340.641	10.07
340.854	-37.03
341.066	-34.99
341.278	10.07
341.491	-6.31
341.703	22.36
341.915	14.17
342.128	57.17
342.34	51.03
342.552	-39.08
342.764	10.07
342.977	16.21
343.189	12.12
343.401	12.12
343.613	18.26
343.826	38.74
344.038	-30.89
344.25	-16.55
344.462	38.74
344.674	94.04
344.886	-0.17
345.099	75.6
345.311	67.41
345.523	53.08
345.735	-24.75
345.947	20.31
346.159	18.26
346.371	65.36
346.583	10.07
346.795	120.66
347.007	30.55
347.219	51.03
347.431	-0.17
347.643	77.65
347.855	-12.46
348.067	-39.08
348.279	69.46
348.491	28.5
348.703	104.28
348.915	79.7
349.127	-67.75
349.339	59.22
349.551	-14.51
349.763	83.8
349.975	-61.61
350.187	67.41
350.399	51.03
350.61	87.89
350.822	36.69
351.034	10.07
351.246	36.69
351.458	94.04
351.669	83.8
351.881	34.64
352.093	69.46
352.305	102.23
352.517	73.56
352.728	79.7
352.94	30.55
353.152	5.97
353.363	-0.17
353.575	-32.94
353.787	51.03
353.999	42.84
354.21	71.51
354.422	67.41
354.633	-6.31
354.845	59.22
355.057	59.22
355.268	-37.03
355.48	14.17
355.692	10.07
355.903	-6.31
356.115	-14.51
356.326	-6.31
356.538	79.7
356.749	38.74
356.961	10.07
357.172	18.26
357.384	-39.08
357.595	48.98
357.807	-55.47
358.018	-121
358.23	42.84
358.441	116.56
358.653	-30.89
358.864	14.17
359.075	-14.51
359.287	57.17
359.498	42.84
359.709	-20.65
359.921	36.69
360.132	-51.37
360.344	51.03
360.555	20.31
360.766	55.12
360.977	81.75
361.189	22.36
361.4	-10.41
361.611	75.6
361.823	53.08
362.034	26.45
362.245	3.93
362.456	83.8
362.667	3.93
362.879	-22.7
363.09	28.5
363.301	63.32
363.512	85.84
363.723	34.64
363.935	96.08
364.146	38.74
364.357	5.97
364.568	36.69
364.779	10.07
364.99	16.21
365.201	3.93
365.412	59.22
365.623	-26.79
365.834	46.93
366.045	79.7
366.256	48.98
366.467	34.64
366.678	51.03
366.889	38.74
367.1	42.84
367.311	8.02
367.522	-14.51
367.733	28.5
367.944	87.89
368.155	51.03
368.366	10.07
368.577	120.66
368.788	12.12
368.999	-61.61
369.209	-16.55
369.42	112.47
369.631	46.93
369.842	36.69
370.053	75.6
370.264	1.88
370.474	-73.9
370.685	5.97
370.896	51.03
371.107	34.64
371.317	61.27
371.528	14.17
371.739	59.22
371.95	-4.27
372.16	-10.41
372.371	-10.41
372.582	34.64
372.792	32.6
373.003	67.41
373.214	55.12
373.424	36.69
373.635	-10.41
373.846	85.84
374.056	14.17
374.267	53.08
374.477	87.89
374.688	75.6
374.898	75.6
375.109	-12.46
375.319	-51.37
375.53	69.46
375.74	-22.7
375.951	48.98
376.161	1.88
376.372	20.31
376.582	-43.18
376.793	42.84
377.003	12.12
377.214	-51.37
377.424	30.55
377.635	108.37
377.845	12.12
378.055	20.31
378.266	-4.27
378.476	14.17
378.686	18.26
378.897	100.18
379.107	42.84
379.317	71.51
379.528	-51.37
379.738	46.93
379.948	16.21
380.158	38.74
380.369	-0.17
380.579	67.41
380.789	42.84
380.999	73.56
381.21	-14.51
381.42	100.18
381.63	38.74
381.84	79.7
382.05	145.24
382.261	55.12
382.471	-4.27
382.681	-4.27
382.891	87.89
383.101	89.94
383.311	1.88
383.521	42.84
383.731	42.84
383.941	18.26
384.151	3.93
384.361	100.18
384.571	91.99
384.781	-30.89
384.991	44.88
385.201	118.61
385.411	98.13
385.621	-61.61
385.831	18.26
386.041	65.36
386.251	42.84
386.461	18.26
386.671	30.55
386.881	83.8
387.091	79.7
387.301	46.93
387.511	38.74
387.72	16.21
387.93	53.08
388.14	34.64
388.35	30.55
388.56	14.17
388.769	87.89
388.979	-20.65
389.189	16.21
389.399	20.31
389.609	14.17
389.818	75.6
390.028	91.99
390.238	46.93
390.447	85.84
390.657	38.74
390.867	-30.89
391.076	22.36
391.286	114.52
391.496	85.84
391.705	1.88
391.915	42.84
392.125	5.97
392.334	42.84
392.544	59.22
392.753	-6.31
392.963	-18.6
393.172	130.9
393.382	63.32
393.591	118.61
393.801	51.03
394.01	118.61
394.22	18.26
394.429	85.84
394.639	34.64
394.848	51.03
395.058	42.84
395.267	34.64
395.477	26.45
395.686	67.41
395.895	141.14
396.105	100.18
396.314	32.6
396.524	30.55
396.733	24.4
396.942	30.55
397.152	130.9
397.361	100.18
397.57	28.5
397.78	132.95
397.989	51.03
398.198	114.52
398.407	65.36
398.617	12.12
398.826	102.23
399.035	91.99
399.244	85.84
399.453	69.46
399.663	36.69
399.872	108.37
400.081	40.79
400.29	38.74
400.499	63.32
400.708	89.94
400.917	143.19
401.127	69.46
401.336	73.56
401.545	149.33
401.754	124.76
401.963	108.37
402.172	116.56
402.381	51.03
402.59	75.6
402.799	98.13
403.008	110.42
403.217	104.28
403.426	79.7
403.635	89.94
403.844	91.99
404.053	108.37
404.262	-6.31
404.471	137.04
404.68	71.51
404.888	128.85
405.097	98.13
405.306	141.14
405.515	124.76
405.724	79.7
405.933	59.22
406.142	98.13
406.35	198.48
406.559	137.04
406.768	91.99
406.977	153.43
407.185	51.03
407.394	194.39
407.603	108.37
407.812	206.67
408.02	147.28
408.229	132.95
408.438	124.76
408.646	108.37
408.855	100.18
409.064	147.28
409.272	141.14
409.481	157.52
409.69	126.8
409.898	126.8
410.107	208.72
410.315	231.25
410.524	157.52
410.733	200.53
410.941	149.33
411.15	280.4
411.358	216.91
411.567	304.98
411.775	296.78
411.984	331.6
412.192	288.59
412.401	284.5
412.609	280.4
412.818	413.52
413.026	272.21
413.234	331.6
413.443	370.51
413.651	407.38
413.86	417.61
414.068	419.66
414.276	421.71
414.485	413.52
414.693	436.05
414.901	479.05
415.11	425.81
415.318	493.39
415.526	489.29
415.734	569.16
415.943	526.16
416.151	563.02
416.359	632.65
416.567	649.04
416.776	628.56
416.984	610.12
417.192	665.42
417.4	735.05
417.608	677.71
417.817	628.56
418.025	714.57
418.233	739.15
418.441	776.01
418.649	792.39
418.857	837.45
419.065	915.27
419.273	821.06
419.481	925.51
419.689	968.52
419.897	968.52
420.105	1034.05
420.313	1019.72
420.521	1089.35
420.729	1238.85
420.937	1079.11
421.145	1150.79
421.353	1238.85
421.561	1267.52
421.769	1355.58
421.977	1343.3
422.185	1320.77
422.393	1398.59
422.601	1453.89
422.809	1476.41
423.017	1484.61
423.224	1550.14
423.432	1634.11
423.64	1525.57
423.848	1775.42
424.056	1732.41
424.263	1937.21
424.471	1863.48
424.679	1865.53
424.887	1992.5
425.094	1994.55
425.302	2099
425.51	2070.33
425.718	2168.63
425.925	2250.55
426.133	2340.66
426.341	2502.45
426.548	2557.74
426.756	2545.45
426.964	2578.22
427.171	2631.47
427.379	2819.88
427.586	2719.53
427.794	2905.9
428.001	2981.67
428.209	3141.41
428.417	3145.51
428.624	3364.64
428.832	3520.29
429.039	3258.15
429.247	3381.03
429.454	3608.35
429.662	3852.06
429.869	3540.77
430.076	3903.26
430.284	3821.34
430.491	3952.41
430.699	4167.45
430.906	4050.71
431.114	4312.85
431.321	4368.15
431.528	4634.38
431.736	4738.83
431.943	5031.69
432.15	4845.32
432.358	4761.36
432.565	5230.34
432.772	5121.8
432.979	5330.69
433.187	5404.42
433.394	5527.3
433.601	5736.19
433.808	5852.92
434.016	5859.07
434.223	6055.67
434.43	6489.84
434.637	6225.65
434.844	6661.87
435.052	6813.42
435.259	6924.01
435.466	6854.38
435.673	6678.26
435.88	7190.25
436.087	7671.52
436.294	7620.32
436.501	7214.82
436.708	7542.5
436.915	7876.32
437.122	8345.3
437.329	8122.07
437.537	8337.11
437.743	8584.91
437.95	8474.32
438.157	8738.51
438.364	9096.91
438.571	9070.28
438.778	9113.29
438.985	10002.11
439.192	9690.82
439.399	9909.95
439.606	9696.96
439.813	10462.9
440.02	10915.5
440.227	10938.03
440.433	10634.93
440.64	11001.52
440.847	10976.94
441.054	11202.22
441.261	11693.73
441.467	11765.41
441.674	11873.95
441.881	12299.93
442.088	12504.73
442.294	12426.9
442.501	12437.14
442.708	12809.87
442.914	13225.61
443.121	13921.92
443.328	13442.7
443.534	14440.06
443.741	14073.47
443.948	13905.54
444.154	14909.04
444.361	14519.93
444.568	15023.73
444.774	14849.65
444.981	14706.29
445.187	15384.17
445.394	16076.38
445.6	15738.47
445.807	17305.17
446.013	16676.44
446.22	16916.05
446.426	17552.97
446.633	17661.51
446.839	18124.35
447.046	17712.71
447.252	18679.35
447.459	18638.39
447.665	18658.87
447.871	19248.69
448.078	20139.55
448.284	19056.18
448.491	19766.82
448.697	20665.88
448.903	20850.2
449.11	20913.69
449.316	20524.57
449.522	21044.76
449.728	21501.45
449.935	21683.72
450.141	21708.3
450.347	22144.52
450.553	21644.81
450.76	21779.98
450.966	22695.42
451.172	22048.26
451.378	22617.6
451.584	22220.29
451.791	22842.87
451.997	22826.49
452.203	23301.62
452.409	23322.1
452.615	23137.78
452.821	22291.97
453.027	22228.48
453.233	23447.02
453.44	22269.44
453.646	22554.11
453.852	22814.2
454.058	23053.81
454.264	22459.9
454.47	23115.25
454.676	22099.46
454.882	23066.1
455.088	21218.83
455.294	21700.11
455.5	21794.31
455.705	21925.38
455.911	21050.9
456.117	20874.77
456.323	20629.02
456.529	19562.03
456.735	20223.52
456.941	19826.21
457.147	19578.41
457.352	19021.36
457.558	18665.02
457.764	19127.86
457.97	18437.69
458.176	17722.95
458.381	18230.85
458.587	17176.14
458.793	17309.26
458.999	16076.38
459.204	17557.07
459.41	16922.2
459.616	16031.33
459.821	15988.32
460.027	16016.99
460.233	15490.66
460.438	14675.57
460.644	15001.2
460.85	14585.46
461.055	14020.22
461.261	14024.32
461.466	12766.87
461.672	12582.55
461.878	13530.76
462.083	12514.97
462.289	12383.9
462.494	11984.54
462.7	11781.79
462.905	11394.73
463.111	11826.85
463.316	11865.76
463.522	11357.86
463.727	11480.74
463.932	11456.17
464.138	11329.19
464.343	11316.9
464.549	11222.7
464.754	11245.23
464.959	11312.81
465.165	11173.55
465.37	10874.54
465.575	10612.4
465.781	10876.59
465.986	10899.12
466.191	10630.84
466.397	10491.57
466.602	9981.63
466.807	10391.22
467.012	10276.54
467.218	10155.71
467.423	10110.65
467.628	10274.49
467.833	10538.68
468.038	10299.06
468.244	9883.33
468.449	10055.36
468.654	10041.02
468.859	9916.09
469.064	9975.49
469.269	9639.62
469.474	9502.4
469.679	9717.44
469.885	9381.57
470.09	9475.78
470.295	9520.84
470.5	9219.78
470.705	9449.16
470.91	9144.01
471.115	8890.06
471.32	9084.62
471.525	9021.13
471.73	8959.69
471.935	8933.07
472.139	8496.85
472.344	8744.66
472.549	8535.76
472.754	8554.19
472.959	8427.22
473.164	8023.77
473.369	8064.73
473.574	8498.9
473.778	8367.83
473.983	8191.7
474.188	8187.61
474.393	7837.41
474.598	7757.53
474.802	7644.9
475.007	7792.35
475.212	7710.43
475.417	7382.76
475.621	7470.82
475.826	7489.25
476.031	7349.99
476.235	7192.3
476.44	7300.84
476.645	7126.76
476.849	7245.54
477.054	7114.47
477.259	6932.2
477.463	6997.74
477.668	6797.04
477.872	6901.48
478.077	6803.18
478.282	6465.27
478.486	6668.02
478.691	6506.23
478.895	6426.36
479.1	6422.26
479.304	6479.6
479.509	6283
479.713	6297.33
479.918	6262.52
480.122	6168.31
480.326	6323.96
480.531	6244.09
480.735	6057.72
480.94	6047.48
481.144	6354.68
481.348	5951.23
481.553	6153.98
481.757	6008.57
481.961	6014.71
482.166	6002.43
482.37	5830.4
482.574	5926.65
482.778	5983.99
482.983	6080.25
483.187	5920.51
483.391	5969.66
483.595	5897.98
483.8	6049.53
484.004	6059.77
484.208	5871.36
484.412	5801.72
484.616	5893.88
484.821	5977.85
485.025	5684.99
485.229	5936.89
485.433	6074.1
485.637	5969.66
485.841	5848.83
486.045	5861.12
486.249	5943.03
486.453	5940.99
486.657	5865.21
486.861	5932.79
487.065	5834.49
487.269	5865.21
487.473	5779.2
487.677	5990.14
487.881	6080.25
488.085	6022.91
488.289	5924.6
488.493	5889.79
488.697	6110.97
488.901	5785.34
489.105	5879.55
489.309	6033.15
489.512	5932.79
489.716	6018.81
489.92	6231.8
490.124	5955.32
490.328	6106.87
490.531	5916.41
490.735	6143.74
490.939	6094.58
491.143	6086.39
491.346	5994.23
491.55	6254.33
491.754	6027
491.958	6041.34
492.161	6117.11
492.365	6194.93
492.569	6256.37
492.772	6203.13
492.976	6326
493.18	6395.64
493.383	6313.72
493.587	6303.48
493.79	6522.61
493.994	6321.91
494.197	6473.46
494.401	6633.2
494.605	6604.53
494.808	6692.59
495.012	6627.06
495.215	6706.93
495.419	6846.19
495.622	6780.65
495.825	6989.55
496.029	6866.67
496.232	6881
496.436	6833.9
496.639	7235.3
496.843	7220.97
497.046	7186.15
497.249	7388.9
497.453	7388.9
497.656	7483.11
497.859	7341.8
498.063	7556.83
498.266	7792.35
498.469	7610.08
498.673	7743.2
498.876	7929.56
499.079	8095.45
499.282	7923.42
499.485	8132.31
499.689	8081.11
499.892	8275.67
500.095	8328.92
500.298	8566.48
500.501	8498.9
500.705	8582.87
500.908	8758.99
501.111	8705.74
501.314	8863.44
501.517	8955.6
501.72	9012.94
501.923	9070.28
502.126	9129.67
502.329	9252.55
502.532	9316.04
502.735	9563.84
502.938	9703.11
503.141	9770.69
503.344	9920.19
503.547	9983.68
503.75	10098.36
503.953	10112.7
504.156	10079.93
504.359	10284.73
504.562	10286.78
504.765	10559.16
504.968	10708.66
505.17	10608.31
505.373	10774.19
505.576	11036.33
505.779	11040.43
505.982	11243.18
506.185	11404.97
506.387	11277.99
506.59	11742.88
506.793	11781.79
506.996	11564.71
507.198	11882.14
507.401	11990.69
507.604	12175
507.807	12084.89
508.009	12447.38
508.212	12527.25
508.415	12627.6
508.617	12752.53
508.82	12856.98
509.022	12813.97
509.225	13377.16
509.428	13411.98
509.63	13213.32
509.833	13493.9
510.035	13827.71
510.238	13651.59
510.44	13823.62
510.643	14077.57
510.845	14036.61
511.048	14251.64
511.25	14534.26
511.453	14526.07
511.655	14962.29
511.858	14591.61
512.06	14853.75
512.262	15013.49
512.465	15277.68
512.667	15347.31
512.87	15451.75
513.072	15410.79
513.274	15804
513.477	15603.3
513.679	16029.28
513.881	16430.68
514.084	16381.53
514.286	16244.32
514.488	16598.62
514.69	17083.98
514.893	17299.02
515.095	16903.76
515.297	17170
515.499	17376.84
515.701	17358.41
515.904	17516.11
516.106	17796.68
516.308	17749.57
516.51	18359.87
516.712	18120.26
516.914	18404.92
517.116	18660.92
517.318	18650.68
517.52	19041.84
517.722	18785.85
517.925	18998.84
518.127	19228.21
518.329	19541.55
518.531	19494.44
518.733	19947.04
518.935	19932.71
519.136	19930.66
519.338	20348.45
519.54	20358.69
519.742	20725.27
519.944	20586.01
520.146	21018.13
520.348	21120.53
520.55	20973.08
520.752	21448.21
520.954	21556.75
521.155	21790.22
521.357	21802.5
521.559	21853.7
521.761	22214.15
521.963	22261.25
522.164	22552.06
522.366	22550.01
522.568	22529.53
522.77	22922.74
522.971	23231.99
523.173	23006.71
523.375	23315.95
523.576	23285.23
523.778	23236.08
523.98	23684.59
524.181	23690.73
524.383	23979.5
524.584	23946.73
524.786	24221.16
524.988	24098.28
525.189	24559.07
525.391	24653.28
525.592	24819.16
525.794	24669.66
525.995	24757.72
526.197	24702.43
526.398	24909.27
526.6	24946.14
526.801	25386.45
527.003	25335.25
527.204	25599.44
527.406	25421.27
527.607	25392.59
527.808	25507.28
528.01	25433.55
528.211	25501.14
528.412	26207.69
528.614	26117.57
528.815	25906.63
529.016	26146.25
529.218	25945.55
529.419	26297.8
529.62	26226.12
529.822	26189.25
530.023	26160.58
530.224	26326.47
530.425	26168.77
530.626	26125.77
530.828	26240.45
531.029	27190.71
531.23	26496.45
531.431	26281.41
531.632	26596.8
531.833	26799.55
532.035	26500.54
532.236	26942.91
532.437	26787.26
532.638	26705.34
532.839	26889.66
533.04	26856.89
533.241	26613.18
533.442	26916.28
533.643	27182.52
533.844	26729.92
534.045	27174.33
534.246	26748.35
534.447	26766.78
534.648	26871.23
534.849	27180.47
535.05	26826.17
535.251	26955.19
535.451	26756.54
535.652	26951.1
535.853	26994.11
536.054	26918.33
536.255	26955.19
536.456	26621.38
536.657	27149.75
536.857	26969.53
537.058	26736.06
537.259	27090.36
537.46	26920.38
537.66	27168.18
537.861	27006.39
538.062	26852.8
538.263	26996.15
538.463	26832.32
538.664	26809.79
538.865	26619.33
539.065	27332.02
539.266	26596.8
539.466	26975.67
539.667	26531.26
539.868	27252.15
540.068	26824.12
540.269	27067.83
540.469	26760.64
540.67	27123.13
540.87	26777.02
541.071	27057.59
541.271	26938.81
541.472	26727.87
541.672	26752.45
541.873	26740.16
542.073	26248.64
542.274	26912.19
542.474	26697.15
542.675	26705.34
542.875	26789.31
543.075	26582.46
543.276	26676.67
543.476	26912.19
543.676	26834.36
543.877	26721.73
544.077	26953.15
544.277	26396.1
544.478	26828.22
544.678	26828.22
544.878	26455.49
545.078	26740.16
545.279	26340.8
545.479	26480.07
545.679	26852.8
545.879	26582.46
546.079	26627.52
546.28	26586.56
546.48	26514.88
546.68	26768.83
546.88	26604.99
547.08	26289.6
547.28	26793.4
547.48	26328.52
547.68	26627.52
547.88	26668.48
548.081	26742.21
548.281	26353.09
548.481	26484.16
548.681	26586.56
548.881	26783.16
549.081	26207.69
549.28	26561.98
549.48	26471.87
549.68	26531.26
549.88	26910.14
550.08	26336.71
550.28	26566.08
550.48	26131.91
550.68	26582.46
550.88	26322.37
551.08	26453.44
551.279	26764.73
551.479	26060.23
551.679	26424.77
551.879	26269.12
552.079	26410.43
552.278	26109.38
552.478	26566.08
552.678	26346.95
552.878	26516.93
553.077	26291.65
553.277	26293.7
553.477	26236.36
553.676	26459.59
553.876	26119.62
554.076	26269.12
554.275	26418.63
554.475	25771.47
554.674	26000.84
554.874	26150.34
555.074	25986.5
555.273	26246.6
555.473	25918.92
555.672	26064.33
555.872	25826.76
556.071	26111.43
556.271	26049.99
556.47	25710.03
556.67	25810.38
556.869	25982.41
557.068	26127.81
557.268	25568.72
557.467	25609.68
557.667	25847.24
557.866	25865.67
558.065	25818.57
558.265	25730.51
558.464	25329.11
558.663	25974.22
558.863	25339.35
559.062	25724.36
559.261	25456.08
559.461	25849.29
559.66	25513.42
559.859	25458.13
560.058	25488.85
560.258	25384.4
560.457	25175.51
560.656	25621.97
560.855	25327.06
561.054	25279.96
561.253	24862.17
561.453	25296.34
561.652	25089.49
561.851	25050.58
562.05	24757.72
562.249	24645.09
562.448	24886.75
562.647	24972.76
562.846	24886.75
563.045	25007.58
563.244	24681.95
563.443	25105.88
563.642	24501.73
563.841	24882.65
564.04	24710.62
564.239	24960.47
564.438	24518.11
564.637	24538.59
564.836	24458.72
565.035	24362.47
565.234	24466.91
565.432	24258.02
565.631	24219.11
565.83	24245.73
566.029	23995.88
566.228	24245.73
566.427	24047.08
566.625	24172
566.824	23858.67
567.023	24120.81
567.222	23698.92
567.42	24071.65
567.619	23823.85
567.818	23743.98
568.016	23635.44
568.215	23680.49
568.414	23590.38
568.612	23829.99
568.811	23610.86
569.01	23481.84
569.208	23309.81
569.407	23217.65
569.605	23072.25
569.804	23375.34
570.002	23178.74
570.201	23356.91
570.4	22877.69
570.598	22988.28
570.797	23088.63
570.995	22894.07
571.193	22590.97
571.392	23035.38
571.59	22865.4
571.789	22666.75
571.987	22726.14
572.186	22691.32
572.384	22320.64
572.582	22515.2
572.781	22443.52
572.979	22263.3
573.177	22754.81
573.376	22484.48
573.574	22113.8
573.772	22382.08
573.971	22457.85
574.169	22171.14
574.367	22021.64
574.565	22171.14
574.763	21722.63
574.962	21995.01
575.16	21790.22
575.358	21757.45
575.556	21499.41
575.754	22056.45
575.952	21360.14
576.151	21863.94
576.349	21267.98
576.547	21360.14
576.745	21220.88
576.943	21343.76
577.141	21329.42
577.339	21118.48
577.537	21468.69
577.735	21229.07
577.933	20917.78
578.131	21014.04
578.329	20848.15
578.527	21055
578.725	21042.71
578.923	20774.42
579.121	20887.06
579.319	20721.18
579.516	20760.09
579.714	20635.16
579.912	20491.8
580.11	20516.38
580.308	20751.9
580.506	20078.11
580.704	20049.44
580.901	20270.62
581.099	20678.17
581.297	19967.52
581.495	19936.81
581.692	20022.82
581.89	19996.2
582.088	20239.9
582.285	20053.54
582.483	20184.61
582.681	19916.33
582.878	19918.37
583.076	19770.92
583.274	19686.95
583.471	19824.17
583.669	19879.46
583.866	19418.67
584.064	19506.73
584.262	19344.94
584.459	19465.77
584.657	19435.05
584.854	19301.93
585.052	18884.15
585.249	19138.1
585.447	19203.63
585.644	19015.22
585.841	19277.36
586.039	19134
586.236	18656.82
586.434	18783.8
586.631	18605.63
586.828	18974.26
587.026	19129.91
587.223	18783.8
587.42	18619.96
587.618	18667.06
587.815	18576.95
588.012	18386.49
588.21	18400.83
588.407	18832.95
588.604	18212.42
588.801	18181.7
588.999	18363.97
589.196	18157.12
589.393	18024
589.59	18009.67
589.787	18302.53
589.984	17950.28
590.182	17690.18
590.379	17970.76
590.576	17790.53
590.773	18114.11
590.97	17647.18
591.167	17976.9
591.364	17385.04
591.561	17622.6
591.758	17499.72
591.955	17274.45
592.152	17636.94
592.349	17194.57
592.546	17530.44
592.743	17335.88
592.94	17235.53
593.137	17585.74
593.334	17133.14
593.531	16959.06
593.727	17237.58
593.924	17122.9
594.121	16918.1
594.318	17065.55
594.515	16729.69
594.712	17063.5
594.908	16985.68
595.105	16907.86
595.302	16291.42
595.499	16602.71
595.696	16627.29
595.892	16504.41
596.089	16641.62
596.286	16442.97
596.482	16512.6
596.679	16270.94
596.876	16524.89
597.072	16129.63
597.269	16338.52
597.466	16025.18
597.662	16060
597.859	16006.75
598.055	15984.23
598.252	15767.14
598.448	16180.83
598.645	15709.8
598.841	15734.37
599.038	15597.16
599.234	15879.78
599.431	15611.5
599.627	15584.87
599.824	15806.05
600.02	15275.63
600.217	15617.64
600.413	15548.01
600.609	15130.22
600.806	15345.26
601.002	15593.06
601.198	15140.46
601.395	15308.4
601.591	15001.2
601.787	15255.15
601.984	15070.83
602.18	15126.13
602.376	15099.5
602.572	14849.65
602.769	15058.54
602.965	14818.93
603.161	14618.23
603.357	14511.74
603.553	14675.57
603.75	14757.49
603.946	14651
604.142	14775.92
604.338	14454.39
604.534	14597.75
604.73	14515.83
604.926	14423.67
605.122	14456.44
605.318	14141.05
605.514	14196.35
605.71	14380.67
605.906	14235.26
606.102	14323.32
606.298	14286.46
606.494	14208.64
606.69	14200.44
606.886	14272.12
607.082	13995.65
607.278	14214.78
607.474	13778.56
607.67	14001.79
607.866	13678.21
608.062	13764.23
608.257	13880.96
608.453	13995.65
608.649	14079.61
608.845	13600.39
609.041	13655.68
609.236	13741.7
609.432	13887.11
609.628	13702.79
609.824	13518.47
610.019	13680.26
610.215	13516.42
610.411	13618.82
610.606	13577.86
610.802	13450.89
610.998	13371.02
611.193	13545.09
611.389	13297.29
611.584	13176.46
611.78	13237.9
611.976	13299.34
612.171	13450.89
612.367	13207.18
612.562	13147.79
612.758	13094.54
612.953	12955.28
613.149	13405.83
613.344	13043.34
613.539	13250.19
613.735	12848.79
613.93	13239.95
614.126	13147.79
614.321	13194.89
614.517	13123.21
614.712	12932.75
614.907	12834.45
615.103	12846.74
615.298	12838.55
615.493	13100.69
615.688	13084.3
615.884	13090.45
616.079	12629.65
616.274	12756.63
616.47	12752.53
616.665	12963.47
616.86	12697.24
617.055	12682.9
617.25	12494.49
617.445	12578.45
617.641	12615.32
617.836	12691.09
618.031	12361.37
618.226	12488.34
618.421	12478.1
618.616	12592.79
618.811	12412.57
619.006	12531.35
619.201	12117.66
619.396	12316.31
619.591	12115.61
619.786	12158.62
619.981	12146.33
620.176	12068.51
620.371	11947.68
620.566	11843.23
620.761	11939.49
620.956	11880.1
621.151	11789.99
621.346	11902.62
621.541	11527.85
621.735	11744.93
621.93	11472.55
622.125	11617.96
622.32	11296.42
622.515	11364.01
622.709	11204.27
622.904	11216.55
623.099	11183.79
623.294	11234.99
623.488	11167.4
623.683	10987.18
623.878	11032.24
624.072	11054.76
624.267	10837.68
624.462	10858.16
624.656	10702.51
624.851	10815.15
625.046	10448.57
625.24	10655.41
625.435	10512.05
625.629	10620.6
625.824	10444.47
626.018	10462.9
626.213	10167.99
626.407	10241.72
626.602	10200.76
626.796	10110.65
626.991	10043.07
627.185	10317.5
627.38	10143.42
627.574	9998.01
627.768	9963.2
627.963	9789.12
628.157	9883.33
628.352	9750.21
628.546	9547.46
628.74	9682.63
628.935	9508.55
629.129	9522.88
629.323	9400.01
629.517	9389.77
629.712	9434.82
629.906	9397.96
630.1	9316.04
630.294	9111.24
630.489	9135.82
630.683	9053.9
630.877	8855.25
631.071	8900.3
631.265	9055.95
631.459	9004.75
631.653	8865.49
631.848	8885.97
632.042	8873.68
632.236	8869.58
632.43	8572.63
632.624	8857.29
632.818	8758.99
633.012	8560.34
633.206	8611.54
633.4	8634.07
633.594	8398.55
633.788	8412.88
633.982	8373.97
634.176	8320.73
634.369	8269.53
634.563	8228.57
634.757	8208.09
634.951	8292.05
635.145	8349.4
635.339	8087.26
635.533	7907.04
635.726	8068.83
635.92	8029.91
636.114	7874.27
636.308	7933.66
636.501	8034.01
636.695	7735.01
636.889	7816.93
637.083	7710.43
637.276	7898.84
637.47	7648.99
637.664	7620.32
637.857	7573.22
638.051	7436
638.244	7440.1
638.438	7472.87
638.632	7386.85
638.825	7319.27
639.019	7329.51
639.212	7319.27
639.406	7220.97
639.599	7257.83
639.793	7309.03
639.986	7077.61
640.18	7153.38
640.373	7177.96
640.567	6956.78
640.76	6915.82
640.954	6842.09
641.147	6790.89
641.34	6973.16
641.534	6919.92
641.727	6784.75
641.92	6872.81
642.114	6909.68
642.307	6794.99
642.5	6600.43
642.694	6670.06
642.887	6653.68
643.08	6706.93
643.273	6627.06
643.467	6471.41
643.66	6389.49
643.853	6545.14
644.046	6469.36
644.239	6352.63
644.432	6301.43
644.626	6450.93
644.819	6301.43
645.012	6395.64
645.205	6248.18
645.398	6186.74
645.591	6096.63
645.784	6088.44
645.977	6145.78
646.17	6010.62
646.363	6033.15
646.556	5846.78
646.749	5883.64
646.942	5938.94
647.135	5875.45
647.328	6006.52
647.521	5842.68
647.714	5682.94
647.907	5877.5
648.099	5840.64
648.292	5791.48
648.485	5711.61
648.678	5732.09
648.871	5613.31
649.064	5590.78
649.256	5547.78
649.449	5621.5
649.642	5584.64
649.835	5494.53
650.027	5469.95
650.22	5400.32
650.413	5211.91
650.605	5347.08
650.798	5330.69
650.991	5318.4
651.183	5246.73
651.376	5119.75
651.568	5269.25
651.761	5162.76
651.954	5269.25
652.146	5201.67
652.339	5072.65
652.531	5011.21
652.724	5056.26
652.916	5195.53
653.109	4962.06
653.301	5123.85
653.494	5086.98
653.686	4878.09
653.879	4917
654.071	5056.26
654.263	4962.06
654.456	4835.08
654.648	4878.09
654.84	4701.97
655.033	4794.12
655.225	4806.41
655.417	4642.57
655.61	4779.79
655.802	4744.97
655.994	4562.7
656.186	4564.75
656.379	4595.47
656.571	4458.26
656.763	4564.75
656.955	4560.66
657.148	4587.28
657.34	4478.74
657.532	4517.65
657.724	4499.22
657.916	4431.63
658.108	4327.19
658.3	4378.39
658.492	4316.95
658.684	4368.15
658.876	4261.65
659.068	4353.81
659.26	4122.39
659.452	4310.8
659.644	4255.51
659.836	4214.55
660.028	4208.41
660.22	4097.81
660.412	4292.37
660.604	4118.29
660.796	4103.96
660.988	4202.26
661.18	4001.56
661.372	4181.78
661.563	4040.47
661.755	3952.41
661.947	3944.22
662.139	3911.45
662.331	3933.98
662.522	3958.55
662.714	3888.92
662.906	3829.53
663.097	3909.4
663.289	3723.04
663.481	3809.05
663.673	3852.06
663.864	3827.48
664.056	3690.27
664.247	3837.72
664.439	3735.32
664.631	3704.6
664.822	3759.9
665.014	3659.55
665.205	3663.65
665.397	3653.41
665.588	3813.15
665.78	3610.4
665.971	3657.5
666.163	3579.68
666.354	3639.07
666.546	3467.04
666.737	3610.4
666.929	3600.16
667.12	3508
667.311	3491.62
667.503	3370.79
667.694	3540.77
667.885	3497.76
668.077	3520.29
668.268	3405.6
668.459	3356.45
668.651	3456.8
668.842	3362.59
669.033	3327.78
669.224	3276.58
669.416	3444.51
669.607	3378.98
669.798	3360.55
669.989	3342.11
670.18	3307.3
670.371	3401.51
670.563	3327.78
670.754	3237.67
670.945	3309.35
671.136	3366.69
671.327	3237.67
671.518	3286.82
671.709	3235.62
671.9	3313.44
672.091	3155.75
672.282	3299.11
672.473	3286.82
672.664	3133.22
672.855	3145.51
673.046	3172.13
673.237	3065.64
673.428	3094.31
673.619	3108.65
673.809	3045.16
674	3110.69
674.191	2996.01
674.382	3102.5
674.573	3071.78
674.764	3098.41
674.954	3131.17
675.145	2979.62
675.336	3028.78
675.527	3116.84
675.717	3098.41
675.908	2953
676.099	2936.62
676.289	2879.27
676.48	2903.85
676.671	2881.32
676.861	3082.02
677.052	3024.68
677.243	2862.89
677.433	2901.8
677.624	2983.72
677.814	2928.42
678.005	2891.56
678.195	2942.76
678.386	2877.23
678.576	2819.88
678.767	2801.45
678.957	2887.47
679.148	2922.28
679.338	2901.8
679.529	2936.62
679.719	2869.03
679.909	2950.95
680.1	2828.07
680.29	2801.45
680.481	2856.75
680.671	2862.89
680.861	2916.14
681.052	2893.61
681.242	2813.74
681.432	2909.99
681.622	2797.35
681.813	2819.88
682.003	2830.12
682.193	2723.63
682.383	2815.79
682.573	2672.43
682.764	2645.8
682.954	2975.53
683.144	2715.44
683.334	2881.32
683.524	2803.5
683.714	2680.62
683.904	2836.27
684.094	2881.32
684.284	2639.66
684.474	2762.54
684.664	2756.4
684.854	2688.81
685.044	2649.9
685.234	2688.81
685.424	2756.4
685.614	2756.4
685.804	2737.96
685.994	2742.06
686.184	2606.89
686.374	2733.87
686.564	2694.96
686.753	2762.54
686.943	2692.91
687.133	2740.01
687.323	2721.58
687.513	2565.93
687.702	2656.04
687.892	2549.55
688.082	2674.48
688.272	2598.7
688.461	2584.37
688.651	2639.66
688.841	2459.44
689.03	2576.17
689.22	2535.21
689.41	2441.01
689.599	2455.34
689.789	2549.55
689.979	2535.21
690.168	2580.27
690.358	2518.83
690.547	2393.9
690.737	2475.82
690.926	2445.1
691.116	2398
691.305	2486.06
691.495	2424.62
691.684	2305.84
691.874	2340.66
692.063	2363.19
692.252	2533.17
692.442	2434.86
692.631	2328.37
692.82	2314.03
693.01	2234.16
693.199	2318.13
693.388	2316.08
693.578	2320.18
693.767	2334.51
693.956	2318.13
694.146	2244.4
694.335	2264.88
694.524	2207.54
694.713	2238.26
694.902	2303.79
695.092	2131.76
695.281	2199.35
695.47	2334.51
695.659	2193.2
695.848	2242.36
696.037	2107.19
696.226	2295.6
696.415	2262.83
696.604	2125.62
696.793	2256.69
696.982	2252.59
697.171	2297.65
697.36	2078.52
697.549	2258.74
697.738	2111.29
697.927	2170.68
698.116	2221.88
698.305	2176.82
698.494	2119.48
698.683	2193.2
698.872	2264.88
699.061	2082.61
699.25	2062.13
699.438	2195.25
699.627	2105.14
699.816	2158.39
700.005	2127.67
700.193	2074.42
700.382	2197.3
700.571	2213.68
700.76	2058.04
700.948	2176.82
701.137	2187.06
701.326	2117.43
701.514	2082.61
701.703	2135.86
701.892	2180.92
702.08	2084.66
702.269	2131.76
702.457	1994.55
702.646	2092.85
702.834	2084.66
703.023	2111.29
703.212	2029.37
703.4	2131.76
703.589	2092.85
703.777	2109.24
703.965	1980.22
704.154	1980.22
704.342	1974.07
704.531	2049.85
704.719	2137.91
704.907	2090.81
705.096	2060.09
705.284	2037.56
705.472	2080.57
705.661	2076.47
705.849	2125.62
706.037	1939.26
706.226	2025.27
706.414	1988.41
706.602	2058.04
706.79	2072.37
706.979	2041.65
707.167	2064.18
707.355	2125.62
707.543	2176.82
707.731	2150.2
707.919	2084.66
708.107	1982.26
708.296	2099
708.484	1963.83
708.672	2094.9
708.86	2074.42
709.048	2090.81
709.236	2021.17
709.424	2074.42
709.612	2019.13
709.8	2051.89
709.988	2133.81
710.176	2092.85
710.364	2035.51
710.551	2025.27
710.739	2017.08
710.927	2051.89
711.115	2064.18
711.303	2055.99
711.491	2043.7
711.679	1992.5
711.866	2111.29
712.054	1969.98
712.242	1990.45
712.43	2109.24
712.617	2060.09
712.805	2043.7
712.993	1955.64
713.181	2019.13
713.368	2082.61
713.556	1994.55
713.744	1961.78
713.931	2078.52
714.119	1943.35
714.306	1963.83
714.494	1910.58
714.682	2033.46
714.869	1959.74
715.057	1992.5
715.244	2008.89
715.432	2174.77
715.619	2029.37
715.807	2010.93
715.994	1869.62
716.182	1910.58
716.369	2109.24
716.556	1996.6
716.744	1881.91
716.931	1986.36
717.119	2033.46
717.306	1990.45
717.493	2051.89
717.681	1916.73
717.868	2047.8
718.055	1994.55
718.242	2008.89
718.43	2084.66
718.617	1937.21
718.804	1947.45
718.991	1976.12
719.179	2000.69
719.366	1994.55
719.553	2049.85
719.74	1967.93
719.927	2099
720.114	1955.64
720.301	2041.65
720.488	2068.28
720.676	2051.89
720.863	2060.09
721.05	2023.22
721.237	2008.89
721.424	2027.32
721.611	2109.24
721.798	1918.78
721.985	1992.5
722.172	2021.17
722.358	1990.45
722.545	2082.61
722.732	1967.93
722.919	1955.64
723.106	2025.27
723.293	1926.97
723.48	2033.46
723.667	2037.56
723.853	2078.52
724.04	1902.39
724.227	2025.27
724.414	1990.45
724.6	1890.1
724.787	2021.17
724.974	2068.28
725.161	1994.55
725.347	1910.58
725.534	2017.08
725.72	1984.31
725.907	2019.13
726.094	1949.5
726.28	2049.85
726.467	2033.46
726.653	1953.59
726.84	1943.35
727.027	1976.12
727.213	2000.69
727.4	1949.5
727.586	2035.51
727.773	1902.39
727.959	1933.11
728.145	2002.74
728.332	1931.06
728.518	1959.74
728.705	1959.74
728.891	1896.25
729.077	1984.31
729.264	1922.87
729.45	1845.05
729.636	1976.12
729.823	1965.88
730.009	2049.85
730.195	1947.45
730.382	1978.17
730.568	1972.02
730.754	1984.31
730.94	1996.6
731.126	1994.55
731.313	1853.24
731.499	2076.47
731.685	1886.01
731.871	1961.78
732.057	2051.89
732.243	2006.84
732.429	2047.8
732.615	1947.45
732.801	2082.61
732.987	1873.72
733.173	1910.58
733.359	1904.44
733.545	2033.46
733.731	1883.96
733.917	1986.36
734.103	1963.83
734.289	2049.85
734.475	1888.06
734.661	2062.13
734.847	1812.28
735.033	1898.3
735.219	2027.32
735.404	1855.29
735.59	1886.01
735.776	1959.74
735.962	1886.01
736.148	2064.18
736.333	1937.21
736.519	1820.47
736.705	1996.6
736.89	1972.02
737.076	1857.34
737.262	1904.44
737.447	1994.55
737.633	1861.43
737.819	1894.2
738.004	1804.09
738.19	1873.72
738.375	1869.62
738.561	1818.43
738.747	1838.91
738.932	1742.65
739.118	1898.3
739.303	1838.91
739.489	1886.01
739.674	1820.47
739.859	1871.67
740.045	1820.47
740.23	1810.23
740.416	1812.28
740.601	1914.68
740.786	1806.14
740.972	1861.43
741.157	1763.13
741.342	1779.51
741.528	1845.05
741.713	1795.9
741.898	1818.43
742.084	1869.62
742.269	1836.86
742.454	1787.71
742.639	1808.19
742.824	1681.21
743.01	1746.75
743.195	1838.91
743.38	1822.52
743.565	1705.79
743.75	1658.68
743.935	1720.12
744.12	1830.71
744.305	1656.64
744.49	1617.72
744.675	1673.02
744.86	1726.27
745.045	1718.08
745.23	1718.08
745.415	1642.3
745.6	1697.6
745.785	1718.08
745.97	1648.44
746.155	1634.11
746.34	1658.68
746.525	1550.14
746.71	1625.92
746.895	1656.64
747.079	1707.84
747.264	1599.29
747.449	1640.25
747.634	1500.99
747.819	1578.81
748.003	1599.29
748.188	1451.84
748.373	1568.57
748.557	1511.23
748.742	1513.28
748.927	1560.38
749.111	1478.46
749.296	1513.28
749.481	1412.93
749.665	1468.22
749.85	1402.69
750.034	1406.78
750.219	1394.5
750.404	1470.27
750.588	1363.78
750.773	1414.98
750.957	1462.08
751.141	1328.96
751.326	1378.11
751.51	1251.14
751.695	1337.15
751.879	1220.42
752.064	1478.46
752.248	1390.4
752.432	1273.67
752.617	1201.99
752.801	1437.5
752.985	1195.84
753.17	1292.1
753.354	1326.91
753.538	1378.11
753.722	1230.66
753.907	1255.23
754.091	1173.32
754.275	1290.05
754.459	1220.42
754.643	1216.32
754.828	1265.47
755.012	1175.36
755.196	1152.84
755.38	1234.75
755.564	1154.88
755.748	1199.94
755.932	1169.22
756.116	1085.25
756.3	1038.15
756.484	1142.6
756.668	1115.97
756.852	1025.86
757.036	1066.82
757.22	1013.57
757.404	1079.11
757.588	1034.05
757.772	1091.4
757.956	1118.02
758.14	1003.33
758.323	943.94
758.507	1056.58
758.691	1021.77
758.875	1048.39
759.059	1070.92
759.242	1021.77
759.426	1007.43
759.61	1099.59
759.794	1029.96
759.977	1005.38
760.161	1025.86
760.345	943.94
760.528	986.95
760.712	958.28
760.895	878.41
761.079	952.13
761.263	966.47
761.446	870.22
761.63	978.76
761.813	929.61
761.997	878.41
762.18	833.35
762.364	948.04
762.547	931.66
762.731	925.51
762.914	823.11
763.098	919.37
763.281	806.73
763.464	892.74
763.648	790.35
763.831	956.23
764.015	890.7
764.198	902.98
764.381	857.93
764.564	767.82
764.748	878.41
764.931	898.89
765.114	853.83
765.297	894.79
765.481	810.82
765.664	755.53
765.847	728.91
766.03	780.11
766.213	767.82
766.397	773.96
766.58	767.82
766.763	825.16
766.946	819.02
767.129	837.45
767.312	689.99
767.495	765.77
767.678	780.11
767.861	823.11
768.044	780.11
768.227	665.42
768.41	765.77
768.593	722.76
768.776	765.77
768.959	718.67
769.142	743.24
769.324	716.62
769.507	849.74
769.69	669.52
769.873	733
770.056	776.01
770.239	642.89
770.421	796.49
770.604	735.05
770.787	632.65
770.97	657.23
771.152	642.89
771.335	757.58
771.518	649.04
771.7	761.67
771.883	665.42
772.066	689.99
772.248	675.66
772.431	716.62
772.613	677.71
772.796	661.32
772.978	708.43
773.161	737.1
773.343	675.66
773.526	620.36
773.708	644.94
773.891	620.36
774.073	702.28
774.256	595.79
774.438	667.47
774.621	669.52
774.803	610.12
774.985	634.7
775.168	671.56
775.35	622.41
775.532	610.12
775.715	534.35
775.897	636.75
776.079	655.18
776.261	550.73
776.444	520.01
776.626	560.97
776.808	468.81
776.99	524.11
777.173	610.12
777.355	575.31
777.537	575.31
777.719	477.01
777.901	577.36
778.083	567.12
778.265	493.39
778.447	542.54
778.629	528.21
778.811	550.73
778.993	481.1
779.175	534.35
779.357	497.49
779.539	550.73
779.721	485.2
779.903	456.53
780.085	472.91
780.267	429.9
780.449	526.16
780.631	485.2
780.812	511.82
780.994	440.14
781.176	421.71
781.358	436.05
781.54	411.47
781.721	368.46
781.903	567.12
782.085	456.53
782.267	405.33
782.448	380.75
782.63	382.8
782.812	378.7
782.993	350.03
783.175	403.28
783.357	270.16
783.538	376.66
783.72	364.37
783.901	436.05
784.083	423.76
784.264	497.49
784.446	403.28
784.627	407.38
784.809	413.52
784.99	345.94
785.172	358.22
785.353	335.7
785.535	345.94
785.716	370.51
785.897	354.13
786.079	427.85
786.26	354.13
786.441	370.51
786.623	341.84
786.804	282.45
786.985	319.31
787.167	350.03
787.348	358.22
787.529	313.17
787.71	350.03
787.891	374.61
788.073	386.9
788.254	345.94
788.435	362.32
788.616	413.52
788.797	341.84
788.978	329.55
789.159	307.02
789.34	360.27
789.522	327.5
789.703	206.67
789.884	331.6
790.065	290.64
790.246	300.88
790.427	272.21
790.607	253.78
790.788	354.13
790.969	294.74
791.15	321.36
791.331	280.4
791.512	296.78
791.693	223.06
791.874	266.07
792.054	354.13
792.235	304.98
792.416	307.02
792.597	249.68
792.778	264.02
792.958	298.83
793.139	216.91
793.32	370.51
793.5	239.44
793.681	343.89
793.862	266.07
794.042	206.67
794.223	182.1
794.404	304.98
794.584	231.25
794.765	198.48
794.945	227.15
795.126	304.98
795.306	202.58
795.487	239.44
795.667	241.49
795.848	161.62
796.028	257.87
796.209	198.48
796.389	325.46
796.57	229.2
796.75	173.91
796.93	286.54
797.111	198.48
797.291	171.86
797.471	253.78
797.652	257.87
797.832	188.24
798.012	231.25
798.192	206.67
798.373	153.43
798.553	208.72
798.733	157.52
798.913	202.58
799.093	216.91
799.274	159.57
799.454	182.1
799.634	173.91
799.814	182.1
799.994	237.39
800.174	255.83
800.354	178
800.534	221.01
800.714	202.58
800.894	157.52
801.074	194.39
801.254	171.86
801.434	302.93
801.614	194.39
801.794	135
801.974	759.63
802.154	149.33
802.334	149.33
802.514	100.18
802.693	198.48
802.873	108.37
803.053	247.63
803.233	157.52
803.413	149.33
803.592	120.66
803.772	137.04
803.952	186.19
804.131	132.95
804.311	192.34
804.491	198.48
804.67	149.33
804.85	137.04
805.03	114.52
805.209	151.38
805.389	206.67
805.568	61.27
805.748	175.95
805.928	130.9
806.107	173.91
806.287	182.1
806.466	157.52
806.646	135
806.825	151.38
807.004	135
807.184	141.14
807.363	190.29
807.543	141.14
807.722	137.04
807.901	75.6
808.081	167.76
808.26	98.13
808.439	165.71
808.619	120.66
808.798	124.76
808.977	143.19
809.156	139.09
809.336	149.33
809.515	178
809.694	182.1
809.873	161.62
810.052	147.28
810.231	165.71
810.411	112.47
810.59	167.76
810.769	96.08
810.948	159.57
811.127	122.71
811.306	124.76
811.485	61.27
811.664	173.91
811.843	132.95
812.022	132.95
812.201	98.13
812.38	79.7
812.559	48.98
812.737	100.18
812.916	67.41
813.095	116.56
813.274	126.8
813.453	108.37
813.632	30.55
813.811	137.04
813.989	79.7
814.168	100.18
814.347	85.84
814.526	132.95
814.704	118.61
814.883	112.47
815.062	26.45
815.24	120.66
815.419	102.23
815.598	169.81
815.776	71.51
815.955	91.99
816.133	91.99
816.312	91.99
816.49	149.33
816.669	69.46
816.847	71.51
817.026	55.12
817.204	71.51
817.383	85.84
817.561	51.03
817.74	145.24
817.918	175.95
818.097	104.28
818.275	118.61
818.453	102.23
818.632	53.08
818.81	87.89
818.988	83.8
819.167	149.33
819.345	77.65
819.523	12.12
819.701	67.41
819.879	116.56
820.058	65.36
820.236	182.1
820.414	61.27
820.592	132.95
820.77	87.89
820.948	102.23
821.127	83.8
821.305	159.57
821.483	44.88
821.661	141.14
821.839	102.23
822.017	120.66
822.195	106.32
822.373	67.41
822.551	26.45
822.729	94.04
822.907	69.46
823.085	153.43
823.262	110.42
823.44	63.32
823.618	124.76
823.796	34.64
823.974	91.99
824.152	79.7
824.329	61.27
824.507	108.37
824.685	120.66
824.863	110.42
825.04	116.56
825.218	108.37
825.396	22.36
825.574	42.84
825.751	77.65
825.929	165.71
826.107	42.84
826.284	118.61
826.462	94.04
826.639	75.6
826.817	46.93
826.994	100.18
827.172	20.31
827.349	94.04
827.527	77.65
827.704	122.71
827.882	79.7
828.059	16.21
828.237	141.14
828.414	108.37
828.591	-6.31
828.769	143.19
828.946	51.03
829.124	59.22
829.301	143.19
829.478	108.37
829.655	46.93
829.833	114.52
830.01	36.69
830.187	75.6
830.364	128.85
830.542	135
830.719	81.75
830.896	110.42
831.073	34.64
831.25	34.64
831.427	73.56
831.604	26.45
831.782	14.17
831.959	98.13
832.136	100.18
832.313	59.22
832.49	75.6
832.667	96.08
832.844	46.93
833.021	116.56
833.198	46.93
833.374	40.79
833.551	69.46
833.728	91.99
833.905	75.6
834.082	135
834.259	71.51
834.436	65.36
834.612	28.5
834.789	42.84
834.966	38.74
835.143	26.45
835.319	73.56
835.496	87.89
835.673	98.13
835.85	104.28
836.026	98.13
836.203	98.13
836.38	28.5
836.556	73.56
836.733	124.76
836.909	73.56
837.086	14.17
837.262	83.8
837.439	22.36
837.616	-22.7
837.792	55.12
837.968	-6.31
838.145	-80.04
838.321	34.64
838.498	71.51
838.674	128.85
838.851	79.7
839.027	1.88
839.203	28.5
839.38	8.02
839.556	-45.23
839.732	53.08
839.909	20.31
840.085	81.75
840.261	10.07
840.437	85.84
840.614	73.56
840.79	61.27
840.966	57.17
841.142	36.69
841.318	48.98
841.494	18.26
841.671	-0.17
841.847	16.21
842.023	26.45
842.199	40.79
842.375	44.88
842.551	-22.7
842.727	-8.36
842.903	44.88
843.079	-16.55
843.255	69.46
843.431	87.89
843.607	34.64
843.783	-43.18
843.959	77.65
844.134	44.88
844.31	40.79
844.486	53.08
844.662	18.26
844.838	32.6
845.013	46.93
845.189	32.6
845.365	104.28
845.541	51.03
845.716	-12.46
845.892	94.04
846.068	18.26
846.244	77.65
846.419	87.89
846.595	32.6
846.77	38.74
846.946	26.45
847.122	40.79
847.297	20.31
847.473	124.76
847.648	-67.75
847.824	3.93
847.999	5.97
848.175	38.74
848.35	100.18
848.526	65.36
848.701	-16.55
848.876	32.6
849.052	55.12
849.227	65.36
849.403	61.27
849.578	38.74
849.753	-12.46
849.929	59.22
850.104	-18.6
850.279	-10.41
850.454	-45.23
850.63	-0.17
850.805	32.6
850.98	-12.46
851.155	10.07
851.33	67.41
851.505	-2.22
851.681	57.17
851.856	-63.66
852.031	-6.31
852.206	-2.22
852.381	44.88
852.556	18.26
852.731	-6.31
852.906	51.03
853.081	20.31
853.256	42.84
853.431	102.23
853.606	32.6
853.781	-22.7
853.956	-28.84
854.131	26.45
854.305	-71.85
854.48	26.45
854.655	-59.56
854.83	1.88
855.005	36.69
855.18	110.42
855.354	67.41
855.529	51.03
855.704	-14.51
855.879	-2.22
856.053	-18.6
856.228	67.41
856.403	40.79
856.577	100.18
856.752	-26.79
856.926	46.93
857.101	-14.51
857.276	16.21
857.45	14.17
857.625	73.56
857.799	26.45
857.974	34.64
858.148	-39.08
858.323	-55.47
858.497	12.12
858.672	53.08
858.846	8.02
859.02	91.99
859.195	3.93
859.369	-22.7
859.543	91.99
859.718	79.7
859.892	1.88
860.066	28.5
860.241	-10.41
860.415	1.88
860.589	20.31
860.763	-22.7
860.938	-30.89
861.112	3.93
861.286	-59.56
861.46	-34.99
861.634	1.88
861.808	124.76
861.982	-47.27
862.157	-45.23
862.331	-28.84
862.505	130.9
862.679	-30.89
862.853	10.07
863.027	3.93
863.201	67.41
863.375	-61.61
863.549	-14.51
863.722	44.88
863.896	51.03
864.07	98.13
864.244	-0.17
864.418	14.17
864.592	18.26
864.766	18.26
864.939	-6.31
865.113	8.02
865.287	-12.46
865.461	20.31
865.634	-2.22
865.808	12.12
865.982	73.56
866.156	-39.08
866.329	89.94
866.503	5.97
866.676	46.93
866.85	-37.03
867.024	46.93
867.197	36.69
867.371	-67.75
867.544	-69.8
867.718	16.21
867.891	-2.22
868.065	34.64
868.238	-30.89
868.412	18.26
868.585	28.5
868.759	20.31
868.932	28.5
869.105	34.64
869.279	46.93
869.452	22.36
869.625	38.74
869.799	-47.27
869.972	-67.75
870.145	-18.6
870.319	18.26
870.492	20.31
870.665	18.26
870.838	-55.47
871.011	5.97
871.185	-65.71
871.358	-12.46
871.531	42.84
871.704	-10.41
871.877	5.97
872.05	-18.6
872.223	-2.22
872.396	46.93
872.569	12.12
872.742	-34.99
872.915	-4.27
873.088	-55.47
873.261	30.55
873.434	-12.46
873.607	28.5
873.78	30.55
873.953	-12.46
874.126	32.6
874.299	53.08
874.471	-12.46
874.644	5.97
874.817	67.41
874.99	34.64
875.163	-10.41
875.335	12.12
875.508	-18.6
875.681	8.02
875.853	10.07
876.026	53.08
876.199	-4.27
876.371	-14.51
876.544	51.03
876.717	12.12
876.889	10.07
877.062	28.5
877.234	28.5
877.407	-45.23
877.579	-26.79
877.752	22.36
877.924	-18.6
878.097	81.75
878.269	-34.99
878.442	14.17
878.614	71.51
878.786	42.84
878.959	28.5
879.131	42.84
879.303	-61.61
879.476	46.93
879.648	1.88
879.82	59.22
879.993	83.8
880.165	-14.51
880.337	-10.41
880.509	51.03
880.681	-26.79
880.854	-34.99
881.026	12.12
881.198	65.36
881.37	-6.31
881.542	46.93
881.714	34.64
881.886	-84.14
882.058	-14.51
882.23	34.64
882.402	-6.31
882.574	-59.56
882.746	-26.79
882.918	-22.7
883.09	1.88
883.262	-30.89
883.434	1.88
883.606	-32.94
883.778	18.26
883.95	63.32
884.122	18.26
884.293	12.12
884.465	22.36
884.637	36.69
884.809	-43.18
884.98	10.07
885.152	26.45
885.324	63.32
885.496	-8.36
885.667	-4.27
885.839	16.21
886.011	83.8
886.182	-55.47
886.354	1.88
886.525	-6.31
886.697	36.69
886.869	-2.22
887.04	34.64
887.212	1.88
887.383	14.17
887.555	-61.61
887.726	14.17
887.897	34.64
888.069	46.93
888.24	44.88
888.412	10.07
888.583	44.88
888.754	26.45
888.926	3.93
889.097	-22.7
889.268	-61.61
889.44	55.12
889.611	-71.85
889.782	-14.51
889.953	34.64
890.125	51.03
890.296	-73.9
890.467	14.17
890.638	46.93
890.809	26.45
890.98	-18.6
891.151	51.03
891.323	28.5
891.494	75.6
891.665	-59.56
891.836	10.07
892.007	1.88
892.178	36.69
892.349	22.36
892.52	28.5
892.691	-14.51
892.862	-73.9
893.032	-84.14
893.203	-22.7
893.374	-22.7
893.545	57.17
893.716	-39.08
893.887	-49.32
894.057	22.36
894.228	-14.51
894.399	-30.89
894.57	12.12
894.74	79.7
894.911	-37.03
895.082	-14.51
895.253	10.07
895.423	-14.51
895.594	61.27
895.764	-6.31
895.935	18.26
896.106	79.7
896.276	-6.31
896.447	-2.22
896.617	-30.89
896.788	-53.42
896.958	-16.55
897.129	3.93
897.299	14.17
897.47	42.84
897.64	8.02
897.81	14.17
897.981	-22.7
898.151	-39.08
898.322	14.17
898.492	-37.03
898.662	3.93
898.832	85.84
899.003	73.56
899.173	53.08
899.343	-22.7
899.513	-10.41
