Data from USB4F104151__200__14-20-31-938.txt Node

Date: Thu Mar 13 14:20:31 EDT 2025
User: louis
Spectrometer: USB4F10415
Trigger mode: 4
Integration Time (sec): 2.000000E-2
Scans to average: 1
Electric dark correction enabled: true
Nonlinearity correction enabled: false
Boxcar width: 0
XAxis mode: Wavelengths
Number of Pixels in Spectrum: 3648
>>>>>Begin Spectral Data<<<<<
178.204	-82.09
178.424	-82.09
178.644	-82.09
178.864	-51.37
179.084	-139.43
179.304	-28.84
179.524	-55.47
179.744	-14.51
179.964	48.98
180.184	18.26
180.404	-49.32
180.624	14.17
180.844	48.98
181.064	-20.65
181.283	-2.22
181.503	18.26
181.723	22.36
181.943	-57.51
182.163	186.19
182.383	8.02
182.602	57.17
182.822	67.41
183.042	36.69
183.262	-24.75
183.482	-34.99
183.701	-22.7
183.921	22.36
184.141	-10.41
184.361	63.32
184.58	14.17
184.8	16.21
185.02	46.93
185.239	106.32
185.459	38.74
185.679	75.6
185.898	8.02
186.118	1.88
186.338	-10.41
186.557	104.28
186.777	81.75
186.997	-2.22
187.216	16.21
187.436	122.71
187.655	-26.79
187.875	106.32
188.095	61.27
188.314	63.32
188.534	57.17
188.753	8.02
188.973	-14.51
189.192	24.4
189.412	51.03
189.631	22.36
189.851	46.93
190.07	110.42
190.29	20.31
190.509	30.55
190.729	-47.27
190.948	38.74
191.168	118.61
191.387	20.31
191.607	63.32
191.826	30.55
192.045	-22.7
192.265	-51.37
192.484	24.4
192.704	8.02
192.923	14.17
193.142	57.17
193.362	5.97
193.581	75.6
193.8	14.17
194.02	104.28
194.239	10.07
194.458	83.8
194.678	8.02
194.897	38.74
195.116	51.03
195.335	106.32
195.555	143.19
195.774	30.55
195.993	55.12
196.212	108.37
196.432	18.26
196.651	-10.41
196.87	-32.94
197.089	87.89
197.308	73.56
197.528	5.97
197.747	18.26
197.966	14.17
198.185	65.36
198.404	42.84
198.623	22.36
198.842	73.56
199.062	51.03
199.281	106.32
199.5	124.76
199.719	106.32
199.938	42.84
200.157	89.94
200.376	55.12
200.595	10.07
200.814	79.7
201.033	-18.6
201.252	46.93
201.471	22.36
201.69	108.37
201.909	-32.94
202.128	98.13
202.347	12.12
202.566	14.17
202.785	-30.89
203.004	-14.51
203.223	96.08
203.442	73.56
203.661	8.02
203.879	-20.65
204.098	79.7
204.317	-2.22
204.536	5.97
204.755	110.42
204.974	79.7
205.193	51.03
205.411	75.6
205.63	67.41
205.849	5.97
206.068	24.4
206.287	-18.6
206.505	106.32
206.724	18.26
206.943	65.36
207.162	-6.31
207.381	46.93
207.599	42.84
207.818	83.8
208.037	46.93
208.255	-10.41
208.474	98.13
208.693	22.36
208.911	26.45
209.13	-41.13
209.349	48.98
209.567	14.17
209.786	36.69
210.005	12.12
210.223	34.64
210.442	51.03
210.661	61.27
210.879	63.32
211.098	5.97
211.316	16.21
211.535	61.27
211.753	10.07
211.972	-10.41
212.191	20.31
212.409	98.13
212.628	79.7
212.846	8.02
213.065	67.41
213.283	87.89
213.502	8.02
213.72	-49.32
213.938	22.36
214.157	40.79
214.375	63.32
214.594	-34.99
214.812	24.4
215.031	-18.6
215.249	-2.22
215.467	22.36
215.686	51.03
215.904	71.51
216.122	34.64
216.341	40.79
216.559	65.36
216.778	46.93
216.996	46.93
217.214	-18.6
217.432	1.88
217.651	40.79
217.869	32.6
218.087	-18.6
218.306	38.74
218.524	57.17
218.742	-20.65
218.96	59.22
219.179	-0.17
219.397	34.64
219.615	87.89
219.833	55.12
220.051	-0.17
220.27	-12.46
220.488	79.7
220.706	22.36
220.924	40.79
221.142	-22.7
221.36	26.45
221.578	98.13
221.796	-51.37
222.015	48.98
222.233	-14.51
222.451	59.22
222.669	71.51
222.887	67.41
223.105	-12.46
223.323	65.36
223.541	32.6
223.759	63.32
223.977	12.12
224.195	75.6
224.413	83.8
224.631	44.88
224.849	24.4
225.067	132.95
225.285	26.45
225.503	34.64
225.721	-18.6
225.939	40.79
226.157	-2.22
226.375	171.86
226.592	10.07
226.81	-2.22
227.028	-8.36
227.246	114.52
227.464	44.88
227.682	40.79
227.9	8.02
228.117	18.26
228.335	122.71
228.553	14.17
228.771	55.12
228.989	46.93
229.206	8.02
229.424	34.64
229.642	46.93
229.86	34.64
230.077	28.5
230.295	55.12
230.513	34.64
230.731	85.84
230.948	75.6
231.166	28.5
231.384	38.74
231.601	112.47
231.819	79.7
232.037	71.51
232.254	26.45
232.472	14.17
232.689	-14.51
232.907	-16.55
233.125	-0.17
233.342	24.4
233.56	-10.41
233.777	71.51
233.995	5.97
234.213	116.56
234.43	-2.22
234.648	59.22
234.865	14.17
235.083	143.19
235.3	46.93
235.518	51.03
235.735	40.79
235.953	124.76
236.17	61.27
236.388	38.74
236.605	79.7
236.822	38.74
237.04	-8.36
237.257	63.32
237.475	5.97
237.692	42.84
237.909	55.12
238.127	-10.41
238.344	30.55
238.562	14.17
238.779	-2.22
238.996	-49.32
239.214	-12.46
239.431	89.94
239.648	-2.22
239.865	75.6
240.083	24.4
240.3	120.66
240.517	-18.6
240.735	38.74
240.952	65.36
241.169	59.22
241.386	51.03
241.603	26.45
241.821	-18.6
242.038	61.27
242.255	57.17
242.472	-14.51
242.689	51.03
242.907	22.36
243.124	14.17
243.341	-47.27
243.558	38.74
243.775	-65.71
243.992	-18.6
244.209	83.8
244.426	14.17
244.643	30.55
244.86	8.02
245.078	69.46
245.295	5.97
245.512	-8.36
245.729	-6.31
245.946	8.02
246.163	67.41
246.38	26.45
246.597	48.98
246.814	-49.32
247.031	85.84
247.248	79.7
247.464	22.36
247.681	44.88
247.898	5.97
248.115	20.31
248.332	-30.89
248.549	26.45
248.766	71.51
248.983	87.89
249.2	-16.55
249.417	-32.94
249.633	30.55
249.85	61.27
250.067	46.93
250.284	30.55
250.501	98.13
250.717	-18.6
250.934	-26.79
251.151	79.7
251.368	-4.27
251.585	91.99
251.801	87.89
252.018	34.64
252.235	87.89
252.451	-24.75
252.668	48.98
252.885	122.71
253.102	46.93
253.318	51.03
253.535	34.64
253.752	38.74
253.968	16.21
254.185	55.12
254.401	55.12
254.618	14.17
254.835	34.64
255.051	40.79
255.268	14.17
255.484	38.74
255.701	28.5
255.917	40.79
256.134	46.93
256.351	12.12
256.567	77.65
256.784	77.65
257	-8.36
257.217	91.99
257.433	46.93
257.65	-8.36
257.866	77.65
258.082	26.45
258.299	-14.51
258.515	10.07
258.732	71.51
258.948	46.93
259.165	22.36
259.381	67.41
259.597	65.36
259.814	63.32
260.03	14.17
260.246	14.17
260.463	63.32
260.679	24.4
260.895	32.6
261.112	91.99
261.328	38.74
261.544	53.08
261.761	18.26
261.977	16.21
262.193	8.02
262.409	24.4
262.626	55.12
262.842	-2.22
263.058	-57.51
263.274	89.94
263.49	59.22
263.707	71.51
263.923	-10.41
264.139	-14.51
264.355	26.45
264.571	38.74
264.787	24.4
265.004	-28.84
265.22	42.84
265.436	-26.79
265.652	75.6
265.868	91.99
266.084	26.45
266.3	51.03
266.516	14.17
266.732	71.51
266.948	3.93
267.164	108.37
267.38	18.26
267.596	42.84
267.812	57.17
268.028	73.56
268.244	-37.03
268.46	28.5
268.676	63.32
268.892	46.93
269.108	38.74
269.324	10.07
269.54	44.88
269.756	10.07
269.972	-59.56
270.188	-16.55
270.403	-20.65
270.619	85.84
270.835	-30.89
271.051	5.97
271.267	-26.79
271.483	14.17
271.698	36.69
271.914	46.93
272.13	36.69
272.346	51.03
272.562	79.7
272.777	14.17
272.993	14.17
273.209	63.32
273.425	-12.46
273.64	32.6
273.856	42.84
274.072	112.47
274.287	-18.6
274.503	132.95
274.719	-47.27
274.934	-61.61
275.15	-12.46
275.366	71.51
275.581	32.6
275.797	48.98
276.012	83.8
276.228	30.55
276.444	24.4
276.659	40.79
276.875	20.31
277.09	-6.31
277.306	96.08
277.521	79.7
277.737	8.02
277.952	100.18
278.168	40.79
278.383	34.64
278.599	-18.6
278.814	16.21
279.03	-18.6
279.245	59.22
279.461	-2.22
279.676	-2.22
279.892	16.21
280.107	-2.22
280.322	-0.17
280.538	38.74
280.753	-55.47
280.969	48.98
281.184	55.12
281.399	96.08
281.615	67.41
281.83	12.12
282.045	5.97
282.26	55.12
282.476	8.02
282.691	55.12
282.906	89.94
283.122	18.26
283.337	-26.79
283.552	51.03
283.767	26.45
283.983	79.7
284.198	10.07
284.413	83.8
284.628	-30.89
284.843	-34.99
285.058	79.7
285.274	22.36
285.489	16.21
285.704	-2.22
285.919	24.4
286.134	-2.22
286.349	14.17
286.564	20.31
286.779	128.85
286.995	22.36
287.21	51.03
287.425	-8.36
287.64	16.21
287.855	32.6
288.07	-0.17
288.285	42.84
288.5	71.51
288.715	38.74
288.93	57.17
289.145	5.97
289.36	32.6
289.575	5.97
289.79	71.51
290.004	-10.41
290.219	32.6
290.434	63.32
290.649	57.17
290.864	46.93
291.079	10.07
291.294	73.56
291.509	38.74
291.724	-8.36
291.938	51.03
292.153	14.17
292.368	-18.6
292.583	34.64
292.798	55.12
293.012	59.22
293.227	48.98
293.442	51.03
293.657	143.19
293.871	59.22
294.086	-26.79
294.301	44.88
294.516	79.7
294.73	14.17
294.945	40.79
295.16	16.21
295.374	98.13
295.589	83.8
295.804	75.6
296.018	48.98
296.233	112.47
296.447	46.93
296.662	-18.6
296.877	87.89
297.091	83.8
297.306	-16.55
297.52	59.22
297.735	89.94
297.949	85.84
298.164	48.98
298.378	32.6
298.593	32.6
298.807	-30.89
299.022	89.94
299.236	73.56
299.451	-18.6
299.665	38.74
299.88	30.55
300.094	-57.51
300.309	22.36
300.523	122.71
300.737	46.93
300.952	40.79
301.166	12.12
301.381	20.31
301.595	18.26
301.809	-2.22
302.024	22.36
302.238	38.74
302.452	55.12
302.667	-16.55
302.881	48.98
303.095	79.7
303.309	-34.99
303.524	69.46
303.738	26.45
303.952	-37.03
304.166	75.6
304.381	-10.41
304.595	38.74
304.809	53.08
305.023	8.02
305.237	10.07
305.452	8.02
305.666	44.88
305.88	18.26
306.094	87.89
306.308	91.99
306.522	100.18
306.736	65.36
306.95	67.41
307.164	83.8
307.379	30.55
307.593	91.99
307.807	30.55
308.021	83.8
308.235	18.26
308.449	-30.89
308.663	38.74
308.877	104.28
309.091	1.88
309.305	53.08
309.519	8.02
309.733	67.41
309.947	44.88
310.161	-32.94
310.374	-30.89
310.588	55.12
310.802	26.45
311.016	-0.17
311.23	71.51
311.444	34.64
311.658	-47.27
311.872	120.66
312.085	32.6
312.299	55.12
312.513	83.8
312.727	98.13
312.941	46.93
313.154	94.04
313.368	30.55
313.582	24.4
313.796	34.64
314.009	-22.7
314.223	57.17
314.437	30.55
314.651	38.74
314.864	20.31
315.078	42.84
315.292	32.6
315.505	14.17
315.719	14.17
315.933	-4.27
316.146	59.22
316.36	32.6
316.573	40.79
316.787	-0.17
317.001	108.37
317.214	-0.17
317.428	120.66
317.641	-18.6
317.855	26.45
318.068	85.84
318.282	63.32
318.495	67.41
318.709	87.89
318.922	48.98
319.136	71.51
319.349	79.7
319.563	8.02
319.776	-6.31
319.99	16.21
320.203	59.22
320.417	14.17
320.63	38.74
320.843	128.85
321.057	63.32
321.27	14.17
321.483	83.8
321.697	128.85
321.91	38.74
322.124	40.79
322.337	46.93
322.55	57.17
322.763	-6.31
322.977	38.74
323.19	79.7
323.403	55.12
323.617	-20.65
323.83	85.84
324.043	36.69
324.256	79.7
324.469	-2.22
324.683	-2.22
324.896	-22.7
325.109	14.17
325.322	51.03
325.535	102.23
325.748	128.85
325.962	14.17
326.175	5.97
326.388	81.75
326.601	120.66
326.814	-26.79
327.027	-22.7
327.24	87.89
327.453	-14.51
327.666	65.36
327.879	22.36
328.092	46.93
328.305	91.99
328.518	38.74
328.731	5.97
328.944	59.22
329.157	71.51
329.37	22.36
329.583	83.8
329.796	59.22
330.009	1.88
330.222	53.08
330.435	96.08
330.648	63.32
330.861	40.79
331.073	55.12
331.286	114.52
331.499	106.32
331.712	51.03
331.925	30.55
332.138	10.07
332.35	63.32
332.563	59.22
332.776	91.99
332.989	5.97
333.202	57.17
333.414	14.17
333.627	67.41
333.84	104.28
334.053	63.32
334.265	63.32
334.478	130.9
334.691	30.55
334.903	12.12
335.116	-2.22
335.329	79.7
335.541	71.51
335.754	128.85
335.966	40.79
336.179	46.93
336.392	38.74
336.604	26.45
336.817	67.41
337.029	-10.41
337.242	73.56
337.454	-18.6
337.667	-16.55
337.88	5.97
338.092	-32.94
338.305	48.98
338.517	53.08
338.729	40.79
338.942	137.04
339.154	81.75
339.367	14.17
339.579	83.8
339.792	-8.36
340.004	106.32
340.217	67.41
340.429	65.36
340.641	-34.99
340.854	22.36
341.066	63.32
341.278	53.08
341.491	100.18
341.703	32.6
341.915	-65.71
342.128	100.18
342.34	1.88
342.552	-92.33
342.764	5.97
342.977	20.31
343.189	71.51
343.401	46.93
343.613	8.02
343.826	71.51
344.038	-20.65
344.25	32.6
344.462	36.69
344.674	83.8
344.886	5.97
345.099	120.66
345.311	65.36
345.523	69.46
345.735	-16.55
345.947	130.9
346.159	69.46
346.371	-22.7
346.583	32.6
346.795	112.47
347.007	-67.75
347.219	59.22
347.431	87.89
347.643	89.94
347.855	26.45
348.067	63.32
348.279	-14.51
348.491	61.27
348.703	-10.41
348.915	71.51
349.127	-18.6
349.339	53.08
349.551	1.88
349.763	32.6
349.975	75.6
350.187	69.46
350.399	77.65
350.61	36.69
350.822	30.55
351.034	-10.41
351.246	-2.22
351.458	65.36
351.669	55.12
351.881	51.03
352.093	63.32
352.305	69.46
352.517	12.12
352.728	71.51
352.94	46.93
353.152	63.32
353.363	40.79
353.575	63.32
353.787	81.75
353.999	38.74
354.21	128.85
354.422	96.08
354.633	128.85
354.845	24.4
355.057	34.64
355.268	26.45
355.48	145.24
355.692	-10.41
355.903	26.45
356.115	40.79
356.326	14.17
356.538	106.32
356.749	91.99
356.961	112.47
357.172	-0.17
357.384	55.12
357.595	67.41
357.807	30.55
358.018	24.4
358.23	46.93
358.441	85.84
358.653	102.23
358.864	-10.41
359.075	48.98
359.287	-10.41
359.498	98.13
359.709	32.6
359.921	46.93
360.132	-10.41
360.344	79.7
360.555	-10.41
360.766	65.36
360.977	28.5
361.189	67.41
361.4	44.88
361.611	51.03
361.823	118.61
362.034	110.42
362.245	71.51
362.456	65.36
362.667	46.93
362.879	63.32
363.09	48.98
363.301	63.32
363.512	40.79
363.723	71.51
363.935	46.93
364.146	63.32
364.357	75.6
364.568	59.22
364.779	71.51
364.99	104.28
365.201	46.93
365.412	55.12
365.623	10.07
365.834	96.08
366.045	100.18
366.256	-2.22
366.467	48.98
366.678	46.93
366.889	30.55
367.1	57.17
367.311	106.32
367.522	-2.22
367.733	81.75
367.944	67.41
368.155	30.55
368.366	87.89
368.577	96.08
368.788	55.12
368.999	63.32
369.209	94.04
369.42	139.09
369.631	108.37
369.842	79.7
370.053	65.36
370.264	77.65
370.474	30.55
370.685	22.36
370.896	63.32
371.107	112.47
371.317	81.75
371.528	30.55
371.739	149.33
371.95	87.89
372.16	14.17
372.371	46.93
372.582	71.51
372.792	-6.31
373.003	40.79
373.214	65.36
373.424	145.24
373.635	42.84
373.846	69.46
374.056	104.28
374.267	118.61
374.477	69.46
374.688	14.17
374.898	67.41
375.109	67.41
375.319	40.79
375.53	73.56
375.74	57.17
375.951	65.36
376.161	44.88
376.372	106.32
376.582	18.26
376.793	110.42
377.003	55.12
377.214	51.03
377.424	57.17
377.635	79.7
377.845	81.75
378.055	89.94
378.266	79.7
378.476	89.94
378.686	104.28
378.897	24.4
379.107	55.12
379.317	46.93
379.528	30.55
379.738	34.64
379.948	-22.7
380.158	32.6
380.369	87.89
380.579	59.22
380.789	65.36
380.999	24.4
381.21	38.74
381.42	169.81
381.63	65.36
381.84	130.9
382.05	89.94
382.261	139.09
382.471	110.42
382.681	100.18
382.891	55.12
383.101	51.03
383.311	10.07
383.521	81.75
383.731	89.94
383.941	42.84
384.151	55.12
384.361	34.64
384.571	83.8
384.781	46.93
384.991	94.04
385.201	42.84
385.411	34.64
385.621	59.22
385.831	-0.17
386.041	51.03
386.251	108.37
386.461	116.56
386.671	96.08
386.881	96.08
387.091	79.7
387.301	96.08
387.511	112.47
387.72	155.47
387.93	36.69
388.14	91.99
388.35	30.55
388.56	100.18
388.769	53.08
388.979	100.18
389.189	22.36
389.399	26.45
389.609	153.43
389.818	112.47
390.028	63.32
390.238	100.18
390.447	26.45
390.657	32.6
390.867	118.61
391.076	110.42
391.286	130.9
391.496	65.36
391.705	57.17
391.915	91.99
392.125	42.84
392.334	96.08
392.544	155.47
392.753	46.93
392.963	30.55
393.172	98.13
393.382	57.17
393.591	81.75
393.801	106.32
394.01	161.62
394.22	73.56
394.429	149.33
394.639	42.84
394.848	106.32
395.058	48.98
395.267	73.56
395.477	104.28
395.686	48.98
395.895	87.89
396.105	167.76
396.314	106.32
396.524	63.32
396.733	153.43
396.942	100.18
397.152	85.84
397.361	143.19
397.57	147.28
397.78	81.75
397.989	132.95
398.198	155.47
398.407	128.85
398.617	81.75
398.826	120.66
399.035	155.47
399.244	114.52
399.453	89.94
399.663	165.71
399.872	178
400.081	120.66
400.29	155.47
400.499	155.47
400.708	161.62
400.917	190.29
401.127	122.71
401.336	42.84
401.545	106.32
401.754	153.43
401.963	153.43
402.172	143.19
402.381	104.28
402.59	143.19
402.799	147.28
403.008	143.19
403.217	165.71
403.426	153.43
403.635	130.9
403.844	184.15
404.053	157.52
404.262	114.52
404.471	247.63
404.68	116.56
404.888	192.34
405.097	161.62
405.306	167.76
405.515	214.87
405.724	143.19
405.933	245.59
406.142	218.96
406.35	210.77
406.559	284.5
406.768	180.05
406.977	300.88
407.185	231.25
407.394	255.83
407.603	251.73
407.812	227.15
408.02	317.26
408.229	323.41
408.438	294.74
408.646	270.16
408.855	366.42
409.064	206.67
409.272	403.28
409.481	341.84
409.69	333.65
409.898	352.08
410.107	384.85
410.315	423.76
410.524	431.95
410.733	501.58
410.941	458.57
411.15	440.14
411.358	505.68
411.567	616.27
411.775	466.77
411.984	505.68
412.192	538.45
412.401	530.25
412.609	595.79
412.818	653.13
413.026	687.95
413.234	587.6
413.443	743.24
413.651	704.33
413.86	704.33
414.068	808.78
414.276	812.87
414.485	769.87
414.693	882.5
414.901	913.22
415.11	821.06
415.318	974.66
415.526	968.52
415.734	1029.96
415.943	993.09
416.151	1179.46
416.359	1103.68
416.567	1105.73
416.776	1179.46
416.984	1300.29
417.192	1337.15
417.4	1222.47
417.608	1148.74
417.817	1351.49
418.025	1505.09
418.233	1613.63
418.441	1457.98
418.649	1636.16
418.857	1718.08
419.065	1754.94
419.273	1697.6
419.481	1804.09
419.689	1871.67
419.897	1924.92
420.105	1908.54
420.313	2111.29
420.521	2135.86
420.729	2033.46
420.937	2230.07
421.145	2307.89
421.353	2426.67
421.561	2508.59
421.769	2639.66
421.977	2819.88
422.185	2610.99
422.393	2791.21
422.601	2885.42
422.809	2989.86
423.017	3088.17
423.224	3209
423.432	3340.07
423.64	3325.73
423.848	3641.12
424.056	3487.52
424.263	3694.36
424.471	3671.84
424.679	3868.44
424.887	3999.51
425.094	4120.34
425.302	4146.97
425.51	4339.48
425.718	4519.7
425.925	4552.46
426.133	4609.81
426.341	4798.22
426.548	5134.09
426.756	5193.48
426.964	5347.08
427.171	5494.53
427.379	5535.49
427.586	5805.82
427.794	5764.86
428.001	6119.16
428.209	6450.93
428.417	6217.46
428.624	6682.35
428.832	6682.35
429.039	6645.49
429.247	6758.13
429.454	7403.24
429.662	7743.2
429.869	7425.76
430.076	7825.12
430.284	7630.56
430.491	8009.44
430.699	8498.9
430.906	8314.58
431.114	8740.56
431.321	8976.08
431.528	9060.04
431.736	9543.36
431.943	10182.33
432.15	9817.79
432.358	9805.5
432.565	10442.42
432.772	10348.22
432.979	10766
433.187	11032.24
433.394	11187.88
433.601	11798.18
433.808	11822.75
434.016	11902.62
434.223	12293.79
434.43	12986
434.637	12830.35
434.844	13555.33
435.052	13825.67
435.259	13651.59
435.466	13751.94
435.673	13796.99
435.88	14927.47
436.087	15509.1
436.294	15337.07
436.501	15005.3
436.708	15339.12
436.915	16131.68
437.122	16590.42
437.329	16506.46
437.537	17157.71
437.743	17208.91
437.95	17124.94
438.157	18236.99
438.364	18601.53
438.571	18257.47
438.778	18814.52
438.985	20416.03
439.192	19904.04
439.399	20287.01
439.606	19854.89
439.813	21065.24
440.02	22275.59
440.227	21982.73
440.433	21896.71
440.64	22388.22
440.847	22138.37
441.054	22664.7
441.261	24233.44
441.467	23786.99
441.674	24516.06
441.881	25394.64
442.088	25097.69
442.294	24913.37
442.501	25849.29
442.708	26004.94
442.914	27166.13
443.121	28140.97
443.328	27682.22
443.534	29324.69
443.741	28405.16
443.948	28018.09
444.154	30313.86
444.361	30190.98
444.568	30082.44
444.774	30502.28
444.981	30436.74
445.187	31520.12
445.394	32699.75
445.6	32501.09
445.807	35427.64
446.013	33867.09
446.22	34483.53
446.426	36082.99
446.633	36142.38
446.839	37250.33
447.046	35929.39
447.252	37834
447.459	37842.2
447.665	37979.41
447.871	39150.85
448.078	40789.22
448.284	38868.23
448.491	39781.62
448.697	41686.23
448.903	42157.27
449.11	42421.45
449.316	41659.61
449.522	42355.92
449.728	43470.01
449.935	43640
450.141	43586.75
450.347	44854.44
450.553	43402.43
450.76	43914.42
450.966	45407.39
451.172	44715.18
451.378	45776.03
451.584	45360.29
451.791	46187.67
451.997	46085.27
452.203	46795.92
452.409	47019.14
452.615	46374.03
452.821	45014.18
453.027	44371.12
453.233	46484.62
453.44	44553.39
453.646	45307.04
453.852	45804.7
454.058	46294.16
454.264	44868.78
454.47	45943.96
454.676	44887.21
454.882	46255.25
455.088	42073.3
455.294	42915.01
455.5	43547.84
455.705	43912.38
455.911	42024.15
456.117	41565.4
456.323	40778.98
456.529	38962.43
456.735	40719.59
456.941	39240.96
457.147	39240.96
457.352	37618.97
457.558	37311.77
457.764	37629.21
457.97	36597.03
458.176	35884.34
458.381	36093.23
458.587	34073.93
458.793	34008.4
458.999	32769.38
459.204	34932.03
459.41	33791.31
459.616	31454.58
459.821	31720.82
460.027	31214.97
460.233	30756.22
460.438	29375.89
460.644	30240.14
460.85	28460.45
461.055	28089.77
461.261	27917.74
461.466	25736.65
461.672	25368.02
461.878	26781.12
462.083	25175.51
462.289	24542.69
462.494	24372.71
462.7	23336.43
462.905	22488.57
463.111	23471.6
463.316	23686.64
463.522	23082.49
463.727	23029.24
463.932	23068.15
464.138	22740.47
464.343	22472.19
464.549	22263.3
464.754	22783.48
464.959	22687.23
465.165	22476.29
465.37	21710.35
465.575	20913.69
465.781	21923.33
465.986	22033.93
466.191	21020.18
466.397	20876.82
466.602	19834.41
466.807	20583.96
467.012	20399.65
467.218	20383.26
467.423	20059.68
467.628	20387.36
467.833	21048.85
468.038	20610.59
468.244	19592.75
468.449	20977.17
468.654	19822.12
468.859	19772.97
469.064	19369.52
469.269	19019.32
469.474	18998.84
469.679	19441.2
469.885	18871.86
470.09	18888.25
470.295	18980.4
470.5	18409.02
470.705	18652.73
470.91	18411.07
471.115	18021.95
471.32	18411.07
471.525	18148.93
471.73	17751.62
471.935	17688.14
472.139	17034.83
472.344	17299.02
472.549	17315.41
472.754	17315.41
472.959	16703.06
473.164	16168.54
473.369	16074.34
473.574	16854.61
473.778	16481.88
473.983	16438.87
474.188	16342.62
474.393	15574.63
474.598	15691.37
474.802	15548.01
475.007	15206
475.212	15199.85
475.417	15048.3
475.621	15027.82
475.826	14947.95
476.031	14577.27
476.235	14020.22
476.44	14632.57
476.645	14270.08
476.849	14245.5
477.054	14087.81
477.259	13809.28
477.463	13919.87
477.668	13452.94
477.872	13833.86
478.077	13547.14
478.282	12986
478.486	13166.22
478.691	12826.26
478.895	12904.08
479.1	12689.04
479.304	12893.84
479.509	12369.56
479.713	12781.2
479.918	12232.35
480.122	12295.83
480.326	12676.76
480.531	12330.65
480.735	12289.69
480.94	12142.24
481.144	12596.89
481.348	11937.44
481.553	12091.04
481.757	11853.47
481.961	11900.58
482.166	12252.83
482.37	11935.39
482.574	11761.31
482.778	11904.67
482.983	12023.45
483.187	11835.04
483.391	12000.93
483.595	11873.95
483.8	11876
484.004	11978.4
484.208	12066.46
484.412	11781.79
484.616	12041.89
484.821	11830.94
485.025	11556.52
485.229	11937.44
485.433	11861.66
485.637	12011.17
485.841	11734.69
486.045	11800.23
486.249	11642.53
486.453	11716.26
486.657	11767.46
486.861	11810.47
487.065	11593.38
487.269	11650.72
487.473	11542.18
487.677	11787.94
487.881	11994.78
488.085	11802.27
488.289	11951.77
488.493	11693.73
488.697	11818.66
488.901	11751.07
489.105	11878.05
489.309	11986.59
489.512	12084.89
489.716	11943.58
489.92	12002.97
490.124	12002.97
490.328	12172.96
490.531	12041.89
490.735	12121.76
490.939	12119.71
491.143	11861.66
491.346	12072.61
491.55	12459.67
491.754	12195.48
491.958	12447.38
492.161	12322.46
492.365	12347.03
492.569	12287.64
492.772	12488.34
492.976	12541.59
493.18	12613.27
493.383	12791.44
493.587	12711.57
493.79	12781.2
493.994	12756.63
494.197	12711.57
494.401	13084.3
494.605	13121.17
494.808	13274.76
495.012	13465.22
495.215	13360.78
495.419	13627.01
495.622	13461.13
495.825	13776.52
496.029	13768.32
496.232	13833.86
496.436	13942.4
496.639	14145.15
496.843	13979.26
497.046	14487.16
497.249	14442.1
497.453	14669.43
497.656	14915.19
497.859	14806.64
498.063	15048.3
498.266	15384.17
498.469	15335.02
498.673	15285.87
498.876	15558.25
499.079	15730.28
499.282	15586.92
499.485	16049.76
499.689	16414.3
499.892	16610.9
500.095	16293.47
500.298	16850.52
500.501	16717.4
500.705	17200.72
500.908	17399.37
501.111	17305.17
501.314	17546.83
501.517	17954.37
501.72	18126.4
501.923	17806.92
502.126	18527.8
502.329	18538.04
502.532	18904.63
502.735	18875.96
502.938	19490.35
503.141	19439.15
503.344	19678.76
503.547	19547.69
503.75	19787.3
503.953	20200.99
504.156	20227.62
504.359	20543
504.562	20610.59
504.765	20850.2
504.968	21130.77
505.17	21431.82
505.373	21683.72
505.576	21757.45
505.779	22158.85
505.982	22099.46
506.185	22801.91
506.387	22490.62
506.59	22883.83
506.793	23297.52
506.996	23180.79
507.198	23934.44
507.401	23811.56
507.604	24065.51
507.807	24329.7
508.009	24640.99
508.212	24387.04
508.415	24974.81
508.617	25056.73
508.82	25423.31
509.022	25779.66
509.225	26224.07
509.428	26545.6
509.63	26336.71
509.833	26586.56
510.035	27194.81
510.238	26897.85
510.44	27481.52
510.643	27641.26
510.845	27839.92
511.048	27678.13
511.25	28136.87
511.453	28319.14
511.655	29210.01
511.858	29107.61
512.06	29412.76
512.262	29797.77
512.465	30010.76
512.667	30254.47
512.87	30363.01
513.072	30702.98
513.274	30987.64
513.477	31333.75
513.679	31575.41
513.881	31647.09
514.084	32165.23
514.286	32126.32
514.488	32752.99
514.69	33162.59
514.893	33342.81
515.095	33197.4
515.297	33541.46
515.499	34205
515.701	33748.31
515.904	34506.05
516.106	34565.45
516.308	34856.26
516.51	35345.72
516.712	35487.03
516.914	35804.47
517.116	36404.52
517.318	36435.24
517.52	36533.54
517.722	36750.63
517.925	36973.86
518.127	37657.88
518.329	37850.39
518.531	37674.26
518.733	38479.11
518.935	38905.09
519.136	38712.58
519.338	39243.01
519.54	39175.42
519.742	39765.24
519.944	39705.85
520.146	40635.63
520.348	40479.98
520.55	40856.81
520.752	40766.7
520.954	41870.55
521.155	41047.27
521.357	41766.1
521.559	42192.08
521.761	42636.49
521.963	42374.35
522.164	42906.82
522.366	42497.23
522.568	43285.7
522.77	43691.19
522.971	44256.43
523.173	43668.67
523.375	44317.87
523.576	44344.5
523.778	44598.44
523.98	44725.42
524.181	45100.2
524.383	44985.51
524.584	45481.12
524.786	45569.18
524.988	45378.72
525.189	45972.63
525.391	46533.78
525.592	46314.64
525.794	46515.34
525.995	46531.73
526.197	46427.28
526.398	47387.78
526.6	46945.42
526.801	47078.53
527.003	47312
527.204	47322.24
527.406	47539.33
527.607	47670.4
527.808	47901.82
528.01	47230.08
528.211	47850.62
528.412	48634.99
528.614	48381.04
528.815	48696.43
529.016	49065.06
529.218	48008.31
529.419	48678
529.62	48465.01
529.822	48624.75
530.023	48890.99
530.224	48747.63
530.425	48655.47
530.626	48725.1
530.828	48721.01
531.029	49392.74
531.23	49071.21
531.431	49069.16
531.632	49353.83
531.833	49464.42
532.035	49284.2
532.236	49149.03
532.437	49507.43
532.638	49120.36
532.839	50220.12
533.04	49949.79
533.241	49083.5
533.442	50146.39
533.643	49540.19
533.844	49390.69
534.045	49800.29
534.246	48792.68
534.447	49652.83
534.648	49521.76
534.849	49712.22
535.05	49241.19
535.251	49646.69
535.451	49495.14
535.652	49564.77
535.853	49521.76
536.054	50097.24
536.255	49970.27
536.456	49536.1
536.657	49718.37
536.857	49540.19
537.058	49523.81
537.259	49462.37
537.46	49982.55
537.66	49783.9
537.861	49695.84
538.062	49597.54
538.263	49728.61
538.463	49390.69
538.664	49753.18
538.865	49503.33
539.065	49376.36
539.266	49038.44
539.466	49607.78
539.667	48817.26
539.868	50297.94
540.068	49554.53
540.269	49214.57
540.469	49515.62
540.67	49327.2
540.87	49265.77
541.071	49400.93
541.271	49362.02
541.472	49437.79
541.672	49247.33
541.873	48989.29
542.073	49110.12
542.274	49402.98
542.474	49118.31
542.675	48673.9
542.875	49445.99
543.075	48938.09
543.276	48569.46
543.476	49359.97
543.676	48903.28
543.877	49409.12
544.077	49261.67
544.277	49095.78
544.478	48823.4
544.678	49138.79
544.878	48766.06
545.078	49085.54
545.279	48936.04
545.479	48948.33
545.679	49185.89
545.879	48647.28
546.079	48622.7
546.28	48780.4
546.48	48174.2
546.68	49020.01
546.88	49054.82
547.08	48991.34
547.28	48753.77
547.48	48284.79
547.68	48927.85
547.88	48696.43
548.081	48979.05
548.281	48909.42
548.481	48811.12
548.681	48940.14
548.881	48440.43
549.081	48903.28
549.28	48407.67
549.48	49089.64
549.68	48399.47
549.88	49095.78
550.08	48272.5
550.28	48661.61
550.48	48704.62
550.68	48890.99
550.88	48084.09
551.08	48239.73
551.279	48974.95
551.479	48180.34
551.679	48442.48
551.879	48295.03
552.079	48385.14
552.278	47856.76
552.478	48749.68
552.678	48319.6
552.878	48792.68
553.077	48385.14
553.277	47924.35
553.477	48868.46
553.676	48262.26
553.876	48186.49
554.076	47940.73
554.275	47735.93
554.475	47463.55
554.674	48137.33
554.874	48237.69
555.074	47674.49
555.273	48579.7
555.473	48335.99
555.672	47547.52
555.872	47594.62
556.071	47500.42
556.271	48043.13
556.47	47893.63
556.67	47473.79
556.869	47615.1
557.068	48104.57
557.268	47393.92
557.467	47436.93
557.667	47086.73
557.866	47037.58
558.065	47531.14
558.265	47443.07
558.464	47123.59
558.663	47850.62
558.863	47342.72
559.062	47963.26
559.261	47252.61
559.461	47367.3
559.66	46789.77
559.859	47074.44
560.058	46783.63
560.258	46863.5
560.457	46595.21
560.656	46800.01
560.855	46709.9
561.054	46877.83
561.253	46236.82
561.453	46785.68
561.652	46630.03
561.851	46992.52
562.05	46130.33
562.249	46251.16
562.448	46939.27
562.647	46599.31
562.846	46025.88
563.045	46580.88
563.244	45776.03
563.443	46623.89
563.642	45649.05
563.841	45943.96
564.04	45958.3
564.239	46101.65
564.438	45577.37
564.637	46068.89
564.836	45679.77
565.035	45231.27
565.234	45984.92
565.432	45749.4
565.631	45526.17
565.83	45558.94
566.029	45233.32
566.228	45450.4
566.427	44799.15
566.625	44715.18
566.824	44793
567.023	45122.72
567.222	44453.04
567.42	45149.35
567.619	44438.7
567.818	44676.27
568.016	44455.09
568.215	44375.22
568.414	44534.96
568.612	44860.58
568.811	44289.2
569.01	44344.5
569.208	43482.3
569.407	43990.2
569.605	43916.47
569.804	44403.89
570.002	43543.74
570.201	44272.82
570.4	43746.49
570.598	43740.35
570.797	43613.37
570.995	43455.68
571.193	42962.12
571.392	43875.51
571.59	43013.32
571.789	43232.45
571.987	42955.97
572.186	42810.57
572.384	42839.24
572.582	43076.8
572.781	42953.93
572.979	42587.34
573.177	42681.55
573.376	42988.74
573.574	42421.45
573.772	42765.51
573.971	42183.89
574.169	42110.16
574.367	41745.62
574.565	42153.17
574.763	42038.48
574.962	41888.98
575.16	41757.91
575.358	41911.51
575.556	41288.93
575.754	41727.19
575.952	41141.47
576.151	41663.71
576.349	41075.94
576.547	41209.06
576.745	41166.05
576.943	41061.6
577.141	40944.87
577.339	41209.06
577.537	40649.96
577.735	41030.88
577.933	40342.77
578.131	40504.56
578.329	40557.8
578.527	40295.66
578.725	40471.79
578.923	40660.2
579.121	40381.68
579.319	39986.42
579.516	40103.15
579.714	39683.32
579.912	39953.65
580.11	39906.55
580.308	39623.93
580.506	39589.11
580.704	39038.21
580.901	39630.07
581.099	39568.63
581.297	39261.44
581.495	38866.18
581.692	38982.91
581.89	38806.79
582.088	39030.02
582.285	38790.41
582.483	39085.31
582.681	38874.37
582.878	38407.44
583.076	37985.55
583.274	38819.08
583.471	38051.09
583.669	38372.62
583.866	38096.14
584.064	38157.58
584.262	37582.1
584.459	38184.21
584.657	37680.41
584.854	38046.99
585.052	37504.28
585.249	37737.75
585.447	37494.04
585.644	36674.85
585.841	37647.64
586.039	37692.69
586.236	36859.17
586.434	37133.6
586.631	36748.58
586.828	37115.17
587.026	36932.9
587.223	36594.98
587.42	36381.99
587.618	36605.22
587.815	35913.01
588.012	36468.01
588.21	36287.79
588.407	36535.59
588.604	35870
588.801	35654.97
588.999	35704.12
589.196	35956.02
589.393	35652.92
589.59	35654.97
589.787	35472.7
589.984	35278.14
590.182	35126.59
590.379	35261.76
590.576	35155.26
590.773	34975.04
590.97	34809.15
591.167	34874.69
591.364	34301.26
591.561	34813.25
591.758	34299.21
591.955	34737.48
592.152	34395.46
592.349	34080.08
592.546	34291.02
592.743	34417.99
592.94	33699.16
593.137	33854.8
593.334	33768.79
593.531	33367.38
593.727	33875.28
593.924	33654.1
594.121	33316.18
594.318	33414.49
594.515	32871.78
594.712	33547.61
594.908	33148.25
595.105	33541.46
595.302	33017.18
595.499	33076.57
595.696	32828.77
595.892	32415.08
596.089	32595.3
596.286	32861.54
596.482	32562.53
596.679	32214.38
596.876	32302.44
597.072	32259.43
597.269	32355.69
597.466	31855.98
597.662	31659.38
597.859	31735.15
598.055	31735.15
598.252	31341.94
598.448	31604.08
598.645	31294.84
598.841	31313.27
599.038	31540.6
599.234	31282.55
599.431	30801.28
599.627	31073.66
599.824	31223.16
600.02	30856.57
600.217	30854.53
600.413	30952.83
600.609	30588.29
600.806	30422.41
601.002	30381.45
601.198	30188.94
601.395	30193.03
601.591	29992.33
601.787	30430.6
601.984	29945.23
602.18	30188.94
602.376	29789.58
602.572	29715.86
602.769	29867.41
602.965	29341.08
603.161	29762.96
603.357	29111.71
603.553	29158.81
603.75	29539.73
603.946	29072.79
604.142	29369.75
604.338	28720.54
604.534	28921.24
604.73	28669.34
604.926	28704.16
605.122	28804.51
605.318	28462.5
605.514	28468.64
605.71	28288.42
605.906	28319.14
606.102	28466.59
606.298	28179.88
606.494	28028.33
606.69	28302.76
606.886	28278.18
607.082	27741.61
607.278	27909.55
607.474	27528.63
607.67	28028.33
607.866	27444.66
608.062	27964.84
608.257	27473.33
608.453	27811.24
608.649	27653.55
608.845	27276.73
609.041	27338.16
609.236	27407.8
609.432	27051.45
609.628	27055.54
609.824	27121.08
610.019	27209.14
610.215	27159.99
610.411	26932.67
610.606	26867.13
610.802	27209.14
610.998	26627.52
611.193	27055.54
611.389	26740.16
611.584	26643.9
611.78	26703.29
611.976	26725.82
612.171	26475.97
612.367	26359.24
612.562	26043.85
612.758	26183.11
612.953	26088.9
613.149	26398.15
613.344	25906.63
613.539	26496.45
613.735	26049.99
613.93	25945.55
614.126	25978.31
614.321	25994.7
614.517	26123.72
614.712	25605.58
614.907	25898.44
615.103	25710.03
615.298	25789.9
615.493	25984.46
615.688	25531.86
615.884	25804.24
616.079	25230.8
616.274	25820.62
616.47	25402.83
616.665	25632.21
616.86	25269.72
617.055	25249.24
617.25	25290.2
617.445	25456.08
617.641	24792.54
617.836	25204.18
618.031	24741.34
618.226	24987.1
618.421	24737.24
618.616	25015.77
618.811	24301.03
619.006	24790.49
619.201	24524.26
619.396	24391.14
619.591	24231.4
619.786	24186.34
619.981	23891.43
620.176	24098.28
620.371	23602.67
620.566	23860.71
620.761	23582.19
620.956	23809.51
621.151	23477.74
621.346	23449.07
621.541	23166.45
621.735	23305.71
621.93	23016.95
622.125	23152.12
622.32	22965.75
622.515	22842.87
622.709	22738.43
622.904	22654.46
623.099	22371.84
623.294	22646.27
623.488	22015.49
623.683	22248.96
623.878	21650.95
624.072	22175.23
624.267	21859.85
624.462	21923.33
624.656	21358.1
624.851	21530.12
625.046	21437.97
625.24	21106.2
625.435	21075.48
625.629	21272.08
625.824	20837.91
626.018	20813.34
626.213	20590.11
626.407	20418.08
626.602	20182.56
626.796	20698.65
626.991	20284.96
627.185	20272.67
627.38	20182.56
627.574	20020.77
627.768	19625.51
627.963	19590.7
628.157	19482.16
628.352	19779.11
628.546	19256.88
628.74	19732.01
628.935	19062.32
629.129	19353.13
629.323	18935.35
629.517	19011.12
629.712	18693.69
629.906	18587.19
630.1	18540.09
630.294	18529.85
630.489	18378.3
630.683	18388.54
630.877	18271.81
631.071	18009.67
631.265	18228.8
631.459	17921.6
631.653	17768.01
631.848	17778.25
632.042	17645.13
632.236	17772.1
632.43	17536.59
632.624	17675.85
632.818	17131.09
633.012	17294.93
633.206	17147.47
633.4	16987.73
633.594	16774.74
633.788	17049.17
633.982	16694.87
634.176	16758.36
634.369	16590.42
634.563	16580.18
634.757	16629.34
634.951	16578.14
635.145	16559.7
635.339	16281.18
635.533	16184.93
635.726	16336.48
635.92	15959.65
636.114	16367.2
636.308	16068.19
636.501	15701.61
636.695	16115.3
636.889	15629.93
637.083	15580.78
637.276	15378.03
637.47	15175.28
637.664	15206
637.857	15210.09
638.051	15371.88
638.244	15238.76
638.438	14888.56
638.632	14931.57
638.825	14986.86
639.019	14753.4
639.212	14730.87
639.406	14851.7
639.599	14595.7
639.793	14556.79
639.986	14333.56
640.18	14308.99
640.373	14403.19
640.567	13934.21
640.76	14116.48
640.954	14098.05
641.147	13934.21
641.34	13899.39
641.534	13698.69
641.727	13923.97
641.92	13592.2
642.114	13749.89
642.307	13620.87
642.5	13448.84
642.694	13430.41
642.887	13233.8
643.08	13485.7
643.273	13289.1
643.467	13229.71
643.66	13131.4
643.853	12918.42
644.046	12740.24
644.239	12762.77
644.432	12754.58
644.626	12826.26
644.819	12641.94
645.012	12578.45
645.205	12801.68
645.398	12482.2
645.591	12435.1
645.784	12494.49
645.977	12269.21
646.17	12277.4
646.363	12170.91
646.556	12099.23
646.749	12132
646.942	12320.41
647.135	11974.3
647.328	11802.27
647.521	11855.52
647.714	11685.54
647.907	11611.81
648.099	11591.33
648.292	11679.4
648.485	11638.44
648.678	11517.61
648.871	11533.99
649.064	11380.39
649.256	11609.76
649.449	11067.05
649.642	11079.34
649.835	11001.52
650.027	11194.03
650.22	10833.58
650.413	10821.3
650.605	10987.18
650.798	10755.76
650.991	10483.38
651.183	10802.86
651.376	10639.03
651.568	10610.36
651.761	10618.55
651.954	10510
652.146	10391.22
652.339	10325.69
652.531	10337.98
652.724	10352.31
652.916	10124.99
653.109	10186.43
653.301	10172.09
653.494	10239.67
653.686	9877.18
653.879	10096.32
654.071	9893.57
654.263	9873.09
654.456	9825.98
654.648	10051.26
654.84	9541.32
655.033	9574.08
655.225	9760.45
655.417	9541.32
655.61	9520.84
655.802	9459.4
655.994	9465.54
656.186	9426.63
656.379	9273.03
656.571	9270.98
656.763	9168.59
656.955	9131.72
657.148	9279.18
657.34	9275.08
657.532	8963.79
657.724	8961.74
657.916	8943.31
658.108	8818.38
658.3	8806.09
658.492	8888.01
658.684	8795.86
658.876	8783.57
659.068	8771.28
659.26	8703.7
659.452	8646.35
659.644	8566.48
659.836	8519.38
660.028	8591.06
660.22	8369.88
660.412	8492.76
660.604	8265.43
660.796	8253.14
660.988	8306.39
661.18	8056.54
661.372	8142.55
661.563	8103.64
661.755	7935.71
661.947	8050.39
662.139	7911.13
662.331	7927.52
662.522	7837.41
662.714	7741.15
662.906	7841.5
663.097	7921.37
663.289	7671.52
663.481	7591.65
663.673	7624.42
663.864	7548.64
664.056	7644.9
664.247	7644.9
664.439	7460.58
664.631	7444.2
664.822	7651.04
665.014	7558.88
665.205	7198.44
665.397	7306.98
665.588	7321.32
665.78	7206.63
665.971	7149.29
666.163	7331.56
666.354	7175.91
666.546	7134.95
666.737	7149.29
666.929	7106.28
667.12	7036.65
667.311	7255.78
667.503	6899.44
667.694	6989.55
667.885	6946.54
668.077	6917.87
668.268	6598.38
668.459	6772.46
668.651	6715.12
668.842	6694.64
669.033	6672.11
669.224	6776.56
669.416	6649.58
669.607	6622.96
669.798	6455.03
669.989	6637.3
670.18	6563.57
670.371	6465.27
670.563	6487.79
670.754	6397.68
670.945	6391.54
671.136	6340.34
671.327	6315.76
671.518	6420.21
671.709	6289.14
671.9	6473.46
672.091	6311.67
672.282	6158.07
672.473	6184.69
672.664	6147.83
672.855	6211.32
673.046	6133.5
673.237	6153.98
673.428	5949.18
673.619	6057.72
673.809	6037.24
674	6051.58
674.191	6059.77
674.382	5887.74
674.573	5887.74
674.764	5889.79
674.954	5818.11
675.145	5797.63
675.336	5836.54
675.527	5807.87
675.717	5736.19
675.908	5560.06
676.099	5644.03
676.289	5693.18
676.48	5730.05
676.671	5693.18
676.861	5613.31
677.052	5611.26
677.243	5502.72
677.433	5371.65
677.624	5609.22
677.814	5609.22
678.005	5402.37
678.195	5361.41
678.386	5371.65
678.576	5472
678.767	5584.64
678.957	5412.61
679.148	5451.52
679.338	5252.87
679.529	5363.46
679.719	5299.97
679.909	5347.08
680.1	5342.98
680.29	5351.17
680.481	5228.29
680.671	5269.25
680.861	5134.09
681.052	5115.66
681.242	5242.63
681.432	5177.09
681.622	5181.19
681.813	5220.1
682.003	5248.77
682.193	5068.55
682.383	5058.31
682.573	5162.76
682.764	5101.32
682.954	5043.98
683.144	5050.12
683.334	5046.02
683.524	4970.25
683.714	5027.59
683.904	4859.66
684.094	5025.54
684.284	4802.32
684.474	5011.21
684.664	4986.63
684.854	5011.21
685.044	4951.82
685.234	4851.47
685.424	4661.01
685.614	4794.12
685.804	4792.08
685.994	4820.75
686.184	4679.44
686.374	4689.68
686.564	4824.84
686.753	4749.07
686.943	4622.09
687.133	4740.88
687.323	4581.14
687.513	4527.89
687.702	4613.9
687.892	4421.39
688.082	4544.27
688.272	4570.9
688.461	4593.42
688.651	4394.77
688.841	4394.77
689.03	4417.3
689.22	4407.06
689.41	4478.74
689.599	4290.32
689.789	4482.83
689.979	4454.16
690.168	4388.63
690.358	4386.58
690.547	4232.98
690.737	4187.93
690.926	4359.95
691.116	4183.83
691.305	4249.36
691.495	4126.49
691.684	4159.25
691.874	4085.53
692.063	4159.25
692.252	3991.32
692.442	4075.29
692.631	3942.17
692.82	3888.92
693.01	3946.27
693.199	4036.38
693.388	4013.85
693.578	3970.84
693.767	3931.93
693.956	4015.9
694.146	3852.06
694.335	3870.49
694.524	4099.86
694.713	3833.63
694.902	3884.83
695.092	3821.34
695.281	3880.73
695.47	3903.26
695.659	3716.89
695.848	3725.08
696.037	3833.63
696.226	3798.81
696.415	3866.39
696.604	3780.38
696.793	3778.33
696.982	3634.97
697.171	3696.41
697.36	3645.21
697.549	3610.4
697.738	3667.74
697.927	3659.55
698.116	3456.8
698.305	3534.62
698.494	3610.4
698.683	3553.06
698.872	3561.25
699.061	3677.98
699.25	3686.17
699.438	3612.45
699.627	3489.57
699.816	3634.97
700.005	3553.06
700.193	3643.17
700.382	3548.96
700.571	3540.77
700.76	3563.29
700.948	3561.25
701.137	3430.18
701.326	3356.45
701.514	3458.85
701.703	3436.32
701.892	3342.11
702.08	3555.1
702.269	3448.61
702.457	3454.75
702.646	3479.33
702.834	3520.29
703.023	3473.18
703.212	3450.66
703.4	3432.22
703.589	3249.96
703.777	3331.87
703.965	3262.24
704.154	3430.18
704.342	3338.02
704.531	3389.22
704.719	3231.52
704.907	3309.35
705.096	3202.85
705.284	3264.29
705.472	3188.52
705.661	3176.23
705.849	3254.05
706.037	3258.15
706.226	3227.43
706.414	3206.95
706.602	3225.38
706.79	3270.44
706.979	3299.11
707.167	3249.96
707.355	3225.38
707.543	3219.24
707.731	3147.56
707.919	3036.97
708.107	3082.02
708.296	3075.88
708.484	3112.74
708.672	3165.99
708.86	3133.22
709.048	3194.66
709.236	3143.46
709.424	3174.18
709.612	3090.21
709.8	3100.45
709.988	3028.78
710.176	3153.7
710.364	3153.7
710.551	3069.73
710.739	3149.61
710.927	3026.73
711.115	3127.08
711.303	2973.48
711.491	3061.54
711.679	2955.05
711.866	3036.97
712.054	2914.09
712.242	2971.43
712.43	3055.4
712.617	2989.86
712.805	2936.62
712.993	3020.58
713.181	2940.71
713.368	3008.3
713.556	2889.51
713.744	2871.08
713.931	3151.65
714.119	2996.01
714.306	2907.94
714.494	2860.84
714.682	2844.46
714.869	2891.56
715.057	2897.71
715.244	2850.6
715.432	2809.64
715.619	2834.22
715.807	2924.33
715.994	2848.55
716.182	2873.13
716.369	2920.23
716.556	2907.94
716.744	2881.32
716.931	2748.2
717.119	2823.98
717.306	2948.9
717.493	2897.71
717.681	2826.03
717.868	2817.83
718.055	2709.29
718.242	2866.99
718.43	2744.11
718.617	2760.49
718.804	2866.99
718.991	2760.49
719.179	2793.26
719.366	2754.35
719.553	2748.2
719.74	2807.59
719.927	2776.87
720.114	2785.07
720.301	2787.11
720.488	2709.29
720.676	2656.04
720.863	2615.09
721.05	2823.98
721.237	2862.89
721.424	2664.24
721.611	2703.15
721.798	2678.57
721.985	2752.3
722.172	2637.61
722.358	2719.53
722.545	2680.62
722.732	2613.04
722.919	2737.96
723.106	2801.45
723.293	2606.89
723.48	2656.04
723.667	2705.2
723.853	2631.47
724.04	2619.18
724.227	2705.2
724.414	2699.05
724.6	2699.05
724.787	2764.59
724.974	2545.45
725.161	2635.57
725.347	2600.75
725.534	2602.8
725.72	2580.27
725.907	2682.67
726.094	2594.61
726.28	2610.99
726.467	2610.99
726.653	2656.04
726.84	2570.03
727.027	2580.27
727.213	2471.73
727.4	2639.66
727.586	2662.19
727.773	2516.78
727.959	2619.18
728.145	2490.16
728.332	2518.83
728.518	2522.93
728.705	2518.83
728.891	2537.26
729.077	2504.5
729.264	2488.11
729.45	2619.18
729.636	2580.27
729.823	2533.17
730.009	2461.49
730.195	2529.07
730.382	2567.98
730.568	2541.36
730.754	2524.97
730.94	2430.77
731.126	2443.06
731.313	2582.32
731.499	2408.24
731.685	2516.78
731.871	2504.5
732.057	2508.59
732.243	2512.69
732.429	2457.39
732.615	2520.88
732.801	2490.16
732.987	2475.82
733.173	2447.15
733.359	2438.96
733.545	2445.1
733.731	2424.62
733.917	2455.34
734.103	2512.69
734.289	2537.26
734.475	2447.15
734.661	2510.64
734.847	2443.06
735.033	2484.02
735.219	2488.11
735.404	2471.73
735.59	2504.5
735.776	2275.12
735.962	2342.71
736.148	2441.01
736.333	2385.71
736.519	2391.86
736.705	2367.28
736.89	2271.03
737.076	2316.08
737.262	2367.28
737.447	2389.81
737.633	2389.81
737.819	2285.36
738.004	2342.71
738.19	2303.79
738.375	2332.47
738.561	2447.15
738.747	2383.66
738.932	2359.09
739.118	2400.05
739.303	2291.51
739.489	2242.36
739.674	2236.21
739.859	2180.92
740.045	2250.55
740.23	2271.03
740.416	2197.3
740.601	2328.37
740.786	2215.73
740.972	2209.59
741.157	2144.05
741.342	2105.14
741.528	2156.34
741.713	2199.35
741.898	2193.2
742.084	2185.01
742.269	2139.96
742.454	2135.86
742.639	2178.87
742.824	2201.4
743.01	2115.38
743.195	2162.48
743.38	2062.13
743.565	2082.61
743.75	2074.42
743.935	2074.42
744.12	2123.57
744.305	2062.13
744.49	2031.41
744.675	2127.67
744.86	2029.37
745.045	2029.37
745.23	1898.3
745.415	2121.52
745.6	2023.22
745.785	2004.79
745.97	1959.74
746.155	2047.8
746.34	2031.41
746.525	1955.64
746.71	2047.8
746.895	1914.68
747.079	1869.62
747.264	1982.26
747.449	1929.02
747.634	1859.38
747.819	1955.64
748.003	1869.62
748.188	1849.15
748.373	1867.58
748.557	1840.95
748.742	1720.12
748.927	1808.19
749.111	1736.51
749.296	1830.71
749.481	1775.42
749.665	1703.74
749.85	1580.86
750.034	1769.27
750.219	1775.42
750.404	1697.6
750.588	1781.56
750.773	1623.87
750.957	1544
751.141	1636.16
751.326	1718.08
751.51	1638.2
751.695	1580.86
751.879	1644.35
752.064	1656.64
752.248	1509.18
752.432	1642.3
752.617	1511.23
752.801	1578.81
752.985	1496.89
753.17	1496.89
753.354	1541.95
753.538	1482.56
753.722	1574.72
753.907	1500.99
754.091	1431.36
754.275	1462.08
754.459	1374.02
754.643	1529.66
754.828	1378.11
755.012	1431.36
755.196	1435.46
755.38	1435.46
755.564	1386.3
755.748	1384.26
755.932	1449.79
756.116	1322.82
756.3	1406.78
756.484	1316.67
756.668	1365.82
756.852	1290.05
757.036	1410.88
757.22	1247.04
757.404	1320.77
757.588	1316.67
757.772	1302.34
757.956	1267.52
758.14	1292.1
758.323	1199.94
758.507	1279.81
758.691	1140.55
758.875	1226.56
759.059	1285.95
759.242	1320.77
759.426	1232.71
759.61	1267.52
759.794	1167.17
759.977	1169.22
760.161	1259.33
760.345	1146.69
760.528	1183.56
760.712	1234.75
760.895	1171.27
761.079	1097.54
761.263	1218.37
761.446	1111.88
761.63	1154.88
761.813	1156.93
761.997	1083.2
762.18	1214.27
762.364	1111.88
762.547	1115.97
762.731	1113.92
762.914	1036.1
763.098	1189.7
763.281	1083.2
763.464	939.85
763.648	1052.49
763.831	968.52
764.015	1089.35
764.198	1062.73
764.381	1036.1
764.564	1144.64
764.748	1075.01
764.931	1044.29
765.114	943.94
765.297	1044.29
765.481	1011.53
765.664	952.13
765.847	1072.96
766.03	1062.73
766.213	952.13
766.397	1009.48
766.58	884.55
766.763	999.24
766.946	960.33
767.129	1021.77
767.312	972.61
767.495	929.61
767.678	960.33
767.861	1025.86
768.044	894.79
768.227	921.42
768.41	915.27
768.593	915.27
768.776	935.75
768.959	923.46
769.142	902.98
769.324	939.85
769.507	907.08
769.69	851.78
769.873	888.65
770.056	866.12
770.239	857.93
770.421	933.7
770.604	982.85
770.787	874.31
770.97	923.46
771.152	800.59
771.335	874.31
771.518	837.45
771.7	898.89
771.883	855.88
772.066	857.93
772.248	862.02
772.431	776.01
772.613	827.21
772.796	876.36
772.978	823.11
773.161	866.12
773.343	778.06
773.526	886.6
773.708	780.11
773.891	794.44
774.073	778.06
774.256	646.99
774.438	847.69
774.621	843.59
774.803	751.43
774.985	800.59
775.168	755.53
775.35	696.14
775.532	778.06
775.715	735.05
775.897	800.59
776.079	640.84
776.261	755.53
776.444	841.54
776.626	704.33
776.808	702.28
776.99	630.6
777.173	673.61
777.355	737.1
777.537	702.28
777.719	671.56
777.901	677.71
778.083	659.28
778.265	620.36
778.447	663.37
778.629	599.88
778.811	644.94
778.993	665.42
779.175	655.18
779.357	577.36
779.539	649.04
779.721	636.75
779.903	624.46
780.085	575.31
780.267	608.08
780.449	669.52
780.631	624.46
780.812	550.73
780.994	567.12
781.176	540.49
781.358	509.77
781.54	526.16
781.721	515.92
781.903	489.29
782.085	505.68
782.267	546.64
782.448	472.91
782.63	542.54
782.812	522.06
782.993	507.73
783.175	599.88
783.357	427.85
783.538	522.06
783.72	575.31
783.901	538.45
784.083	542.54
784.264	481.1
784.446	501.58
784.627	499.53
784.809	485.2
784.99	372.56
785.172	403.28
785.353	354.13
785.535	477.01
785.716	446.29
785.897	438.09
786.079	413.52
786.26	474.96
786.441	450.38
786.623	378.7
786.804	464.72
786.985	477.01
787.167	470.86
787.348	442.19
787.529	405.33
787.71	423.76
787.891	343.89
788.073	458.57
788.254	354.13
788.435	513.87
788.616	423.76
788.797	378.7
788.978	440.14
789.159	485.2
789.34	368.46
789.522	405.33
789.703	366.42
789.884	440.14
790.065	390.99
790.246	403.28
790.427	350.03
790.607	382.8
790.788	456.53
790.969	339.79
791.15	366.42
791.331	372.56
791.512	239.44
791.693	331.6
791.874	434
792.054	413.52
792.235	384.85
792.416	304.98
792.597	292.69
792.778	288.59
792.958	302.93
793.139	372.56
793.32	278.35
793.5	296.78
793.681	325.46
793.862	259.92
794.042	272.21
794.223	255.83
794.404	259.92
794.584	319.31
794.765	300.88
794.945	284.5
795.126	350.03
795.306	390.99
795.487	261.97
795.667	278.35
795.848	292.69
796.028	288.59
796.209	247.63
796.389	311.12
796.57	309.07
796.75	257.87
796.93	239.44
797.111	235.35
797.291	278.35
797.471	304.98
797.652	284.5
797.832	261.97
798.012	261.97
798.192	337.74
798.373	276.31
798.553	288.59
798.733	221.01
798.913	223.06
799.093	300.88
799.274	229.2
799.454	261.97
799.634	325.46
799.814	313.17
799.994	212.82
800.174	284.5
800.354	270.16
800.534	235.35
800.714	268.11
800.894	313.17
801.074	245.59
801.254	251.73
801.434	331.6
801.614	245.59
801.794	180.05
801.974	796.49
802.154	284.5
802.334	304.98
802.514	137.04
802.693	227.15
802.873	192.34
803.053	212.82
803.233	247.63
803.413	257.87
803.592	307.02
803.772	245.59
803.952	216.91
804.131	161.62
804.311	161.62
804.491	204.63
804.67	161.62
804.85	210.77
805.03	270.16
805.209	218.96
805.389	149.33
805.568	235.35
805.748	223.06
805.928	200.53
806.107	178
806.287	214.87
806.466	268.11
806.646	132.95
806.825	122.71
807.004	128.85
807.184	196.43
807.363	116.56
807.543	190.29
807.722	153.43
807.901	206.67
808.081	161.62
808.26	171.86
808.439	257.87
808.619	163.67
808.798	206.67
808.977	235.35
809.156	200.53
809.336	235.35
809.515	272.21
809.694	130.9
809.873	132.95
810.052	137.04
810.231	249.68
810.411	167.76
810.59	155.47
810.769	106.32
810.948	161.62
811.127	175.95
811.306	128.85
811.485	210.77
811.664	212.82
811.843	89.94
812.022	182.1
812.201	130.9
812.38	155.47
812.559	116.56
812.737	153.43
812.916	130.9
813.095	208.72
813.274	180.05
813.453	175.95
813.632	139.09
813.811	178
813.989	124.76
814.168	132.95
814.347	139.09
814.526	104.28
814.704	91.99
814.883	178
815.062	104.28
815.24	188.24
815.419	83.8
815.598	141.14
815.776	141.14
815.955	149.33
816.133	151.38
816.312	139.09
816.49	102.23
816.669	161.62
816.847	130.9
817.026	122.71
817.204	106.32
817.383	169.81
817.561	155.47
817.74	149.33
817.918	165.71
818.097	83.8
818.275	120.66
818.453	163.67
818.632	167.76
818.81	161.62
818.988	110.42
819.167	194.39
819.345	202.58
819.523	186.19
819.701	108.37
819.879	114.52
820.058	163.67
820.236	106.32
820.414	104.28
820.592	81.75
820.77	61.27
820.948	81.75
821.127	120.66
821.305	104.28
821.483	171.86
821.661	180.05
821.839	98.13
822.017	51.03
822.195	128.85
822.373	153.43
822.551	69.46
822.729	73.56
822.907	130.9
823.085	98.13
823.262	79.7
823.44	128.85
823.618	139.09
823.796	65.36
823.974	128.85
824.152	69.46
824.329	112.47
824.507	55.12
824.685	83.8
824.863	55.12
825.04	73.56
825.218	104.28
825.396	108.37
825.574	100.18
825.751	89.94
825.929	137.04
826.107	137.04
826.284	122.71
826.462	106.32
826.639	120.66
826.817	71.51
826.994	81.75
827.172	98.13
827.349	83.8
827.527	73.56
827.704	91.99
827.882	149.33
828.059	57.17
828.237	48.98
828.414	112.47
828.591	8.02
828.769	89.94
828.946	51.03
829.124	128.85
829.301	110.42
829.478	96.08
829.655	124.76
829.833	81.75
830.01	65.36
830.187	128.85
830.364	89.94
830.542	77.65
830.719	20.31
830.896	87.89
831.073	122.71
831.25	55.12
831.427	71.51
831.604	122.71
831.782	55.12
831.959	120.66
832.136	26.45
832.313	73.56
832.49	22.36
832.667	96.08
832.844	18.26
833.021	106.32
833.198	77.65
833.374	67.41
833.551	-0.17
833.728	12.12
833.905	73.56
834.082	38.74
834.259	69.46
834.436	130.9
834.612	57.17
834.789	83.8
834.966	-37.03
835.143	145.24
835.319	112.47
835.496	169.81
835.673	65.36
835.85	130.9
836.026	38.74
836.203	100.18
836.38	51.03
836.556	87.89
836.733	46.93
836.909	87.89
837.086	137.04
837.262	87.89
837.439	75.6
837.616	122.71
837.792	-0.17
837.968	22.36
838.145	1.88
838.321	55.12
838.498	-2.22
838.674	36.69
838.851	12.12
839.027	42.84
839.203	46.93
839.38	120.66
839.556	16.21
839.732	48.98
839.909	14.17
840.085	96.08
840.261	34.64
840.437	30.55
840.614	59.22
840.79	65.36
840.966	5.97
841.142	100.18
841.318	22.36
841.494	57.17
841.671	120.66
841.847	77.65
842.023	8.02
842.199	108.37
842.375	100.18
842.551	32.6
842.727	114.52
842.903	147.28
843.079	71.51
843.255	53.08
843.431	30.55
843.607	161.62
843.783	46.93
843.959	51.03
844.134	79.7
844.31	71.51
844.486	77.65
844.662	128.85
844.838	87.89
845.013	30.55
845.189	79.7
845.365	87.89
845.541	5.97
845.716	-18.6
845.892	114.52
846.068	71.51
846.244	46.93
846.419	75.6
846.595	-32.94
846.77	14.17
846.946	14.17
847.122	48.98
847.297	42.84
847.473	-6.31
847.648	-34.99
847.824	46.93
847.999	-4.27
848.175	-18.6
848.35	63.32
848.526	79.7
848.701	65.36
848.876	34.64
849.052	75.6
849.227	14.17
849.403	59.22
849.578	122.71
849.753	87.89
849.929	118.61
850.104	8.02
850.279	1.88
850.454	-8.36
850.63	61.27
850.805	40.79
850.98	55.12
851.155	34.64
851.33	46.93
851.505	24.4
851.681	132.95
851.856	65.36
852.031	83.8
852.206	24.4
852.381	-2.22
852.556	63.32
852.731	53.08
852.906	-16.55
853.081	63.32
853.256	55.12
853.431	14.17
853.606	28.5
853.781	-26.79
853.956	14.17
854.131	87.89
854.305	22.36
854.48	57.17
854.655	14.17
854.83	-24.75
855.005	73.56
855.18	28.5
855.354	14.17
855.529	63.32
855.704	26.45
855.879	32.6
856.053	10.07
856.228	8.02
856.403	24.4
856.577	-6.31
856.752	-2.22
856.926	46.93
857.101	48.98
857.276	16.21
857.45	55.12
857.625	42.84
857.799	5.97
857.974	53.08
858.148	12.12
858.323	71.51
858.497	104.28
858.672	55.12
858.846	-10.41
859.02	69.46
859.195	16.21
859.369	-16.55
859.543	18.26
859.718	75.6
859.892	46.93
860.066	51.03
860.241	-24.75
860.415	14.17
860.589	34.64
860.763	32.6
860.938	32.6
861.112	28.5
861.286	94.04
861.46	22.36
861.634	59.22
861.808	89.94
861.982	87.89
862.157	-26.79
862.331	-10.41
862.505	34.64
862.679	-32.94
862.853	53.08
863.027	42.84
863.201	98.13
863.375	-10.41
863.549	18.26
863.722	-12.46
863.896	22.36
864.07	1.88
864.244	22.36
864.418	18.26
864.592	40.79
864.766	22.36
864.939	71.51
865.113	40.79
865.287	128.85
865.461	10.07
865.634	38.74
865.808	5.97
865.982	48.98
866.156	-24.75
866.329	-34.99
866.503	57.17
866.676	34.64
866.85	108.37
867.024	73.56
867.197	38.74
867.371	57.17
867.544	79.7
867.718	5.97
867.891	-18.6
868.065	3.93
868.238	-18.6
868.412	24.4
868.585	79.7
868.759	-18.6
868.932	14.17
869.105	3.93
869.279	-37.03
869.452	14.17
869.625	73.56
869.799	34.64
869.972	-12.46
870.145	-51.37
870.319	48.98
870.492	-0.17
870.665	61.27
870.838	-26.79
871.011	-4.27
871.185	3.93
871.358	-30.89
871.531	46.93
871.704	-2.22
871.877	-14.51
872.05	5.97
872.223	32.6
872.396	-41.13
872.569	30.55
872.742	-55.47
872.915	36.69
873.088	-24.75
873.261	-0.17
873.434	26.45
873.607	-8.36
873.78	59.22
873.953	61.27
874.126	100.18
874.299	30.55
874.471	-94.38
874.644	-10.41
874.817	48.98
874.99	48.98
875.163	34.64
875.335	16.21
875.508	-2.22
875.681	67.41
875.853	-34.99
876.026	-28.84
876.199	16.21
876.371	87.89
876.544	24.4
876.717	-30.89
876.889	-26.79
877.062	-2.22
877.234	-28.84
877.407	5.97
877.579	-43.18
877.752	79.7
877.924	24.4
878.097	-2.22
878.269	53.08
878.442	30.55
878.614	20.31
878.786	-34.99
878.959	-2.22
879.131	36.69
879.303	24.4
879.476	44.88
879.648	-43.18
879.82	-20.65
879.993	22.36
880.165	14.17
880.337	-18.6
880.509	63.32
880.681	-10.41
880.854	75.6
881.026	40.79
881.198	38.74
881.37	42.84
881.542	-2.22
881.714	10.07
881.886	40.79
882.058	57.17
882.23	24.4
882.402	-0.17
882.574	-34.99
882.746	38.74
882.918	12.12
883.09	-22.7
883.262	-8.36
883.434	132.95
883.606	16.21
883.778	46.93
883.95	55.12
884.122	116.56
884.293	77.65
884.465	83.8
884.637	46.93
884.809	-6.31
884.98	44.88
885.152	75.6
885.324	22.36
885.496	5.97
885.667	5.97
885.839	-2.22
886.011	42.84
886.182	38.74
886.354	-2.22
886.525	-43.18
886.697	-2.22
886.869	59.22
887.04	38.74
887.212	-12.46
887.383	16.21
887.555	-61.61
887.726	16.21
887.897	-34.99
888.069	-4.27
888.24	-14.51
888.412	-18.6
888.583	-37.03
888.754	-8.36
888.926	5.97
889.097	57.17
889.268	-2.22
889.44	85.84
889.611	63.32
889.782	-22.7
889.953	-45.23
890.125	22.36
890.296	40.79
890.467	-67.75
890.638	-61.61
890.809	-4.27
890.98	20.31
891.151	3.93
891.323	5.97
891.494	-6.31
891.665	40.79
891.836	-34.99
892.007	-26.79
892.178	38.74
892.349	10.07
892.52	22.36
892.691	38.74
892.862	36.69
893.032	32.6
893.203	1.88
893.374	48.98
893.545	38.74
893.716	26.45
893.887	22.36
894.057	57.17
894.228	71.51
894.399	-6.31
894.57	89.94
894.74	10.07
894.911	22.36
895.082	3.93
895.253	34.64
895.423	24.4
895.594	8.02
895.764	30.55
895.935	10.07
896.106	-14.51
896.276	-2.22
896.447	-30.89
896.617	-0.17
896.788	36.69
896.958	32.6
897.129	-12.46
897.299	-30.89
897.47	30.55
897.64	30.55
897.81	-0.17
897.981	44.88
898.151	-30.89
898.322	38.74
898.492	5.97
898.662	16.21
898.832	10.07
899.003	5.97
899.173	5.97
899.343	67.41
899.513	14.17
