Data from USB4F104151__285__14-23-32-569.txt Node

Date: Thu Mar 13 14:23:32 EDT 2025
User: louis
Spectrometer: USB4F10415
Trigger mode: 4
Integration Time (sec): 2.000000E-2
Scans to average: 1
Electric dark correction enabled: true
Nonlinearity correction enabled: false
Boxcar width: 0
XAxis mode: Wavelengths
Number of Pixels in Spectrum: 3648
>>>>>Begin Spectral Data<<<<<
178.204	-73.04
178.424	-73.04
178.644	-73.04
178.864	-97.62
179.084	-40.28
179.304	-19.8
179.524	29.35
179.744	-101.72
179.964	33.45
180.184	4.78
180.404	-36.18
180.624	2.73
180.844	25.26
181.064	2.73
181.283	8.87
181.503	37.55
181.723	12.97
181.943	37.55
182.163	33.45
182.383	47.79
182.602	8.87
182.822	68.27
183.042	107.18
183.262	8.87
183.482	4.78
183.701	33.45
183.921	-15.7
184.141	35.5
184.361	66.22
184.58	-50.52
184.8	78.51
185.02	45.74
185.239	29.35
185.459	25.26
185.679	70.31
185.898	53.93
186.118	82.6
186.338	8.87
186.557	33.45
186.777	-1.37
186.997	-44.37
187.216	4.78
187.436	43.69
187.655	33.45
187.875	76.46
188.095	45.74
188.314	123.56
188.534	19.11
188.753	84.65
188.973	115.37
189.192	64.17
189.412	101.03
189.631	45.74
189.851	76.46
190.07	-5.46
190.29	23.21
190.509	17.07
190.729	74.41
190.948	37.55
191.168	191.14
191.387	70.31
191.607	45.74
191.826	39.59
192.045	-11.61
192.265	82.6
192.484	37.55
192.704	0.68
192.923	17.07
193.142	121.51
193.362	107.18
193.581	101.03
193.8	92.84
194.02	109.22
194.239	25.26
194.458	105.13
194.678	78.51
194.897	17.07
195.116	-5.46
195.335	33.45
195.555	37.55
195.774	0.68
195.993	94.89
196.212	2.73
196.432	19.11
196.651	47.79
196.87	12.97
197.089	88.75
197.308	58.03
197.528	92.84
197.747	64.17
197.966	68.27
198.185	86.7
198.404	74.41
198.623	82.6
198.842	84.65
199.062	72.36
199.281	80.55
199.5	51.88
199.719	47.79
199.938	10.92
200.157	45.74
200.376	84.65
200.595	80.55
200.814	72.36
201.033	-62.8
201.252	86.7
201.471	60.07
201.69	109.22
201.909	17.07
202.128	49.83
202.347	49.83
202.566	6.83
202.785	76.46
203.004	12.97
203.223	68.27
203.442	70.31
203.661	8.87
203.879	58.03
204.098	51.88
204.317	-5.46
204.536	33.45
204.755	68.27
204.974	49.83
205.193	94.89
205.411	27.31
205.63	58.03
205.849	2.73
206.068	33.45
206.287	-15.7
206.505	12.97
206.724	4.78
206.943	41.64
207.162	45.74
207.381	23.21
207.599	25.26
207.818	45.74
208.037	60.07
208.255	0.68
208.474	55.98
208.693	76.46
208.911	2.73
209.13	84.65
209.349	49.83
209.567	125.61
209.786	107.18
210.005	60.07
210.223	41.64
210.442	2.73
210.661	39.59
210.879	19.11
211.098	90.79
211.316	45.74
211.535	33.45
211.753	41.64
211.972	6.83
212.191	-7.51
212.409	107.18
212.628	82.6
212.846	39.59
213.065	103.08
213.283	80.55
213.502	-15.7
213.72	19.11
213.938	29.35
214.157	58.03
214.375	88.75
214.594	41.64
214.812	64.17
215.031	103.08
215.249	17.07
215.467	8.87
215.686	-3.41
215.904	60.07
216.122	2.73
216.341	94.89
216.559	62.12
216.778	41.64
216.996	107.18
217.214	21.16
217.432	-23.89
217.651	82.6
217.869	8.87
218.087	88.75
218.306	49.83
218.524	82.6
218.742	-19.8
218.96	41.64
219.179	21.16
219.397	90.79
219.615	58.03
219.833	76.46
220.051	27.31
220.27	70.31
220.488	74.41
220.706	41.64
220.924	-7.51
221.142	58.03
221.36	-11.61
221.578	19.11
221.796	90.79
222.015	90.79
222.233	49.83
222.451	23.21
222.669	47.79
222.887	90.79
223.105	88.75
223.323	53.93
223.541	70.31
223.759	84.65
223.977	49.83
224.195	74.41
224.413	82.6
224.631	86.7
224.849	-3.41
225.067	86.7
225.285	-32.08
225.503	58.03
225.721	-19.8
225.939	0.68
226.157	8.87
226.375	125.61
226.592	21.16
226.81	4.78
227.028	17.07
227.246	98.99
227.464	-23.89
227.682	76.46
227.9	41.64
228.117	84.65
228.335	94.89
228.553	76.46
228.771	103.08
228.989	94.89
229.206	41.64
229.424	74.41
229.642	-7.51
229.86	19.11
230.077	45.74
230.295	25.26
230.513	58.03
230.731	58.03
230.948	72.36
231.166	39.59
231.384	103.08
231.601	21.16
231.819	35.5
232.037	78.51
232.254	-19.8
232.472	68.27
232.689	43.69
232.907	10.92
233.125	80.55
233.342	86.7
233.56	25.26
233.777	90.79
233.995	94.89
234.213	74.41
234.43	12.97
234.648	60.07
234.865	25.26
235.083	33.45
235.3	154.28
235.518	92.84
235.735	45.74
235.953	96.94
236.17	105.13
236.388	33.45
236.605	41.64
236.822	76.46
237.04	84.65
237.257	-11.61
237.475	111.27
237.692	103.08
237.909	68.27
238.127	-1.37
238.344	23.21
238.562	17.07
238.779	45.74
238.996	111.27
239.214	115.37
239.431	109.22
239.648	-21.85
239.865	43.69
240.083	37.55
240.3	-44.37
240.517	31.4
240.735	35.5
240.952	62.12
241.169	58.03
241.386	-3.41
241.603	86.7
241.821	35.5
242.038	94.89
242.255	39.59
242.472	45.74
242.689	47.79
242.907	82.6
243.124	68.27
243.341	117.42
243.558	33.45
243.775	-11.61
243.992	107.18
244.209	33.45
244.426	90.79
244.643	47.79
244.86	17.07
245.078	127.66
245.295	139.94
245.512	62.12
245.729	-7.51
245.946	84.65
246.163	-5.46
246.38	41.64
246.597	45.74
246.814	8.87
247.031	43.69
247.248	51.88
247.464	43.69
247.681	2.73
247.898	6.83
248.115	41.64
248.332	-27.99
248.549	49.83
248.766	51.88
248.983	80.55
249.2	49.83
249.417	156.33
249.633	-68.95
249.85	-15.7
250.067	6.83
250.284	62.12
250.501	43.69
250.717	-21.85
250.934	19.11
251.151	25.26
251.368	80.55
251.585	6.83
251.801	144.04
252.018	12.97
252.235	84.65
252.451	-19.8
252.668	-30.04
252.885	51.88
253.102	105.13
253.318	90.79
253.535	-15.7
253.752	-3.41
253.968	78.51
254.185	62.12
254.401	49.83
254.618	58.03
254.835	70.31
255.051	60.07
255.268	41.64
255.484	17.07
255.701	98.99
255.917	51.88
256.134	25.26
256.351	76.46
256.567	17.07
256.784	51.88
257	70.31
257.217	60.07
257.433	84.65
257.65	29.35
257.866	66.22
258.082	37.55
258.299	53.93
258.515	107.18
258.732	80.55
258.948	-11.61
259.165	51.88
259.381	49.83
259.597	72.36
259.814	0.68
260.03	2.73
260.246	58.03
260.463	78.51
260.679	84.65
260.895	33.45
261.112	51.88
261.328	10.92
261.544	-3.41
261.761	117.42
261.977	33.45
262.193	58.03
262.409	58.03
262.626	62.12
262.842	-7.51
263.058	17.07
263.274	25.26
263.49	109.22
263.707	76.46
263.923	12.97
264.139	41.64
264.355	33.45
264.571	133.8
264.787	-7.51
265.004	98.99
265.22	70.31
265.436	35.5
265.652	17.07
265.868	103.08
266.084	25.26
266.3	33.45
266.516	66.22
266.732	94.89
266.948	-21.85
267.164	123.56
267.38	-40.28
267.596	96.94
267.812	66.22
268.028	98.99
268.244	27.31
268.46	29.35
268.676	60.07
268.892	33.45
269.108	68.27
269.324	-3.41
269.54	0.68
269.756	51.88
269.972	58.03
270.188	43.69
270.403	-11.61
270.619	58.03
270.835	78.51
271.051	62.12
271.267	-11.61
271.483	62.12
271.698	60.07
271.914	66.22
272.13	-3.41
272.346	66.22
272.562	74.41
272.777	158.38
272.993	41.64
273.209	60.07
273.425	35.5
273.64	27.31
273.856	39.59
274.072	37.55
274.287	43.69
274.503	49.83
274.719	58.03
274.934	0.68
275.15	-21.85
275.366	4.78
275.581	-5.46
275.797	25.26
276.012	45.74
276.228	62.12
276.444	78.51
276.659	90.79
276.875	-40.28
277.09	37.55
277.306	-34.13
277.521	72.36
277.737	103.08
277.952	115.37
278.168	51.88
278.383	66.22
278.599	29.35
278.814	25.26
279.03	62.12
279.245	115.37
279.461	98.99
279.676	47.79
279.892	25.26
280.107	-46.42
280.322	-17.75
280.538	27.31
280.753	78.51
280.969	90.79
281.184	12.97
281.399	8.87
281.615	96.94
281.83	94.89
282.045	107.18
282.26	33.45
282.476	39.59
282.691	158.38
282.906	-1.37
283.122	64.17
283.337	-11.61
283.552	41.64
283.767	90.79
283.983	58.03
284.198	74.41
284.413	21.16
284.628	21.16
284.843	66.22
285.058	70.31
285.274	35.5
285.489	15.02
285.704	66.22
285.919	127.66
286.134	-23.89
286.349	103.08
286.564	41.64
286.779	150.18
286.995	0.68
287.21	15.02
287.425	117.42
287.64	41.64
287.855	2.73
288.07	39.59
288.285	43.69
288.5	17.07
288.715	49.83
288.93	74.41
289.145	68.27
289.36	70.31
289.575	10.92
289.79	90.79
290.004	55.98
290.219	8.87
290.434	62.12
290.649	-21.85
290.864	41.64
291.079	80.55
291.294	-13.65
291.509	10.92
291.724	43.69
291.938	45.74
292.153	19.11
292.368	78.51
292.583	35.5
292.798	17.07
293.012	35.5
293.227	0.68
293.442	25.26
293.657	27.31
293.871	82.6
294.086	2.73
294.301	96.94
294.516	31.4
294.73	33.45
294.945	76.46
295.16	35.5
295.374	49.83
295.589	76.46
295.804	31.4
296.018	76.46
296.233	84.65
296.447	62.12
296.662	35.5
296.877	33.45
297.091	8.87
297.306	41.64
297.52	43.69
297.735	41.64
297.949	62.12
298.164	141.99
298.378	82.6
298.593	33.45
298.807	123.56
299.022	8.87
299.236	60.07
299.451	41.64
299.665	31.4
299.88	23.21
300.094	41.64
300.309	33.45
300.523	31.4
300.737	23.21
300.952	74.41
301.166	74.41
301.381	103.08
301.595	70.31
301.809	37.55
302.024	19.11
302.238	66.22
302.452	55.98
302.667	-19.8
302.881	182.95
303.095	23.21
303.309	137.9
303.524	25.26
303.738	37.55
303.952	27.31
304.166	41.64
304.381	-11.61
304.595	41.64
304.809	98.99
305.023	49.83
305.237	129.7
305.452	-38.23
305.666	78.51
305.88	-19.8
306.094	66.22
306.308	58.03
306.522	103.08
306.736	33.45
306.95	53.93
307.164	117.42
307.379	53.93
307.593	39.59
307.807	45.74
308.021	58.03
308.235	41.64
308.449	-15.7
308.663	141.99
308.877	51.88
309.091	45.74
309.305	19.11
309.519	-34.13
309.733	25.26
309.947	60.07
310.161	111.27
310.374	41.64
310.588	-23.89
310.802	39.59
311.016	141.99
311.23	12.97
311.444	31.4
311.658	51.88
311.872	109.22
312.085	66.22
312.299	72.36
312.513	66.22
312.727	-7.51
312.941	33.45
313.154	35.5
313.368	133.8
313.582	51.88
313.796	115.37
314.009	43.69
314.223	111.27
314.437	51.88
314.651	64.17
314.864	-38.23
315.078	72.36
315.292	-9.56
315.505	2.73
315.719	58.03
315.933	82.6
316.146	-11.61
316.36	82.6
316.573	60.07
316.787	19.11
317.001	76.46
317.214	43.69
317.428	98.99
317.641	66.22
317.855	17.07
318.068	19.11
318.282	76.46
318.495	68.27
318.709	55.98
318.922	37.55
319.136	113.32
319.349	144.04
319.563	17.07
319.776	82.6
319.99	41.64
320.203	27.31
320.417	70.31
320.63	76.46
320.843	101.03
321.057	33.45
321.27	39.59
321.483	172.71
321.697	82.6
321.91	49.83
322.124	76.46
322.337	33.45
322.55	66.22
322.763	45.74
322.977	101.03
323.19	27.31
323.403	10.92
323.617	84.65
323.83	107.18
324.043	6.83
324.256	64.17
324.469	0.68
324.683	139.94
324.896	41.64
325.109	21.16
325.322	33.45
325.535	70.31
325.748	141.99
325.962	51.88
326.175	103.08
326.388	37.55
326.601	35.5
326.814	35.5
327.027	82.6
327.24	29.35
327.453	-5.46
327.666	47.79
327.879	51.88
328.092	66.22
328.305	15.02
328.518	-3.41
328.731	33.45
328.944	-38.23
329.157	88.75
329.37	78.51
329.583	35.5
329.796	92.84
330.009	-21.85
330.222	72.36
330.435	139.94
330.648	74.41
330.861	80.55
331.073	62.12
331.286	66.22
331.499	53.93
331.712	10.92
331.925	23.21
332.138	64.17
332.35	62.12
332.563	35.5
332.776	123.56
332.989	53.93
333.202	107.18
333.414	74.41
333.627	107.18
333.84	-11.61
334.053	41.64
334.265	0.68
334.478	66.22
334.691	39.59
334.903	0.68
335.116	29.35
335.329	88.75
335.541	-23.89
335.754	131.75
335.966	-19.8
336.179	172.71
336.392	51.88
336.604	51.88
336.817	21.16
337.029	27.31
337.242	-11.61
337.454	33.45
337.667	17.07
337.88	109.22
338.092	-3.41
338.305	80.55
338.517	98.99
338.729	64.17
338.942	119.46
339.154	33.45
339.367	47.79
339.579	78.51
339.792	72.36
340.004	72.36
340.217	64.17
340.429	123.56
340.641	53.93
340.854	17.07
341.066	21.16
341.278	144.04
341.491	37.55
341.703	45.74
341.915	29.35
342.128	8.87
342.34	74.41
342.552	10.92
342.764	90.79
342.977	70.31
343.189	76.46
343.401	107.18
343.613	58.03
343.826	80.55
344.038	27.31
344.25	68.27
344.462	29.35
344.674	19.11
344.886	4.78
345.099	41.64
345.311	8.87
345.523	49.83
345.735	8.87
345.947	90.79
346.159	19.11
346.371	66.22
346.583	33.45
346.795	43.69
347.007	115.37
347.219	86.7
347.431	33.45
347.643	94.89
347.855	94.89
348.067	135.85
348.279	60.07
348.491	96.94
348.703	6.83
348.915	51.88
349.127	35.5
349.339	92.84
349.551	103.08
349.763	107.18
349.975	35.5
350.187	41.64
350.399	111.27
350.61	60.07
350.822	66.22
351.034	55.98
351.246	66.22
351.458	68.27
351.669	68.27
351.881	125.61
352.093	103.08
352.305	84.65
352.517	64.17
352.728	139.94
352.94	66.22
353.152	70.31
353.363	-46.42
353.575	76.46
353.787	53.93
353.999	133.8
354.21	90.79
354.422	25.26
354.633	51.88
354.845	66.22
355.057	103.08
355.268	53.93
355.48	17.07
355.692	82.6
355.903	-9.56
356.115	60.07
356.326	29.35
356.538	107.18
356.749	125.61
356.961	117.42
357.172	111.27
357.384	66.22
357.595	107.18
357.807	41.64
358.018	33.45
358.23	58.03
358.441	86.7
358.653	15.02
358.864	10.92
359.075	90.79
359.287	107.18
359.498	86.7
359.709	-15.7
359.921	115.37
360.132	64.17
360.344	47.79
360.555	0.68
360.766	123.56
360.977	2.73
361.189	53.93
361.4	90.79
361.611	98.99
361.823	98.99
362.034	94.89
362.245	-11.61
362.456	43.69
362.667	51.88
362.879	51.88
363.09	66.22
363.301	33.45
363.512	64.17
363.723	62.12
363.935	-15.7
364.146	92.84
364.357	60.07
364.568	84.65
364.779	109.22
364.99	74.41
365.201	0.68
365.412	62.12
365.623	58.03
365.834	41.64
366.045	43.69
366.256	109.22
366.467	49.83
366.678	-19.8
366.889	25.26
367.1	148.14
367.311	51.88
367.522	58.03
367.733	68.27
367.944	92.84
368.155	49.83
368.366	43.69
368.577	111.27
368.788	90.79
368.999	8.87
369.209	39.59
369.42	86.7
369.631	135.85
369.842	51.88
370.053	41.64
370.264	53.93
370.474	62.12
370.685	58.03
370.896	60.07
371.107	51.88
371.317	58.03
371.528	123.56
371.739	53.93
371.95	19.11
372.16	90.79
372.371	21.16
372.582	-32.08
372.792	62.12
373.003	76.46
373.214	78.51
373.424	92.84
373.635	49.83
373.846	133.8
374.056	66.22
374.267	62.12
374.477	68.27
374.688	10.92
374.898	33.45
375.109	119.46
375.319	49.83
375.53	131.75
375.74	82.6
375.951	45.74
376.161	49.83
376.372	111.27
376.582	0.68
376.793	2.73
377.003	8.87
377.214	90.79
377.424	68.27
377.635	74.41
377.845	-3.41
378.055	107.18
378.266	33.45
378.476	94.89
378.686	68.27
378.897	109.22
379.107	74.41
379.317	90.79
379.528	68.27
379.738	115.37
379.948	27.31
380.158	60.07
380.369	74.41
380.579	119.46
380.789	53.93
380.999	92.84
381.21	66.22
381.42	84.65
381.63	55.98
381.84	62.12
382.05	74.41
382.261	154.28
382.471	76.46
382.681	98.99
382.891	74.41
383.101	41.64
383.311	115.37
383.521	115.37
383.731	64.17
383.941	51.88
384.151	49.83
384.361	111.27
384.571	49.83
384.781	84.65
384.991	74.41
385.201	127.66
385.411	68.27
385.621	25.26
385.831	78.51
386.041	133.8
386.251	98.99
386.461	84.65
386.671	123.56
386.881	35.5
387.091	70.31
387.301	35.5
387.511	6.83
387.72	90.79
387.93	103.08
388.14	27.31
388.35	101.03
388.56	90.79
388.769	62.12
388.979	80.55
389.189	90.79
389.399	41.64
389.609	76.46
389.818	78.51
390.028	144.04
390.238	68.27
390.447	82.6
390.657	115.37
390.867	58.03
391.076	37.55
391.286	86.7
391.496	117.42
391.705	51.88
391.915	119.46
392.125	139.94
392.334	94.89
392.544	70.31
392.753	84.65
392.963	45.74
393.172	58.03
393.382	21.16
393.591	131.75
393.801	78.51
394.01	180.9
394.22	115.37
394.429	10.92
394.639	35.5
394.848	74.41
395.058	66.22
395.267	125.61
395.477	58.03
395.686	96.94
395.895	156.33
396.105	139.94
396.314	125.61
396.524	78.51
396.733	103.08
396.942	133.8
397.152	111.27
397.361	115.37
397.57	117.42
397.78	101.03
397.989	101.03
398.198	170.66
398.407	115.37
398.617	90.79
398.826	76.46
399.035	84.65
399.244	172.71
399.453	148.14
399.663	172.71
399.872	139.94
400.081	98.99
400.29	146.09
400.499	107.18
400.708	164.52
400.917	152.23
401.127	103.08
401.336	139.94
401.545	191.14
401.754	205.48
401.963	176.81
402.172	94.89
402.381	58.03
402.59	195.24
402.799	113.32
403.008	131.75
403.217	193.19
403.426	109.22
403.635	17.07
403.844	189.1
404.053	66.22
404.262	98.99
404.471	215.72
404.68	139.94
404.888	182.95
405.097	197.29
405.306	207.53
405.515	141.99
405.724	166.57
405.933	189.1
406.142	156.33
406.35	152.23
406.559	191.14
406.768	158.38
406.977	266.92
407.185	187.05
407.394	205.48
407.603	228.01
407.812	250.53
408.02	283.3
408.229	295.59
408.438	264.87
408.646	225.96
408.855	225.96
409.064	295.59
409.272	303.78
409.481	322.21
409.69	262.82
409.898	252.58
410.107	381.6
410.315	322.21
410.524	352.93
410.733	395.94
410.941	365.22
411.15	371.37
411.358	393.89
411.567	377.51
411.775	438.95
411.984	445.09
412.192	447.14
412.401	445.09
412.609	445.09
412.818	420.52
413.026	543.39
413.234	494.24
413.443	529.06
413.651	561.83
413.86	625.31
414.068	672.42
414.276	606.88
414.485	623.27
414.693	674.46
414.901	762.53
415.11	805.53
415.318	746.14
415.526	787.1
415.734	832.16
415.943	823.97
416.151	854.69
416.359	772.77
416.567	877.21
416.776	901.79
416.984	959.13
417.192	934.56
417.4	985.76
417.608	955.04
417.817	1010.33
418.025	1188.5
418.233	1262.23
418.441	1129.11
418.649	1251.99
418.857	1245.85
419.065	1389.21
419.273	1278.62
419.481	1428.12
419.689	1479.32
419.897	1510.04
420.105	1518.23
420.313	1620.63
420.521	1667.73
420.729	1669.78
420.937	1659.54
421.145	1809.04
421.353	1931.92
421.561	2052.75
421.769	1911.44
421.977	2083.47
422.185	2101.9
422.393	2294.41
422.601	2357.89
422.809	2394.76
423.017	2394.76
423.224	2488.96
423.432	2509.44
423.64	2540.16
423.848	2785.92
424.056	2800.26
424.263	2884.22
424.471	2916.99
424.679	3000.96
424.887	3056.25
425.094	3232.38
425.302	3205.75
425.51	3398.26
425.718	3465.85
425.925	3449.46
426.133	3603.06
426.341	3852.91
426.548	3975.79
426.756	3879.54
426.964	3998.32
427.171	4276.84
427.379	4332.14
427.586	4430.44
427.794	4622.95
428.001	4792.93
428.209	4995.68
428.417	4915.81
428.624	5163.61
428.832	5177.95
429.039	5274.2
429.247	5177.95
429.454	5790.29
429.662	6169.16
429.869	5679.7
430.076	6228.56
430.284	5861.97
430.491	5978.7
430.699	6607.43
430.906	6382.15
431.114	6644.29
431.321	6873.67
431.528	6898.24
431.736	7512.63
431.943	7780.92
432.15	7676.47
432.358	7744.05
432.565	7973.42
432.772	8020.53
432.979	8532.52
433.187	8626.73
433.394	8532.52
433.601	9259.55
433.808	9177.63
434.016	9290.27
434.223	9583.13
434.43	10228.24
434.637	9978.39
434.844	10617.35
435.052	10887.68
435.259	10816.01
435.466	10826.25
435.673	10627.59
435.88	11448.83
436.087	11903.48
436.294	12042.74
436.501	11788.79
436.708	12055.03
436.915	12403.18
437.122	13214.18
437.329	12902.89
437.537	13279.71
437.743	13713.88
437.95	13550.04
438.157	14162.39
438.364	14254.55
438.571	14606.8
438.778	14485.97
438.985	16116.15
439.192	15292.87
439.399	15770.04
439.606	15468.99
439.813	16296.37
440.02	17379.75
440.227	17031.59
440.433	16785.83
440.64	17639.84
440.847	17506.72
441.054	17725.85
441.261	18823.56
441.467	18729.36
441.674	18833.8
441.881	19626.37
442.088	19630.46
442.294	19640.7
442.501	20052.34
442.708	20543.86
442.914	21164.39
443.121	22122.84
443.328	21168.49
443.534	22909.26
443.741	22346.07
443.948	22157.66
444.154	23800.13
444.361	23380.29
444.568	23515.46
444.774	23591.23
444.981	23939.39
445.187	24545.59
445.394	25518.37
445.6	25250.09
445.807	27595.01
446.013	26530.07
446.22	27253
446.426	27887.87
446.633	28270.84
446.839	29159.66
447.046	28012.8
447.252	29565.16
447.459	29329.64
447.665	29329.64
447.871	30839
448.078	32276.67
448.284	30687.45
448.491	31310.03
448.697	32481.47
448.903	33314.99
449.11	33104.05
449.316	32846.01
449.522	33464.49
449.728	34228.38
449.935	34279.58
450.141	34410.65
450.347	35354.77
450.553	34173.09
450.76	34287.78
450.966	35733.64
451.172	35350.67
451.378	36143.24
451.584	35799.18
451.791	36319.36
451.997	36190.34
452.203	36823.16
452.409	37353.58
452.615	36587.64
452.821	35281.04
453.027	35154.07
453.233	36911.22
453.44	35549.32
453.646	35776.65
453.852	36024.45
454.058	37073.01
454.264	35557.52
454.47	36655.23
454.676	35709.07
454.882	37005.43
455.088	33755.3
455.294	34304.16
455.5	34496.67
455.705	35156.11
455.911	33364.14
456.117	33132.72
456.323	32639.16
456.529	31174.86
456.735	32397.5
456.941	31580.36
457.147	30912.72
457.352	29913.31
457.558	29987.04
457.764	30025.95
457.97	29294.83
458.176	28874.99
458.381	28840.18
458.587	27347.21
458.793	27418.89
458.999	26278.17
459.204	27953.41
459.41	27136.27
459.616	25141.55
459.821	25307.43
460.027	25454.89
460.233	24873.26
460.438	23781.7
460.644	23630.15
460.85	22509.91
461.055	22425.94
461.261	22311.25
461.466	20603.25
461.672	20158.84
461.878	21344.61
462.083	20097.4
462.289	19628.42
462.494	19261.83
462.7	18768.27
462.905	18051.48
463.111	18803.08
463.316	18854.28
463.522	18465.17
463.727	18524.56
463.932	18241.94
464.138	18399.63
464.343	18020.76
464.549	17727.9
464.754	17990.04
464.959	18092.44
465.165	17779.1
465.37	17465.76
465.575	16794.03
465.781	17590.69
465.986	17658.27
466.191	17291.68
466.397	16568.75
466.602	15743.42
466.807	16413.1
467.012	16538.03
467.218	16124.34
467.423	16138.68
467.628	16234.93
467.833	16746.92
468.038	16400.82
468.244	15643.07
468.449	16409.01
468.654	15772.09
468.859	15937.98
469.064	15585.72
469.269	15237.57
469.474	15290.82
469.679	15436.22
469.885	15131.08
470.09	15204.8
470.295	14975.43
470.5	14870.98
470.705	15002.05
470.91	14637.52
471.115	14029.27
471.32	14614.99
471.525	14541.26
471.73	14281.17
471.935	13988.31
472.139	13715.93
472.344	13855.19
472.549	13791.7
472.754	13494.75
472.959	13584.86
473.164	13011.43
473.369	12892.65
473.574	13292
473.778	13459.93
473.983	13156.83
474.188	13044.2
474.393	12509.68
474.598	12489.2
474.802	12452.33
475.007	12444.14
475.212	12452.33
475.417	12095.99
475.621	11921.91
475.826	12241.39
476.031	11645.43
476.235	11512.32
476.44	11622.91
476.645	11545.08
476.849	11614.71
477.054	11274.75
477.259	11305.47
477.463	11297.28
477.668	10953.22
477.872	11063.81
478.077	10949.12
478.282	10551.82
478.486	10570.25
478.691	10494.47
478.895	10496.52
479.1	10273.29
479.304	10533.39
479.509	10140.18
479.713	10226.19
479.918	10035.73
480.122	9955.86
480.326	10068.5
480.531	10234.38
480.735	9841.17
480.94	9896.47
481.144	10021.39
481.348	9736.73
481.553	9972.24
481.757	9400.86
481.961	9773.59
482.166	9847.32
482.37	9769.49
482.574	9486.87
482.778	9699.86
482.983	9724.44
483.187	9593.37
483.391	9761.3
483.595	9433.63
483.8	9417.24
484.004	9548.31
484.208	9685.53
484.412	9609.75
484.616	9679.38
484.821	9695.77
485.025	9490.97
485.229	9493.02
485.433	9593.37
485.637	9648.66
485.841	9294.36
486.045	9454.11
486.249	9560.6
486.453	9589.27
486.657	9521.69
486.861	9576.98
487.065	9441.82
487.269	9650.71
487.473	9355.8
487.677	9617.94
487.881	9798.17
488.085	9552.41
488.289	9615.9
488.493	9601.56
488.697	9579.03
488.901	9632.28
489.105	9658.9
489.309	9564.7
489.512	9769.49
489.716	9632.28
489.92	9650.71
490.124	9884.18
490.328	9771.54
490.531	9622.04
490.735	9779.73
490.939	9845.27
491.143	9824.79
491.346	9931.28
491.55	10277.39
491.754	10064.4
491.958	10297.87
492.161	10076.69
492.365	10013.2
492.569	9978.39
492.772	10045.97
492.976	10193.42
493.18	10244.62
493.383	10244.62
493.587	10437.13
493.79	10379.79
493.994	10437.13
494.197	10351.12
494.401	10736.13
494.605	10766.85
494.808	10701.32
495.012	10891.78
495.215	10869.25
495.419	10934.79
495.622	10799.62
495.825	11082.24
496.029	11153.92
496.232	11485.69
496.436	11213.31
496.639	11520.51
496.843	11665.91
497.046	11698.68
497.249	11649.53
497.453	11741.69
497.656	11960.82
497.859	12032.5
498.063	12063.22
498.266	12233.2
498.469	12509.68
498.673	12382.7
498.876	12552.68
499.079	12796.39
499.282	12730.86
499.485	13183.46
499.689	13275.62
499.892	13181.41
500.095	13330.91
500.298	13550.04
500.501	13607.39
500.705	14172.63
500.908	14201.3
501.111	14361.04
501.314	14436.81
501.517	14598.6
501.72	14578.12
501.923	14774.73
502.126	14780.87
502.329	15135.17
502.532	15208.9
502.735	15421.89
502.938	15389.12
503.141	15569.34
503.344	15870.39
503.547	15958.46
503.75	16081.33
503.953	16441.78
504.156	16540.08
504.359	16828.84
504.562	16947.62
504.765	17007.02
504.968	17342.88
505.17	17645.98
505.373	17654.17
505.576	17985.94
505.779	18262.42
505.982	18303.38
506.185	18418.07
506.387	18510.22
506.59	18755.98
506.793	18958.73
506.996	18864.52
507.198	19562.88
507.401	19331.46
507.604	19784.06
507.807	20124.02
508.009	20154.74
508.212	20498.8
508.415	20494.71
508.617	20533.62
508.82	20935.02
509.022	20851.05
509.225	21365.09
509.428	21715.3
509.63	22010.2
509.833	21979.48
510.035	22364.5
510.238	22239.58
510.44	22274.39
510.643	23058.76
510.845	22911.31
511.048	22546.77
511.25	23185.74
511.453	23533.89
511.655	24351.03
511.858	23923.01
512.06	24355.13
512.262	24410.42
512.465	24596.79
512.667	24647.99
512.87	25147.69
513.072	25194.79
513.274	25553.19
513.477	25923.87
513.679	26493.21
513.881	26298.65
514.084	26867.98
514.286	26442.01
514.488	26689.81
514.69	27674.88
514.893	27521.29
515.095	27601.16
515.297	27990.27
515.499	28008.7
515.701	28711.16
515.904	28817.65
516.106	29311.21
516.308	29389.03
516.51	29610.21
516.712	29358.31
516.914	29876.45
517.116	30308.57
517.318	30435.55
517.52	30767.32
517.722	30781.65
517.925	30798.04
518.127	31404.24
518.329	31578.31
518.531	31418.57
518.733	32385.21
518.935	32506.04
519.136	32481.47
519.338	32940.21
519.54	33151.15
519.742	33439.92
519.944	33261.74
520.146	34099.36
520.348	34201.76
520.55	34216.1
520.752	34928.79
520.954	35023
521.155	34936.98
521.357	35469.45
521.559	35870.86
521.761	35942.53
521.963	35958.92
522.164	36104.32
522.366	36518.01
522.568	36702.33
522.77	36833.4
522.971	37355.63
523.173	37073.01
523.375	37554.29
523.576	37408.88
523.778	37810.28
523.98	38305.89
524.181	38363.23
524.383	38723.68
524.584	38772.83
524.786	38893.66
524.988	38824.03
525.189	38895.71
525.391	39426.13
525.592	39923.79
525.794	39616.59
525.995	39940.17
526.197	39645.26
526.398	39843.91
526.6	40456.26
526.801	40564.8
527.003	40329.28
527.204	40912.95
527.406	40976.44
527.607	40923.19
527.808	41181.24
528.01	40431.68
528.211	40828.99
528.412	41816.11
528.614	41277.49
528.815	41576.5
529.016	41963.56
529.218	41422.9
529.419	41857.07
529.62	41723.95
529.822	41660.46
530.023	41971.75
530.224	42190.89
530.425	41879.6
530.626	41560.11
530.828	41904.17
531.029	42559.52
531.23	42094.63
531.431	41711.66
531.632	42162.22
531.833	42944.54
532.035	42309.67
532.236	42541.09
532.437	42506.27
532.638	42350.63
532.839	42426.4
533.04	42752.03
533.241	42209.32
533.442	42833.95
533.643	42700.83
533.844	42489.89
534.045	42889.24
534.246	42170.41
534.447	42868.76
534.648	42457.12
534.849	42682.4
535.05	42266.66
535.251	42883.1
535.451	42518.56
535.652	42962.97
535.853	42377.25
536.054	42938.4
536.255	42795.04
536.456	42496.03
536.657	43167.77
536.857	42266.66
537.058	42385.44
537.259	42688.54
537.46	42987.55
537.66	42426.4
537.861	42817.57
538.062	42324
538.263	42836
538.463	42473.51
538.664	42197.03
538.865	42592.29
539.065	42295.33
539.266	41750.57
539.466	42620.96
539.667	42283.05
539.868	43026.46
540.068	42324
540.269	42459.17
540.469	42307.62
540.67	42082.34
540.87	42549.28
541.071	42219.56
541.271	42596.38
541.472	42106.92
541.672	42170.41
541.873	42330.15
542.073	41576.5
542.274	42696.74
542.474	41977.9
542.675	42211.37
542.875	42547.23
543.075	41969.71
543.276	41723.95
543.476	42268.71
543.676	41971.75
543.877	42684.45
544.077	42510.37
544.277	41912.36
544.478	42176.55
544.678	41900.08
544.878	41635.89
545.078	42522.66
545.279	41801.77
545.479	42414.12
545.679	41863.21
545.879	42201.13
546.079	41842.73
546.28	41875.5
546.48	41605.17
546.68	42213.41
546.88	42113.06
547.08	42059.82
547.28	41965.61
547.48	41730.09
547.68	42074.15
547.88	41611.31
548.081	42096.68
548.281	41740.33
548.481	41500.72
548.681	42025
548.881	41709.61
549.081	41705.52
549.28	41523.25
549.48	42090.54
549.68	41695.28
549.88	41898.03
550.08	41396.28
550.28	41848.88
550.48	41363.51
550.68	41826.35
550.88	41578.54
551.08	41750.57
551.279	41914.41
551.479	41418.8
551.679	41816.11
551.879	41664.56
552.079	41492.53
552.278	41295.92
552.478	41361.46
552.678	41707.57
552.878	41596.98
553.077	42170.41
553.277	40982.59
553.477	41977.9
553.676	41531.44
553.876	41209.91
554.076	41297.97
554.275	41498.67
554.475	41023.54
554.674	41562.16
554.874	41572.4
555.074	41216.05
555.273	41062.46
555.473	41969.71
555.672	41408.56
555.872	41005.11
556.071	41433.14
556.271	41568.3
556.47	40898.62
556.67	41039.93
556.869	40970.3
557.068	41222.2
557.268	41367.6
557.467	40943.67
557.667	40988.73
557.866	41728.05
558.065	41011.26
558.265	41117.75
558.464	40689.73
558.663	41226.29
558.863	40519.74
559.062	41244.73
559.261	40759.36
559.461	40876.09
559.66	40607.81
559.859	40757.31
560.058	40501.31
560.258	40704.06
560.457	40036.42
560.656	40876.09
560.855	40575.04
561.054	40527.94
561.253	40230.98
561.453	40489.02
561.652	40230.98
561.851	40480.83
562.05	39637.07
562.249	40235.08
562.448	40099.91
562.647	40233.03
562.846	40261.7
563.045	39884.87
563.244	39307.35
563.443	40073.29
563.642	39118.93
563.841	39987.27
564.04	39811.15
564.239	39827.53
564.438	39100.5
564.637	39675.98
564.836	39485.52
565.035	39102.55
565.234	39250
565.432	39118.93
565.631	38719.58
565.83	39350.35
566.029	38695
566.228	38557.79
566.427	38838.36
566.625	38645.85
566.824	38291.55
567.023	38891.61
567.222	38111.33
567.42	39041.11
567.619	38516.83
567.818	38572.13
568.016	38432.86
568.215	38705.24
568.414	38654.04
568.612	38350.95
568.811	38164.58
569.01	38105.19
569.208	37935.21
569.407	38062.18
569.605	37150.84
569.804	37634.16
570.002	37560.43
570.201	37800.04
570.4	37156.98
570.598	37013.62
570.797	36917.37
570.995	37220.47
571.193	37146.74
571.392	37294.19
571.59	36984.95
571.789	37001.33
571.987	36954.23
572.186	37126.26
572.384	36687.99
572.582	36604.03
572.781	36614.27
572.979	36350.08
573.177	36323.46
573.376	36409.47
573.574	36182.15
573.772	36374.66
573.971	35616.91
574.169	35549.32
574.367	35651.72
574.565	36214.91
574.763	35604.62
574.962	35604.62
575.16	35113.11
575.358	35745.93
575.556	35143.83
575.754	35522.7
575.952	35117.2
576.151	35367.06
576.349	34955.41
576.547	34982.04
576.745	34871.45
576.943	34605.21
577.141	34773.14
577.339	34867.35
577.537	34572.44
577.735	34379.93
577.933	34554.01
578.131	34388.13
578.329	34109.6
578.527	33898.66
578.725	33964.2
578.923	34283.68
579.121	33681.58
579.319	33734.82
579.516	33767.59
579.714	33962.15
579.912	33198.26
580.11	33321.13
580.308	33419.44
580.506	33415.34
580.704	32864.44
580.901	32991.41
581.099	33198.26
581.297	32979.12
581.495	32673.98
581.692	32905.4
581.89	32497.85
582.088	32823.48
582.285	32905.4
582.483	32684.22
582.681	32520.38
582.878	32266.43
583.076	31826.12
583.274	32714.94
583.471	31889.6
583.669	31838.4
583.866	31875.27
584.064	31936.71
584.262	31424.72
584.459	31746.25
584.657	31795.4
584.854	32143.55
585.052	31140.05
585.249	31471.82
585.447	31330.51
585.644	31043.79
585.841	31314.12
586.039	31480.01
586.236	30972.11
586.434	30736.6
586.631	30767.32
586.828	30695.64
587.026	30851.28
587.223	30804.18
587.42	30372.06
587.618	30316.76
587.815	30019.81
588.012	30161.12
588.21	30212.32
588.407	30204.13
588.604	29909.22
588.801	29726.95
588.999	30021.86
589.196	29718.76
589.393	29626.6
589.59	29667.56
589.787	29528.3
589.984	29391.08
590.182	29208.81
590.379	29309.16
590.576	29155.57
590.773	28930.29
590.97	29124.85
591.167	29245.68
591.364	28725.49
591.561	28963.06
591.758	28733.68
591.955	28459.26
592.152	28752.12
592.349	28168.44
592.546	28440.82
592.743	28418.3
592.94	28084.48
593.137	28322.04
593.334	28324.09
593.531	27560.2
593.727	28254.46
593.924	28295.42
594.121	27648.26
594.318	28211.45
594.515	27703.56
594.712	27951.36
594.908	27500.81
595.105	27660.55
595.302	27541.77
595.499	27504.9
595.696	27111.69
595.892	27228.43
596.089	27271.43
596.286	27277.58
596.482	26790.16
596.679	26943.76
596.876	27019.53
597.072	26515.73
597.269	26546.45
597.466	26390.81
597.662	26763.54
597.859	26511.64
598.055	26736.91
598.252	26132.76
598.448	26147.1
598.645	25868.58
598.841	26034.46
599.038	25932.06
599.234	26083.61
599.431	25428.26
599.627	25788.71
599.824	25927.97
600.02	25575.72
600.217	25821.47
600.413	25536.81
600.609	25649.44
600.806	25303.34
601.002	25786.66
601.198	25051.44
601.395	25170.22
601.591	25131.31
601.787	25256.23
601.984	24869.17
602.18	25112.88
602.376	24750.38
602.572	24389.94
602.769	24746.29
602.965	24578.36
603.161	24516.92
603.357	24754.48
603.553	24228.15
603.75	24236.34
603.946	24291.64
604.142	24322.36
604.338	24291.64
604.534	24035.64
604.73	23689.54
604.926	23978.3
605.122	24000.83
605.318	23826.75
605.514	23734.59
605.71	23894.33
605.906	23828.8
606.102	23611.71
606.298	23511.36
606.494	23701.83
606.69	23513.41
606.886	23722.3
607.082	23071.05
607.278	23470.4
607.474	22866.25
607.67	23173.45
607.866	22919.5
608.062	23195.98
608.257	23259.46
608.453	23195.98
608.649	23167.31
608.845	22350.17
609.041	22612.31
609.236	22675.79
609.432	22892.88
609.628	22669.65
609.824	22628.69
610.019	22280.53
610.215	22497.62
610.411	22608.21
610.606	22339.93
610.802	22255.96
610.998	22438.23
611.193	22307.16
611.389	22380.89
611.584	22104.41
611.78	22278.49
611.976	22401.36
612.171	22249.82
612.367	22194.52
612.562	22002.01
612.758	21754.21
612.953	21662.05
613.149	22139.22
613.344	21977.44
613.539	22045.02
613.735	21844.32
613.93	22145.37
614.126	21961.05
614.321	22063.45
614.517	21918.04
614.712	21680.48
614.907	21612.9
615.103	21637.47
615.298	21459.3
615.493	21588.32
615.688	21457.25
615.884	21516.64
616.079	21199.21
616.274	21553.51
616.47	21375.33
616.665	21295.46
616.86	21107.05
617.055	21399.91
617.25	21127.53
617.445	21307.75
617.641	20664.69
617.836	20908.4
618.031	20914.54
618.226	21563.75
618.421	20984.17
618.616	21178.73
618.811	20488.56
619.006	20806
619.201	20332.92
619.396	20547.95
619.591	19974.52
619.786	20564.34
619.981	20046.2
620.176	20484.47
620.371	19804.54
620.566	20445.55
620.761	19986.81
620.956	20119.93
621.151	19530.11
621.346	19839.36
621.541	19616.13
621.735	19392.9
621.93	19509.63
622.125	19540.35
622.32	19321.22
622.515	18956.68
622.709	18844.04
622.904	19032.46
623.099	18923.91
623.294	18940.3
623.488	18641.29
623.683	18661.77
623.878	18287
624.072	18483.6
624.267	18416.02
624.462	18037.14
624.656	18088.34
624.851	18000.28
625.046	18024.86
625.24	17588.64
625.435	17768.86
625.629	17734.04
625.824	17439.14
626.018	17396.13
626.213	17111.46
626.407	17389.99
626.602	16951.72
626.796	17009.06
626.991	17195.43
627.185	16906.66
627.38	16626.09
627.574	16834.99
627.768	16599.47
627.963	16613.81
628.157	16187.83
628.352	16415.15
628.546	15972.79
628.74	16208.31
628.935	15913.4
629.129	16236.98
629.323	15757.75
629.517	15823.29
629.712	15567.29
629.906	15585.72
630.1	15589.82
630.294	15559.1
630.489	15280.58
630.683	15294.91
630.877	15227.33
631.071	15241.67
631.265	15186.37
631.459	15124.93
631.653	14879.18
631.848	14885.32
632.042	14737.87
632.236	14668.23
632.43	14578.12
632.624	14571.98
632.818	14539.21
633.012	14342.61
633.206	14305.74
633.4	14225.87
633.594	14219.73
633.788	14215.63
633.982	14109.14
634.176	14383.57
634.369	13982.17
634.563	13908.44
634.757	13896.15
634.951	13824.47
635.145	13836.76
635.339	13607.39
635.533	13588.96
635.726	13623.77
635.92	13119.97
636.114	13238.75
636.308	13279.71
636.501	13146.59
636.695	13230.56
636.889	12853.73
637.083	12657.13
637.276	12982.76
637.47	12655.08
637.664	12655.08
637.857	12677.61
638.051	12820.97
638.244	12673.51
638.438	12337.65
638.632	12351.98
638.825	12300.78
639.019	12206.58
639.212	12106.23
639.406	12190.19
639.599	12110.32
639.793	11880.95
639.986	11911.67
640.18	11915.76
640.373	11721.21
640.567	11579.9
640.76	11764.22
640.954	11510.27
641.147	11368.96
641.34	11426.3
641.534	11414.01
641.727	11405.82
641.92	11332.09
642.114	11241.98
642.307	11078.15
642.5	11248.13
642.694	10848.77
642.887	10816.01
643.08	11092.48
643.273	11252.22
643.467	11053.57
643.66	10758.66
643.853	10758.66
644.046	10482.19
644.239	10543.63
644.432	10375.69
644.626	10471.95
644.819	10398.22
645.012	10084.88
645.205	10392.08
645.398	10383.88
645.591	10152.46
645.784	9998.87
645.977	9947.67
646.17	9972.24
646.363	9880.08
646.556	9902.61
646.749	9773.59
646.942	9820.69
647.135	9533.98
647.328	9644.57
647.521	9689.62
647.714	9650.71
647.907	9742.87
648.099	9372.19
648.292	9439.77
648.485	9388.57
648.678	9380.38
648.871	9488.92
649.064	9163.29
649.256	9210.4
649.449	9335.32
649.642	9085.47
649.835	8995.36
650.027	9241.12
650.22	8964.64
650.413	8987.17
650.605	8849.96
650.798	8890.91
650.991	8632.87
651.183	8673.83
651.376	8686.12
651.568	8751.65
651.761	8337.96
651.954	8466.99
652.146	8368.68
652.339	8569.38
652.531	8532.52
652.724	8342.06
652.916	8163.89
653.109	8288.81
653.301	8266.28
653.494	8294.96
653.686	8008.24
653.879	8145.45
654.071	8204.85
654.263	7873.07
654.456	7965.23
654.648	8077.87
654.84	7918.13
655.033	7754.29
655.225	7803.44
655.417	7520.82
655.61	7899.7
655.802	7670.33
655.994	7699
656.186	7696.95
656.379	7594.55
656.571	7621.17
656.763	7342.65
656.955	7404.09
657.148	7307.84
657.34	7328.31
657.532	7359.03
657.724	7266.88
657.916	7344.7
658.108	7377.47
658.3	7266.88
658.492	7115.33
658.684	7004.74
658.876	6875.71
659.068	7098.94
659.26	7119.42
659.452	6832.71
659.644	6955.58
659.836	6851.14
660.028	6894.15
660.22	6814.27
660.412	6693.44
660.604	6689.35
660.796	6685.25
660.988	6603.33
661.18	6515.27
661.372	6498.89
661.563	6615.62
661.755	6414.92
661.947	6529.61
662.139	6517.32
662.331	6412.87
662.522	6251.08
662.714	6316.62
662.906	6507.08
663.097	6414.92
663.289	6259.28
663.481	6120.01
663.673	6212.17
663.864	6201.93
664.056	6216.27
664.247	6087.25
664.439	5960.27
664.631	5933.65
664.822	6097.49
665.014	5970.51
665.205	6038.09
665.397	5894.74
665.588	6064.72
665.78	5933.65
665.971	5728.85
666.163	5880.4
666.354	5804.63
666.546	5599.83
666.737	5675.6
666.929	5790.29
667.12	5687.89
667.311	5722.71
667.503	5513.81
667.694	5681.75
667.885	5542.49
668.077	5540.44
668.268	5421.66
668.459	5425.75
668.651	5468.76
668.842	5370.46
669.033	5235.29
669.224	5276.25
669.416	5376.6
669.607	5440.09
669.798	5366.36
669.989	5212.76
670.18	5300.83
670.371	5139.04
670.563	5116.51
670.754	5220.95
670.945	5055.07
671.136	5175.9
671.327	5007.97
671.518	5067.36
671.709	5100.12
671.9	5159.52
672.091	5038.69
672.282	4870.75
672.473	5010.01
672.664	4907.62
672.855	5087.84
673.046	4964.96
673.237	5018.21
673.428	5038.69
673.619	4883.04
673.809	4846.18
674	4833.89
674.191	4932.19
674.382	4801.12
674.573	4901.47
674.764	4776.55
674.954	4964.96
675.145	4627.04
675.336	4768.35
675.527	4625
675.717	4735.59
675.908	4817.51
676.099	4778.59
676.289	4620.9
676.48	4475.49
676.671	4653.67
676.861	4692.58
677.052	4536.93
677.243	4506.21
677.433	4534.89
677.624	4604.52
677.814	4541.03
678.005	4581.99
678.195	4553.32
678.386	4430.44
678.576	4432.49
678.767	4336.23
678.957	4354.66
679.148	4430.44
679.338	4541.03
679.529	4426.34
679.719	4328.04
679.909	4336.23
680.1	4303.47
680.29	4442.73
680.481	4246.12
680.671	4346.47
680.861	4344.42
681.052	4293.23
681.242	4340.33
681.432	4315.75
681.622	4303.47
681.813	4229.74
682.003	4303.47
682.193	4371.05
682.383	4291.18
682.573	4217.45
682.764	4145.77
682.954	4246.12
683.144	4094.57
683.334	4213.35
683.524	4113
683.714	4059.76
683.904	4205.16
684.094	4113
684.284	4127.34
684.474	4225.64
684.664	4092.52
684.854	4123.24
685.044	4147.82
685.234	3994.22
685.424	4182.63
685.614	4043.37
685.804	3910.26
685.994	4018.8
686.184	3949.17
686.374	3895.92
686.564	3959.41
686.753	3881.58
686.943	3875.44
687.133	3924.59
687.323	3891.82
687.513	3904.11
687.702	3932.78
687.892	3750.51
688.082	3975.79
688.272	3918.45
688.461	3943.02
688.651	3891.82
688.841	3727.99
689.03	3684.98
689.22	3770.99
689.41	3844.72
689.599	3768.95
689.789	3670.64
689.979	3756.66
690.168	3691.12
690.358	3543.67
690.547	3631.73
690.737	3719.79
690.926	3750.51
691.116	3654.26
691.305	3666.55
691.495	3553.91
691.684	3623.54
691.874	3537.52
692.063	3564.15
692.252	3551.86
692.442	3578.48
692.631	3433.08
692.82	3476.09
693.01	3463.8
693.199	3400.31
693.388	3400.31
693.578	3441.27
693.767	3437.17
693.956	3328.63
694.146	3410.55
694.335	3297.91
694.524	3398.26
694.713	3517.05
694.902	3320.44
695.092	3367.54
695.281	3402.36
695.47	3353.21
695.659	3318.39
695.848	3240.57
696.037	3345.02
696.226	3322.49
696.415	3289.72
696.604	3408.5
696.793	3369.59
696.982	3222.14
697.171	3228.28
697.36	3203.71
697.549	3218.04
697.738	3179.13
697.927	3107.45
698.116	3322.49
698.305	3238.52
698.494	3342.97
698.683	3304.06
698.872	3314.3
699.061	3252.86
699.25	3293.82
699.438	3205.75
699.627	3220.09
699.816	3220.09
700.005	3189.37
700.193	3207.8
700.382	3123.84
700.571	3197.56
700.76	3154.55
700.948	3308.15
701.137	3031.68
701.326	3195.51
701.514	3179.13
701.703	3091.07
701.892	3109.5
702.08	3158.65
702.269	3058.3
702.457	3107.45
702.646	3123.84
702.834	3091.07
703.023	3115.64
703.212	3254.9
703.4	3162.75
703.589	3043.96
703.777	3056.25
703.965	2976.38
704.154	3156.6
704.342	3187.32
704.531	3007.1
704.719	3091.07
704.907	3080.83
705.096	2966.14
705.284	3080.83
705.472	3066.49
705.661	3060.35
705.849	3060.35
706.037	3138.17
706.226	3033.72
706.414	3000.96
706.602	3064.44
706.79	2900.61
706.979	2943.61
707.167	3025.53
707.355	3076.73
707.543	3017.34
707.731	3007.1
707.919	2867.84
708.107	2794.11
708.296	2871.93
708.484	3019.39
708.672	2892.41
708.86	2839.17
709.048	2937.47
709.236	3019.39
709.424	2908.8
709.612	2865.79
709.8	2843.26
709.988	2945.66
710.176	2790.02
710.364	2906.75
710.551	2802.3
710.739	2939.52
710.927	2773.63
711.115	2753.15
711.303	2861.69
711.491	2744.96
711.679	2896.51
711.866	2808.45
712.054	3025.53
712.242	2837.12
712.43	2933.37
712.617	2798.21
712.805	2839.17
712.993	2869.89
713.181	2777.73
713.368	2777.73
713.556	2818.69
713.744	2882.17
713.931	2900.61
714.119	2833.02
714.306	2798.21
714.494	2730.62
714.682	2742.91
714.869	2804.35
715.057	2708.1
715.244	2646.66
715.432	2771.58
715.619	2658.95
715.807	2722.43
715.994	2697.86
716.182	2634.37
716.369	2704
716.556	2695.81
716.744	2765.44
716.931	2695.81
717.119	2658.95
717.306	2515.59
717.493	2699.91
717.681	2601.6
717.868	2706.05
718.055	2589.32
718.242	2589.32
718.43	2632.32
718.617	2613.89
718.804	2636.42
718.991	2726.53
719.179	2632.32
719.366	2609.79
719.553	2564.74
719.74	2568.84
719.927	2665.09
720.114	2597.51
720.301	2577.03
720.488	2593.41
720.676	2544.26
720.863	2605.7
721.05	2615.94
721.237	2429.57
721.424	2566.79
721.611	2587.27
721.798	2433.67
721.985	2425.48
722.172	2441.86
722.358	2417.29
722.545	2595.46
722.732	2486.92
722.919	2407.05
723.106	2437.77
723.293	2421.38
723.48	2448.01
723.667	2405
723.853	2484.87
724.04	2552.45
724.227	2382.47
724.414	2503.3
724.6	2568.84
724.787	2546.31
724.974	2466.44
725.161	2405
725.347	2327.18
725.534	2380.42
725.72	2437.77
725.907	2347.65
726.094	2419.33
726.28	2335.37
726.467	2304.65
726.653	2327.18
726.84	2488.96
727.027	2452.1
727.213	2423.43
727.4	2294.41
727.586	2460.29
727.773	2304.65
727.959	2296.46
728.145	2405
728.332	2318.98
728.518	2286.22
728.705	2372.23
728.891	2390.66
729.077	2417.29
729.264	2333.32
729.45	2460.29
729.636	2323.08
729.823	2321.03
730.009	2376.33
730.195	2302.6
730.382	2343.56
730.568	2230.92
730.754	2261.64
730.94	2312.84
731.126	2318.98
731.313	2345.61
731.499	2343.56
731.685	2269.83
731.871	2329.22
732.057	2249.35
732.243	2300.55
732.429	2269.83
732.615	2347.65
732.801	2271.88
732.987	2169.48
733.173	2278.02
733.359	2353.8
733.545	2294.41
733.731	2212.49
733.917	2257.54
734.103	2140.81
734.289	2146.95
734.475	2171.53
734.661	2351.75
734.847	2224.78
735.033	2196.11
735.219	2228.87
735.404	2220.68
735.59	2228.87
735.776	2212.49
735.962	2065.04
736.148	2335.37
736.333	2181.77
736.519	2192.01
736.705	2198.15
736.89	2140.81
737.076	2153.1
737.262	2089.61
737.447	2028.17
737.633	2179.72
737.819	2040.46
738.004	2118.28
738.19	2124.43
738.375	2099.85
738.561	2112.14
738.747	2013.84
738.932	2048.65
739.118	2056.84
739.303	2083.47
739.489	2101.9
739.674	1995.4
739.859	2056.84
740.045	1976.97
740.23	2132.62
740.416	2132.62
740.601	2028.17
740.786	1950.35
740.972	2026.12
741.157	1983.12
741.342	1925.77
741.528	1960.59
741.713	2034.32
741.898	1979.02
742.084	1933.97
742.269	1925.77
742.454	1880.72
742.639	1958.54
742.824	1925.77
743.01	1841.81
743.195	1940.11
743.38	1852.05
743.565	2040.46
743.75	1884.81
743.935	1821.33
744.12	1874.57
744.305	1868.43
744.49	1897.1
744.675	1749.65
744.86	1788.56
745.045	1909.39
745.23	1831.57
745.415	1864.33
745.6	1739.41
745.785	1868.43
745.97	1835.66
746.155	1784.46
746.34	1811.09
746.525	1704.59
746.71	1788.56
746.895	1747.6
747.079	1659.54
747.264	1663.63
747.449	1657.49
747.634	1737.36
747.819	1630.87
748.003	1710.74
748.188	1669.78
748.373	1618.58
748.557	1626.77
748.742	1565.33
748.927	1512.08
749.111	1575.57
749.296	1704.59
749.481	1735.31
749.665	1618.58
749.85	1522.32
750.034	1598.1
750.219	1589.91
750.404	1630.87
750.588	1626.77
750.773	1540.76
750.957	1507.99
751.141	1477.27
751.326	1542.8
751.51	1503.89
751.695	1405.59
751.879	1387.16
752.064	1516.18
752.248	1411.73
752.432	1462.93
752.617	1434.26
752.801	1440.4
752.985	1395.35
753.17	1421.97
753.354	1313.43
753.538	1407.64
753.722	1331.86
753.907	1331.86
754.091	1352.34
754.275	1346.2
754.459	1204.89
754.643	1311.38
754.828	1299.09
755.012	1254.04
755.196	1208.98
755.38	1272.47
755.564	1262.23
755.748	1270.42
755.932	1159.83
756.116	1292.95
756.3	1159.83
756.484	1178.26
756.668	1303.19
756.852	1229.46
757.036	1174.17
757.22	1251.99
757.404	1153.69
757.588	1045.15
757.772	1165.98
757.956	1229.46
758.14	1215.13
758.323	1110.68
758.507	1208.98
758.691	1114.78
758.875	1026.71
759.059	1120.92
759.242	1102.49
759.426	1122.97
759.61	1026.71
759.794	1092.25
759.977	1090.2
760.161	1028.76
760.345	1075.87
760.528	1036.95
760.712	1024.67
760.895	1051.29
761.079	1090.2
761.263	975.52
761.446	1024.67
761.63	983.71
761.813	1055.39
761.997	1002.14
762.18	1000.09
762.364	942.75
762.547	912.03
762.731	950.94
762.914	973.47
763.098	901.79
763.281	1024.67
763.464	952.99
763.648	934.56
763.831	1028.76
764.015	928.41
764.198	885.41
764.381	971.42
764.564	879.26
764.748	901.79
764.931	1024.67
765.114	871.07
765.297	909.98
765.481	881.31
765.664	942.75
765.847	838.3
766.03	950.94
766.213	793.25
766.397	789.15
766.58	815.77
766.763	832.16
766.946	860.83
767.129	885.41
767.312	860.83
767.495	871.07
767.678	787.1
767.861	811.68
768.044	836.25
768.227	848.54
768.41	834.21
768.593	844.45
768.776	858.78
768.959	740
769.142	787.1
769.324	909.98
769.507	762.53
769.69	844.45
769.873	815.77
770.056	860.83
770.239	780.96
770.421	848.54
770.604	815.77
770.787	807.58
770.97	797.34
771.152	758.43
771.335	717.47
771.518	797.34
771.7	791.2
771.883	795.29
772.066	799.39
772.248	807.58
772.431	748.19
772.613	776.86
772.796	715.42
772.978	750.24
773.161	783.01
773.343	764.58
773.526	715.42
773.708	649.89
773.891	746.14
774.073	680.61
774.256	701.09
774.438	684.7
774.621	701.09
774.803	680.61
774.985	656.03
775.168	707.23
775.35	735.9
775.532	713.38
775.715	688.8
775.897	664.22
776.079	696.99
776.261	717.47
776.444	627.36
776.626	549.54
776.808	666.27
776.99	635.55
777.173	656.03
777.355	639.65
777.537	588.45
777.719	707.23
777.901	639.65
778.083	565.92
778.265	647.84
778.447	584.35
778.629	533.15
778.811	594.59
778.993	604.83
779.175	600.74
779.357	590.5
779.539	598.69
779.721	588.45
779.903	559.78
780.085	533.15
780.267	492.2
780.449	598.69
780.631	598.69
780.812	545.44
780.994	580.26
781.176	524.96
781.358	551.59
781.54	412.32
781.721	520.87
781.903	467.62
782.085	494.24
782.267	475.81
782.448	363.17
782.63	484
782.812	543.39
782.993	459.43
783.175	494.24
783.357	580.26
783.538	465.57
783.72	420.52
783.901	557.73
784.083	463.52
784.264	463.52
784.446	445.09
784.627	500.39
784.809	459.43
784.99	502.44
785.172	387.75
785.353	410.28
785.535	469.67
785.716	426.66
785.897	422.56
786.079	481.96
786.26	428.71
786.441	393.89
786.623	434.85
786.804	291.49
786.985	414.37
787.167	387.75
787.348	381.6
787.529	373.41
787.71	410.28
787.891	391.84
788.073	393.89
788.254	389.8
788.435	420.52
788.616	328.36
788.797	379.56
788.978	428.71
789.159	309.93
789.34	352.93
789.522	287.4
789.703	385.7
789.884	332.45
790.065	324.26
790.246	369.32
790.427	322.21
790.607	326.31
790.788	324.26
790.969	322.21
791.15	373.41
791.331	266.92
791.512	307.88
791.693	320.17
791.874	326.31
792.054	324.26
792.235	414.37
792.416	303.78
792.597	250.53
792.778	305.83
792.958	326.31
793.139	283.3
793.32	311.97
793.5	295.59
793.681	346.79
793.862	318.12
794.042	314.02
794.223	291.49
794.404	264.87
794.584	295.59
794.765	297.64
794.945	289.45
795.126	338.6
795.306	262.82
795.487	230.06
795.667	258.73
795.848	242.34
796.028	199.34
796.209	246.44
796.389	281.25
796.57	268.97
796.75	283.3
796.93	225.96
797.111	260.77
797.291	258.73
797.471	262.82
797.652	330.41
797.832	297.64
798.012	217.77
798.192	342.69
798.373	246.44
798.553	228.01
798.733	275.11
798.913	279.21
799.093	295.59
799.274	299.69
799.454	197.29
799.634	221.86
799.814	246.44
799.994	275.11
800.174	228.01
800.354	311.97
800.534	291.49
800.714	250.53
800.894	230.06
801.074	160.42
801.254	271.01
801.434	271.01
801.614	191.14
801.794	242.34
801.974	797.34
802.154	144.04
802.334	221.86
802.514	205.48
802.693	148.14
802.873	254.63
803.053	260.77
803.233	264.87
803.413	232.1
803.592	221.86
803.772	139.94
803.952	221.86
804.131	258.73
804.311	185
804.491	209.58
804.67	189.1
804.85	230.06
805.03	213.67
805.209	238.25
805.389	234.15
805.568	215.72
805.748	172.71
805.928	199.34
806.107	203.43
806.287	182.95
806.466	139.94
806.646	248.49
806.825	199.34
807.004	185
807.184	197.29
807.363	176.81
807.543	189.1
807.722	172.71
807.901	131.75
808.081	197.29
808.26	178.86
808.439	230.06
808.619	98.99
808.798	223.91
808.977	213.67
809.156	156.33
809.336	193.19
809.515	256.68
809.694	139.94
809.873	144.04
810.052	123.56
810.231	195.24
810.411	182.95
810.59	172.71
810.769	189.1
810.948	125.61
811.127	98.99
811.306	172.71
811.485	189.1
811.664	230.06
811.843	174.76
812.022	191.14
812.201	115.37
812.38	189.1
812.559	109.22
812.737	164.52
812.916	164.52
813.095	74.41
813.274	180.9
813.453	182.95
813.632	164.52
813.811	135.85
813.989	70.31
814.168	211.62
814.347	115.37
814.526	246.44
814.704	162.47
814.883	205.48
815.062	193.19
815.24	215.72
815.419	94.89
815.598	107.18
815.776	141.99
815.955	98.99
816.133	129.7
816.312	133.8
816.49	144.04
816.669	156.33
816.847	117.42
817.026	189.1
817.204	162.47
817.383	199.34
817.561	117.42
817.74	117.42
817.918	141.99
818.097	70.31
818.275	127.66
818.453	115.37
818.632	135.85
818.81	90.79
818.988	119.46
819.167	133.8
819.345	162.47
819.523	131.75
819.701	193.19
819.879	127.66
820.058	76.46
820.236	144.04
820.414	68.27
820.592	92.84
820.77	92.84
820.948	133.8
821.127	127.66
821.305	94.89
821.483	29.35
821.661	164.52
821.839	127.66
822.017	125.61
822.195	109.22
822.373	119.46
822.551	119.46
822.729	92.84
822.907	98.99
823.085	131.75
823.262	113.32
823.44	98.99
823.618	141.99
823.796	139.94
823.974	88.75
824.152	90.79
824.329	60.07
824.507	141.99
824.685	113.32
824.863	135.85
825.04	68.27
825.218	182.95
825.396	107.18
825.574	125.61
825.751	86.7
825.929	68.27
826.107	72.36
826.284	55.98
826.462	47.79
826.639	115.37
826.817	43.69
826.994	131.75
827.172	117.42
827.349	189.1
827.527	98.99
827.704	66.22
827.882	103.08
828.059	78.51
828.237	76.46
828.414	168.62
828.591	101.03
828.769	53.93
828.946	51.88
829.124	150.18
829.301	111.27
829.478	66.22
829.655	178.86
829.833	123.56
830.01	76.46
830.187	135.85
830.364	96.94
830.542	45.74
830.719	148.14
830.896	144.04
831.073	33.45
831.25	117.42
831.427	90.79
831.604	64.17
831.782	103.08
831.959	53.93
832.136	96.94
832.313	172.71
832.49	62.12
832.667	84.65
832.844	8.87
833.021	74.41
833.198	62.12
833.374	101.03
833.551	45.74
833.728	72.36
833.905	119.46
834.082	8.87
834.259	94.89
834.436	86.7
834.612	68.27
834.789	123.56
834.966	41.64
835.143	119.46
835.319	92.84
835.496	96.94
835.673	127.66
835.85	107.18
836.026	74.41
836.203	66.22
836.38	62.12
836.556	90.79
836.733	8.87
836.909	131.75
837.086	135.85
837.262	-7.51
837.439	78.51
837.616	58.03
837.792	84.65
837.968	60.07
838.145	2.73
838.321	127.66
838.498	119.46
838.674	82.6
838.851	103.08
839.027	111.27
839.203	74.41
839.38	62.12
839.556	12.97
839.732	103.08
839.909	8.87
840.085	45.74
840.261	45.74
840.437	111.27
840.614	78.51
840.79	74.41
840.966	68.27
841.142	66.22
841.318	-7.51
841.494	-5.46
841.671	62.12
841.847	58.03
842.023	92.84
842.199	25.26
842.375	98.99
842.551	-3.41
842.727	84.65
842.903	86.7
843.079	68.27
843.255	68.27
843.431	-27.99
843.607	70.31
843.783	0.68
843.959	92.84
844.134	70.31
844.31	144.04
844.486	-3.41
844.662	70.31
844.838	92.84
845.013	12.97
845.189	123.56
845.365	27.31
845.541	58.03
845.716	55.98
845.892	98.99
846.068	76.46
846.244	-19.8
846.419	25.26
846.595	41.64
846.77	84.65
846.946	121.51
847.122	43.69
847.297	55.98
847.473	58.03
847.648	74.41
847.824	125.61
847.999	29.35
848.175	35.5
848.35	8.87
848.526	117.42
848.701	33.45
848.876	41.64
849.052	39.59
849.227	74.41
849.403	45.74
849.578	-3.41
849.753	103.08
849.929	115.37
850.104	-40.28
850.279	82.6
850.454	90.79
850.63	25.26
850.805	25.26
850.98	90.79
851.155	12.97
851.33	148.14
851.505	10.92
851.681	197.29
851.856	25.26
852.031	58.03
852.206	-7.51
852.381	-11.61
852.556	123.56
852.731	115.37
852.906	74.41
853.081	94.89
853.256	74.41
853.431	27.31
853.606	84.65
853.781	17.07
853.956	82.6
854.131	60.07
854.305	12.97
854.48	6.83
854.655	76.46
854.83	45.74
855.005	37.55
855.18	33.45
855.354	62.12
855.529	35.5
855.704	70.31
855.879	92.84
856.053	-3.41
856.228	84.65
856.403	-23.89
856.577	115.37
856.752	76.46
856.926	94.89
857.101	21.16
857.276	49.83
857.45	17.07
857.625	60.07
857.799	35.5
857.974	19.11
858.148	-21.85
858.323	144.04
858.497	17.07
858.672	51.88
858.846	-30.04
859.02	-17.75
859.195	-27.99
859.369	35.5
859.543	58.03
859.718	41.64
859.892	0.68
860.066	82.6
860.241	62.12
860.415	62.12
860.589	-60.76
860.763	25.26
860.938	4.78
861.112	41.64
861.286	0.68
861.46	29.35
861.634	58.03
861.808	47.79
861.982	25.26
862.157	51.88
862.331	31.4
862.505	23.21
862.679	-21.85
862.853	-15.7
863.027	8.87
863.201	86.7
863.375	86.7
863.549	78.51
863.722	43.69
863.896	55.98
864.07	64.17
864.244	-15.7
864.418	74.41
864.592	60.07
864.766	19.11
864.939	29.35
865.113	80.55
865.287	47.79
865.461	-30.04
865.634	-56.66
865.808	17.07
865.982	43.69
866.156	-19.8
866.329	-52.56
866.503	82.6
866.676	68.27
866.85	101.03
867.024	35.5
867.197	4.78
867.371	74.41
867.544	66.22
867.718	-5.46
867.891	-27.99
868.065	41.64
868.238	37.55
868.412	58.03
868.585	-15.7
868.759	0.68
868.932	58.03
869.105	17.07
869.279	64.17
869.452	-1.37
869.625	19.11
869.799	-21.85
869.972	2.73
870.145	27.31
870.319	35.5
870.492	41.64
870.665	25.26
870.838	-30.04
871.011	0.68
871.185	-7.51
871.358	0.68
871.531	39.59
871.704	25.26
871.877	53.93
872.05	53.93
872.223	12.97
872.396	-1.37
872.569	121.51
872.742	8.87
872.915	84.65
873.088	-34.13
873.261	-81.24
873.434	47.79
873.607	-25.94
873.78	23.21
873.953	74.41
874.126	8.87
874.299	19.11
874.471	-40.28
874.644	23.21
874.817	90.79
874.99	98.99
875.163	-21.85
875.335	-23.89
875.508	49.83
875.681	94.89
875.853	60.07
876.026	35.5
876.199	-7.51
876.371	64.17
876.544	-15.7
876.717	60.07
876.889	41.64
877.062	29.35
877.234	105.13
877.407	-3.41
877.579	0.68
877.752	-3.41
877.924	131.75
878.097	25.26
878.269	0.68
878.442	43.69
878.614	64.17
878.786	58.03
878.959	68.27
879.131	51.88
879.303	-3.41
879.476	-54.61
879.648	51.88
879.82	58.03
879.993	-15.7
880.165	-50.52
880.337	10.92
880.509	0.68
880.681	-3.41
880.854	58.03
881.026	-17.75
881.198	27.31
881.37	43.69
881.542	21.16
881.714	43.69
881.886	-23.89
882.058	19.11
882.23	-15.7
882.402	8.87
882.574	10.92
882.746	66.22
882.918	58.03
883.09	-15.7
883.262	49.83
883.434	33.45
883.606	45.74
883.778	92.84
883.95	-60.76
884.122	41.64
884.293	17.07
884.465	-34.13
884.637	27.31
884.809	-17.75
884.98	2.73
885.152	49.83
885.324	12.97
885.496	45.74
885.667	-32.08
885.839	0.68
886.011	-1.37
886.182	19.11
886.354	29.35
886.525	2.73
886.697	-23.89
886.869	55.98
887.04	12.97
887.212	45.74
887.383	66.22
887.555	17.07
887.726	31.4
887.897	29.35
888.069	-9.56
888.24	68.27
888.412	0.68
888.583	4.78
888.754	41.64
888.926	-9.56
889.097	49.83
889.268	21.16
889.44	58.03
889.611	-23.89
889.782	19.11
889.953	2.73
890.125	-23.89
890.296	-23.89
890.467	55.98
890.638	49.83
890.809	80.55
890.98	86.7
891.151	-32.08
891.323	80.55
891.494	8.87
891.665	4.78
891.836	23.21
892.007	-13.65
892.178	111.27
892.349	-62.8
892.52	-32.08
892.691	17.07
892.862	53.93
893.032	-13.65
893.203	41.64
893.374	-30.04
893.545	8.87
893.716	37.55
893.887	74.41
894.057	25.26
894.228	45.74
894.399	-23.89
894.57	33.45
894.74	-54.61
894.911	-5.46
895.082	-46.42
895.253	33.45
895.423	66.22
895.594	41.64
895.764	60.07
895.935	21.16
896.106	25.26
896.276	35.5
896.447	-7.51
896.617	25.26
896.788	17.07
896.958	0.68
897.129	2.73
897.299	27.31
897.47	4.78
897.64	-32.08
897.81	25.26
897.981	17.07
898.151	-11.61
898.322	43.69
898.492	101.03
898.662	74.41
898.832	74.41
899.003	-7.51
899.173	8.87
899.343	2.73
899.513	-36.18
