Data from USB4F104151__272__14-23-15-547.txt Node

Date: Thu Mar 13 14:23:15 EDT 2025
User: louis
Spectrometer: USB4F10415
Trigger mode: 4
Integration Time (sec): 2.000000E-2
Scans to average: 1
Electric dark correction enabled: true
Nonlinearity correction enabled: false
Boxcar width: 0
XAxis mode: Wavelengths
Number of Pixels in Spectrum: 3648
>>>>>Begin Spectral Data<<<<<
178.204	-156.84
178.424	-156.84
178.644	-156.84
178.864	-101.55
179.084	-124.07
179.304	0.85
179.524	54.1
179.744	-27.82
179.964	62.29
180.184	-58.54
180.404	-11.43
180.624	-9.39
180.844	-13.48
181.064	-33.96
181.283	64.34
181.503	-66.73
181.723	39.76
181.943	-15.53
182.163	21.33
182.383	-38.06
182.602	70.48
182.822	47.96
183.042	90.96
183.262	9.05
183.482	47.96
183.701	43.86
183.921	50
184.141	2.9
184.361	86.87
184.58	-19.63
184.8	37.72
185.02	-17.58
185.239	74.58
185.459	-58.54
185.679	41.81
185.898	-1.19
186.118	25.43
186.338	70.48
186.557	19.29
186.777	15.19
186.997	15.19
187.216	21.33
187.436	72.53
187.655	64.34
187.875	64.34
188.095	17.24
188.314	84.82
188.534	15.19
188.753	-1.19
188.973	13.14
189.192	37.72
189.412	-3.24
189.631	4.95
189.851	-42.15
190.07	-31.91
190.29	-58.54
190.509	-11.43
190.729	21.33
190.948	31.57
191.168	127.83
191.387	35.67
191.607	15.19
191.826	37.72
192.045	41.81
192.265	-17.58
192.484	-11.43
192.704	31.57
192.923	-3.24
193.142	121.68
193.362	68.44
193.581	-19.63
193.8	88.92
194.02	25.43
194.239	29.52
194.458	-27.82
194.678	50
194.897	-36.01
195.116	-7.34
195.335	41.81
195.555	70.48
195.774	4.95
195.993	50
196.212	60.24
196.432	-64.68
196.651	50
196.87	90.96
197.089	80.72
197.308	7
197.528	41.81
197.747	9.05
197.966	62.29
198.185	74.58
198.404	29.52
198.623	72.53
198.842	62.29
199.062	58.2
199.281	7
199.5	15.19
199.719	-19.63
199.938	-13.48
200.157	97.11
200.376	123.73
200.595	58.2
200.814	33.62
201.033	15.19
201.252	29.52
201.471	72.53
201.69	-11.43
201.909	78.68
202.128	7
202.347	41.81
202.566	29.52
202.785	25.43
203.004	37.72
203.223	60.24
203.442	39.76
203.661	-23.72
203.879	-29.87
204.098	127.83
204.317	25.43
204.536	76.63
204.755	0.85
204.974	47.96
205.193	45.91
205.411	121.68
205.63	56.15
205.849	21.33
206.068	0.85
206.287	54.1
206.505	64.34
206.724	25.43
206.943	37.72
207.162	29.52
207.381	21.33
207.599	21.33
207.818	39.76
208.037	-13.48
208.255	23.38
208.474	-27.82
208.693	4.95
208.911	23.38
209.13	-7.34
209.349	-3.24
209.567	47.96
209.786	54.1
210.005	0.85
210.223	103.25
210.442	23.38
210.661	-33.96
210.879	60.24
211.098	29.52
211.316	93.01
211.535	60.24
211.753	54.1
211.972	68.44
212.191	29.52
212.409	-27.82
212.628	27.48
212.846	23.38
213.065	-17.58
213.283	86.87
213.502	9.05
213.72	50
213.938	4.95
214.157	60.24
214.375	-68.78
214.594	9.05
214.812	11.09
215.031	-1.19
215.249	15.19
215.467	54.1
215.686	27.48
215.904	31.57
216.122	-40.11
216.341	17.24
216.559	4.95
216.778	90.96
216.996	39.76
217.214	29.52
217.432	15.19
217.651	-19.63
217.869	31.57
218.087	70.48
218.306	66.39
218.524	-11.43
218.742	4.95
218.96	80.72
219.179	62.29
219.397	119.64
219.615	37.72
219.833	45.91
220.051	-1.19
220.27	86.87
220.488	58.2
220.706	97.11
220.924	7
221.142	-19.63
221.36	0.85
221.578	74.58
221.796	17.24
222.015	-27.82
222.233	0.85
222.451	15.19
222.669	-11.43
222.887	52.05
223.105	74.58
223.323	66.39
223.541	-3.24
223.759	29.52
223.977	27.48
224.195	90.96
224.413	90.96
224.631	15.19
224.849	62.29
225.067	86.87
225.285	9.05
225.503	-23.72
225.721	7
225.939	-1.19
226.157	66.39
226.375	80.72
226.592	-68.78
226.81	11.09
227.028	56.15
227.246	31.57
227.464	74.58
227.682	37.72
227.9	72.53
228.117	39.76
228.335	33.62
228.553	29.52
228.771	58.2
228.989	50
229.206	39.76
229.424	29.52
229.642	-11.43
229.86	43.86
230.077	47.96
230.295	21.33
230.513	70.48
230.731	7
230.948	64.34
231.166	82.77
231.384	74.58
231.601	-17.58
231.819	119.64
232.037	17.24
232.254	27.48
232.472	37.72
232.689	62.29
232.907	41.81
233.125	-58.54
233.342	41.81
233.56	-27.82
233.777	17.24
233.995	31.57
234.213	64.34
234.43	70.48
234.648	-19.63
234.865	15.19
235.083	50
235.3	-1.19
235.518	62.29
235.735	-25.77
235.953	95.06
236.17	105.3
236.388	17.24
236.605	-5.29
236.822	62.29
237.04	27.48
237.257	-23.72
237.475	37.72
237.692	52.05
237.909	82.77
238.127	-3.24
238.344	-19.63
238.562	70.48
238.779	-46.25
238.996	-25.77
239.214	54.1
239.431	23.38
239.648	4.95
239.865	9.05
240.083	70.48
240.3	78.68
240.517	19.29
240.735	11.09
240.952	-19.63
241.169	103.25
241.386	39.76
241.603	29.52
241.821	17.24
242.038	21.33
242.255	19.29
242.472	0.85
242.689	33.62
242.907	43.86
243.124	-17.58
243.341	58.2
243.558	0.85
243.775	29.52
243.992	-50.35
244.209	41.81
244.426	64.34
244.643	68.44
244.86	-3.24
245.078	33.62
245.295	-64.68
245.512	25.43
245.729	15.19
245.946	54.1
246.163	27.48
246.38	82.77
246.597	4.95
246.814	-9.39
247.031	-29.87
247.248	13.14
247.464	54.1
247.681	56.15
247.898	37.72
248.115	33.62
248.332	-1.19
248.549	64.34
248.766	95.06
248.983	37.72
249.2	-11.43
249.417	-9.39
249.633	33.62
249.85	21.33
250.067	-1.19
250.284	-13.48
250.501	37.72
250.717	54.1
250.934	-11.43
251.151	9.05
251.368	41.81
251.585	56.15
251.801	-25.77
252.018	-68.78
252.235	86.87
252.451	-3.24
252.668	-17.58
252.885	72.53
253.102	64.34
253.318	88.92
253.535	-19.63
253.752	23.38
253.968	70.48
254.185	-46.25
254.401	4.95
254.618	15.19
254.835	62.29
255.051	86.87
255.268	-68.78
255.484	-44.2
255.701	-29.87
255.917	62.29
256.134	66.39
256.351	-11.43
256.567	13.14
256.784	2.9
257	-27.82
257.217	62.29
257.433	-7.34
257.65	4.95
257.866	93.01
258.082	9.05
258.299	13.14
258.515	37.72
258.732	70.48
258.948	-3.24
259.165	50
259.381	13.14
259.597	29.52
259.814	-9.39
260.03	0.85
260.246	56.15
260.463	-9.39
260.679	33.62
260.895	31.57
261.112	0.85
261.328	-15.53
261.544	7
261.761	-9.39
261.977	21.33
262.193	-17.58
262.409	45.91
262.626	43.86
262.842	90.96
263.058	0.85
263.274	70.48
263.49	4.95
263.707	113.49
263.923	31.57
264.139	-56.49
264.355	45.91
264.571	23.38
264.787	39.76
265.004	27.48
265.22	54.1
265.436	0.85
265.652	4.95
265.868	0.85
266.084	27.48
266.3	66.39
266.516	-13.48
266.732	25.43
266.948	-27.82
267.164	13.14
267.38	56.15
267.596	29.52
267.812	31.57
268.028	54.1
268.244	-31.91
268.46	80.72
268.676	0.85
268.892	31.57
269.108	25.43
269.324	17.24
269.54	39.76
269.756	4.95
269.972	-52.39
270.188	27.48
270.403	29.52
270.619	72.53
270.835	80.72
271.051	50
271.267	-3.24
271.483	-25.77
271.698	23.38
271.914	95.06
272.13	35.67
272.346	43.86
272.562	11.09
272.777	39.76
272.993	50
273.209	-40.11
273.425	78.68
273.64	-64.68
273.856	-9.39
274.072	-3.24
274.287	-9.39
274.503	86.87
274.719	74.58
274.934	-48.3
275.15	-17.58
275.366	58.2
275.581	-7.34
275.797	27.48
276.012	15.19
276.228	39.76
276.444	-11.43
276.659	78.68
276.875	19.29
277.09	37.72
277.306	-7.34
277.521	17.24
277.737	37.72
277.952	21.33
278.168	76.63
278.383	27.48
278.599	13.14
278.814	41.81
279.03	-19.63
279.245	17.24
279.461	-27.82
279.676	-11.43
279.892	45.91
280.107	-3.24
280.322	-31.91
280.538	31.57
280.753	-1.19
280.969	113.49
281.184	60.24
281.399	45.91
281.615	66.39
281.83	23.38
282.045	15.19
282.26	23.38
282.476	11.09
282.691	58.2
282.906	19.29
283.122	21.33
283.337	25.43
283.552	56.15
283.767	-5.29
283.983	23.38
284.198	29.52
284.413	25.43
284.628	-13.48
284.843	56.15
285.058	-54.44
285.274	9.05
285.489	-15.53
285.704	21.33
285.919	-3.24
286.134	15.19
286.349	0.85
286.564	0.85
286.779	54.1
286.995	-11.43
287.21	7
287.425	47.96
287.64	45.91
287.855	-11.43
288.07	-19.63
288.285	9.05
288.5	-23.72
288.715	54.1
288.93	-27.82
289.145	7
289.36	84.82
289.575	64.34
289.79	0.85
290.004	33.62
290.219	2.9
290.434	17.24
290.649	2.9
290.864	-40.11
291.079	58.2
291.294	-33.96
291.509	54.1
291.724	50
291.938	23.38
292.153	25.43
292.368	-58.54
292.583	19.29
292.798	25.43
293.012	35.67
293.227	37.72
293.442	47.96
293.657	17.24
293.871	-9.39
294.086	21.33
294.301	97.11
294.516	140.12
294.73	99.16
294.945	37.72
295.16	62.29
295.374	70.48
295.589	-5.29
295.804	2.9
296.018	56.15
296.233	37.72
296.447	39.76
296.662	-29.87
296.877	11.09
297.091	41.81
297.306	-11.43
297.52	13.14
297.735	50
297.949	-1.19
298.164	19.29
298.378	74.58
298.593	7
298.807	-13.48
299.022	31.57
299.236	52.05
299.451	23.38
299.665	-3.24
299.88	4.95
300.094	33.62
300.309	17.24
300.523	64.34
300.737	13.14
300.952	-15.53
301.166	39.76
301.381	70.48
301.595	31.57
301.809	-19.63
302.024	13.14
302.238	-11.43
302.452	-27.82
302.667	17.24
302.881	33.62
303.095	43.86
303.309	-27.82
303.524	95.06
303.738	-3.24
303.952	47.96
304.166	21.33
304.381	-25.77
304.595	70.48
304.809	21.33
305.023	27.48
305.237	-27.82
305.452	-19.63
305.666	86.87
305.88	54.1
306.094	60.24
306.308	13.14
306.522	13.14
306.736	50
306.95	7
307.164	111.44
307.379	2.9
307.593	95.06
307.807	88.92
308.021	80.72
308.235	33.62
308.449	-31.91
308.663	-52.39
308.877	133.97
309.091	25.43
309.305	45.91
309.519	4.95
309.733	29.52
309.947	-11.43
310.161	84.82
310.374	17.24
310.588	70.48
310.802	17.24
311.016	56.15
311.23	103.25
311.444	-13.48
311.658	47.96
311.872	70.48
312.085	70.48
312.299	90.96
312.513	95.06
312.727	37.72
312.941	45.91
313.154	90.96
313.368	-21.67
313.582	-66.73
313.796	21.33
314.009	58.2
314.223	45.91
314.437	15.19
314.651	7
314.864	-1.19
315.078	31.57
315.292	-5.29
315.505	-19.63
315.719	33.62
315.933	13.14
316.146	9.05
316.36	-33.96
316.573	39.76
316.787	62.29
317.001	15.19
317.214	37.72
317.428	7
317.641	-64.68
317.855	78.68
318.068	54.1
318.282	13.14
318.495	19.29
318.709	111.44
318.922	52.05
319.136	64.34
319.349	88.92
319.563	9.05
319.776	152.4
319.99	15.19
320.203	66.39
320.417	50
320.63	-33.96
320.843	58.2
321.057	78.68
321.27	15.19
321.483	33.62
321.697	111.44
321.91	45.91
322.124	45.91
322.337	37.72
322.55	-5.29
322.763	7
322.977	19.29
323.19	-23.72
323.403	39.76
323.617	103.25
323.83	37.72
324.043	47.96
324.256	27.48
324.469	-66.73
324.683	99.16
324.896	56.15
325.109	33.62
325.322	37.72
325.535	17.24
325.748	25.43
325.962	2.9
326.175	21.33
326.388	54.1
326.601	50
326.814	31.57
327.027	2.9
327.24	25.43
327.453	80.72
327.666	4.95
327.879	41.81
328.092	54.1
328.305	68.44
328.518	35.67
328.731	37.72
328.944	23.38
329.157	54.1
329.37	-11.43
329.583	131.92
329.796	74.58
330.009	15.19
330.222	50
330.435	33.62
330.648	72.53
330.861	45.91
331.073	-56.49
331.286	60.24
331.499	45.91
331.712	13.14
331.925	13.14
332.138	13.14
332.35	78.68
332.563	-1.19
332.776	13.14
332.989	13.14
333.202	7
333.414	31.57
333.627	70.48
333.84	35.67
334.053	21.33
334.265	-3.24
334.478	29.52
334.691	41.81
334.903	45.91
335.116	15.19
335.329	13.14
335.541	119.64
335.754	86.87
335.966	37.72
336.179	-13.48
336.392	82.77
336.604	50
336.817	62.29
337.029	90.96
337.242	54.1
337.454	97.11
337.667	45.91
337.88	107.35
338.092	62.29
338.305	9.05
338.517	-44.2
338.729	109.4
338.942	70.48
339.154	-31.91
339.367	-11.43
339.579	21.33
339.792	-25.77
340.004	29.52
340.217	17.24
340.429	29.52
340.641	-17.58
340.854	47.96
341.066	-58.54
341.278	78.68
341.491	60.24
341.703	50
341.915	7
342.128	9.05
342.34	-33.96
342.552	9.05
342.764	23.38
342.977	4.95
343.189	-11.43
343.401	37.72
343.613	11.09
343.826	86.87
344.038	52.05
344.25	7
344.462	23.38
344.674	50
344.886	72.53
345.099	70.48
345.311	78.68
345.523	27.48
345.735	-9.39
345.947	23.38
346.159	54.1
346.371	21.33
346.583	62.29
346.795	105.3
347.007	62.29
347.219	62.29
347.431	-19.63
347.643	21.33
347.855	45.91
348.067	138.07
348.279	21.33
348.491	-25.77
348.703	13.14
348.915	103.25
349.127	31.57
349.339	56.15
349.551	-27.82
349.763	88.92
349.975	21.33
350.187	62.29
350.399	88.92
350.61	-9.39
350.822	66.39
351.034	90.96
351.246	41.81
351.458	80.72
351.669	-33.96
351.881	47.96
352.093	45.91
352.305	0.85
352.517	66.39
352.728	86.87
352.94	-9.39
353.152	-5.29
353.363	95.06
353.575	13.14
353.787	21.33
353.999	15.19
354.21	23.38
354.422	-46.25
354.633	62.29
354.845	131.92
355.057	41.81
355.268	60.24
355.48	15.19
355.692	33.62
355.903	-27.82
356.115	0.85
356.326	11.09
356.538	95.06
356.749	35.67
356.961	66.39
357.172	-15.53
357.384	45.91
357.595	95.06
357.807	25.43
358.018	2.9
358.23	62.29
358.441	56.15
358.653	47.96
358.864	23.38
359.075	-7.34
359.287	39.76
359.498	144.21
359.709	97.11
359.921	80.72
360.132	129.88
360.344	13.14
360.555	113.49
360.766	113.49
360.977	-60.59
361.189	23.38
361.4	7
361.611	105.3
361.823	74.58
362.034	35.67
362.245	86.87
362.456	50
362.667	86.87
362.879	45.91
363.09	-9.39
363.301	54.1
363.512	54.1
363.723	-9.39
363.935	78.68
364.146	70.48
364.357	78.68
364.568	56.15
364.779	17.24
364.99	72.53
365.201	29.52
365.412	95.06
365.623	7
365.834	15.19
366.045	66.39
366.256	95.06
366.467	29.52
366.678	13.14
366.889	70.48
367.1	7
367.311	21.33
367.522	56.15
367.733	29.52
367.944	111.44
368.155	-17.58
368.366	72.53
368.577	66.39
368.788	29.52
368.999	-11.43
369.209	62.29
369.42	123.73
369.631	86.87
369.842	62.29
370.053	21.33
370.264	152.4
370.474	21.33
370.685	-17.58
370.896	9.05
371.107	62.29
371.317	4.95
371.528	45.91
371.739	148.31
371.95	31.57
372.16	50
372.371	31.57
372.582	-25.77
372.792	15.19
373.003	78.68
373.214	-13.48
373.424	21.33
373.635	-19.63
373.846	123.73
374.056	37.72
374.267	-42.15
374.477	23.38
374.688	19.29
374.898	74.58
375.109	4.95
375.319	72.53
375.53	62.29
375.74	17.24
375.951	64.34
376.161	99.16
376.372	99.16
376.582	119.64
376.793	107.35
377.003	-15.53
377.214	95.06
377.424	62.29
377.635	80.72
377.845	9.05
378.055	62.29
378.266	60.24
378.476	33.62
378.686	56.15
378.897	25.43
379.107	54.1
379.317	39.76
379.528	66.39
379.738	88.92
379.948	-27.82
380.158	41.81
380.369	52.05
380.579	56.15
380.789	88.92
380.999	37.72
381.21	39.76
381.42	142.16
381.63	-11.43
381.84	45.91
382.05	45.91
382.261	115.54
382.471	23.38
382.681	50
382.891	64.34
383.101	-7.34
383.311	37.72
383.521	-11.43
383.731	62.29
383.941	70.48
384.151	19.29
384.361	43.86
384.571	47.96
384.781	127.83
384.991	-52.39
385.201	72.53
385.411	37.72
385.621	103.25
385.831	-1.19
386.041	72.53
386.251	13.14
386.461	129.88
386.671	31.57
386.881	31.57
387.091	39.76
387.301	4.95
387.511	7
387.72	78.68
387.93	11.09
388.14	45.91
388.35	9.05
388.56	80.72
388.769	-31.91
388.979	62.29
389.189	115.54
389.399	4.95
389.609	99.16
389.818	115.54
390.028	45.91
390.238	105.3
390.447	50
390.657	29.52
390.867	64.34
391.076	-31.91
391.286	97.11
391.496	52.05
391.705	-15.53
391.915	146.26
392.125	103.25
392.334	70.48
392.544	37.72
392.753	66.39
392.963	39.76
393.172	138.07
393.382	37.72
393.591	152.4
393.801	29.52
394.01	13.14
394.22	68.44
394.429	64.34
394.639	33.62
394.848	86.87
395.058	37.72
395.267	50
395.477	50
395.686	97.11
395.895	88.92
396.105	95.06
396.314	21.33
396.524	86.87
396.733	25.43
396.942	107.35
397.152	105.3
397.361	140.12
397.57	31.57
397.78	131.92
397.989	88.92
398.198	168.79
398.407	111.44
398.617	88.92
398.826	33.62
399.035	76.63
399.244	58.2
399.453	117.59
399.663	52.05
399.872	136.02
400.081	37.72
400.29	29.52
400.499	101.2
400.708	176.98
400.917	76.63
401.127	54.1
401.336	74.58
401.545	138.07
401.754	115.54
401.963	164.69
402.172	35.67
402.381	97.11
402.59	64.34
402.799	154.45
403.008	101.2
403.217	172.88
403.426	52.05
403.635	162.64
403.844	140.12
404.053	138.07
404.262	193.36
404.471	160.59
404.68	209.75
404.888	144.21
405.097	189.27
405.306	170.83
405.515	211.79
405.724	158.55
405.933	195.41
406.142	258.9
406.35	176.98
406.559	201.55
406.768	164.69
406.977	195.41
407.185	174.93
407.394	168.79
407.603	203.6
407.812	332.62
408.02	187.22
408.229	209.75
408.438	232.27
408.646	244.56
408.855	262.99
409.064	258.9
409.272	252.75
409.481	303.95
409.69	342.86
409.898	308.05
410.107	332.62
410.315	373.58
410.524	406.35
410.733	369.49
410.941	342.86
411.15	457.55
411.358	396.11
411.567	521.04
411.775	443.21
411.984	504.65
412.192	482.13
412.401	496.46
412.609	461.65
412.818	467.79
413.026	545.61
413.234	496.46
413.443	598.86
413.651	600.91
413.86	623.44
414.068	611.15
414.276	621.39
414.485	652.11
414.693	709.45
414.901	809.8
415.11	717.64
415.318	721.74
415.526	723.79
415.734	766.79
415.943	817.99
416.151	793.42
416.359	785.23
416.567	865.1
416.776	961.35
416.984	949.06
417.192	1073.99
417.4	1016.65
417.608	1100.61
417.817	1086.28
418.025	1188.68
418.233	1217.35
418.441	1160
418.649	1168.2
418.857	1338.18
419.065	1405.76
419.273	1241.92
419.481	1426.24
419.689	1469.25
419.897	1506.11
420.105	1661.76
420.313	1594.17
420.521	1719.1
420.729	1749.82
420.937	1774.39
421.145	1725.24
421.353	1987.38
421.561	2009.91
421.769	2003.77
421.977	2126.64
422.185	2102.07
422.393	2153.27
422.601	2429.74
422.809	2241.33
423.017	2448.18
423.224	2532.14
423.432	2589.49
423.64	2655.02
423.848	2767.66
424.056	2806.57
424.263	2902.83
424.471	3035.94
424.679	2980.65
424.887	3158.82
425.094	3142.44
425.302	3332.9
425.51	3445.54
425.718	3576.61
425.925	3535.65
426.133	3625.76
426.341	3896.09
426.548	4088.6
426.756	4119.32
426.964	4217.62
427.171	4360.98
427.379	4590.35
427.586	4608.78
427.794	4719.37
428.001	4889.35
428.209	5165.83
428.417	4950.79
428.624	5452.55
428.832	5247.75
429.039	5411.59
429.247	5362.44
429.454	6036.22
429.662	6273.78
429.869	5880.57
430.076	6408.95
430.284	6187.77
430.491	6185.72
430.699	6808.3
430.906	6615.79
431.114	6841.07
431.321	7150.31
431.528	7164.65
431.736	7609.06
431.943	7998.17
432.15	7678.69
432.358	7852.77
432.565	8379.09
432.772	8159.96
432.979	8489.68
433.187	8764.11
433.394	8841.93
433.601	9401.03
433.808	9489.09
434.016	9429.7
434.223	9888.45
434.43	10474.17
434.637	10183.35
434.844	10859.18
435.052	11061.93
435.259	10965.68
435.466	11145.9
435.673	10879.66
435.88	11748
436.087	12229.27
436.294	12264.09
436.501	11842.21
436.708	12186.27
436.915	12460.7
437.122	13228.68
437.329	12907.15
437.537	13347.47
437.743	13681.28
437.95	13644.42
438.157	14344.83
438.364	14750.32
438.571	14850.67
438.778	15104.62
438.985	16415.32
439.192	15456.87
439.399	16054.88
439.606	15786.6
439.813	16829.01
440.02	17695.3
440.227	17160.78
440.433	17447.5
440.64	17680.97
440.847	17719.88
441.054	18248.25
441.261	19141.17
441.467	18899.51
441.674	19227.18
441.881	19970.6
442.088	20107.81
442.294	19780.14
442.501	20255.26
442.708	20863.51
442.914	21619.21
443.121	22454.78
443.328	21889.54
443.534	23079.41
443.741	22727.16
443.948	22417.92
444.154	24136.17
444.361	23765.48
444.568	23953.9
444.774	24275.43
444.981	24289.76
445.187	24789.47
445.394	26044.87
445.6	25649.61
445.807	28043.69
446.013	26931.64
446.22	27554.22
446.426	28021.16
446.633	29135.26
446.839	29862.29
447.046	28320.17
447.252	30394.76
447.459	30181.77
447.665	29966.73
447.871	31396.21
448.078	32534.88
448.284	31089.02
448.491	31787.38
448.697	33212.76
448.903	33546.58
449.11	33687.89
449.316	33024.35
449.522	33769.81
449.728	34836.8
449.935	35512.63
450.141	35322.17
450.347	36051.25
450.553	34603.33
450.76	35074.37
450.966	36311.34
451.172	35948.85
451.378	36768.04
451.584	36094.25
451.791	37304.6
451.997	37277.98
452.203	37466.39
452.409	37830.93
452.615	37677.33
452.821	35830.07
453.027	35457.34
453.233	37798.16
453.44	36227.37
453.646	36487.46
453.852	36651.3
454.058	37335.32
454.264	36434.22
454.47	37161.25
454.676	36067.63
454.882	37683.48
455.088	34382.15
455.294	34906.43
455.5	35305.79
455.705	35807.54
455.911	34249.03
456.117	33227.1
456.323	33153.37
456.529	31154.55
456.735	32616.8
456.941	31885.68
457.147	31779.18
457.352	30777.73
457.558	30321.03
457.764	30513.54
457.97	29677.97
458.176	29301.14
458.381	29084.06
458.587	28096.94
458.793	27769.26
458.999	26513.86
459.204	28244.39
459.41	27265.46
459.616	25635.28
459.821	25749.96
460.027	25965
460.233	24984.02
460.438	23957.99
460.644	24050.15
460.85	23083.51
461.055	22950.39
461.261	22567.42
461.466	21013.01
461.672	20488.73
461.878	21832.2
462.083	20431.39
462.289	19972.64
462.494	19874.34
462.7	19163.7
462.905	18500.16
463.111	19026.48
463.316	19227.18
463.522	18907.7
463.727	18608.7
463.932	18756.15
464.138	18479.68
464.343	18844.21
464.549	18008.64
464.754	18541.11
464.959	18668.09
465.165	18106.95
465.37	17453.64
465.575	17242.7
465.781	18094.66
465.986	17926.72
466.191	17416.78
466.397	16964.18
466.602	16263.77
466.807	16720.47
467.012	16736.85
467.218	16638.55
467.423	16446.04
467.628	16630.36
467.833	16988.75
468.038	16595.54
468.244	16257.63
468.449	16939.6
468.654	16130.66
468.859	16114.27
469.064	15858.28
469.269	15372.91
469.474	15649.38
469.679	15708.77
469.885	15377
470.09	15585.9
470.295	15549.03
470.5	15078
470.705	15235.69
470.91	14848.63
471.115	14678.65
471.32	15047.28
471.525	14750.32
471.73	14541.43
471.935	14553.72
472.139	13798.02
472.344	14105.21
472.549	14088.83
472.754	13648.52
472.959	13582.98
473.164	13509.26
473.369	13263.5
473.574	13660.8
473.778	13505.16
473.983	13163.15
474.188	13449.86
474.393	12497.56
474.598	12878.48
474.802	12495.51
475.007	12542.61
475.212	12597.91
475.417	12319.39
475.621	12300.95
475.826	12343.96
476.031	12096.16
476.235	11704.99
476.44	11948.7
476.645	11449
476.849	11834.02
477.054	11451.05
477.259	11229.87
477.463	11309.74
477.668	11039.4
477.872	11170.47
478.077	11006.64
478.282	10795.7
478.486	10728.11
478.691	10834.61
478.895	10724.02
479.1	10511.03
479.304	10582.71
479.509	9949.89
479.713	10513.08
479.918	10357.43
480.122	10066.62
480.326	10248.89
480.531	10191.55
480.735	10015.42
480.94	9906.88
481.144	10220.22
481.348	9753.28
481.553	10001.08
481.757	9704.13
481.961	10068.67
482.166	9960.13
482.37	9870.01
482.574	9673.41
482.778	9818.82
482.983	10228.41
483.187	9956.03
483.391	9880.25
483.595	9763.52
483.8	9708.23
484.004	9548.48
484.208	9913.02
484.412	9763.52
484.616	9605.83
484.821	9876.16
485.025	9546.44
485.229	9853.63
485.433	9681.6
485.637	9755.33
485.841	9648.83
486.045	9689.79
486.249	9745.09
486.453	9644.74
486.657	9724.61
486.861	9853.63
487.065	9370.31
487.269	9779.9
487.473	9562.82
487.677	9859.77
487.881	9861.82
488.085	9657.03
488.289	9884.35
488.493	9763.52
488.697	9956.03
488.901	9689.79
489.105	9917.12
489.309	9953.98
489.512	9892.54
489.716	9708.23
489.92	9874.11
490.124	9753.28
490.328	10052.28
490.531	10001.08
490.735	9966.27
490.939	10035.9
491.143	9943.74
491.346	9947.84
491.55	10369.72
491.754	10148.54
491.958	10400.44
492.161	10244.79
492.365	10109.63
492.569	10246.84
492.772	10285.75
492.976	10216.12
493.18	10445.49
493.383	10750.64
493.587	10724.02
493.79	10705.59
493.994	10482.36
494.197	10844.85
494.401	10875.57
494.605	10724.02
494.808	11172.52
495.012	10996.4
495.215	10994.35
495.419	11121.32
495.622	11213.48
495.825	11332.26
496.029	11385.51
496.232	11449
496.436	11457.19
496.639	11809.44
496.843	11793.06
497.046	12171.93
497.249	11895.46
497.453	12171.93
497.656	12251.8
497.859	12335.77
498.063	12376.73
498.266	12731.03
498.469	12608.15
498.673	12911.25
498.876	12898.96
499.079	13183.63
499.282	12761.75
499.485	13400.71
499.689	13529.73
499.892	13681.28
500.095	13666.95
500.298	13904.51
500.501	13884.03
500.705	14135.93
500.908	14467.7
501.111	14410.36
501.314	14770.8
501.517	14983.79
501.72	15110.77
501.923	14817.91
502.126	15415.91
502.329	15395.43
502.532	15794.79
502.735	15645.29
502.938	16114.27
503.141	16011.87
503.344	16357.98
503.547	16665.18
503.75	16554.58
503.953	16949.84
504.156	17019.47
504.359	17242.7
504.562	17125.97
504.765	17738.31
504.968	17875.52
505.17	17924.68
505.373	18072.13
505.576	18422.33
505.779	18620.99
505.982	18811.45
506.185	19008.05
506.387	18987.57
506.59	19280.43
506.793	19552.81
506.996	19401.26
507.198	20156.96
507.401	20029.99
507.604	19966.5
507.807	20652.57
508.009	20711.96
508.212	21010.96
508.415	21047.83
508.617	21623.31
508.82	21277.2
509.022	21142.03
509.225	21789.19
509.428	22018.57
509.63	22327.81
509.833	22606.33
510.035	22977.01
510.238	23169.52
510.44	23458.29
510.643	23695.85
510.845	24111.59
511.048	23554.54
511.25	23960.04
511.453	24017.38
511.655	25256.4
511.858	25084.37
512.06	24992.22
512.262	25346.51
512.465	25410
512.667	25958.86
512.87	26145.22
513.072	25848.27
513.274	26554.82
513.477	27169.21
513.679	26960.31
513.881	27490.74
514.084	27744.69
514.286	27408.82
514.488	27967.91
514.69	28481.95
514.893	28899.74
515.095	28473.76
515.297	29114.78
515.499	29178.26
515.701	29671.82
515.904	30060.94
516.106	30046.6
516.308	30411.14
516.51	30558.6
516.712	31123.83
516.914	31089.02
517.116	32061.8
517.318	31879.53
517.52	32156.01
517.722	32094.57
517.925	32260.46
518.127	33079.64
518.329	33016.16
518.531	33034.59
518.733	33728.85
518.935	34136.4
519.136	33915.22
519.338	34363.72
519.54	34453.83
519.742	34847.04
519.944	34666.82
520.146	35612.98
520.348	35901.75
520.55	35813.68
520.752	36268.33
520.954	36677.93
521.155	36442.41
521.357	37194.01
521.559	37144.86
521.761	37814.55
521.963	37732.63
522.164	37894.42
522.366	38381.84
522.568	38287.63
522.77	38869.25
522.971	38924.55
523.173	38811.91
523.375	39319.81
523.576	39516.41
523.778	39342.33
523.98	39844.09
524.181	39985.4
524.383	40507.63
524.584	40624.36
524.786	40560.87
524.988	40571.11
525.189	41212.13
525.391	41427.17
525.592	41629.91
525.794	42008.79
525.995	41963.73
526.197	41834.71
526.398	41998.55
526.6	42285.26
526.801	42541.26
527.003	42340.56
527.204	42715.34
527.406	42678.47
527.607	42864.84
527.808	43133.12
528.01	42311.89
528.211	42707.15
528.412	43919.54
528.614	43458.75
528.815	44011.7
529.016	43753.66
529.218	43718.84
529.419	43641.02
529.62	43694.27
529.822	43972.79
530.023	43794.62
530.224	43763.9
530.425	43882.68
530.626	43796.67
530.828	43681.98
531.029	44650.67
531.23	44310.71
531.431	43991.22
531.632	44345.52
531.833	44134.58
532.035	44089.52
532.236	44236.98
532.437	44523.69
532.638	44239.03
532.839	44886.18
533.04	44187.83
533.241	44486.83
533.442	44687.53
533.643	44622
533.844	44212.4
534.045	44447.92
534.246	44124.34
534.447	44277.94
534.648	44531.89
534.849	44327.09
535.05	44132.53
535.251	44331.18
535.451	44394.67
535.652	44617.9
535.853	44300.47
536.054	44689.58
536.255	44648.62
536.456	43952.31
536.657	44982.44
536.857	44234.93
537.058	44136.63
537.259	44863.66
537.46	44781.74
537.66	43919.54
537.861	44654.76
538.062	43970.74
538.263	44460.21
538.463	44347.57
538.664	44062.9
538.865	44443.82
539.065	44613.8
539.266	43641.02
539.466	43886.78
539.667	43851.96
539.868	44406.96
540.068	44259.51
540.269	44099.76
540.469	44097.72
540.67	44212.4
540.87	43827.38
541.071	43835.58
541.271	44331.18
541.472	43786.43
541.672	43870.39
541.873	43425.98
542.073	43520.19
542.274	44122.29
542.474	43653.31
542.675	43370.69
542.875	44222.64
543.075	43802.81
543.276	43657.4
543.476	44239.03
543.676	43698.36
543.877	43724.99
544.077	43878.58
544.277	43870.39
544.478	43479.23
544.678	44257.46
544.878	43788.47
545.078	43755.71
545.279	43299.01
545.479	43638.97
545.679	43813.05
545.879	43483.33
546.079	43552.96
546.28	43702.46
546.48	43122.88
546.68	43706.55
546.88	43460.8
547.08	43667.64
547.28	43428.03
547.48	42817.74
547.68	43694.27
547.88	43354.3
548.081	43489.47
548.281	43395.26
548.481	43077.83
548.681	43514.05
548.881	43475.13
549.081	43243.71
549.28	43165.89
549.48	43675.83
549.68	43153.6
549.88	43970.74
550.08	43047.11
550.28	43311.3
550.48	42975.43
550.68	43751.61
550.88	43442.37
551.08	43475.13
551.279	43294.91
551.479	43270.34
551.679	43401.41
551.879	43114.69
552.079	43718.84
552.278	42936.52
552.478	43458.75
552.678	43036.87
552.878	43667.64
553.077	43149.51
553.277	42600.65
553.477	43704.51
553.676	42817.74
553.876	43122.88
554.076	43067.59
554.275	43452.61
554.475	42668.23
554.674	43253.95
554.874	43376.83
555.074	42977.48
555.273	43043.01
555.473	43305.15
555.672	43186.37
555.872	42895.56
556.071	42957
556.271	43137.22
556.47	43106.5
556.67	42772.68
556.869	42682.57
557.068	42813.64
557.268	42713.29
557.467	42823.88
557.667	42936.52
557.866	42707.15
558.065	43022.53
558.265	42453.2
558.464	42512.59
558.663	42805.45
558.863	42227.92
559.062	42895.56
559.261	42127.57
559.461	42778.82
559.66	42395.85
559.859	42236.11
560.058	42238.16
560.258	42500.3
560.457	41703.64
560.656	42445.01
560.855	41926.87
561.054	42266.83
561.253	41890.01
561.453	41840.85
561.652	42399.95
561.851	42191.06
562.05	41875.67
562.249	41466.08
562.448	42272.98
562.647	41801.94
562.846	41660.63
563.045	42008.79
563.244	41310.43
563.443	41824.47
563.642	41248.99
563.841	41504.99
564.04	41197.79
564.239	41490.65
564.438	40937.7
564.637	41279.71
564.836	41400.54
565.035	40855.78
565.234	41144.55
565.432	40712.42
565.631	41052.39
565.83	40863.97
566.029	40464.62
566.228	40511.72
566.427	40644.84
566.625	40696.04
566.824	39905.52
567.023	40487.15
567.222	39930.1
567.42	40481
567.619	40241.39
567.818	39563.51
568.016	39850.23
568.215	40079.6
568.414	39870.71
568.612	40069.36
568.811	39559.42
569.01	39796.98
569.208	39137.54
569.407	39379.2
569.605	39356.67
569.804	39362.81
570.002	39176.45
570.201	38951.17
570.4	38727.94
570.598	38781.19
570.797	38301.96
570.995	38662.41
571.193	38437.13
571.392	38785.29
571.59	38131.98
571.789	38277.39
571.987	38226.19
572.186	37902.61
572.384	38033.68
572.582	38306.06
572.781	38160.66
572.979	37247.26
573.177	37779.73
573.376	37785.88
573.574	37464.35
573.772	37468.44
573.971	36886.82
574.169	36970.79
574.367	37005.6
574.565	37206.3
574.763	36847.91
574.962	36950.31
575.16	36806.95
575.358	36774.18
575.556	36129.07
575.754	37165.34
575.952	36147.5
576.151	36665.64
576.349	35858.74
576.547	36178.22
576.745	36544.81
576.943	35957.04
577.141	36258.09
577.339	35805.49
577.537	35301.69
577.735	35930.42
577.933	35359.03
578.131	35787.06
578.329	35324.22
578.527	35088.7
578.725	35172.67
578.923	35467.58
579.121	35012.93
579.319	34941.25
579.516	35074.37
579.714	34996.54
579.912	34849.09
580.11	34761.03
580.308	34632
580.506	34754.88
580.704	33943.89
580.901	34597.19
581.099	34359.63
581.297	34113.87
581.495	33986.89
581.692	33835.35
581.89	33804.63
582.088	34169.16
582.285	33810.77
582.483	33902.93
582.681	33593.68
582.878	33309.02
583.076	33147.23
583.274	33573.21
583.471	32971.1
583.669	33321.3
583.866	32514.41
584.064	33120.6
584.262	32549.22
584.459	32971.1
584.657	32366.95
584.854	33157.47
585.052	31965.55
585.249	32649.57
585.447	32878.94
585.644	31916.4
585.841	32514.41
586.039	32192.87
586.236	31891.82
586.434	31596.92
586.631	31584.63
586.828	31691.12
587.026	31736.18
587.223	31484.28
587.42	31596.92
587.618	31533.43
587.815	31039.87
588.012	31232.38
588.21	31164.79
588.407	31308.15
588.604	31306.1
588.801	30951.81
588.999	30841.21
589.196	30957.95
589.393	30945.66
589.59	30691.71
589.787	30372.23
589.984	30179.72
590.182	29886.86
590.379	29979.02
590.576	30261.64
590.773	30448
590.97	29680.02
591.167	30114.19
591.364	29657.49
591.561	29733.26
591.758	29188.5
591.955	29567.38
592.152	29737.36
592.349	29569.43
592.546	29358.49
592.743	29542.8
592.94	29000.09
593.137	29090.2
593.334	29258.13
593.531	28766.62
593.727	29002.14
593.924	29030.81
594.121	28330.41
594.318	28578.21
594.515	28045.74
594.712	28342.69
594.908	28119.46
595.105	28203.43
595.302	28217.77
595.499	28336.55
595.696	28363.17
595.892	27998.63
596.089	28076.46
596.286	28017.07
596.482	27814.32
596.679	27589.04
596.876	27779.5
597.072	27181.49
597.269	27378.1
597.466	27179.45
597.662	27374
597.859	27228.6
598.055	27255.22
598.252	27115.96
598.448	26915.26
598.645	26698.17
598.841	26646.97
599.038	26802.62
599.234	26868.16
599.431	26450.37
599.627	26730.94
599.824	26606.02
600.02	26474.95
600.217	26427.84
600.413	26270.15
600.609	26085.83
600.806	25878.99
601.002	26194.37
601.198	26065.35
601.395	25625.04
601.591	25897.42
601.787	26044.87
601.984	25815.5
602.18	25762.25
602.376	25696.72
602.572	25477.58
602.769	25479.63
602.965	25024.98
603.161	25358.8
603.357	25051.61
603.553	24994.26
603.75	25162.2
603.946	24861.15
604.142	25141.72
604.338	24594.91
604.534	24734.17
604.73	24719.84
604.926	24572.38
605.122	24498.66
605.318	24418.78
605.514	24242.66
605.71	24013.29
605.906	24650.21
606.102	24330.72
606.298	24185.32
606.494	24152.55
606.69	24093.16
606.886	23912.94
607.082	23689.71
607.278	24017.38
607.474	23630.32
607.67	24017.38
607.866	23351.79
608.062	23740.91
608.257	23550.45
608.453	23446
608.649	23927.27
608.845	23214.58
609.041	23153.14
609.236	23372.27
609.432	23548.4
609.628	23243.25
609.824	23167.48
610.019	23144.95
610.215	22948.34
610.411	23261.68
610.606	22954.49
610.802	23159.28
610.998	22886.9
611.193	23136.76
611.389	22817.27
611.584	23065.08
611.78	22583.8
611.976	22684.16
612.171	22614.52
612.367	22833.66
612.562	22569.47
612.758	22168.07
612.953	22608.38
613.149	22690.3
613.344	22262.27
613.539	22606.33
613.735	22254.08
613.93	22346.24
614.126	22014.47
614.321	22440.45
614.517	22190.59
614.712	22362.62
614.907	22215.17
615.103	22469.12
615.298	22020.61
615.493	22151.68
615.688	21699.08
615.884	22225.41
616.079	21774.86
616.274	21672.46
616.47	21719.56
616.665	21619.21
616.86	21553.68
617.055	21924.36
617.25	21498.38
617.445	21559.82
617.641	20947.48
617.836	21520.91
618.031	21209.62
618.226	21467.66
618.421	21039.64
618.616	21236.24
618.811	20701.72
619.006	21115.41
619.201	20795.93
619.396	20775.45
619.591	20709.91
619.786	20634.14
619.981	20283.94
620.176	20554.27
620.371	20316.7
620.566	20654.62
620.761	20234.78
620.956	20263.46
621.151	20066.85
621.346	20109.86
621.541	19782.18
621.735	19978.79
621.93	19577.39
622.125	19417.65
622.32	19309.1
622.515	19436.08
622.709	19300.91
622.904	19063.35
623.099	19206.7
623.294	19120.69
623.488	18879.03
623.683	19132.98
623.878	18889.27
624.072	18598.46
624.267	18471.48
624.462	18573.88
624.656	18428.48
624.851	18620.99
625.046	18375.23
625.24	18297.41
625.435	17877.57
625.629	17816.13
625.824	17879.62
626.018	17553.99
626.213	17310.29
626.407	17617.48
626.602	17519.18
626.796	17201.74
626.991	17304.14
627.185	17001.04
627.38	17076.82
627.574	16962.13
627.768	16769.62
627.963	16669.27
628.157	16460.38
628.352	16710.23
628.546	16400.99
628.74	16312.92
628.935	16032.35
629.129	16192.09
629.323	16089.7
629.517	16198.24
629.712	16040.54
629.906	16054.88
630.1	15536.74
630.294	15751.78
630.489	15630.95
630.683	15975.01
630.877	15671.91
631.071	15491.69
631.265	15350.38
631.459	15350.38
631.653	15121.01
631.848	15075.95
632.042	14848.63
632.236	14940.79
632.43	14815.86
632.624	14971.5
632.818	14738.04
633.012	14465.66
633.206	14389.88
633.4	14652.02
633.594	14430.84
633.788	14406.27
633.982	14541.43
634.176	14469.75
634.369	14320.25
634.563	14097.02
634.757	13996.67
634.951	14031.49
635.145	13902.47
635.339	14033.54
635.533	13400.71
635.726	13666.95
635.92	13589.13
636.114	13513.35
636.308	13326.99
636.501	13460.1
636.695	13333.13
636.889	13171.34
637.083	13120.14
637.276	13206.16
637.47	12833.43
637.664	13054.61
637.857	12849.81
638.051	12935.82
638.244	12622.48
638.438	12651.16
638.632	12485.27
638.825	12640.92
639.019	12423.83
639.212	12370.58
639.406	12389.02
639.599	12075.68
639.793	12083.87
639.986	11969.18
640.18	12221.08
640.373	12198.56
640.567	11696.8
640.76	11825.82
640.954	11674.28
641.147	11645.6
641.34	11737.76
641.534	11496.1
641.727	11399.85
641.92	11500.2
642.114	11303.59
642.307	11240.11
642.5	11287.21
642.694	11012.78
642.887	11104.94
643.08	11027.12
643.273	11010.73
643.467	10992.3
643.66	10762.93
643.853	10760.88
644.046	10785.46
644.239	10699.44
644.432	10662.58
644.626	10433.21
644.819	10416.82
645.012	10234.55
645.205	10590.9
645.398	10427.06
645.591	10433.21
645.784	10277.56
645.977	10140.35
646.17	10212.03
646.363	9976.51
646.556	9859.77
646.749	9857.73
646.942	9980.61
647.135	10027.71
647.328	9884.35
647.521	9820.86
647.714	9439.94
647.907	9722.56
648.099	9558.72
648.292	9624.26
648.485	9501.38
648.678	9376.45
648.871	9466.56
649.064	9243.34
649.256	9376.45
649.449	9091.79
649.642	9218.76
649.835	9104.07
650.027	9126.6
650.22	9214.66
650.413	9005.77
650.605	8938.19
650.798	8823.5
650.991	8858.32
651.183	8809.17
651.376	8841.93
651.568	8815.31
651.761	8622.8
651.954	8657.62
652.146	8712.91
652.339	8565.46
652.531	8458.96
652.724	8377.05
652.916	8399.57
653.109	8379.09
653.301	8377.05
653.494	8399.57
653.686	8338.13
653.879	8243.93
654.071	7969.5
654.263	8073.95
654.456	7963.36
654.648	8170.2
654.84	7922.4
655.033	8065.75
655.225	8004.32
655.417	7920.35
655.61	7715.55
655.802	7772.89
655.994	7783.13
656.186	7844.57
656.379	7652.06
656.571	7674.59
656.763	7650.02
656.955	7559.91
657.148	7607.01
657.34	7482.08
657.532	7486.18
657.724	7398.12
657.916	7420.64
658.108	7461.6
658.3	7115.5
658.492	7281.38
658.684	7039.72
658.876	7199.46
659.068	7107.3
659.26	6998.76
659.452	7033.58
659.644	6886.12
659.836	6890.22
660.028	6783.73
660.22	6910.7
660.412	6875.88
660.604	6904.56
660.796	6886.12
660.988	6814.45
661.18	6750.96
661.372	6689.52
661.563	6564.59
661.755	6609.65
661.947	6501.11
662.139	6578.93
662.331	6578.93
662.522	6353.65
662.714	6550.26
662.906	6320.88
663.097	6386.42
663.289	6310.65
663.481	6191.86
663.673	6396.66
663.864	6181.62
664.056	6048.51
664.247	6175.48
664.439	6015.74
664.631	5976.83
664.822	6052.6
665.014	6025.98
665.205	5946.11
665.397	5942.01
665.588	6066.94
665.78	5952.25
665.971	5907.2
666.163	5835.52
666.354	5921.53
666.546	5899
666.737	5782.27
666.929	5745.41
667.12	5919.48
667.311	5571.33
667.503	5645.06
667.694	5714.69
667.885	5643.01
668.077	5712.64
668.268	5495.55
668.459	5575.42
668.651	5546.75
668.842	5360.39
669.033	5438.21
669.224	5462.79
669.416	5403.39
669.607	5495.55
669.798	5319.43
669.989	5176.07
670.18	5288.71
670.371	5329.67
670.563	5268.23
670.754	5405.44
670.945	5126.92
671.136	5247.75
671.327	5069.58
671.518	5329.67
671.709	5137.16
671.9	5122.82
672.091	5184.26
672.282	5110.54
672.473	5045
672.664	5110.54
672.855	4977.42
673.046	4895.5
673.237	4997.9
673.428	5038.86
673.619	5069.58
673.809	4926.22
674	4784.91
674.191	4870.92
674.382	4707.09
674.573	4983.56
674.764	4827.92
674.954	4981.51
675.145	4762.38
675.336	4809.48
675.527	4813.58
675.717	4848.4
675.908	4762.38
676.099	4698.89
676.289	4803.34
676.48	4758.28
676.671	4698.89
676.861	4502.29
677.052	4621.07
677.243	4608.78
677.433	4817.68
677.624	4731.66
677.814	4608.78
678.005	4504.34
678.195	4563.73
678.386	4510.48
678.576	4455.19
678.767	4684.56
678.957	4725.52
679.148	4707.09
679.338	4619.02
679.529	4453.14
679.719	4453.14
679.909	4608.78
680.1	4524.82
680.29	4551.44
680.481	4461.33
680.671	4576.02
680.861	4432.66
681.052	4461.33
681.242	4348.69
681.432	4444.95
681.622	4293.4
681.813	4393.75
682.003	4494.1
682.193	4406.03
682.383	4475.67
682.573	4383.51
682.764	4344.6
682.954	4455.19
683.144	4363.03
683.334	4453.14
683.524	4268.82
683.714	4197.14
683.904	4377.36
684.094	4322.07
684.284	4299.54
684.474	4365.07
684.664	4258.58
684.854	4121.37
685.044	4172.57
685.234	4088.6
685.424	4039.45
685.614	4182.81
685.804	4289.3
685.994	4135.7
686.184	4111.13
686.374	4111.13
686.564	4039.45
686.753	4055.83
686.943	4072.22
687.133	3930.91
687.323	4150.04
687.513	4068.12
687.702	4002.58
687.892	3947.29
688.082	4070.17
688.272	4076.31
688.461	4084.5
688.651	4010.78
688.841	3963.67
689.03	3988.25
689.22	3820.32
689.41	3896.09
689.599	3814.17
689.789	3939.1
689.979	3816.22
690.168	3935
690.358	3828.51
690.547	3914.52
690.737	3728.16
690.926	3969.82
691.116	3758.88
691.305	3824.41
691.495	3642.14
691.684	3789.6
691.874	3736.35
692.063	3722.01
692.252	3908.38
692.442	3650.33
692.631	3658.53
692.82	3652.38
693.01	3795.74
693.199	3709.72
693.388	3586.85
693.578	3650.33
693.767	3715.87
693.956	3642.14
694.146	3791.64
694.335	3627.81
694.524	3466.02
694.713	3521.31
694.902	3586.85
695.092	3537.7
695.281	3554.08
695.47	3674.91
695.659	3470.11
695.848	3611.42
696.037	3470.11
696.226	3474.21
696.415	3605.28
696.604	3611.42
696.793	3592.99
696.982	3404.58
697.171	3603.23
697.36	3502.88
697.549	3492.64
697.738	3488.54
697.927	3478.3
698.116	3380
698.305	3425.06
698.494	3406.63
698.683	3478.3
698.872	3554.08
699.061	3478.3
699.25	3248.93
699.438	3388.19
699.627	3470.11
699.816	3390.24
700.005	3584.8
700.193	3371.81
700.382	3513.12
700.571	3351.33
700.76	3355.43
700.948	3468.06
701.137	3437.34
701.326	3455.78
701.514	3330.85
701.703	3281.7
701.892	3380
702.08	3322.66
702.269	3316.51
702.457	3306.27
702.646	3406.63
702.834	3314.47
703.023	3322.66
703.212	3347.23
703.4	3330.85
703.589	3345.19
703.777	3257.12
703.965	3306.27
704.154	3273.51
704.342	3273.51
704.531	3279.65
704.719	3236.64
704.907	3396.39
705.096	3097.38
705.284	3142.44
705.472	3169.06
705.661	3222.31
705.849	3253.03
706.037	3201.83
706.226	3242.79
706.414	3126.05
706.602	3232.55
706.79	3232.55
706.979	3076.9
707.167	3244.84
707.355	3164.97
707.543	3214.12
707.731	3171.11
707.919	3117.86
708.107	3160.87
708.296	3142.44
708.484	3087.14
708.672	3164.97
708.86	3273.51
709.048	3007.27
709.236	3207.97
709.424	3027.75
709.612	3181.35
709.8	3124.01
709.988	2954.02
710.176	3087.14
710.364	3062.57
710.551	3121.96
710.739	3040.04
710.927	3191.59
711.115	3085.09
711.303	2931.5
711.491	3013.42
711.679	2929.45
711.866	2984.74
712.054	3011.37
712.242	2980.65
712.43	2949.93
712.617	3089.19
712.805	3117.86
712.993	2874.15
713.181	2814.76
713.368	2937.64
713.556	2913.06
713.744	2841.39
713.931	3003.18
714.119	2872.11
714.306	2976.55
714.494	2931.5
714.682	2872.11
714.869	2790.19
715.057	2855.72
715.244	2829.1
715.432	2814.76
715.619	2870.06
715.807	2943.78
715.994	2954.02
716.182	2769.71
716.369	2736.94
716.556	2757.42
716.744	2798.38
716.931	2749.23
717.119	2794.28
717.306	2853.67
717.493	2728.75
717.681	2814.76
717.868	2700.08
718.055	2775.85
718.242	2839.34
718.43	2775.85
718.617	2620.21
718.804	2751.28
718.991	2831.15
719.179	2759.47
719.366	2638.64
719.553	2640.69
719.74	2710.32
719.927	2741.04
720.114	2646.83
720.301	2609.97
720.488	2601.77
720.676	2679.6
720.863	2634.54
721.05	2650.92
721.237	2691.88
721.424	2675.5
721.611	2691.88
721.798	2691.88
721.985	2681.64
722.172	2683.69
722.358	2560.81
722.545	2595.63
722.732	2593.58
722.919	2495.28
723.106	2530.09
723.293	2589.49
723.48	2523.95
723.667	2636.59
723.853	2495.28
724.04	2489.14
724.227	2536.24
724.414	2491.18
724.6	2540.33
724.787	2523.95
724.974	2489.14
725.161	2542.38
725.347	2507.57
725.534	2507.57
725.72	2515.76
725.907	2562.86
726.094	2548.53
726.28	2429.74
726.467	2476.85
726.653	2448.18
726.84	2427.7
727.027	2480.94
727.213	2442.03
727.4	2419.5
727.586	2458.42
727.773	2433.84
727.959	2429.74
728.145	2333.49
728.332	2405.17
728.518	2341.68
728.705	2394.93
728.891	2323.25
729.077	2339.63
729.264	2308.91
729.45	2519.85
729.636	2495.28
729.823	2325.3
730.009	2474.8
730.195	2444.08
730.382	2341.68
730.568	2310.96
730.754	2319.15
730.94	2366.26
731.126	2339.63
731.313	2405.17
731.499	2171.7
731.685	2292.53
731.871	2270
732.057	2282.29
732.243	2392.88
732.429	2267.95
732.615	2198.32
732.801	2415.41
732.987	2368.31
733.173	2347.83
733.359	2259.76
733.545	2145.08
733.731	2341.68
733.917	2356.02
734.103	2372.4
734.289	2255.67
734.475	2245.43
734.661	2298.67
734.847	2224.95
735.033	2306.87
735.219	2118.45
735.404	2212.66
735.59	2272.05
735.776	2274.1
735.962	2241.33
736.148	2233.14
736.333	2126.64
736.519	2147.12
736.705	2093.88
736.89	2190.13
737.076	2122.55
737.262	2169.65
737.447	2052.92
737.633	2134.84
737.819	2163.51
738.004	2126.64
738.19	2159.41
738.375	2128.69
738.561	2159.41
738.747	2005.81
738.932	1987.38
739.118	2079.54
739.303	2208.56
739.489	2155.32
739.674	2052.92
739.859	2130.74
740.045	2102.07
740.23	2069.3
740.416	2063.16
740.601	2026.29
740.786	1913.66
740.972	1983.29
741.157	1950.52
741.342	1880.89
741.528	2046.77
741.713	2073.4
741.898	1971
742.084	1921.85
742.269	2040.63
742.454	2009.91
742.639	1887.03
742.824	1960.76
743.01	1923.9
743.195	1962.81
743.38	1858.36
743.565	1925.94
743.75	1874.74
743.935	1858.36
744.12	1749.82
744.305	1887.03
744.49	1868.6
744.675	1899.32
744.86	1758.01
745.045	1839.93
745.23	1839.93
745.415	1788.73
745.6	1758.01
745.785	1774.39
745.97	1745.72
746.155	1737.53
746.34	1747.77
746.525	1839.93
746.71	1774.39
746.895	1653.56
747.079	1745.72
747.264	1733.43
747.449	1667.9
747.634	1788.73
747.819	1712.96
748.003	1622.84
748.188	1592.13
748.373	1598.27
748.557	1594.17
748.742	1604.41
748.927	1647.42
749.111	1577.79
749.296	1516.35
749.481	1547.07
749.665	1524.54
749.85	1516.35
750.034	1579.84
750.219	1528.64
750.404	1557.31
750.588	1508.16
750.773	1434.43
750.957	1565.5
751.141	1356.61
751.326	1495.87
751.51	1479.49
751.695	1409.86
751.879	1424.19
752.064	1495.87
752.248	1475.39
752.432	1422.14
752.617	1188.68
752.801	1323.84
752.985	1372.99
753.17	1313.6
753.354	1336.13
753.538	1407.81
753.722	1350.46
753.907	1268.55
754.091	1313.6
754.275	1315.65
754.459	1315.65
754.643	1307.46
754.828	1303.36
755.012	1307.46
755.196	1291.07
755.38	1260.35
755.564	1280.83
755.748	1196.87
755.932	1309.51
756.116	1196.87
756.3	1309.51
756.484	1151.81
756.668	1153.86
756.852	1147.72
757.036	1094.47
757.22	1135.43
757.404	1057.61
757.588	1102.66
757.772	1209.15
757.956	1100.61
758.14	1104.71
758.323	1084.23
758.507	1082.18
758.691	1078.08
758.875	1143.62
759.059	1078.08
759.242	1014.6
759.426	1110.85
759.61	1110.85
759.794	1037.13
759.977	996.17
760.161	1137.48
760.345	1061.7
760.528	1088.32
760.712	1028.93
760.895	1024.84
761.079	1000.26
761.263	955.21
761.446	906.06
761.63	981.83
761.813	1028.93
761.997	947.01
762.18	987.97
762.364	973.64
762.547	908.1
762.731	916.3
762.914	895.82
763.098	965.45
763.281	912.2
763.464	916.3
763.648	944.97
763.831	916.3
764.015	973.64
764.198	924.49
764.381	916.3
764.564	1000.26
764.748	920.39
764.931	893.77
765.114	867.14
765.297	918.34
765.481	844.62
765.664	801.61
765.847	832.33
766.03	955.21
766.213	865.1
766.397	850.76
766.58	916.3
766.763	877.38
766.946	879.43
767.129	916.3
767.312	797.51
767.495	805.71
767.678	779.08
767.861	768.84
768.044	869.19
768.227	820.04
768.41	842.57
768.593	797.51
768.776	815.94
768.959	770.89
769.142	824.14
769.324	791.37
769.507	742.22
769.69	820.04
769.873	789.32
770.056	885.58
770.239	772.94
770.421	824.14
770.604	820.04
770.787	760.65
770.97	756.55
771.152	744.27
771.335	801.61
771.518	861
771.7	807.75
771.883	738.12
772.066	729.93
772.248	797.51
772.431	770.89
772.613	738.12
772.796	777.03
772.978	721.74
773.161	781.13
773.343	703.31
773.526	785.23
773.708	672.59
773.891	645.96
774.073	660.3
774.256	701.26
774.438	734.03
774.621	676.68
774.803	742.22
774.985	643.92
775.168	654.16
775.35	652.11
775.532	701.26
775.715	627.53
775.897	615.24
776.079	693.07
776.261	594.76
776.444	641.87
776.626	613.2
776.808	635.72
776.99	539.47
777.173	580.43
777.355	578.38
777.537	525.13
777.719	578.38
777.901	588.62
778.083	627.53
778.265	619.34
778.447	598.86
778.629	613.2
778.811	525.13
778.993	605
779.175	545.61
779.357	498.51
779.539	654.16
779.721	543.57
779.903	586.57
780.085	580.43
780.267	576.33
780.449	492.37
780.631	545.61
780.812	514.89
780.994	490.32
781.176	504.65
781.358	498.51
781.54	562
781.721	492.37
781.903	441.17
782.085	480.08
782.267	461.65
782.448	500.56
782.63	406.35
782.812	449.36
782.993	533.33
783.175	467.79
783.357	389.97
783.538	531.28
783.72	396.11
783.901	541.52
784.083	457.55
784.264	463.69
784.446	471.89
784.627	410.45
784.809	424.78
784.99	439.12
785.172	437.07
785.353	490.32
785.535	439.12
785.716	375.63
785.897	346.96
786.079	435.02
786.26	424.78
786.441	349.01
786.623	383.82
786.804	349.01
786.985	334.67
787.167	394.06
787.348	398.16
787.529	387.92
787.71	320.34
787.891	387.92
788.073	469.84
788.254	371.54
788.435	326.48
788.616	330.58
788.797	287.57
788.978	310.1
789.159	316.24
789.34	379.73
789.522	326.48
789.703	320.34
789.884	344.91
790.065	340.82
790.246	340.82
790.427	291.66
790.607	394.06
790.788	353.1
790.969	340.82
791.15	365.39
791.331	301.9
791.512	267.09
791.693	271.19
791.874	381.78
792.054	303.95
792.235	316.24
792.416	279.38
792.597	342.86
792.778	303.95
792.958	349.01
793.139	279.38
793.32	291.66
793.5	250.71
793.681	275.28
793.862	314.19
794.042	308.05
794.223	285.52
794.404	330.58
794.584	248.66
794.765	185.17
794.945	228.18
795.126	234.32
795.306	303.95
795.487	236.37
795.667	265.04
795.848	299.86
796.028	269.14
796.209	275.28
796.389	248.66
796.57	201.55
796.75	265.04
796.93	342.86
797.111	205.65
797.291	201.55
797.471	260.95
797.652	275.28
797.832	246.61
798.012	260.95
798.192	234.32
798.373	195.41
798.553	197.46
798.733	242.51
798.913	285.52
799.093	226.13
799.274	181.07
799.454	342.86
799.634	285.52
799.814	176.98
799.994	209.75
800.174	283.47
800.354	295.76
800.534	211.79
800.714	260.95
800.894	181.07
801.074	252.75
801.254	168.79
801.434	172.88
801.614	160.59
801.794	97.11
801.974	738.12
802.154	179.03
802.334	144.21
802.514	156.5
802.693	172.88
802.873	242.51
803.053	242.51
803.233	211.79
803.413	176.98
803.592	193.36
803.772	217.94
803.952	154.45
804.131	181.07
804.311	181.07
804.491	232.27
804.67	174.93
804.85	138.07
805.03	185.17
805.209	197.46
805.389	154.45
805.568	168.79
805.748	121.68
805.928	166.74
806.107	152.4
806.287	187.22
806.466	129.88
806.646	138.07
806.825	172.88
807.004	174.93
807.184	234.32
807.363	162.64
807.543	62.29
807.722	103.25
807.901	170.83
808.081	127.83
808.26	101.2
808.439	211.79
808.619	168.79
808.798	168.79
808.977	170.83
809.156	152.4
809.336	131.92
809.515	187.22
809.694	183.12
809.873	129.88
810.052	217.94
810.231	176.98
810.411	131.92
810.59	127.83
810.769	160.59
810.948	146.26
811.127	121.68
811.306	156.5
811.485	181.07
811.664	125.78
811.843	152.4
812.022	185.17
812.201	121.68
812.38	150.36
812.559	97.11
812.737	168.79
812.916	193.36
813.095	95.06
813.274	125.78
813.453	170.83
813.632	111.44
813.811	133.97
813.989	160.59
814.168	109.4
814.347	148.31
814.526	156.5
814.704	189.27
814.883	95.06
815.062	107.35
815.24	131.92
815.419	99.16
815.598	136.02
815.776	129.88
815.955	181.07
816.133	146.26
816.312	140.12
816.49	170.83
816.669	127.83
816.847	113.49
817.026	168.79
817.204	193.36
817.383	164.69
817.561	37.72
817.74	127.83
817.918	117.59
818.097	144.21
818.275	136.02
818.453	88.92
818.632	70.48
818.81	107.35
818.988	47.96
819.167	119.64
819.345	68.44
819.523	97.11
819.701	88.92
819.879	111.44
820.058	160.59
820.236	136.02
820.414	101.2
820.592	70.48
820.77	99.16
820.948	76.63
821.127	56.15
821.305	90.96
821.483	78.68
821.661	113.49
821.839	88.92
822.017	0.85
822.195	123.73
822.373	136.02
822.551	74.58
822.729	66.39
822.907	78.68
823.085	150.36
823.262	172.88
823.44	74.58
823.618	72.53
823.796	136.02
823.974	86.87
824.152	146.26
824.329	68.44
824.507	150.36
824.685	93.01
824.863	97.11
825.04	86.87
825.218	103.25
825.396	86.87
825.574	-3.24
825.751	62.29
825.929	146.26
826.107	62.29
826.284	123.73
826.462	103.25
826.639	105.3
826.817	25.43
826.994	121.68
827.172	11.09
827.349	72.53
827.527	95.06
827.704	66.39
827.882	119.64
828.059	86.87
828.237	162.64
828.414	107.35
828.591	17.24
828.769	97.11
828.946	70.48
829.124	86.87
829.301	74.58
829.478	58.2
829.655	54.1
829.833	129.88
830.01	90.96
830.187	119.64
830.364	90.96
830.542	-1.19
830.719	78.68
830.896	146.26
831.073	107.35
831.25	17.24
831.427	62.29
831.604	105.3
831.782	78.68
831.959	86.87
832.136	78.68
832.313	95.06
832.49	11.09
832.667	72.53
832.844	33.62
833.021	119.64
833.198	47.96
833.374	99.16
833.551	47.96
833.728	-17.58
833.905	152.4
834.082	80.72
834.259	45.91
834.436	164.69
834.612	62.29
834.789	62.29
834.966	82.77
835.143	21.33
835.319	23.38
835.496	50
835.673	39.76
835.85	105.3
836.026	111.44
836.203	54.1
836.38	66.39
836.556	-29.87
836.733	74.58
836.909	4.95
837.086	45.91
837.262	-42.15
837.439	45.91
837.616	-9.39
837.792	86.87
837.968	88.92
838.145	-9.39
838.321	64.34
838.498	9.05
838.674	80.72
838.851	97.11
839.027	15.19
839.203	82.77
839.38	58.2
839.556	-3.24
839.732	64.34
839.909	86.87
840.085	29.52
840.261	70.48
840.437	56.15
840.614	-7.34
840.79	113.49
840.966	72.53
841.142	15.19
841.318	-19.63
841.494	47.96
841.671	64.34
841.847	68.44
842.023	4.95
842.199	74.58
842.375	-1.19
842.551	2.9
842.727	4.95
842.903	62.29
843.079	-44.2
843.255	47.96
843.431	2.9
843.607	170.83
843.783	-36.01
843.959	123.73
844.134	29.52
844.31	97.11
844.486	45.91
844.662	-27.82
844.838	7
845.013	39.76
845.189	176.98
845.365	15.19
845.541	35.67
845.716	66.39
845.892	25.43
846.068	54.1
846.244	-31.91
846.419	50
846.595	19.29
846.77	13.14
846.946	47.96
847.122	31.57
847.297	25.43
847.473	72.53
847.648	-3.24
847.824	72.53
847.999	-9.39
848.175	-9.39
848.35	45.91
848.526	72.53
848.701	47.96
848.876	70.48
849.052	115.54
849.227	97.11
849.403	-48.3
849.578	13.14
849.753	-19.63
849.929	58.2
850.104	27.48
850.279	23.38
850.454	-38.06
850.63	37.72
850.805	70.48
850.98	-31.91
851.155	-68.78
851.33	70.48
851.505	29.52
851.681	78.68
851.856	29.52
852.031	70.48
852.206	29.52
852.381	-66.73
852.556	50
852.731	23.38
852.906	-17.58
853.081	-27.82
853.256	43.86
853.431	37.72
853.606	-7.34
853.781	43.86
853.956	-15.53
854.131	58.2
854.305	88.92
854.48	0.85
854.655	-17.58
854.83	35.67
855.005	4.95
855.18	33.62
855.354	19.29
855.529	9.05
855.704	45.91
855.879	86.87
856.053	11.09
856.228	13.14
856.403	43.86
856.577	4.95
856.752	11.09
856.926	62.29
857.101	25.43
857.276	-52.39
857.45	-38.06
857.625	-3.24
857.799	64.34
857.974	15.19
858.148	-58.54
858.323	-19.63
858.497	54.1
858.672	54.1
858.846	-23.72
859.02	72.53
859.195	-11.43
859.369	-1.19
859.543	13.14
859.718	113.49
859.892	-7.34
860.066	29.52
860.241	54.1
860.415	-31.91
860.589	-17.58
860.763	39.76
860.938	29.52
861.112	47.96
861.286	33.62
861.46	-11.43
861.634	60.24
861.808	119.64
861.982	15.19
862.157	21.33
862.331	45.91
862.505	-23.72
862.679	21.33
862.853	50
863.027	70.48
863.201	101.2
863.375	45.91
863.549	41.81
863.722	25.43
863.896	80.72
864.07	-44.2
864.244	62.29
864.418	-19.63
864.592	50
864.766	23.38
864.939	31.57
865.113	29.52
865.287	56.15
865.461	84.82
865.634	50
865.808	7
865.982	37.72
866.156	7
866.329	-89.26
866.503	47.96
866.676	64.34
866.85	41.81
867.024	27.48
867.197	-23.72
867.371	47.96
867.544	-3.24
867.718	45.91
867.891	58.2
868.065	-70.83
868.238	45.91
868.412	76.63
868.585	37.72
868.759	97.11
868.932	7
869.105	-33.96
869.279	43.86
869.452	64.34
869.625	72.53
869.799	43.86
869.972	2.9
870.145	21.33
870.319	17.24
870.492	-11.43
870.665	27.48
870.838	66.39
871.011	23.38
871.185	-1.19
871.358	50
871.531	7
871.704	39.76
871.877	-29.87
872.05	15.19
872.223	-64.68
872.396	23.38
872.569	19.29
872.742	47.96
872.915	72.53
873.088	31.57
873.261	9.05
873.434	21.33
873.607	-9.39
873.78	62.29
873.953	7
874.126	-76.97
874.299	78.68
874.471	-70.83
874.644	0.85
874.817	43.86
874.99	31.57
875.163	4.95
875.335	99.16
875.508	50
875.681	80.72
875.853	-85.16
876.026	13.14
876.199	-62.63
876.371	11.09
876.544	-5.29
876.717	17.24
876.889	-9.39
877.062	66.39
877.234	-103.59
877.407	54.1
877.579	-7.34
877.752	-44.2
877.924	17.24
878.097	-3.24
878.269	7
878.442	7
878.614	29.52
878.786	86.87
878.959	-60.59
879.131	-50.35
879.303	-23.72
879.476	17.24
879.648	-19.63
879.82	4.95
879.993	39.76
880.165	-15.53
880.337	21.33
880.509	25.43
880.681	2.9
880.854	84.82
881.026	13.14
881.198	23.38
881.37	31.57
881.542	31.57
881.714	-33.96
881.886	13.14
882.058	95.06
882.23	41.81
882.402	-50.35
882.574	41.81
882.746	-74.92
882.918	-1.19
883.09	-33.96
883.262	0.85
883.434	-52.39
883.606	47.96
883.778	47.96
883.95	15.19
884.122	-3.24
884.293	56.15
884.465	-1.19
884.637	-15.53
884.809	-19.63
884.98	-50.35
885.152	-17.58
885.324	-3.24
885.496	-46.25
885.667	7
885.839	80.72
886.011	21.33
886.182	-23.72
886.354	33.62
886.525	-36.01
886.697	-15.53
886.869	45.91
887.04	-17.58
887.212	54.1
887.383	121.68
887.555	17.24
887.726	15.19
887.897	-27.82
888.069	-19.63
888.24	60.24
888.412	-19.63
888.583	-3.24
888.754	-36.01
888.926	23.38
889.097	-48.3
889.268	-72.87
889.44	56.15
889.611	-56.49
889.782	17.24
889.953	-93.35
890.125	74.58
890.296	2.9
890.467	-25.77
890.638	4.95
890.809	-29.87
890.98	9.05
891.151	-9.39
891.323	9.05
891.494	-3.24
891.665	11.09
891.836	52.05
892.007	-19.63
892.178	-11.43
892.349	25.43
892.52	-42.15
892.691	29.52
892.862	-21.67
893.032	-68.78
893.203	-11.43
893.374	11.09
893.545	113.49
893.716	37.72
893.887	29.52
894.057	25.43
894.228	33.62
894.399	21.33
894.57	-27.82
894.74	25.43
894.911	-19.63
895.082	9.05
895.253	-9.39
895.423	11.09
895.594	39.76
895.764	15.19
895.935	-7.34
896.106	54.1
896.276	15.19
896.447	70.48
896.617	-50.35
896.788	-3.24
896.958	-68.78
897.129	-66.73
897.299	-3.24
897.47	97.11
897.64	29.52
897.81	15.19
897.981	21.33
898.151	-17.58
898.322	-5.29
898.492	-31.91
898.662	17.24
898.832	33.62
899.003	-9.39
899.173	-17.58
899.343	50
899.513	37.72
