Data from USB4F104151__0__14-15-50-009.txt Node

Date: Thu Mar 13 14:15:50 EDT 2025
User: louis
Spectrometer: USB4F10415
Trigger mode: 4
Integration Time (sec): 2.000000E-2
Scans to average: 1
Electric dark correction enabled: true
Nonlinearity correction enabled: false
Boxcar width: 0
XAxis mode: Wavelengths
Number of Pixels in Spectrum: 3648
>>>>>Begin Spectral Data<<<<<
178.204	-103.93
178.424	-103.93
178.644	-103.93
178.864	-161.28
179.084	-159.23
179.304	-7.68
179.524	2.56
179.744	10.75
179.964	72.19
180.184	-22.02
180.404	-7.68
180.624	53.76
180.844	18.94
181.064	-46.59
181.283	-13.82
181.503	-36.35
181.723	-24.06
181.943	-24.06
182.163	49.66
182.383	-24.06
182.602	49.66
182.822	68.09
183.042	29.18
183.262	-26.11
183.482	-52.74
183.701	20.99
183.921	8.7
184.141	-48.64
184.361	64
184.58	-73.21
184.8	64
185.02	-48.64
185.239	39.42
185.459	4.61
185.679	-3.58
185.898	-13.82
186.118	41.47
186.338	-9.73
186.557	59.9
186.777	68.09
186.997	-81.41
187.216	-24.06
187.436	37.38
187.655	47.62
187.875	35.33
188.095	-22.02
188.314	61.95
188.534	23.04
188.753	-19.97
188.973	35.33
189.192	-24.06
189.412	4.61
189.631	41.47
189.851	-26.11
190.07	100.86
190.29	23.04
190.509	-38.4
190.729	-19.97
190.948	-7.68
191.168	100.86
191.387	27.14
191.607	23.04
191.826	29.18
192.045	23.04
192.265	-13.82
192.484	10.75
192.704	-24.06
192.923	-30.21
193.142	27.14
193.362	-26.11
193.581	-17.92
193.8	-1.54
194.02	41.47
194.239	23.04
194.458	74.24
194.678	-22.02
194.897	47.62
195.116	10.75
195.335	-26.11
195.555	-26.11
195.774	8.7
195.993	59.9
196.212	-32.26
196.432	-26.11
196.651	-15.87
196.87	49.66
197.089	96.77
197.308	0.51
197.528	55.81
197.747	-58.88
197.966	2.56
198.185	57.86
198.404	-19.97
198.623	27.14
198.842	18.94
199.062	53.76
199.281	-9.73
199.5	31.23
199.719	2.56
199.938	39.42
200.157	37.38
200.376	49.66
200.595	23.04
200.814	-52.74
201.033	-9.73
201.252	45.57
201.471	4.61
201.69	70.14
201.909	-9.73
202.128	49.66
202.347	55.81
202.566	-1.54
202.785	-22.02
203.004	-52.74
203.223	80.38
203.442	-34.3
203.661	-3.58
203.879	66.05
204.098	64
204.317	0.51
204.536	-56.83
204.755	31.23
204.974	78.33
205.193	8.7
205.411	23.04
205.63	66.05
205.849	-1.54
206.068	20.99
206.287	12.8
206.505	61.95
206.724	-89.6
206.943	-5.63
207.162	-9.73
207.381	6.66
207.599	10.75
207.818	39.42
208.037	-17.92
208.255	-26.11
208.474	-17.92
208.693	-89.6
208.911	-5.63
209.13	12.8
209.349	49.66
209.567	-42.5
209.786	25.09
210.005	-34.3
210.223	-22.02
210.442	49.66
210.661	23.04
210.879	-32.26
211.098	-26.11
211.316	35.33
211.535	-26.11
211.753	-32.26
211.972	10.75
212.191	16.9
212.409	57.86
212.628	-56.83
212.846	10.75
213.065	25.09
213.283	80.38
213.502	2.56
213.72	70.14
213.938	18.94
214.157	-5.63
214.375	57.86
214.594	10.75
214.812	76.29
215.031	-40.45
215.249	18.94
215.467	14.85
215.686	70.14
215.904	41.47
216.122	35.33
216.341	107.01
216.559	-46.59
216.778	49.66
216.996	-1.54
217.214	-17.92
217.432	2.56
217.651	76.29
217.869	64
218.087	-42.5
218.306	-9.73
218.524	27.14
218.742	39.42
218.96	16.9
219.179	92.67
219.397	59.9
219.615	88.57
219.833	-38.4
220.051	41.47
220.27	49.66
220.488	14.85
220.706	14.85
220.924	6.66
221.142	-22.02
221.36	-11.78
221.578	-50.69
221.796	51.71
222.015	-7.68
222.233	-28.16
222.451	74.24
222.669	6.66
222.887	59.9
223.105	47.62
223.323	64
223.541	-56.83
223.759	74.24
223.977	16.9
224.195	90.62
224.413	18.94
224.631	27.14
224.849	-13.82
225.067	121.34
225.285	-50.69
225.503	-48.64
225.721	-79.36
225.939	23.04
226.157	23.04
226.375	107.01
226.592	-13.82
226.81	18.94
227.028	-26.11
227.246	35.33
227.464	47.62
227.682	16.9
227.9	-9.73
228.117	25.09
228.335	49.66
228.553	-5.63
228.771	-34.3
228.989	23.04
229.206	-34.3
229.424	-7.68
229.642	-1.54
229.86	33.28
230.077	41.47
230.295	18.94
230.513	107.01
230.731	4.61
230.948	23.04
231.166	-11.78
231.384	-5.63
231.601	0.51
231.819	18.94
232.037	-48.64
232.254	43.52
232.472	-1.54
232.689	-58.88
232.907	100.86
233.125	31.23
233.342	-1.54
233.56	39.42
233.777	-40.45
233.995	-34.3
234.213	113.15
234.43	-34.3
234.648	-11.78
234.865	16.9
235.083	80.38
235.3	-26.11
235.518	-1.54
235.735	90.62
235.953	72.19
236.17	53.76
236.388	-9.73
236.605	-15.87
236.822	14.85
237.04	-28.16
237.257	8.7
237.475	-17.92
237.692	-13.82
237.909	6.66
238.127	2.56
238.344	25.09
238.562	72.19
238.779	25.09
238.996	96.77
239.214	2.56
239.431	39.42
239.648	-17.92
239.865	20.99
240.083	2.56
240.3	-34.3
240.517	2.56
240.735	33.28
240.952	25.09
241.169	31.23
241.386	-15.87
241.603	90.62
241.821	43.52
242.038	76.29
242.255	88.57
242.472	-50.69
242.689	121.34
242.907	8.7
243.124	-38.4
243.341	125.44
243.558	10.75
243.775	25.09
243.992	27.14
244.209	41.47
244.426	68.09
244.643	39.42
244.86	-56.83
245.078	66.05
245.295	33.28
245.512	55.81
245.729	-26.11
245.946	27.14
246.163	-9.73
246.38	57.86
246.597	47.62
246.814	2.56
247.031	51.71
247.248	-75.26
247.464	39.42
247.681	68.09
247.898	88.57
248.115	4.61
248.332	2.56
248.549	86.53
248.766	47.62
248.983	109.05
249.2	41.47
249.417	82.43
249.633	29.18
249.85	8.7
250.067	23.04
250.284	-1.54
250.501	8.7
250.717	39.42
250.934	-71.17
251.151	14.85
251.368	-17.92
251.585	43.52
251.801	-26.11
252.018	-32.26
252.235	-19.97
252.451	-7.68
252.668	-28.16
252.885	55.81
253.102	37.38
253.318	27.14
253.535	23.04
253.752	-15.87
253.968	14.85
254.185	27.14
254.401	41.47
254.618	41.47
254.835	-67.07
255.051	111.1
255.268	43.52
255.484	25.09
255.701	47.62
255.917	35.33
256.134	-3.58
256.351	-42.5
256.567	29.18
256.784	35.33
257	-11.78
257.217	14.85
257.433	-1.54
257.65	6.66
257.866	6.66
258.082	-40.45
258.299	6.66
258.515	49.66
258.732	-26.11
258.948	-17.92
259.165	16.9
259.381	25.09
259.597	41.47
259.814	51.71
260.03	-13.82
260.246	0.51
260.463	31.23
260.679	23.04
260.895	-38.4
261.112	-24.06
261.328	-9.73
261.544	16.9
261.761	70.14
261.977	10.75
262.193	-26.11
262.409	6.66
262.626	-22.02
262.842	31.23
263.058	-11.78
263.274	109.05
263.49	49.66
263.707	51.71
263.923	0.51
264.139	-73.21
264.355	80.38
264.571	57.86
264.787	2.56
265.004	2.56
265.22	20.99
265.436	76.29
265.652	10.75
265.868	-22.02
266.084	-34.3
266.3	8.7
266.516	-9.73
266.732	-13.82
266.948	29.18
267.164	18.94
267.38	55.81
267.596	14.85
267.812	31.23
268.028	47.62
268.244	39.42
268.46	18.94
268.676	-67.07
268.892	-7.68
269.108	-1.54
269.324	2.56
269.54	18.94
269.756	64
269.972	-75.26
270.188	47.62
270.403	-1.54
270.619	47.62
270.835	96.77
271.051	49.66
271.267	27.14
271.483	-17.92
271.698	23.04
271.914	43.52
272.13	-13.82
272.346	39.42
272.562	-30.21
272.777	119.29
272.993	-7.68
273.209	31.23
273.425	109.05
273.64	25.09
273.856	57.86
274.072	43.52
274.287	10.75
274.503	39.42
274.719	-99.84
274.934	27.14
275.15	55.81
275.366	59.9
275.581	-26.11
275.797	55.81
276.012	35.33
276.228	20.99
276.444	27.14
276.659	31.23
276.875	27.14
277.09	8.7
277.306	0.51
277.521	-1.54
277.737	16.9
277.952	8.7
278.168	-26.11
278.383	102.91
278.599	43.52
278.814	41.47
279.03	59.9
279.245	86.53
279.461	27.14
279.676	53.76
279.892	-1.54
280.107	-24.06
280.322	14.85
280.538	-52.74
280.753	35.33
280.969	72.19
281.184	66.05
281.399	76.29
281.615	55.81
281.83	39.42
282.045	-26.11
282.26	14.85
282.476	51.71
282.691	33.28
282.906	-24.06
283.122	-3.58
283.337	-73.21
283.552	68.09
283.767	57.86
283.983	-17.92
284.198	0.51
284.413	8.7
284.628	-13.82
284.843	51.71
285.058	33.28
285.274	25.09
285.489	16.9
285.704	-65.02
285.919	20.99
286.134	10.75
286.349	-54.78
286.564	33.28
286.779	10.75
286.995	64
287.21	-73.21
287.425	23.04
287.64	-15.87
287.855	49.66
288.07	-32.26
288.285	66.05
288.5	-11.78
288.715	84.48
288.93	27.14
289.145	-19.97
289.36	51.71
289.575	6.66
289.79	49.66
290.004	-26.11
290.219	100.86
290.434	-1.54
290.649	41.47
290.864	20.99
291.079	-22.02
291.294	-52.74
291.509	53.76
291.724	49.66
291.938	-54.78
292.153	31.23
292.368	6.66
292.583	64
292.798	-22.02
293.012	-34.3
293.227	-11.78
293.442	70.14
293.657	0.51
293.871	137.73
294.086	-1.54
294.301	66.05
294.516	33.28
294.73	47.62
294.945	-1.54
295.16	-1.54
295.374	84.48
295.589	43.52
295.804	45.57
296.018	55.81
296.233	109.05
296.447	41.47
296.662	-32.26
296.877	113.15
297.091	-5.63
297.306	31.23
297.52	-3.58
297.735	25.09
297.949	72.19
298.164	14.85
298.378	2.56
298.593	39.42
298.807	51.71
299.022	70.14
299.236	47.62
299.451	37.38
299.665	-40.45
299.88	37.38
300.094	25.09
300.309	113.15
300.523	41.47
300.737	29.18
300.952	57.86
301.166	31.23
301.381	-67.07
301.595	31.23
301.809	23.04
302.024	-26.11
302.238	-7.68
302.452	70.14
302.667	-7.68
302.881	-13.82
303.095	10.75
303.309	-1.54
303.524	-24.06
303.738	23.04
303.952	29.18
304.166	-3.58
304.381	-79.36
304.595	6.66
304.809	6.66
305.023	20.99
305.237	8.7
305.452	35.33
305.666	18.94
305.88	-19.97
306.094	100.86
306.308	43.52
306.522	45.57
306.736	8.7
306.95	25.09
307.164	25.09
307.379	-3.58
307.593	64
307.807	88.57
308.021	-1.54
308.235	-7.68
308.449	-56.83
308.663	84.48
308.877	-34.3
309.091	55.81
309.305	6.66
309.519	-26.11
309.733	8.7
309.947	-26.11
310.161	-7.68
310.374	154.11
310.588	94.72
310.802	-19.97
311.016	14.85
311.23	55.81
311.444	74.24
311.658	68.09
311.872	55.81
312.085	45.57
312.299	100.86
312.513	104.96
312.727	43.52
312.941	-9.73
313.154	18.94
313.368	-32.26
313.582	31.23
313.796	23.04
314.009	72.19
314.223	-13.82
314.437	2.56
314.651	6.66
314.864	6.66
315.078	-81.41
315.292	70.14
315.505	35.33
315.719	-15.87
315.933	51.71
316.146	35.33
316.36	51.71
316.573	27.14
316.787	66.05
317.001	57.86
317.214	2.56
317.428	14.85
317.641	-38.4
317.855	39.42
318.068	31.23
318.282	16.9
318.495	51.71
318.709	35.33
318.922	4.61
319.136	27.14
319.349	43.52
319.563	-24.06
319.776	14.85
319.99	6.66
320.203	25.09
320.417	70.14
320.63	29.18
320.843	121.34
321.057	-1.54
321.27	-15.87
321.483	-7.68
321.697	104.96
321.91	-11.78
322.124	14.85
322.337	57.86
322.55	33.28
322.763	39.42
322.977	-1.54
323.19	10.75
323.403	55.81
323.617	47.62
323.83	109.05
324.043	12.8
324.256	12.8
324.469	0.51
324.683	47.62
324.896	25.09
325.109	20.99
325.322	-22.02
325.535	55.81
325.748	45.57
325.962	64
326.175	84.48
326.388	104.96
326.601	72.19
326.814	66.05
327.027	76.29
327.24	41.47
327.453	6.66
327.666	64
327.879	6.66
328.092	33.28
328.305	-5.63
328.518	49.66
328.731	31.23
328.944	-15.87
329.157	4.61
329.37	23.04
329.583	64
329.796	55.81
330.009	-46.59
330.222	25.09
330.435	0.51
330.648	16.9
330.861	35.33
331.073	33.28
331.286	51.71
331.499	-17.92
331.712	37.38
331.925	41.47
332.138	39.42
332.35	27.14
332.563	-13.82
332.776	82.43
332.989	-7.68
333.202	0.51
333.414	-24.06
333.627	-15.87
333.84	-24.06
334.053	39.42
334.265	86.53
334.478	18.94
334.691	92.67
334.903	47.62
335.116	0.51
335.329	72.19
335.541	109.05
335.754	35.33
335.966	23.04
336.179	25.09
336.392	39.42
336.604	-17.92
336.817	39.42
337.029	31.23
337.242	88.57
337.454	55.81
337.667	-15.87
337.88	111.1
338.092	31.23
338.305	59.9
338.517	39.42
338.729	-13.82
338.942	55.81
339.154	31.23
339.367	72.19
339.579	98.81
339.792	43.52
340.004	39.42
340.217	23.04
340.429	25.09
340.641	39.42
340.854	39.42
341.066	47.62
341.278	2.56
341.491	64
341.703	10.75
341.915	39.42
342.128	86.53
342.34	6.66
342.552	14.85
342.764	-22.02
342.977	55.81
343.189	10.75
343.401	59.9
343.613	-13.82
343.826	70.14
344.038	-97.79
344.25	25.09
344.462	10.75
344.674	47.62
344.886	-17.92
345.099	-50.69
345.311	90.62
345.523	49.66
345.735	-1.54
345.947	55.81
346.159	61.95
346.371	-7.68
346.583	55.81
346.795	14.85
347.007	39.42
347.219	96.77
347.431	78.33
347.643	41.47
347.855	14.85
348.067	27.14
348.279	-71.17
348.491	16.9
348.703	107.01
348.915	-7.68
349.127	47.62
349.339	23.04
349.551	-17.92
349.763	94.72
349.975	-7.68
350.187	12.8
350.399	115.2
350.61	64
350.822	-1.54
351.034	6.66
351.246	43.52
351.458	47.62
351.669	70.14
351.881	43.52
352.093	43.52
352.305	35.33
352.517	4.61
352.728	61.95
352.94	-34.3
353.152	18.94
353.363	53.76
353.575	35.33
353.787	104.96
353.999	-24.06
354.21	16.9
354.422	39.42
354.633	39.42
354.845	-24.06
355.057	72.19
355.268	68.09
355.48	150.01
355.692	-28.16
355.903	-56.83
356.115	-40.45
356.326	-9.73
356.538	74.24
356.749	121.34
356.961	78.33
357.172	35.33
357.384	8.7
357.595	96.77
357.807	12.8
358.018	2.56
358.23	33.28
358.441	117.25
358.653	78.33
358.864	64
359.075	8.7
359.287	41.47
359.498	35.33
359.709	25.09
359.921	66.05
360.132	64
360.344	31.23
360.555	16.9
360.766	-13.82
360.977	-1.54
361.189	64
361.4	31.23
361.611	47.62
361.823	29.18
362.034	64
362.245	23.04
362.456	-52.74
362.667	-38.4
362.879	-17.92
363.09	31.23
363.301	70.14
363.512	18.94
363.723	31.23
363.935	8.7
364.146	8.7
364.357	72.19
364.568	35.33
364.779	-56.83
364.99	55.81
365.201	-11.78
365.412	0.51
365.623	55.81
365.834	51.71
366.045	53.76
366.256	43.52
366.467	35.33
366.678	84.48
366.889	72.19
367.1	31.23
367.311	18.94
367.522	47.62
367.733	64
367.944	94.72
368.155	68.09
368.366	41.47
368.577	41.47
368.788	49.66
368.999	-81.41
369.209	-1.54
369.42	49.66
369.631	86.53
369.842	88.57
370.053	47.62
370.264	18.94
370.474	10.75
370.685	12.8
370.896	-19.97
371.107	33.28
371.317	59.9
371.528	25.09
371.739	72.19
371.95	55.81
372.16	55.81
372.371	4.61
372.582	31.23
372.792	20.99
373.003	49.66
373.214	59.9
373.424	39.42
373.635	41.47
373.846	86.53
374.056	27.14
374.267	64
374.477	92.67
374.688	64
374.898	14.85
375.109	49.66
375.319	43.52
375.53	23.04
375.74	18.94
375.951	23.04
376.161	76.29
376.372	51.71
376.582	-13.82
376.793	78.33
377.003	-58.88
377.214	18.94
377.424	-13.82
377.635	33.28
377.845	59.9
378.055	31.23
378.266	-17.92
378.476	115.2
378.686	72.19
378.897	64
379.107	72.19
379.317	39.42
379.528	39.42
379.738	14.85
379.948	16.9
380.158	104.96
380.369	23.04
380.579	82.43
380.789	27.14
380.999	129.53
381.21	76.29
381.42	41.47
381.63	-15.87
381.84	53.76
382.05	-17.92
382.261	90.62
382.471	80.38
382.681	23.04
382.891	102.91
383.101	49.66
383.311	-5.63
383.521	47.62
383.731	76.29
383.941	109.05
384.151	14.85
384.361	57.86
384.571	72.19
384.781	2.56
384.991	121.34
385.201	55.81
385.411	154.11
385.621	27.14
385.831	55.81
386.041	57.86
386.251	66.05
386.461	57.86
386.671	6.66
386.881	72.19
387.091	84.48
387.301	27.14
387.511	16.9
387.72	51.71
387.93	55.81
388.14	-17.92
388.35	104.96
388.56	43.52
388.769	86.53
388.979	23.04
389.189	25.09
389.399	35.33
389.609	72.19
389.818	127.49
390.028	59.9
390.238	137.73
390.447	-19.97
390.657	-7.68
390.867	39.42
391.076	8.7
391.286	4.61
391.496	76.29
391.705	88.57
391.915	90.62
392.125	80.38
392.334	137.73
392.544	133.63
392.753	121.34
392.963	39.42
393.172	57.86
393.382	92.67
393.591	107.01
393.801	78.33
394.01	139.77
394.22	98.81
394.429	31.23
394.639	74.24
394.848	14.85
395.058	45.57
395.267	70.14
395.477	-7.68
395.686	96.77
395.895	90.62
396.105	164.35
396.314	121.34
396.524	33.28
396.733	117.25
396.942	76.29
397.152	84.48
397.361	84.48
397.57	68.09
397.78	113.15
397.989	141.82
398.198	123.39
398.407	74.24
398.617	121.34
398.826	80.38
399.035	104.96
399.244	123.39
399.453	117.25
399.663	133.63
399.872	188.93
400.081	59.9
400.29	135.68
400.499	121.34
400.708	121.34
400.917	66.05
401.127	23.04
401.336	113.15
401.545	137.73
401.754	115.2
401.963	227.84
402.172	113.15
402.381	115.2
402.59	80.38
402.799	113.15
403.008	156.16
403.217	135.68
403.426	174.59
403.635	80.38
403.844	145.92
404.053	182.78
404.262	115.2
404.471	166.4
404.68	174.59
404.888	178.69
405.097	100.86
405.306	205.31
405.515	190.97
405.724	254.46
405.933	129.53
406.142	156.16
406.35	104.96
406.559	174.59
406.768	221.69
406.977	180.73
407.185	311.8
407.394	203.26
407.603	229.88
407.812	293.37
408.02	346.62
408.229	246.27
408.438	223.74
408.646	272.89
408.855	338.43
409.064	338.43
409.272	330.23
409.481	295.42
409.69	240.12
409.898	330.23
410.107	379.39
410.315	389.63
410.524	317.95
410.733	440.83
410.941	455.16
411.15	426.49
411.358	508.41
411.567	530.94
411.775	463.35
411.984	451.07
412.192	506.36
412.401	467.45
412.609	563.7
412.818	571.9
413.026	653.81
413.234	547.32
413.443	588.28
413.651	627.19
413.86	647.67
414.068	760.31
414.276	684.53
414.485	676.34
414.693	721.4
414.901	891.38
415.11	817.65
415.318	815.6
415.526	885.23
415.734	940.53
415.943	969.2
416.151	991.73
416.359	1083.89
416.567	1032.69
416.776	1106.42
416.984	1182.19
417.192	1161.71
417.4	1210.86
417.608	1178.09
417.817	1272.3
418.025	1358.32
418.233	1464.81
418.441	1294.83
418.649	1450.47
418.857	1567.21
419.065	1589.74
419.273	1518.06
419.481	1710.57
419.689	1671.65
419.897	1876.45
420.105	1915.36
420.313	1956.32
420.521	2017.76
420.729	1882.6
420.937	2183.65
421.145	2128.35
421.353	2220.51
421.561	2341.34
421.769	2372.06
421.977	2441.69
422.185	2576.86
422.393	2662.87
422.601	2777.56
422.809	2818.52
423.017	2793.94
423.224	2953.68
423.432	2996.69
423.64	3094.99
423.848	3355.08
424.056	3258.83
424.263	3434.96
424.471	3535.31
424.679	3549.64
424.887	3905.99
425.094	3856.84
425.302	3766.73
425.51	4137.41
425.718	4145.6
425.925	4211.14
426.133	4217.28
426.341	4487.61
426.548	4753.85
426.756	4819.38
426.964	4880.82
427.171	5159.35
427.379	5142.96
427.586	5439.92
427.794	5603.75
428.001	5732.78
428.209	6031.78
428.417	5904.81
428.624	6480.29
428.832	6570.4
429.039	6220.19
429.247	6502.81
429.454	7006.61
429.662	7491.98
429.869	6963.61
430.076	7295.38
430.284	7190.93
430.491	7670.15
430.699	7883.14
430.906	7930.25
431.114	8149.38
431.321	8376.7
431.528	8583.55
431.736	9134.45
431.943	9382.26
432.15	9058.68
432.358	9329.01
432.565	9818.47
432.772	10004.84
432.979	10254.69
433.187	10281.32
433.394	10512.74
433.601	11313.49
433.808	11182.42
434.016	11094.36
434.223	11614.54
434.43	12226.89
434.637	11817.29
434.844	12769.6
435.052	12826.94
435.259	13109.56
435.466	13080.89
435.673	12878.14
435.88	13627.7
436.087	14432.55
436.294	14477.6
436.501	14252.33
436.708	14516.51
436.915	14807.33
437.122	15765.78
437.329	15620.37
437.537	15929.61
437.743	16285.96
437.95	16060.68
438.157	17127.67
438.364	17787.12
438.571	17537.27
438.778	17697.01
438.985	19149.02
439.192	18548.96
439.399	19085.53
439.606	18620.64
439.813	19466.45
440.02	20857.03
440.227	20553.93
440.433	20101.33
440.64	21182.65
440.847	20920.51
441.054	21336.25
441.261	22823.08
441.467	22526.12
441.674	22945.95
441.881	23705.75
442.088	23382.17
442.294	23181.47
442.501	23804.05
442.708	24283.28
442.914	25323.65
443.121	26490.99
443.328	26144.88
443.534	27549.79
443.741	26642.54
443.948	26402.93
444.154	28440.65
444.361	28502.09
444.568	28573.77
444.774	28448.85
444.981	28434.51
445.187	29227.07
445.394	30857.26
445.6	30244.91
445.807	33390.59
446.013	31864.86
446.22	32135.19
446.426	33404.93
446.633	33884.15
446.839	35201
447.046	33857.53
447.252	35131.37
447.459	35729.37
447.665	35282.92
447.871	36581.33
448.078	38041.53
448.284	36192.22
448.491	37318.6
448.697	38897.58
448.903	39460.77
449.11	39886.75
449.316	39309.22
449.522	39554.98
449.728	40886.16
449.935	41097.1
450.141	40820.63
450.347	42258.3
450.553	40325.02
450.76	41250.7
450.966	42536.82
451.172	42307.45
451.378	43059.05
451.584	42207.1
451.791	43075.44
451.997	42944.37
452.203	43720.55
452.409	43931.49
452.615	43315.05
452.821	41924.48
453.027	41617.28
453.233	43396.97
453.44	41592.71
453.646	42475.38
453.852	42377.08
454.058	43310.96
454.264	41412.49
454.47	43462.5
454.676	41717.64
454.882	42958.7
455.088	39450.53
455.294	39856.03
455.5	40714.13
455.705	41045.9
455.911	39286.7
456.117	38547.38
456.323	38131.64
456.529	36095.96
456.735	37418.95
456.941	36358.1
457.147	36018.14
457.352	35162.09
457.558	34949.1
457.764	34613.23
457.97	34502.64
458.176	33531.9
458.381	33677.31
458.587	31883.29
458.793	31932.44
458.999	30101.56
459.204	32335.89
459.41	31158.31
459.616	29442.11
459.821	29286.47
460.027	29438.01
460.233	28661.83
460.438	27246.69
460.644	27756.63
460.85	26282.09
461.055	25823.35
461.261	25766.01
461.466	23912.6
461.672	23304.35
461.878	24426.64
462.083	23392.41
462.289	22743.2
462.494	22653.09
462.7	21629.11
462.905	20762.82
463.111	22026.42
463.316	21876.91
463.522	21573.81
463.727	21477.56
463.932	21665.97
464.138	21145.79
464.343	21369.02
464.549	20824.26
464.754	21049.53
464.959	21006.53
465.165	21133.5
465.37	20304.07
465.575	19697.88
465.781	20531.4
465.986	20435.14
466.191	19558.61
466.397	19298.52
466.602	18387.18
466.807	19065.05
467.012	19347.67
467.218	19015.9
467.423	18632.93
467.628	19112.16
467.833	19609.81
468.038	18907.36
468.244	18487.53
468.449	19228.89
468.654	18497.77
468.859	18288.87
469.064	18333.93
469.269	17656.05
469.474	17969.39
469.679	18280.68
469.885	17502.45
470.09	17914.09
470.295	17619.19
470.5	17422.58
470.705	17373.43
470.91	16929.02
471.115	16949.5
471.32	17137.91
471.525	17021.18
471.73	16341.25
471.935	16554.24
472.139	15976.72
472.344	16271.62
472.549	15866.13
472.754	15579.41
472.959	15304.98
473.164	15386.9
473.369	14866.72
473.574	15671.57
473.778	15249.69
473.983	15360.28
474.188	15245.59
474.393	14475.56
474.598	14657.82
474.802	14453.03
475.007	14160.17
475.212	14391.59
475.417	13801.77
475.621	13908.27
475.826	14108.97
476.031	13627.7
476.235	13265.21
476.44	13654.32
476.645	13300.02
476.849	13312.31
477.054	13371.7
477.259	12947.77
477.463	13089.08
477.668	12736.83
477.872	12847.42
478.077	12501.31
478.282	12396.87
478.486	12245.32
478.691	12323.14
478.895	12280.13
479.1	11876.68
479.304	11979.08
479.509	11762
479.713	11784.52
479.918	11805
480.122	11452.75
480.326	11747.66
480.531	11860.3
480.735	11573.58
480.94	11549.01
481.144	11831.63
481.348	11266.39
481.553	11426.13
481.757	11270.48
481.961	11350.35
482.166	11587.92
482.37	11182.42
482.574	11202.9
482.778	11268.44
482.983	11385.17
483.187	11131.22
483.391	11266.39
483.595	11057.5
483.8	11000.15
484.004	11295.06
484.208	11446.61
484.412	11053.4
484.616	11114.84
484.821	11088.21
485.025	11051.35
485.229	11268.44
485.433	11118.93
485.637	11114.84
485.841	11073.88
486.045	11039.06
486.249	10977.62
486.453	11172.18
486.657	10774.88
486.861	11315.54
487.065	10897.75
487.269	11094.36
487.473	11008.34
487.677	11227.48
487.881	11098.45
488.085	11153.75
488.289	11276.63
488.493	11239.76
488.697	11419.99
488.901	11286.87
489.105	11290.96
489.309	11211.09
489.512	11327.83
489.716	11342.16
489.92	11518.29
490.124	11215.19
490.328	11680.08
490.531	11237.72
490.735	11450.71
490.939	11518.29
491.143	11430.23
491.346	11493.71
491.55	11594.06
491.754	11667.79
491.958	11817.29
492.161	11520.34
492.365	11551.06
492.569	11860.3
492.772	11856.2
492.976	11757.9
493.18	11942.22
493.383	12017.99
493.587	12249.41
493.79	12122.44
493.994	11942.22
494.197	12144.97
494.401	12372.29
494.605	12392.77
494.808	12603.71
495.012	12544.32
495.215	12650.81
495.419	12859.71
495.622	12798.27
495.825	13109.56
496.029	12912.95
496.232	13095.22
496.436	13087.03
496.639	13314.36
496.843	13470
497.046	13676.85
497.249	13822.25
497.453	13969.71
497.656	14123.3
497.859	14006.57
498.063	13994.28
498.266	14655.78
498.469	14399.78
498.673	14659.87
498.876	14954.78
499.079	15028.51
499.282	14846.24
499.485	15167.77
499.689	15704.34
499.892	15614.23
500.095	15589.65
500.298	16038.16
500.501	15808.78
500.705	16191.75
500.908	16445.7
501.111	16675.07
501.314	16832.77
501.517	16965.89
501.72	17043.71
501.923	17135.87
502.126	17737.97
502.329	17721.59
502.532	17922.29
502.735	17926.38
502.938	18421.99
503.141	18387.18
503.344	18794.72
503.547	18536.68
503.75	19081.44
503.953	19120.35
504.156	19437.78
504.359	19658.96
504.562	19613.91
504.765	20121.8
504.968	20183.24
505.17	20445.38
505.373	20719.81
505.576	20981.95
505.779	21121.21
505.982	21358.78
506.185	21625.01
506.387	21770.42
506.59	22038.7
506.793	22528.17
506.996	22175.92
507.198	22771.88
507.401	22569.13
507.604	23251.1
507.807	23410.84
508.009	23836.82
508.212	23802
508.415	24244.37
508.617	24512.65
508.82	24303.76
509.022	24739.97
509.225	25272.45
509.428	25186.43
509.63	25471.1
509.833	25311.36
510.035	26165.36
510.238	25923.7
510.44	26376.3
510.643	26947.68
510.845	27244.64
511.048	26751.08
511.25	27271.26
511.453	27537.5
511.655	28598.35
511.858	27971.67
512.06	28332.11
512.262	28399.69
512.465	28790.86
512.667	29274.18
512.87	29614.14
513.072	29415.49
513.274	30068.79
513.477	30353.46
513.679	30611.5
513.881	31037.48
514.084	31207.46
514.286	31176.74
514.488	31445.02
514.69	32122.9
514.893	32290.84
515.095	32319.51
515.297	32735.24
515.499	32858.12
515.701	33273.86
515.904	33765.37
516.106	33695.74
516.308	33753.08
516.51	34381.81
516.712	34467.83
516.914	34662.38
517.116	35327.97
517.318	35354.6
517.52	35497.95
517.722	35891.16
517.925	36173.78
518.127	36548.56
518.329	37097.42
518.531	36921.29
518.733	37265.35
518.935	37775.3
519.136	37840.83
519.338	38381.49
519.54	38764.46
519.742	38444.98
519.944	38571.96
520.146	39610.28
520.348	39086
520.55	39747.49
520.752	39798.69
520.954	40599.44
521.155	40308.63
521.357	40949.65
521.559	41138.06
521.761	41645.96
521.963	41506.69
522.164	42119.04
522.366	42114.94
522.568	42397.56
522.77	42467.19
522.971	42936.18
523.173	43026.29
523.375	43380.59
523.576	43298.67
523.778	43132.78
523.98	44025.7
524.181	44134.24
524.383	43806.56
524.584	44797.78
524.786	44511.06
524.988	43911.01
525.189	45055.82
525.391	45279.05
525.592	45234
525.794	45336.4
525.995	45481.8
526.197	46006.08
526.398	45662.02
526.6	45946.69
526.801	46141.25
527.003	46108.48
527.204	46554.94
527.406	46763.83
527.607	46649.14
527.808	46763.83
528.01	46518.07
528.211	47015.73
528.412	47337.26
528.614	47566.63
528.815	47365.93
529.016	47787.81
529.218	47290.16
529.419	47410.99
529.62	47728.42
529.822	47630.12
530.023	47585.07
530.224	47540.01
530.425	47466.28
530.626	47685.42
530.828	47554.35
531.029	48750.36
531.23	47886.12
531.431	47822.63
531.632	48371.49
531.833	48445.21
532.035	47836.97
532.236	48299.81
532.437	48551.71
532.638	47943.46
532.839	48652.06
533.04	48607
533.241	47994.66
533.442	48791.32
533.643	48445.21
533.844	48355.1
534.045	48693.02
534.246	48047.91
534.447	48604.95
534.648	48160.55
534.849	48340.77
535.05	47769.38
535.251	48295.71
535.451	47959.84
535.652	48494.36
535.853	48035.62
536.054	48348.96
536.255	48625.43
536.456	48025.38
536.657	48748.31
536.857	48467.74
537.058	48191.26
537.259	48664.35
537.46	48518.94
537.66	48031.52
537.861	48086.82
538.062	48383.77
538.263	47892.26
538.463	48017.19
538.664	47965.99
538.865	48021.28
539.065	48221.98
539.266	47890.21
539.466	48367.39
539.667	47511.34
539.868	48213.79
540.068	48062.24
540.269	47949.6
540.469	47935.27
540.67	47650.6
540.87	47916.84
541.071	47826.73
541.271	48082.72
541.472	48131.87
541.672	47501.1
541.873	47388.46
542.073	47548.2
542.274	47968.04
542.474	48006.95
542.675	47279.92
542.875	48299.81
543.075	47709.99
543.276	47179.57
543.476	48097.06
543.676	47599.4
543.877	47744.81
544.077	47644.46
544.277	47593.26
544.478	47814.44
544.678	47849.25
544.878	47566.63
545.078	47531.82
545.279	47628.07
545.479	47183.66
545.679	47576.87
545.879	47503.15
546.079	47648.55
546.28	47281.97
546.48	47171.38
546.68	47443.76
546.88	47580.97
547.08	47503.15
547.28	47456.04
547.48	47327.02
547.68	47753
547.88	47302.45
548.081	47400.75
548.281	47621.93
548.481	47382.32
548.681	48074.53
548.881	47419.18
549.081	47433.52
549.28	46819.13
549.48	47458.09
549.68	46776.12
549.88	47533.87
550.08	47001.39
550.28	47359.79
550.48	46645.05
550.68	47359.79
550.88	47030.07
551.08	46860.08
551.279	47359.79
551.479	46870.32
551.679	47304.49
551.879	47613.74
552.079	47085.36
552.278	46995.25
552.478	47118.13
552.678	47183.66
552.878	47836.97
553.077	46700.34
553.277	46552.89
553.477	47419.18
553.676	46733.11
553.876	46937.91
554.076	46780.21
554.275	46817.08
554.475	46237.5
554.674	46954.29
554.874	47236.91
555.074	46761.78
555.273	46763.83
555.473	46982.96
555.672	46708.54
555.872	46360.38
556.071	47079.22
556.271	47490.86
556.47	46659.38
556.67	46210.88
556.869	46409.53
557.068	46665.53
557.268	45885.25
557.467	46460.73
557.667	46542.65
557.866	46413.63
558.065	46563.13
558.265	46491.45
558.464	45934.4
558.663	46630.71
558.863	45961.03
559.062	46481.21
559.261	45965.12
559.461	46411.58
559.66	45641.54
559.859	46278.46
560.058	45576.01
560.258	46251.84
560.457	45631.3
560.656	46214.97
560.855	45707.08
561.054	45936.45
561.253	46180.16
561.453	45997.89
561.652	45481.8
561.851	45723.46
562.05	45182.8
562.249	45555.53
562.448	45813.57
562.647	45451.08
562.846	45084.5
563.045	45502.28
563.244	45487.95
563.443	45502.28
563.642	45113.17
563.841	45363.02
564.04	45522.76
564.239	45516.62
564.438	44494.68
564.637	44924.75
564.836	45127.5
565.035	44615.51
565.234	45279.05
565.432	44679
565.631	44367.71
565.83	44648.28
566.029	44480.35
566.228	44142.43
566.427	44210.01
566.625	44351.32
566.824	43958.11
567.023	44476.25
567.222	43667.3
567.42	44478.3
567.619	43812.71
567.818	43890.53
568.016	43951.97
568.215	44408.67
568.414	43351.91
568.612	44259.16
568.811	43476.84
569.01	43421.55
569.208	43296.62
569.407	43626.34
569.605	43413.35
569.804	43831.14
570.002	43192.17
570.201	43444.07
570.4	42764.15
570.598	42905.46
570.797	42618.74
570.995	43079.53
571.193	42735.48
571.392	42796.91
571.59	42436.47
571.789	42180.48
571.987	41822.08
572.186	42280.83
572.384	42168.19
572.582	41885.57
572.781	42479.48
572.979	41633.67
573.177	41916.29
573.376	42065.79
573.574	41553.8
573.772	41922.43
573.971	41592.71
574.169	41668.48
574.367	41723.78
574.565	41486.21
574.763	41432.97
574.962	41439.11
575.16	40636.31
575.358	40970.13
575.556	40847.25
575.754	41375.62
575.952	40683.41
576.151	40820.63
576.349	40034.21
576.547	40447.89
576.745	40298.39
576.943	40499.09
577.141	39976.86
577.339	40210.33
577.537	40380.31
577.735	40032.16
577.933	39778.21
578.131	39919.52
578.329	39813.02
578.527	39362.47
578.725	39724.96
578.923	39341.99
579.121	39131.05
579.319	39278.5
579.516	39585.7
579.714	39491.49
579.912	39237.55
580.11	39088.04
580.308	38772.66
580.506	39096.24
580.704	38395.83
580.901	38754.22
581.099	38786.99
581.297	38291.38
581.495	38012.86
581.692	38739.89
581.89	38363.06
582.088	38338.49
582.285	37982.14
582.483	38387.64
582.681	38141.88
582.878	37490.63
583.076	37494.72
583.274	37846.97
583.471	37384.13
583.669	37795.78
583.866	37291.97
584.064	37128.14
584.262	36909
584.459	37291.97
584.657	36986.83
584.854	37304.26
585.052	36210.65
585.249	36880.33
585.447	36532.18
585.644	36349.91
585.841	36870.09
586.039	36702.16
586.236	35815.39
586.434	36044.76
586.631	35870.68
586.828	36085.72
587.026	36175.83
587.223	35876.83
587.42	35620.83
587.618	35561.44
587.815	35504.1
588.012	35452.9
588.21	35239.91
588.407	35450.85
588.604	35254.25
588.801	35061.74
588.999	34959.34
589.196	35031.02
589.393	34684.91
589.59	35037.16
589.787	34680.81
589.984	34754.54
590.182	34232.31
590.379	34392.05
590.576	34283.51
590.773	34555.89
590.97	33804.28
591.167	34449.39
591.364	33808.38
591.561	34101.24
591.758	33783.8
591.955	33871.87
592.152	33781.76
592.349	33736.7
592.546	33632.25
592.743	33351.68
592.94	33089.54
593.137	33280
593.334	33245.19
593.531	32839.69
593.727	33126.41
593.924	32993.29
594.121	32641.04
594.318	33001.48
594.515	32616.46
594.712	32645.13
594.908	32378.9
595.105	32616.46
595.302	32307.22
595.499	32210.96
595.696	32090.13
595.892	32020.5
596.089	31934.49
596.286	32221.2
596.482	31572
596.679	31881.24
596.876	31797.27
597.072	31471.65
597.269	31633.44
597.466	31137.83
597.662	31070.25
597.859	30855.21
598.055	31293.47
598.252	30879.78
598.448	30963.75
598.645	30666.8
598.841	30564.4
599.038	30799.91
599.234	30646.32
599.431	30099.51
599.627	30083.12
599.824	30326.83
600.02	30324.79
600.217	30265.39
600.413	29890.62
600.609	29741.11
600.806	29954.1
601.002	29661.24
601.198	29675.58
601.395	29392.96
601.591	29251.65
601.787	29747.26
601.984	29114.44
602.18	29345.86
602.376	29104.2
602.572	28971.08
602.769	29026.37
602.965	28749.9
603.161	28813.38
603.357	28690.51
603.553	28569.68
603.75	28663.88
603.946	28504.14
604.142	28407.89
604.338	28041.3
604.534	28596.3
604.73	28080.21
604.926	28334.16
605.122	27934.81
605.318	28020.82
605.514	27992.15
605.71	27658.33
605.906	27674.71
606.102	27678.81
606.298	27646.04
606.494	27990.1
606.69	27912.28
606.886	27506.78
607.082	27115.62
607.278	27584.6
607.474	26769.51
607.67	27326.56
607.866	26941.54
608.062	27283.55
608.257	27060.32
608.453	26953.83
608.649	26898.53
608.845	27179.11
609.041	26826.85
609.236	27220.06
609.432	26372.21
609.628	26474.6
609.824	26800.23
610.019	26296.43
610.215	26476.65
610.411	26505.32
610.606	26425.45
610.802	26288.24
610.998	26239.09
611.193	26280.05
611.389	26124.4
611.584	26114.16
611.78	25989.24
611.976	26177.65
612.171	25948.28
612.367	25927.8
612.562	25874.55
612.758	25211.01
612.953	25419.9
613.149	25735.29
613.344	25233.53
613.539	26144.88
613.735	25393.28
613.93	25704.57
614.126	25458.81
614.321	25753.72
614.517	25569.4
614.712	25806.97
614.907	25337.98
615.103	25159.81
615.298	25489.53
615.493	25534.59
615.688	25071.75
615.884	25315.45
616.079	25008.26
616.274	25051.27
616.47	24860.8
616.665	24774.79
616.86	24563.85
617.055	24795.27
617.25	24881.28
617.445	24830.09
617.641	24465.55
617.836	24717.45
618.031	24232.08
618.226	24447.11
618.421	24305.81
618.616	24535.18
618.811	23750.81
619.006	24457.35
619.201	23965.84
619.396	24072.34
619.591	23728.28
619.786	23826.58
619.981	23488.67
620.176	23742.61
620.371	23447.71
620.566	23503
620.761	23068.83
620.956	23064.74
621.151	22853.8
621.346	23066.78
621.541	22642.85
621.735	22708.39
621.93	22649
622.125	22378.67
622.32	21979.31
622.515	22309.04
622.709	22137.01
622.904	22337.71
623.099	21899.44
623.294	21790.9
623.488	21854.39
623.683	21821.62
623.878	21622.97
624.072	20998.34
624.267	21295.29
624.462	21301.43
624.656	20836.55
624.851	21283
625.046	20990.14
625.24	20902.08
625.435	20482.25
625.629	20580.55
625.824	20539.59
626.018	20275.4
626.213	19966.16
626.407	20285.64
626.602	19884.24
626.796	20072.65
626.991	20103.37
627.185	19583.19
627.38	19562.71
627.574	19628.24
627.768	19382.49
627.963	19183.84
628.157	19198.17
628.352	18952.41
628.546	19009.76
628.74	19067.1
628.935	18774.24
629.129	18966.75
629.323	18610.4
629.517	18479.33
629.712	18368.74
629.906	18342.12
630.1	18090.22
630.294	18041.07
630.489	17869.04
630.683	18204.91
630.877	17600.76
631.071	17815.79
631.265	17873.14
631.459	17770.74
631.653	17570.04
631.848	17643.76
632.042	17301.75
632.236	17418.49
632.43	17021.18
632.624	17223.93
632.818	16793.86
633.012	16679.17
633.206	16824.58
633.4	16746.75
633.594	16591.11
633.788	16668.93
633.982	16589.06
634.176	16374.02
634.369	16261.38
634.563	15966.48
634.757	16019.72
634.951	16056.59
635.145	16179.47
635.339	16158.99
635.533	15712.53
635.726	15616.27
635.92	15280.41
636.114	15581.46
636.308	15423.76
636.501	15339.8
636.695	15290.65
636.889	15294.74
637.083	15167.77
637.276	14868.77
637.47	14948.64
637.664	15018.27
637.857	14977.31
638.051	14840.09
638.244	14694.69
638.438	14704.93
638.632	14485.79
638.825	14317.86
639.019	14434.6
639.212	14367.01
639.406	14303.53
639.599	14203.18
639.793	14225.7
639.986	13842.73
640.18	13740.33
640.373	13945.13
640.567	13744.43
640.76	13627.7
640.954	13691.18
641.147	13517.11
641.34	13533.49
641.534	13560.11
641.727	13459.76
641.92	13576.5
642.114	13216.05
642.307	13173.05
642.5	12970.3
642.694	12824.89
642.887	13035.83
643.08	13127.99
643.273	12761.41
643.467	12810.56
643.66	12566.85
643.853	12609.86
644.046	12525.89
644.239	12495.17
644.432	12278.08
644.626	12382.53
644.819	12380.48
645.012	12433.73
645.205	12198.21
645.398	12310.85
645.591	12038.47
645.784	12175.69
645.977	11876.68
646.17	11807.05
646.363	11743.56
646.556	11659.6
646.749	11862.35
646.942	11622.73
647.135	11594.06
647.328	11706.7
647.521	11690.32
647.714	11393.36
647.907	11270.48
648.099	11135.32
648.292	11237.72
648.485	10973.53
648.678	10938.71
648.871	10977.62
649.064	10991.96
649.256	10979.67
649.449	10842.46
649.642	10944.86
649.835	10731.87
650.027	10662.24
650.22	10424.67
650.413	10525.02
650.605	10594.65
650.798	10619.23
650.991	10291.55
651.183	10391.91
651.376	10142.05
651.568	10508.64
651.761	10238.31
651.954	10185.06
652.146	10076.52
652.339	10283.36
652.531	9933.16
652.724	9890.15
652.916	9900.39
653.109	9920.87
653.301	9746.8
653.494	9884.01
653.686	9484.66
653.879	9734.51
654.071	9402.74
654.263	9302.39
654.456	9505.13
654.648	9552.24
654.84	9451.89
655.033	9412.98
655.225	9009.53
655.417	9193.84
655.61	9093.49
655.802	9150.84
655.994	9109.88
656.186	9044.34
656.379	9003.38
656.571	8898.94
656.763	8665.47
656.955	8892.79
657.148	8978.81
657.34	8823.16
657.532	8739.19
657.724	8708.48
657.916	8757.63
658.108	8796.54
658.3	8417.66
658.492	8685.95
658.684	8487.29
658.876	8366.46
659.068	8405.38
659.26	8321.41
659.452	8319.36
659.644	8272.26
659.836	8092.04
660.028	8126.85
660.22	8159.62
660.412	8139.14
660.604	7793.03
660.796	7979.4
660.988	7938.44
661.18	7838.09
661.372	7889.29
661.563	7764.36
661.755	7614.86
661.947	7645.58
662.139	7770.51
662.331	7594.38
662.522	7526.8
662.714	7559.56
662.906	7461.26
663.097	7471.5
663.289	7291.28
663.481	7391.63
663.673	7338.38
663.864	7475.6
664.056	7291.28
664.247	7223.7
664.439	7117.2
664.631	7145.87
664.822	7123.35
665.014	7149.97
665.205	6957.46
665.397	7084.44
665.588	7053.72
665.78	6846.87
665.971	6953.37
666.163	7057.81
666.354	6910.36
666.546	6656.41
666.737	6773.14
666.929	6592.92
667.12	6734.23
667.311	6676.89
667.503	6615.45
667.694	6420.89
667.885	6345.12
668.077	6504.86
668.268	6406.56
668.459	6459.81
668.651	6502.81
668.842	6470.05
669.033	6293.92
669.224	6224.29
669.416	6257.06
669.607	6343.07
669.798	6326.69
669.989	6379.93
670.18	6125.99
670.371	6220.19
670.563	6154.66
670.754	6056.36
670.945	6101.41
671.136	5949.86
671.327	5904.81
671.518	5872.04
671.709	5933.48
671.9	5835.17
672.091	5886.37
672.282	5923.24
672.473	5859.75
672.664	5853.61
672.855	5906.85
673.046	5704.1
673.237	5777.83
673.428	5740.97
673.619	5792.17
673.809	5620.14
674	5585.32
674.191	5595.56
674.382	5474.73
674.573	5550.51
674.764	5581.23
674.954	5581.23
675.145	5489.07
675.336	5405.1
675.527	5480.88
675.717	5431.73
675.908	5433.77
676.099	5339.57
676.289	5401.01
676.48	5401.01
676.671	5286.32
676.861	5314.99
677.052	5118.39
677.243	5122.48
677.433	5157.3
677.624	5241.26
677.814	5118.39
678.005	5040.56
678.195	5040.56
678.386	5028.28
678.576	4995.51
678.767	5054.9
678.957	5204.4
679.148	4929.97
679.338	5073.33
679.529	4874.68
679.719	4948.4
679.909	5145.01
680.1	4792.76
680.29	5044.66
680.481	4868.53
680.671	4960.69
680.861	4618.68
681.052	4846.01
681.242	4825.53
681.432	4833.72
681.622	4743.61
681.813	4688.31
682.003	4604.35
682.193	4755.9
682.383	4719.03
682.573	4612.54
682.764	4583.87
682.954	4587.96
683.144	4630.97
683.334	4643.26
683.524	4512.19
683.714	4653.5
683.904	4479.42
684.094	4532.67
684.284	4448.7
684.474	4659.64
684.664	4399.55
684.854	4528.57
685.044	4264.38
685.234	4350.4
685.424	4422.08
685.614	4463.04
685.804	4448.7
685.994	4387.26
686.184	4362.69
686.374	4417.98
686.564	4348.35
686.753	4291.01
686.943	4280.77
687.133	4358.59
687.323	4342.21
687.513	4315.58
687.702	4219.33
687.892	4012.48
688.082	4204.99
688.272	4073.92
688.461	4030.91
688.651	4071.87
688.841	4035.01
689.03	4088.26
689.22	4086.21
689.41	4028.87
689.599	3973.57
689.789	3983.81
689.979	3983.81
690.168	3926.47
690.358	4016.58
690.547	3920.32
690.737	3930.56
690.926	3856.84
691.116	3940.8
691.305	4022.72
691.495	3785.16
691.684	3856.84
691.874	3916.23
692.063	3770.82
692.252	3803.59
692.442	3826.12
692.631	3797.45
692.82	3844.55
693.01	3783.11
693.199	3621.32
693.388	3701.19
693.578	3658.18
693.767	3639.75
693.956	3711.43
694.146	3656.14
694.335	3563.98
694.524	3641.8
694.713	3629.51
694.902	3615.18
695.092	3584.46
695.281	3600.84
695.47	3504.59
695.659	3416.52
695.848	3606.98
696.037	3486.15
696.226	3561.93
696.415	3488.2
696.604	3355.08
696.793	3518.92
696.982	3492.3
697.171	3553.74
697.36	3541.45
697.549	3416.52
697.738	3492.3
697.927	3381.71
698.116	3500.49
698.305	3361.23
698.494	3269.07
698.683	3361.23
698.872	3496.39
699.061	3430.86
699.25	3381.71
699.438	3410.38
699.627	3332.56
699.816	3357.13
700.005	3357.13
700.193	3326.41
700.382	3369.42
700.571	3258.83
700.76	3357.13
700.948	3353.04
701.137	3279.31
701.326	3162.58
701.514	3170.77
701.703	3178.96
701.892	3201.49
702.08	3342.8
702.269	3242.45
702.457	3160.53
702.646	3111.38
702.834	3152.34
703.023	3144.14
703.212	3017.17
703.4	3144.14
703.589	3144.14
703.777	3168.72
703.965	3127.76
704.154	3185.1
704.342	3076.56
704.531	3119.57
704.719	3070.42
704.907	3148.24
705.096	3086.8
705.284	3004.88
705.472	3015.12
705.661	3101.14
705.849	3072.47
706.037	3103.18
706.226	3115.47
706.414	2968.02
706.602	2988.5
706.79	2906.58
706.979	2898.39
707.167	2974.16
707.355	3045.84
707.543	3062.23
707.731	2845.14
707.919	2994.64
708.107	2884.05
708.296	2978.26
708.484	2914.77
708.672	2945.49
708.86	2986.45
709.048	2884.05
709.236	2898.39
709.424	2941.4
709.612	2939.35
709.8	2814.42
709.988	2906.58
710.176	2935.25
710.364	2894.29
710.551	2925.01
710.739	2851.28
710.927	2800.09
711.115	2660.82
711.303	2759.13
711.491	2755.03
711.679	2822.61
711.866	2861.52
712.054	2744.79
712.242	2783.7
712.43	2726.36
712.617	2742.74
712.805	2804.18
712.993	2787.8
713.181	2609.62
713.368	2693.59
713.556	2826.71
713.744	2615.77
713.931	2628.06
714.119	2689.49
714.306	2652.63
714.494	2709.97
714.682	2742.74
714.869	2630.1
715.057	2660.82
715.244	2644.44
715.432	2595.29
715.619	2611.67
715.807	2519.51
715.994	2638.3
716.182	2646.49
716.369	2572.76
716.556	2664.92
716.744	2542.04
716.931	2611.67
717.119	2484.7
717.306	2560.47
717.493	2521.56
717.681	2542.04
717.868	2537.95
718.055	2447.83
718.242	2564.57
718.43	2406.88
718.617	2384.35
718.804	2392.54
718.991	2499.03
719.179	2492.89
719.366	2513.37
719.553	2449.88
719.74	2408.92
719.927	2433.5
720.114	2496.99
720.301	2359.77
720.488	2308.57
720.676	2298.33
720.863	2343.39
721.05	2439.64
721.237	2351.58
721.424	2382.3
721.611	2304.48
721.798	2286.05
721.985	2228.7
722.172	2222.56
722.358	2378.2
722.545	2345.44
722.732	2376.16
722.919	2339.29
723.106	2316.76
723.293	2333.15
723.48	2277.85
723.667	2212.32
723.853	2316.76
724.04	2222.56
724.227	2224.61
724.414	2234.85
724.6	2316.76
724.787	2216.41
724.974	2212.32
725.161	2161.12
725.347	2187.74
725.534	2204.13
725.72	2154.98
725.907	2202.08
726.094	2230.75
726.28	2259.42
726.467	2204.13
726.653	2157.02
726.84	2089.44
727.027	2152.93
727.213	2048.48
727.4	2157.02
727.586	2118.11
727.773	2159.07
727.959	2068.96
728.145	2197.98
728.332	2154.98
728.518	2095.58
728.705	2253.28
728.891	2062.82
729.077	2034.14
729.264	2118.11
729.45	2114.02
729.636	2081.25
729.823	2109.92
730.009	2087.39
730.195	2064.86
730.382	2173.41
730.568	1933.79
730.754	1984.99
730.94	2009.57
731.126	2089.44
731.313	2144.74
731.499	2007.52
731.685	2157.02
731.871	2028
732.057	2038.24
732.243	1972.71
732.429	2046.43
732.615	2058.72
732.801	2001.38
732.987	2005.47
733.173	1978.85
733.359	1980.9
733.545	1898.98
733.731	1950.18
733.917	1855.97
734.103	1980.9
734.289	1907.17
734.475	1853.92
734.661	1991.14
734.847	1784.29
735.033	1870.31
735.219	1898.98
735.404	1960.42
735.59	1870.31
735.776	1792.48
735.962	1888.74
736.148	1903.07
736.333	1931.75
736.519	1944.03
736.705	1784.29
736.89	1911.27
737.076	1933.79
737.262	1798.63
737.447	1755.62
737.633	1751.53
737.819	1839.59
738.004	1753.57
738.19	1720.81
738.375	1829.35
738.561	1784.29
738.747	1784.29
738.932	1599.98
739.118	1823.2
739.303	1776.1
739.489	1729
739.674	1620.46
739.859	1724.9
740.045	1655.27
740.23	1833.44
740.416	1683.94
740.601	1751.53
740.786	1632.74
740.972	1665.51
741.157	1747.43
741.342	1677.8
741.528	1640.93
741.713	1702.37
741.898	1706.47
742.084	1661.41
742.269	1614.31
742.454	1589.74
742.639	1681.89
742.824	1516.01
743.01	1647.08
743.195	1571.3
743.38	1622.5
743.565	1524.2
743.75	1589.74
743.935	1642.98
744.12	1612.26
744.305	1534.44
744.49	1540.58
744.675	1497.58
744.86	1489.39
745.045	1532.39
745.23	1546.73
745.415	1554.92
745.6	1569.26
745.785	1483.24
745.97	1530.34
746.155	1456.62
746.34	1491.43
746.525	1452.52
746.71	1473
746.895	1442.28
747.079	1378.79
747.264	1391.08
747.449	1364.46
747.634	1473
747.819	1397.23
748.003	1370.6
748.188	1325.55
748.373	1423.85
748.557	1419.75
748.742	1436.14
748.927	1376.75
749.111	1442.28
749.296	1335.79
749.481	1399.27
749.665	1245.68
749.85	1341.93
750.034	1280.49
750.219	1214.96
750.404	1321.45
750.588	1210.86
750.773	1315.31
750.957	1229.29
751.141	1171.95
751.326	1241.58
751.51	1206.77
751.695	1286.64
751.879	1243.63
752.064	1137.13
752.248	1262.06
752.432	1104.37
752.617	1188.33
752.801	1163.76
752.985	1208.81
753.17	1180.14
753.354	1137.13
753.538	1087.98
753.722	1063.41
753.907	1178.09
754.091	1040.88
754.275	1137.13
754.459	1055.22
754.643	1094.13
754.828	1008.11
755.012	1092.08
755.196	1018.35
755.38	1042.93
755.564	1063.41
755.748	1122.8
755.932	1108.46
756.116	979.44
756.3	1100.27
756.484	926.19
756.668	1022.45
756.852	997.87
757.036	1038.83
757.22	950.77
757.404	1034.74
757.588	891.38
757.772	1063.41
757.956	891.38
758.14	897.52
758.323	918
758.507	1020.4
758.691	938.48
758.875	932.34
759.059	967.15
759.242	893.43
759.426	831.99
759.61	803.32
759.794	936.43
759.977	803.32
760.161	850.42
760.345	862.71
760.528	991.73
760.712	866.8
760.895	811.51
761.079	874.99
761.263	819.7
761.446	825.84
761.63	817.65
761.813	850.42
761.997	784.88
762.18	905.71
762.364	852.47
762.547	811.51
762.731	825.84
762.914	838.13
763.098	836.08
763.281	727.54
763.464	819.7
763.648	760.31
763.831	797.17
764.015	801.27
764.198	793.08
764.381	797.17
764.564	842.23
764.748	788.98
764.931	772.6
765.114	793.08
765.297	762.36
765.481	797.17
765.664	709.11
765.847	809.46
766.03	776.69
766.213	817.65
766.397	694.77
766.58	739.83
766.763	745.97
766.946	756.21
767.129	752.12
767.312	659.96
767.495	768.5
767.678	711.16
767.861	705.01
768.044	682.49
768.227	715.25
768.41	702.97
768.593	702.97
768.776	713.21
768.959	725.49
769.142	647.67
769.324	678.39
769.507	766.45
769.69	735.73
769.873	686.58
770.056	707.06
770.239	662.01
770.421	688.63
770.604	674.29
770.787	635.38
770.97	655.86
771.152	504.31
771.335	680.44
771.518	727.54
771.7	727.54
771.883	637.43
772.066	670.2
772.248	653.81
772.431	713.21
772.613	686.58
772.796	596.47
772.978	670.2
773.161	541.18
773.343	690.68
773.526	707.06
773.708	555.51
773.891	580.09
774.073	612.85
774.256	664.05
774.438	573.94
774.621	588.28
774.803	621.05
774.985	530.94
775.168	541.18
775.35	518.65
775.532	612.85
775.715	571.9
775.897	551.42
776.079	602.61
776.261	571.9
776.444	547.32
776.626	551.42
776.808	514.55
776.99	557.56
777.173	543.22
777.355	565.75
777.537	594.42
777.719	551.42
777.901	475.64
778.083	500.22
778.265	471.54
778.447	522.74
778.629	559.61
778.811	489.98
778.993	467.45
779.175	516.6
779.357	506.36
779.539	428.54
779.721	477.69
779.903	475.64
780.085	541.18
780.267	457.21
780.449	506.36
780.631	483.83
780.812	434.68
780.994	424.44
781.176	438.78
781.358	442.87
781.54	369.15
781.721	438.78
781.903	426.49
782.085	483.83
782.267	469.5
782.448	436.73
782.63	399.87
782.812	391.67
782.993	399.87
783.175	457.21
783.357	453.11
783.538	418.3
783.72	399.87
783.901	369.15
784.083	412.15
784.264	408.06
784.446	367.1
784.627	416.25
784.809	410.11
784.99	334.33
785.172	428.54
785.353	350.71
785.535	358.91
785.716	360.95
785.897	432.63
786.079	363
786.26	391.67
786.441	399.87
786.623	287.23
786.804	291.32
786.985	334.33
787.167	332.28
787.348	342.52
787.529	367.1
787.71	367.1
787.891	330.23
788.073	303.61
788.254	246.27
788.435	360.95
788.616	301.56
788.797	383.48
788.978	342.52
789.159	358.91
789.34	365.05
789.522	322.04
789.703	246.27
789.884	418.3
790.065	270.84
790.246	358.91
790.427	354.81
790.607	307.71
790.788	379.39
790.969	320
791.15	301.56
791.331	295.42
791.512	274.94
791.693	281.08
791.874	199.16
792.054	363
792.235	320
792.416	313.85
792.597	195.07
792.778	313.85
792.958	164.35
793.139	260.6
793.32	244.22
793.5	219.64
793.681	205.31
793.862	244.22
794.042	254.46
794.223	188.93
794.404	303.61
794.584	203.26
794.765	201.21
794.945	236.03
795.126	268.8
795.306	221.69
795.487	190.97
795.667	211.45
795.848	272.89
796.028	186.88
796.209	188.93
796.389	211.45
796.57	289.28
796.75	205.31
796.93	236.03
797.111	227.84
797.291	182.78
797.471	211.45
797.652	301.56
797.832	195.07
798.012	229.88
798.192	225.79
798.373	182.78
798.553	180.73
798.733	137.73
798.913	170.49
799.093	90.62
799.274	268.8
799.454	211.45
799.634	211.45
799.814	229.88
799.994	131.58
800.174	262.65
800.354	131.58
800.534	137.73
800.714	180.73
800.894	158.21
801.074	127.49
801.254	158.21
801.434	170.49
801.614	268.8
801.794	117.25
801.974	649.72
802.154	145.92
802.334	109.05
802.514	139.77
802.693	178.69
802.873	125.44
803.053	244.22
803.233	158.21
803.413	195.07
803.592	178.69
803.772	258.56
803.952	188.93
804.131	186.88
804.311	111.1
804.491	221.69
804.67	121.34
804.85	129.53
805.03	182.78
805.209	172.54
805.389	90.62
805.568	166.4
805.748	127.49
805.928	145.92
806.107	168.45
806.287	150.01
806.466	176.64
806.646	150.01
806.825	145.92
807.004	143.87
807.184	113.15
807.363	145.92
807.543	131.58
807.722	203.26
807.901	211.45
808.081	178.69
808.26	64
808.439	107.01
808.619	98.81
808.798	154.11
808.977	178.69
809.156	168.45
809.336	119.29
809.515	133.63
809.694	113.15
809.873	129.53
810.052	170.49
810.231	162.3
810.411	135.68
810.59	109.05
810.769	147.97
810.948	178.69
811.127	64
811.306	164.35
811.485	135.68
811.664	158.21
811.843	139.77
812.022	64
812.201	88.57
812.38	137.73
812.559	109.05
812.737	137.73
812.916	121.34
813.095	104.96
813.274	61.95
813.453	246.27
813.632	172.54
813.811	129.53
813.989	127.49
814.168	162.3
814.347	84.48
814.526	100.86
814.704	129.53
814.883	145.92
815.062	72.19
815.24	135.68
815.419	88.57
815.598	102.91
815.776	121.34
815.955	55.81
816.133	41.47
816.312	64
816.49	14.85
816.669	55.81
816.847	113.15
817.026	121.34
817.204	117.25
817.383	123.39
817.561	39.42
817.74	107.01
817.918	156.16
818.097	78.33
818.275	53.76
818.453	107.01
818.632	131.58
818.81	164.35
818.988	39.42
819.167	92.67
819.345	98.81
819.523	68.09
819.701	64
819.879	59.9
820.058	98.81
820.236	39.42
820.414	84.48
820.592	98.81
820.77	61.95
820.948	96.77
821.127	131.58
821.305	74.24
821.483	76.29
821.661	80.38
821.839	41.47
822.017	92.67
822.195	64
822.373	125.44
822.551	104.96
822.729	68.09
822.907	84.48
823.085	123.39
823.262	96.77
823.44	29.18
823.618	6.66
823.796	49.66
823.974	98.81
824.152	25.09
824.329	37.38
824.507	39.42
824.685	76.29
824.863	14.85
825.04	166.4
825.218	94.72
825.396	2.56
825.574	131.58
825.751	27.14
825.929	104.96
826.107	78.33
826.284	82.43
826.462	49.66
826.639	137.73
826.817	33.28
826.994	31.23
827.172	72.19
827.349	55.81
827.527	37.38
827.704	90.62
827.882	47.62
828.059	47.62
828.237	109.05
828.414	104.96
828.591	23.04
828.769	74.24
828.946	-17.92
829.124	74.24
829.301	29.18
829.478	47.62
829.655	84.48
829.833	104.96
830.01	-15.87
830.187	10.75
830.364	100.86
830.542	55.81
830.719	78.33
830.896	20.99
831.073	129.53
831.25	51.71
831.427	70.14
831.604	57.86
831.782	16.9
831.959	61.95
832.136	131.58
832.313	70.14
832.49	68.09
832.667	72.19
832.844	8.7
833.021	47.62
833.198	8.7
833.374	88.57
833.551	25.09
833.728	14.85
833.905	78.33
834.082	-83.45
834.259	78.33
834.436	72.19
834.612	47.62
834.789	84.48
834.966	39.42
835.143	88.57
835.319	-42.5
835.496	39.42
835.673	10.75
835.85	98.81
836.026	57.86
836.203	10.75
836.38	35.33
836.556	121.34
836.733	35.33
836.909	139.77
837.086	64
837.262	25.09
837.439	70.14
837.616	33.28
837.792	64
837.968	10.75
838.145	43.52
838.321	-1.54
838.498	23.04
838.674	94.72
838.851	25.09
839.027	121.34
839.203	27.14
839.38	57.86
839.556	47.62
839.732	70.14
839.909	14.85
840.085	88.57
840.261	-32.26
840.437	39.42
840.614	20.99
840.79	39.42
840.966	43.52
841.142	84.48
841.318	-1.54
841.494	33.28
841.671	107.01
841.847	23.04
842.023	-75.26
842.199	6.66
842.375	80.38
842.551	-9.73
842.727	-42.5
842.903	74.24
843.079	14.85
843.255	43.52
843.431	-32.26
843.607	47.62
843.783	-30.21
843.959	88.57
844.134	31.23
844.31	72.19
844.486	25.09
844.662	33.28
844.838	39.42
845.013	47.62
845.189	98.81
845.365	0.51
845.541	20.99
845.716	31.23
845.892	20.99
846.068	14.85
846.244	-73.21
846.419	2.56
846.595	31.23
846.77	27.14
846.946	80.38
847.122	57.86
847.297	29.18
847.473	115.2
847.648	-1.54
847.824	64
847.999	-67.07
848.175	27.14
848.35	31.23
848.526	68.09
848.701	72.19
848.876	14.85
849.052	43.52
849.227	66.05
849.403	-5.63
849.578	41.47
849.753	92.67
849.929	31.23
850.104	57.86
850.279	-7.68
850.454	-38.4
850.63	70.14
850.805	-42.5
850.98	84.48
851.155	-28.16
851.33	27.14
851.505	53.76
851.681	113.15
851.856	47.62
852.031	18.94
852.206	-58.88
852.381	25.09
852.556	6.66
852.731	8.7
852.906	66.05
853.081	14.85
853.256	55.81
853.431	0.51
853.606	-9.73
853.781	-1.54
853.956	-5.63
854.131	64
854.305	-1.54
854.48	41.47
854.655	43.52
854.83	-40.45
855.005	-15.87
855.18	64
855.354	-1.54
855.529	72.19
855.704	-67.07
855.879	-48.64
856.053	31.23
856.228	2.56
856.403	-56.83
856.577	43.52
856.752	-9.73
856.926	-17.92
857.101	6.66
857.276	39.42
857.45	37.38
857.625	16.9
857.799	-13.82
857.974	27.14
858.148	-73.21
858.323	-17.92
858.497	-5.63
858.672	-91.65
858.846	14.85
859.02	16.9
859.195	-9.73
859.369	-7.68
859.543	-9.73
859.718	-11.78
859.892	10.75
860.066	-17.92
860.241	0.51
860.415	55.81
860.589	6.66
860.763	84.48
860.938	-15.87
861.112	72.19
861.286	31.23
861.46	-30.21
861.634	12.8
861.808	8.7
861.982	14.85
862.157	-42.5
862.331	0.51
862.505	41.47
862.679	45.57
862.853	64
863.027	20.99
863.201	61.95
863.375	29.18
863.549	64
863.722	12.8
863.896	74.24
864.07	-1.54
864.244	57.86
864.418	61.95
864.592	68.09
864.766	-42.5
864.939	0.51
865.113	-40.45
865.287	-9.73
865.461	-17.92
865.634	47.62
865.808	51.71
865.982	-54.78
866.156	-40.45
866.329	-9.73
866.503	-3.58
866.676	-52.74
866.85	82.43
867.024	23.04
867.197	96.77
867.371	41.47
867.544	8.7
867.718	39.42
867.891	49.66
868.065	-17.92
868.238	25.09
868.412	-7.68
868.585	0.51
868.759	0.51
868.932	47.62
869.105	-7.68
869.279	27.14
869.452	-3.58
869.625	-9.73
869.799	2.56
869.972	-91.65
870.145	16.9
870.319	78.33
870.492	10.75
870.665	-11.78
870.838	-22.02
871.011	8.7
871.185	-48.64
871.358	-1.54
871.531	51.71
871.704	18.94
871.877	-48.64
872.05	-13.82
872.223	-9.73
872.396	-38.4
872.569	23.04
872.742	-50.69
872.915	-58.88
873.088	18.94
873.261	8.7
873.434	45.57
873.607	4.61
873.78	31.23
873.953	-34.3
874.126	-36.35
874.299	74.24
874.471	8.7
874.644	6.66
874.817	55.81
874.99	10.75
875.163	-15.87
875.335	8.7
875.508	-75.26
875.681	88.57
875.853	-60.93
876.026	-17.92
876.199	72.19
876.371	2.56
876.544	-5.63
876.717	53.76
876.889	-46.59
877.062	53.76
877.234	-26.11
877.407	-58.88
877.579	-7.68
877.752	-17.92
877.924	-24.06
878.097	-22.02
878.269	25.09
878.442	31.23
878.614	94.72
878.786	-3.58
878.959	8.7
879.131	8.7
879.303	-50.69
879.476	14.85
879.648	25.09
879.82	-42.5
879.993	8.7
880.165	-81.41
880.337	-26.11
880.509	-34.3
880.681	-83.45
880.854	-22.02
881.026	-42.5
881.198	-26.11
881.37	49.66
881.542	55.81
881.714	0.51
881.886	-5.63
882.058	-15.87
882.23	23.04
882.402	-65.02
882.574	27.14
882.746	-65.02
882.918	-30.21
883.09	23.04
883.262	57.86
883.434	47.62
883.606	-44.54
883.778	6.66
883.95	41.47
884.122	-112.13
884.293	-17.92
884.465	-50.69
884.637	64
884.809	-7.68
884.98	-26.11
885.152	-71.17
885.324	2.56
885.496	55.81
885.667	-46.59
885.839	23.04
886.011	88.57
886.182	-19.97
886.354	-11.78
886.525	43.52
886.697	-15.87
886.869	14.85
887.04	12.8
887.212	-48.64
887.383	59.9
887.555	0.51
887.726	16.9
887.897	25.09
888.069	-5.63
888.24	6.66
888.412	-99.84
888.583	6.66
888.754	-97.79
888.926	-26.11
889.097	-44.54
889.268	-58.88
889.44	-9.73
889.611	6.66
889.782	-22.02
889.953	-60.93
890.125	49.66
890.296	-32.26
890.467	4.61
890.638	20.99
890.809	8.7
890.98	8.7
891.151	-22.02
891.323	-9.73
891.494	20.99
891.665	53.76
891.836	-89.6
892.007	10.75
892.178	-17.92
892.349	-7.68
892.52	31.23
892.691	4.61
892.862	-38.4
893.032	25.09
893.203	0.51
893.374	61.95
893.545	-9.73
893.716	-13.82
893.887	39.42
894.057	39.42
894.228	-11.78
894.399	-108.03
894.57	14.85
894.74	-105.98
894.911	57.86
895.082	23.04
895.253	-24.06
895.423	8.7
895.594	-1.54
895.764	55.81
895.935	23.04
896.106	-50.69
896.276	64
896.447	20.99
896.617	2.56
896.788	-22.02
896.958	43.52
897.129	31.23
897.299	35.33
897.47	29.18
897.64	35.33
897.81	-5.63
897.981	31.23
898.151	25.09
898.322	-26.11
898.492	-46.59
898.662	-34.3
898.832	-9.73
899.003	72.19
899.173	-1.54
899.343	14.85
899.513	-34.3
