Data from USB4F104151__210__14-21-07-553.txt Node

Date: Thu Mar 13 14:21:07 EDT 2025
User: louis
Spectrometer: USB4F10415
Trigger mode: 4
Integration Time (sec): 2.000000E-2
Scans to average: 1
Electric dark correction enabled: true
Nonlinearity correction enabled: false
Boxcar width: 0
XAxis mode: Wavelengths
Number of Pixels in Spectrum: 3648
>>>>>Begin Spectral Data<<<<<
178.204	-99.84
178.424	-99.84
178.644	-99.84
178.864	-132.61
179.084	-73.21
179.304	-13.82
179.524	-7.68
179.744	-19.97
179.964	41.47
180.184	-7.68
180.404	-22.02
180.624	29.18
180.844	41.47
181.064	16.9
181.283	-13.82
181.503	-30.21
181.723	-13.82
181.943	-15.87
182.163	59.9
182.383	-79.36
182.602	-30.21
182.822	-24.06
183.042	12.8
183.262	-32.26
183.482	-73.21
183.701	33.28
183.921	33.28
184.141	-54.78
184.361	6.66
184.58	37.38
184.8	18.94
185.02	-24.06
185.239	59.9
185.459	37.38
185.679	64
185.898	-24.06
186.118	29.18
186.338	-15.87
186.557	41.47
186.777	-7.68
186.997	-15.87
187.216	25.09
187.436	-15.87
187.655	35.33
187.875	100.86
188.095	14.85
188.314	37.38
188.534	107.01
188.753	4.61
188.973	10.75
189.192	-22.02
189.412	33.28
189.631	8.7
189.851	6.66
190.07	16.9
190.29	29.18
190.509	18.94
190.729	57.86
190.948	2.56
191.168	45.57
191.387	59.9
191.607	-44.54
191.826	49.66
192.045	-7.68
192.265	70.14
192.484	33.28
192.704	27.14
192.923	-19.97
193.142	66.05
193.362	12.8
193.581	102.91
193.8	29.18
194.02	18.94
194.239	25.09
194.458	45.57
194.678	-69.12
194.897	74.24
195.116	41.47
195.335	-13.82
195.555	31.23
195.774	-40.45
195.993	66.05
196.212	2.56
196.432	49.66
196.651	27.14
196.87	4.61
197.089	107.01
197.308	41.47
197.528	-5.63
197.747	-48.64
197.966	66.05
198.185	45.57
198.404	-24.06
198.623	57.86
198.842	0.51
199.062	57.86
199.281	41.47
199.5	-22.02
199.719	-56.83
199.938	72.19
200.157	-5.63
200.376	31.23
200.595	37.38
200.814	2.56
201.033	-22.02
201.252	16.9
201.471	74.24
201.69	31.23
201.909	49.66
202.128	0.51
202.347	14.85
202.566	27.14
202.785	-30.21
203.004	-38.4
203.223	61.95
203.442	2.56
203.661	-46.59
203.879	-15.87
204.098	43.52
204.317	-7.68
204.536	31.23
204.755	-9.73
204.974	-5.63
205.193	12.8
205.411	125.44
205.63	2.56
205.849	-52.74
206.068	12.8
206.287	35.33
206.505	23.04
206.724	-11.78
206.943	29.18
207.162	-22.02
207.381	57.86
207.599	8.7
207.818	23.04
208.037	8.7
208.255	25.09
208.474	41.47
208.693	-3.58
208.911	-44.54
209.13	-7.68
209.349	86.53
209.567	66.05
209.786	66.05
210.005	59.9
210.223	-5.63
210.442	8.7
210.661	37.38
210.879	2.56
211.098	8.7
211.316	41.47
211.535	115.2
211.753	0.51
211.972	33.28
212.191	-32.26
212.409	14.85
212.628	72.19
212.846	33.28
213.065	96.77
213.283	-13.82
213.502	2.56
213.72	-46.59
213.938	0.51
214.157	-7.68
214.375	45.57
214.594	66.05
214.812	47.62
215.031	29.18
215.249	0.51
215.467	43.52
215.686	10.75
215.904	20.99
216.122	0.51
216.341	29.18
216.559	35.33
216.778	31.23
216.996	-17.92
217.214	27.14
217.432	-24.06
217.651	4.61
217.869	-13.82
218.087	47.62
218.306	14.85
218.524	-36.35
218.742	0.51
218.96	20.99
219.179	39.42
219.397	-32.26
219.615	37.38
219.833	86.53
220.051	14.85
220.27	39.42
220.488	10.75
220.706	-17.92
220.924	-46.59
221.142	20.99
221.36	-13.82
221.578	98.81
221.796	-30.21
222.015	55.81
222.233	-48.64
222.451	98.81
222.669	-32.26
222.887	74.24
223.105	0.51
223.323	51.71
223.541	-30.21
223.759	51.71
223.977	27.14
224.195	57.86
224.413	45.57
224.631	53.76
224.849	29.18
225.067	-13.82
225.285	-15.87
225.503	20.99
225.721	4.61
225.939	0.51
226.157	-13.82
226.375	-17.92
226.592	16.9
226.81	8.7
227.028	-26.11
227.246	152.06
227.464	6.66
227.682	125.44
227.9	80.38
228.117	-11.78
228.335	-69.12
228.553	2.56
228.771	51.71
228.989	43.52
229.206	-5.63
229.424	-56.83
229.642	4.61
229.86	39.42
230.077	-36.35
230.295	43.52
230.513	18.94
230.731	33.28
230.948	41.47
231.166	16.9
231.384	-32.26
231.601	-15.87
231.819	43.52
232.037	41.47
232.254	25.09
232.472	59.9
232.689	0.51
232.907	39.42
233.125	-7.68
233.342	-22.02
233.56	-67.07
233.777	-19.97
233.995	6.66
234.213	55.81
234.43	51.71
234.648	61.95
234.865	8.7
235.083	51.71
235.3	33.28
235.518	27.14
235.735	-5.63
235.953	25.09
236.17	16.9
236.388	8.7
236.605	74.24
236.822	123.39
237.04	31.23
237.257	16.9
237.475	-1.54
237.692	20.99
237.909	33.28
238.127	-19.97
238.344	-13.82
238.562	-13.82
238.779	-15.87
238.996	74.24
239.214	-40.45
239.431	43.52
239.648	18.94
239.865	-3.58
240.083	76.29
240.3	84.48
240.517	23.04
240.735	39.42
240.952	25.09
241.169	61.95
241.386	41.47
241.603	18.94
241.821	-26.11
242.038	35.33
242.255	29.18
242.472	45.57
242.689	2.56
242.907	43.52
243.124	-40.45
243.341	70.14
243.558	16.9
243.775	-30.21
243.992	8.7
244.209	-40.45
244.426	64
244.643	43.52
244.86	2.56
245.078	84.48
245.295	66.05
245.512	35.33
245.729	57.86
245.946	16.9
246.163	20.99
246.38	35.33
246.597	20.99
246.814	53.76
247.031	35.33
247.248	-15.87
247.464	8.7
247.681	-32.26
247.898	8.7
248.115	27.14
248.332	2.56
248.549	2.56
248.766	41.47
248.983	-7.68
249.2	20.99
249.417	25.09
249.633	-13.82
249.85	57.86
250.067	35.33
250.284	72.19
250.501	29.18
250.717	-24.06
250.934	51.71
251.151	53.76
251.368	16.9
251.585	10.75
251.801	-22.02
252.018	-19.97
252.235	29.18
252.451	-7.68
252.668	20.99
252.885	41.47
253.102	20.99
253.318	-22.02
253.535	-54.78
253.752	8.7
253.968	25.09
254.185	-3.58
254.401	66.05
254.618	72.19
254.835	0.51
255.051	82.43
255.268	29.18
255.484	-7.68
255.701	35.33
255.917	45.57
256.134	-40.45
256.351	18.94
256.567	0.51
256.784	29.18
257	-54.78
257.217	143.87
257.433	45.57
257.65	47.62
257.866	-11.78
258.082	33.28
258.299	27.14
258.515	-15.87
258.732	51.71
258.948	29.18
259.165	84.48
259.381	25.09
259.597	41.47
259.814	-56.83
260.03	4.61
260.246	6.66
260.463	-26.11
260.679	82.43
260.895	41.47
261.112	27.14
261.328	98.81
261.544	10.75
261.761	74.24
261.977	25.09
262.193	55.81
262.409	23.04
262.626	-40.45
262.842	66.05
263.058	-56.83
263.274	102.91
263.49	-42.5
263.707	90.62
263.923	25.09
264.139	-11.78
264.355	-15.87
264.571	33.28
264.787	20.99
265.004	0.51
265.22	61.95
265.436	-11.78
265.652	-28.16
265.868	57.86
266.084	-17.92
266.3	55.81
266.516	29.18
266.732	61.95
266.948	-67.07
267.164	61.95
267.38	-32.26
267.596	18.94
267.812	76.29
268.028	35.33
268.244	33.28
268.46	25.09
268.676	53.76
268.892	-32.26
269.108	-7.68
269.324	8.7
269.54	-77.31
269.756	27.14
269.972	-42.5
270.188	-7.68
270.403	-28.16
270.619	55.81
270.835	59.9
271.051	-19.97
271.267	66.05
271.483	25.09
271.698	33.28
271.914	84.48
272.13	-26.11
272.346	10.75
272.562	16.9
272.777	94.72
272.993	-15.87
273.209	-22.02
273.425	51.71
273.64	43.52
273.856	109.05
274.072	8.7
274.287	33.28
274.503	74.24
274.719	49.66
274.934	0.51
275.15	37.38
275.366	92.67
275.581	74.24
275.797	16.9
276.012	-5.63
276.228	74.24
276.444	27.14
276.659	131.58
276.875	31.23
277.09	-11.78
277.306	14.85
277.521	4.61
277.737	23.04
277.952	37.38
278.168	29.18
278.383	4.61
278.599	0.51
278.814	4.61
279.03	4.61
279.245	80.38
279.461	98.81
279.676	12.8
279.892	10.75
280.107	18.94
280.322	53.76
280.538	-5.63
280.753	-11.78
280.969	82.43
281.184	0.51
281.399	-15.87
281.615	53.76
281.83	-13.82
282.045	4.61
282.26	-75.26
282.476	-1.54
282.691	14.85
282.906	-32.26
283.122	49.66
283.337	68.09
283.552	90.62
283.767	-26.11
283.983	59.9
284.198	68.09
284.413	68.09
284.628	-101.89
284.843	35.33
285.058	53.76
285.274	2.56
285.489	0.51
285.704	33.28
285.919	10.75
286.134	88.57
286.349	-24.06
286.564	16.9
286.779	74.24
286.995	-17.92
287.21	-24.06
287.425	53.76
287.64	25.09
287.855	23.04
288.07	-9.73
288.285	59.9
288.5	-24.06
288.715	16.9
288.93	-38.4
289.145	2.56
289.36	66.05
289.575	2.56
289.79	-36.35
290.004	16.9
290.219	70.14
290.434	59.9
290.649	57.86
290.864	-32.26
291.079	37.38
291.294	-36.35
291.509	14.85
291.724	-15.87
291.938	25.09
292.153	10.75
292.368	12.8
292.583	2.56
292.798	-7.68
293.012	10.75
293.227	59.9
293.442	16.9
293.657	8.7
293.871	94.72
294.086	35.33
294.301	29.18
294.516	47.62
294.73	-17.92
294.945	-30.21
295.16	27.14
295.374	41.47
295.589	117.25
295.804	14.85
296.018	49.66
296.233	-13.82
296.447	23.04
296.662	8.7
296.877	16.9
297.091	61.95
297.306	-7.68
297.52	80.38
297.735	4.61
297.949	61.95
298.164	98.81
298.378	-42.5
298.593	51.71
298.807	-5.63
299.022	68.09
299.236	94.72
299.451	-13.82
299.665	39.42
299.88	41.47
300.094	-28.16
300.309	41.47
300.523	10.75
300.737	6.66
300.952	-24.06
301.166	-32.26
301.381	-28.16
301.595	10.75
301.809	37.38
302.024	51.71
302.238	61.95
302.452	53.76
302.667	-34.3
302.881	70.14
303.095	47.62
303.309	10.75
303.524	0.51
303.738	41.47
303.952	18.94
304.166	-65.02
304.381	-30.21
304.595	27.14
304.809	12.8
305.023	-13.82
305.237	-36.35
305.452	-48.64
305.666	-40.45
305.88	12.8
306.094	18.94
306.308	29.18
306.522	-28.16
306.736	25.09
306.95	-24.06
307.164	18.94
307.379	55.81
307.593	4.61
307.807	20.99
308.021	66.05
308.235	16.9
308.449	23.04
308.663	-44.54
308.877	20.99
309.091	-69.12
309.305	29.18
309.519	78.33
309.733	2.56
309.947	14.85
310.161	68.09
310.374	25.09
310.588	43.52
310.802	18.94
311.016	-40.45
311.23	47.62
311.444	43.52
311.658	78.33
311.872	12.8
312.085	74.24
312.299	33.28
312.513	-38.4
312.727	25.09
312.941	-7.68
313.154	68.09
313.368	4.61
313.582	33.28
313.796	35.33
314.009	25.09
314.223	18.94
314.437	31.23
314.651	45.57
314.864	68.09
315.078	-3.58
315.292	-5.63
315.505	33.28
315.719	84.48
315.933	53.76
316.146	16.9
316.36	-13.82
316.573	-30.21
316.787	29.18
317.001	74.24
317.214	45.57
317.428	18.94
317.641	-89.6
317.855	66.05
318.068	23.04
318.282	43.52
318.495	20.99
318.709	45.57
318.922	12.8
319.136	102.91
319.349	23.04
319.563	2.56
319.776	49.66
319.99	33.28
320.203	82.43
320.417	82.43
320.63	10.75
320.843	68.09
321.057	-7.68
321.27	57.86
321.483	20.99
321.697	35.33
321.91	-44.54
322.124	18.94
322.337	41.47
322.55	-19.97
322.763	0.51
322.977	39.42
323.19	-5.63
323.403	10.75
323.617	37.38
323.83	102.91
324.043	18.94
324.256	25.09
324.469	39.42
324.683	104.96
324.896	57.86
325.109	-28.16
325.322	33.28
325.535	86.53
325.748	64
325.962	64
326.175	-7.68
326.388	64
326.601	25.09
326.814	74.24
327.027	61.95
327.24	61.95
327.453	37.38
327.666	43.52
327.879	53.76
328.092	55.81
328.305	2.56
328.518	-15.87
328.731	8.7
328.944	-22.02
329.157	0.51
329.37	41.47
329.583	135.68
329.796	78.33
330.009	-13.82
330.222	8.7
330.435	-19.97
330.648	-19.97
330.861	12.8
331.073	-38.4
331.286	45.57
331.499	35.33
331.712	12.8
331.925	41.47
332.138	-15.87
332.35	33.28
332.563	-30.21
332.776	53.76
332.989	4.61
333.202	-40.45
333.414	31.23
333.627	8.7
333.84	25.09
334.053	49.66
334.265	-24.06
334.478	49.66
334.691	57.86
334.903	-7.68
335.116	-38.4
335.329	-11.78
335.541	4.61
335.754	-7.68
335.966	35.33
336.179	-19.97
336.392	4.61
336.604	109.05
336.817	39.42
337.029	45.57
337.242	53.76
337.454	66.05
337.667	70.14
337.88	29.18
338.092	33.28
338.305	10.75
338.517	-9.73
338.729	-1.54
338.942	20.99
339.154	-17.92
339.367	12.8
339.579	49.66
339.792	29.18
340.004	55.81
340.217	-32.26
340.429	49.66
340.641	0.51
340.854	-1.54
341.066	-24.06
341.278	90.62
341.491	115.2
341.703	45.57
341.915	8.7
342.128	2.56
342.34	-5.63
342.552	74.24
342.764	45.57
342.977	-3.58
343.189	125.44
343.401	-17.92
343.613	41.47
343.826	8.7
344.038	-15.87
344.25	20.99
344.462	-22.02
344.674	8.7
344.886	31.23
345.099	25.09
345.311	92.67
345.523	86.53
345.735	16.9
345.947	41.47
346.159	70.14
346.371	-5.63
346.583	86.53
346.795	113.15
347.007	-3.58
347.219	137.73
347.431	57.86
347.643	61.95
347.855	10.75
348.067	127.49
348.279	-7.68
348.491	49.66
348.703	-71.17
348.915	10.75
349.127	33.28
349.339	-11.78
349.551	8.7
349.763	4.61
349.975	74.24
350.187	78.33
350.399	72.19
350.61	117.25
350.822	68.09
351.034	59.9
351.246	25.09
351.458	84.48
351.669	31.23
351.881	29.18
352.093	49.66
352.305	35.33
352.517	2.56
352.728	115.2
352.94	39.42
353.152	82.43
353.363	10.75
353.575	20.99
353.787	27.14
353.999	49.66
354.21	20.99
354.422	41.47
354.633	49.66
354.845	74.24
355.057	47.62
355.268	64
355.48	8.7
355.692	45.57
355.903	-19.97
356.115	12.8
356.326	-9.73
356.538	131.58
356.749	115.2
356.961	49.66
357.172	70.14
357.384	8.7
357.595	74.24
357.807	0.51
358.018	4.61
358.23	82.43
358.441	53.76
358.653	78.33
358.864	41.47
359.075	37.38
359.287	59.9
359.498	59.9
359.709	111.1
359.921	33.28
360.132	25.09
360.344	82.43
360.555	-7.68
360.766	2.56
360.977	66.05
361.189	41.47
361.4	92.67
361.611	37.38
361.823	45.57
362.034	23.04
362.245	-91.65
362.456	-3.58
362.667	8.7
362.879	-7.68
363.09	47.62
363.301	82.43
363.512	74.24
363.723	80.38
363.935	-5.63
364.146	6.66
364.357	37.38
364.568	57.86
364.779	-58.88
364.99	90.62
365.201	-11.78
365.412	64
365.623	-67.07
365.834	82.43
366.045	57.86
366.256	39.42
366.467	111.1
366.678	74.24
366.889	61.95
367.1	25.09
367.311	31.23
367.522	41.47
367.733	135.68
367.944	53.76
368.155	18.94
368.366	8.7
368.577	16.9
368.788	90.62
368.999	-32.26
369.209	18.94
369.42	82.43
369.631	59.9
369.842	4.61
370.053	43.52
370.264	41.47
370.474	20.99
370.685	16.9
370.896	82.43
371.107	92.67
371.317	8.7
371.528	70.14
371.739	20.99
371.95	20.99
372.16	37.38
372.371	8.7
372.582	-22.02
372.792	49.66
373.003	41.47
373.214	41.47
373.424	16.9
373.635	51.71
373.846	70.14
374.056	33.28
374.267	66.05
374.477	49.66
374.688	25.09
374.898	68.09
375.109	41.47
375.319	-7.68
375.53	68.09
375.74	14.85
375.951	74.24
376.161	33.28
376.372	23.04
376.582	-26.11
376.793	27.14
377.003	61.95
377.214	-3.58
377.424	76.29
377.635	0.51
377.845	25.09
378.055	49.66
378.266	33.28
378.476	66.05
378.686	-32.26
378.897	92.67
379.107	66.05
379.317	41.47
379.528	59.9
379.738	70.14
379.948	49.66
380.158	66.05
380.369	90.62
380.579	41.47
380.789	0.51
380.999	86.53
381.21	4.61
381.42	147.97
381.63	25.09
381.84	147.97
382.05	-32.26
382.261	72.19
382.471	-3.58
382.681	18.94
382.891	72.19
383.101	43.52
383.311	86.53
383.521	-15.87
383.731	96.77
383.941	84.48
384.151	0.51
384.361	59.9
384.571	76.29
384.781	49.66
384.991	8.7
385.201	102.91
385.411	66.05
385.621	8.7
385.831	33.28
386.041	-24.06
386.251	66.05
386.461	68.09
386.671	43.52
386.881	-42.5
387.091	41.47
387.301	88.57
387.511	49.66
387.72	45.57
387.93	53.76
388.14	14.85
388.35	57.86
388.56	76.29
388.769	84.48
388.979	35.33
389.189	6.66
389.399	82.43
389.609	72.19
389.818	-11.78
390.028	10.75
390.238	68.09
390.447	25.09
390.657	-3.58
390.867	35.33
391.076	45.57
391.286	96.77
391.496	57.86
391.705	61.95
391.915	29.18
392.125	72.19
392.334	35.33
392.544	74.24
392.753	61.95
392.963	-3.58
393.172	51.71
393.382	47.62
393.591	51.71
393.801	0.51
394.01	117.25
394.22	53.76
394.429	2.56
394.639	152.06
394.848	102.91
395.058	90.62
395.267	150.01
395.477	121.34
395.686	164.35
395.895	88.57
396.105	123.39
396.314	111.1
396.524	84.48
396.733	61.95
396.942	86.53
397.152	147.97
397.361	117.25
397.57	107.01
397.78	64
397.989	190.97
398.198	168.45
398.407	57.86
398.617	41.47
398.826	64
399.035	98.81
399.244	109.05
399.453	70.14
399.663	43.52
399.872	188.93
400.081	45.57
400.29	49.66
400.499	43.52
400.708	90.62
400.917	127.49
401.127	141.82
401.336	168.45
401.545	168.45
401.754	113.15
401.963	170.49
402.172	100.86
402.381	78.33
402.59	107.01
402.799	158.21
403.008	92.67
403.217	139.77
403.426	57.86
403.635	107.01
403.844	74.24
404.053	111.1
404.262	145.92
404.471	109.05
404.68	119.29
404.888	84.48
405.097	123.39
405.306	166.4
405.515	143.87
405.724	152.06
405.933	147.97
406.142	139.77
406.35	190.97
406.559	107.01
406.768	96.77
406.977	229.88
407.185	190.97
407.394	125.44
407.603	135.68
407.812	150.01
408.02	221.69
408.229	217.6
408.438	197.12
408.646	219.64
408.855	219.64
409.064	197.12
409.272	172.54
409.481	285.18
409.69	223.74
409.898	197.12
410.107	205.31
410.315	297.47
410.524	272.89
410.733	303.61
410.941	281.08
411.15	387.58
411.358	363
411.567	346.62
411.775	313.85
411.984	328.19
412.192	346.62
412.401	406.01
412.609	393.72
412.818	442.87
413.026	420.35
413.234	453.11
413.443	463.35
413.651	455.16
413.86	535.03
414.068	508.41
414.276	602.61
414.485	502.26
414.693	582.14
414.901	639.48
415.11	561.66
415.318	641.53
415.526	580.09
415.734	696.82
415.943	653.81
416.151	750.07
416.359	782.84
416.567	764.4
416.776	750.07
416.984	799.22
417.192	852.47
417.4	938.48
417.608	748.02
417.817	893.43
418.025	963.06
418.233	1014.26
418.441	1057.26
418.649	1026.54
418.857	1065.46
419.065	1147.37
419.273	1073.65
419.481	1145.33
419.689	1298.92
419.897	1247.72
420.105	1343.98
420.313	1296.88
420.521	1520.1
420.729	1393.13
420.937	1460.71
421.145	1589.74
421.353	1606.12
421.561	1745.38
421.769	1702.37
421.977	1804.77
422.185	1800.68
422.393	1917.41
422.601	1999.33
422.809	1972.71
423.017	2077.15
423.224	2083.3
423.432	2105.82
423.64	2138.59
423.848	2396.64
424.056	2384.35
424.263	2597.34
424.471	2523.61
424.679	2507.23
424.887	2681.3
425.094	2716.12
425.302	2689.49
425.51	2765.27
425.718	2968.02
425.925	2984.4
426.133	3023.31
426.341	3158.48
426.548	3318.22
426.756	3457.48
426.964	3609.03
427.171	3582.41
427.379	3721.67
427.586	3783.11
427.794	3908.04
428.001	4176.32
428.209	4428.22
428.417	4282.81
428.624	4489.66
428.832	4549.05
429.039	4534.71
429.247	4516.28
429.454	4841.91
429.662	5161.39
429.869	4891.06
430.076	5308.85
430.284	5067.19
430.491	5335.47
430.699	5695.91
430.906	5525.93
431.114	5466.54
431.321	5853.61
431.528	5976.48
431.736	6390.17
431.943	6621.59
432.15	6392.22
432.358	6556.06
432.565	6951.32
432.772	6760.86
432.979	7143.83
433.187	7389.58
433.394	7565.71
433.601	7743.88
433.808	8006.02
434.016	8049.03
434.223	8210.82
434.43	8943.99
434.637	8573.31
434.844	8989.05
435.052	9322.87
435.259	9216.37
435.466	9398.64
435.673	9294.19
435.88	9609.58
436.087	10219.88
436.294	10207.59
436.501	10047.85
436.708	10062.18
436.915	10617.18
437.122	10996.06
437.329	11147.61
437.537	11270.48
437.743	11606.35
437.95	11409.75
438.157	12230.98
438.364	12482.88
438.571	12382.53
438.778	12513.6
438.985	13863.21
439.192	13330.74
439.399	13670.7
439.606	13132.09
439.813	13877.55
440.02	14895.39
440.227	14473.51
440.433	14555.43
440.64	15001.88
440.847	14844.19
441.054	15159.58
441.261	16156.94
441.467	15690
441.674	16392.45
441.881	16863.49
442.088	16826.62
442.294	16789.76
442.501	17109.24
442.708	17551.6
442.914	18067.69
443.121	18923.74
443.328	18391.27
443.534	19511.51
443.741	19239.13
443.948	18958.56
444.154	20035.79
444.361	20003.02
444.568	20072.65
444.774	20197.58
444.981	20390.09
445.187	21293.24
445.394	21790.9
445.6	21891.25
445.807	23634.07
446.013	22982.82
446.22	22884.51
446.426	24244.37
446.633	24502.41
446.839	24985.73
447.046	24084.62
447.252	25231.49
447.459	25147.52
447.665	25241.73
447.871	26304.62
448.078	27105.38
448.284	25784.44
448.491	26775.66
448.697	28074.07
448.903	28647.5
449.11	28565.58
449.316	27930.71
449.522	28551.24
449.728	29104.2
449.935	29208.64
450.141	29417.54
450.347	30021.69
450.553	28981.32
450.76	29878.33
450.966	30300.21
451.172	30199.86
451.378	30963.75
451.584	30283.83
451.791	31205.41
451.997	30908.46
452.203	31563.81
452.409	31789.08
452.615	31531.04
452.821	29929.53
453.027	29382.72
453.233	31557.66
453.44	30404.66
453.646	30283.83
453.852	31045.67
454.058	31352.87
454.264	30404.66
454.47	31211.56
454.676	29960.25
454.882	30851.11
455.088	28368.98
455.294	29282.37
455.5	29388.86
455.705	29511.74
455.911	28733.51
456.117	28078.16
456.323	27564.12
456.529	26302.57
456.735	27199.58
456.941	26497.13
457.147	26155.12
457.352	25413.76
457.558	25329.79
457.764	25200.77
457.97	24676.49
458.176	24182.93
458.381	24105.1
458.587	22941.86
458.793	23068.83
458.999	21872.82
459.204	23503
459.41	22993.06
459.616	21366.97
459.821	21323.96
460.027	21469.37
460.233	20588.74
460.438	19667.16
460.644	20326.6
460.85	19181.79
461.055	18725.09
461.261	18673.89
461.466	17258.74
461.672	16767.23
461.878	18108.65
462.083	17017.08
462.289	16736.51
462.494	16474.37
462.7	15747.34
462.905	15302.93
463.111	15630.61
463.316	15857.93
463.522	15405.33
463.727	15665.42
463.932	15429.91
464.138	15100.19
464.343	15458.58
464.549	15163.67
464.754	15632.66
464.959	15163.67
465.165	14985.5
465.37	14623.01
465.575	14078.25
465.781	14764.32
465.986	14674.21
466.191	14223.65
466.397	13918.51
466.602	13109.56
466.807	13846.83
467.012	13902.12
467.218	13730.09
467.423	13488.43
467.628	13812.01
467.833	14184.74
468.038	13664.56
468.244	13424.95
468.449	13912.36
468.654	13508.91
468.859	13484.34
469.064	13248.82
469.269	12720.45
469.474	12841.28
469.679	13078.84
469.885	12618.05
470.09	13025.59
470.295	12677.44
470.5	12742.97
470.705	12732.73
470.91	12302.66
471.115	12110.15
471.32	12263.75
471.525	12167.49
471.73	11829.58
471.935	11903.31
472.139	11518.29
472.344	11669.84
472.549	11540.82
472.754	11366.74
472.959	11254.1
473.164	10928.47
473.369	10776.92
473.574	11043.16
473.778	11125.08
473.983	10871.13
474.188	10891.61
474.393	10477.92
474.598	10598.75
474.802	10656.09
475.007	10414.43
475.212	10369.38
475.417	10015.08
475.621	9998.7
475.826	10035.56
476.031	9967.98
476.235	9615.73
476.44	9980.26
476.645	9699.69
476.849	9906.54
477.054	9455.98
477.259	9398.64
477.463	9398.64
477.668	9279.86
477.872	9097.59
478.077	9058.68
478.282	8950.14
478.486	8831.35
478.691	8937.85
478.895	8849.78
479.1	8710.52
479.304	8587.64
479.509	8606.08
479.713	8790.39
479.918	8397.18
480.122	8323.46
480.326	8421.76
480.531	8356.22
480.735	8327.55
480.94	8126.85
481.144	8522.11
481.348	8327.55
481.553	8216.96
481.757	8180.1
481.961	8159.62
482.166	8364.42
482.37	8227.2
482.574	8008.07
482.778	8204.67
482.983	8429.95
483.187	8016.26
483.391	8153.48
483.595	8049.03
483.8	7893.38
484.004	8096.13
484.208	8137.09
484.412	8053.13
484.616	8165.76
484.821	8061.32
485.025	8020.36
485.229	8325.5
485.433	8028.55
485.637	7942.53
485.841	8010.12
486.045	8141.19
486.249	7965.06
486.453	7991.69
486.657	8278.4
486.861	8003.97
487.065	7981.45
487.269	8044.93
487.473	7907.72
487.677	8065.41
487.881	8153.48
488.085	8059.27
488.289	8206.72
488.493	8030.6
488.697	8302.98
488.901	8110.47
489.105	8239.49
489.309	8036.74
489.512	8278.4
489.716	8135.04
489.92	8257.92
490.124	8257.92
490.328	8360.32
490.531	8300.93
490.735	8313.22
490.939	8475.01
491.143	8290.69
491.346	8188.29
491.55	8563.07
491.754	8442.24
491.958	8511.87
492.161	8434.05
492.365	8470.91
492.569	8397.18
492.772	8690.04
492.976	8769.91
493.18	8628.6
493.383	8798.59
493.587	8767.87
493.79	8995.19
493.994	8800.63
494.197	9070.97
494.401	8964.47
494.605	9136.5
494.808	9183.6
495.012	9193.84
495.215	9199.99
495.419	9294.19
495.622	9453.94
495.825	9265.52
496.029	9251.19
496.232	9539.95
496.436	9695.6
496.639	9525.61
496.843	9609.58
497.046	9709.93
497.249	10158.44
497.453	10279.27
497.656	10203.49
497.859	10113.38
498.063	10352.99
498.266	10619.23
498.469	10541.41
498.673	10619.23
498.876	10881.37
499.079	10889.56
499.282	10907.99
499.485	11168.09
499.689	11026.78
499.892	11235.67
500.095	11350.35
500.298	11626.83
500.501	11491.66
500.705	11870.54
500.908	11972.94
501.111	11999.56
501.314	12181.83
501.517	12407.11
501.72	12437.83
501.923	12304.71
502.126	12679.49
502.329	12915
502.532	13001.02
502.735	13236.53
502.938	13443.38
503.141	13324.6
503.344	13402.42
503.547	13470
503.75	13633.84
503.953	13967.66
504.156	13816.11
504.359	14041.39
504.562	14291.24
504.765	14522.66
504.968	14682.4
505.17	14948.64
505.373	14618.91
505.576	15137.05
505.779	15298.84
505.982	15319.32
506.185	15739.15
506.387	15683.86
506.59	15780.11
506.793	15935.76
506.996	16275.72
507.198	16638.21
507.401	16707.84
507.604	16795.9
507.807	16980.22
508.009	17246.46
508.212	17131.77
508.415	17572.08
508.617	17674.48
508.82	17910
509.022	17760.5
509.225	18010.35
509.428	18358.5
509.63	18596.07
509.833	18686.18
510.035	18866.4
510.238	18753.76
510.44	19216.6
510.643	19329.24
510.845	19429.59
511.048	19226.84
511.25	19751.12
511.453	19914.96
511.655	20695.24
511.858	20160.72
512.06	20435.14
512.262	20885.7
512.465	20758.72
512.667	21131.45
512.87	21442.74
513.072	21344.44
513.274	21737.65
513.477	22018.22
513.679	22020.27
513.881	22556.84
514.084	22618.28
514.286	22747.3
514.488	22735.01
514.69	23294.11
514.893	23634.07
515.095	23494.81
515.297	23697.56
515.499	23896.21
515.701	23922.83
515.904	24330.38
516.106	24586.38
516.308	24778.89
516.51	24881.28
516.712	25036.93
516.914	25393.28
517.116	25688.18
517.318	26253.42
517.52	25802.87
517.722	25788.53
517.925	26062.96
518.127	26493.04
518.329	26792.04
518.531	26693.74
518.733	27586.65
518.935	27480.16
519.136	27474.01
519.338	27940.95
519.54	28039.25
519.742	28454.99
519.944	28678.22
520.146	29087.81
520.348	28893.26
520.55	29048.9
520.752	29245.51
520.954	29988.92
521.155	29583.42
521.357	29747.26
521.559	30351.41
521.761	30537.77
521.963	30496.81
522.164	30797.87
522.366	30826.54
522.568	31287.33
522.77	31307.81
522.971	31598.62
523.173	31752.22
523.375	32221.2
523.576	31959.06
523.778	32239.64
523.98	32612.37
524.181	32503.82
524.383	32481.3
524.584	33275.91
524.786	33011.72
524.988	32698.38
525.189	33540.1
525.391	33587.2
525.592	33714.17
525.794	33810.43
525.995	33980.41
526.197	33998.84
526.398	33708.03
526.6	34439.15
526.801	34523.12
527.003	34824.17
527.204	34465.78
527.406	34697.2
527.607	34801.64
527.808	35096.55
528.01	34564.08
528.211	34897.9
528.412	35960.8
528.614	35456.99
528.815	35747.81
529.016	35932.12
529.218	35549.15
529.419	35788.77
529.62	36075.48
529.822	35649.5
530.023	35915.74
530.224	36028.38
530.425	35989.47
530.626	35839.97
530.828	35649.5
531.029	36657.1
531.23	36341.72
531.431	36100.06
531.632	36337.62
531.833	36489.17
532.035	36571.09
532.236	36818.89
532.437	36372.44
532.638	36386.77
532.839	36585.43
533.04	36397.01
533.241	36202.46
533.442	36677.58
533.643	36712.4
533.844	36698.06
534.045	36790.22
534.246	36284.37
534.447	37019.6
534.648	36900.81
534.849	36804.56
535.05	36548.56
535.251	36845.52
535.451	36712.4
535.652	36849.61
535.853	36618.19
536.054	37232.58
536.255	36851.66
536.456	36341.72
536.657	37296.07
536.857	36728.78
537.058	36372.44
537.259	37097.42
537.46	36880.33
537.66	36843.47
537.861	37152.71
538.062	36898.76
538.263	37146.57
538.463	36788.17
538.664	36974.54
538.865	36913.1
539.065	36911.05
539.266	36743.12
539.466	36915.15
539.667	36343.77
539.868	36868.05
540.068	36794.32
540.269	36718.54
540.469	37078.99
540.67	36870.09
540.87	36472.79
541.071	36685.78
541.271	36837.33
541.472	37027.79
541.672	36693.97
541.873	36399.06
542.073	36313.05
542.274	37189.58
542.474	36687.82
542.675	36503.51
542.875	36796.37
543.075	36786.13
543.276	36337.62
543.476	36792.27
543.676	36425.68
543.877	36704.21
544.077	36431.83
544.277	36603.86
544.478	36495.32
544.678	36607.95
544.878	36403.16
545.078	36898.76
545.279	36616.15
545.479	36546.51
545.679	36827.09
545.879	36822.99
546.079	36337.62
546.28	36462.55
546.48	36161.5
546.68	36816.85
546.88	36388.82
547.08	36857.81
547.28	36483.03
547.48	36052.95
547.68	36687.82
547.88	36149.21
548.081	36194.26
548.281	36618.19
548.481	36311
548.681	36859.85
548.881	36247.51
549.081	36427.73
549.28	36597.71
549.48	36769.74
549.68	36472.79
549.88	36913.1
550.08	36407.25
550.28	36769.74
550.48	36249.56
550.68	36728.78
550.88	36208.6
551.08	36720.59
551.279	36317.14
551.479	36222.94
551.679	36337.62
551.879	36036.57
552.079	36149.21
552.278	36083.67
552.478	36272.09
552.678	36173.78
552.878	36380.63
553.077	36042.71
553.277	35688.42
553.477	36216.79
553.676	35891.16
553.876	36130.78
554.076	35837.92
554.275	36089.82
554.475	35618.78
554.674	35667.94
554.874	36005.85
555.074	35979.23
555.273	36153.3
555.473	36452.31
555.672	35473.38
555.872	35968.99
556.071	36145.11
556.271	35704.8
556.47	35647.46
556.67	35608.54
556.869	35430.37
557.068	35799.01
557.268	35395.56
557.467	35612.64
557.667	35383.27
557.866	35413.99
558.065	35463.14
558.265	35268.58
558.464	35248.1
558.663	35473.38
558.863	34854.89
559.062	35543.01
559.261	34631.66
559.461	35708.9
559.66	34559.98
559.859	35209.19
560.058	34938.86
560.258	35092.46
560.457	34705.39
560.656	35078.12
560.855	34707.44
561.054	34912.24
561.253	34934.76
561.453	34869.23
561.652	34861.04
561.851	34791.41
562.05	34666.48
562.249	34439.15
562.448	34764.78
562.647	34508.79
562.846	34242.55
563.045	34562.03
563.244	33986.55
563.443	34277.36
563.642	33949.69
563.841	34189.3
564.04	34105.34
564.239	34437.11
564.438	33804.28
564.637	33845.24
564.836	33988.6
565.035	33912.83
565.234	33449.99
565.432	33771.52
565.631	33695.74
565.83	33638.4
566.029	33374.21
566.228	33226.76
566.427	33228.8
566.625	33409.03
566.824	32894.99
567.023	33552.38
567.222	32616.46
567.42	33146.89
567.619	33140.74
567.818	33144.84
568.016	32880.65
568.215	33298.44
568.414	32782.35
568.612	33169.41
568.811	32409.62
569.01	32837.64
569.208	32413.71
569.407	32620.56
569.605	32092.18
569.804	32647.18
570.002	32045.08
570.201	32380.95
570.4	31737.88
570.598	32024.6
570.797	31813.66
570.995	32157.72
571.193	31780.89
571.392	31807.51
571.59	31627.29
571.789	31547.42
571.987	31801.37
572.186	31629.34
572.384	31426.59
572.582	31453.22
572.781	31338.53
572.979	30871.59
573.177	31238.18
573.376	30892.07
573.574	30670.89
573.772	31139.88
573.971	30832.68
574.169	30367.79
574.367	30394.42
574.565	30937.13
574.763	30298.16
574.962	30781.48
575.16	30281.78
575.358	30212.15
575.556	29872.18
575.754	30687.28
575.952	29648.96
576.151	30189.62
576.349	30232.63
576.547	29974.58
576.745	30019.64
576.943	29540.41
577.141	29685.82
577.339	29861.94
577.537	29720.63
577.735	29950.01
577.933	29276.23
578.131	29382.72
578.329	29192.26
578.527	29329.47
578.725	29173.83
578.923	28964.93
579.121	29255.75
579.319	29268.03
579.516	29255.75
579.714	28870.73
579.912	28862.54
580.11	28704.84
580.308	28833.86
580.506	28663.88
580.704	28223.57
580.901	28559.44
581.099	28803.14
581.297	28164.18
581.495	28371.02
581.692	28565.58
581.89	27973.72
582.088	28233.81
582.285	27961.43
582.483	28223.57
582.681	27879.51
582.878	27746.39
583.076	27428.96
583.274	27760.73
583.471	27392.09
583.669	27289.7
583.866	27340.89
584.064	27412.57
584.262	27052.13
584.459	27420.77
584.657	27160.67
584.854	27172.96
585.052	26722.41
585.249	27203.68
585.447	27199.58
585.644	27076.71
585.841	26671.21
586.039	26873.96
586.236	26411.12
586.434	26585.19
586.631	26560.62
586.828	26501.23
587.026	26400.88
587.223	26486.89
587.42	26359.92
587.618	26265.71
587.815	25940.08
588.012	25804.92
588.21	25966.71
588.407	26423.4
588.604	25890.93
588.801	25743.48
588.999	25532.54
589.196	25696.38
589.393	25702.52
589.59	25530.49
589.787	25337.98
589.984	25407.61
590.182	25342.08
590.379	25467
590.576	24893.57
590.773	25008.26
590.97	24907.91
591.167	24866.95
591.364	24672.39
591.561	24985.73
591.758	24688.78
591.955	24744.07
592.152	24817.8
592.349	24436.88
592.546	24299.66
592.743	24402.06
592.94	24012.95
593.137	24397.96
593.334	24299.66
593.531	24160.4
593.727	24230.03
593.924	24199.31
594.121	23933.07
594.318	23724.18
594.515	23738.52
594.712	23976.08
594.908	24017.04
595.105	23660.69
595.302	23271.58
595.499	23548.06
595.696	23425.18
595.892	23367.84
596.089	23369.88
596.286	23345.31
596.482	23206.05
596.679	23052.45
596.876	22911.14
597.072	23003.3
597.269	22966.43
597.466	22556.84
597.662	22941.86
597.859	22644.9
598.055	22558.89
598.252	22192.3
598.448	22671.53
598.645	22714.53
598.841	22208.69
599.038	22321.32
599.234	22128.81
599.431	22169.77
599.627	22335.66
599.824	21971.12
600.02	21842.1
600.217	22151.34
600.413	21715.12
600.609	21823.67
600.806	21776.56
601.002	21641.4
601.198	21528.76
601.395	21543.1
601.591	21483.7
601.787	21582.01
601.984	21328.06
602.18	21446.84
602.376	21303.48
602.572	21207.23
602.769	21004.48
602.965	20930.75
603.161	21102.78
603.357	20904.13
603.553	20719.81
603.75	20922.56
603.946	20703.43
604.142	20795.59
604.338	20609.22
604.534	20685
604.73	20482.25
604.926	20367.56
605.122	20619.46
605.318	20205.77
605.514	20037.84
605.71	20281.55
605.906	20132.04
606.102	20379.85
606.298	20252.87
606.494	20109.52
606.69	20021.45
606.886	20013.26
607.082	19704.02
607.278	19923.15
607.474	19579.09
607.67	20007.12
607.866	19640.53
608.062	19818.71
608.257	19542.23
608.453	19724.5
608.649	19488.98
608.845	19349.72
609.041	19472.6
609.236	19626.2
609.432	19284.19
609.628	19333.34
609.824	19429.59
610.019	19132.64
610.215	19364.06
610.411	19120.35
610.606	19259.61
610.802	19173.6
610.998	19265.75
611.193	19425.5
611.389	18712.8
611.584	18696.42
611.78	18702.56
611.976	18962.65
612.171	19030.24
612.367	18907.36
612.562	18983.13
612.758	18462.95
612.953	18465
613.149	18534.63
613.344	18301.16
613.539	18858.21
613.735	18825.44
613.93	18548.96
614.126	18596.07
614.321	18665.7
614.517	18530.53
614.712	18340.07
614.907	18358.5
615.103	18335.98
615.298	18278.63
615.493	18503.91
615.688	18008.3
615.884	18657.51
616.079	18088.17
616.274	18165.99
616.47	18008.3
616.665	18051.31
616.86	18131.18
617.055	18338.02
617.25	17862.9
617.445	17930.48
617.641	17692.91
617.836	17918.19
618.031	17570.04
618.226	17737.97
618.421	17811.7
618.616	17682.67
618.811	17320.18
619.006	17647.86
619.201	17213.69
619.396	17547.51
619.591	17002.75
619.786	17240.31
619.981	17078.52
620.176	17318.14
620.371	16883.97
620.566	16963.84
620.761	16797.95
620.956	16926.97
621.151	16617.73
621.346	16836.86
621.541	16269.58
621.735	16648.45
621.93	16042.25
622.125	16423.17
622.32	16101.64
622.515	16187.66
622.709	15954.19
622.904	16066.83
623.099	16001.29
623.294	15941.9
623.488	15681.81
623.683	15794.45
623.878	15505.68
624.072	15540.5
624.267	15642.9
624.462	15286.55
624.656	15466.77
624.851	15253.78
625.046	15116.57
625.24	15020.31
625.435	14938.4
625.629	14856.48
625.824	14950.68
626.018	14690.59
626.213	14516.51
626.407	14704.93
626.602	14666.02
626.796	14684.45
626.991	14545.19
627.185	14289.19
627.38	14190.89
627.574	14256.42
627.768	14131.5
627.963	13887.79
628.157	13959.47
628.352	14119.21
628.546	13660.46
628.74	13805.87
628.935	13625.65
629.129	13603.12
629.323	13404.47
629.517	13306.16
629.712	13138.23
629.906	13361.46
630.1	12925.24
630.294	13093.18
630.489	12818.75
630.683	12943.67
630.877	12902.72
631.071	12771.65
631.265	13177.14
631.459	12863.8
631.653	12646.72
631.848	12628.29
632.042	12579.14
632.236	12720.45
632.43	12321.09
632.624	12349.76
632.818	12083.53
633.012	12198.21
633.206	12134.73
633.4	12220.74
633.594	12126.53
633.788	12208.45
633.982	12087.62
634.176	12026.18
634.369	11772.24
634.563	11718.99
634.757	11678.03
634.951	11651.41
635.145	11600.21
635.339	11419.99
635.533	11256.15
635.726	11508.05
635.92	11100.5
636.114	11391.31
636.308	11379.03
636.501	11215.19
636.695	11106.65
636.889	10969.43
637.083	10963.29
637.276	10946.9
637.47	10756.44
637.664	10856.79
637.857	10709.34
638.051	10813.79
638.244	10711.39
638.438	10559.84
638.632	10393.95
638.825	10520.93
639.019	10482.02
639.212	10277.22
639.406	10334.56
639.599	10447.2
639.793	10187.11
639.986	10154.34
640.18	10111.33
640.373	10178.92
640.567	9791.85
640.76	9838.95
640.954	9804.14
641.147	9808.23
641.34	9714.03
641.534	9814.38
641.727	9709.93
641.92	9714.03
642.114	9599.34
642.307	9492.85
642.5	9437.55
642.694	9236.85
642.887	9378.16
643.08	9216.37
643.273	9259.38
643.467	9122.16
643.66	9199.99
643.853	9179.51
644.046	9167.22
644.239	9261.43
644.432	8903.03
644.626	8888.7
644.819	8870.26
645.012	9046.39
645.205	8671.61
645.398	8771.96
645.591	8577.41
645.784	8751.48
645.977	8673.66
646.17	8528.25
646.363	8577.41
646.556	8380.8
646.749	8434.05
646.942	8317.31
647.135	8225.15
647.328	8329.6
647.521	8249.73
647.714	7831.94
647.907	8296.83
648.099	8216.96
648.292	8284.55
648.485	8171.91
648.678	7883.14
648.871	7846.28
649.064	8030.6
649.256	8010.12
649.449	8044.93
649.642	7682.44
649.835	7750.03
650.027	7733.64
650.22	7612.81
650.413	7473.55
650.605	7586.19
650.798	7481.74
650.991	7352.72
651.183	7410.06
651.376	7469.45
651.568	7389.58
651.761	7266.71
651.954	7328.14
652.146	7334.29
652.339	7207.31
652.531	7217.55
652.724	7117.2
652.916	7250.32
653.109	7076.24
653.301	7197.07
653.494	7037.33
653.686	7080.34
653.879	7111.06
654.071	7129.49
654.263	6910.36
654.456	6848.92
654.648	6889.88
654.84	6857.11
655.033	6791.58
655.225	6719.9
655.417	6789.53
655.61	6533.53
655.802	6644.12
655.994	6463.9
656.186	6570.4
656.379	6588.83
656.571	6646.17
656.763	6549.92
656.955	6408.61
657.148	6400.41
657.34	6255.01
657.532	6304.16
657.724	6406.56
657.916	6347.17
658.108	6281.63
658.3	6359.45
658.492	6257.06
658.684	6050.21
658.876	6062.5
659.068	6150.56
659.26	5986.72
659.452	6103.46
659.644	6009.25
659.836	5898.66
660.028	6078.88
660.22	5915.05
660.412	5745.06
660.604	5878.18
660.796	5652.91
660.988	5697.96
661.18	5716.39
661.372	5663.15
661.563	5781.93
661.755	5663.15
661.947	5626.28
662.139	5525.93
662.331	5611.95
662.522	5372.33
662.714	5554.6
662.906	5456.3
663.097	5392.81
663.289	5366.19
663.481	5245.36
663.673	5466.54
663.864	5327.28
664.056	5386.67
664.247	5353.9
664.439	5239.22
664.631	5290.42
664.822	5325.23
665.014	5249.46
665.205	5325.23
665.397	5218.74
665.588	5228.98
665.78	5020.08
665.971	5276.08
666.163	5087.67
666.354	4962.74
666.546	5052.85
666.737	5038.52
666.929	4960.69
667.12	5058.99
667.311	5050.8
667.503	5065.14
667.694	4983.22
667.885	4854.2
668.077	4895.16
668.268	4727.22
668.459	4817.33
668.651	4704.7
668.842	4780.47
669.033	4696.5
669.224	4725.18
669.416	4780.47
669.607	4661.69
669.798	4579.77
669.989	4688.31
670.18	4620.73
670.371	4587.96
670.563	4442.56
670.754	4592.06
670.945	4657.59
671.136	4655.54
671.327	4581.82
671.518	4338.11
671.709	4438.46
671.9	4553.15
672.091	4596.15
672.282	4428.22
672.473	4499.9
672.664	4444.6
672.855	4413.88
673.046	4364.73
673.237	4307.39
673.428	4323.77
673.619	4374.97
673.809	4309.44
674	4276.67
674.191	4417.98
674.382	4260.29
674.573	4256.19
674.764	4131.26
674.954	4225.47
675.145	4131.26
675.336	4039.11
675.527	4127.17
675.717	4155.84
675.908	4184.51
676.099	4129.22
676.289	4202.94
676.48	3992
676.671	4196.8
676.861	4088.26
677.052	4123.07
677.243	3996.1
677.433	4071.87
677.624	4051.39
677.814	4008.39
678.005	4045.25
678.195	4008.39
678.386	4016.58
678.576	3989.96
678.767	4051.39
678.957	4012.48
679.148	4088.26
679.338	4075.97
679.529	3992
679.719	3918.28
679.909	4090.31
680.1	3883.46
680.29	3893.7
680.481	3959.24
680.671	3803.59
680.861	3985.86
681.052	3916.23
681.242	3740.1
681.432	3830.21
681.622	3836.36
681.813	3705.29
682.003	3824.07
682.193	3721.67
682.383	3781.06
682.573	3772.87
682.764	3817.93
682.954	3750.34
683.144	3819.97
683.334	3817.93
683.524	3723.72
683.714	3799.49
683.904	3703.24
684.094	3746.25
684.284	3844.55
684.474	3830.21
684.664	3715.53
684.854	3795.4
685.044	3744.2
685.234	3535.31
685.424	3744.2
685.614	3660.23
685.804	3637.7
685.994	3619.27
686.184	3776.97
686.374	3662.28
686.564	3506.63
686.753	3686.86
686.943	3551.69
687.133	3535.31
687.323	3623.37
687.513	3570.12
687.702	3482.06
687.892	3539.4
688.082	3527.11
688.272	3402.19
688.461	3592.65
688.651	3566.03
688.841	3383.76
689.03	3494.35
689.22	3359.18
689.41	3338.7
689.599	3291.6
689.789	3248.59
689.979	3375.56
690.168	3324.37
690.358	3318.22
690.547	3293.65
690.737	3230.16
690.926	3248.59
691.116	3357.13
691.305	3197.39
691.495	3189.2
691.684	3156.43
691.874	3172.82
692.063	3236.3
692.252	3138
692.442	3107.28
692.631	3178.96
692.82	3178.96
693.01	3082.7
693.199	3189.2
693.388	3129.81
693.578	3043.79
693.767	3205.58
693.956	3060.18
694.146	3064.27
694.335	2992.59
694.524	2925.01
694.713	3047.89
694.902	3060.18
695.092	2982.35
695.281	3002.83
695.47	2976.21
695.659	2908.63
695.848	2914.77
696.037	2935.25
696.226	2937.3
696.415	2863.57
696.604	2955.73
696.793	2886.1
696.982	2783.7
697.171	2978.26
697.36	2816.47
697.549	2902.48
697.738	2879.96
697.927	2859.48
698.116	2988.5
698.305	2906.58
698.494	2802.13
698.683	2875.86
698.872	2748.89
699.061	2757.08
699.25	2765.27
699.438	2724.31
699.627	2877.91
699.816	2851.28
700.005	2818.52
700.193	2853.33
700.382	2789.85
700.571	2732.5
700.76	2732.5
700.948	2787.8
701.137	2894.29
701.326	2884.05
701.514	2621.91
701.703	2599.38
701.892	2580.95
702.08	2746.84
702.269	2699.73
702.457	2574.81
702.646	2740.69
702.834	2587.1
703.023	2576.86
703.212	2636.25
703.4	2654.68
703.589	2679.26
703.777	2615.77
703.965	2574.81
704.154	2587.1
704.342	2644.44
704.531	2525.66
704.719	2595.29
704.907	2748.89
705.096	2646.49
705.284	2474.46
705.472	2566.62
705.661	2601.43
705.849	2556.38
706.037	2521.56
706.226	2507.23
706.414	2658.78
706.602	2613.72
706.79	2605.53
706.979	2531.8
707.167	2550.23
707.355	2533.85
707.543	2554.33
707.731	2638.3
707.919	2648.54
708.107	2468.31
708.296	2539.99
708.484	2509.27
708.672	2470.36
708.86	2595.29
709.048	2490.84
709.236	2480.6
709.424	2587.1
709.612	2566.62
709.8	2542.04
709.988	2408.92
710.176	2372.06
710.364	2511.32
710.551	2568.66
710.739	2501.08
710.927	2496.99
711.115	2435.55
711.303	2462.17
711.491	2462.17
711.679	2400.73
711.866	2482.65
712.054	2404.83
712.242	2300.38
712.43	2544.09
712.617	2429.4
712.805	2478.55
712.993	2425.31
713.181	2396.64
713.368	2468.31
713.556	2359.77
713.744	2374.11
713.931	2494.94
714.119	2458.07
714.306	2382.3
714.494	2327
714.682	2380.25
714.869	2337.24
715.057	2415.07
715.244	2310.62
715.432	2470.36
715.619	2496.99
715.807	2384.35
715.994	2408.92
716.182	2413.02
716.369	2453.98
716.556	2472.41
716.744	2353.63
716.931	2449.88
717.119	2441.69
717.306	2400.73
717.493	2449.88
717.681	2353.63
717.868	2361.82
718.055	2476.51
718.242	2286.05
718.43	2318.81
718.617	2359.77
718.804	2269.66
718.991	2259.42
719.179	2329.05
719.366	2359.77
719.553	2382.3
719.74	2335.2
719.927	2474.46
720.114	2279.9
720.301	2230.75
720.488	2273.76
720.676	2320.86
720.863	2320.86
721.05	2437.59
721.237	2363.87
721.424	2314.72
721.611	2271.71
721.798	2378.2
721.985	2240.99
722.172	2310.62
722.358	2294.24
722.545	2433.5
722.732	2279.9
722.919	2367.96
723.106	2306.52
723.293	2302.43
723.48	2384.35
723.667	2140.64
723.853	2265.57
724.04	2339.29
724.227	2390.49
724.414	2230.75
724.6	2275.81
724.787	2251.23
724.974	2312.67
725.161	2179.55
725.347	2126.3
725.534	2165.21
725.72	2245.09
725.907	2253.28
726.094	2382.3
726.28	2255.33
726.467	2097.63
726.653	2189.79
726.84	2284
727.027	2341.34
727.213	2255.33
727.4	2183.65
727.586	2245.09
727.773	2220.51
727.959	2261.47
728.145	2087.39
728.332	2177.5
728.518	2290.14
728.705	2179.55
728.891	2175.45
729.077	2259.42
729.264	2253.28
729.45	2144.74
729.636	2281.95
729.823	2261.47
730.009	2253.28
730.195	2253.28
730.382	2169.31
730.568	2167.26
730.754	2236.89
730.94	2187.74
731.126	2220.51
731.313	2187.74
731.499	2212.32
731.685	2212.32
731.871	2089.44
732.057	2206.17
732.243	2195.93
732.429	2093.54
732.615	2064.86
732.801	2048.48
732.987	2105.82
733.173	2150.88
733.359	2136.54
733.545	2214.37
733.731	2021.86
733.917	2146.78
734.103	2206.17
734.289	2148.83
734.475	1954.27
734.661	2183.65
734.847	2204.13
735.033	2058.72
735.219	2105.82
735.404	2122.21
735.59	1993.19
735.776	2007.52
735.962	1997.28
736.148	2202.08
736.333	2079.2
736.519	2083.3
736.705	2064.86
736.89	2130.4
737.076	2107.87
737.262	2032.1
737.447	2060.77
737.633	1993.19
737.819	2111.97
738.004	1913.31
738.19	2048.48
738.375	2023.91
738.561	2089.44
738.747	1974.75
738.932	2042.34
739.118	2083.3
739.303	2050.53
739.489	2048.48
739.674	2054.62
739.859	2056.67
740.045	1980.9
740.23	2023.91
740.416	1968.61
740.601	1980.9
740.786	1974.75
740.972	1952.23
741.157	1958.37
741.342	1984.99
741.528	1892.84
741.713	2007.52
741.898	1972.71
742.084	1870.31
742.269	2003.43
742.454	1860.07
742.639	1956.32
742.824	1788.39
743.01	1937.89
743.195	1935.84
743.38	1976.8
743.565	1835.49
743.75	1812.96
743.935	1962.47
744.12	1862.12
744.305	1774.05
744.49	1853.92
744.675	1802.72
744.86	1788.39
745.045	1872.36
745.23	1788.39
745.415	1778.15
745.6	1823.2
745.785	1712.61
745.97	1817.06
746.155	1726.95
746.34	1720.81
746.525	1681.89
746.71	1790.44
746.895	1663.46
747.079	1663.46
747.264	1755.62
747.449	1663.46
747.634	1688.04
747.819	1683.94
748.003	1573.35
748.188	1755.62
748.373	1569.26
748.557	1638.89
748.742	1614.31
748.927	1651.17
749.111	1552.87
749.296	1618.41
749.481	1597.93
749.665	1483.24
749.85	1561.06
750.034	1479.15
750.219	1532.39
750.404	1460.71
750.588	1616.36
750.773	1483.24
750.957	1507.82
751.141	1528.3
751.326	1489.39
751.51	1466.86
751.695	1534.44
751.879	1376.75
752.064	1520.1
752.248	1411.56
752.432	1399.27
752.617	1415.66
752.801	1368.56
752.985	1335.79
753.17	1470.95
753.354	1389.03
753.538	1384.94
753.722	1337.84
753.907	1278.44
754.091	1315.31
754.275	1346.03
754.459	1231.34
754.643	1313.26
754.828	1280.49
755.012	1241.58
755.196	1282.54
755.38	1239.53
755.564	1276.4
755.748	1225.2
755.932	1217.01
756.116	1245.68
756.3	1182.19
756.484	1139.18
756.668	1139.18
756.852	1180.14
757.036	1196.53
757.22	1139.18
757.404	1186.29
757.588	1051.12
757.772	1184.24
757.956	1104.37
758.14	1116.65
758.323	1067.5
758.507	1247.72
758.691	1083.89
758.875	1051.12
759.059	1128.94
759.242	1055.22
759.426	1061.36
759.61	1098.22
759.794	1042.93
759.977	1149.42
760.161	1120.75
760.345	1042.93
760.528	1057.26
760.712	1032.69
760.895	1018.35
761.079	1038.83
761.263	983.54
761.446	991.73
761.63	920.05
761.813	1042.93
761.997	1008.11
762.18	1032.69
762.364	934.39
762.547	932.34
762.731	983.54
762.914	938.48
763.098	975.35
763.281	944.63
763.464	1024.5
763.648	942.58
763.831	893.43
764.015	997.87
764.198	975.35
764.381	905.71
764.564	942.58
764.748	911.86
764.931	973.3
765.114	821.75
765.297	983.54
765.481	885.23
765.664	920.05
765.847	877.04
766.03	829.94
766.213	877.04
766.397	868.85
766.58	887.28
766.763	836.08
766.946	778.74
767.129	811.51
767.312	858.61
767.495	803.32
767.678	858.61
767.861	770.55
768.044	905.71
768.227	877.04
768.41	823.8
768.593	788.98
768.776	922.1
768.959	784.88
769.142	852.47
769.324	696.82
769.507	831.99
769.69	829.94
769.873	819.7
770.056	856.56
770.239	709.11
770.421	874.99
770.604	836.08
770.787	705.01
770.97	733.68
771.152	674.29
771.335	745.97
771.518	774.64
771.7	748.02
771.883	778.74
772.066	741.88
772.248	666.1
772.431	696.82
772.613	725.49
772.796	674.29
772.978	729.59
773.161	803.32
773.343	696.82
773.526	717.3
773.708	707.06
773.891	666.1
774.073	696.82
774.256	643.57
774.438	791.03
774.621	684.53
774.803	688.63
774.985	616.95
775.168	745.97
775.35	590.33
775.532	664.05
775.715	672.25
775.897	686.58
776.079	647.67
776.261	625.14
776.444	623.09
776.626	670.2
776.808	684.53
776.99	530.94
777.173	655.86
777.355	627.19
777.537	565.75
777.719	639.48
777.901	573.94
778.083	461.3
778.265	518.65
778.447	698.87
778.629	549.37
778.811	575.99
778.993	555.51
779.175	631.29
779.357	506.36
779.539	471.54
779.721	561.66
779.903	516.6
780.085	477.69
780.267	580.09
780.449	592.37
780.631	475.64
780.812	528.89
780.994	559.61
781.176	516.6
781.358	428.54
781.54	465.4
781.721	553.46
781.903	565.75
782.085	469.5
782.267	461.3
782.448	469.5
782.63	418.3
782.812	502.26
782.993	467.45
783.175	494.07
783.357	360.95
783.538	401.91
783.72	426.49
783.901	379.39
784.083	414.2
784.264	410.11
784.446	455.16
784.627	403.96
784.809	403.96
784.99	457.21
785.172	375.29
785.353	401.91
785.535	428.54
785.716	410.11
785.897	428.54
786.079	373.24
786.26	389.63
786.441	356.86
786.623	379.39
786.804	408.06
786.985	401.91
787.167	416.25
787.348	299.52
787.529	264.7
787.71	354.81
787.891	356.86
788.073	344.57
788.254	344.57
788.435	446.97
788.616	360.95
788.797	317.95
788.978	346.62
789.159	367.1
789.34	408.06
789.522	332.28
789.703	295.42
789.884	334.33
790.065	399.87
790.246	320
790.427	311.8
790.607	279.04
790.788	369.15
790.969	254.46
791.15	264.7
791.331	258.56
791.512	213.5
791.693	279.04
791.874	283.13
792.054	328.19
792.235	363
792.416	354.81
792.597	238.08
792.778	213.5
792.958	303.61
793.139	293.37
793.32	307.71
793.5	207.36
793.681	352.76
793.862	229.88
794.042	211.45
794.223	180.73
794.404	311.8
794.584	215.55
794.765	197.12
794.945	248.32
795.126	330.23
795.306	336.38
795.487	307.71
795.667	279.04
795.848	219.64
796.028	221.69
796.209	233.98
796.389	297.47
796.57	285.18
796.75	207.36
796.93	254.46
797.111	205.31
797.291	225.79
797.471	283.13
797.652	264.7
797.832	209.4
798.012	205.31
798.192	199.16
798.373	152.06
798.553	176.64
798.733	217.6
798.913	184.83
799.093	231.93
799.274	266.75
799.454	242.17
799.634	164.35
799.814	281.08
799.994	233.98
800.174	272.89
800.354	221.69
800.534	215.55
800.714	205.31
800.894	178.69
801.074	205.31
801.254	197.12
801.434	301.56
801.614	252.41
801.794	184.83
801.974	717.3
802.154	180.73
802.334	193.02
802.514	270.84
802.693	209.4
802.873	184.83
803.053	250.36
803.233	176.64
803.413	190.97
803.592	170.49
803.772	82.43
803.952	176.64
804.131	64
804.311	186.88
804.491	166.4
804.67	150.01
804.85	107.01
805.03	180.73
805.209	246.27
805.389	133.63
805.568	158.21
805.748	209.4
805.928	197.12
806.107	150.01
806.287	174.59
806.466	180.73
806.646	184.83
806.825	154.11
807.004	129.53
807.184	176.64
807.363	209.4
807.543	174.59
807.722	158.21
807.901	182.78
808.081	168.45
808.26	207.36
808.439	156.16
808.619	123.39
808.798	84.48
808.977	104.96
809.156	115.2
809.336	156.16
809.515	172.54
809.694	111.1
809.873	117.25
810.052	236.03
810.231	225.79
810.411	102.91
810.59	127.49
810.769	141.82
810.948	170.49
811.127	66.05
811.306	158.21
811.485	135.68
811.664	160.25
811.843	113.15
812.022	121.34
812.201	168.45
812.38	139.77
812.559	111.1
812.737	133.63
812.916	82.43
813.095	123.39
813.274	172.54
813.453	115.2
813.632	133.63
813.811	186.88
813.989	168.45
814.168	174.59
814.347	164.35
814.526	133.63
814.704	205.31
814.883	125.44
815.062	61.95
815.24	188.93
815.419	64
815.598	104.96
815.776	98.81
815.955	139.77
816.133	74.24
816.312	141.82
816.49	113.15
816.669	107.01
816.847	195.07
817.026	133.63
817.204	203.26
817.383	147.97
817.561	51.71
817.74	141.82
817.918	98.81
818.097	61.95
818.275	104.96
818.453	107.01
818.632	102.91
818.81	117.25
818.988	49.66
819.167	115.2
819.345	96.77
819.523	82.43
819.701	84.48
819.879	178.69
820.058	117.25
820.236	115.2
820.414	107.01
820.592	199.16
820.77	43.52
820.948	109.05
821.127	90.62
821.305	51.71
821.483	90.62
821.661	176.64
821.839	135.68
822.017	72.19
822.195	82.43
822.373	166.4
822.551	119.29
822.729	49.66
822.907	76.29
823.085	45.57
823.262	98.81
823.44	94.72
823.618	53.76
823.796	98.81
823.974	123.39
824.152	98.81
824.329	43.52
824.507	102.91
824.685	156.16
824.863	61.95
825.04	57.86
825.218	96.77
825.396	41.47
825.574	84.48
825.751	82.43
825.929	121.34
826.107	70.14
826.284	141.82
826.462	98.81
826.639	117.25
826.817	119.29
826.994	78.33
827.172	43.52
827.349	74.24
827.527	156.16
827.704	43.52
827.882	57.86
828.059	70.14
828.237	41.47
828.414	147.97
828.591	55.81
828.769	43.52
828.946	82.43
829.124	70.14
829.301	74.24
829.478	8.7
829.655	25.09
829.833	53.76
830.01	59.9
830.187	96.77
830.364	113.15
830.542	98.81
830.719	18.94
830.896	12.8
831.073	51.71
831.25	100.86
831.427	41.47
831.604	16.9
831.782	33.28
831.959	119.29
832.136	37.38
832.313	8.7
832.49	115.2
832.667	70.14
832.844	84.48
833.021	10.75
833.198	64
833.374	113.15
833.551	57.86
833.728	25.09
833.905	125.44
834.082	78.33
834.259	-19.97
834.436	119.29
834.612	66.05
834.789	57.86
834.966	100.86
835.143	53.76
835.319	84.48
835.496	127.49
835.673	82.43
835.85	82.43
836.026	74.24
836.203	4.61
836.38	94.72
836.556	107.01
836.733	-32.26
836.909	98.81
837.086	29.18
837.262	51.71
837.439	31.23
837.616	59.9
837.792	-40.45
837.968	123.39
838.145	-7.68
838.321	76.29
838.498	107.01
838.674	49.66
838.851	86.53
839.027	49.66
839.203	49.66
839.38	88.57
839.556	-19.97
839.732	20.99
839.909	20.99
840.085	53.76
840.261	25.09
840.437	43.52
840.614	16.9
840.79	66.05
840.966	53.76
841.142	53.76
841.318	84.48
841.494	8.7
841.671	35.33
841.847	33.28
842.023	12.8
842.199	39.42
842.375	8.7
842.551	14.85
842.727	27.14
842.903	102.91
843.079	10.75
843.255	107.01
843.431	80.38
843.607	68.09
843.783	-89.6
843.959	82.43
844.134	6.66
844.31	117.25
844.486	-5.63
844.662	66.05
844.838	8.7
845.013	100.86
845.189	29.18
845.365	102.91
845.541	33.28
845.716	72.19
845.892	49.66
846.068	12.8
846.244	-22.02
846.419	25.09
846.595	55.81
846.77	82.43
846.946	14.85
847.122	-22.02
847.297	31.23
847.473	76.29
847.648	2.56
847.824	29.18
847.999	66.05
848.175	8.7
848.35	14.85
848.526	107.01
848.701	10.75
848.876	119.29
849.052	33.28
849.227	-24.06
849.403	41.47
849.578	51.71
849.753	-28.16
849.929	-7.68
850.104	-19.97
850.279	-30.21
850.454	37.38
850.63	57.86
850.805	57.86
850.98	25.09
851.155	74.24
851.33	-1.54
851.505	-62.98
851.681	0.51
851.856	16.9
852.031	47.62
852.206	29.18
852.381	10.75
852.556	29.18
852.731	25.09
852.906	-34.3
853.081	76.29
853.256	59.9
853.431	57.86
853.606	72.19
853.781	-13.82
853.956	-1.54
854.131	119.29
854.305	2.56
854.48	12.8
854.655	2.56
854.83	49.66
855.005	25.09
855.18	-19.97
855.354	-77.31
855.529	47.62
855.704	-28.16
855.879	51.71
856.053	-32.26
856.228	18.94
856.403	86.53
856.577	47.62
856.752	-40.45
856.926	18.94
857.101	76.29
857.276	33.28
857.45	55.81
857.625	18.94
857.799	-11.78
857.974	66.05
858.148	-83.45
858.323	59.9
858.497	-1.54
858.672	-11.78
858.846	14.85
859.02	49.66
859.195	27.14
859.369	12.8
859.543	57.86
859.718	49.66
859.892	-3.58
860.066	35.33
860.241	43.52
860.415	57.86
860.589	41.47
860.763	-73.21
860.938	47.62
861.112	20.99
861.286	59.9
861.46	35.33
861.634	33.28
861.808	20.99
861.982	0.51
862.157	2.56
862.331	-24.06
862.505	-7.68
862.679	-32.26
862.853	12.8
863.027	23.04
863.201	35.33
863.375	78.33
863.549	82.43
863.722	-17.92
863.896	27.14
864.07	14.85
864.244	14.85
864.418	84.48
864.592	33.28
864.766	-9.73
864.939	84.48
865.113	-28.16
865.287	70.14
865.461	-11.78
865.634	-40.45
865.808	53.76
865.982	20.99
866.156	-22.02
866.329	41.47
866.503	49.66
866.676	18.94
866.85	43.52
867.024	-1.54
867.197	25.09
867.371	-22.02
867.544	16.9
867.718	-3.58
867.891	2.56
868.065	66.05
868.238	-40.45
868.412	-48.64
868.585	-15.87
868.759	-48.64
868.932	-3.58
869.105	-73.21
869.279	-19.97
869.452	-48.64
869.625	-3.58
869.799	-67.07
869.972	-34.3
870.145	-30.21
870.319	49.66
870.492	2.56
870.665	18.94
870.838	10.75
871.011	-17.92
871.185	35.33
871.358	-40.45
871.531	-19.97
871.704	14.85
871.877	-15.87
872.05	-11.78
872.223	-17.92
872.396	-11.78
872.569	18.94
872.742	-32.26
872.915	25.09
873.088	10.75
873.261	-24.06
873.434	-5.63
873.607	12.8
873.78	121.34
873.953	0.51
874.126	82.43
874.299	84.48
874.471	-11.78
874.644	18.94
874.817	2.56
874.99	82.43
875.163	-28.16
875.335	31.23
875.508	0.51
875.681	-36.35
875.853	2.56
876.026	-24.06
876.199	-48.64
876.371	4.61
876.544	6.66
876.717	20.99
876.889	-30.21
877.062	29.18
877.234	-28.16
877.407	6.66
877.579	-40.45
877.752	72.19
877.924	49.66
878.097	51.71
878.269	57.86
878.442	0.51
878.614	49.66
878.786	-30.21
878.959	8.7
879.131	43.52
879.303	-40.45
879.476	8.7
879.648	33.28
879.82	16.9
879.993	-95.74
880.165	8.7
880.337	-13.82
880.509	-5.63
880.681	-38.4
880.854	23.04
881.026	25.09
881.198	45.57
881.37	-28.16
881.542	16.9
881.714	-71.17
881.886	0.51
882.058	-15.87
882.23	-56.83
882.402	-52.74
882.574	57.86
882.746	-13.82
882.918	41.47
883.09	49.66
883.262	-58.88
883.434	-28.16
883.606	-9.73
883.778	-40.45
883.95	113.15
884.122	0.51
884.293	107.01
884.465	-7.68
884.637	37.38
884.809	-65.02
884.98	82.43
885.152	39.42
885.324	16.9
885.496	6.66
885.667	-15.87
885.839	-17.92
886.011	74.24
886.182	-60.93
886.354	33.28
886.525	-7.68
886.697	33.28
886.869	-38.4
887.04	-28.16
887.212	39.42
887.383	98.81
887.555	-24.06
887.726	-15.87
887.897	16.9
888.069	-5.63
888.24	-15.87
888.412	-54.78
888.583	-32.26
888.754	-7.68
888.926	-32.26
889.097	27.14
889.268	8.7
889.44	0.51
889.611	-69.12
889.782	-22.02
889.953	-11.78
890.125	25.09
890.296	-48.64
890.467	-11.78
890.638	4.61
890.809	-7.68
890.98	-15.87
891.151	43.52
891.323	33.28
891.494	-46.59
891.665	-5.63
891.836	25.09
892.007	-32.26
892.178	43.52
892.349	0.51
892.52	-48.64
892.691	-24.06
892.862	-48.64
893.032	-38.4
893.203	57.86
893.374	-24.06
893.545	-13.82
893.716	-11.78
893.887	16.9
894.057	-22.02
894.228	-19.97
894.399	35.33
894.57	6.66
894.74	-46.59
894.911	18.94
895.082	-3.58
895.253	-7.68
895.423	16.9
895.594	66.05
895.764	-11.78
895.935	-48.64
896.106	51.71
896.276	70.14
896.447	59.9
896.617	96.77
896.788	0.51
896.958	51.71
897.129	-44.54
897.299	-15.87
897.47	27.14
897.64	41.47
897.81	-24.06
897.981	27.14
898.151	16.9
898.322	57.86
898.492	68.09
898.662	0.51
898.832	-42.5
899.003	-34.3
899.173	-44.54
899.343	18.94
899.513	-40.45
