Data from USB4F104151__31__14-16-32-891.txt Node

Date: Thu Mar 13 14:16:32 EDT 2025
User: louis
Spectrometer: USB4F10415
Trigger mode: 4
Integration Time (sec): 2.000000E-2
Scans to average: 1
Electric dark correction enabled: true
Nonlinearity correction enabled: false
Boxcar width: 0
XAxis mode: Wavelengths
Number of Pixels in Spectrum: 3648
>>>>>Begin Spectral Data<<<<<
178.204	-70.83
178.424	-70.83
178.644	-70.83
178.864	-160.94
179.084	-117.93
179.304	11.09
179.524	19.29
179.744	-40.11
179.964	43.86
180.184	-11.43
180.404	70.48
180.624	2.9
180.844	-7.34
181.064	-91.31
181.283	39.76
181.503	-36.01
181.723	-1.19
181.943	-44.2
182.163	105.3
182.383	-23.72
182.602	29.52
182.822	19.29
183.042	2.9
183.262	-13.48
183.482	70.48
183.701	-27.82
183.921	-5.29
184.141	-7.34
184.361	64.34
184.58	64.34
184.8	-5.29
185.02	21.33
185.239	-29.87
185.459	50
185.679	15.19
185.898	54.1
186.118	60.24
186.338	2.9
186.557	60.24
186.777	35.67
186.997	-11.43
187.216	11.09
187.436	-27.82
187.655	-66.73
187.875	74.58
188.095	-17.58
188.314	15.19
188.534	21.33
188.753	45.91
188.973	-5.29
189.192	86.87
189.412	-1.19
189.631	15.19
189.851	50
190.07	27.48
190.29	21.33
190.509	11.09
190.729	23.38
190.948	13.14
191.168	127.83
191.387	13.14
191.607	21.33
191.826	21.33
192.045	-21.67
192.265	84.82
192.484	2.9
192.704	11.09
192.923	19.29
193.142	138.07
193.362	97.11
193.581	117.59
193.8	9.05
194.02	56.15
194.239	66.39
194.458	43.86
194.678	-21.67
194.897	76.63
195.116	68.44
195.335	2.9
195.555	-1.19
195.774	7
195.993	72.53
196.212	60.24
196.432	-17.58
196.651	23.38
196.87	19.29
197.089	125.78
197.308	11.09
197.528	52.05
197.747	72.53
197.966	-36.01
198.185	54.1
198.404	-3.24
198.623	11.09
198.842	62.29
199.062	19.29
199.281	56.15
199.5	2.9
199.719	23.38
199.938	52.05
200.157	88.92
200.376	62.29
200.595	17.24
200.814	19.29
201.033	76.63
201.252	93.01
201.471	35.67
201.69	50
201.909	70.48
202.128	99.16
202.347	95.06
202.566	29.52
202.785	-25.77
203.004	82.77
203.223	166.74
203.442	58.2
203.661	27.48
203.879	56.15
204.098	-13.48
204.317	33.62
204.536	43.86
204.755	39.76
204.974	99.16
205.193	127.83
205.411	140.12
205.63	2.9
205.849	93.01
206.068	39.76
206.287	11.09
206.505	70.48
206.724	19.29
206.943	95.06
207.162	-54.44
207.381	2.9
207.599	-13.48
207.818	23.38
208.037	-5.29
208.255	-5.29
208.474	35.67
208.693	70.48
208.911	52.05
209.13	35.67
209.349	93.01
209.567	76.63
209.786	103.25
210.005	35.67
210.223	-21.67
210.442	-19.63
210.661	37.72
210.879	21.33
211.098	60.24
211.316	125.78
211.535	23.38
211.753	35.67
211.972	58.2
212.191	72.53
212.409	60.24
212.628	78.68
212.846	52.05
213.065	52.05
213.283	105.3
213.502	15.19
213.72	2.9
213.938	-56.49
214.157	-46.25
214.375	17.24
214.594	25.43
214.812	-44.2
215.031	27.48
215.249	70.48
215.467	45.91
215.686	-19.63
215.904	-3.24
216.122	-21.67
216.341	19.29
216.559	4.95
216.778	129.88
216.996	111.44
217.214	9.05
217.432	74.58
217.651	29.52
217.869	11.09
218.087	-46.25
218.306	76.63
218.524	45.91
218.742	-40.11
218.96	21.33
219.179	19.29
219.397	109.4
219.615	138.07
219.833	2.9
220.051	-17.58
220.27	84.82
220.488	35.67
220.706	76.63
220.924	29.52
221.142	41.81
221.36	115.54
221.578	101.2
221.796	74.58
222.015	101.2
222.233	54.1
222.451	27.48
222.669	2.9
222.887	54.1
223.105	103.25
223.323	-5.29
223.541	43.86
223.759	86.87
223.977	-33.96
224.195	39.76
224.413	54.1
224.631	45.91
224.849	27.48
225.067	52.05
225.285	-7.34
225.503	97.11
225.721	43.86
225.939	80.72
226.157	-21.67
226.375	66.39
226.592	15.19
226.81	-21.67
227.028	43.86
227.246	88.92
227.464	62.29
227.682	68.44
227.9	47.96
228.117	52.05
228.335	15.19
228.553	33.62
228.771	21.33
228.989	29.52
229.206	-58.54
229.424	0.85
229.642	95.06
229.86	43.86
230.077	43.86
230.295	-31.91
230.513	35.67
230.731	82.77
230.948	70.48
231.166	70.48
231.384	76.63
231.601	64.34
231.819	43.86
232.037	35.67
232.254	4.95
232.472	-33.96
232.689	19.29
232.907	-3.24
233.125	52.05
233.342	60.24
233.56	54.1
233.777	54.1
233.995	11.09
234.213	90.96
234.43	35.67
234.648	-5.29
234.865	29.52
235.083	60.24
235.3	-1.19
235.518	62.29
235.735	60.24
235.953	43.86
236.17	-5.29
236.388	-9.39
236.605	-7.34
236.822	43.86
237.04	15.19
237.257	43.86
237.475	-5.29
237.692	35.67
237.909	21.33
238.127	52.05
238.344	35.67
238.562	2.9
238.779	19.29
238.996	15.19
239.214	-21.67
239.431	-11.43
239.648	-5.29
239.865	70.48
240.083	27.48
240.3	41.81
240.517	43.86
240.735	-17.58
240.952	76.63
241.169	54.1
241.386	9.05
241.603	7
241.821	19.29
242.038	86.87
242.255	88.92
242.472	31.57
242.689	13.14
242.907	27.48
243.124	76.63
243.341	58.2
243.558	-1.19
243.775	45.91
243.992	-36.01
244.209	52.05
244.426	125.78
244.643	90.96
244.86	70.48
245.078	84.82
245.295	60.24
245.512	95.06
245.729	15.19
245.946	68.44
246.163	129.88
246.38	19.29
246.597	66.39
246.814	-19.63
247.031	76.63
247.248	52.05
247.464	23.38
247.681	15.19
247.898	4.95
248.115	35.67
248.332	43.86
248.549	43.86
248.766	13.14
248.983	33.62
249.2	27.48
249.417	78.68
249.633	23.38
249.85	54.1
250.067	2.9
250.284	-46.25
250.501	50
250.717	62.29
250.934	37.72
251.151	56.15
251.368	-3.24
251.585	31.57
251.801	72.53
252.018	45.91
252.235	37.72
252.451	-25.77
252.668	54.1
252.885	68.44
253.102	39.76
253.318	-29.87
253.535	37.72
253.752	45.91
253.968	68.44
254.185	17.24
254.401	31.57
254.618	56.15
254.835	-29.87
255.051	127.83
255.268	-13.48
255.484	17.24
255.701	-11.43
255.917	52.05
256.134	-19.63
256.351	47.96
256.567	23.38
256.784	35.67
257	-58.54
257.217	64.34
257.433	64.34
257.65	15.19
257.866	93.01
258.082	29.52
258.299	2.9
258.515	29.52
258.732	-38.06
258.948	50
259.165	64.34
259.381	62.29
259.597	29.52
259.814	72.53
260.03	21.33
260.246	-46.25
260.463	45.91
260.679	93.01
260.895	11.09
261.112	35.67
261.328	2.9
261.544	19.29
261.761	31.57
261.977	13.14
262.193	-3.24
262.409	50
262.626	39.76
262.842	80.72
263.058	54.1
263.274	62.29
263.49	4.95
263.707	52.05
263.923	37.72
264.139	7
264.355	7
264.571	39.76
264.787	54.1
265.004	86.87
265.22	-11.43
265.436	11.09
265.652	-1.19
265.868	17.24
266.084	-38.06
266.3	37.72
266.516	-11.43
266.732	-11.43
266.948	68.44
267.164	11.09
267.38	0.85
267.596	64.34
267.812	99.16
268.028	-29.87
268.244	62.29
268.46	19.29
268.676	-11.43
268.892	68.44
269.108	19.29
269.324	0.85
269.54	19.29
269.756	84.82
269.972	50
270.188	74.58
270.403	27.48
270.619	27.48
270.835	23.38
271.051	52.05
271.267	-38.06
271.483	93.01
271.698	64.34
271.914	-38.06
272.13	45.91
272.346	23.38
272.562	121.68
272.777	23.38
272.993	-9.39
273.209	121.68
273.425	45.91
273.64	117.59
273.856	66.39
274.072	43.86
274.287	52.05
274.503	7
274.719	70.48
274.934	2.9
275.15	-17.58
275.366	-21.67
275.581	-21.67
275.797	35.67
276.012	74.58
276.228	0.85
276.444	13.14
276.659	37.72
276.875	58.2
277.09	-19.63
277.306	-50.35
277.521	27.48
277.737	52.05
277.952	35.67
278.168	47.96
278.383	4.95
278.599	35.67
278.814	29.52
279.03	88.92
279.245	90.96
279.461	43.86
279.676	86.87
279.892	-13.48
280.107	21.33
280.322	0.85
280.538	86.87
280.753	41.81
280.969	21.33
281.184	29.52
281.399	52.05
281.615	62.29
281.83	45.91
282.045	60.24
282.26	-5.29
282.476	52.05
282.691	50
282.906	47.96
283.122	127.83
283.337	-21.67
283.552	76.63
283.767	-17.58
283.983	109.4
284.198	-9.39
284.413	93.01
284.628	-21.67
284.843	60.24
285.058	103.25
285.274	-5.29
285.489	54.1
285.704	62.29
285.919	27.48
286.134	35.67
286.349	41.81
286.564	47.96
286.779	35.67
286.995	35.67
287.21	23.38
287.425	56.15
287.64	47.96
287.855	52.05
288.07	-87.21
288.285	66.39
288.5	19.29
288.715	27.48
288.93	60.24
289.145	-25.77
289.36	-25.77
289.575	35.67
289.79	50
290.004	15.19
290.219	62.29
290.434	4.95
290.649	66.39
290.864	52.05
291.079	47.96
291.294	27.48
291.509	9.05
291.724	47.96
291.938	13.14
292.153	2.9
292.368	43.86
292.583	19.29
292.798	15.19
293.012	60.24
293.227	68.44
293.442	47.96
293.657	39.76
293.871	64.34
294.086	33.62
294.301	86.87
294.516	76.63
294.73	127.83
294.945	-46.25
295.16	35.67
295.374	90.96
295.589	76.63
295.804	21.33
296.018	52.05
296.233	95.06
296.447	-21.67
296.662	23.38
296.877	11.09
297.091	-19.63
297.306	74.58
297.52	9.05
297.735	31.57
297.949	43.86
298.164	41.81
298.378	11.09
298.593	37.72
298.807	29.52
299.022	39.76
299.236	54.1
299.451	27.48
299.665	-7.34
299.88	37.72
300.094	19.29
300.309	25.43
300.523	72.53
300.737	27.48
300.952	31.57
301.166	43.86
301.381	-48.3
301.595	47.96
301.809	52.05
302.024	-19.63
302.238	29.52
302.452	56.15
302.667	-27.82
302.881	84.82
303.095	37.72
303.309	37.72
303.524	84.82
303.738	23.38
303.952	88.92
304.166	90.96
304.381	13.14
304.595	58.2
304.809	54.1
305.023	7
305.237	-1.19
305.452	33.62
305.666	64.34
305.88	68.44
306.094	56.15
306.308	62.29
306.522	45.91
306.736	27.48
306.95	68.44
307.164	58.2
307.379	19.29
307.593	90.96
307.807	35.67
308.021	62.29
308.235	64.34
308.449	19.29
308.663	27.48
308.877	19.29
309.091	27.48
309.305	35.67
309.519	-11.43
309.733	43.86
309.947	41.81
310.161	27.48
310.374	68.44
310.588	62.29
310.802	39.76
311.016	39.76
311.23	-7.34
311.444	62.29
311.658	68.44
311.872	-9.39
312.085	60.24
312.299	60.24
312.513	58.2
312.727	76.63
312.941	21.33
313.154	90.96
313.368	15.19
313.582	37.72
313.796	-23.72
314.009	70.48
314.223	60.24
314.437	127.83
314.651	47.96
314.864	52.05
315.078	-58.54
315.292	4.95
315.505	64.34
315.719	29.52
315.933	25.43
316.146	82.77
316.36	29.52
316.573	117.59
316.787	-13.48
317.001	19.29
317.214	60.24
317.428	52.05
317.641	27.48
317.855	39.76
318.068	37.72
318.282	62.29
318.495	56.15
318.709	19.29
318.922	11.09
319.136	170.83
319.349	62.29
319.563	-52.39
319.776	23.38
319.99	-29.87
320.203	11.09
320.417	43.86
320.63	93.01
320.843	50
321.057	101.2
321.27	23.38
321.483	131.92
321.697	54.1
321.91	37.72
322.124	17.24
322.337	-15.53
322.55	52.05
322.763	39.76
322.977	43.86
323.19	45.91
323.403	78.68
323.617	-3.24
323.83	-13.48
324.043	-40.11
324.256	90.96
324.469	52.05
324.683	78.68
324.896	-1.19
325.109	68.44
325.322	35.67
325.535	50
325.748	103.25
325.962	11.09
326.175	7
326.388	39.76
326.601	31.57
326.814	45.91
327.027	39.76
327.24	50
327.453	-23.72
327.666	50
327.879	13.14
328.092	-7.34
328.305	54.1
328.518	54.1
328.731	93.01
328.944	72.53
329.157	70.48
329.37	-5.29
329.583	84.82
329.796	62.29
330.009	-36.01
330.222	127.83
330.435	41.81
330.648	19.29
330.861	31.57
331.073	70.48
331.286	27.48
331.499	27.48
331.712	60.24
331.925	84.82
332.138	13.14
332.35	70.48
332.563	41.81
332.776	109.4
332.989	66.39
333.202	19.29
333.414	64.34
333.627	2.9
333.84	64.34
334.053	133.97
334.265	2.9
334.478	0.85
334.691	95.06
334.903	35.67
335.116	27.48
335.329	50
335.541	64.34
335.754	76.63
335.966	21.33
336.179	-9.39
336.392	62.29
336.604	84.82
336.817	101.2
337.029	109.4
337.242	43.86
337.454	54.1
337.667	111.44
337.88	191.31
338.092	-19.63
338.305	76.63
338.517	-5.29
338.729	72.53
338.942	2.9
339.154	-3.24
339.367	2.9
339.579	113.49
339.792	29.52
340.004	43.86
340.217	45.91
340.429	90.96
340.641	154.45
340.854	39.76
341.066	80.72
341.278	43.86
341.491	64.34
341.703	23.38
341.915	-9.39
342.128	70.48
342.34	43.86
342.552	23.38
342.764	-38.06
342.977	76.63
343.189	21.33
343.401	11.09
343.613	35.67
343.826	11.09
344.038	-21.67
344.25	15.19
344.462	103.25
344.674	29.52
344.886	19.29
345.099	47.96
345.311	37.72
345.523	52.05
345.735	-1.19
345.947	76.63
346.159	54.1
346.371	-33.96
346.583	52.05
346.795	58.2
347.007	41.81
347.219	101.2
347.431	84.82
347.643	17.24
347.855	21.33
348.067	84.82
348.279	13.14
348.491	23.38
348.703	35.67
348.915	39.76
349.127	117.59
349.339	43.86
349.551	64.34
349.763	80.72
349.975	31.57
350.187	33.62
350.399	56.15
350.61	84.82
350.822	4.95
351.034	19.29
351.246	62.29
351.458	11.09
351.669	54.1
351.881	64.34
352.093	43.86
352.305	23.38
352.517	35.67
352.728	39.76
352.94	27.48
353.152	35.67
353.363	19.29
353.575	-1.19
353.787	-5.29
353.999	23.38
354.21	13.14
354.422	-3.24
354.633	7
354.845	31.57
355.057	33.62
355.268	27.48
355.48	64.34
355.692	39.76
355.903	-19.63
356.115	19.29
356.326	25.43
356.538	105.3
356.749	62.29
356.961	68.44
357.172	7
357.384	101.2
357.595	103.25
357.807	86.87
358.018	58.2
358.23	35.67
358.441	58.2
358.653	45.91
358.864	54.1
359.075	107.35
359.287	101.2
359.498	78.68
359.709	123.73
359.921	101.2
360.132	62.29
360.344	13.14
360.555	52.05
360.766	72.53
360.977	35.67
361.189	62.29
361.4	54.1
361.611	74.58
361.823	123.73
362.034	47.96
362.245	105.3
362.456	72.53
362.667	84.82
362.879	56.15
363.09	-33.96
363.301	62.29
363.512	105.3
363.723	-5.29
363.935	19.29
364.146	52.05
364.357	66.39
364.568	21.33
364.779	76.63
364.99	35.67
365.201	37.72
365.412	62.29
365.623	7
365.834	45.91
366.045	66.39
366.256	-1.19
366.467	43.86
366.678	62.29
366.889	56.15
367.1	-1.19
367.311	84.82
367.522	47.96
367.733	64.34
367.944	82.77
368.155	-21.67
368.366	72.53
368.577	111.44
368.788	60.24
368.999	60.24
369.209	-1.19
369.42	54.1
369.631	52.05
369.842	115.54
370.053	68.44
370.264	35.67
370.474	23.38
370.685	62.29
370.896	52.05
371.107	101.2
371.317	17.24
371.528	-40.11
371.739	-5.29
371.95	52.05
372.16	29.52
372.371	45.91
372.582	68.44
372.792	62.29
373.003	60.24
373.214	47.96
373.424	47.96
373.635	31.57
373.846	127.83
374.056	41.81
374.267	2.9
374.477	68.44
374.688	35.67
374.898	78.68
375.109	68.44
375.319	56.15
375.53	27.48
375.74	84.82
375.951	64.34
376.161	-1.19
376.372	123.73
376.582	2.9
376.793	54.1
377.003	66.39
377.214	-17.58
377.424	39.76
377.635	107.35
377.845	109.4
378.055	113.49
378.266	60.24
378.476	45.91
378.686	56.15
378.897	125.78
379.107	50
379.317	43.86
379.528	47.96
379.738	62.29
379.948	9.05
380.158	50
380.369	68.44
380.579	86.87
380.789	35.67
380.999	76.63
381.21	72.53
381.42	109.4
381.63	68.44
381.84	76.63
382.05	43.86
382.261	60.24
382.471	54.1
382.681	-5.29
382.891	144.21
383.101	-60.59
383.311	43.86
383.521	-15.53
383.731	52.05
383.941	78.68
384.151	25.43
384.361	56.15
384.571	95.06
384.781	109.4
384.991	97.11
385.201	136.02
385.411	103.25
385.621	88.92
385.831	60.24
386.041	52.05
386.251	54.1
386.461	88.92
386.671	90.96
386.881	23.38
387.091	64.34
387.301	154.45
387.511	133.97
387.72	54.1
387.93	23.38
388.14	27.48
388.35	43.86
388.56	142.16
388.769	39.76
388.979	43.86
389.189	37.72
389.399	78.68
389.609	15.19
389.818	109.4
390.028	93.01
390.238	78.68
390.447	19.29
390.657	125.78
390.867	31.57
391.076	23.38
391.286	95.06
391.496	133.97
391.705	76.63
391.915	56.15
392.125	93.01
392.334	80.72
392.544	179.03
392.753	19.29
392.963	39.76
393.172	119.64
393.382	2.9
393.591	115.54
393.801	37.72
394.01	101.2
394.22	37.72
394.429	109.4
394.639	97.11
394.848	80.72
395.058	154.45
395.267	58.2
395.477	56.15
395.686	113.49
395.895	103.25
396.105	199.51
396.314	117.59
396.524	68.44
396.733	105.3
396.942	152.4
397.152	113.49
397.361	84.82
397.57	117.59
397.78	54.1
397.989	117.59
398.198	109.4
398.407	101.2
398.617	125.78
398.826	52.05
399.035	84.82
399.244	125.78
399.453	70.48
399.663	93.01
399.872	144.21
400.081	115.54
400.29	142.16
400.499	52.05
400.708	142.16
400.917	86.87
401.127	179.03
401.336	105.3
401.545	226.13
401.754	125.78
401.963	105.3
402.172	99.16
402.381	76.63
402.59	185.17
402.799	99.16
403.008	119.64
403.217	133.97
403.426	156.5
403.635	127.83
403.844	150.36
404.053	160.59
404.262	138.07
404.471	228.18
404.68	217.94
404.888	170.83
405.097	191.31
405.306	176.98
405.515	93.01
405.724	185.17
405.933	185.17
406.142	215.89
406.35	164.69
406.559	193.36
406.768	226.13
406.977	230.23
407.185	138.07
407.394	209.75
407.603	117.59
407.812	207.7
408.02	387.92
408.229	228.18
408.438	224.08
408.646	297.81
408.855	289.62
409.064	242.51
409.272	242.51
409.481	318.29
409.69	351.06
409.898	258.9
410.107	303.95
410.315	306
410.524	291.66
410.733	373.58
410.941	394.06
411.15	441.17
411.358	398.16
411.567	430.93
411.775	461.65
411.984	504.65
412.192	396.11
412.401	498.51
412.609	465.74
412.818	486.22
413.026	430.93
413.234	529.23
413.443	498.51
413.651	529.23
413.86	555.85
414.068	521.04
414.276	605
414.485	572.24
414.693	719.69
414.901	799.56
415.11	725.83
415.318	715.59
415.526	668.49
415.734	662.35
415.943	760.65
416.151	824.14
416.359	873.29
416.567	861
416.776	885.58
416.984	936.78
417.192	1008.45
417.4	875.34
417.608	1004.36
417.817	1039.17
418.025	1059.65
418.233	1149.76
418.441	1248.07
418.649	1198.92
418.857	1239.87
419.065	1307.46
419.273	1286.98
419.481	1172.29
419.689	1477.44
419.897	1530.69
420.105	1508.16
420.313	1676.09
420.521	1553.21
420.729	1583.93
420.937	1692.48
421.145	1772.35
421.353	1796.92
421.561	2001.72
421.769	2040.63
421.977	2091.83
422.185	2009.91
422.393	2059.06
422.601	2267.95
422.809	2196.28
423.017	2200.37
423.224	2411.31
423.432	2347.83
423.64	2480.94
423.848	2698.03
424.056	2591.53
424.263	2865.96
424.471	2741.04
424.679	2945.83
424.887	2911.02
425.094	3109.67
425.302	3085.09
425.51	3363.62
425.718	3349.28
425.925	3394.34
426.133	3478.3
426.341	3699.48
426.548	3746.59
426.756	3791.64
426.964	3926.81
427.171	4199.19
427.379	4221.72
427.586	4283.16
427.794	4401.94
428.001	4670.22
428.209	4887.31
428.417	4676.37
428.624	5188.36
428.832	5073.67
429.039	5128.97
429.247	5057.29
429.454	5528.32
429.662	6009.59
429.869	5747.45
430.076	5974.78
430.284	5714.69
430.491	6157.05
430.699	6353.65
430.906	6329.08
431.114	6556.4
431.321	6638.32
431.528	6859.5
431.736	7150.31
431.943	7432.93
432.15	7271.14
432.358	7314.15
432.565	7899.87
432.772	7871.2
432.979	8381.14
433.187	8389.33
433.394	8475.35
433.601	9013.96
433.808	9032.4
434.016	8919.76
434.223	9145.03
434.43	9743.04
434.637	9681.6
434.844	10263.22
435.052	10300.09
435.259	10275.51
435.466	10351.29
435.673	10429.11
435.88	11082.41
436.087	11588.26
436.294	11635.36
436.501	11397.8
436.708	11567.78
436.915	11952.8
437.122	12481.17
437.329	12450.46
437.537	13093.52
437.743	13257.36
437.95	12823.19
438.157	13449.86
438.364	14205.56
438.571	14094.97
438.778	14021.25
438.985	15319.66
439.192	14840.43
439.399	15235.69
439.606	15018.61
439.813	15979.11
440.02	16929.36
440.227	16407.13
440.433	16437.85
440.64	16566.87
440.847	16816.72
441.054	17095.25
441.261	18219.58
441.467	18129.47
441.674	18623.03
441.881	19083.83
442.088	19087.92
442.294	18926.13
442.501	19446.32
442.708	19632.68
442.914	20234.78
443.121	21547.53
443.328	20449.82
443.534	22485.5
443.741	21459.47
443.948	21121.56
444.154	22841.85
444.361	22788.6
444.568	22917.62
444.774	22557.18
444.981	23126.52
445.187	23726.57
445.394	24771.04
445.6	24449.5
445.807	26853.82
446.013	25907.66
446.22	26096.07
446.426	26810.81
446.633	27374
446.839	28545.44
447.046	27169.21
447.252	28725.66
447.459	28430.76
447.665	28629.41
447.871	29569.43
448.078	30890.37
448.284	29405.59
448.491	30122.38
448.697	31797.62
448.903	31932.78
449.11	32080.24
449.316	31635.83
449.522	32301.42
449.728	32778.59
449.935	33098.08
450.141	32928.09
450.347	33995.09
450.553	33497.43
450.76	33501.53
450.966	34562.37
451.172	34007.37
451.378	34808.13
451.584	34220.36
451.791	35025.21
451.997	34939.2
452.203	35387.71
452.409	35627.32
452.615	35465.53
452.821	33911.12
453.027	33769.81
453.233	35619.13
453.44	34255.18
453.646	34345.29
453.852	34574.66
454.058	35344.7
454.264	34019.66
454.47	34574.66
454.676	33634.64
454.882	35166.52
455.088	31975.79
455.294	32760.16
455.5	33018.21
455.705	33212.76
455.911	32190.83
456.117	31404.41
456.323	30904.7
456.529	29282.71
456.735	30822.78
456.941	29979.02
457.147	29395.35
457.352	28524.96
457.558	28105.13
457.764	28156.33
457.97	27855.28
458.176	27417.01
458.381	27367.86
458.587	25666
458.793	25805.26
458.999	24543.71
459.204	26608.06
459.41	25334.23
459.616	24201.7
459.821	24039.91
460.027	23876.07
460.233	23359.98
460.438	22462.97
460.644	22733.31
460.85	21395.98
461.055	21174.8
461.261	21254.67
461.466	19450.41
461.672	18995.76
461.878	20140.58
462.083	19028.53
462.289	18901.56
462.494	18393.66
462.7	17662.54
462.905	17136.21
463.111	17873.48
463.316	17941.06
463.522	17736.26
463.727	17535.56
463.932	17629.77
464.138	17205.84
464.343	17324.62
464.549	16857.68
464.754	17523.27
464.959	17246.8
465.165	17189.46
465.37	16228.96
465.575	16304.73
465.781	16650.84
465.986	16779.86
466.191	16061.02
466.397	15782.5
466.602	15133.29
466.807	15708.77
467.012	15792.74
467.218	15471.21
467.423	15401.58
467.628	15325.8
467.833	15962.72
468.038	15149.68
468.244	14983.79
468.449	15372.91
468.654	15082.1
468.859	15116.91
469.064	14699.13
469.269	14473.85
469.474	14541.43
469.679	14723.7
469.885	14447.22
470.09	14525.05
470.295	14117.5
470.5	13920.9
470.705	14193.28
470.91	13824.64
471.115	14121.6
471.32	14064.25
471.525	13759.11
471.73	13474.44
471.935	13499.02
472.139	12903.06
472.344	13349.51
472.549	12921.49
472.754	12917.39
472.959	12581.53
473.164	12421.78
473.369	12280.47
473.574	12728.98
473.778	12636.82
473.983	12630.68
474.188	12321.43
474.393	11893.41
474.598	11715.23
474.802	11768.48
475.007	11735.71
475.212	11707.04
475.417	11455.14
475.621	11371.18
475.826	11350.7
476.031	11074.22
476.235	10920.62
476.44	11279.02
476.645	10869.42
476.849	10853.04
477.054	10775.22
477.259	10386.1
477.463	10578.61
477.668	10293.94
477.872	10523.32
478.077	10353.34
478.282	10109.63
478.486	9810.62
478.691	9937.6
478.895	9949.89
479.1	9806.53
479.304	9892.54
479.509	9640.64
479.713	9640.64
479.918	9560.77
480.122	9382.6
480.326	9503.43
480.531	9605.83
480.735	9407.17
480.94	9345.73
481.144	9620.16
481.348	9411.27
481.553	9149.13
481.757	9220.81
481.961	8989.39
482.166	9280.2
482.37	9185.99
482.574	9147.08
482.778	9001.68
482.983	9347.78
483.187	8993.48
483.391	9196.23
483.595	9087.69
483.8	9065.16
484.004	9075.4
484.208	9231.05
484.412	9044.68
484.616	9147.08
484.821	9239.24
485.025	8809.17
485.229	9099.98
485.433	9226.95
485.637	9085.64
485.841	8876.75
486.045	8968.91
486.249	8983.24
486.453	8993.48
486.657	9194.19
486.861	9278.15
487.065	8846.03
487.269	9249.48
487.473	8932.05
487.677	9122.51
487.881	9161.42
488.085	9063.12
488.289	9120.46
488.493	9079.5
488.697	9016.01
488.901	9024.2
489.105	9026.25
489.309	9073.35
489.512	9171.66
489.716	9153.23
489.92	9247.43
490.124	9161.42
490.328	9321.16
490.531	9073.35
490.735	9415.37
490.939	9335.49
491.143	9220.81
491.346	9214.66
491.55	9577.16
491.754	9693.89
491.958	9552.58
492.161	9638.59
492.365	9605.83
492.569	9616.07
492.772	9386.69
492.976	9824.96
493.18	9849.54
493.383	9939.65
493.587	9990.84
493.79	9996.99
493.994	9876.16
494.197	10095.29
494.401	9988.8
494.605	10181.31
494.808	10183.35
495.012	10324.66
495.215	10429.11
495.419	10433.21
495.622	10406.58
495.825	10648.24
496.029	10457.78
496.232	10775.22
496.436	10566.32
496.639	10932.91
496.843	10838.7
497.046	11125.42
497.249	11186.86
497.453	11190.95
497.656	11383.46
497.859	11600.55
498.063	11590.31
498.266	11903.65
498.469	11889.31
498.673	11924.13
498.876	12110.49
499.079	12083.87
499.282	12298.91
499.485	12534.42
499.689	12700.31
499.892	12616.34
500.095	12874.38
500.298	12833.43
500.501	12794.51
500.705	13251.21
500.908	13396.62
501.111	13417.1
501.314	13603.46
501.517	13961.86
501.72	14054.01
501.923	14017.15
502.126	14273.15
502.329	14463.61
502.532	14713.46
502.735	14406.27
502.938	15045.23
503.141	14975.6
503.344	15217.26
503.547	15301.23
503.75	15510.12
503.953	15821.41
504.156	15737.45
504.359	16061.02
504.562	16015.97
504.765	16478.81
504.968	16597.59
505.17	16775.77
505.373	16634.46
505.576	17177.17
505.779	17359.44
505.982	17490.51
506.185	17896
506.387	17549.9
506.59	17879.62
506.793	18162.24
506.996	18430.52
507.198	18692.66
507.401	18618.94
507.604	18803.25
507.807	19184.18
508.009	19438.12
508.212	19307.05
508.415	19868.2
508.617	19911.21
508.82	20167.2
509.022	19962.4
509.225	20720.15
509.428	20623.9
509.63	20974.1
509.833	20929.05
510.035	21572.11
510.238	21502.48
510.44	21690.89
510.643	21819.91
510.845	22462.97
511.048	22243.84
511.25	22432.26
511.453	22485.5
511.655	23513.58
511.858	23185.91
512.06	23237.11
512.262	23818.73
512.465	23577.07
512.667	24058.34
512.87	24168.93
513.072	24670.68
513.274	24891.87
513.477	24988.12
513.679	25553.36
513.881	25526.74
514.084	25666
514.286	25518.54
514.488	25797.07
514.69	26640.83
514.893	26638.78
515.095	26773.95
515.297	27103.67
515.499	27126.2
515.701	27228.6
515.904	27797.93
516.106	27826.6
516.308	28434.85
516.51	28484
516.712	28682.66
516.914	28637.6
517.116	29690.26
517.318	29571.47
517.52	29745.55
517.722	29895.05
517.925	30232.97
518.127	30663.04
518.329	30480.77
518.531	30429.57
518.733	31207.8
518.935	31250.81
519.136	31658.35
519.338	31875.44
519.54	32039.28
519.742	32545.12
519.944	32446.82
520.146	32997.73
520.348	33263.96
520.55	33139.04
520.752	33313.11
520.954	33982.8
521.155	34044.24
521.357	34607.43
521.559	34781.51
521.761	34965.82
521.963	35017.02
522.164	34988.35
522.366	35100.99
522.568	35543.35
522.77	35774.77
522.971	36018.48
523.173	36045.1
523.375	36196.65
523.576	36634.92
523.778	36405.55
523.98	37501.21
524.181	37230.88
524.383	37333.28
524.584	37830.93
524.786	37822.74
524.988	37732.63
525.189	37953.81
525.391	38490.38
525.592	38768.9
525.794	38428.94
525.995	38613.26
526.197	38826.24
526.398	39106.82
526.6	39551.23
526.801	39268.61
527.003	39502.07
527.204	39350.52
527.406	40165.62
527.607	39989.49
527.808	40364.27
528.01	39618.81
528.211	40141.04
528.412	40624.36
528.614	40196.34
528.815	40677.61
529.016	41081.06
529.218	40718.57
529.419	40560.87
529.62	40667.37
529.822	40618.22
530.023	41076.96
530.224	41210.08
530.425	41236.7
530.626	40630.51
530.828	40714.47
531.029	41595.1
531.23	41033.96
531.431	40982.76
531.632	41543.9
531.833	41892.05
532.035	41885.91
532.236	41611.48
532.437	41654.49
532.638	41488.6
532.839	41441.5
533.04	41926.87
533.241	41298.14
533.442	42244.3
533.643	41847
533.844	41963.73
534.045	41824.47
534.246	41427.17
534.447	41738.46
534.648	41603.29
534.849	41713.88
535.05	41670.87
535.251	41881.81
535.451	41758.94
535.652	41812.18
535.853	41752.79
536.054	41971.92
536.255	42098.9
536.456	41763.03
536.657	42395.85
536.857	41914.58
537.058	41365.73
537.259	41984.21
537.46	41832.66
537.66	41738.46
537.861	41668.83
538.062	42123.47
538.263	42072.28
538.463	41875.67
538.664	41691.35
538.865	41980.12
539.065	42006.74
539.266	41482.46
539.466	42035.41
539.667	41158.88
539.868	42236.11
540.068	41748.7
540.269	41421.02
540.469	41961.69
540.67	41574.62
540.87	41416.93
541.071	41588.95
541.271	41773.27
541.472	41636.06
541.672	41222.37
541.873	41273.57
542.073	41210.08
542.274	41926.87
542.474	41320.67
542.675	41185.5
542.875	41668.83
543.075	41122.02
543.276	41001.19
543.476	41783.51
543.676	41453.79
543.877	41595.1
544.077	41228.51
544.277	41324.77
544.478	41357.53
544.678	41289.95
544.878	41353.44
545.078	41165.03
545.279	41029.86
545.479	41335.01
545.679	41488.6
545.879	41271.52
546.079	41603.29
546.28	41203.94
546.48	40796.39
546.68	41109.73
546.88	41294.05
547.08	41148.64
547.28	40995.04
547.48	40589.55
547.68	41232.61
547.88	41335.01
548.081	41242.85
548.281	41298.14
548.481	40902.89
548.681	41472.22
548.881	41218.27
549.081	41302.24
549.28	40847.59
549.48	41255.14
549.68	41089.25
549.88	41509.08
550.08	40919.27
550.28	41052.39
550.48	41107.68
550.68	41337.05
550.88	40866.02
551.08	40921.32
551.279	41031.91
551.479	40556.78
551.679	40577.26
551.879	41015.52
552.079	41285.86
552.278	40597.74
552.478	41175.27
552.678	40909.03
552.878	40775.91
553.077	41042.15
553.277	40167.66
553.477	41511.13
553.676	40296.69
553.876	40866.02
554.076	40671.46
554.275	40419.56
554.475	40648.94
554.674	40882.41
554.874	40878.31
555.074	40466.67
555.273	40993
555.473	41074.91
555.672	40298.73
555.872	40206.58
556.071	40751.34
556.271	40753.38
556.47	40640.75
556.67	40370.41
556.869	40093.94
557.068	40513.77
557.268	40511.72
557.467	40329.45
557.667	40186.1
557.866	40351.98
558.065	40280.3
558.265	40134.9
558.464	40149.23
558.663	40673.51
558.863	39977.2
559.062	40325.36
559.261	39653.62
559.461	40376.56
559.66	39676.15
559.859	39885.04
560.058	39805.17
560.258	39852.28
560.457	39444.73
560.656	39811.32
560.855	39604.47
561.054	39620.86
561.253	39258.37
561.453	39860.47
561.652	39692.54
561.851	40130.8
562.05	39371
562.249	39014.66
562.448	39532.79
562.647	39555.32
562.846	39246.08
563.045	39168.26
563.244	39088.38
563.443	39385.34
563.642	38930.69
563.841	38715.65
564.04	38668.55
564.239	39313.66
564.438	38228.24
564.637	38713.61
564.836	38781.19
565.035	38488.33
565.234	38967.55
565.432	38670.6
565.631	38195.47
565.83	38598.92
566.029	38592.78
566.228	38140.18
566.427	38060.3
566.625	37841.17
566.824	38076.69
567.023	38338.83
567.222	37392.67
567.42	38275.34
567.619	37945.62
567.818	37943.57
568.016	37902.61
568.215	37775.64
568.414	37593.37
568.612	37873.94
568.811	37407
569.01	37466.39
569.208	36946.21
569.407	37488.92
569.605	36684.07
569.804	37433.63
570.002	36833.57
570.201	37189.92
570.4	36532.52
570.598	36608.29
570.797	36469.03
570.995	36262.19
571.193	36020.53
571.392	36935.97
571.59	36292.91
571.789	35961.14
571.987	35975.47
572.186	36020.53
572.384	36026.67
572.582	36254
572.781	35815.73
572.979	35297.59
573.177	35776.82
573.376	35770.68
573.574	35379.51
573.772	35293.5
573.971	35123.52
574.169	35410.23
574.367	35023.17
574.565	35402.04
574.763	35285.31
574.962	34828.61
575.16	34535.75
575.358	34740.55
575.556	34441.54
575.754	35074.37
575.952	34259.27
576.151	34769.22
576.349	34107.72
576.547	33931.6
576.745	34228.56
576.943	34400.58
577.141	34085.2
577.339	34181.45
577.537	34236.75
577.735	34126.16
577.933	33593.68
578.131	33583.44
578.329	33509.72
578.527	33282.39
578.725	33534.29
578.923	33448.28
579.121	33503.57
579.319	33446.23
579.516	33053.02
579.714	33186.14
579.912	33145.18
580.11	32731.49
580.308	32768.35
580.506	32887.14
580.704	32516.45
580.901	32313.7
581.099	32686.43
581.297	32475.49
581.495	32186.73
581.692	32463.21
581.89	31727.99
582.088	32481.64
582.285	32096.62
582.483	32192.87
582.681	31715.7
582.878	31926.64
583.076	31480.18
583.274	31992.17
583.471	31310.2
583.669	31531.38
583.866	31232.38
584.064	31631.73
584.262	30933.37
584.459	31199.61
584.657	30861.69
584.854	31103.35
585.052	30882.17
585.249	30730.62
585.447	31224.18
585.644	30386.57
585.841	30937.47
586.039	30777.73
586.236	30552.45
586.434	30290.31
586.631	30198.15
586.828	29987.21
587.026	30407.05
587.223	30253.45
587.42	30040.46
587.618	29970.83
587.815	29925.77
588.012	29606.29
588.21	29264.28
588.407	29727.12
588.604	29473.17
588.801	29145.5
588.999	29497.75
589.196	29125.02
589.393	29127.06
589.59	29295
589.787	28862.88
589.984	28809.63
590.182	28692.9
590.379	28830.11
590.576	28471.71
590.773	28942.75
590.97	28162.47
591.167	28301.73
591.364	28295.59
591.561	28311.97
591.758	27838.89
591.955	28250.53
592.152	28293.54
592.349	27830.7
592.546	28064.17
592.743	27632.05
592.94	27457.97
593.137	27779.5
593.334	27767.21
593.531	27204.02
593.727	27568.56
593.924	27437.49
594.121	27255.22
594.318	27001.27
594.515	27427.25
594.712	27075
594.908	26970.55
595.105	27097.53
595.302	26692.03
595.499	26933.69
595.696	26696.13
595.892	26710.46
596.089	26730.94
596.286	26556.86
596.482	26536.38
596.679	26362.31
596.876	26397.12
597.072	26102.22
597.269	26429.89
597.466	26192.33
597.662	25700.81
597.859	25962.95
598.055	25799.12
598.252	25420.24
598.448	25975.24
598.645	25387.47
598.841	25369.04
599.038	25428.43
599.234	25522.64
599.431	25096.66
599.627	25276.88
599.824	25221.59
600.02	24844.76
600.217	25151.96
600.413	24773.08
600.609	24508.9
600.806	24633.82
601.002	24850.91
601.198	24599.01
601.395	24498.66
601.591	24615.39
601.787	24340.96
601.984	24248.8
602.18	24508.9
602.376	24304.1
602.572	24218.08
602.769	24213.99
602.965	23892.46
603.161	24263.14
603.357	23869.93
603.553	23538.16
603.75	23587.31
603.946	23634.41
604.142	24011.24
604.338	23187.96
604.534	23620.08
604.73	23099.89
604.926	23222.77
605.122	23394.8
605.318	23087.61
605.514	23149.04
605.71	23144.95
605.906	22768.12
606.102	22923.77
606.298	22903.29
606.494	23020.02
606.69	22776.31
606.886	22946.3
607.082	22575.61
607.278	22696.44
607.474	22594.04
607.67	22428.16
607.866	22510.08
608.062	22544.89
608.257	22395.39
608.453	22446.59
608.649	22669.82
608.845	22528.51
609.041	22133.25
609.236	22301.19
609.432	21983.75
609.628	22053.38
609.824	22333.95
610.019	22045.19
610.215	21987.85
610.411	21973.51
610.606	21834.25
610.802	22059.52
610.998	21805.58
611.193	21809.67
611.389	21516.81
611.584	21834.25
611.78	21590.54
611.976	21352.98
612.171	21525
612.367	21502.48
612.562	21461.52
612.758	21127.7
612.953	21260.82
613.149	21269.01
613.344	21158.42
613.539	21568.01
613.735	21027.35
613.93	21217.81
614.126	21117.46
614.321	21287.44
614.517	21223.95
614.712	21101.08
614.907	20996.63
615.103	21068.31
615.298	20711.96
615.493	21144.08
615.688	20834.84
615.884	21316.11
616.079	20300.32
616.274	20814.36
616.47	20939.29
616.665	20695.58
616.86	20552.22
617.055	20556.32
617.25	20591.13
617.445	20638.23
617.641	20353.57
617.836	20421.15
618.031	20140.58
618.226	19980.84
618.421	20232.74
618.616	20247.07
618.811	19878.44
619.006	20134.43
619.201	19528.24
619.396	19798.57
619.591	19679.79
619.786	19841.57
619.981	19233.33
620.176	19552.81
620.371	19446.32
620.566	19606.06
620.761	19085.87
620.956	19057.2
621.151	19085.87
621.346	19106.35
621.541	18649.66
621.735	19163.7
621.93	18860.6
622.125	18692.66
622.32	18418.24
622.515	18549.31
622.709	18246.21
622.904	18272.83
623.099	18143.81
623.294	18160.19
623.488	17748.55
623.683	18401.85
623.878	17588.81
624.072	18037.31
624.267	17818.18
624.462	17560.14
624.656	17416.78
624.851	17386.06
625.046	17332.81
625.24	17224.27
625.435	16960.08
625.629	16988.75
625.824	17005.14
626.018	16937.55
626.213	16722.52
626.407	16865.88
626.602	16656.98
626.796	16665.18
626.991	16550.49
627.185	16503.39
627.38	16132.7
627.574	16169.57
627.768	16253.53
627.963	16271.97
628.157	16038.5
628.352	16091.74
628.546	15676.01
628.74	15972.96
628.935	15553.13
629.129	15807.08
629.323	15389.29
629.517	15268.46
629.712	15258.22
629.906	15549.03
630.1	15133.29
630.294	15159.92
630.489	15159.92
630.683	14946.93
630.877	14750.32
631.071	14731.89
631.265	14781.04
631.459	14408.31
631.653	14441.08
631.848	14570.1
632.042	14473.85
632.236	14254.72
632.43	14207.61
632.624	14504.57
632.818	14174.85
633.012	13808.26
633.206	13865.6
633.4	14099.07
633.594	13736.58
633.788	13793.92
633.982	13691.52
634.176	13603.46
634.369	13591.17
634.563	13609.61
634.757	13363.85
634.951	13671.04
635.145	13224.59
635.339	13517.45
635.533	13308.55
635.726	13177.48
635.92	12958.35
636.114	13036.17
636.308	12872.34
636.501	12757.65
636.695	12911.25
636.889	12784.27
637.083	12665.49
637.276	12632.72
637.47	12561.05
637.664	12515.99
637.857	12604.05
638.051	12348.06
638.244	12368.54
638.438	12202.65
638.632	12126.88
638.825	12126.88
639.019	11985.57
639.212	11801.25
639.406	11942.56
639.599	11709.09
639.793	11909.79
639.986	11598.5
640.18	11756.19
640.373	11704.99
640.567	11528.87
640.76	11303.59
640.954	11430.57
641.147	11066.03
641.34	11186.86
641.534	11115.18
641.727	11295.4
641.92	11131.56
642.114	11025.07
642.307	10898.1
642.5	10867.38
642.694	10687.15
642.887	10830.51
643.08	10934.96
643.273	10787.5
643.467	10807.98
643.66	10511.03
643.853	10515.12
644.046	10265.27
644.239	10453.69
644.432	10181.31
644.626	10095.29
644.819	10283.7
645.012	10072.76
645.205	10234.55
645.398	10089.15
645.591	9917.12
645.784	10087.1
645.977	9685.7
646.17	10062.52
646.363	9730.75
646.556	9702.08
646.749	9896.64
646.942	9628.35
647.135	9726.66
647.328	9587.4
647.521	9480.9
647.714	9411.27
647.907	9566.92
648.099	9300.68
648.292	9343.69
648.485	9161.42
648.678	9110.22
648.871	9165.51
649.064	9226.95
649.256	8954.57
649.449	8727.25
649.642	8886.99
649.835	8915.66
650.027	8880.85
650.22	8833.74
650.413	8827.6
650.605	8843.98
650.798	8860.37
650.991	8532.69
651.183	8524.5
651.376	8422.1
651.568	8600.27
651.761	8669.91
651.954	8499.92
652.146	8544.98
652.339	8487.64
652.531	8178.39
652.724	8331.99
652.916	8168.15
653.109	8260.31
653.301	8301.27
653.494	7908.06
653.686	8045.27
653.879	8166.1
654.071	7957.21
654.263	7908.06
654.456	7813.85
654.648	7899.87
654.84	7668.45
655.033	7682.78
655.225	7615.2
655.417	7828.19
655.61	7762.65
655.802	7641.82
655.994	7498.47
656.186	7353.06
656.379	7385.83
656.571	7422.69
656.763	7482.08
656.955	7482.08
657.148	7260.9
657.34	7404.26
657.532	7221.99
657.724	7240.42
657.916	7328.49
658.108	7092.97
658.3	7199.46
658.492	7121.64
658.684	7070.44
658.876	7117.54
659.068	6935.28
659.26	6896.36
659.452	6882.03
659.644	7011.05
659.836	6763.25
660.028	6703.86
660.22	6710
660.412	6714.09
660.604	6632.18
660.796	6683.38
660.988	6447.86
661.18	6533.87
661.372	6658.8
661.563	6591.22
661.755	6490.87
661.947	6636.27
662.139	6345.46
662.331	6320.88
662.522	6310.65
662.714	6441.72
662.906	6327.03
663.097	6396.66
663.289	6228.73
663.481	6048.51
663.673	6159.1
663.864	6013.69
664.056	6050.55
664.247	6013.69
664.439	5917.44
664.631	6220.53
664.822	6114.04
665.014	6157.05
665.205	5913.34
665.397	5765.89
665.588	5837.56
665.78	5876.48
665.971	5794.56
666.163	5810.94
666.354	5597.95
666.546	5614.34
666.737	5597.95
666.929	5643.01
667.12	5540.61
667.311	5700.35
667.503	5532.42
667.694	5552.9
667.885	5532.42
668.077	5489.41
668.268	5483.27
668.459	5501.7
668.651	5395.2
668.842	5376.77
669.033	5337.86
669.224	5419.78
669.416	5419.78
669.607	5288.71
669.798	5319.43
669.989	5501.7
670.18	5139.21
670.371	5204.74
670.563	5081.86
670.754	5298.95
670.945	5094.15
671.136	5157.64
671.327	5239.56
671.518	5042.95
671.709	5137.16
671.9	5178.12
672.091	5057.29
672.282	4971.27
672.473	4940.55
672.664	5012.23
672.855	4870.92
673.046	4969.23
673.237	5102.34
673.428	4950.79
673.619	4838.16
673.809	4852.49
674	4803.34
674.191	4997.9
674.382	4700.94
674.573	4756.24
674.764	4731.66
674.954	4764.43
675.145	4725.52
675.336	4672.27
675.527	4782.86
675.717	4672.27
675.908	4664.08
676.099	4680.46
676.289	4571.92
676.48	4578.06
676.671	4569.87
676.861	4600.59
677.052	4594.45
677.243	4514.58
677.433	4557.58
677.624	4543.25
677.814	4446.99
678.005	4354.83
678.195	4696.85
678.386	4467.47
678.576	4391.7
678.767	4492.05
678.957	4500.24
679.148	4430.61
679.338	4465.43
679.529	4528.91
679.719	4350.74
679.909	4475.67
680.1	4414.23
680.29	4197.14
680.481	4473.62
680.671	4297.49
680.861	4356.88
681.052	4344.6
681.242	4250.39
681.432	4291.35
681.622	4360.98
681.813	4346.64
682.003	4150.04
682.193	4264.72
682.383	4340.5
682.573	4172.57
682.764	4307.73
682.954	4174.61
683.144	4309.78
683.334	4158.23
683.524	4125.46
683.714	4131.61
683.904	4182.81
684.094	4254.48
684.284	4182.81
684.474	4311.83
684.664	4059.93
684.854	4162.33
685.044	4305.68
685.234	4064.02
685.424	3982.1
685.614	4119.32
685.804	4068.12
685.994	4117.27
686.184	4023.06
686.374	4086.55
686.564	3949.34
686.753	4068.12
686.943	3971.86
687.133	3980.06
687.323	3988.25
687.513	4049.69
687.702	4004.63
687.892	3920.67
688.082	3924.76
688.272	3822.36
688.461	3801.88
688.651	3879.71
688.841	3805.98
689.03	4002.58
689.22	3738.4
689.41	3625.76
689.599	3805.98
689.789	3775.26
689.979	3791.64
690.168	3597.09
690.358	3750.68
690.547	3691.29
690.737	3652.38
690.926	3689.25
691.116	3644.19
691.305	3697.44
691.495	3619.61
691.684	3574.56
691.874	3537.7
692.063	3484.45
692.252	3605.28
692.442	3525.41
692.631	3494.69
692.82	3590.94
693.01	3461.92
693.199	3541.79
693.388	3470.11
693.578	3476.26
693.767	3558.18
693.956	3361.57
694.146	3310.37
694.335	3429.15
694.524	3447.58
694.713	3384.1
694.902	3310.37
695.092	3324.71
695.281	3179.3
695.47	3418.91
695.659	3451.68
695.848	3320.61
696.037	3306.27
696.226	3336.99
696.415	3275.56
696.604	3367.71
696.793	3388.19
696.982	3257.12
697.171	3314.47
697.36	3291.94
697.549	3146.53
697.738	3293.99
697.927	3320.61
698.116	3228.45
698.305	3173.16
698.494	3205.92
698.683	3222.31
698.872	3291.94
699.061	3214.12
699.25	3312.42
699.438	3269.41
699.627	3242.79
699.816	3322.66
700.005	3175.2
700.193	3173.16
700.382	3193.64
700.571	3214.12
700.76	3185.44
700.948	3210.02
701.137	3203.88
701.326	3156.77
701.514	3078.95
701.703	3158.82
701.892	3044.13
702.08	3158.82
702.269	3156.77
702.457	2927.4
702.646	3244.84
702.834	3023.66
703.023	3068.71
703.212	3054.37
703.4	3097.38
703.589	3154.73
703.777	3105.57
703.965	2974.5
704.154	3156.77
704.342	3068.71
704.531	3033.9
704.719	2992.94
704.907	3097.38
705.096	2984.74
705.284	2999.08
705.472	3187.49
705.661	2992.94
705.849	3033.9
706.037	3101.48
706.226	2951.98
706.414	3007.27
706.602	2937.64
706.79	2935.59
706.979	2976.55
707.167	2878.25
707.355	3025.7
707.543	2857.77
707.731	2945.83
707.919	2931.5
708.107	2943.78
708.296	3042.09
708.484	2919.21
708.672	2835.24
708.86	2962.22
709.048	2992.94
709.236	2870.06
709.424	2894.63
709.612	2984.74
709.8	2921.26
709.988	2880.3
710.176	2968.36
710.364	2878.25
710.551	2888.49
710.739	2919.21
710.927	2882.35
711.115	2923.3
711.303	2882.35
711.491	2908.97
711.679	2841.39
711.866	2831.15
712.054	2870.06
712.242	2726.7
712.43	2790.19
712.617	2773.8
712.805	2779.95
712.993	2812.71
713.181	2853.67
713.368	2822.95
713.556	2798.38
713.744	2648.88
713.931	2886.44
714.119	2761.52
714.306	2741.04
714.494	2642.73
714.682	2755.37
714.869	2695.98
715.057	2755.37
715.244	2865.96
715.432	2777.9
715.619	2661.16
715.807	2747.18
715.994	2708.27
716.182	2642.73
716.369	2685.74
716.556	2693.93
716.744	2730.8
716.931	2698.03
717.119	2763.56
717.306	2601.77
717.493	2765.61
717.681	2698.03
717.868	2683.69
718.055	2681.64
718.242	2724.65
718.43	2640.69
718.617	2747.18
718.804	2669.36
718.991	2646.83
719.179	2810.67
719.366	2673.45
719.553	2657.07
719.74	2618.16
719.927	2663.21
720.114	2730.8
720.301	2499.38
720.488	2636.59
720.676	2634.54
720.863	2562.86
721.05	2591.53
721.237	2607.92
721.424	2605.87
721.611	2546.48
721.798	2650.92
721.985	2601.77
722.172	2655.02
722.358	2644.78
722.545	2607.92
722.732	2556.72
722.919	2616.11
723.106	2612.01
723.293	2558.77
723.48	2595.63
723.667	2526
723.853	2501.42
724.04	2538.29
724.227	2558.77
724.414	2495.28
724.6	2581.29
724.787	2616.11
724.974	2480.94
725.161	2558.77
725.347	2476.85
725.534	2413.36
725.72	2511.66
725.907	2591.53
726.094	2501.42
726.28	2460.46
726.467	2505.52
726.653	2376.5
726.84	2472.75
727.027	2485.04
727.213	2489.14
727.4	2458.42
727.586	2448.18
727.773	2388.78
727.959	2399.02
728.145	2370.35
728.332	2386.74
728.518	2405.17
728.705	2437.94
728.891	2403.12
729.077	2485.04
729.264	2405.17
729.45	2448.18
729.636	2487.09
729.823	2462.51
730.009	2413.36
730.195	2431.79
730.382	2376.5
730.568	2419.5
730.754	2431.79
730.94	2390.83
731.126	2429.74
731.313	2308.91
731.499	2380.59
731.685	2304.82
731.871	2317.11
732.057	2362.16
732.243	2335.54
732.429	2345.78
732.615	2548.53
732.801	2353.97
732.987	2276.15
733.173	2345.78
733.359	2235.19
733.545	2394.93
733.731	2253.62
733.917	2313.01
734.103	2339.63
734.289	2337.59
734.475	2396.98
734.661	2325.3
734.847	2280.24
735.033	2224.95
735.219	2325.3
735.404	2265.91
735.59	2265.91
735.776	2200.37
735.962	2255.67
736.148	2272.05
736.333	2378.55
736.519	2231.09
736.705	2130.74
736.89	2214.71
737.076	2143.03
737.262	2095.93
737.447	2304.82
737.633	2171.7
737.819	2267.95
738.004	2186.04
738.19	2261.81
738.375	2149.17
738.561	2122.55
738.747	2198.32
738.932	2169.65
739.118	2208.56
739.303	2097.97
739.489	2077.49
739.674	2022.2
739.859	2132.79
740.045	2093.88
740.23	2222.9
740.416	2085.69
740.601	2143.03
740.786	2089.78
740.972	2059.06
741.157	1989.43
741.342	1977.14
741.528	2110.26
741.713	2233.14
741.898	2059.06
742.084	2020.15
742.269	2054.97
742.454	2100.02
742.639	2030.39
742.824	2052.92
743.01	2079.54
743.195	2118.45
743.38	2011.96
743.565	2032.44
743.75	1977.14
743.935	2022.2
744.12	1993.53
744.305	1919.8
744.49	1901.37
744.675	1893.18
744.86	1899.32
745.045	1864.5
745.23	1878.84
745.415	1927.99
745.6	1905.46
745.785	1848.12
745.97	1862.46
746.155	1946.42
746.34	1819.45
746.525	1743.67
746.71	1813.31
746.895	1758.01
747.079	1893.18
747.264	1694.52
747.449	1786.68
747.634	1874.74
747.819	1807.16
748.003	1780.54
748.188	1622.84
748.373	1772.35
748.557	1760.06
748.742	1633.08
748.927	1624.89
749.111	1745.72
749.296	1780.54
749.481	1649.47
749.665	1612.6
749.85	1563.45
750.034	1690.43
750.219	1669.95
750.404	1510.21
750.588	1604.41
750.773	1518.4
750.957	1542.97
751.141	1526.59
751.326	1559.36
751.51	1493.82
751.695	1583.93
751.879	1528.64
752.064	1495.87
752.248	1436.48
752.432	1536.83
752.617	1477.44
752.801	1516.35
752.985	1542.97
753.17	1424.19
753.354	1459.01
753.538	1383.23
753.722	1436.48
753.907	1401.66
754.091	1338.18
754.275	1305.41
754.459	1350.46
754.643	1336.13
754.828	1315.65
755.012	1395.52
755.196	1170.24
755.38	1362.75
755.564	1377.09
755.748	1327.94
755.932	1258.31
756.116	1364.8
756.3	1289.03
756.484	1264.45
756.668	1188.68
756.852	1284.93
757.036	1188.68
757.22	1141.57
757.404	1297.22
757.588	1237.83
757.772	1258.31
757.956	1174.34
758.14	1264.45
758.323	1192.77
758.507	1217.35
758.691	1121.09
758.875	1190.72
759.059	1162.05
759.242	1241.92
759.426	1086.28
759.61	1143.62
759.794	1035.08
759.977	1117
760.161	1168.2
760.345	1235.78
760.528	1133.38
760.712	1088.32
760.895	1082.18
761.079	1135.43
761.263	1045.32
761.446	1012.55
761.63	1061.7
761.813	1096.52
761.997	1026.89
762.18	1012.55
762.364	947.01
762.547	1076.04
762.731	1018.69
762.914	1106.76
763.098	918.34
763.281	1012.55
763.464	1010.5
763.648	977.73
763.831	979.78
764.015	1012.55
764.198	1071.94
764.381	990.02
764.564	869.19
764.748	879.43
764.931	940.87
765.114	1030.98
765.297	977.73
765.481	897.86
765.664	912.2
765.847	940.87
766.03	955.21
766.213	904.01
766.397	854.86
766.58	891.72
766.763	914.25
766.946	879.43
767.129	920.39
767.312	830.28
767.495	920.39
767.678	830.28
767.861	981.83
768.044	932.68
768.227	934.73
768.41	926.54
768.593	936.78
768.776	912.2
768.959	887.62
769.142	899.91
769.324	928.58
769.507	799.56
769.69	824.14
769.873	772.94
770.056	850.76
770.239	838.47
770.421	871.24
770.604	838.47
770.787	797.51
770.97	781.13
771.152	822.09
771.335	809.8
771.518	770.89
771.7	822.09
771.883	846.66
772.066	756.55
772.248	850.76
772.431	768.84
772.613	744.27
772.796	723.79
772.978	760.65
773.161	756.55
773.343	744.27
773.526	719.69
773.708	781.13
773.891	740.17
774.073	658.25
774.256	760.65
774.438	736.07
774.621	656.2
774.803	758.6
774.985	613.2
775.168	670.54
775.35	592.72
775.532	662.35
775.715	633.68
775.897	658.25
776.079	699.21
776.261	625.48
776.444	633.68
776.626	584.52
776.808	680.78
776.99	666.44
777.173	691.02
777.355	572.24
777.537	643.92
777.719	674.64
777.901	592.72
778.083	678.73
778.265	529.23
778.447	752.46
778.629	582.48
778.811	602.96
778.993	518.99
779.175	637.77
779.357	652.11
779.539	531.28
779.721	582.48
779.903	586.57
780.085	555.85
780.267	576.33
780.449	586.57
780.631	531.28
780.812	613.2
780.994	518.99
781.176	478.03
781.358	562
781.54	539.47
781.721	551.76
781.903	494.41
782.085	553.8
782.267	518.99
782.448	473.93
782.63	461.65
782.812	496.46
782.993	525.13
783.175	504.65
783.357	451.41
783.538	463.69
783.72	463.69
783.901	400.21
784.083	543.57
784.264	488.27
784.446	379.73
784.627	453.45
784.809	500.56
784.99	471.89
785.172	496.46
785.353	432.97
785.535	447.31
785.716	480.08
785.897	326.48
786.079	531.28
786.26	437.07
786.441	449.36
786.623	414.54
786.804	451.41
786.985	439.12
787.167	426.83
787.348	349.01
787.529	435.02
787.71	418.64
787.891	402.26
788.073	359.25
788.254	389.97
788.435	369.49
788.616	437.07
788.797	367.44
788.978	373.58
789.159	389.97
789.34	355.15
789.522	328.53
789.703	406.35
789.884	326.48
790.065	396.11
790.246	326.48
790.427	394.06
790.607	404.3
790.788	342.86
790.969	299.86
791.15	349.01
791.331	346.96
791.512	316.24
791.693	306
791.874	342.86
792.054	392.02
792.235	281.43
792.416	353.1
792.597	306
792.778	361.3
792.958	306
793.139	285.52
793.32	379.73
793.5	299.86
793.681	349.01
793.862	326.48
794.042	287.57
794.223	316.24
794.404	277.33
794.584	260.95
794.765	314.19
794.945	308.05
795.126	332.62
795.306	322.38
795.487	338.77
795.667	203.6
795.848	197.46
796.028	318.29
796.209	299.86
796.389	301.9
796.57	209.75
796.75	301.9
796.93	379.73
797.111	273.23
797.291	332.62
797.471	291.66
797.652	252.75
797.832	248.66
798.012	273.23
798.192	275.28
798.373	232.27
798.553	234.32
798.733	236.37
798.913	285.52
799.093	281.43
799.274	246.61
799.454	248.66
799.634	224.08
799.814	260.95
799.994	240.47
800.174	283.47
800.354	326.48
800.534	224.08
800.714	289.62
800.894	179.03
801.074	158.55
801.254	209.75
801.434	203.6
801.614	238.42
801.794	236.37
801.974	717.64
802.154	207.7
802.334	250.71
802.514	265.04
802.693	250.71
802.873	183.12
803.053	230.23
803.233	226.13
803.413	291.66
803.592	162.64
803.772	242.51
803.952	203.6
804.131	170.83
804.311	240.47
804.491	273.23
804.67	199.51
804.85	250.71
805.03	248.66
805.209	217.94
805.389	248.66
805.568	271.19
805.748	166.74
805.928	174.93
806.107	258.9
806.287	262.99
806.466	189.27
806.646	152.4
806.825	133.97
807.004	211.79
807.184	224.08
807.363	170.83
807.543	209.75
807.722	207.7
807.901	199.51
808.081	166.74
808.26	125.78
808.439	185.17
808.619	166.74
808.798	150.36
808.977	185.17
809.156	236.37
809.336	183.12
809.515	242.51
809.694	170.83
809.873	209.75
810.052	152.4
810.231	226.13
810.411	273.23
810.59	156.5
810.769	166.74
810.948	168.79
811.127	191.31
811.306	158.55
811.485	150.36
811.664	246.61
811.843	219.99
812.022	187.22
812.201	76.63
812.38	150.36
812.559	105.3
812.737	117.59
812.916	78.68
813.095	240.47
813.274	146.26
813.453	127.83
813.632	187.22
813.811	119.64
813.989	166.74
814.168	217.94
814.347	144.21
814.526	115.54
814.704	258.9
814.883	146.26
815.062	162.64
815.24	119.64
815.419	101.2
815.598	166.74
815.776	105.3
815.955	125.78
816.133	52.05
816.312	142.16
816.49	95.06
816.669	80.72
816.847	90.96
817.026	144.21
817.204	39.76
817.383	160.59
817.561	68.44
817.74	154.45
817.918	103.25
818.097	105.3
818.275	136.02
818.453	76.63
818.632	97.11
818.81	72.53
818.988	86.87
819.167	117.59
819.345	50
819.523	166.74
819.701	125.78
819.879	117.59
820.058	125.78
820.236	109.4
820.414	174.93
820.592	170.83
820.77	95.06
820.948	52.05
821.127	52.05
821.305	109.4
821.483	97.11
821.661	158.55
821.839	72.53
822.017	84.82
822.195	115.54
822.373	166.74
822.551	144.21
822.729	152.4
822.907	95.06
823.085	162.64
823.262	19.29
823.44	168.79
823.618	125.78
823.796	119.64
823.974	68.44
824.152	39.76
824.329	72.53
824.507	95.06
824.685	58.2
824.863	56.15
825.04	144.21
825.218	80.72
825.396	47.96
825.574	62.29
825.751	105.3
825.929	103.25
826.107	168.79
826.284	158.55
826.462	154.45
826.639	52.05
826.817	82.77
826.994	209.75
827.172	84.82
827.349	109.4
827.527	103.25
827.704	84.82
827.882	150.36
828.059	150.36
828.237	121.68
828.414	125.78
828.591	-7.34
828.769	97.11
828.946	35.67
829.124	144.21
829.301	88.92
829.478	31.57
829.655	144.21
829.833	47.96
830.01	2.9
830.187	76.63
830.364	62.29
830.542	76.63
830.719	72.53
830.896	56.15
831.073	99.16
831.25	166.74
831.427	125.78
831.604	39.76
831.782	54.1
831.959	27.48
832.136	52.05
832.313	107.35
832.49	76.63
832.667	93.01
832.844	66.39
833.021	95.06
833.198	133.97
833.374	74.58
833.551	72.53
833.728	117.59
833.905	62.29
834.082	4.95
834.259	105.3
834.436	70.48
834.612	80.72
834.789	7
834.966	93.01
835.143	86.87
835.319	27.48
835.496	93.01
835.673	105.3
835.85	133.97
836.026	25.43
836.203	111.44
836.38	56.15
836.556	52.05
836.733	127.83
836.909	43.86
837.086	39.76
837.262	56.15
837.439	84.82
837.616	27.48
837.792	117.59
837.968	47.96
838.145	2.9
838.321	56.15
838.498	52.05
838.674	117.59
838.851	54.1
839.027	45.91
839.203	27.48
839.38	78.68
839.556	29.52
839.732	43.86
839.909	39.76
840.085	72.53
840.261	70.48
840.437	60.24
840.614	74.58
840.79	84.82
840.966	68.44
841.142	29.52
841.318	-29.87
841.494	56.15
841.671	31.57
841.847	21.33
842.023	-5.29
842.199	76.63
842.375	84.82
842.551	31.57
842.727	35.67
842.903	50
843.079	127.83
843.255	82.77
843.431	7
843.607	72.53
843.783	-9.39
843.959	88.92
844.134	-3.24
844.31	45.91
844.486	31.57
844.662	68.44
844.838	35.67
845.013	52.05
845.189	84.82
845.365	60.24
845.541	101.2
845.716	9.05
845.892	47.96
846.068	43.86
846.244	86.87
846.419	70.48
846.595	68.44
846.77	9.05
846.946	78.68
847.122	70.48
847.297	-33.96
847.473	117.59
847.648	78.68
847.824	-17.58
847.999	39.76
848.175	72.53
848.35	47.96
848.526	146.26
848.701	35.67
848.876	99.16
849.052	105.3
849.227	78.68
849.403	50
849.578	-13.48
849.753	84.82
849.929	64.34
850.104	-46.25
850.279	-44.2
850.454	86.87
850.63	93.01
850.805	13.14
850.98	43.86
851.155	35.67
851.33	136.02
851.505	27.48
851.681	111.44
851.856	37.72
852.031	43.86
852.206	84.82
852.381	64.34
852.556	-19.63
852.731	-3.24
852.906	95.06
853.081	68.44
853.256	33.62
853.431	78.68
853.606	21.33
853.781	52.05
853.956	11.09
854.131	-1.19
854.305	70.48
854.48	39.76
854.655	-9.39
854.83	21.33
855.005	19.29
855.18	74.58
855.354	84.82
855.529	99.16
855.704	66.39
855.879	68.44
856.053	11.09
856.228	52.05
856.403	31.57
856.577	11.09
856.752	62.29
856.926	113.49
857.101	70.48
857.276	50
857.45	27.48
857.625	43.86
857.799	-46.25
857.974	-3.24
858.148	19.29
858.323	47.96
858.497	-3.24
858.672	11.09
858.846	31.57
859.02	56.15
859.195	19.29
859.369	31.57
859.543	52.05
859.718	52.05
859.892	-11.43
860.066	31.57
860.241	68.44
860.415	56.15
860.589	-27.82
860.763	62.29
860.938	58.2
861.112	62.29
861.286	13.14
861.46	84.82
861.634	15.19
861.808	19.29
861.982	29.52
862.157	13.14
862.331	45.91
862.505	13.14
862.679	-17.58
862.853	11.09
863.027	58.2
863.201	88.92
863.375	9.05
863.549	93.01
863.722	7
863.896	23.38
864.07	54.1
864.244	45.91
864.418	101.2
864.592	56.15
864.766	19.29
864.939	7
865.113	19.29
865.287	43.86
865.461	-31.91
865.634	29.52
865.808	47.96
865.982	62.29
866.156	2.9
866.329	35.67
866.503	37.72
866.676	25.43
866.85	-13.48
867.024	-25.77
867.197	33.62
867.371	64.34
867.544	21.33
867.718	-46.25
867.891	27.48
868.065	43.86
868.238	15.19
868.412	101.2
868.585	31.57
868.759	80.72
868.932	-11.43
869.105	-36.01
869.279	-23.72
869.452	0.85
869.625	35.67
869.799	80.72
869.972	13.14
870.145	27.48
870.319	13.14
870.492	52.05
870.665	17.24
870.838	-5.29
871.011	-13.48
871.185	2.9
871.358	-31.91
871.531	15.19
871.704	47.96
871.877	-17.58
872.05	27.48
872.223	-38.06
872.396	80.72
872.569	60.24
872.742	23.38
872.915	-1.19
873.088	-21.67
873.261	97.11
873.434	45.91
873.607	15.19
873.78	60.24
873.953	78.68
874.126	52.05
874.299	7
874.471	68.44
874.644	72.53
874.817	39.76
874.99	76.63
875.163	-21.67
875.335	84.82
875.508	39.76
875.681	31.57
875.853	-21.67
876.026	62.29
876.199	52.05
876.371	29.52
876.544	-17.58
876.717	-42.15
876.889	43.86
877.062	68.44
877.234	-62.63
877.407	37.72
877.579	52.05
877.752	39.76
877.924	47.96
878.097	29.52
878.269	45.91
878.442	66.39
878.614	88.92
878.786	-79.02
878.959	52.05
879.131	76.63
879.303	47.96
879.476	-27.82
879.648	-5.29
879.82	13.14
879.993	-13.48
880.165	7
880.337	-33.96
880.509	56.15
880.681	-40.11
880.854	-33.96
881.026	19.29
881.198	82.77
881.37	-31.91
881.542	11.09
881.714	33.62
881.886	4.95
882.058	70.48
882.23	76.63
882.402	52.05
882.574	72.53
882.746	56.15
882.918	54.1
883.09	50
883.262	21.33
883.434	31.57
883.606	-79.02
883.778	-13.48
883.95	68.44
884.122	27.48
884.293	47.96
884.465	66.39
884.637	13.14
884.809	23.38
884.98	45.91
885.152	68.44
885.324	35.67
885.496	-33.96
885.667	78.68
885.839	-3.24
886.011	52.05
886.182	64.34
886.354	41.81
886.525	17.24
886.697	68.44
886.869	27.48
887.04	-36.01
887.212	70.48
887.383	54.1
887.555	-68.78
887.726	45.91
887.897	109.4
888.069	-76.97
888.24	29.52
888.412	23.38
888.583	19.29
888.754	76.63
888.926	13.14
889.097	37.72
889.268	-17.58
889.44	33.62
889.611	-7.34
889.782	35.67
889.953	84.82
890.125	35.67
890.296	-3.24
890.467	84.82
890.638	21.33
890.809	33.62
890.98	60.24
891.151	39.76
891.323	-29.87
891.494	19.29
891.665	9.05
891.836	-54.44
892.007	9.05
892.178	29.52
892.349	-11.43
892.52	-19.63
892.691	93.01
892.862	47.96
893.032	0.85
893.203	9.05
893.374	-21.67
893.545	109.4
893.716	4.95
893.887	23.38
894.057	-25.77
894.228	23.38
894.399	62.29
894.57	62.29
894.74	-36.01
894.911	35.67
895.082	7
895.253	37.72
895.423	-9.39
895.594	4.95
895.764	-17.58
895.935	2.9
896.106	-1.19
896.276	-7.34
896.447	68.44
896.617	-54.44
896.788	39.76
896.958	9.05
897.129	62.29
897.299	23.38
897.47	84.82
897.64	-42.15
897.81	-21.67
897.981	2.9
898.151	45.91
898.322	29.52
898.492	-19.63
898.662	27.48
898.832	88.92
899.003	54.1
899.173	29.52
899.343	9.05
899.513	0.85
