Data from USB4F104151__136__14-19-11-382.txt Node

Date: Thu Mar 13 14:19:11 EDT 2025
User: louis
Spectrometer: USB4F10415
Trigger mode: 4
Integration Time (sec): 2.000000E-2
Scans to average: 1
Electric dark correction enabled: true
Nonlinearity correction enabled: false
Boxcar width: 0
XAxis mode: Wavelengths
Number of Pixels in Spectrum: 3648
>>>>>Begin Spectral Data<<<<<
178.204	-104.62
178.424	-104.62
178.644	-104.62
178.864	-102.57
179.084	-69.8
179.304	-41.13
179.524	61.27
179.744	5.97
179.964	34.64
180.184	20.31
180.404	-6.31
180.624	-67.75
180.844	42.84
181.064	14.17
181.283	-28.84
181.503	-4.27
181.723	-30.89
181.943	-14.51
182.163	87.89
182.383	-51.37
182.602	26.45
182.822	44.88
183.042	18.26
183.262	20.31
183.482	-24.75
183.701	20.31
183.921	106.32
184.141	-34.99
184.361	108.37
184.58	28.5
184.8	83.8
185.02	61.27
185.239	30.55
185.459	46.93
185.679	12.12
185.898	-92.33
186.118	30.55
186.338	-6.31
186.557	1.88
186.777	36.69
186.997	-55.47
187.216	28.5
187.436	12.12
187.655	24.4
187.875	128.85
188.095	20.31
188.314	53.08
188.534	75.6
188.753	-14.51
188.973	5.97
189.192	85.84
189.412	-10.41
189.631	-34.99
189.851	-12.46
190.07	14.17
190.29	-22.7
190.509	135
190.729	5.97
190.948	55.12
191.168	149.33
191.387	75.6
191.607	12.12
191.826	132.95
192.045	69.46
192.265	32.6
192.484	71.51
192.704	14.17
192.923	-22.7
193.142	51.03
193.362	73.56
193.581	10.07
193.8	-45.23
194.02	108.37
194.239	1.88
194.458	34.64
194.678	55.12
194.897	44.88
195.116	32.6
195.335	12.12
195.555	51.03
195.774	34.64
195.993	38.74
196.212	-28.84
196.432	14.17
196.651	44.88
196.87	34.64
197.089	69.46
197.308	36.69
197.528	18.26
197.747	30.55
197.966	-53.42
198.185	69.46
198.404	1.88
198.623	3.93
198.842	65.36
199.062	-2.22
199.281	44.88
199.5	-8.36
199.719	79.7
199.938	65.36
200.157	106.32
200.376	-34.99
200.595	83.8
200.814	42.84
201.033	26.45
201.252	57.17
201.471	-0.17
201.69	1.88
201.909	51.03
202.128	26.45
202.347	110.42
202.566	126.8
202.785	16.21
203.004	16.21
203.223	69.46
203.442	36.69
203.661	20.31
203.879	75.6
204.098	75.6
204.317	-20.65
204.536	91.99
204.755	110.42
204.974	48.98
205.193	22.36
205.411	77.65
205.63	-20.65
205.849	110.42
206.068	22.36
206.287	18.26
206.505	-16.55
206.724	51.03
206.943	-43.18
207.162	51.03
207.381	-2.22
207.599	59.22
207.818	-49.32
208.037	26.45
208.255	18.26
208.474	30.55
208.693	38.74
208.911	83.8
209.13	85.84
209.349	38.74
209.567	26.45
209.786	28.5
210.005	42.84
210.223	-6.31
210.442	-45.23
210.661	18.26
210.879	22.36
211.098	112.47
211.316	-4.27
211.535	53.08
211.753	38.74
211.972	-39.08
212.191	12.12
212.409	65.36
212.628	18.26
212.846	3.93
213.065	30.55
213.283	104.28
213.502	48.98
213.72	57.17
213.938	-18.6
214.157	-20.65
214.375	36.69
214.594	18.26
214.812	89.94
215.031	61.27
215.249	38.74
215.467	38.74
215.686	-34.99
215.904	10.07
216.122	30.55
216.341	55.12
216.559	51.03
216.778	79.7
216.996	63.32
217.214	71.51
217.432	34.64
217.651	36.69
217.869	-6.31
218.087	53.08
218.306	-26.79
218.524	-26.79
218.742	-6.31
218.96	-6.31
219.179	14.17
219.397	61.27
219.615	126.8
219.833	-8.36
220.051	55.12
220.27	59.22
220.488	34.64
220.706	36.69
220.924	-30.89
221.142	22.36
221.36	20.31
221.578	36.69
221.796	12.12
222.015	20.31
222.233	-16.55
222.451	44.88
222.669	14.17
222.887	28.5
223.105	30.55
223.323	12.12
223.541	34.64
223.759	126.8
223.977	20.31
224.195	18.26
224.413	59.22
224.631	-2.22
224.849	30.55
225.067	18.26
225.285	16.21
225.503	-53.42
225.721	-49.32
225.939	10.07
226.157	10.07
226.375	108.37
226.592	75.6
226.81	36.69
227.028	5.97
227.246	61.27
227.464	51.03
227.682	65.36
227.9	28.5
228.117	67.41
228.335	-20.65
228.553	26.45
228.771	3.93
228.989	30.55
229.206	42.84
229.424	16.21
229.642	12.12
229.86	-43.18
230.077	-57.51
230.295	28.5
230.513	104.28
230.731	38.74
230.948	34.64
231.166	87.89
231.384	-26.79
231.601	3.93
231.819	63.32
232.037	12.12
232.254	-14.51
232.472	-39.08
232.689	38.74
232.907	89.94
233.125	73.56
233.342	53.08
233.56	-14.51
233.777	18.26
233.995	42.84
234.213	61.27
234.43	63.32
234.648	75.6
234.865	79.7
235.083	22.36
235.3	57.17
235.518	57.17
235.735	83.8
235.953	46.93
236.17	28.5
236.388	20.31
236.605	-22.7
236.822	59.22
237.04	-2.22
237.257	104.28
237.475	59.22
237.692	28.5
237.909	22.36
238.127	14.17
238.344	18.26
238.562	3.93
238.779	-37.03
238.996	10.07
239.214	91.99
239.431	63.32
239.648	87.89
239.865	75.6
240.083	51.03
240.3	-10.41
240.517	59.22
240.735	71.51
240.952	59.22
241.169	55.12
241.386	-20.65
241.603	-6.31
241.821	53.08
242.038	89.94
242.255	-6.31
242.472	32.6
242.689	30.55
242.907	108.37
243.124	46.93
243.341	34.64
243.558	-2.22
243.775	20.31
243.992	-28.84
244.209	8.02
244.426	61.27
244.643	75.6
244.86	34.64
245.078	26.45
245.295	73.56
245.512	24.4
245.729	-51.37
245.946	34.64
246.163	16.21
246.38	-6.31
246.597	5.97
246.814	67.41
247.031	128.85
247.248	53.08
247.464	10.07
247.681	-39.08
247.898	53.08
248.115	24.4
248.332	3.93
248.549	-2.22
248.766	79.7
248.983	102.23
249.2	79.7
249.417	-37.03
249.633	-30.89
249.85	91.99
250.067	32.6
250.284	59.22
250.501	5.97
250.717	102.23
250.934	40.79
251.151	-14.51
251.368	-18.6
251.585	130.9
251.801	34.64
252.018	44.88
252.235	42.84
252.451	-22.7
252.668	44.88
252.885	71.51
253.102	75.6
253.318	53.08
253.535	1.88
253.752	-22.7
253.968	-22.7
254.185	-26.79
254.401	53.08
254.618	51.03
254.835	3.93
255.051	67.41
255.268	57.17
255.484	128.85
255.701	26.45
255.917	61.27
256.134	-67.75
256.351	128.85
256.567	-16.55
256.784	-12.46
257	-26.79
257.217	46.93
257.433	38.74
257.65	75.6
257.866	30.55
258.082	71.51
258.299	22.36
258.515	67.41
258.732	112.47
258.948	26.45
259.165	40.79
259.381	59.22
259.597	102.23
259.814	36.69
260.03	-57.51
260.246	26.45
260.463	-6.31
260.679	87.89
260.895	-30.89
261.112	10.07
261.328	14.17
261.544	-10.41
261.761	73.56
261.977	75.6
262.193	1.88
262.409	85.84
262.626	26.45
262.842	14.17
263.058	22.36
263.274	30.55
263.49	-22.7
263.707	1.88
263.923	55.12
264.139	-94.38
264.355	-28.84
264.571	-8.36
264.787	69.46
265.004	34.64
265.22	-37.03
265.436	-6.31
265.652	18.26
265.868	18.26
266.084	-0.17
266.3	26.45
266.516	-28.84
266.732	55.12
266.948	18.26
267.164	65.36
267.38	53.08
267.596	71.51
267.812	87.89
268.028	53.08
268.244	-10.41
268.46	-6.31
268.676	30.55
268.892	44.88
269.108	67.41
269.324	71.51
269.54	14.17
269.756	26.45
269.972	22.36
270.188	22.36
270.403	34.64
270.619	71.51
270.835	42.84
271.051	57.17
271.267	75.6
271.483	22.36
271.698	-0.17
271.914	51.03
272.13	30.55
272.346	18.26
272.562	79.7
272.777	44.88
272.993	30.55
273.209	28.5
273.425	-0.17
273.64	75.6
273.856	51.03
274.072	55.12
274.287	-16.55
274.503	46.93
274.719	-39.08
274.934	34.64
275.15	-2.22
275.366	-34.99
275.581	26.45
275.797	44.88
276.012	-28.84
276.228	26.45
276.444	46.93
276.659	53.08
276.875	5.97
277.09	-22.7
277.306	-14.51
277.521	59.22
277.737	26.45
277.952	110.42
278.168	61.27
278.383	67.41
278.599	-39.08
278.814	10.07
279.03	53.08
279.245	69.46
279.461	116.56
279.676	83.8
279.892	42.84
280.107	79.7
280.322	-26.79
280.538	51.03
280.753	-12.46
280.969	71.51
281.184	-4.27
281.399	141.14
281.615	20.31
281.83	-45.23
282.045	22.36
282.26	18.26
282.476	20.31
282.691	-6.31
282.906	51.03
283.122	28.5
283.337	-39.08
283.552	34.64
283.767	1.88
283.983	51.03
284.198	46.93
284.413	65.36
284.628	30.55
284.843	-22.7
285.058	-4.27
285.274	75.6
285.489	-63.66
285.704	106.32
285.919	30.55
286.134	34.64
286.349	-45.23
286.564	69.46
286.779	38.74
286.995	69.46
287.21	36.69
287.425	108.37
287.64	-6.31
287.855	36.69
288.07	-39.08
288.285	26.45
288.5	77.65
288.715	28.5
288.93	1.88
289.145	26.45
289.36	59.22
289.575	3.93
289.79	48.98
290.004	20.31
290.219	48.98
290.434	26.45
290.649	-61.61
290.864	8.02
291.079	63.32
291.294	18.26
291.509	98.13
291.724	44.88
291.938	67.41
292.153	48.98
292.368	14.17
292.583	-2.22
292.798	44.88
293.012	22.36
293.227	42.84
293.442	32.6
293.657	53.08
293.871	26.45
294.086	57.17
294.301	75.6
294.516	34.64
294.73	63.32
294.945	71.51
295.16	18.26
295.374	38.74
295.589	73.56
295.804	32.6
296.018	36.69
296.233	3.93
296.447	42.84
296.662	122.71
296.877	32.6
297.091	102.23
297.306	30.55
297.52	30.55
297.735	63.32
297.949	75.6
298.164	34.64
298.378	36.69
298.593	-37.03
298.807	-14.51
299.022	46.93
299.236	91.99
299.451	59.22
299.665	-43.18
299.88	-2.22
300.094	48.98
300.309	28.5
300.523	38.74
300.737	18.26
300.952	10.07
301.166	42.84
301.381	91.99
301.595	44.88
301.809	-14.51
302.024	67.41
302.238	53.08
302.452	30.55
302.667	10.07
302.881	126.8
303.095	10.07
303.309	53.08
303.524	30.55
303.738	-4.27
303.952	40.79
304.166	108.37
304.381	-14.51
304.595	12.12
304.809	34.64
305.023	94.04
305.237	28.5
305.452	46.93
305.666	26.45
305.88	34.64
306.094	20.31
306.308	77.65
306.522	-26.79
306.736	10.07
306.95	-20.65
307.164	18.26
307.379	91.99
307.593	100.18
307.807	81.75
308.021	3.93
308.235	83.8
308.449	51.03
308.663	85.84
308.877	36.69
309.091	48.98
309.305	112.47
309.519	14.17
309.733	124.76
309.947	-32.94
310.161	67.41
310.374	12.12
310.588	61.27
310.802	48.98
311.016	73.56
311.23	1.88
311.444	38.74
311.658	34.64
311.872	36.69
312.085	22.36
312.299	59.22
312.513	18.26
312.727	1.88
312.941	10.07
313.154	71.51
313.368	18.26
313.582	61.27
313.796	-20.65
314.009	-2.22
314.223	12.12
314.437	-6.31
314.651	69.46
314.864	36.69
315.078	-32.94
315.292	71.51
315.505	53.08
315.719	44.88
315.933	22.36
316.146	-6.31
316.36	-2.22
316.573	26.45
316.787	14.17
317.001	20.31
317.214	26.45
317.428	34.64
317.641	16.21
317.855	28.5
318.068	38.74
318.282	-12.46
318.495	89.94
318.709	53.08
318.922	-75.95
319.136	67.41
319.349	46.93
319.563	67.41
319.776	91.99
319.99	26.45
320.203	18.26
320.417	108.37
320.63	57.17
320.843	44.88
321.057	126.8
321.27	-2.22
321.483	100.18
321.697	102.23
321.91	-6.31
322.124	34.64
322.337	5.97
322.55	63.32
322.763	51.03
322.977	-10.41
323.19	5.97
323.403	61.27
323.617	53.08
323.83	94.04
324.043	-10.41
324.256	36.69
324.469	26.45
324.683	89.94
324.896	-4.27
325.109	46.93
325.322	10.07
325.535	77.65
325.748	30.55
325.962	85.84
326.175	77.65
326.388	16.21
326.601	-0.17
326.814	67.41
327.027	108.37
327.24	32.6
327.453	53.08
327.666	116.56
327.879	143.19
328.092	132.95
328.305	40.79
328.518	5.97
328.731	18.26
328.944	61.27
329.157	30.55
329.37	55.12
329.583	65.36
329.796	59.22
330.009	-2.22
330.222	22.36
330.435	81.75
330.648	67.41
330.861	75.6
331.073	75.6
331.286	44.88
331.499	77.65
331.712	79.7
331.925	30.55
332.138	61.27
332.35	71.51
332.563	-2.22
332.776	75.6
332.989	-2.22
333.202	38.74
333.414	65.36
333.627	91.99
333.84	-12.46
334.053	42.84
334.265	94.04
334.478	34.64
334.691	26.45
334.903	10.07
335.116	22.36
335.329	34.64
335.541	20.31
335.754	149.33
335.966	59.22
336.179	85.84
336.392	42.84
336.604	46.93
336.817	10.07
337.029	57.17
337.242	20.31
337.454	77.65
337.667	38.74
337.88	106.32
338.092	26.45
338.305	51.03
338.517	-55.47
338.729	48.98
338.942	44.88
339.154	26.45
339.367	48.98
339.579	12.12
339.792	3.93
340.004	75.6
340.217	-14.51
340.429	40.79
340.641	108.37
340.854	51.03
341.066	5.97
341.278	83.8
341.491	110.42
341.703	116.56
341.915	-37.03
342.128	30.55
342.34	96.08
342.552	28.5
342.764	59.22
342.977	89.94
343.189	137.04
343.401	42.84
343.613	55.12
343.826	83.8
344.038	3.93
344.25	100.18
344.462	71.51
344.674	63.32
344.886	22.36
345.099	36.69
345.311	69.46
345.523	42.84
345.735	-20.65
345.947	51.03
346.159	61.27
346.371	-28.84
346.583	-14.51
346.795	55.12
347.007	63.32
347.219	40.79
347.431	51.03
347.643	59.22
347.855	12.12
348.067	118.61
348.279	12.12
348.491	145.24
348.703	71.51
348.915	91.99
349.127	59.22
349.339	63.32
349.551	67.41
349.763	67.41
349.975	10.07
350.187	63.32
350.399	-2.22
350.61	112.47
350.822	55.12
351.034	59.22
351.246	26.45
351.458	83.8
351.669	67.41
351.881	59.22
352.093	5.97
352.305	24.4
352.517	85.84
352.728	59.22
352.94	89.94
353.152	73.56
353.363	-51.37
353.575	69.46
353.787	85.84
353.999	42.84
354.21	71.51
354.422	1.88
354.633	-12.46
354.845	-14.51
355.057	61.27
355.268	42.84
355.48	26.45
355.692	89.94
355.903	100.18
356.115	40.79
356.326	-6.31
356.538	112.47
356.749	28.5
356.961	61.27
357.172	67.41
357.384	51.03
357.595	48.98
357.807	104.28
358.018	-14.51
358.23	-10.41
358.441	91.99
358.653	108.37
358.864	-6.31
359.075	36.69
359.287	51.03
359.498	75.6
359.709	51.03
359.921	65.36
360.132	18.26
360.344	83.8
360.555	20.31
360.766	1.88
360.977	14.17
361.189	44.88
361.4	32.6
361.611	96.08
361.823	87.89
362.034	-10.41
362.245	22.36
362.456	-4.27
362.667	69.46
362.879	30.55
363.09	61.27
363.301	26.45
363.512	69.46
363.723	-6.31
363.935	30.55
364.146	67.41
364.357	96.08
364.568	-2.22
364.779	3.93
364.99	53.08
365.201	44.88
365.412	10.07
365.623	20.31
365.834	44.88
366.045	12.12
366.256	36.69
366.467	94.04
366.678	75.6
366.889	3.93
367.1	26.45
367.311	51.03
367.522	1.88
367.733	20.31
367.944	51.03
368.155	48.98
368.366	28.5
368.577	114.52
368.788	36.69
368.999	5.97
369.209	1.88
369.42	61.27
369.631	-37.03
369.842	59.22
370.053	53.08
370.264	34.64
370.474	91.99
370.685	126.8
370.896	-26.79
371.107	85.84
371.317	42.84
371.528	120.66
371.739	48.98
371.95	24.4
372.16	69.46
372.371	1.88
372.582	-0.17
372.792	10.07
373.003	114.52
373.214	73.56
373.424	-16.55
373.635	44.88
373.846	38.74
374.056	53.08
374.267	126.8
374.477	67.41
374.688	69.46
374.898	57.17
375.109	28.5
375.319	-30.89
375.53	139.09
375.74	83.8
375.951	18.26
376.161	38.74
376.372	26.45
376.582	30.55
376.793	81.75
377.003	-20.65
377.214	20.31
377.424	5.97
377.635	-22.7
377.845	40.79
378.055	14.17
378.266	38.74
378.476	69.46
378.686	55.12
378.897	20.31
379.107	44.88
379.317	18.26
379.528	100.18
379.738	18.26
379.948	42.84
380.158	67.41
380.369	51.03
380.579	10.07
380.789	-14.51
380.999	124.76
381.21	100.18
381.42	67.41
381.63	100.18
381.84	65.36
382.05	126.8
382.261	104.28
382.471	5.97
382.681	59.22
382.891	126.8
383.101	24.4
383.311	63.32
383.521	-24.75
383.731	69.46
383.941	26.45
384.151	112.47
384.361	120.66
384.571	83.8
384.781	53.08
384.991	61.27
385.201	100.18
385.411	116.56
385.621	34.64
385.831	5.97
386.041	71.51
386.251	-28.84
386.461	104.28
386.671	51.03
386.881	51.03
387.091	22.36
387.301	124.76
387.511	48.98
387.72	83.8
387.93	85.84
388.14	51.03
388.35	5.97
388.56	42.84
388.769	87.89
388.979	83.8
389.189	69.46
389.399	126.8
389.609	-0.17
389.818	44.88
390.028	18.26
390.238	67.41
390.447	75.6
390.657	34.64
390.867	71.51
391.076	32.6
391.286	-4.27
391.496	116.56
391.705	75.6
391.915	102.23
392.125	51.03
392.334	22.36
392.544	116.56
392.753	79.7
392.963	36.69
393.172	61.27
393.382	8.02
393.591	81.75
393.801	51.03
394.01	126.8
394.22	100.18
394.429	81.75
394.639	24.4
394.848	77.65
395.058	55.12
395.267	26.45
395.477	98.13
395.686	118.61
395.895	137.04
396.105	124.76
396.314	32.6
396.524	69.46
396.733	69.46
396.942	165.71
397.152	67.41
397.361	59.22
397.57	85.84
397.78	96.08
397.989	42.84
398.198	130.9
398.407	96.08
398.617	63.32
398.826	98.13
399.035	83.8
399.244	71.51
399.453	112.47
399.663	73.56
399.872	77.65
400.081	100.18
400.29	28.5
400.499	20.31
400.708	137.04
400.917	112.47
401.127	96.08
401.336	102.23
401.545	124.76
401.754	83.8
401.963	135
402.172	69.46
402.381	128.85
402.59	63.32
402.799	137.04
403.008	69.46
403.217	79.7
403.426	184.15
403.635	94.04
403.844	149.33
404.053	100.18
404.262	149.33
404.471	108.37
404.68	114.52
404.888	161.62
405.097	173.91
405.306	141.14
405.515	91.99
405.724	169.81
405.933	126.8
406.142	155.47
406.35	67.41
406.559	225.11
406.768	165.71
406.977	218.96
407.185	165.71
407.394	157.52
407.603	141.14
407.812	223.06
408.02	227.15
408.229	239.44
408.438	137.04
408.646	178
408.855	186.19
409.064	184.15
409.272	169.81
409.481	325.46
409.69	243.54
409.898	296.78
410.107	212.82
410.315	292.69
410.524	266.07
410.733	317.26
410.941	300.88
411.15	366.42
411.358	282.45
411.567	364.37
411.775	276.31
411.984	341.84
412.192	407.38
412.401	458.57
412.609	425.81
412.818	528.21
413.026	347.98
413.234	380.75
413.443	464.72
413.651	436.05
413.86	446.29
414.068	497.49
414.276	526.16
414.485	470.86
414.693	520.01
414.901	577.36
415.11	624.46
415.318	583.5
415.526	593.74
415.734	624.46
415.943	689.99
416.151	689.99
416.359	644.94
416.567	689.99
416.776	749.39
416.984	730.95
417.192	890.7
417.4	788.3
417.608	718.67
417.817	796.49
418.025	851.78
418.233	931.66
418.441	945.99
418.649	1013.57
418.857	1025.86
419.065	1118.02
419.273	1013.57
419.481	1083.2
419.689	1216.32
419.897	1220.42
420.105	1154.88
420.313	1304.39
420.521	1283.91
420.729	1302.34
420.937	1417.02
421.145	1406.78
421.353	1562.43
421.561	1541.95
421.769	1648.44
421.977	1713.98
422.185	1627.96
422.393	1808.19
422.601	1912.63
422.809	1888.06
423.017	1886.01
423.224	1873.72
423.432	1978.17
423.64	2002.74
423.848	2221.88
424.056	2131.76
424.263	2344.75
424.471	2250.55
424.679	2469.68
424.887	2463.54
425.094	2567.98
425.302	2682.67
425.51	2674.48
425.718	2844.46
425.925	2836.27
426.133	2856.75
426.341	3196.71
426.548	3163.94
426.756	3233.57
426.964	3176.23
427.171	3421.99
427.379	3483.42
427.586	3634.97
427.794	3563.29
428.001	3884.83
428.209	3962.65
428.417	4030.23
428.624	4081.43
428.832	4245.27
429.039	4237.08
429.247	4142.87
429.454	4710.16
429.662	4921.1
429.869	4642.57
430.076	4818.7
430.284	4744.97
430.491	4966.15
430.699	5207.81
430.906	5322.5
431.114	5361.41
431.321	5590.78
431.528	5478.15
431.736	6035.19
431.943	6276.85
432.15	6113.02
432.358	6070.01
432.565	6412.02
432.772	6524.66
432.979	6751.98
433.187	6893.29
433.394	7003.88
433.601	7194.34
433.808	7296.74
434.016	7460.58
434.223	7653.09
434.43	8230.62
434.637	7870.17
434.844	8652.5
435.052	8703.7
435.259	8744.66
435.466	8668.88
435.673	8552.15
435.88	9078.47
436.087	9434.82
436.294	9533.12
436.501	9373.38
436.708	9615.04
436.915	9897.66
437.122	10397.37
437.329	10161.85
437.537	10544.82
437.743	10659.51
437.95	10800.82
438.157	11294.38
438.364	11499.17
438.571	11548.33
438.778	11779.75
438.985	12744.34
439.192	12056.22
439.399	12660.37
439.606	12445.34
439.813	13088.4
440.02	13876.87
440.227	13575.81
440.433	13354.63
440.64	13782.66
440.847	13893.25
441.054	14225.02
441.261	15058.54
441.467	14892.66
441.674	14980.72
441.881	15767.14
442.088	15607.4
442.294	15498.86
442.501	16004.71
442.708	16303.71
442.914	16713.3
443.121	17387.08
443.328	17077.84
443.534	18257.47
443.741	17919.56
443.948	17638.98
444.154	19062.32
444.361	18488.89
444.568	18837.05
444.774	18720.31
444.981	19025.46
445.187	19822.12
445.394	20270.62
445.6	20170.27
445.807	22152.71
446.013	21108.24
446.22	21431.82
446.426	22015.49
446.633	22375.94
446.839	23084.53
447.046	22242.82
447.252	23270.9
447.459	23496.17
447.665	23348.72
447.871	24458.72
448.078	26004.94
448.284	24180.2
448.491	25079.25
448.697	26222.02
448.903	26465.73
449.11	26645.95
449.316	25880.01
449.522	26768.83
449.728	27200.95
449.935	27403.7
450.141	27334.07
450.347	28013.99
450.553	27237.81
450.76	27387.32
450.966	28745.12
451.172	28065.19
451.378	28695.97
451.584	28523.94
451.791	28992.92
451.997	29072.79
452.203	29353.37
452.409	29431.19
452.615	29490.58
452.821	27983.27
453.027	27907.5
453.233	29564.31
453.44	28190.12
453.646	28771.74
453.852	28898.72
454.058	29326.74
454.264	27985.32
454.47	29062.55
454.676	28450.21
454.882	29611.41
455.088	26756.54
455.294	27553.2
455.5	27764.14
455.705	27960.75
455.911	26738.11
456.117	26521.02
456.323	25949.64
456.529	24626.65
456.735	25744.84
456.941	25230.8
457.147	24884.7
457.352	24202.72
457.558	23592.43
457.764	23803.37
457.97	23420.4
458.176	22728.19
458.381	23285.23
458.587	21599.76
458.793	21995.01
458.999	20899.35
459.204	22169.09
459.41	21743.11
459.616	20123.17
459.821	20061.73
460.027	20125.22
460.233	19459.63
460.438	18800.18
460.644	18910.77
460.85	18005.57
461.055	17849.92
461.261	17788.49
461.466	16600.66
461.672	15910.5
461.878	17251.92
462.083	15832.68
462.289	15427.18
462.494	15332.97
462.7	14642.81
462.905	14634.61
463.111	14919.28
463.316	14794.36
463.522	14532.22
463.727	14331.51
463.932	14386.81
464.138	14323.32
464.343	14290.56
464.549	14083.71
464.754	14696.05
464.959	14304.89
465.165	14296.7
465.37	13835.91
465.575	13274.76
465.781	13782.66
465.986	13776.52
466.191	13325.96
466.397	13100.69
466.602	12557.97
466.807	12797.59
467.012	12906.13
467.218	12793.49
467.423	12478.1
467.628	12592.79
467.833	13221.52
468.038	12721.81
468.244	12562.07
468.449	13010.57
468.654	12435.1
468.859	12201.63
469.064	12185.24
469.269	11980.45
469.474	11916.96
469.679	12064.41
469.885	11736.74
470.09	11929.25
470.295	11904.67
470.5	11771.55
470.705	11792.03
470.91	11476.65
471.115	11374.25
471.32	11413.16
471.525	11511.46
471.73	11302.57
471.935	11097.77
472.139	10831.54
472.344	11083.44
472.549	10782.38
472.754	10587.83
472.959	10434.23
473.164	10241.72
473.369	10149.56
473.574	10491.57
473.778	10346.17
473.983	10358.46
474.188	10243.77
474.393	9660.1
474.598	9846.46
474.802	9762.5
475.007	9815.74
475.212	9623.23
475.417	9342.66
475.621	9324.23
475.826	9217.74
476.031	9187.02
476.235	9209.54
476.44	9277.13
476.645	8933.07
476.849	8980.17
477.054	8738.51
477.259	8718.03
477.463	8718.03
477.668	8586.96
477.872	8625.87
478.077	8566.48
478.282	8226.52
478.486	8224.47
478.691	8136.41
478.895	8126.17
479.1	8154.84
479.304	8171.22
479.509	7866.08
479.713	7931.61
479.918	8152.79
480.122	7677.66
480.326	7724.77
480.531	7775.97
480.735	7577.31
480.94	7571.17
481.144	7882.46
481.348	7538.4
481.553	7618.27
481.757	7526.11
481.961	7622.37
482.166	7579.36
482.37	7546.59
482.574	7376.61
482.778	7560.93
482.983	7677.66
483.187	7462.63
483.391	7550.69
483.595	7483.11
483.8	7313.13
484.004	7515.87
484.208	7595.75
484.412	7325.41
484.616	7276.26
484.821	7386.85
485.025	7180.01
485.229	7530.21
485.433	7409.38
485.637	7444.2
485.841	7415.52
486.045	7390.95
486.249	7306.98
486.453	7573.22
486.657	7597.79
486.861	7395.04
487.065	7077.61
487.269	7423.72
487.473	7427.81
487.677	7331.56
487.881	7558.88
488.085	7454.44
488.289	7427.81
488.493	7642.85
488.697	7620.32
488.901	7464.68
489.105	7331.56
489.309	7550.69
489.512	7481.06
489.716	7499.49
489.92	7644.9
490.124	7442.15
490.328	7677.66
490.531	7675.62
490.735	7603.94
490.939	7710.43
491.143	7677.66
491.346	7638.75
491.55	7909.08
491.754	7616.23
491.958	7784.16
492.161	7651.04
492.365	7745.25
492.569	7829.21
492.772	7816.93
492.976	7923.42
493.18	8027.87
493.383	8034.01
493.587	8064.73
493.79	8034.01
493.994	8132.31
494.197	8296.15
494.401	8179.42
494.605	8271.58
494.808	8316.63
495.012	8369.88
495.215	8183.51
495.419	8414.93
495.622	8539.86
495.825	8517.33
496.029	8691.41
496.232	8900.3
496.436	8859.34
496.639	8869.58
496.843	9004.75
497.046	9119.43
497.249	9060.04
497.453	9184.97
497.656	9195.21
497.859	9270.98
498.063	9326.28
498.266	9643.71
498.469	9520.84
498.673	9545.41
498.876	9844.42
499.079	9780.93
499.282	9877.18
499.485	10139.32
499.689	10122.94
499.892	10411.7
500.095	10370.74
500.298	10634.93
500.501	10507.96
500.705	10892.98
500.908	11005.61
501.111	10954.41
501.314	11128.49
501.517	11151.02
501.72	11505.32
501.923	11566.76
502.126	11355.82
502.329	11671.2
502.532	11736.74
502.735	11847.33
502.938	11882.14
503.141	12078.75
503.344	12170.91
503.547	12232.35
503.75	12572.31
503.953	12570.26
504.156	13049.49
504.359	12830.35
504.562	12752.53
504.765	13166.22
504.968	13446.79
505.17	13672.07
505.373	13454.98
505.576	13627.01
505.779	13934.21
505.982	14102.14
506.185	14306.94
506.387	14167.68
506.59	14231.16
506.793	14771.83
506.996	14567.03
507.198	15033.97
507.401	14872.18
507.604	15048.3
507.807	15560.3
508.009	15312.49
508.212	15646.31
508.415	15746.66
508.617	15836.77
508.82	15945.31
509.022	15916.64
509.225	16625.24
509.428	16643.67
509.63	16731.73
509.833	16576.09
510.035	17239.63
510.238	16914
510.44	17385.04
510.643	17591.88
510.845	17641.03
511.048	17548.87
511.25	17987.14
511.453	18058.82
511.655	18785.85
511.858	18535.99
512.06	18824.76
512.262	18708.02
512.465	18783.8
512.667	19289.65
512.87	19293.74
513.072	19418.67
513.274	19578.41
513.477	19994.15
513.679	19963.43
513.881	20035.11
514.084	20626.97
514.286	20479.52
514.488	20557.34
514.69	21024.28
514.893	21284.37
515.095	21427.73
515.297	21718.54
515.499	21487.12
515.701	21779.98
515.904	22298.11
516.106	22197.76
516.308	22433.28
516.51	22502.91
516.712	22699.51
516.914	22834.68
517.116	23389.68
517.318	23356.91
517.52	23563.76
517.722	23627.24
517.925	24042.98
518.127	24108.52
518.329	24370.66
518.531	24192.48
518.733	24657.37
518.935	25062.87
519.136	24888.79
519.338	25325.01
519.54	25566.67
519.742	25769.42
519.944	25734.6
520.146	26211.78
520.348	26406.34
520.55	26535.36
520.752	26574.27
520.954	27252.15
521.155	26813.88
521.357	27497.91
521.559	27502
521.761	27786.67
521.963	27463.09
522.164	27745.71
522.366	27893.16
522.568	28347.81
522.77	28216.74
522.971	28765.6
523.173	28714.4
523.375	29035.93
523.576	28845.47
523.778	29191.58
523.98	29316.5
524.181	29418.9
524.383	29638.03
524.584	29771.15
524.786	29918.6
524.988	29924.75
525.189	30143.88
525.391	30782.85
525.592	30563.71
525.794	30801.28
525.995	30625.15
526.197	30692.74
526.398	30815.62
526.6	31145.34
526.801	31176.06
527.003	31427.96
527.204	31405.43
527.406	31860.08
527.607	31696.24
527.808	31829.36
528.01	31509.88
528.211	31860.08
528.412	32453.99
528.614	31896.94
528.815	32429.41
529.016	32449.89
529.218	32226.67
529.419	32161.13
529.62	32568.68
529.822	32453.99
530.023	32726.37
530.224	32380.26
530.425	32720.23
530.626	32466.28
530.828	32519.53
531.029	32986.46
531.23	32800.1
531.431	32652.64
531.632	32601.44
531.833	33258.84
532.035	33060.19
532.236	32793.95
532.437	33549.65
532.638	32734.56
532.839	32906.59
533.04	33090.91
533.241	32882.02
533.442	33389.91
533.643	33344.86
533.844	33170.78
534.045	33264.99
534.246	33389.91
534.447	33621.33
534.648	33172.83
534.849	33371.48
535.05	33076.57
535.251	33351
535.451	33027.42
535.652	33473.88
535.853	33297.75
536.054	33234.27
536.255	33656.15
536.456	33183.07
536.657	33742.16
536.857	33312.09
537.058	33228.12
537.259	33318.23
537.46	33666.39
537.66	33344.86
537.861	33310.04
538.062	33432.92
538.263	33492.31
538.463	33434.97
538.664	33162.59
538.865	33611.09
539.065	33379.67
539.266	33162.59
539.466	33662.29
539.667	32877.92
539.868	33391.96
540.068	33387.86
540.269	33262.94
540.469	33455.45
540.67	33625.43
540.87	33351
541.071	33271.13
541.271	33500.5
541.472	33367.38
541.672	32996.7
541.873	33181.02
542.073	32875.87
542.274	33432.92
542.474	33232.22
542.675	33002.85
542.875	33559.89
543.075	33293.66
543.276	32949.6
543.476	33527.13
543.676	33195.35
543.877	33004.89
544.077	33281.37
544.277	32965.98
544.478	32914.78
544.678	33099.1
544.878	32673.12
545.078	32937.31
545.279	32746.85
545.479	32935.26
545.679	32832.86
545.879	32785.76
546.079	33285.47
546.28	32587.11
546.48	32757.09
546.68	32968.03
546.88	33027.42
547.08	33166.68
547.28	32879.97
547.48	32783.71
547.68	32734.56
547.88	32572.77
548.081	32888.16
548.281	32724.32
548.481	32488.81
548.681	33035.61
548.881	32699.75
549.081	32791.9
549.28	32597.35
549.48	32875.87
549.68	32793.95
549.88	32863.58
550.08	32540
550.28	32683.36
550.48	32578.92
550.68	32595.3
550.88	32742.75
551.08	32583.01
551.279	32765.28
551.479	32468.33
551.679	32703.84
551.879	32540
552.079	32650.6
552.278	32720.23
552.478	32863.58
552.678	32535.91
552.878	32566.63
553.077	32306.54
553.277	32277.86
553.477	32781.67
553.676	32175.47
553.876	32562.53
554.076	32122.22
554.275	32306.54
554.475	32023.92
554.674	32427.37
554.874	32367.98
555.074	32030.06
555.273	32560.48
555.473	32234.86
555.672	32087.4
555.872	32357.74
556.071	32292.2
556.271	32281.96
556.47	31880.56
556.67	31896.94
556.869	32175.47
557.068	31915.37
557.268	32044.4
557.467	32109.93
557.667	32038.25
557.866	31876.46
558.065	31726.96
558.265	31548.79
558.464	31677.81
558.663	31915.37
558.863	31358.33
559.062	31806.83
559.261	31135.1
559.461	31790.45
559.66	31038.84
559.859	31401.33
560.058	31262.07
560.258	31565.17
560.457	31327.61
560.656	31481.2
560.855	30827.9
561.054	31645.04
561.253	30645.63
561.453	31155.58
561.652	31083.9
561.851	31186.3
562.05	31055.23
562.249	31022.46
562.448	30956.92
562.647	31034.75
562.846	31075.71
563.045	30856.57
563.244	30459.27
563.443	31012.22
563.642	30305.67
563.841	30797.18
564.04	30416.26
564.239	30942.59
564.438	30256.52
564.637	30451.08
564.836	30387.59
565.035	30336.39
565.234	30227.85
565.432	30055.82
565.631	30104.97
565.83	30066.06
566.029	29896.08
566.228	29894.03
566.427	29963.66
566.625	29715.86
566.824	29066.65
567.023	29818.25
567.222	29115.8
567.42	29687.18
567.619	29603.22
567.818	29330.84
568.016	29572.5
568.215	29689.23
568.414	29523.35
568.612	29257.11
568.811	29379.99
569.01	29271.45
569.208	28927.39
569.407	28945.82
569.605	28931.48
569.804	29185.43
570.002	28700.06
570.201	28880.28
570.4	28736.93
570.598	28722.59
570.797	28601.76
570.995	28663.2
571.193	28173.74
571.392	28868
571.59	28372.39
571.789	28452.26
571.987	28288.42
572.186	28392.87
572.384	27958.7
572.582	28155.3
572.781	27938.22
572.979	27581.87
573.177	27913.64
573.376	28186.02
573.574	27647.41
573.772	27561.39
573.971	27575.73
574.169	27203
574.367	27399.6
574.565	27207.09
574.763	27397.56
574.962	27172.28
575.16	27071.93
575.358	27555.25
575.556	26994.11
575.754	27133.37
575.952	26973.63
576.151	26822.08
576.349	26863.04
576.547	26623.42
576.745	26863.04
576.943	26738.11
577.141	26691.01
577.339	26467.78
577.537	26453.44
577.735	26400.19
577.933	26465.73
578.131	26766.78
578.329	26181.06
578.527	26336.71
578.725	25953.74
578.923	26279.36
579.121	25976.26
579.319	26070.47
579.516	26047.94
579.714	25906.63
579.912	25710.03
580.11	25583.05
580.308	25544.14
580.506	25382.35
580.704	24853.98
580.901	25550.29
581.099	25345.49
581.297	25169.37
581.495	25370.07
581.692	25519.57
581.89	24907.23
582.088	25243.09
582.285	25060.82
582.483	25195.99
582.681	25142.74
582.878	24960.47
583.076	24798.68
583.274	24860.12
583.471	24677.85
583.669	24479.2
583.866	24085.99
584.064	24554.97
584.262	24067.56
584.459	24552.93
584.657	24124.9
584.854	24374.75
585.052	23789.03
585.249	24200.68
585.447	24143.33
585.644	23899.62
585.841	23750.12
586.039	24370.66
586.236	23584.24
586.434	23655.92
586.631	23774.7
586.828	23526.89
587.026	23711.21
587.223	23594.48
587.42	23487.98
587.618	23358.96
587.815	23205.36
588.012	22879.74
588.21	22789.63
588.407	23752.17
588.604	22808.06
588.801	22840.82
588.999	22957.56
589.196	22849.02
589.393	22838.78
589.59	22511.1
589.787	22619.64
589.984	22683.13
590.182	22306.3
590.379	22599.16
590.576	22390.27
590.773	22074.88
590.97	22287.87
591.167	22398.46
591.364	21855.75
591.561	22126.08
591.758	21859.85
591.955	22238.72
592.152	21845.51
592.349	21945.86
592.546	21982.73
592.743	21933.57
592.94	21415.44
593.137	21681.67
593.334	21859.85
593.531	21382.67
593.727	21237.27
593.924	21552.65
594.121	21077.52
594.318	21562.89
594.515	20674.07
594.712	21145.11
594.908	21177.87
595.105	21200.4
595.302	20901.4
595.499	21243.41
595.696	20842.01
595.892	20780.57
596.089	20583.96
596.286	20774.42
596.482	20557.34
596.679	20459.04
596.876	20495.9
597.072	20362.78
597.269	20354.59
597.466	20141.6
597.662	20297.25
597.859	20379.17
598.055	20248.1
598.252	20225.57
598.448	20096.55
598.645	19928.61
598.841	19906.09
599.038	19928.61
599.234	19695.14
599.431	19551.79
599.627	19535.4
599.824	19957.28
600.02	19592.75
600.217	19721.77
600.413	19369.52
600.609	19420.72
600.806	19334.7
601.002	19445.29
601.198	18996.79
601.395	19181.1
601.591	19093.04
601.787	19123.76
601.984	18935.35
602.18	19043.89
602.376	18890.29
602.572	18742.84
602.769	18871.86
602.965	18495.04
603.161	18738.74
603.357	18628.15
603.553	18708.02
603.75	18501.18
603.946	18280
604.142	18351.68
604.338	18150.98
604.534	18067.01
604.73	18048.58
604.926	18056.77
605.122	18253.37
605.318	17952.32
605.514	17929.8
605.71	17835.59
605.906	18001.47
606.102	17806.92
606.298	17815.11
606.494	17872.45
606.69	17655.37
606.886	17821.25
607.082	17851.97
607.278	17743.43
607.474	17270.35
607.67	17419.85
607.866	17180.24
608.062	17567.31
608.257	17202.77
608.453	17210.96
608.649	17677.9
608.845	17077.84
609.041	17006.16
609.236	17065.55
609.432	17086.03
609.628	17200.72
609.824	17030.74
610.019	16997.97
610.215	17059.41
610.411	17073.74
610.606	17004.11
610.802	17049.17
610.998	16862.8
611.193	17219.15
611.389	16746.07
611.584	16676.44
611.78	16774.74
611.976	16645.72
612.171	16715.35
612.367	16543.32
612.562	16506.46
612.758	16576.09
612.953	16504.41
613.149	16731.73
613.344	16189.02
613.539	16490.07
613.735	16397.92
613.93	16696.92
614.126	16246.37
614.321	16477.79
614.517	16328.28
614.712	16209.5
614.907	16272.99
615.103	16395.87
615.298	15713.89
615.493	16285.28
615.688	15828.58
615.884	16143.97
616.079	16066.14
616.274	16055.9
616.47	15898.21
616.665	15822.44
616.86	15674.98
617.055	16139.87
617.25	15693.41
617.445	15992.42
617.641	15644.26
617.836	15742.57
618.031	15332.97
618.226	15570.54
618.421	15476.33
618.616	15472.23
618.811	15554.15
619.006	15550.06
619.201	15203.95
619.396	15335.02
619.591	15238.76
619.786	15308.4
619.981	14939.76
620.176	14939.76
620.371	14945.91
620.566	14833.27
620.761	14902.9
620.956	14798.45
621.151	14765.68
621.346	14884.47
621.541	14462.58
621.735	14599.8
621.93	14265.98
622.125	14390.91
622.32	14073.47
622.515	14222.97
622.709	14243.45
622.904	14296.7
623.099	14026.37
623.294	14014.08
623.488	13862.53
623.683	13911.68
623.878	13387.4
624.072	13831.81
624.267	13584.01
624.462	13670.02
624.656	13356.68
624.851	13440.65
625.046	13395.59
625.24	13246.09
625.435	13160.08
625.629	13354.63
625.824	13215.37
626.018	13192.84
626.213	12701.33
626.407	12998.29
626.602	12762.77
626.796	12576.41
626.991	12738.19
627.185	12660.37
627.38	12459.67
627.574	12408.47
627.768	12402.33
627.963	12138.14
628.157	12113.56
628.352	12248.73
628.546	11951.77
628.74	12162.72
628.935	12035.74
629.129	11896.48
629.323	11919.01
629.517	11871.9
629.712	11824.8
629.906	11679.4
630.1	11620
630.294	11660.96
630.489	11454.12
630.683	11380.39
630.877	11300.52
631.071	11323.05
631.265	11267.75
631.459	11191.98
631.653	11251.37
631.848	11105.96
632.042	10940.08
632.236	10874.54
632.43	10827.44
632.624	10892.98
632.818	10929.84
633.012	10694.32
633.206	10636.98
633.4	10702.51
633.594	10585.78
633.788	10493.62
633.982	10546.87
634.176	10505.91
634.369	10243.77
634.563	10192.57
634.757	10360.5
634.951	10290.87
635.145	10161.85
635.339	10254.01
635.533	10165.95
635.726	10094.27
635.92	10012.35
636.114	9932.48
636.308	9684.67
636.501	9844.42
636.695	9989.82
636.889	9688.77
637.083	9565.89
637.276	9610.95
637.47	9469.64
637.664	9498.31
637.857	9365.19
638.051	9428.68
638.244	9203.4
638.438	9207.5
638.632	9537.22
638.825	9184.97
639.019	9053.9
639.212	9088.71
639.406	9180.87
639.599	8992.46
639.793	9109.19
639.986	8978.12
640.18	8894.16
640.373	8951.5
640.567	8814.29
640.76	8783.57
640.954	8603.35
641.147	8722.13
641.34	8646.35
641.534	8703.7
641.727	8548.05
641.92	8457.94
642.114	8308.44
642.307	8468.18
642.5	8365.78
642.694	8171.22
642.887	8173.27
643.08	8203.99
643.273	8122.07
643.467	8134.36
643.66	7952.09
643.853	7882.46
644.046	8034.01
644.239	7880.41
644.432	7902.94
644.626	7896.8
644.819	7786.21
645.012	7730.91
645.205	7808.73
645.398	7780.06
645.591	7456.48
645.784	7780.06
645.977	7640.8
646.17	7491.3
646.363	7378.66
646.556	7261.93
646.749	7460.58
646.942	7386.85
647.135	7403.24
647.328	7386.85
647.521	7292.65
647.714	7024.36
647.907	7225.06
648.099	7278.31
648.292	7311.08
648.485	7126.76
648.678	7108.33
648.871	7018.22
649.064	7237.35
649.256	7038.7
649.449	6754.03
649.642	6924.01
649.835	6756.08
650.027	6860.52
650.22	6702.83
650.413	6723.31
650.605	6743.79
650.798	6665.97
650.991	6582
651.183	6711.02
651.376	6473.46
651.568	6573.81
651.761	6344.44
651.954	6690.54
652.146	6426.36
652.339	6430.45
652.531	6369.01
652.724	6379.25
652.916	6311.67
653.109	6326
653.301	6188.79
653.494	6178.55
653.686	6076.15
653.879	6237.94
654.071	6149.88
654.263	6055.67
654.456	6170.36
654.648	6098.68
654.84	5910.27
655.033	5912.32
655.225	5697.28
655.417	5822.2
655.61	6031.1
655.802	5926.65
655.994	5848.83
656.186	5811.96
656.379	5787.39
656.571	5713.66
656.763	5836.54
656.955	5687.04
657.148	5693.18
657.34	5611.26
657.532	5486.34
657.724	5525.25
657.916	5543.68
658.108	5408.51
658.3	5510.91
658.492	5340.93
658.684	5449.47
658.876	5365.51
659.068	5269.25
659.26	5385.99
659.452	5304.07
659.644	5469.95
659.836	5011.21
660.028	5361.41
660.22	5150.47
660.412	5228.29
660.604	5121.8
660.796	5244.68
660.988	5238.53
661.18	5007.11
661.372	5056.26
661.563	5125.9
661.755	4980.49
661.947	5091.08
662.139	4972.3
662.331	4865.8
662.522	4747.02
662.714	4837.13
662.906	4851.47
663.097	4794.12
663.289	4759.31
663.481	4695.82
663.673	4773.64
663.864	4677.39
664.056	4730.64
664.247	4828.94
664.439	4591.38
664.631	4669.2
664.822	4650.77
665.014	4572.94
665.205	4368.15
665.397	4499.22
665.588	4474.64
665.78	4450.07
665.971	4564.75
666.163	4421.39
666.354	4384.53
666.546	4396.82
666.737	4380.43
666.929	4251.41
667.12	4411.15
667.311	4345.62
667.503	4245.27
667.694	4376.34
667.885	4249.36
668.077	4284.18
668.268	4212.5
668.459	4347.67
668.651	4261.65
668.842	4177.69
669.033	4153.11
669.224	4032.28
669.416	4237.08
669.607	4007.7
669.798	4073.24
669.989	4155.16
670.18	3915.55
670.371	3999.51
670.563	3860.25
670.754	3987.22
670.945	3952.41
671.136	3995.42
671.327	3886.87
671.518	3876.63
671.709	3927.83
671.9	3985.18
672.091	3929.88
672.282	3661.6
672.473	3933.98
672.664	3895.07
672.855	3729.18
673.046	3948.31
673.237	3811.1
673.428	3749.66
673.619	3800.86
673.809	3706.65
674	3698.46
674.191	3729.18
674.382	3655.45
674.573	3811.1
674.764	3700.51
674.954	3651.36
675.145	3624.73
675.336	3516.19
675.527	3675.93
675.717	3600.16
675.908	3526.43
676.099	3663.65
676.289	3559.2
676.48	3444.51
676.671	3354.4
676.861	3589.92
677.052	3544.86
677.243	3596.06
677.433	3467.04
677.624	3532.58
677.814	3421.99
678.005	3508
678.195	3475.23
678.386	3409.7
678.576	3286.82
678.767	3393.31
678.957	3344.16
679.148	3450.66
679.338	3475.23
679.529	3329.83
679.719	3446.56
679.909	3499.81
680.1	3421.99
680.29	3368.74
680.481	3327.78
680.671	3249.96
680.861	3284.77
681.052	3266.34
681.242	3360.55
681.432	3219.24
681.622	3266.34
681.813	3110.69
682.003	3311.39
682.193	3188.52
682.383	3098.41
682.573	3278.63
682.764	3165.99
682.954	3186.47
683.144	3211.04
683.334	3206.95
683.524	3284.77
683.714	3086.12
683.904	3100.45
684.094	3149.61
684.284	3090.21
684.474	3317.54
684.664	3182.37
684.854	3182.37
685.044	3110.69
685.234	3125.03
685.424	3182.37
685.614	3047.21
685.804	3176.23
685.994	3149.61
686.184	3073.83
686.374	3073.83
686.564	3006.25
686.753	3077.93
686.943	3049.25
687.133	2950.95
687.323	2996.01
687.513	3122.98
687.702	2942.76
687.892	2967.34
688.082	2846.51
688.272	2963.24
688.461	2967.34
688.651	2948.9
688.841	2930.47
689.03	2909.99
689.22	2823.98
689.41	2928.42
689.599	2840.36
689.789	2813.74
689.979	2871.08
690.168	2764.59
690.358	2727.72
690.547	2713.39
690.737	2778.92
690.926	2666.28
691.116	2760.49
691.305	2692.91
691.495	2768.68
691.684	2717.48
691.874	2742.06
692.063	2670.38
692.252	2682.67
692.442	2715.44
692.631	2457.39
692.82	2631.47
693.01	2647.85
693.199	2631.47
693.388	2572.08
693.578	2690.86
693.767	2635.57
693.956	2627.37
694.146	2500.4
694.335	2527.02
694.524	2553.65
694.713	2629.42
694.902	2541.36
695.092	2484.02
695.281	2518.83
695.47	2586.41
695.659	2549.55
695.848	2477.87
696.037	2627.37
696.226	2533.17
696.415	2398
696.604	2598.7
696.793	2537.26
696.982	2516.78
697.171	2453.3
697.36	2561.84
697.549	2375.47
697.738	2426.67
697.927	2447.15
698.116	2289.46
698.305	2426.67
698.494	2354.99
698.683	2412.34
698.872	2393.9
699.061	2359.09
699.25	2291.51
699.438	2350.9
699.627	2287.41
699.816	2338.61
700.005	2342.71
700.193	2412.34
700.382	2451.25
700.571	2287.41
700.76	2320.18
700.948	2332.47
701.137	2320.18
701.326	2330.42
701.514	2375.47
701.703	2354.99
701.892	2305.84
702.08	2352.95
702.269	2187.06
702.457	2426.67
702.646	2279.22
702.834	2395.95
703.023	2389.81
703.212	2189.11
703.4	2182.96
703.589	2250.55
703.777	2328.37
703.965	2246.45
704.154	2295.6
704.342	2322.23
704.531	2230.07
704.719	2223.92
704.907	2365.23
705.096	2201.4
705.284	2180.92
705.472	2275.12
705.661	2094.9
705.849	2246.45
706.037	2185.01
706.226	2199.35
706.414	2254.64
706.602	2142
706.79	2144.05
706.979	2133.81
707.167	2152.24
707.355	2068.28
707.543	2254.64
707.731	2156.34
707.919	2090.81
708.107	2225.97
708.296	2139.96
708.484	2099
708.672	2199.35
708.86	2164.53
709.048	2125.62
709.236	2148.15
709.424	2158.39
709.612	2199.35
709.8	2176.82
709.988	2148.15
710.176	2142
710.364	2185.01
710.551	2182.96
710.739	2074.42
710.927	2215.73
711.115	2150.2
711.303	2156.34
711.491	2137.91
711.679	2215.73
711.866	2207.54
712.054	2121.52
712.242	2131.76
712.43	2107.19
712.617	2066.23
712.805	2191.16
712.993	2156.34
713.181	2037.56
713.368	2086.71
713.556	2062.13
713.744	2123.57
713.931	2090.81
714.119	2037.56
714.306	2172.72
714.494	2076.47
714.682	2055.99
714.869	2058.04
715.057	2025.27
715.244	2035.51
715.432	2185.01
715.619	2070.33
715.807	2133.81
715.994	2082.61
716.182	1978.17
716.369	2113.33
716.556	2058.04
716.744	2070.33
716.931	2109.24
717.119	1974.07
717.306	2027.32
717.493	2139.96
717.681	2115.38
717.868	2105.14
718.055	2131.76
718.242	2174.77
718.43	2025.27
718.617	2058.04
718.804	2055.99
718.991	2144.05
719.179	2107.19
719.366	1984.31
719.553	2076.47
719.74	2035.51
719.927	2074.42
720.114	2049.85
720.301	1912.63
720.488	2023.22
720.676	2008.89
720.863	1984.31
721.05	2012.98
721.237	1992.5
721.424	2060.09
721.611	2099
721.798	2078.52
721.985	2025.27
722.172	1986.36
722.358	1976.12
722.545	2000.69
722.732	1978.17
722.919	1959.74
723.106	1875.77
723.293	1935.16
723.48	2115.38
723.667	2019.13
723.853	1918.78
724.04	1896.25
724.227	2000.69
724.414	1984.31
724.6	1976.12
724.787	1892.15
724.974	2047.8
725.161	1910.58
725.347	1918.78
725.534	2025.27
725.72	1986.36
725.907	1976.12
726.094	1996.6
726.28	1865.53
726.467	1853.24
726.653	1929.02
726.84	1914.68
727.027	1967.93
727.213	1951.54
727.4	2012.98
727.586	1943.35
727.773	1886.01
727.959	1857.34
728.145	1912.63
728.332	1951.54
728.518	2002.74
728.705	1931.06
728.891	1879.86
729.077	1976.12
729.264	1828.67
729.45	1861.43
729.636	1875.77
729.823	1963.83
730.009	1996.6
730.195	1916.73
730.382	2029.37
730.568	1972.02
730.754	1904.44
730.94	2002.74
731.126	1838.91
731.313	1957.69
731.499	1967.93
731.685	1951.54
731.871	1914.68
732.057	1914.68
732.243	2025.27
732.429	1859.38
732.615	2033.46
732.801	1945.4
732.987	1984.31
733.173	1978.17
733.359	1857.34
733.545	1904.44
733.731	1920.82
733.917	1857.34
734.103	1974.07
734.289	1951.54
734.475	1838.91
734.661	1967.93
734.847	1951.54
735.033	1881.91
735.219	1900.34
735.404	1787.71
735.59	1879.86
735.776	1910.58
735.962	1871.67
736.148	1904.44
736.333	1914.68
736.519	1779.51
736.705	1992.5
736.89	1853.24
737.076	1771.32
737.262	1861.43
737.447	1802.04
737.633	1886.01
737.819	1795.9
738.004	1969.98
738.19	1935.16
738.375	1916.73
738.561	1871.67
738.747	1888.06
738.932	1818.43
739.118	1877.82
739.303	1713.98
739.489	1773.37
739.674	1730.36
739.859	1781.56
740.045	1943.35
740.23	1779.51
740.416	1738.55
740.601	1754.94
740.786	1779.51
740.972	1673.02
741.157	1756.99
741.342	1722.17
741.528	1851.19
741.713	1668.92
741.898	1746.75
742.084	1623.87
742.269	1738.55
742.454	1771.32
742.639	1656.64
742.824	1713.98
743.01	1746.75
743.195	1722.17
743.38	1722.17
743.565	1664.83
743.75	1718.08
743.935	1660.73
744.12	1613.63
744.305	1601.34
744.49	1681.21
744.675	1527.61
744.86	1599.29
745.045	1652.54
745.23	1709.88
745.415	1754.94
745.6	1537.85
745.785	1630.01
745.97	1556.29
746.155	1601.34
746.34	1636.16
746.525	1572.67
746.71	1607.48
746.895	1552.19
747.079	1451.84
747.264	1470.27
747.449	1632.06
747.634	1601.34
747.819	1517.37
748.003	1525.57
748.188	1455.94
748.373	1472.32
748.557	1500.99
748.742	1441.6
748.927	1443.65
749.111	1462.08
749.296	1490.75
749.481	1431.36
749.665	1427.26
749.85	1349.44
750.034	1443.65
750.219	1406.78
750.404	1386.3
750.588	1376.06
750.773	1290.05
750.957	1369.92
751.141	1347.39
751.326	1261.38
751.51	1410.88
751.695	1337.15
751.879	1285.95
752.064	1273.67
752.248	1324.87
752.432	1341.25
752.617	1302.34
752.801	1279.81
752.985	1210.18
753.17	1222.47
753.354	1339.2
753.538	1216.32
753.722	1179.46
753.907	1181.51
754.091	1105.73
754.275	1158.98
754.459	1158.98
754.643	1167.17
754.828	1238.85
755.012	1156.93
755.196	1208.13
755.38	1079.11
755.564	1095.49
755.748	1136.45
755.932	1197.89
756.116	1056.58
756.3	1169.22
756.484	1066.82
756.668	1095.49
756.852	1083.2
757.036	984.9
757.22	1011.53
757.404	1001.29
757.588	1156.93
757.772	991.05
757.956	1011.53
758.14	1011.53
758.323	968.52
758.507	1085.25
758.691	1005.38
758.875	1052.49
759.059	993.09
759.242	993.09
759.426	880.46
759.61	989
759.794	1029.96
759.977	968.52
760.161	1075.01
760.345	943.94
760.528	982.85
760.712	952.13
760.895	952.13
761.079	849.74
761.263	878.41
761.446	931.66
761.63	898.89
761.813	907.08
761.997	837.45
762.18	833.35
762.364	1042.25
762.547	859.98
762.731	896.84
762.914	913.22
763.098	857.93
763.281	821.06
763.464	870.22
763.648	821.06
763.831	821.06
764.015	804.68
764.198	837.45
764.381	833.35
764.564	902.98
764.748	831.3
764.931	894.79
765.114	880.46
765.297	837.45
765.481	759.63
765.664	845.64
765.847	825.16
766.03	868.17
766.213	710.47
766.397	821.06
766.58	747.34
766.763	905.03
766.946	778.06
767.129	800.59
767.312	739.15
767.495	718.67
767.678	814.92
767.861	761.67
768.044	794.44
768.227	745.29
768.41	808.78
768.593	806.73
768.776	757.58
768.959	681.8
769.142	837.45
769.324	743.24
769.507	726.86
769.69	724.81
769.873	704.33
770.056	790.35
770.239	739.15
770.421	753.48
770.604	657.23
770.787	716.62
770.97	649.04
771.152	636.75
771.335	661.32
771.518	720.71
771.7	769.87
771.883	698.19
772.066	739.15
772.248	685.9
772.431	677.71
772.613	661.32
772.796	722.76
772.978	597.84
773.161	659.28
773.343	640.84
773.526	573.26
773.708	558.92
773.891	515.92
774.073	610.12
774.256	610.12
774.438	667.47
774.621	618.32
774.803	606.03
774.985	632.65
775.168	610.12
775.35	542.54
775.532	616.27
775.715	544.59
775.897	544.59
776.079	550.73
776.261	550.73
776.444	630.6
776.626	546.64
776.808	532.3
776.99	442.19
777.173	612.17
777.355	589.64
777.537	583.5
777.719	618.32
777.901	554.83
778.083	517.97
778.265	522.06
778.447	560.97
778.629	497.49
778.811	501.58
778.993	481.1
779.175	567.12
779.357	446.29
779.539	501.58
779.721	526.16
779.903	528.21
780.085	438.09
780.267	563.02
780.449	468.81
780.631	477.01
780.812	468.81
780.994	493.39
781.176	526.16
781.358	511.82
781.54	397.14
781.721	393.04
781.903	505.68
782.085	411.47
782.267	442.19
782.448	464.72
782.63	481.1
782.812	481.1
782.993	372.56
783.175	411.47
783.357	456.53
783.538	440.14
783.72	452.43
783.901	425.81
784.083	477.01
784.264	472.91
784.446	352.08
784.627	266.07
784.809	444.24
784.99	345.94
785.172	421.71
785.353	444.24
785.535	370.51
785.716	423.76
785.897	313.17
786.079	399.18
786.26	321.36
786.441	298.83
786.623	337.74
786.804	362.32
786.985	339.79
787.167	329.55
787.348	337.74
787.529	321.36
787.71	319.31
787.891	304.98
788.073	350.03
788.254	345.94
788.435	364.37
788.616	307.02
788.797	231.25
788.978	290.64
789.159	315.22
789.34	370.51
789.522	323.41
789.703	294.74
789.884	307.02
790.065	323.41
790.246	286.54
790.427	309.07
790.607	323.41
790.788	370.51
790.969	268.11
791.15	341.84
791.331	315.22
791.512	202.58
791.693	251.73
791.874	307.02
792.054	362.32
792.235	280.4
792.416	231.25
792.597	206.67
792.778	341.84
792.958	388.94
793.139	247.63
793.32	255.83
793.5	218.96
793.681	331.6
793.862	298.83
794.042	296.78
794.223	157.52
794.404	354.13
794.584	173.91
794.765	255.83
794.945	245.59
795.126	304.98
795.306	282.45
795.487	259.92
795.667	206.67
795.848	231.25
796.028	200.53
796.209	139.09
796.389	210.77
796.57	266.07
796.75	223.06
796.93	280.4
797.111	167.76
797.291	255.83
797.471	266.07
797.652	261.97
797.832	137.04
798.012	331.6
798.192	239.44
798.373	165.71
798.553	175.95
798.733	192.34
798.913	161.62
799.093	235.35
799.274	276.31
799.454	307.02
799.634	253.78
799.814	280.4
799.994	304.98
800.174	196.43
800.354	184.15
800.534	182.1
800.714	235.35
800.894	167.76
801.074	63.32
801.254	190.29
801.434	206.67
801.614	208.72
801.794	112.47
801.974	776.01
802.154	175.95
802.334	173.91
802.514	169.81
802.693	155.47
802.873	184.15
803.053	227.15
803.233	137.04
803.413	135
803.592	173.91
803.772	173.91
803.952	151.38
804.131	165.71
804.311	173.91
804.491	212.82
804.67	143.19
804.85	141.14
805.03	114.52
805.209	223.06
805.389	202.58
805.568	85.84
805.748	85.84
805.928	110.42
806.107	153.43
806.287	184.15
806.466	159.57
806.646	167.76
806.825	94.04
807.004	157.52
807.184	141.14
807.363	190.29
807.543	192.34
807.722	188.24
807.901	178
808.081	112.47
808.26	116.56
808.439	159.57
808.619	141.14
808.798	184.15
808.977	124.76
809.156	184.15
809.336	151.38
809.515	167.76
809.694	75.6
809.873	145.24
810.052	128.85
810.231	108.37
810.411	108.37
810.59	194.39
810.769	130.9
810.948	206.67
811.127	57.17
811.306	151.38
811.485	102.23
811.664	149.33
811.843	128.85
812.022	157.52
812.201	128.85
812.38	122.71
812.559	104.28
812.737	173.91
812.916	124.76
813.095	91.99
813.274	61.27
813.453	104.28
813.632	169.81
813.811	141.14
813.989	89.94
814.168	104.28
814.347	61.27
814.526	141.14
814.704	57.17
814.883	116.56
815.062	124.76
815.24	184.15
815.419	112.47
815.598	202.58
815.776	75.6
815.955	124.76
816.133	118.61
816.312	69.46
816.49	53.08
816.669	149.33
816.847	71.51
817.026	137.04
817.204	124.76
817.383	137.04
817.561	143.19
817.74	100.18
817.918	51.03
818.097	96.08
818.275	85.84
818.453	151.38
818.632	153.43
818.81	151.38
818.988	91.99
819.167	116.56
819.345	85.84
819.523	102.23
819.701	135
819.879	147.28
820.058	65.36
820.236	198.48
820.414	100.18
820.592	157.52
820.77	63.32
820.948	108.37
821.127	94.04
821.305	141.14
821.483	63.32
821.661	100.18
821.839	94.04
822.017	104.28
822.195	61.27
822.373	157.52
822.551	165.71
822.729	83.8
822.907	159.57
823.085	100.18
823.262	91.99
823.44	61.27
823.618	55.12
823.796	83.8
823.974	53.08
824.152	100.18
824.329	116.56
824.507	55.12
824.685	116.56
824.863	57.17
825.04	149.33
825.218	1.88
825.396	40.79
825.574	44.88
825.751	116.56
825.929	28.5
826.107	91.99
826.284	79.7
826.462	59.22
826.639	42.84
826.817	112.47
826.994	128.85
827.172	75.6
827.349	118.61
827.527	108.37
827.704	83.8
827.882	71.51
828.059	71.51
828.237	100.18
828.414	83.8
828.591	67.41
828.769	20.31
828.946	42.84
829.124	63.32
829.301	61.27
829.478	83.8
829.655	75.6
829.833	77.65
830.01	38.74
830.187	57.17
830.364	108.37
830.542	173.91
830.719	91.99
830.896	83.8
831.073	26.45
831.25	100.18
831.427	67.41
831.604	122.71
831.782	96.08
831.959	38.74
832.136	8.02
832.313	87.89
832.49	108.37
832.667	18.26
832.844	63.32
833.021	40.79
833.198	79.7
833.374	67.41
833.551	32.6
833.728	120.66
833.905	149.33
834.082	46.93
834.259	89.94
834.436	116.56
834.612	55.12
834.789	91.99
834.966	73.56
835.143	157.52
835.319	69.46
835.496	114.52
835.673	26.45
835.85	71.51
836.026	55.12
836.203	118.61
836.38	34.64
836.556	67.41
836.733	59.22
836.909	44.88
837.086	69.46
837.262	59.22
837.439	26.45
837.616	100.18
837.792	30.55
837.968	112.47
838.145	-32.94
838.321	94.04
838.498	36.69
838.674	106.32
838.851	-28.84
839.027	22.36
839.203	94.04
839.38	30.55
839.556	42.84
839.732	34.64
839.909	106.32
840.085	85.84
840.261	18.26
840.437	59.22
840.614	42.84
840.79	63.32
840.966	46.93
841.142	75.6
841.318	28.5
841.494	67.41
841.671	110.42
841.847	24.4
842.023	36.69
842.199	69.46
842.375	104.28
842.551	38.74
842.727	18.26
842.903	102.23
843.079	-53.42
843.255	63.32
843.431	18.26
843.607	-30.89
843.783	28.5
843.959	108.37
844.134	104.28
844.31	112.47
844.486	26.45
844.662	28.5
844.838	51.03
845.013	73.56
845.189	91.99
845.365	108.37
845.541	34.64
845.716	67.41
845.892	53.08
846.068	28.5
846.244	-18.6
846.419	18.26
846.595	26.45
846.77	16.21
846.946	102.23
847.122	42.84
847.297	-8.36
847.473	102.23
847.648	34.64
847.824	169.81
847.999	46.93
848.175	124.76
848.35	24.4
848.526	36.69
848.701	55.12
848.876	75.6
849.052	69.46
849.227	-12.46
849.403	18.26
849.578	-26.79
849.753	42.84
849.929	42.84
850.104	18.26
850.279	18.26
850.454	-0.17
850.63	-88.23
850.805	51.03
850.98	106.32
851.155	-20.65
851.33	57.17
851.505	-6.31
851.681	5.97
851.856	-53.42
852.031	110.42
852.206	20.31
852.381	73.56
852.556	-39.08
852.731	137.04
852.906	83.8
853.081	26.45
853.256	83.8
853.431	71.51
853.606	28.5
853.781	10.07
853.956	46.93
854.131	34.64
854.305	30.55
854.48	-0.17
854.655	124.76
854.83	12.12
855.005	71.51
855.18	110.42
855.354	48.98
855.529	5.97
855.704	1.88
855.879	5.97
856.053	-14.51
856.228	-2.22
856.403	12.12
856.577	26.45
856.752	-6.31
856.926	22.36
857.101	59.22
857.276	-47.27
857.45	26.45
857.625	10.07
857.799	157.52
857.974	55.12
858.148	-20.65
858.323	42.84
858.497	42.84
858.672	53.08
858.846	-24.75
859.02	81.75
859.195	-18.6
859.369	20.31
859.543	-18.6
859.718	61.27
859.892	34.64
860.066	75.6
860.241	-45.23
860.415	-39.08
860.589	77.65
860.763	51.03
860.938	18.26
861.112	46.93
861.286	-8.36
861.46	-22.7
861.634	44.88
861.808	26.45
861.982	22.36
862.157	34.64
862.331	-6.31
862.505	14.17
862.679	63.32
862.853	46.93
863.027	10.07
863.201	85.84
863.375	38.74
863.549	18.26
863.722	26.45
863.896	75.6
864.07	16.21
864.244	28.5
864.418	3.93
864.592	30.55
864.766	63.32
864.939	10.07
865.113	1.88
865.287	14.17
865.461	-63.66
865.634	20.31
865.808	-34.99
865.982	32.6
866.156	16.21
866.329	14.17
866.503	83.8
866.676	20.31
866.85	53.08
867.024	51.03
867.197	34.64
867.371	59.22
867.544	51.03
867.718	-32.94
867.891	77.65
868.065	10.07
868.238	51.03
868.412	1.88
868.585	40.79
868.759	14.17
868.932	28.5
869.105	-12.46
869.279	34.64
869.452	-20.65
869.625	69.46
869.799	22.36
869.972	-20.65
870.145	46.93
870.319	38.74
870.492	18.26
870.665	-6.31
870.838	38.74
871.011	44.88
871.185	-69.8
871.358	34.64
871.531	-6.31
871.704	-12.46
871.877	46.93
872.05	-30.89
872.223	-6.31
872.396	34.64
872.569	10.07
872.742	-12.46
872.915	18.26
873.088	5.97
873.261	51.03
873.434	-12.46
873.607	20.31
873.78	91.99
873.953	20.31
874.126	16.21
874.299	46.93
874.471	-39.08
874.644	16.21
874.817	34.64
874.99	77.65
875.163	28.5
875.335	46.93
875.508	-8.36
875.681	77.65
875.853	20.31
876.026	40.79
876.199	44.88
876.371	83.8
876.544	-75.95
876.717	-14.51
876.889	-4.27
877.062	42.84
877.234	-24.75
877.407	26.45
877.579	1.88
877.752	-0.17
877.924	-8.36
878.097	44.88
878.269	-4.27
878.442	38.74
878.614	-24.75
878.786	71.51
878.959	65.36
879.131	10.07
879.303	-125.1
879.476	-30.89
879.648	28.5
879.82	46.93
879.993	-20.65
880.165	-71.85
880.337	14.17
880.509	10.07
880.681	-30.89
880.854	53.08
881.026	-45.23
881.198	61.27
881.37	98.13
881.542	-14.51
881.714	-10.41
881.886	55.12
882.058	38.74
882.23	22.36
882.402	-20.65
882.574	24.4
882.746	26.45
882.918	20.31
883.09	26.45
883.262	-20.65
883.434	10.07
883.606	-16.55
883.778	48.98
883.95	91.99
884.122	28.5
884.293	36.69
884.465	18.26
884.637	100.18
884.809	38.74
884.98	69.46
885.152	-24.75
885.324	-28.84
885.496	24.4
885.667	89.94
885.839	28.5
886.011	96.08
886.182	75.6
886.354	42.84
886.525	20.31
886.697	-22.7
886.869	-22.7
887.04	24.4
887.212	-16.55
887.383	61.27
887.555	26.45
887.726	-6.31
887.897	30.55
888.069	12.12
888.24	46.93
888.412	51.03
888.583	-71.85
888.754	-6.31
888.926	1.88
889.097	3.93
889.268	-14.51
889.44	18.26
889.611	-63.66
889.782	-20.65
889.953	-32.94
890.125	36.69
890.296	36.69
890.467	10.07
890.638	-55.47
890.809	12.12
890.98	26.45
891.151	1.88
891.323	3.93
891.494	-39.08
891.665	10.07
891.836	-2.22
892.007	8.02
892.178	85.84
892.349	-26.79
892.52	10.07
892.691	-4.27
892.862	8.02
893.032	-12.46
893.203	5.97
893.374	-26.79
893.545	116.56
893.716	26.45
893.887	36.69
894.057	51.03
894.228	46.93
894.399	59.22
894.57	91.99
894.74	-16.55
894.911	-4.27
895.082	-59.56
895.253	-45.23
895.423	67.41
895.594	28.5
895.764	1.88
895.935	-49.32
896.106	42.84
896.276	67.41
896.447	42.84
896.617	51.03
896.788	-63.66
896.958	24.4
897.129	-28.84
897.299	-20.65
897.47	-2.22
897.64	28.5
897.81	-59.56
897.981	14.17
898.151	-22.7
898.322	5.97
898.492	-18.6
898.662	42.84
898.832	12.12
899.003	18.26
899.173	59.22
899.343	10.07
899.513	1.88
