Data from USB4F104151__18__14-16-08-580.txt Node

Date: Thu Mar 13 14:16:08 EDT 2025
User: louis
Spectrometer: USB4F10415
Trigger mode: 4
Integration Time (sec): 2.000000E-2
Scans to average: 1
Electric dark correction enabled: true
Nonlinearity correction enabled: false
Boxcar width: 0
XAxis mode: Wavelengths
Number of Pixels in Spectrum: 3648
>>>>>Begin Spectral Data<<<<<
178.204	-33.28
178.424	-33.28
178.644	-33.28
178.864	-29.18
179.084	-107.01
179.304	24.06
179.524	-43.52
179.744	-0.51
179.964	17.92
180.184	13.82
180.404	24.06
180.624	-18.94
180.844	62.98
181.064	-88.57
181.283	-0.51
181.503	-41.47
181.723	50.69
181.943	-66.05
182.163	52.74
182.383	65.02
182.602	26.11
182.822	15.87
183.042	-18.94
183.262	38.4
183.482	32.26
183.701	-2.56
183.921	118.27
184.141	-6.66
184.361	140.8
184.58	40.45
184.8	56.83
185.02	-6.66
185.239	103.93
185.459	116.22
185.679	105.98
185.898	-59.9
186.118	73.21
186.338	1.54
186.557	87.55
186.777	65.02
186.997	71.17
187.216	87.55
187.436	48.64
187.655	89.6
187.875	71.17
188.095	40.45
188.314	73.21
188.534	15.87
188.753	46.59
188.973	32.26
189.192	87.55
189.412	48.64
189.631	67.07
189.851	-23.04
190.07	75.26
190.29	73.21
190.509	58.88
190.729	-31.23
190.948	-23.04
191.168	108.03
191.387	36.35
191.607	-47.62
191.826	5.63
192.045	62.98
192.265	30.21
192.484	5.63
192.704	48.64
192.923	52.74
193.142	54.78
193.362	40.45
193.581	134.65
193.8	50.69
194.02	95.74
194.239	97.79
194.458	62.98
194.678	-2.56
194.897	69.12
195.116	46.59
195.335	95.74
195.555	56.83
195.774	87.55
195.993	42.5
196.212	-0.51
196.432	-23.04
196.651	1.54
196.87	32.26
197.089	114.17
197.308	30.21
197.528	11.78
197.747	1.54
197.966	-35.33
198.185	28.16
198.404	120.32
198.623	48.64
198.842	48.64
199.062	87.55
199.281	19.97
199.5	30.21
199.719	103.93
199.938	44.54
200.157	62.98
200.376	97.79
200.595	24.06
200.814	19.97
201.033	48.64
201.252	77.31
201.471	-6.66
201.69	30.21
201.909	19.97
202.128	48.64
202.347	93.69
202.566	73.21
202.785	-43.52
203.004	44.54
203.223	144.89
203.442	65.02
203.661	32.26
203.879	22.02
204.098	103.93
204.317	34.3
204.536	22.02
204.755	38.4
204.974	75.26
205.193	54.78
205.411	79.36
205.63	95.74
205.849	79.36
206.068	-10.75
206.287	69.12
206.505	52.74
206.724	42.5
206.943	71.17
207.162	26.11
207.381	42.5
207.599	7.68
207.818	24.06
208.037	-35.33
208.255	46.59
208.474	58.88
208.693	30.21
208.911	54.78
209.13	73.21
209.349	54.78
209.567	17.92
209.786	73.21
210.005	36.35
210.223	32.26
210.442	62.98
210.661	-2.56
210.879	-10.75
211.098	93.69
211.316	32.26
211.535	91.65
211.753	42.5
211.972	22.02
212.191	1.54
212.409	15.87
212.628	42.5
212.846	9.73
213.065	-10.75
213.283	15.87
213.502	38.4
213.72	77.31
213.938	-0.51
214.157	1.54
214.375	71.17
214.594	50.69
214.812	69.12
215.031	-23.04
215.249	1.54
215.467	26.11
215.686	69.12
215.904	54.78
216.122	32.26
216.341	71.17
216.559	-4.61
216.778	56.83
216.996	56.83
217.214	38.4
217.432	-107.01
217.651	19.97
217.869	67.07
218.087	62.98
218.306	5.63
218.524	38.4
218.742	67.07
218.96	13.82
219.179	30.21
219.397	-18.94
219.615	87.55
219.833	26.11
220.051	54.78
220.27	44.54
220.488	42.5
220.706	85.5
220.924	79.36
221.142	-23.04
221.36	-41.47
221.578	48.64
221.796	97.79
222.015	38.4
222.233	-29.18
222.451	89.6
222.669	54.78
222.887	79.36
223.105	58.88
223.323	62.98
223.541	5.63
223.759	134.65
223.977	-84.48
224.195	34.3
224.413	24.06
224.631	11.78
224.849	114.17
225.067	110.08
225.285	26.11
225.503	13.82
225.721	28.16
225.939	-2.56
226.157	24.06
226.375	62.98
226.592	26.11
226.81	-14.85
227.028	77.31
227.246	89.6
227.464	38.4
227.682	48.64
227.9	-27.14
228.117	58.88
228.335	62.98
228.553	36.35
228.771	42.5
228.989	40.45
229.206	91.65
229.424	32.26
229.642	-12.8
229.86	42.5
230.077	75.26
230.295	-0.51
230.513	13.82
230.731	30.21
230.948	52.74
231.166	108.03
231.384	91.65
231.601	69.12
231.819	73.21
232.037	-2.56
232.254	17.92
232.472	108.03
232.689	52.74
232.907	-14.85
233.125	44.54
233.342	22.02
233.56	22.02
233.777	-10.75
233.995	-10.75
234.213	97.79
234.43	13.82
234.648	36.35
234.865	54.78
235.083	120.32
235.3	75.26
235.518	3.58
235.735	67.07
235.953	40.45
236.17	99.84
236.388	7.68
236.605	120.32
236.822	79.36
237.04	-6.66
237.257	116.22
237.475	-47.62
237.692	32.26
237.909	40.45
238.127	48.64
238.344	95.74
238.562	-4.61
238.779	38.4
238.996	36.35
239.214	46.59
239.431	19.97
239.648	9.73
239.865	136.7
240.083	58.88
240.3	32.26
240.517	62.98
240.735	-43.52
240.952	95.74
241.169	71.17
241.386	13.82
241.603	22.02
241.821	-14.85
242.038	56.83
242.255	-16.9
242.472	91.65
242.689	105.98
242.907	-2.56
243.124	56.83
243.341	95.74
243.558	67.07
243.775	30.21
243.992	36.35
244.209	-12.8
244.426	42.5
244.643	54.78
244.86	-14.85
245.078	7.68
245.295	7.68
245.512	67.07
245.729	62.98
245.946	91.65
246.163	30.21
246.38	56.83
246.597	-6.66
246.814	38.4
247.031	62.98
247.248	26.11
247.464	40.45
247.681	42.5
247.898	38.4
248.115	54.78
248.332	-16.9
248.549	87.55
248.766	62.98
248.983	136.7
249.2	-31.23
249.417	42.5
249.633	-6.66
249.85	71.17
250.067	103.93
250.284	40.45
250.501	38.4
250.717	48.64
250.934	-0.51
251.151	-2.56
251.368	132.61
251.585	30.21
251.801	60.93
252.018	44.54
252.235	89.6
252.451	-0.51
252.668	1.54
252.885	30.21
253.102	54.78
253.318	5.63
253.535	-25.09
253.752	26.11
253.968	40.45
254.185	-43.52
254.401	22.02
254.618	65.02
254.835	15.87
255.051	36.35
255.268	93.69
255.484	-14.85
255.701	-8.7
255.917	173.57
256.134	-2.56
256.351	83.45
256.567	9.73
256.784	65.02
257	30.21
257.217	30.21
257.433	30.21
257.65	22.02
257.866	-82.43
258.082	5.63
258.299	1.54
258.515	48.64
258.732	13.82
258.948	-43.52
259.165	19.97
259.381	-31.23
259.597	87.55
259.814	58.88
260.03	-29.18
260.246	71.17
260.463	62.98
260.679	54.78
260.895	71.17
261.112	56.83
261.328	-23.04
261.544	-0.51
261.761	112.13
261.977	50.69
262.193	5.63
262.409	24.06
262.626	65.02
262.842	71.17
263.058	62.98
263.274	5.63
263.49	-0.51
263.707	103.93
263.923	54.78
264.139	40.45
264.355	15.87
264.571	85.5
264.787	77.31
265.004	24.06
265.22	69.12
265.436	44.54
265.652	89.6
265.868	46.59
266.084	32.26
266.3	75.26
266.516	-43.52
266.732	62.98
266.948	-35.33
267.164	34.3
267.38	93.69
267.596	89.6
267.812	32.26
268.028	105.98
268.244	89.6
268.46	183.81
268.676	28.16
268.892	116.22
269.108	30.21
269.324	1.54
269.54	13.82
269.756	32.26
269.972	42.5
270.188	-23.04
270.403	38.4
270.619	69.12
270.835	1.54
271.051	-6.66
271.267	38.4
271.483	13.82
271.698	130.56
271.914	22.02
272.13	28.16
272.346	81.41
272.562	5.63
272.777	30.21
272.993	77.31
273.209	-47.62
273.425	103.93
273.64	42.5
273.856	54.78
274.072	1.54
274.287	50.69
274.503	95.74
274.719	56.83
274.934	110.08
275.15	34.3
275.366	13.82
275.581	38.4
275.797	24.06
276.012	5.63
276.228	38.4
276.444	81.41
276.659	17.92
276.875	-49.66
277.09	130.56
277.306	87.55
277.521	146.94
277.737	7.68
277.952	15.87
278.168	13.82
278.383	87.55
278.599	52.74
278.814	75.26
279.03	38.4
279.245	56.83
279.461	-23.04
279.676	40.45
279.892	-23.04
280.107	60.93
280.322	11.78
280.538	22.02
280.753	-6.66
280.969	71.17
281.184	50.69
281.399	26.11
281.615	-10.75
281.83	1.54
282.045	50.69
282.26	-14.85
282.476	34.3
282.691	128.51
282.906	75.26
283.122	97.79
283.337	-4.61
283.552	95.74
283.767	34.3
283.983	5.63
284.198	46.59
284.413	54.78
284.628	1.54
284.843	7.68
285.058	89.6
285.274	52.74
285.489	26.11
285.704	54.78
285.919	65.02
286.134	114.17
286.349	42.5
286.564	73.21
286.779	65.02
286.995	85.5
287.21	1.54
287.425	73.21
287.64	15.87
287.855	9.73
288.07	38.4
288.285	-18.94
288.5	83.45
288.715	165.37
288.93	9.73
289.145	28.16
289.36	40.45
289.575	-4.61
289.79	71.17
290.004	118.27
290.219	5.63
290.434	79.36
290.649	32.26
290.864	52.74
291.079	-31.23
291.294	91.65
291.509	36.35
291.724	103.93
291.938	-10.75
292.153	48.64
292.368	48.64
292.583	56.83
292.798	48.64
293.012	58.88
293.227	65.02
293.442	-31.23
293.657	38.4
293.871	62.98
294.086	26.11
294.301	46.59
294.516	122.37
294.73	17.92
294.945	-2.56
295.16	54.78
295.374	71.17
295.589	62.98
295.804	54.78
296.018	-23.04
296.233	56.83
296.447	17.92
296.662	91.65
296.877	112.13
297.091	71.17
297.306	56.83
297.52	79.36
297.735	58.88
297.949	15.87
298.164	9.73
298.378	103.93
298.593	22.02
298.807	15.87
299.022	71.17
299.236	105.98
299.451	97.79
299.665	-53.76
299.88	65.02
300.094	93.69
300.309	32.26
300.523	112.13
300.737	54.78
300.952	46.59
301.166	81.41
301.381	46.59
301.595	-2.56
301.809	73.21
302.024	-18.94
302.238	5.63
302.452	101.89
302.667	19.97
302.881	22.02
303.095	112.13
303.309	13.82
303.524	44.54
303.738	105.98
303.952	-53.76
304.166	89.6
304.381	7.68
304.595	103.93
304.809	5.63
305.023	54.78
305.237	19.97
305.452	7.68
305.666	95.74
305.88	97.79
306.094	95.74
306.308	130.56
306.522	-29.18
306.736	58.88
306.95	-0.51
307.164	79.36
307.379	103.93
307.593	62.98
307.807	95.74
308.021	75.26
308.235	103.93
308.449	46.59
308.663	118.27
308.877	97.79
309.091	67.07
309.305	67.07
309.519	-23.04
309.733	73.21
309.947	-2.56
310.161	122.37
310.374	24.06
310.588	81.41
310.802	-12.8
311.016	38.4
311.23	67.07
311.444	13.82
311.658	30.21
311.872	122.37
312.085	24.06
312.299	71.17
312.513	128.51
312.727	62.98
312.941	71.17
313.154	116.22
313.368	65.02
313.582	50.69
313.796	40.45
314.009	34.3
314.223	34.3
314.437	24.06
314.651	79.36
314.864	83.45
315.078	75.26
315.292	-45.57
315.505	7.68
315.719	32.26
315.933	108.03
316.146	-18.94
316.36	95.74
316.573	67.07
316.787	46.59
317.001	1.54
317.214	-25.09
317.428	77.31
317.641	56.83
317.855	71.17
318.068	87.55
318.282	-10.75
318.495	67.07
318.709	65.02
318.922	62.98
319.136	38.4
319.349	79.36
319.563	79.36
319.776	73.21
319.99	-16.9
320.203	71.17
320.417	-12.8
320.63	44.54
320.843	73.21
321.057	48.64
321.27	62.98
321.483	50.69
321.697	-10.75
321.91	13.82
322.124	56.83
322.337	114.17
322.55	42.5
322.763	95.74
322.977	56.83
323.19	89.6
323.403	144.89
323.617	38.4
323.83	-18.94
324.043	-37.38
324.256	56.83
324.469	69.12
324.683	108.03
324.896	17.92
325.109	50.69
325.322	32.26
325.535	52.74
325.748	-51.71
325.962	38.4
326.175	62.98
326.388	79.36
326.601	103.93
326.814	108.03
327.027	22.02
327.24	65.02
327.453	-2.56
327.666	42.5
327.879	67.07
328.092	65.02
328.305	24.06
328.518	54.78
328.731	62.98
328.944	93.69
329.157	11.78
329.37	73.21
329.583	75.26
329.796	122.37
330.009	-23.04
330.222	28.16
330.435	81.41
330.648	87.55
330.861	28.16
331.073	38.4
331.286	128.51
331.499	65.02
331.712	5.63
331.925	81.41
332.138	54.78
332.35	79.36
332.563	54.78
332.776	48.64
332.989	87.55
333.202	13.82
333.414	38.4
333.627	46.59
333.84	13.82
334.053	95.74
334.265	38.4
334.478	48.64
334.691	67.07
334.903	87.55
335.116	-0.51
335.329	58.88
335.541	62.98
335.754	87.55
335.966	24.06
336.179	42.5
336.392	91.65
336.604	24.06
336.817	58.88
337.029	38.4
337.242	-0.51
337.454	120.32
337.667	26.11
337.88	87.55
338.092	75.26
338.305	89.6
338.517	71.17
338.729	30.21
338.942	87.55
339.154	30.21
339.367	17.92
339.579	65.02
339.792	15.87
340.004	46.59
340.217	28.16
340.429	42.5
340.641	13.82
340.854	42.5
341.066	93.69
341.278	77.31
341.491	71.17
341.703	114.17
341.915	75.26
342.128	22.02
342.34	58.88
342.552	26.11
342.764	58.88
342.977	50.69
343.189	46.59
343.401	48.64
343.613	-6.66
343.826	81.41
344.038	-20.99
344.25	13.82
344.462	46.59
344.674	99.84
344.886	60.93
345.099	75.26
345.311	48.64
345.523	30.21
345.735	34.3
345.947	97.79
346.159	77.31
346.371	112.13
346.583	22.02
346.795	173.57
347.007	-20.99
347.219	56.83
347.431	99.84
347.643	71.17
347.855	22.02
348.067	93.69
348.279	-0.51
348.491	46.59
348.703	38.4
348.915	73.21
349.127	50.69
349.339	1.54
349.551	97.79
349.763	95.74
349.975	124.41
350.187	38.4
350.399	69.12
350.61	101.89
350.822	73.21
351.034	22.02
351.246	77.31
351.458	22.02
351.669	42.5
351.881	52.74
352.093	77.31
352.305	44.54
352.517	62.98
352.728	103.93
352.94	120.32
353.152	54.78
353.363	9.73
353.575	73.21
353.787	151.04
353.999	54.78
354.21	144.89
354.422	-35.33
354.633	81.41
354.845	56.83
355.057	22.02
355.268	9.73
355.48	73.21
355.692	69.12
355.903	56.83
356.115	87.55
356.326	79.36
356.538	83.45
356.749	81.41
356.961	77.31
357.172	54.78
357.384	97.79
357.595	32.26
357.807	87.55
358.018	30.21
358.23	40.45
358.441	89.6
358.653	71.17
358.864	60.93
359.075	7.68
359.287	52.74
359.498	161.28
359.709	11.78
359.921	32.26
360.132	95.74
360.344	32.26
360.555	122.37
360.766	93.69
360.977	67.07
361.189	5.63
361.4	40.45
361.611	161.28
361.823	48.64
362.034	128.51
362.245	22.02
362.456	13.82
362.667	58.88
362.879	189.95
363.09	93.69
363.301	157.18
363.512	67.07
363.723	52.74
363.935	-55.81
364.146	91.65
364.357	-0.51
364.568	177.66
364.779	-27.14
364.99	148.99
365.201	54.78
365.412	56.83
365.623	87.55
365.834	73.21
366.045	97.79
366.256	95.74
366.467	44.54
366.678	83.45
366.889	79.36
367.1	26.11
367.311	-14.85
367.522	67.07
367.733	83.45
367.944	69.12
368.155	136.7
368.366	114.17
368.577	101.89
368.788	56.83
368.999	-0.51
369.209	42.5
369.42	189.95
369.631	91.65
369.842	103.93
370.053	22.02
370.264	65.02
370.474	28.16
370.685	48.64
370.896	38.4
371.107	99.84
371.317	97.79
371.528	42.5
371.739	105.98
371.95	130.56
372.16	40.45
372.371	13.82
372.582	54.78
372.792	146.94
373.003	48.64
373.214	22.02
373.424	71.17
373.635	30.21
373.846	50.69
374.056	40.45
374.267	163.33
374.477	97.79
374.688	-10.75
374.898	112.13
375.109	71.17
375.319	79.36
375.53	136.7
375.74	62.98
375.951	-2.56
376.161	65.02
376.372	54.78
376.582	89.6
376.793	32.26
377.003	89.6
377.214	32.26
377.424	15.87
377.635	-2.56
377.845	69.12
378.055	79.36
378.266	13.82
378.476	60.93
378.686	60.93
378.897	97.79
379.107	58.88
379.317	95.74
379.528	54.78
379.738	83.45
379.948	58.88
380.158	65.02
380.369	157.18
380.579	93.69
380.789	22.02
380.999	134.65
381.21	62.98
381.42	138.75
381.63	103.93
381.84	112.13
382.05	28.16
382.261	30.21
382.471	112.13
382.681	24.06
382.891	56.83
383.101	46.59
383.311	122.37
383.521	62.98
383.731	77.31
383.941	-18.94
384.151	89.6
384.361	56.83
384.571	108.03
384.781	81.41
384.991	95.74
385.201	105.98
385.411	122.37
385.621	108.03
385.831	89.6
386.041	198.14
386.251	83.45
386.461	38.4
386.671	62.98
386.881	159.23
387.091	9.73
387.301	73.21
387.511	38.4
387.72	54.78
387.93	138.75
388.14	83.45
388.35	13.82
388.56	91.65
388.769	62.98
388.979	67.07
389.189	85.5
389.399	24.06
389.609	65.02
389.818	103.93
390.028	103.93
390.238	79.36
390.447	34.3
390.657	85.5
390.867	71.17
391.076	79.36
391.286	120.32
391.496	54.78
391.705	128.51
391.915	118.27
392.125	69.12
392.334	48.64
392.544	122.37
392.753	34.3
392.963	73.21
393.172	71.17
393.382	60.93
393.591	144.89
393.801	79.36
394.01	157.18
394.22	108.03
394.429	97.79
394.639	105.98
394.848	173.57
395.058	122.37
395.267	97.79
395.477	134.65
395.686	89.6
395.895	159.23
396.105	146.94
396.314	132.61
396.524	148.99
396.733	146.94
396.942	144.89
397.152	62.98
397.361	112.13
397.57	142.85
397.78	124.41
397.989	95.74
398.198	218.62
398.407	65.02
398.617	105.98
398.826	175.61
399.035	105.98
399.244	171.52
399.453	185.85
399.663	181.76
399.872	185.85
400.081	128.51
400.29	140.8
400.499	159.23
400.708	177.66
400.917	95.74
401.127	126.46
401.336	134.65
401.545	222.72
401.754	157.18
401.963	179.71
402.172	130.56
402.381	122.37
402.59	97.79
402.799	146.94
403.008	198.14
403.217	140.8
403.426	103.93
403.635	124.41
403.844	128.51
404.053	138.75
404.262	124.41
404.471	144.89
404.68	181.76
404.888	175.61
405.097	167.42
405.306	261.63
405.515	259.58
405.724	257.53
405.933	124.41
406.142	173.57
406.35	218.62
406.559	185.85
406.768	196.09
406.977	249.34
407.185	255.48
407.394	226.81
407.603	228.86
407.812	239.1
408.02	296.44
408.229	251.39
408.438	312.83
408.646	284.16
408.855	269.82
409.064	286.2
409.272	300.54
409.481	335.35
409.69	335.35
409.898	370.17
410.107	331.26
410.315	382.46
410.524	357.88
410.733	433.66
410.941	372.22
411.15	458.23
411.358	474.62
411.567	474.62
411.775	515.58
411.984	538.1
412.192	476.66
412.401	519.67
412.609	607.73
412.818	652.79
413.026	609.78
413.234	673.27
413.443	689.65
413.651	669.17
413.86	683.51
414.068	699.89
414.276	785.91
414.485	742.9
414.693	876.02
414.901	783.86
415.11	839.16
415.318	824.82
415.526	886.26
415.734	947.7
415.943	939.51
416.151	1048.05
416.359	1064.43
416.567	968.18
416.776	1048.05
416.984	1234.41
417.192	1017.33
417.4	1226.22
417.608	1287.66
417.817	1254.89
418.025	1353.2
418.233	1367.53
418.441	1361.39
418.649	1441.26
418.857	1545.7
419.065	1570.28
419.273	1557.99
419.481	1596.9
419.689	1727.97
419.897	1762.79
420.105	1648.1
420.313	1850.85
420.521	1932.77
420.729	2045.41
420.937	2051.55
421.145	2117.09
421.353	2184.67
421.561	2315.74
421.769	2307.55
421.977	2401.76
422.185	2520.54
422.393	2565.59
422.601	2751.96
422.809	2772.44
423.017	2702.81
423.224	2858.45
423.432	3036.63
423.64	2997.71
423.848	3134.93
424.056	3171.79
424.263	3392.97
424.471	3372.49
424.679	3421.64
424.887	3665.35
425.094	3767.75
425.302	3718.6
425.51	3941.83
425.718	3962.31
425.925	4150.72
426.133	4154.82
426.341	4439.48
426.548	4675
426.756	4650.43
426.964	4740.54
427.171	5072.31
427.379	5143.99
427.586	5281.2
427.794	5340.59
428.001	5533.1
428.209	5850.53
428.417	5725.61
428.624	6176.16
428.832	6055.33
429.039	6020.52
429.247	6024.61
429.454	6806.94
429.662	7077.27
429.869	6739.35
430.076	7153.04
430.284	6958.49
430.491	7308.69
430.699	7665.04
430.906	7622.03
431.114	7783.82
431.321	8164.74
431.528	8304
431.736	8691.07
431.943	9409.9
432.15	8689.02
432.358	8854.9
432.565	9518.45
432.772	9368.95
432.979	9895.27
433.187	10208.61
433.394	10169.7
433.601	10847.58
433.808	10966.36
434.016	10747.23
434.223	11279.7
434.43	11924.81
434.637	11709.77
434.844	12252.49
435.052	12502.34
435.259	12541.25
435.466	12637.5
435.673	12555.58
435.88	13307.19
436.087	13993.26
436.294	14189.86
436.501	13485.36
436.708	14146.86
436.915	14691.62
437.122	15136.03
437.329	15195.42
437.537	15473.94
437.743	15750.42
437.95	15596.82
438.157	16399.62
438.364	17181.95
438.571	17102.08
438.778	17061.12
438.985	18568.42
439.192	17827.06
439.399	18408.68
439.606	17888.5
439.813	19256.54
440.02	20278.47
440.227	19743.95
440.433	19774.67
440.64	20356.3
440.847	20012.24
441.054	20819.14
441.261	22287.53
441.467	21849.27
441.674	22369.45
441.881	23026.85
442.088	22881.44
442.294	22869.16
442.501	23491.74
442.708	23864.47
442.914	24435.85
443.121	25603.19
443.328	25238.65
443.534	27096.16
443.741	26166.38
443.948	25582.71
444.154	27823.19
444.361	27608.15
444.568	27542.62
444.774	27710.55
444.981	27620.44
445.187	28918.85
445.394	30389.3
445.6	29668.41
445.807	32277.52
446.013	31005.73
446.22	31548.45
446.426	32926.73
446.633	32975.88
446.839	34204.66
447.046	32908.3
447.252	34362.36
447.459	34726.89
447.665	34499.57
447.871	36015.07
448.078	37209.03
448.284	35455.97
448.491	36707.28
448.697	38259.64
448.903	38646.71
449.11	38603.7
449.316	37921.73
449.522	38710.19
449.728	39818.14
449.935	40207.26
450.141	40231.83
450.347	41433.99
450.553	39566.24
450.76	40307.61
450.966	42009.47
451.172	40995.73
451.378	42312.57
451.584	41233.29
451.791	42441.59
451.997	41999.23
452.203	42879.86
452.409	42601.33
452.615	42943.34
452.821	41235.34
453.027	40463.25
453.233	42810.23
453.44	41116.56
453.646	41757.57
453.852	41907.07
454.058	42294.14
454.264	41231.24
454.47	42011.52
454.676	41096.08
454.882	42142.59
455.088	39003.05
455.294	39637.92
455.5	40229.79
455.705	40471.45
455.911	38310.84
456.117	37878.72
456.323	37716.93
456.529	35544.03
456.735	37454.79
456.941	36029.4
457.147	35781.6
457.352	34702.32
457.558	34558.96
457.764	34649.07
457.97	33989.63
458.176	33174.53
458.381	33014.79
458.587	31136.8
458.793	31319.07
458.999	29903.93
459.204	31994.9
459.41	30946.34
459.616	28976.2
459.821	29123.65
460.027	29277.25
460.233	28578.89
460.438	27071.59
460.644	27165.79
460.85	26319.98
461.055	25494.65
461.261	25584.76
461.466	23444.63
461.672	23293.08
461.878	24552.59
462.083	22721.7
462.289	22533.29
462.494	22557.86
462.7	21216.44
462.905	20837.57
463.111	21632.18
463.316	21716.15
463.522	21210.3
463.727	20972.74
463.932	21075.13
464.138	20761.8
464.343	21050.56
464.549	20217.04
464.754	20993.22
464.959	20823.23
465.165	20647.11
465.37	19846.35
465.575	19111.13
465.781	20153.55
465.986	20442.31
466.191	19369.18
466.397	19037.41
466.602	18117.87
466.807	18748.64
467.012	18840.8
467.218	18808.03
467.423	18513.13
467.628	18427.11
467.833	19537.11
468.038	18613.48
468.244	18224.36
468.449	18881.76
468.654	18257.13
468.859	18150.64
469.064	18150.64
469.269	17431.8
469.474	17425.65
469.679	17468.66
469.885	17470.71
470.09	17458.42
470.295	17351.93
470.5	16938.24
470.705	17306.87
470.91	16919.81
471.115	16665.86
471.32	16846.08
471.525	16764.16
471.73	16270.6
471.935	16452.87
472.139	15996.17
472.344	15930.64
472.549	15768.85
472.754	15662.35
472.959	15557.91
473.164	14939.42
473.369	14712.1
473.574	15392.02
473.778	15136.03
473.983	14873.89
474.188	14931.23
474.393	14488.87
474.598	14357.8
474.802	14155.05
475.007	14134.57
475.212	13958.44
475.417	13833.52
475.621	13737.26
475.826	13636.91
476.031	13595.95
476.235	13184.31
476.44	13526.32
476.645	13040.95
476.849	13391.16
477.054	13137.21
477.259	12756.29
477.463	12721.47
477.668	12336.45
477.872	12444.99
478.077	12461.38
478.282	12086.6
478.486	12064.07
478.691	12041.54
478.895	12025.16
479.1	11697.49
479.304	11763.02
479.509	11261.27
479.713	11662.67
479.918	11687.25
480.122	11173.21
480.326	11556.18
480.531	11400.53
480.735	11277.65
480.94	11093.33
481.144	11730.25
481.348	11351.38
481.553	11298.13
481.757	11021.66
481.961	11054.42
482.166	11349.33
482.37	11101.53
482.574	10767.71
482.778	10880.35
482.983	11117.91
483.187	11060.57
483.391	11179.35
483.595	10986.84
483.8	10626.4
484.004	10884.44
484.208	11079
484.412	10722.65
484.616	10978.65
484.821	10999.13
485.025	10847.58
485.229	10933.59
485.433	10757.47
485.637	10724.7
485.841	10857.82
486.045	11038.04
486.249	10900.83
486.453	10734.94
486.657	11019.61
486.861	10909.02
487.065	10624.35
487.269	11085.14
487.473	10657.12
487.677	11140.44
487.881	10898.78
488.085	11033.94
488.289	11087.19
488.493	11085.14
488.697	10919.26
488.901	11015.51
489.105	11154.77
489.309	10896.73
489.512	11165.01
489.716	10960.22
489.92	11156.82
490.124	11144.53
490.328	11298.13
490.531	11363.67
490.735	11347.28
490.939	11001.18
491.143	11251.03
491.346	11105.62
491.55	11431.25
491.754	11373.91
491.958	11646.29
492.161	11543.89
492.365	11498.83
492.569	11535.7
492.772	11670.86
492.976	11689.29
493.18	11658.57
493.383	11928.91
493.587	12000.58
493.79	12076.36
493.994	11851.08
494.197	12055.88
494.401	12131.65
494.605	12068.17
494.808	12358.98
495.012	12324.16
495.215	12512.58
495.419	12457.28
495.622	12459.33
495.825	12744
496.029	12961.08
496.232	12866.88
496.436	13047.1
496.639	13200.69
496.843	13159.74
497.046	13212.98
497.249	13544.75
497.453	13595.95
497.656	13737.26
497.859	13669.68
498.063	13667.63
498.266	13894.96
498.469	14214.44
498.673	14261.54
498.876	14437.67
499.079	14796.06
499.282	14671.14
499.485	15250.71
499.689	14923.04
499.892	15228.18
500.095	15279.38
500.298	15613.2
500.501	15336.73
500.705	16119.05
500.908	16127.24
501.111	16225.54
501.314	16491.78
501.517	16809.22
501.72	16784.64
501.923	16581.89
502.126	17061.12
502.329	17399.03
502.532	17517.81
502.735	17503.48
502.938	17904.88
503.141	17872.11
503.344	18380.01
503.547	18078.96
503.75	18509.03
503.953	19059.93
504.156	19023.07
504.359	19387.61
504.562	19137.76
504.765	19698.9
504.968	19821.78
505.17	20147.4
505.373	20055.25
505.576	20174.03
505.779	20640.97
505.982	20690.12
506.185	21183.68
506.387	21044.41
506.59	21488.82
506.793	21611.7
506.996	21779.64
507.198	22414.51
507.401	22000.82
507.604	22645.93
507.807	22809.76
508.009	22760.61
508.212	23076
508.415	23622.81
508.617	23489.69
508.82	23909.52
509.022	24042.64
509.225	24384.65
509.428	24372.36
509.63	24808.58
509.833	24663.18
510.035	25134.21
510.238	25298.05
510.44	25412.73
510.643	25980.02
510.845	26315.89
511.048	26340.46
511.25	26315.89
511.453	26903.65
511.655	27489.37
511.858	27274.34
512.06	27593.82
512.262	27812.95
512.465	27632.73
512.667	28261.46
512.87	28288.08
513.072	28466.25
513.274	29197.38
513.477	29619.26
513.679	29414.46
513.881	30010.42
514.084	30047.29
514.286	30164.02
514.488	30229.55
514.69	31161.38
514.893	31130.66
515.095	31190.05
515.297	31695.9
515.499	31738.91
515.701	32334.87
515.904	32402.45
516.106	32537.62
516.308	32883.72
516.51	33256.45
516.712	33252.36
516.914	33758.2
517.116	34165.75
517.318	34192.37
517.52	34358.26
517.722	34300.92
517.925	34841.58
518.127	35230.69
518.329	36051.93
518.531	35333.09
518.733	35851.23
518.935	36336.6
519.136	36754.38
519.338	36852.69
519.54	37010.38
519.742	37393.35
519.944	37450.69
520.146	38581.17
520.348	38368.18
520.55	37921.73
520.752	38398.9
520.954	39590.82
521.155	38886.32
521.357	39660.45
521.559	39623.59
521.761	40414.1
521.963	40063.9
522.164	40346.52
522.366	40283.03
522.568	40868.75
522.77	40651.67
522.971	41522.05
523.173	41159.56
523.375	41589.64
523.576	41720.71
523.778	41933.7
523.98	42210.17
524.181	42449.78
524.383	42664.82
524.584	42941.3
524.786	42761.08
524.988	43017.07
525.189	43316.08
525.391	43617.13
525.592	43729.76
525.794	44118.88
525.995	44192.61
526.197	44153.69
526.398	43948.9
526.6	44530.52
526.801	44782.42
527.003	44557.14
527.204	45003.6
527.406	45251.41
527.607	45376.33
527.808	45437.77
528.01	44878.68
528.211	45255.5
528.412	46000.96
528.614	45497.16
528.815	45876.04
529.016	46336.83
529.218	45732.68
529.419	46054.21
529.62	45730.63
529.822	46074.69
530.023	46392.12
530.224	46666.55
530.425	46207.81
530.626	46148.42
530.828	45882.18
531.029	46932.79
531.23	46656.31
531.431	46777.14
531.632	46951.22
531.833	46875.44
532.035	46983.99
532.236	46951.22
532.437	47115.06
532.638	46506.81
532.839	47117.11
533.04	47448.88
533.241	46355.26
533.442	47627.05
533.643	47168.3
533.844	47235.89
534.045	47209.26
534.246	46666.55
534.447	47131.44
534.648	47092.53
534.849	47219.5
535.05	46934.84
535.251	46822.2
535.451	46486.33
535.652	46811.96
535.853	46799.67
536.054	47360.81
536.255	47340.33
536.456	46672.7
536.657	47805.22
536.857	46621.5
537.058	46500.67
537.259	47278.89
537.46	46951.22
537.66	46996.27
537.861	47074.1
538.062	46900.02
538.263	47113.01
538.463	46816.05
538.664	46869.3
538.865	47108.91
539.065	46775.09
539.266	46537.53
539.466	47393.58
539.667	46672.7
539.868	47483.69
540.068	46910.26
540.269	46732.09
540.469	46973.75
540.67	46779.19
540.87	47182.64
541.071	46793.53
541.271	46893.88
541.472	46656.31
541.672	46568.25
541.873	46773.05
542.073	46115.65
542.274	46932.79
542.474	46541.63
542.675	46445.37
542.875	47266.61
543.075	47002.42
543.276	46234.43
543.476	47029.04
543.676	46517.05
543.877	46730.04
544.077	46345.02
544.277	46670.65
544.478	46431.04
544.678	46504.76
544.878	46326.59
545.078	46617.4
545.279	46220.09
545.479	45892.42
545.679	46441.28
545.879	46631.74
546.079	46572.35
546.28	46347.07
546.48	46226.24
546.68	46340.92
546.88	46334.78
547.08	46263.1
547.28	46443.32
547.48	46146.37
547.68	46377.79
547.88	46136.13
548.081	46406.46
548.281	46336.83
548.481	46275.39
548.681	46492.47
548.881	46414.65
549.081	46189.38
549.28	46103.36
549.48	46920.5
549.68	46043.97
549.88	46787.38
550.08	46056.26
550.28	46093.12
550.48	46121.79
550.68	46787.38
550.88	46189.38
551.08	46152.51
551.279	46201.66
551.479	45521.74
551.679	46535.48
551.879	46138.18
552.079	46551.87
552.278	45968.19
552.478	45919.04
552.678	46195.52
552.878	46142.27
553.077	45779.78
553.277	45890.37
553.477	46738.23
553.676	45890.37
553.876	45847.36
554.076	45534.03
554.275	45771.59
554.475	45189.97
554.674	45998.91
554.874	45884.23
555.074	45775.69
555.273	45824.84
555.473	46086.98
555.672	45374.28
555.872	45554.5
556.071	45970.24
556.271	45925.19
556.47	45665.1
556.67	45122.38
556.869	45441.87
557.068	45960
557.268	45321.04
557.467	45007.7
557.667	45548.36
557.866	45073.23
558.065	45136.72
558.265	45099.86
558.464	45142.86
558.663	45327.18
558.863	44606.3
559.062	45488.97
559.261	44716.89
559.461	45413.2
559.66	44307.29
559.859	44690.26
560.058	44841.81
560.258	44880.72
560.457	44362.59
560.656	44899.15
560.855	44567.38
561.054	44569.43
561.253	44088.16
561.453	44727.13
561.652	44798.8
561.851	44286.81
562.05	44436.31
562.249	44108.64
562.448	44665.69
562.647	44563.29
562.846	44297.05
563.045	44159.84
563.244	43719.52
563.443	44120.93
563.642	43314.03
563.841	43791.2
564.04	43705.19
564.239	43944.8
564.438	43344.75
564.637	43424.62
564.836	43725.67
565.035	43537.26
565.234	43670.37
565.432	43154.29
565.631	43193.2
565.83	43559.78
566.029	43225.96
566.228	42898.29
566.427	42888.05
566.625	42861.43
566.824	42189.69
567.023	42976.11
567.222	42079.1
567.42	42601.33
567.619	42605.43
567.818	42500.98
568.016	42556.28
568.215	42765.17
568.414	42226.56
568.612	42726.26
568.811	42414.97
569.01	42445.69
569.208	41778.05
569.407	42490.74
569.605	41706.37
569.804	41804.67
570.002	41616.26
570.201	41827.2
570.4	41309.07
570.598	41399.18
570.797	41360.26
570.995	41216.91
571.193	41118.6
571.392	41583.49
571.59	41108.36
571.789	41288.59
571.987	40956.82
572.186	40516.5
572.384	40577.94
572.582	40801.17
572.781	40852.37
572.979	40362.9
573.177	40649.62
573.376	40450.97
573.574	40133.53
573.772	40528.79
573.971	40162.2
574.169	40231.83
574.367	39412.65
574.565	40057.76
574.763	39383.98
574.962	39945.12
575.16	39093.16
575.358	39615.4
575.556	39072.68
575.754	40000.41
575.952	39220.14
576.151	39740.32
576.349	38476.72
576.547	38669.23
576.745	39119.79
576.943	39154.6
577.141	39259.05
577.339	39447.46
577.537	38679.47
577.735	38843.31
577.933	37979.07
578.131	38351.8
578.329	38249.4
578.527	38124.47
578.725	38020.03
578.923	38036.41
579.121	38063.04
579.319	38099.9
579.516	37637.06
579.714	37706.69
579.912	37546.95
580.11	37804.99
580.308	37389.25
580.506	37729.22
580.704	36752.34
580.901	37014.48
581.099	37540.8
581.297	36611.03
581.495	36944.84
581.692	37340.1
581.89	36619.22
582.088	37166.02
582.285	36709.33
582.483	36608.98
582.681	36529.11
582.878	36457.43
583.076	36123.61
583.274	36428.76
583.471	36189.14
583.669	36119.51
583.866	35896.28
584.064	36273.11
584.262	35460.07
584.459	35871.71
584.657	35191.78
584.854	36070.36
585.052	35089.38
585.249	35423.2
585.447	35566.56
585.644	34821.1
585.841	34991.08
586.039	35763.17
586.236	35038.19
586.434	34872.3
586.631	34911.21
586.828	34737.13
587.026	34460.66
587.223	34556.91
587.42	34321.4
587.618	34495.47
587.815	33985.53
588.012	34223.09
588.21	34018.3
588.407	34120.7
588.604	34034.68
588.801	33803.26
588.999	33623.04
589.196	33328.13
589.393	33694.72
589.59	33383.43
589.787	33369.09
589.984	33256.45
590.182	33166.34
590.379	33334.28
590.576	32871.43
590.773	32685.07
590.97	32588.81
591.167	32547.86
591.364	32359.44
591.561	32580.62
591.758	32490.51
591.955	32433.17
592.152	32664.59
592.349	32119.83
592.546	32275.48
592.743	32367.63
592.94	31437.86
593.137	32119.83
593.334	31927.32
593.531	31347.75
593.727	31595.55
593.924	31581.21
594.121	31308.83
594.318	31743
594.515	30964.78
594.712	31218.72
594.908	30860.33
595.105	31323.17
595.302	30645.29
595.499	31032.36
595.696	30766.12
595.892	30475.31
596.089	30792.75
596.286	30639.15
596.482	30483.5
596.679	30465.07
596.876	30413.87
597.072	30325.81
597.269	30520.37
597.466	30235.7
597.662	29813.82
597.859	29645.88
598.055	30254.13
598.252	29604.92
598.448	29641.79
598.645	29482.05
598.841	29422.66
599.038	29699.13
599.234	29439.04
599.431	29011.01
599.627	28841.03
599.824	28853.32
600.02	28716.11
600.217	29240.39
600.413	28603.47
600.609	28980.29
600.806	28419.15
601.002	28603.47
601.198	28427.34
601.395	28091.48
601.591	28294.22
601.787	28267.6
601.984	28460.11
602.18	28486.73
602.376	28382.29
602.572	27962.45
602.769	27944.02
602.965	27741.27
603.161	27606.11
603.357	27589.72
603.553	27524.19
603.75	27454.56
603.946	27198.56
604.142	27528.28
604.338	27032.68
604.534	27231.33
604.73	26887.27
604.926	26971.24
605.122	27190.37
605.318	26981.48
605.514	26518.64
605.71	26367.09
605.906	26596.46
606.102	26616.94
606.298	26633.32
606.494	26655.85
606.69	26514.54
606.886	26322.03
607.082	26369.13
607.278	26330.22
607.474	25709.69
607.67	26115.19
607.866	25488.51
608.062	26444.91
608.257	25973.88
608.453	26018.93
608.649	25752.7
608.845	25398.4
609.041	25687.16
609.236	25678.97
609.432	25513.08
609.628	25422.97
609.824	25793.65
610.019	25164.93
610.215	25300.09
610.411	25285.76
610.606	25490.56
610.802	25283.71
610.998	25222.27
611.193	25394.3
611.389	24999.04
611.584	24892.55
611.78	25070.72
611.976	24913.03
612.171	24861.83
612.367	24827.01
612.562	24802.44
612.758	24669.32
612.953	24652.94
613.149	24984.71
613.344	24276.11
613.539	24855.68
613.735	24564.87
613.93	24429.71
614.126	24173.71
614.321	24331.4
614.517	24444.04
614.712	24253.58
614.907	24177.81
615.103	24315.02
615.298	24130.7
615.493	24540.3
615.688	23956.63
615.884	24564.87
616.079	23778.45
616.274	24190.09
616.47	23934.1
616.665	24030.35
616.86	23919.76
617.055	23901.33
617.25	23700.63
617.445	23966.87
617.641	23391.39
617.836	23540.89
618.031	23362.72
618.226	23671.96
618.421	23278.75
618.616	23581.85
618.811	23270.56
619.006	23434.39
619.201	22973.6
619.396	22903.97
619.591	22557.86
619.786	22860.96
619.981	22521
620.176	22725.8
620.371	22484.14
620.566	22676.65
620.761	22262.96
620.956	22152.37
621.151	21753.01
621.346	22291.63
621.541	21634.23
621.735	21804.21
621.93	21697.72
622.125	21591.22
622.32	21470.39
622.515	21263.55
622.709	21347.51
622.904	21150.91
623.099	21232.83
623.294	21288.12
623.488	20745.41
623.683	20907.2
623.878	20851.91
624.072	20577.48
624.267	20628.68
624.462	20712.64
624.656	20280.52
624.851	20452.55
625.046	20124.88
625.24	19866.83
625.435	19746
625.629	19723.48
625.824	19576.02
626.018	19510.49
626.213	19201.24
626.407	19526.87
626.602	19152.09
626.796	19041.5
626.991	19129.56
627.185	18945.25
627.38	18611.43
627.574	18633.96
627.768	18531.56
627.963	18431.21
628.157	18367.72
628.352	18273.51
628.546	18011.37
628.74	18275.56
628.935	17888.5
629.129	18038
629.323	17839.34
629.517	17702.13
629.712	17698.03
629.906	17761.52
630.1	17499.38
630.294	17652.98
630.489	17374.45
630.683	17437.94
630.877	17282.3
631.071	17085.69
631.265	16870.65
631.459	16684.29
631.653	16889.09
631.848	16782.59
632.042	16366.85
632.236	16532.74
632.43	16448.77
632.624	16579.84
632.818	16284.94
633.012	16200.97
633.206	16291.08
633.4	15975.69
633.594	15809.81
633.788	16061.71
633.982	16010.51
634.176	15574.29
634.369	15592.72
634.563	15453.46
634.757	15467.8
634.951	15449.36
635.145	15402.26
635.339	15172.89
635.533	15007
635.726	15103.26
635.92	15086.87
636.114	15082.78
636.308	15088.92
636.501	14837.02
636.695	14599.46
636.889	14464.29
637.083	14583.07
637.276	14605.6
637.47	14417.19
637.664	14294.31
637.857	14382.37
638.051	14316.84
638.244	14116.14
638.438	14103.85
638.632	14155.05
638.825	14109.99
639.019	13940.01
639.212	13696.3
639.406	13579.57
639.599	13790.51
639.793	13440.31
639.986	13303.09
640.18	13221.17
640.373	13296.95
640.567	13305.14
640.76	13444.4
640.954	13129.02
641.147	13018.43
641.34	13022.52
641.534	12989.75
641.727	12830.01
641.92	12926.27
642.114	12725.57
642.307	12805.44
642.5	12838.2
642.694	12549.44
642.887	12545.34
643.08	12467.52
643.273	12565.82
643.467	12514.63
643.66	12342.6
643.853	12184.9
644.046	12084.55
644.239	11976.01
644.432	11894.09
644.626	11720.01
644.819	11838.8
645.012	11865.42
645.205	11754.83
645.398	11697.49
645.591	11654.48
645.784	11619.66
645.977	11343.19
646.17	11273.56
646.363	11294.04
646.556	11087.19
646.749	11220.31
646.942	11310.42
647.135	11224.4
647.328	11091.29
647.521	11017.56
647.714	10743.13
647.907	11005.27
648.099	10847.58
648.292	10730.84
648.485	10900.83
648.678	10564.96
648.871	10716.51
649.064	10675.55
649.256	10696.03
649.449	10515.81
649.642	10337.63
649.835	10231.14
650.027	10220.9
650.22	10151.27
650.413	10341.73
650.605	10159.46
650.798	10036.58
650.991	10155.37
651.183	9975.14
651.376	9928.04
651.568	10130.79
651.761	9702.76
651.954	9772.39
652.146	9692.52
652.339	9649.52
652.531	9592.17
652.724	9616.75
652.916	9508.21
653.109	9434.48
653.301	9508.21
653.494	9264.5
653.686	9213.3
653.879	9305.46
654.071	9266.55
654.263	9125.24
654.456	9336.18
654.648	9264.5
654.84	8942.97
655.033	8883.58
655.225	9047.41
655.417	8820.09
655.61	9082.23
655.802	8918.39
655.994	8789.37
656.186	8738.17
656.379	8584.57
656.571	8686.97
656.763	8484.22
656.955	8508.8
657.148	8420.74
657.34	8664.44
657.532	8529.28
657.724	8263.04
657.916	8248.71
658.108	8234.37
658.3	8168.84
658.492	8377.73
658.684	8011.14
658.876	8168.84
659.068	7957.89
659.26	8105.35
659.452	8005
659.644	8074.63
659.836	7882.12
660.028	7720.33
660.22	7898.5
660.412	7814.54
660.604	7730.57
660.796	7437.71
660.988	7738.76
661.18	7824.78
661.372	7411.09
661.563	7615.88
661.755	7273.87
661.947	7421.33
662.139	7493.01
662.331	7431.57
662.522	7312.78
662.714	7243.15
662.906	7148.95
663.097	7402.9
663.289	7083.41
663.481	6995.35
663.673	7087.51
663.864	7148.95
664.056	6946.2
664.247	6811.03
664.439	6895
664.631	6958.49
664.822	6841.75
665.014	6946.2
665.205	6915.48
665.397	6919.57
665.588	6727.07
665.78	6772.12
665.971	6772.12
666.163	6776.22
666.354	6575.52
666.546	6620.57
666.737	6501.79
666.929	6651.29
667.12	6411.68
667.311	6434.21
667.503	6618.52
667.694	6497.69
667.885	6509.98
668.077	6358.43
668.268	6362.53
668.459	6294.94
668.651	6350.24
668.842	6296.99
669.033	6059.43
669.224	5961.13
669.416	6110.63
669.607	6038.95
669.798	5969.32
669.989	6194.59
670.18	6088.1
670.371	6079.91
670.563	5891.49
670.754	6032.8
670.945	5701.03
671.136	6006.18
671.327	5711.27
671.518	5758.38
671.709	5698.99
671.9	5723.56
672.091	5717.42
672.282	5580.2
672.473	5543.34
672.664	5682.6
672.855	5762.47
673.046	5692.84
673.237	5612.97
673.428	5637.55
673.619	5674.41
673.809	5412.27
674	5455.28
674.191	5561.77
674.382	5350.83
674.573	5531.05
674.764	5453.23
674.954	5506.48
675.145	5416.37
675.336	5326.25
675.527	5316.01
675.717	5330.35
675.908	5270.96
676.099	5350.83
676.289	5289.39
676.48	5219.76
676.671	5305.78
676.861	5318.06
677.052	5178.8
677.243	5156.27
677.433	5076.4
677.624	5199.28
677.814	5084.59
678.005	5141.94
678.195	4990.39
678.386	5088.69
678.576	4896.18
678.767	5068.21
678.957	5027.25
679.148	4953.52
679.338	4910.52
679.529	4933.04
679.719	4877.75
679.909	4822.45
680.1	4834.74
680.29	4998.58
680.481	4808.12
680.671	4969.91
680.861	4752.82
681.052	4707.77
681.242	4855.22
681.432	4918.71
681.622	4840.89
681.813	4904.37
682.003	4666.81
682.193	4693.43
682.383	4838.84
682.573	4593.08
682.764	4838.84
682.954	4615.61
683.144	4869.56
683.334	4543.93
683.524	4523.45
683.714	4601.27
683.904	4498.88
684.094	4615.61
684.284	4578.75
684.474	4531.64
684.664	4505.02
684.854	4517.31
685.044	4402.62
685.234	4421.05
685.424	4478.4
685.614	4466.11
685.804	4554.17
685.994	4371.9
686.184	4429.24
686.374	4279.74
686.564	4416.96
686.753	4390.33
686.943	4228.54
687.133	4232.64
687.323	4242.88
687.513	4232.64
687.702	4177.34
687.892	4160.96
688.082	4142.53
688.272	4052.42
688.461	4224.45
688.651	4144.58
688.841	3964.36
689.03	4136.38
689.22	4036.03
689.41	4126.15
689.599	4103.62
689.789	4079.04
689.979	4027.84
690.168	3976.64
690.358	3874.24
690.547	3864.01
690.737	4060.61
690.926	3825.09
691.116	3790.28
691.305	3874.24
691.495	3851.72
691.684	3823.05
691.874	3749.32
692.063	3667.4
692.252	3917.25
692.442	3886.53
692.631	3734.98
692.82	3816.9
693.01	3593.67
693.199	3694.02
693.388	3679.69
693.578	3675.59
693.767	3585.48
693.956	3710.41
694.146	3456.46
694.335	3505.61
694.524	3495.37
694.713	3653.06
694.902	3677.64
695.092	3513.8
695.281	3601.87
695.47	3528.14
695.659	3536.33
695.848	3311.05
696.037	3481.03
696.226	3352.01
696.415	3364.3
696.604	3440.08
696.793	3384.78
696.982	3343.82
697.171	3478.99
697.36	3470.8
697.549	3407.31
697.738	3311.05
697.927	3257.81
698.116	3595.72
698.305	3376.59
698.494	3374.54
698.683	3380.68
698.872	3413.45
699.061	3339.73
699.25	3309.01
699.438	3349.96
699.627	3333.58
699.816	3237.33
700.005	3352.01
700.193	3337.68
700.382	3237.33
700.571	3333.58
700.76	3208.66
700.948	3292.62
701.137	3272.14
701.326	3429.84
701.514	3093.97
701.703	3167.7
701.892	3147.22
702.08	3216.85
702.269	3200.46
702.457	3106.26
702.646	3145.17
702.834	3134.93
703.023	3165.65
703.212	3229.13
703.4	3198.42
703.589	3061.2
703.777	3167.7
703.965	3053.01
704.154	3118.54
704.342	3259.85
704.531	3032.53
704.719	3001.81
704.907	3253.71
705.096	2977.23
705.284	3032.53
705.472	3079.63
705.661	3077.59
705.849	2999.76
706.037	3016.15
706.226	3093.97
706.414	2956.75
706.602	2991.57
706.79	3089.87
706.979	3044.82
707.167	2944.47
707.355	2921.94
707.543	2784.73
707.731	3010
707.919	3069.39
708.107	2926.04
708.296	3030.48
708.484	2885.08
708.672	2907.6
708.86	2831.83
709.048	2825.68
709.236	2801.11
709.424	3012.05
709.612	2923.99
709.8	2872.79
709.988	2973.14
710.176	2971.09
710.364	2889.17
710.551	2921.94
710.739	2817.49
710.927	2831.83
711.115	2842.07
711.303	2860.5
711.491	2854.36
711.679	2719.19
711.866	2751.96
712.054	2823.64
712.242	2797.01
712.43	2973.14
712.617	2770.39
712.805	2854.36
712.993	2782.68
713.181	2864.6
713.368	2807.25
713.556	2772.44
713.744	2719.19
713.931	2797.01
714.119	2647.51
714.306	2756.05
714.494	2807.25
714.682	2797.01
714.869	2643.42
715.057	2731.48
715.244	2688.47
715.432	2706.9
715.619	2766.29
715.807	2631.13
715.994	2745.81
716.182	2692.57
716.369	2774.49
716.556	2696.66
716.744	2684.38
716.931	2735.57
717.119	2837.97
717.306	2835.92
717.493	2676.18
717.681	2745.81
717.868	2680.28
718.055	2645.46
718.242	2579.93
718.43	2721.24
718.617	2643.42
718.804	2553.31
718.991	2534.87
719.179	2690.52
719.366	2489.82
719.553	2483.67
719.74	2770.39
719.927	2510.3
720.114	2639.32
720.301	2590.17
720.488	2612.7
720.676	2633.18
720.863	2557.4
721.05	2569.69
721.237	2608.6
721.424	2588.12
721.611	2631.13
721.798	2299.36
721.985	2446.81
722.172	2473.43
722.358	2459.1
722.545	2489.82
722.732	2557.4
722.919	2592.22
723.106	2498.01
723.293	2575.83
723.48	2588.12
723.667	2479.58
723.853	2463.19
724.04	2676.18
724.227	2422.24
724.414	2522.59
724.6	2557.4
724.787	2481.63
724.974	2442.71
725.161	2381.28
725.347	2514.39
725.534	2538.97
725.72	2385.37
725.907	2455
726.094	2373.08
726.28	2438.62
726.467	2440.67
726.653	2424.28
726.84	2477.53
727.027	2450.91
727.213	2340.32
727.4	2459.1
727.586	2323.93
727.773	2438.62
727.959	2375.13
728.145	2381.28
728.332	2414.04
728.518	2422.24
728.705	2450.91
728.891	2381.28
729.077	2395.61
729.264	2352.6
729.45	2250.21
729.636	2430.43
729.823	2280.93
730.009	2381.28
730.195	2428.38
730.382	2299.36
730.568	2229.73
730.754	2293.21
730.94	2291.17
731.126	2360.8
731.313	2268.64
731.499	2430.43
731.685	2495.96
731.871	2321.88
732.057	2266.59
732.243	2217.44
732.429	2307.55
732.615	2356.7
732.801	2237.92
732.987	2285.02
733.173	2295.26
733.359	2268.64
733.545	2219.49
733.731	2196.96
733.917	2242.01
734.103	2254.3
734.289	2239.97
734.475	2096.61
734.661	2332.12
734.847	2258.4
735.033	2227.68
735.219	2239.97
735.404	2264.54
735.59	2266.59
735.776	2129.38
735.962	2237.92
736.148	2262.49
736.333	2209.25
736.519	2199.01
736.705	2074.08
736.89	2188.77
737.076	2184.67
737.262	2258.4
737.447	2131.42
737.633	2192.86
737.819	2180.57
738.004	2115.04
738.19	2176.48
738.375	2135.52
738.561	2213.34
738.747	2196.96
738.932	2090.46
739.118	2063.84
739.303	2074.08
739.489	1981.92
739.674	2047.46
739.859	2061.79
740.045	2209.25
740.23	2029.03
740.416	1996.26
740.601	2125.28
740.786	2076.13
740.972	1922.53
741.157	2065.89
741.342	1949.15
741.528	2033.12
741.713	1981.92
741.898	1967.59
742.084	2029.03
742.269	1979.87
742.454	1932.77
742.639	1893.86
742.824	1762.79
743.01	1988.07
743.195	1988.07
743.38	1977.83
743.565	1943.01
743.75	1969.63
743.935	1938.91
744.12	1943.01
744.305	1906.15
744.49	1910.24
744.675	1818.08
744.86	1895.91
745.045	1859.04
745.23	1904.1
745.415	1801.7
745.6	1844.71
745.785	1701.35
745.97	1955.3
746.155	1791.46
746.34	1836.52
746.525	1734.12
746.71	1768.93
746.895	1687.01
747.079	1768.93
747.264	1648.1
747.449	1715.69
747.634	1727.97
747.819	1670.63
748.003	1678.82
748.188	1830.37
748.373	1687.01
748.557	1695.21
748.742	1619.43
748.927	1660.39
749.111	1627.62
749.296	1627.62
749.481	1703.4
749.665	1674.73
749.85	1537.51
750.034	1670.63
750.219	1537.51
750.404	1590.76
750.588	1498.6
750.773	1580.52
750.957	1521.13
751.141	1459.69
751.326	1463.79
751.51	1492.46
751.695	1517.03
751.879	1465.83
752.064	1457.64
752.248	1392.11
752.432	1418.73
752.617	1431.02
752.801	1467.88
752.985	1424.87
753.17	1398.25
753.354	1455.59
753.538	1406.44
753.722	1424.87
753.907	1443.31
754.091	1390.06
754.275	1392.11
754.459	1359.34
754.643	1324.52
754.828	1392.11
755.012	1279.47
755.196	1324.52
755.38	1261.04
755.564	1234.41
755.748	1316.33
755.932	1283.56
756.116	1291.76
756.3	1269.23
756.484	1209.84
756.668	1166.83
756.852	1170.93
757.036	1228.27
757.22	1242.61
757.404	1213.93
757.588	1152.49
757.772	1166.83
757.956	1158.64
758.14	1213.93
758.323	1170.93
758.507	1070.58
758.691	1172.97
758.875	1185.26
759.059	1283.56
759.242	1113.58
759.426	1164.78
759.61	1086.96
759.794	1082.86
759.977	1179.12
760.161	1060.34
760.345	1048.05
760.528	1091.06
760.712	1066.48
760.895	998.9
761.079	1039.86
761.263	1095.15
761.446	998.9
761.63	1025.52
761.813	1062.38
761.997	1066.48
762.18	933.36
762.364	1033.71
762.547	1021.42
762.731	1021.42
762.914	1023.47
763.098	990.7
763.281	976.37
763.464	984.56
763.648	1015.28
763.831	1039.86
764.015	976.37
764.198	994.8
764.381	957.94
764.564	892.4
764.748	1009.14
764.931	986.61
765.114	998.9
765.297	955.89
765.481	919.03
765.664	933.36
765.847	943.6
766.03	882.16
766.213	906.74
766.397	873.97
766.58	867.83
766.763	923.12
766.946	906.74
767.129	828.92
767.312	964.08
767.495	884.21
767.678	853.49
767.861	853.49
768.044	884.21
768.227	833.01
768.41	857.59
768.593	869.87
768.776	857.59
768.959	820.72
769.142	824.82
769.324	906.74
769.507	796.15
769.69	769.52
769.873	808.44
770.056	933.36
770.239	859.63
770.421	810.48
770.604	812.53
770.787	812.53
770.97	783.86
771.152	824.82
771.335	769.52
771.518	767.48
771.7	738.8
771.883	761.33
772.066	720.37
772.248	841.2
772.431	738.8
772.613	779.76
772.796	763.38
772.978	785.91
773.161	783.86
773.343	769.52
773.526	720.37
773.708	790
773.891	730.61
774.073	738.8
774.256	689.65
774.438	767.48
774.621	736.76
774.803	660.98
774.985	685.56
775.168	730.61
775.35	720.37
775.532	687.61
775.715	710.13
775.897	671.22
776.079	724.47
776.261	769.52
776.444	665.08
776.626	630.26
776.808	687.61
776.99	583.16
777.173	652.79
777.355	679.41
777.537	640.5
777.719	652.79
777.901	620.02
778.083	595.45
778.265	652.79
778.447	685.56
778.629	574.97
778.811	591.35
778.993	638.45
779.175	673.27
779.357	574.97
779.539	611.83
779.721	632.31
779.903	581.11
780.085	648.69
780.267	570.87
780.449	644.6
780.631	480.76
780.812	501.24
780.994	583.16
781.176	513.53
781.358	597.49
781.54	491
781.721	497.14
781.903	562.68
782.085	501.24
782.267	558.58
782.448	572.92
782.63	495.1
782.812	505.34
782.993	544.25
783.175	497.14
783.357	439.8
783.538	513.53
783.72	554.49
783.901	460.28
784.083	505.34
784.264	554.49
784.446	495.1
784.627	466.42
784.809	511.48
784.99	450.04
785.172	456.19
785.353	458.23
785.535	501.24
785.716	425.47
785.897	384.51
786.079	413.18
786.26	450.04
786.441	464.38
786.623	431.61
786.804	357.88
786.985	402.94
787.167	472.57
787.348	409.08
787.529	423.42
787.71	398.84
787.891	415.23
788.073	409.08
788.254	331.26
788.435	433.66
788.616	431.61
788.797	341.5
788.978	427.51
789.159	447.99
789.34	407.03
789.522	368.12
789.703	333.31
789.884	390.65
790.065	439.8
790.246	425.47
790.427	333.31
790.607	415.23
790.788	372.22
790.969	400.89
791.15	357.88
791.331	398.84
791.512	382.46
791.693	411.13
791.874	409.08
792.054	349.69
792.235	368.12
792.416	357.88
792.597	296.44
792.778	333.31
792.958	366.07
793.139	349.69
793.32	314.88
793.5	337.4
793.681	392.7
793.862	341.5
794.042	337.4
794.223	271.87
794.404	300.54
794.584	222.72
794.765	304.64
794.945	278.01
795.126	359.93
795.306	253.44
795.487	259.58
795.667	251.39
795.848	343.55
796.028	310.78
796.209	329.21
796.389	327.16
796.57	355.83
796.75	230.91
796.93	325.12
797.111	239.1
797.291	269.82
797.471	308.73
797.652	275.96
797.832	282.11
798.012	220.67
798.192	218.62
798.373	230.91
798.553	273.92
798.733	228.86
798.913	228.86
799.093	232.96
799.274	290.3
799.454	321.02
799.634	247.29
799.814	392.7
799.994	335.35
800.174	284.16
800.354	278.01
800.534	185.85
800.714	271.87
800.894	286.2
801.074	220.67
801.254	284.16
801.434	237.05
801.614	230.91
801.794	278.01
801.974	613.88
802.154	177.66
802.334	179.71
802.514	218.62
802.693	210.43
802.873	177.66
803.053	235
803.233	284.16
803.413	226.81
803.592	208.38
803.772	171.52
803.952	228.86
804.131	255.48
804.311	241.15
804.491	210.43
804.67	222.72
804.85	226.81
805.03	181.76
805.209	259.58
805.389	194.05
805.568	177.66
805.748	155.13
805.928	185.85
806.107	226.81
806.287	179.71
806.466	161.28
806.646	144.89
806.825	202.24
807.004	95.74
807.184	263.68
807.363	206.33
807.543	202.24
807.722	245.24
807.901	105.98
808.081	243.2
808.26	177.66
808.439	165.37
808.619	237.05
808.798	161.28
808.977	200.19
809.156	140.8
809.336	169.47
809.515	169.47
809.694	153.09
809.873	161.28
810.052	169.47
810.231	275.96
810.411	218.62
810.59	302.59
810.769	157.18
810.948	179.71
811.127	65.02
811.306	202.24
811.485	132.61
811.664	202.24
811.843	163.33
812.022	161.28
812.201	237.05
812.38	153.09
812.559	122.37
812.737	144.89
812.916	144.89
813.095	161.28
813.274	179.71
813.453	192
813.632	130.56
813.811	194.05
813.989	128.51
814.168	130.56
814.347	167.42
814.526	177.66
814.704	243.2
814.883	210.43
815.062	157.18
815.24	95.74
815.419	151.04
815.598	179.71
815.776	97.79
815.955	157.18
816.133	130.56
816.312	118.27
816.49	200.19
816.669	142.85
816.847	194.05
817.026	132.61
817.204	108.03
817.383	165.37
817.561	146.94
817.74	155.13
817.918	163.33
818.097	148.99
818.275	116.22
818.453	187.9
818.632	169.47
818.81	144.89
818.988	95.74
819.167	212.48
819.345	134.65
819.523	144.89
819.701	138.75
819.879	128.51
820.058	132.61
820.236	153.09
820.414	24.06
820.592	-18.94
820.77	185.85
820.948	83.45
821.127	103.93
821.305	114.17
821.483	151.04
821.661	165.37
821.839	142.85
822.017	153.09
822.195	73.21
822.373	146.94
822.551	159.23
822.729	206.33
822.907	120.32
823.085	95.74
823.262	50.69
823.44	58.88
823.618	101.89
823.796	112.13
823.974	167.42
824.152	146.94
824.329	79.36
824.507	116.22
824.685	128.51
824.863	89.6
825.04	138.75
825.218	97.79
825.396	130.56
825.574	116.22
825.751	71.17
825.929	169.47
826.107	73.21
826.284	58.88
826.462	171.52
826.639	56.83
826.817	93.69
826.994	52.74
827.172	69.12
827.349	67.07
827.527	103.93
827.704	122.37
827.882	114.17
828.059	134.65
828.237	54.78
828.414	67.07
828.591	30.21
828.769	48.64
828.946	144.89
829.124	71.17
829.301	71.17
829.478	181.76
829.655	146.94
829.833	118.27
830.01	1.54
830.187	99.84
830.364	22.02
830.542	38.4
830.719	144.89
830.896	128.51
831.073	95.74
831.25	83.45
831.427	73.21
831.604	112.13
831.782	108.03
831.959	110.08
832.136	56.83
832.313	50.69
832.49	28.16
832.667	62.98
832.844	40.45
833.021	165.37
833.198	38.4
833.374	75.26
833.551	198.14
833.728	89.6
833.905	112.13
834.082	65.02
834.259	79.36
834.436	118.27
834.612	71.17
834.789	32.26
834.966	75.26
835.143	105.98
835.319	-72.19
835.496	122.37
835.673	103.93
835.85	165.37
836.026	75.26
836.203	108.03
836.38	97.79
836.556	120.32
836.733	62.98
836.909	95.74
837.086	67.07
837.262	60.93
837.439	93.69
837.616	40.45
837.792	83.45
837.968	30.21
838.145	89.6
838.321	99.84
838.498	67.07
838.674	48.64
838.851	38.4
839.027	54.78
839.203	38.4
839.38	44.54
839.556	24.06
839.732	116.22
839.909	30.21
840.085	99.84
840.261	165.37
840.437	69.12
840.614	50.69
840.79	101.89
840.966	136.7
841.142	-16.9
841.318	9.73
841.494	42.5
841.671	97.79
841.847	26.11
842.023	30.21
842.199	48.64
842.375	-8.7
842.551	79.36
842.727	95.74
842.903	91.65
843.079	-20.99
843.255	110.08
843.431	26.11
843.607	157.18
843.783	-39.42
843.959	91.65
844.134	81.41
844.31	71.17
844.486	69.12
844.662	13.82
844.838	54.78
845.013	40.45
845.189	71.17
845.365	-14.85
845.541	3.58
845.716	54.78
845.892	28.16
846.068	1.54
846.244	136.7
846.419	42.5
846.595	75.26
846.77	89.6
846.946	136.7
847.122	93.69
847.297	34.3
847.473	19.97
847.648	48.64
847.824	40.45
847.999	42.5
848.175	26.11
848.35	46.59
848.526	81.41
848.701	73.21
848.876	26.11
849.052	112.13
849.227	112.13
849.403	87.55
849.578	71.17
849.753	46.59
849.929	65.02
850.104	60.93
850.279	5.63
850.454	60.93
850.63	1.54
850.805	54.78
850.98	54.78
851.155	22.02
851.33	89.6
851.505	91.65
851.681	65.02
851.856	5.63
852.031	50.69
852.206	62.98
852.381	1.54
852.556	-10.75
852.731	101.89
852.906	32.26
853.081	17.92
853.256	71.17
853.431	81.41
853.606	17.92
853.781	-0.51
853.956	56.83
854.131	62.98
854.305	65.02
854.48	22.02
854.655	56.83
854.83	32.26
855.005	-29.18
855.18	34.3
855.354	-18.94
855.529	65.02
855.704	-59.9
855.879	91.65
856.053	38.4
856.228	46.59
856.403	34.3
856.577	71.17
856.752	62.98
856.926	-6.66
857.101	87.55
857.276	17.92
857.45	116.22
857.625	32.26
857.799	93.69
857.974	60.93
858.148	62.98
858.323	24.06
858.497	58.88
858.672	42.5
858.846	17.92
859.02	-18.94
859.195	-49.66
859.369	58.88
859.543	52.74
859.718	-35.33
859.892	65.02
860.066	79.36
860.241	62.98
860.415	-51.71
860.589	13.82
860.763	95.74
860.938	-23.04
861.112	99.84
861.286	44.54
861.46	13.82
861.634	75.26
861.808	97.79
861.982	19.97
862.157	40.45
862.331	69.12
862.505	40.45
862.679	56.83
862.853	38.4
863.027	28.16
863.201	187.9
863.375	1.54
863.549	-0.51
863.722	58.88
863.896	65.02
864.07	22.02
864.244	71.17
864.418	46.59
864.592	40.45
864.766	46.59
864.939	32.26
865.113	42.5
865.287	11.78
865.461	-23.04
865.634	67.07
865.808	44.54
865.982	22.02
866.156	-2.56
866.329	40.45
866.503	22.02
866.676	-43.52
866.85	28.16
867.024	71.17
867.197	38.4
867.371	15.87
867.544	95.74
867.718	30.21
867.891	62.98
868.065	73.21
868.238	91.65
868.412	65.02
868.585	73.21
868.759	81.41
868.932	112.13
869.105	-18.94
869.279	-8.7
869.452	-18.94
869.625	42.5
869.799	13.82
869.972	87.55
870.145	32.26
870.319	24.06
870.492	-27.14
870.665	-0.51
870.838	50.69
871.011	-18.94
871.185	11.78
871.358	-49.66
871.531	40.45
871.704	-98.81
871.877	5.63
872.05	50.69
872.223	38.4
872.396	73.21
872.569	108.03
872.742	91.65
872.915	7.68
873.088	-18.94
873.261	40.45
873.434	30.21
873.607	48.64
873.78	22.02
873.953	-35.33
874.126	-35.33
874.299	48.64
874.471	-2.56
874.644	-4.61
874.817	26.11
874.99	116.22
875.163	-61.95
875.335	-2.56
875.508	71.17
875.681	30.21
875.853	1.54
876.026	46.59
876.199	52.74
876.371	50.69
876.544	67.07
876.717	71.17
876.889	17.92
877.062	120.32
877.234	30.21
877.407	-14.85
877.579	26.11
877.752	67.07
877.924	34.3
878.097	19.97
878.269	40.45
878.442	73.21
878.614	15.87
878.786	-2.56
878.959	87.55
879.131	22.02
879.303	28.16
879.476	30.21
879.648	26.11
879.82	87.55
879.993	13.82
880.165	38.4
880.337	-8.7
880.509	54.78
880.681	-16.9
880.854	44.54
881.026	65.02
881.198	67.07
881.37	5.63
881.542	75.26
881.714	34.3
881.886	-18.94
882.058	5.63
882.23	24.06
882.402	46.59
882.574	-35.33
882.746	-23.04
882.918	69.12
883.09	22.02
883.262	-2.56
883.434	-12.8
883.606	-25.09
883.778	-23.04
883.95	87.55
884.122	50.69
884.293	87.55
884.465	87.55
884.637	120.32
884.809	5.63
884.98	62.98
885.152	50.69
885.324	9.73
885.496	62.98
885.667	-18.94
885.839	7.68
886.011	38.4
886.182	116.22
886.354	62.98
886.525	30.21
886.697	34.3
886.869	-10.75
887.04	-31.23
887.212	24.06
887.383	13.82
887.555	48.64
887.726	26.11
887.897	-2.56
888.069	30.21
888.24	32.26
888.412	-6.66
888.583	-18.94
888.754	71.17
888.926	-51.71
889.097	-10.75
889.268	54.78
889.44	1.54
889.611	-25.09
889.782	62.98
889.953	-39.42
890.125	44.54
890.296	-39.42
890.467	54.78
890.638	87.55
890.809	30.21
890.98	62.98
891.151	22.02
891.323	34.3
891.494	-47.62
891.665	54.78
891.836	42.5
892.007	5.63
892.178	19.97
892.349	19.97
892.52	17.92
892.691	9.73
892.862	79.36
893.032	-6.66
893.203	-39.42
893.374	-33.28
893.545	38.4
893.716	-31.23
893.887	44.54
894.057	-10.75
894.228	-14.85
894.399	58.88
894.57	157.18
894.74	-14.85
894.911	34.3
895.082	48.64
895.253	38.4
895.423	-2.56
895.594	99.84
895.764	46.59
895.935	-6.66
896.106	54.78
896.276	-23.04
896.447	26.11
896.617	17.92
896.788	-41.47
896.958	22.02
897.129	44.54
897.299	54.78
897.47	36.35
897.64	28.16
897.81	48.64
897.981	38.4
898.151	3.58
898.322	34.3
898.492	-25.09
898.662	19.97
898.832	-12.8
899.003	11.78
899.173	24.06
899.343	-18.94
899.513	11.78
