Data from USB4F104151__22__14-16-14-844.txt Node

Date: Thu Mar 13 14:16:14 EDT 2025
User: louis
Spectrometer: USB4F10415
Trigger mode: 4
Integration Time (sec): 2.000000E-2
Scans to average: 1
Electric dark correction enabled: true
Nonlinearity correction enabled: false
Boxcar width: 0
XAxis mode: Wavelengths
Number of Pixels in Spectrum: 3648
>>>>>Begin Spectral Data<<<<<
178.204	-29.18
178.424	-29.18
178.644	-29.18
178.864	-86.53
179.084	-86.53
179.304	48.64
179.524	-20.99
179.744	17.92
179.964	-8.7
180.184	56.83
180.404	26.11
180.624	-74.24
180.844	50.69
181.064	-76.29
181.283	13.82
181.503	-27.14
181.723	-6.66
181.943	-29.18
182.163	52.74
182.383	44.54
182.602	48.64
182.822	126.46
183.042	52.74
183.262	-57.86
183.482	32.26
183.701	-0.51
183.921	-0.51
184.141	38.4
184.361	3.58
184.58	40.45
184.8	36.35
185.02	3.58
185.239	69.12
185.459	79.36
185.679	48.64
185.898	-31.23
186.118	122.37
186.338	19.97
186.557	97.79
186.777	36.35
186.997	15.87
187.216	81.41
187.436	46.59
187.655	28.16
187.875	36.35
188.095	7.68
188.314	105.98
188.534	81.41
188.753	42.5
188.973	-25.09
189.192	65.02
189.412	15.87
189.631	75.26
189.851	15.87
190.07	81.41
190.29	77.31
190.509	32.26
190.729	95.74
190.948	75.26
191.168	146.94
191.387	114.17
191.607	17.92
191.826	-0.51
192.045	71.17
192.265	-0.51
192.484	7.68
192.704	9.73
192.923	-4.61
193.142	108.03
193.362	46.59
193.581	56.83
193.8	48.64
194.02	42.5
194.239	85.5
194.458	138.75
194.678	48.64
194.897	105.98
195.116	56.83
195.335	71.17
195.555	24.06
195.774	75.26
195.993	99.84
196.212	-2.56
196.432	-8.7
196.651	50.69
196.87	32.26
197.089	79.36
197.308	15.87
197.528	-4.61
197.747	-16.9
197.966	60.93
198.185	101.89
198.404	34.3
198.623	114.17
198.842	-2.56
199.062	15.87
199.281	69.12
199.5	13.82
199.719	13.82
199.938	91.65
200.157	46.59
200.376	5.63
200.595	50.69
200.814	67.07
201.033	48.64
201.252	36.35
201.471	42.5
201.69	75.26
201.909	114.17
202.128	67.07
202.347	91.65
202.566	-14.85
202.785	40.45
203.004	48.64
203.223	65.02
203.442	32.26
203.661	9.73
203.879	-29.18
204.098	48.64
204.317	17.92
204.536	105.98
204.755	56.83
204.974	-35.33
205.193	26.11
205.411	105.98
205.63	52.74
205.849	73.21
206.068	7.68
206.287	-14.85
206.505	34.3
206.724	36.35
206.943	15.87
207.162	105.98
207.381	46.59
207.599	73.21
207.818	65.02
208.037	-12.8
208.255	71.17
208.474	34.3
208.693	-10.75
208.911	15.87
209.13	-39.42
209.349	58.88
209.567	42.5
209.786	65.02
210.005	19.97
210.223	26.11
210.442	-33.28
210.661	50.69
210.879	105.98
211.098	24.06
211.316	60.93
211.535	124.41
211.753	65.02
211.972	26.11
212.191	48.64
212.409	36.35
212.628	46.59
212.846	124.41
213.065	22.02
213.283	81.41
213.502	93.69
213.72	83.45
213.938	69.12
214.157	7.68
214.375	42.5
214.594	3.58
214.812	93.69
215.031	42.5
215.249	42.5
215.467	116.22
215.686	15.87
215.904	1.54
216.122	26.11
216.341	122.37
216.559	9.73
216.778	77.31
216.996	87.55
217.214	46.59
217.432	-4.61
217.651	-0.51
217.869	114.17
218.087	71.17
218.306	17.92
218.524	71.17
218.742	-33.28
218.96	50.69
219.179	-4.61
219.397	81.41
219.615	28.16
219.833	11.78
220.051	-37.38
220.27	95.74
220.488	-14.85
220.706	42.5
220.924	91.65
221.142	62.98
221.36	101.89
221.578	15.87
221.796	40.45
222.015	40.45
222.233	65.02
222.451	32.26
222.669	-6.66
222.887	-16.9
223.105	19.97
223.323	69.12
223.541	36.35
223.759	-29.18
223.977	65.02
224.195	50.69
224.413	73.21
224.631	67.07
224.849	26.11
225.067	1.54
225.285	34.3
225.503	-47.62
225.721	-0.51
225.939	-29.18
226.157	56.83
226.375	114.17
226.592	9.73
226.81	1.54
227.028	79.36
227.246	62.98
227.464	42.5
227.682	-12.8
227.9	60.93
228.117	77.31
228.335	48.64
228.553	32.26
228.771	67.07
228.989	101.89
229.206	48.64
229.424	5.63
229.642	15.87
229.86	26.11
230.077	28.16
230.295	7.68
230.513	118.27
230.731	73.21
230.948	101.89
231.166	48.64
231.384	19.97
231.601	69.12
231.819	101.89
232.037	19.97
232.254	7.68
232.472	32.26
232.689	73.21
232.907	58.88
233.125	65.02
233.342	73.21
233.56	36.35
233.777	15.87
233.995	50.69
234.213	65.02
234.43	11.78
234.648	58.88
234.865	38.4
235.083	85.5
235.3	24.06
235.518	15.87
235.735	42.5
235.953	58.88
236.17	24.06
236.388	105.98
236.605	79.36
236.822	89.6
237.04	52.74
237.257	105.98
237.475	-6.66
237.692	91.65
237.909	58.88
238.127	62.98
238.344	105.98
238.562	17.92
238.779	50.69
238.996	15.87
239.214	7.68
239.431	58.88
239.648	97.79
239.865	69.12
240.083	15.87
240.3	15.87
240.517	56.83
240.735	36.35
240.952	65.02
241.169	52.74
241.386	105.98
241.603	-2.56
241.821	26.11
242.038	48.64
242.255	105.98
242.472	83.45
242.689	97.79
242.907	83.45
243.124	60.93
243.341	-18.94
243.558	17.92
243.775	81.41
243.992	44.54
244.209	122.37
244.426	93.69
244.643	60.93
244.86	138.75
245.078	40.45
245.295	9.73
245.512	38.4
245.729	-23.04
245.946	132.61
246.163	81.41
246.38	69.12
246.597	34.3
246.814	67.07
247.031	60.93
247.248	9.73
247.464	50.69
247.681	103.93
247.898	24.06
248.115	50.69
248.332	32.26
248.549	56.83
248.766	110.08
248.983	46.59
249.2	89.6
249.417	56.83
249.633	15.87
249.85	50.69
250.067	7.68
250.284	73.21
250.501	108.03
250.717	97.79
250.934	32.26
251.151	24.06
251.368	34.3
251.585	95.74
251.801	17.92
252.018	81.41
252.235	122.37
252.451	50.69
252.668	42.5
252.885	124.41
253.102	89.6
253.318	-47.62
253.535	69.12
253.752	93.69
253.968	7.68
254.185	32.26
254.401	73.21
254.618	19.97
254.835	50.69
255.051	101.89
255.268	3.58
255.484	56.83
255.701	7.68
255.917	56.83
256.134	-41.47
256.351	77.31
256.567	3.58
256.784	3.58
257	-64
257.217	36.35
257.433	77.31
257.65	85.5
257.866	89.6
258.082	3.58
258.299	-37.38
258.515	-0.51
258.732	36.35
258.948	-47.62
259.165	67.07
259.381	30.21
259.597	-6.66
259.814	-4.61
260.03	105.98
260.246	40.45
260.463	79.36
260.679	79.36
260.895	62.98
261.112	134.65
261.328	26.11
261.544	-6.66
261.761	151.04
261.977	69.12
262.193	40.45
262.409	30.21
262.626	67.07
262.842	85.5
263.058	-23.04
263.274	108.03
263.49	60.93
263.707	99.84
263.923	91.65
264.139	11.78
264.355	40.45
264.571	65.02
264.787	5.63
265.004	69.12
265.22	83.45
265.436	46.59
265.652	134.65
265.868	60.93
266.084	-8.7
266.3	120.32
266.516	40.45
266.732	-43.52
266.948	-2.56
267.164	36.35
267.38	15.87
267.596	67.07
267.812	26.11
268.028	40.45
268.244	108.03
268.46	48.64
268.676	91.65
268.892	48.64
269.108	67.07
269.324	-25.09
269.54	89.6
269.756	69.12
269.972	36.35
270.188	7.68
270.403	-6.66
270.619	-18.94
270.835	75.26
271.051	24.06
271.267	48.64
271.483	-20.99
271.698	48.64
271.914	58.88
272.13	15.87
272.346	15.87
272.562	48.64
272.777	-8.7
272.993	-16.9
273.209	54.78
273.425	-25.09
273.64	15.87
273.856	71.17
274.072	36.35
274.287	22.02
274.503	73.21
274.719	81.41
274.934	7.68
275.15	56.83
275.366	124.41
275.581	-10.75
275.797	48.64
276.012	87.55
276.228	58.88
276.444	24.06
276.659	97.79
276.875	32.26
277.09	99.84
277.306	40.45
277.521	124.41
277.737	34.3
277.952	40.45
278.168	60.93
278.383	52.74
278.599	19.97
278.814	19.97
279.03	26.11
279.245	99.84
279.461	26.11
279.676	73.21
279.892	42.5
280.107	-18.94
280.322	1.54
280.538	-31.23
280.753	24.06
280.969	60.93
281.184	-0.51
281.399	24.06
281.615	101.89
281.83	146.94
282.045	71.17
282.26	87.55
282.476	42.5
282.691	46.59
282.906	-35.33
283.122	60.93
283.337	26.11
283.552	95.74
283.767	19.97
283.983	40.45
284.198	44.54
284.413	69.12
284.628	-18.94
284.843	105.98
285.058	42.5
285.274	73.21
285.489	-6.66
285.704	52.74
285.919	24.06
286.134	24.06
286.349	56.83
286.564	26.11
286.779	151.04
286.995	48.64
287.21	75.26
287.425	-2.56
287.64	32.26
287.855	69.12
288.07	-8.7
288.285	93.69
288.5	114.17
288.715	144.89
288.93	28.16
289.145	40.45
289.36	58.88
289.575	128.51
289.79	65.02
290.004	46.59
290.219	79.36
290.434	50.69
290.649	-47.62
290.864	-6.66
291.079	13.82
291.294	56.83
291.509	108.03
291.724	42.5
291.938	9.73
292.153	91.65
292.368	38.4
292.583	85.5
292.798	34.3
293.012	89.6
293.227	52.74
293.442	32.26
293.657	17.92
293.871	71.17
294.086	140.8
294.301	136.7
294.516	60.93
294.73	89.6
294.945	40.45
295.16	69.12
295.374	48.64
295.589	93.69
295.804	42.5
296.018	95.74
296.233	58.88
296.447	44.54
296.662	-16.9
296.877	161.28
297.091	17.92
297.306	67.07
297.52	30.21
297.735	85.5
297.949	17.92
298.164	69.12
298.378	81.41
298.593	44.54
298.807	-16.9
299.022	120.32
299.236	101.89
299.451	101.89
299.665	-6.66
299.88	73.21
300.094	28.16
300.309	-39.42
300.523	19.97
300.737	89.6
300.952	15.87
301.166	81.41
301.381	38.4
301.595	60.93
301.809	9.73
302.024	40.45
302.238	52.74
302.452	69.12
302.667	28.16
302.881	77.31
303.095	44.54
303.309	19.97
303.524	-14.85
303.738	196.09
303.952	-25.09
304.166	77.31
304.381	50.69
304.595	105.98
304.809	-4.61
305.023	42.5
305.237	48.64
305.452	19.97
305.666	56.83
305.88	77.31
306.094	138.75
306.308	85.5
306.522	58.88
306.736	24.06
306.95	48.64
307.164	52.74
307.379	36.35
307.593	34.3
307.807	91.65
308.021	71.17
308.235	138.75
308.449	65.02
308.663	81.41
308.877	189.95
309.091	52.74
309.305	142.85
309.519	24.06
309.733	124.41
309.947	81.41
310.161	81.41
310.374	103.93
310.588	67.07
310.802	32.26
311.016	7.68
311.23	65.02
311.444	65.02
311.658	58.88
311.872	91.65
312.085	169.47
312.299	146.94
312.513	24.06
312.727	52.74
312.941	-33.28
313.154	81.41
313.368	-20.99
313.582	130.56
313.796	71.17
314.009	77.31
314.223	15.87
314.437	24.06
314.651	40.45
314.864	56.83
315.078	112.13
315.292	130.56
315.505	54.78
315.719	34.3
315.933	24.06
316.146	26.11
316.36	56.83
316.573	34.3
316.787	91.65
317.001	69.12
317.214	52.74
317.428	32.26
317.641	75.26
317.855	36.35
318.068	1.54
318.282	42.5
318.495	50.69
318.709	81.41
318.922	42.5
319.136	56.83
319.349	-0.51
319.563	-12.8
319.776	56.83
319.99	3.58
320.203	71.17
320.417	48.64
320.63	-8.7
320.843	40.45
321.057	11.78
321.27	42.5
321.483	89.6
321.697	67.07
321.91	58.88
322.124	81.41
322.337	85.5
322.55	-25.09
322.763	50.69
322.977	-12.8
323.19	19.97
323.403	48.64
323.617	42.5
323.83	134.65
324.043	97.79
324.256	124.41
324.469	30.21
324.683	52.74
324.896	36.35
325.109	3.58
325.322	28.16
325.535	30.21
325.748	73.21
325.962	77.31
326.175	28.16
326.388	52.74
326.601	56.83
326.814	36.35
327.027	34.3
327.24	110.08
327.453	9.73
327.666	58.88
327.879	114.17
328.092	97.79
328.305	73.21
328.518	-2.56
328.731	81.41
328.944	108.03
329.157	138.75
329.37	62.98
329.583	75.26
329.796	105.98
330.009	9.73
330.222	52.74
330.435	65.02
330.648	48.64
330.861	73.21
331.073	93.69
331.286	81.41
331.499	48.64
331.712	11.78
331.925	50.69
332.138	75.26
332.35	99.84
332.563	-37.38
332.776	118.27
332.989	46.59
333.202	9.73
333.414	7.68
333.627	32.26
333.84	17.92
334.053	130.56
334.265	-29.18
334.478	79.36
334.691	34.3
334.903	48.64
335.116	36.35
335.329	75.26
335.541	-20.99
335.754	54.78
335.966	44.54
336.179	-18.94
336.392	93.69
336.604	65.02
336.817	52.74
337.029	93.69
337.242	77.31
337.454	91.65
337.667	40.45
337.88	97.79
338.092	24.06
338.305	-0.51
338.517	60.93
338.729	73.21
338.942	40.45
339.154	28.16
339.367	52.74
339.579	75.26
339.792	42.5
340.004	91.65
340.217	71.17
340.429	75.26
340.641	19.97
340.854	7.68
341.066	1.54
341.278	108.03
341.491	114.17
341.703	118.27
341.915	52.74
342.128	101.89
342.34	77.31
342.552	24.06
342.764	105.98
342.977	50.69
343.189	-8.7
343.401	75.26
343.613	40.45
343.826	-0.51
344.038	9.73
344.25	42.5
344.462	65.02
344.674	81.41
344.886	28.16
345.099	81.41
345.311	5.63
345.523	9.73
345.735	-49.66
345.947	62.98
346.159	44.54
346.371	89.6
346.583	77.31
346.795	91.65
347.007	48.64
347.219	85.5
347.431	24.06
347.643	114.17
347.855	-8.7
348.067	52.74
348.279	65.02
348.491	79.36
348.703	40.45
348.915	28.16
349.127	-14.85
349.339	34.3
349.551	17.92
349.763	69.12
349.975	77.31
350.187	87.55
350.399	44.54
350.61	56.83
350.822	-10.75
351.034	58.88
351.246	24.06
351.458	26.11
351.669	132.61
351.881	134.65
352.093	11.78
352.305	99.84
352.517	15.87
352.728	28.16
352.94	11.78
353.152	122.37
353.363	62.98
353.575	77.31
353.787	52.74
353.999	52.74
354.21	93.69
354.422	46.59
354.633	50.69
354.845	-20.99
355.057	79.36
355.268	81.41
355.48	-0.51
355.692	26.11
355.903	56.83
356.115	46.59
356.326	56.83
356.538	140.8
356.749	58.88
356.961	122.37
357.172	58.88
357.384	34.3
357.595	101.89
357.807	-0.51
358.018	36.35
358.23	54.78
358.441	163.33
358.653	81.41
358.864	-4.61
359.075	-20.99
359.287	46.59
359.498	118.27
359.709	101.89
359.921	108.03
360.132	81.41
360.344	24.06
360.555	58.88
360.766	67.07
360.977	19.97
361.189	79.36
361.4	-33.28
361.611	36.35
361.823	71.17
362.034	69.12
362.245	17.92
362.456	159.23
362.667	48.64
362.879	-14.85
363.09	65.02
363.301	97.79
363.512	19.97
363.723	83.45
363.935	85.5
364.146	65.02
364.357	38.4
364.568	89.6
364.779	89.6
364.99	19.97
365.201	56.83
365.412	42.5
365.623	48.64
365.834	108.03
366.045	28.16
366.256	124.41
366.467	22.02
366.678	73.21
366.889	44.54
367.1	40.45
367.311	77.31
367.522	36.35
367.733	13.82
367.944	50.69
368.155	48.64
368.366	40.45
368.577	97.79
368.788	42.5
368.999	-33.28
369.209	124.41
369.42	65.02
369.631	81.41
369.842	81.41
370.053	118.27
370.264	77.31
370.474	1.54
370.685	93.69
370.896	46.59
371.107	95.74
371.317	9.73
371.528	97.79
371.739	97.79
371.95	97.79
372.16	28.16
372.371	26.11
372.582	15.87
372.792	56.83
373.003	28.16
373.214	91.65
373.424	42.5
373.635	34.3
373.846	56.83
374.056	77.31
374.267	153.09
374.477	9.73
374.688	65.02
374.898	87.55
375.109	85.5
375.319	15.87
375.53	81.41
375.74	24.06
375.951	50.69
376.161	60.93
376.372	73.21
376.582	114.17
376.793	91.65
377.003	122.37
377.214	32.26
377.424	112.13
377.635	52.74
377.845	73.21
378.055	85.5
378.266	-14.85
378.476	50.69
378.686	79.36
378.897	97.79
379.107	44.54
379.317	122.37
379.528	89.6
379.738	56.83
379.948	118.27
380.158	175.61
380.369	36.35
380.579	48.64
380.789	-18.94
380.999	62.98
381.21	130.56
381.42	79.36
381.63	48.64
381.84	69.12
382.05	71.17
382.261	34.3
382.471	67.07
382.681	81.41
382.891	85.5
383.101	101.89
383.311	-33.28
383.521	17.92
383.731	52.74
383.941	114.17
384.151	122.37
384.361	48.64
384.571	67.07
384.781	50.69
384.991	110.08
385.201	101.89
385.411	97.79
385.621	85.5
385.831	97.79
386.041	67.07
386.251	130.56
386.461	54.78
386.671	67.07
386.881	146.94
387.091	65.02
387.301	116.22
387.511	24.06
387.72	114.17
387.93	44.54
388.14	-8.7
388.35	81.41
388.56	89.6
388.769	177.66
388.979	44.54
389.189	50.69
389.399	110.08
389.609	56.83
389.818	126.46
390.028	167.42
390.238	65.02
390.447	48.64
390.657	99.84
390.867	24.06
391.076	75.26
391.286	75.26
391.496	91.65
391.705	89.6
391.915	40.45
392.125	38.4
392.334	67.07
392.544	114.17
392.753	79.36
392.963	105.98
393.172	44.54
393.382	114.17
393.591	110.08
393.801	97.79
394.01	105.98
394.22	81.41
394.429	58.88
394.639	34.3
394.848	52.74
395.058	110.08
395.267	73.21
395.477	99.84
395.686	112.13
395.895	124.41
396.105	159.23
396.314	130.56
396.524	159.23
396.733	103.93
396.942	163.33
397.152	38.4
397.361	206.33
397.57	153.09
397.78	97.79
397.989	110.08
398.198	185.85
398.407	40.45
398.617	105.98
398.826	146.94
399.035	97.79
399.244	103.93
399.453	138.75
399.663	159.23
399.872	196.09
400.081	89.6
400.29	189.95
400.499	114.17
400.708	97.79
400.917	134.65
401.127	136.7
401.336	103.93
401.545	116.22
401.754	161.28
401.963	146.94
402.172	165.37
402.381	114.17
402.59	122.37
402.799	103.93
403.008	171.52
403.217	196.09
403.426	146.94
403.635	175.61
403.844	151.04
404.053	122.37
404.262	189.95
404.471	181.76
404.68	155.13
404.888	200.19
405.097	175.61
405.306	230.91
405.515	222.72
405.724	114.17
405.933	200.19
406.142	224.76
406.35	155.13
406.559	192
406.768	228.86
406.977	132.61
407.185	302.59
407.394	187.9
407.603	138.75
407.812	179.71
408.02	271.87
408.229	220.67
408.438	208.38
408.646	237.05
408.855	275.96
409.064	226.81
409.272	241.15
409.481	298.49
409.69	280.06
409.898	204.28
410.107	310.78
410.315	257.53
410.524	327.16
410.733	368.12
410.941	343.55
411.15	376.31
411.358	384.51
411.567	361.98
411.775	386.55
411.984	384.51
412.192	458.23
412.401	359.93
412.609	482.81
412.818	482.81
413.026	488.95
413.234	474.62
413.443	468.47
413.651	523.77
413.86	507.38
414.068	531.96
414.276	531.96
414.485	601.59
414.693	636.41
414.901	665.08
415.11	767.48
415.318	642.55
415.526	583.16
415.734	732.66
415.943	703.99
416.151	753.14
416.359	757.24
416.567	794.1
416.776	839.16
416.984	900.59
417.192	925.17
417.4	927.22
417.608	908.79
417.817	966.13
418.025	1068.53
418.233	1050.1
418.441	1007.09
418.649	1201.65
418.857	1220.08
419.065	1211.89
419.273	1222.13
419.481	1232.37
419.689	1326.57
419.897	1451.5
420.105	1326.57
420.313	1451.5
420.521	1404.39
420.729	1582.57
420.937	1519.08
421.145	1705.45
421.353	1836.52
421.561	1904.1
421.769	1844.71
421.977	1840.61
422.185	1918.43
422.393	1988.07
422.601	2137.57
422.809	2127.33
423.017	1969.63
423.224	2153.95
423.432	2434.52
423.64	2325.98
423.848	2473.43
424.056	2416.09
424.263	2641.37
424.471	2719.19
424.679	2661.85
424.887	2780.63
425.094	3030.48
425.302	2815.45
425.51	2930.13
425.718	3096.02
425.925	3038.67
426.133	3243.47
426.341	3407.31
426.548	3464.65
426.756	3577.29
426.964	3636.68
427.171	3800.52
427.379	4113.86
427.586	4031.94
427.794	4001.22
428.001	4343.23
428.209	4603.32
428.417	4570.55
428.624	4734.39
428.832	4767.16
429.039	4740.54
429.247	4681.14
429.454	5221.81
429.662	5539.24
429.869	5213.62
430.076	5696.94
430.284	5356.97
430.491	5545.39
430.699	5969.32
430.906	5834.15
431.114	6012.32
431.321	6198.69
431.528	6323.62
431.736	6774.17
431.943	7032.21
432.15	6954.39
432.358	7028.12
432.565	7376.27
432.772	7325.07
432.979	7656.84
433.187	7593.36
433.394	7726.47
433.601	8254.85
433.808	8103.3
434.016	8271.23
434.223	8551.81
434.43	9018.74
434.637	8945.02
434.844	9493.87
435.052	9854.31
435.259	9418.1
435.466	9530.73
435.673	9653.61
435.88	10206.56
436.087	10847.58
436.294	10804.57
436.501	10519.9
436.708	10524
436.915	11212.12
437.122	11609.42
437.329	11361.62
437.537	11898.19
437.743	12084.55
437.95	12021.06
438.157	12911.93
438.364	13040.95
438.571	13167.93
438.778	13032.76
438.985	14365.99
439.192	13663.54
439.399	14150.95
439.606	13737.26
439.813	14703.9
440.02	15461.65
440.227	15248.66
440.433	15176.98
440.64	15613.2
440.847	15295.77
441.054	15772.94
441.261	16950.53
441.467	16633.09
441.674	16973.05
441.881	17474.81
442.088	17480.95
442.294	17415.41
442.501	18025.71
442.708	18361.58
442.914	18883.81
443.121	19807.44
443.328	19348.7
443.534	20415.69
443.741	19954.9
443.948	19700.95
444.154	21179.58
444.361	21081.28
444.568	21075.13
444.774	21083.33
444.981	21527.74
445.187	22140.08
445.394	23094.43
445.6	22451.37
445.807	24839.3
446.013	23719.06
446.22	24018.07
446.426	25111.68
446.633	25494.65
446.839	26072.18
447.046	25205.89
447.252	26172.53
447.459	26465.39
447.665	26401.9
447.871	27622.49
448.078	28718.15
448.284	27042.92
448.491	28396.62
448.697	29283.39
448.903	29848.63
449.11	30020.66
449.316	29496.38
449.522	29465.66
449.728	30723.12
449.935	30678.06
450.141	30811.18
450.347	31591.45
450.553	30481.45
450.76	30727.21
450.966	32252.95
451.172	31663.13
451.378	32146.45
451.584	31476.77
451.791	32363.54
451.997	32381.97
452.203	33184.77
452.409	33084.42
452.615	33078.28
452.821	31779.87
453.027	31149.09
453.233	32988.17
453.44	31704.09
453.646	31779.87
453.852	32218.13
454.058	32560.14
454.264	31720.48
454.47	32588.81
454.676	31697.95
454.882	32480.27
455.088	29746.23
455.294	30092.34
455.5	30876.71
455.705	31018.02
455.911	29903.93
456.117	29217.86
456.323	28843.08
456.529	27303.01
456.735	28818.5
456.941	27540.57
457.147	27556.96
457.352	26713.19
457.558	26326.13
457.764	26260.59
457.97	25795.7
458.176	25474.17
458.381	25390.2
458.587	24401.04
458.793	23786.65
458.999	22881.44
459.204	24261.77
459.41	23676.05
459.616	22082.74
459.821	22088.88
460.027	22242.48
460.233	21785.78
460.438	20653.25
460.644	20759.75
460.85	20081.87
461.055	19735.76
461.261	19782.87
461.466	17947.89
461.672	17446.13
461.878	18781.41
462.083	17960.17
462.289	17116.41
462.494	17014.01
462.7	16377.09
462.905	15744.27
463.111	16555.27
463.316	16680.19
463.522	15987.98
463.727	16123.15
463.932	16229.64
464.138	15973.64
464.343	16084.23
464.549	15619.35
464.754	15912.21
464.959	16073.99
465.165	15484.18
465.37	15007
465.575	14820.64
465.781	15148.31
465.986	15369.49
466.191	14837.02
466.397	14322.98
466.602	13790.51
466.807	14343.46
467.012	14224.68
467.218	14443.81
467.423	14140.71
467.628	14363.94
467.833	14968.09
468.038	14277.93
468.244	13778.22
468.449	14468.39
468.654	14026.03
468.859	13724.97
469.064	13473.07
469.269	13141.3
469.474	13323.57
469.679	13489.46
469.885	13208.89
470.09	13495.6
470.295	13225.27
470.5	13018.43
470.705	12961.08
470.91	12705.09
471.115	12629.31
471.32	12848.44
471.525	12676.41
471.73	12340.55
471.935	12363.08
472.139	12008.78
472.344	12019.02
472.549	12096.84
472.754	11892.04
472.959	11642.19
473.164	11337.04
473.369	11230.55
473.574	11486.54
473.778	11396.43
473.983	11357.52
474.188	11363.67
474.393	10841.43
474.598	10937.69
474.802	10962.26
475.007	10653.02
475.212	10739.04
475.417	10534.24
475.621	10446.18
475.826	10552.67
476.031	10196.32
476.235	10243.43
476.44	10075.49
476.645	10050.92
476.849	9862.51
477.054	9686.38
477.259	9756.01
477.463	9704.81
477.668	9389.42
477.872	9604.46
478.077	9436.53
478.282	9276.79
478.486	9020.79
478.691	9098.61
478.895	9325.94
479.1	9026.93
479.304	8859
479.509	9016.69
479.713	8781.18
479.918	8506.75
480.122	8596.86
480.326	8775.03
480.531	8783.23
480.735	8682.88
480.94	8541.57
481.144	8734.07
481.348	8242.56
481.553	8455.55
481.757	8250.75
481.961	8318.34
482.166	8486.27
482.37	8299.91
482.574	8232.32
482.778	8234.37
482.983	8603
483.187	8435.07
483.391	8420.74
483.595	8240.51
483.8	8156.55
484.004	8277.38
484.208	8463.74
484.412	8306.05
484.616	8361.34
484.821	8281.47
485.025	8170.88
485.229	8465.79
485.433	8125.83
485.637	8289.67
485.841	8228.23
486.045	8310.15
486.249	8304
486.453	8232.32
486.657	8291.71
486.861	8197.51
487.065	8322.43
487.269	8285.57
487.473	8078.72
487.677	8478.08
487.881	8332.67
488.085	8553.85
488.289	8347.01
488.493	8336.77
488.697	8414.59
488.901	8375.68
489.105	8449.41
489.309	8312.19
489.512	8338.82
489.716	8504.7
489.92	8361.34
490.124	8447.36
490.328	8494.46
490.531	8387.97
490.735	8418.69
490.939	8574.33
491.143	8428.93
491.346	8494.46
491.55	8537.47
491.754	8715.64
491.958	8635.77
492.161	8557.95
492.365	8846.71
492.569	8850.81
492.772	8766.84
492.976	8699.26
493.18	8738.17
493.383	9143.67
493.587	9010.55
493.79	9219.44
493.994	8879.48
494.197	9276.79
494.401	9223.54
494.605	9203.06
494.808	9422.19
495.012	9160.05
495.215	9567.6
495.419	9545.07
495.622	9350.51
495.825	9467.25
496.029	9530.73
496.232	10018.15
496.436	9729.39
496.639	9944.42
496.843	10100.07
497.046	10165.6
497.249	10208.61
497.453	10225
497.656	10437.98
497.859	10294.63
498.063	10796.38
498.266	10757.47
498.469	10845.53
498.673	10734.94
498.876	10868.06
499.079	11019.61
499.282	11054.42
499.485	11466.07
499.689	11378
499.892	11449.68
500.095	11666.77
500.298	11849.04
500.501	11853.13
500.705	12127.56
500.908	12281.16
501.111	12148.04
501.314	12485.95
501.517	12557.63
501.72	12713.28
501.923	12561.73
502.126	12897.6
502.329	13106.49
502.532	12950.84
502.735	13296.95
502.938	13483.31
503.141	13755.69
503.344	13874.48
503.547	13798.7
503.75	13952.3
503.953	14159.14
504.156	14275.88
504.359	14501.15
504.562	14515.49
504.765	14941.47
504.968	14820.64
505.17	14765.34
505.373	15242.52
505.576	15525.14
505.779	15594.77
505.982	15680.78
506.185	16108.81
506.387	15885.58
506.59	16321.8
506.793	16542.98
506.996	16565.51
507.198	16792.83
507.401	16860.41
507.604	17022.2
507.807	17097.98
508.009	17327.35
508.212	17472.76
508.415	17790.19
508.617	17825.01
508.82	18083.05
509.022	17843.44
509.225	18091.24
509.428	18699.49
509.63	18582.76
509.833	18756.83
510.035	19121.37
510.238	19168.48
510.44	19451.1
510.643	19571.93
510.845	19696.85
511.048	19537.11
511.25	20264.14
511.453	20141.26
511.655	20812.99
511.858	20565.19
512.06	20530.37
512.262	21032.13
512.465	20866.24
512.667	21490.87
512.87	21507.26
513.072	21533.88
513.274	22232.24
513.477	22410.41
513.679	22361.26
513.881	22697.13
514.084	22742.18
514.286	22750.37
514.488	23018.66
514.69	23551.13
514.893	23577.75
515.095	23688.34
515.297	23794.84
515.499	24204.43
515.701	24462.47
515.904	24491.15
516.106	24996.99
516.308	25160.83
516.51	25099.39
516.712	25535.61
516.914	25330.81
517.116	25959.54
517.318	25793.65
517.52	25975.92
517.722	26221.68
517.925	26676.33
518.127	26989.67
518.329	27284.58
518.531	26766.44
518.733	27288.67
518.935	27616.35
519.136	27745.37
519.338	27870.29
519.54	28230.74
519.742	28456.01
519.944	28572.75
520.146	29152.32
520.348	29289.54
520.55	28941.38
520.752	29293.63
520.954	29860.92
521.155	29490.24
521.357	29985.85
521.559	30463.02
521.761	30753.83
521.963	30477.36
522.164	30839.85
522.366	30772.27
522.568	31140.9
522.77	31341.6
522.971	31378.47
523.173	31525.92
523.375	31671.32
523.576	31695.9
523.778	31843.35
523.98	32461.84
524.181	32502.8
524.383	32683.02
524.584	32674.83
524.786	33014.79
524.988	32775.18
525.189	33207.3
525.391	33641.47
525.592	33369.09
525.794	33874.94
525.995	33969.15
526.197	33729.53
526.398	33954.81
526.6	33811.45
526.801	34069.5
527.003	34139.13
527.204	34798.57
527.406	34417.65
527.607	34819.05
527.808	34989.03
528.01	34358.26
528.211	35021.8
528.412	35523.55
528.614	34999.27
528.815	34827.24
529.016	35974.11
529.218	35242.98
529.419	35687.39
529.62	35697.63
529.822	35320.81
530.023	35572.71
530.224	35705.82
530.425	35707.87
530.626	35582.95
530.828	35527.65
531.029	36230.1
531.23	35896.28
531.431	35812.32
531.632	36058.07
531.833	36488.15
532.035	36056.03
532.236	35959.77
532.437	36428.76
532.638	36017.11
532.839	36248.53
533.04	36244.44
533.241	35865.56
533.442	36451.28
533.643	36398.04
533.844	36213.72
534.045	36320.21
534.246	35695.58
534.447	36525.01
534.648	36199.38
534.849	36420.56
535.05	35838.94
535.251	36432.85
535.451	36193.24
535.652	36602.83
535.853	36367.32
536.054	36129.75
536.255	36322.26
536.456	36066.27
536.657	36606.93
536.857	36373.46
537.058	36383.7
537.259	36805.58
537.46	36414.42
537.66	36168.66
537.861	36371.41
538.062	36221.91
538.263	36467.67
538.463	36096.99
538.664	36539.35
538.865	36473.81
539.065	36322.26
539.266	35967.96
539.466	36369.37
539.667	35797.98
539.868	36608.98
540.068	36170.71
540.269	35920.86
540.469	36391.89
540.67	36111.32
540.87	36350.93
541.071	36346.84
541.271	36500.44
541.472	35836.89
541.672	36084.7
541.873	35660.77
542.073	35605.47
542.274	36273.11
542.474	35689.44
542.675	35777.5
542.875	36746.19
543.075	36013.02
543.276	35480.55
543.476	36232.15
543.676	35822.56
543.877	36336.6
544.077	36000.73
544.277	36008.92
544.478	35853.28
544.678	36041.69
544.878	35836.89
545.078	35816.41
545.279	35810.27
545.479	35587.04
545.679	35722.21
545.879	36103.13
546.079	36142.04
546.28	35787.74
546.48	35582.95
546.68	35611.62
546.88	36090.84
547.08	35470.31
547.28	35519.46
547.48	35351.52
547.68	35546.08
547.88	35544.03
548.081	35775.45
548.281	35912.67
548.481	35322.85
548.681	35642.34
548.881	35826.65
549.081	35433.44
549.28	35638.24
549.48	35685.34
549.68	35267.56
549.88	36043.74
550.08	35427.3
550.28	35066.86
550.48	35681.25
550.68	35576.8
550.88	35507.17
551.08	35587.04
551.279	35462.11
551.479	35607.52
551.679	35308.52
551.879	35310.57
552.079	35644.38
552.278	35163.11
552.478	35189.74
552.678	35916.76
552.878	35660.77
553.077	35546.08
553.277	35118.06
553.477	35740.64
553.676	35503.07
553.876	35357.67
554.076	35374.05
554.275	35341.28
554.475	34423.79
554.674	34939.88
554.874	35253.22
555.074	34982.89
555.273	35230.69
555.473	35185.64
555.672	34817
555.872	35357.67
556.071	35148.78
556.271	35247.08
556.47	34870.25
556.67	34739.18
556.869	34743.28
557.068	34937.83
557.268	34976.75
557.467	34735.09
557.667	34884.59
557.866	34518
558.065	34542.58
558.265	34669.55
558.464	34823.15
558.663	34708.46
558.863	34325.49
559.062	34876.4
559.261	34327.54
559.461	34665.46
559.66	34323.44
559.859	34485.23
560.058	34018.3
560.258	34221.05
560.457	34153.46
560.656	34491.38
560.855	34208.76
561.054	34315.25
561.253	33686.53
561.453	34098.17
561.652	33967.1
561.851	34452.47
562.05	33639.42
562.249	33774.59
562.448	33825.79
562.647	34118.65
562.846	33747.97
563.045	33690.62
563.244	33094.66
563.443	33995.77
563.642	33518.59
563.841	33377.28
564.04	32816.14
564.239	33500.16
564.438	33543.17
564.637	33338.37
564.836	33360.9
565.035	33008.65
565.234	33043.46
565.432	32959.5
565.631	32859.15
565.83	32965.64
566.029	32793.61
566.228	32537.62
566.427	32554
566.625	32803.85
566.824	32224.28
567.023	32828.43
567.222	31970.33
567.42	32568.34
567.619	32343.06
567.818	32525.33
568.016	32531.47
568.215	32572.43
568.414	32197.65
568.612	32465.94
568.811	32338.96
569.01	31824.92
569.208	31562.78
569.407	32054.29
569.605	31491.1
569.804	32148.5
570.002	31669.28
570.201	31847.45
570.4	31378.47
570.598	31226.92
570.797	31650.85
570.995	31282.21
571.193	31280.16
571.392	31155.24
571.59	31194.15
571.789	31255.59
571.987	31294.5
572.186	31122.47
572.384	30706.73
572.582	30972.97
572.781	30587.95
572.979	30403.63
573.177	30798.89
573.376	30858.28
573.574	30252.08
573.772	30706.73
573.971	30299.19
574.169	30561.33
574.367	29854.78
574.565	30274.61
574.763	30090.29
574.962	29856.82
575.16	29791.29
575.358	29903.93
575.556	29735.99
575.754	30094.39
575.952	29488.19
576.151	30032.95
576.349	29494.33
576.547	29529.15
576.745	29334.59
576.943	29631.55
577.141	29152.32
577.339	29654.08
577.537	29131.84
577.735	29234.24
577.933	28599.37
578.131	29109.32
578.329	28978.25
578.527	28527.69
578.725	28943.43
578.923	29162.56
579.121	28800.07
579.319	28337.23
579.516	28630.09
579.714	28630.09
579.912	28271.7
580.11	28453.97
580.308	28292.18
580.506	28357.71
580.704	28107.86
580.901	28034.13
581.099	28423.25
581.297	27935.83
581.495	27821.14
581.692	27925.59
581.89	27542.62
582.088	27970.65
582.285	27526.24
582.483	27669.59
582.681	27692.12
582.878	27556.96
583.076	27470.94
583.274	27565.15
583.471	26973.28
583.669	27069.54
583.866	27051.11
584.064	27274.34
584.262	26813.54
584.459	27165.79
584.657	26881.13
584.854	27090.02
585.052	26473.58
585.249	26743.91
585.447	26737.77
585.644	26379.37
585.841	26661.99
586.039	26422.38
586.236	26317.93
586.434	26106.99
586.631	25928.82
586.828	25975.92
587.026	25937.01
587.223	25818.23
587.42	25861.24
587.618	25670.78
587.815	25736.31
588.012	25609.34
588.21	25564.28
588.407	25932.92
588.604	25355.39
588.801	25066.63
588.999	25472.12
589.196	25345.15
589.393	25451.64
589.59	25371.77
589.787	25306.24
589.984	24824.97
590.182	24931.46
590.379	25033.86
590.576	24605.83
590.773	24839.3
590.97	24325.26
591.167	24741
591.364	24288.4
591.561	24689.8
591.758	24462.47
591.955	24308.88
592.152	24249.49
592.349	24188.05
592.546	24210.57
592.743	24067.22
592.94	23839.89
593.137	24040.59
593.334	24226.96
593.531	23837.84
593.727	23661.72
593.924	23643.29
594.121	23504.03
594.318	23569.56
594.515	23172.25
594.712	23495.83
594.908	23147.68
595.105	23051.42
595.302	23092.38
595.499	23006.37
595.696	22867.11
595.892	22928.55
596.089	22949.03
596.286	22910.11
596.482	22899.87
596.679	22992.03
596.876	22846.63
597.072	22750.37
597.269	22598.82
597.466	22863.01
597.662	22305.96
597.859	22394.03
598.055	22279.34
598.252	22410.41
598.448	22611.11
598.645	22037.68
598.841	22006.96
599.038	22015.15
599.234	22211.76
599.431	21781.68
599.627	21787.83
599.824	21984.43
600.02	21828.79
600.217	21697.72
600.413	21621.94
600.609	21298.36
600.806	21726.39
601.002	21519.54
601.198	21177.53
601.395	21314.75
601.591	21482.68
601.787	21175.48
601.984	20886.72
602.18	21152.96
602.376	21019.84
602.572	21009.6
602.769	20866.24
602.965	20470.98
603.161	20692.16
603.357	20673.73
603.553	20294.86
603.75	20538.57
603.946	20257.99
604.142	20470.98
604.338	20065.49
604.534	20327.63
604.73	20161.74
604.926	20077.77
605.122	20395.21
605.318	19930.32
605.514	19926.22
605.71	19999.95
605.906	20126.92
606.102	19883.22
606.298	19852.5
606.494	19557.59
606.69	19827.92
606.886	19670.23
607.082	19588.31
607.278	19616.98
607.474	19219.67
607.67	19827.92
607.866	19225.82
608.062	19576.02
608.257	19244.25
608.453	19365.08
608.649	19479.77
608.845	19127.52
609.041	19201.24
609.236	19215.58
609.432	18846.94
609.628	18984.16
609.824	19066.08
610.019	19078.36
610.215	18973.92
610.411	18941.15
610.606	18701.54
610.802	18736.35
610.998	18779.36
611.193	18996.45
611.389	18554.08
611.584	18597.09
611.78	18480.36
611.976	18855.14
612.171	18494.69
612.367	18500.84
612.562	18539.75
612.758	18466.02
612.953	18181.35
613.149	18392.3
613.344	18142.44
613.539	18253.03
613.735	18308.33
613.93	18222.31
614.126	18095.34
614.321	18195.69
614.517	18050.28
614.712	18246.89
614.907	18083.05
615.103	18015.47
615.298	17992.94
615.493	18150.64
615.688	17999.09
615.884	17976.56
616.079	17747.19
616.274	18027.76
616.47	17982.7
616.665	17773.81
616.86	17515.76
617.055	17816.82
617.25	17591.54
617.445	17919.21
617.641	17392.89
617.836	17661.17
618.031	17542.39
618.226	17605.88
618.421	17366.26
618.616	17370.36
618.811	17181.95
619.006	17399.03
619.201	16788.74
619.396	17128.7
619.591	16874.75
619.786	17220.86
619.981	16661.76
620.176	16893.18
620.371	16481.54
620.566	16694.53
620.761	16403.72
620.956	16672
621.151	16186.63
621.346	16610.56
621.541	16162.06
621.735	16190.73
621.93	16014.6
622.125	15959.31
622.32	15801.61
622.515	15953.16
622.709	15785.23
622.904	15852.81
623.099	15660.31
623.294	15918.35
623.488	15586.58
623.683	15578.39
623.878	15367.45
624.072	15392.02
624.267	15209.75
624.462	15324.44
624.656	15064.35
624.851	15144.22
625.046	14814.49
625.24	14843.17
625.435	14830.88
625.629	14411.04
625.824	14458.15
626.018	14454.05
626.213	14359.84
626.407	14443.81
626.602	14210.34
626.796	14294.31
626.991	14153
627.185	14101.8
627.38	13874.48
627.574	14118.18
627.768	13897
627.963	13727.02
628.157	13647.15
628.352	13706.54
628.546	13331.76
628.74	13622.58
628.935	13215.03
629.129	13530.42
629.323	13200.69
629.517	13243.7
629.712	13245.75
629.906	12965.18
630.1	13040.95
630.294	13040.95
630.489	12852.54
630.683	13112.63
630.877	12750.14
631.071	12582.21
631.265	12893.5
631.459	12537.15
631.653	12430.66
631.848	12467.52
632.042	12363.08
632.236	12338.5
632.43	12023.11
632.624	12137.8
632.818	12135.75
633.012	12168.52
633.206	12033.35
633.4	11898.19
633.594	11865.42
633.788	11976.01
633.982	11711.82
634.176	11777.36
634.369	11597.14
634.563	11654.48
634.757	11517.26
634.951	11519.31
635.145	11537.74
635.339	11330.9
635.533	11298.13
635.726	11435.35
635.92	11107.67
636.114	11199.83
636.308	11019.61
636.501	11158.87
636.695	11093.33
636.889	10988.89
637.083	10845.53
637.276	10689.88
637.47	10706.27
637.664	10753.37
637.857	10667.36
638.051	10448.22
638.244	10665.31
638.438	10440.03
638.632	10532.19
638.825	10521.95
639.019	10231.14
639.212	10272.1
639.406	10261.86
639.599	10192.23
639.793	10050.92
639.986	10132.84
640.18	10081.64
640.373	9942.38
640.567	9891.18
640.76	9760.11
640.954	9719.15
641.147	9725.29
641.34	9543.02
641.534	9780.59
641.727	9612.65
641.92	9536.88
642.114	9461.1
642.307	9643.37
642.5	9305.46
642.694	9360.75
642.887	9227.64
643.08	9299.31
643.273	9289.07
643.467	9313.65
643.66	8936.82
643.853	9033.08
644.046	8803.71
644.239	9031.03
644.432	8818.04
644.626	8781.18
644.819	8834.43
645.012	8754.55
645.205	8695.16
645.398	8783.23
645.591	8701.31
645.784	8551.81
645.977	8539.52
646.17	8414.59
646.363	8568.19
646.556	8246.66
646.749	8363.39
646.942	8469.89
647.135	8400.26
647.328	8244.61
647.521	8258.95
647.714	8211.84
647.907	8193.41
648.099	8084.87
648.292	7994.76
648.485	8027.53
648.678	8068.48
648.871	8082.82
649.064	8062.34
649.256	7921.03
649.449	7812.49
649.642	7749
649.835	7689.61
650.027	7538.06
650.22	7523.73
650.413	7552.4
650.605	7427.47
650.798	7480.72
650.991	7488.91
651.183	7536.01
651.376	7359.89
651.568	7253.39
651.761	7349.65
651.954	7263.63
652.146	7052.69
652.339	7155.09
652.531	7073.17
652.724	7134.61
652.916	7161.23
653.109	7046.55
653.301	7155.09
653.494	7136.66
653.686	6839.7
653.879	6950.29
654.071	6727.07
654.263	6778.26
654.456	6929.81
654.648	6753.69
654.84	6659.48
655.033	6800.79
655.225	6759.83
655.417	6567.32
655.61	6675.87
655.802	6593.95
655.994	6561.18
656.186	6544.8
656.379	6487.45
656.571	6460.83
656.763	6364.57
656.955	6419.87
657.148	6258.08
657.34	6385.05
657.532	6208.93
657.724	6393.25
657.916	6120.87
658.108	6196.64
658.3	6190.5
658.492	6194.59
658.684	6045.09
658.876	5883.3
659.068	5942.69
659.26	6094.24
659.452	5778.86
659.644	5891.49
659.836	5811.62
660.028	5856.68
660.22	5856.68
660.412	5766.57
660.604	5774.76
660.796	5703.08
660.988	5676.46
661.18	5770.66
661.372	5774.76
661.563	5709.22
661.755	5506.48
661.947	5615.02
662.139	5531.05
662.331	5627.31
662.522	5553.58
662.714	5451.18
662.906	5406.13
663.097	5412.27
663.289	5252.53
663.481	5332.4
663.673	5307.82
663.864	5047.73
664.056	5279.15
664.247	5260.72
664.439	5092.79
664.631	5244.34
664.822	5111.22
665.014	5262.77
665.205	5195.18
665.397	5090.74
665.588	5080.5
665.78	5021.11
665.971	5012.92
666.163	5098.93
666.354	4994.48
666.546	4853.17
666.737	4758.97
666.929	4826.55
667.12	4920.76
667.311	4863.41
667.503	4779.45
667.694	4840.89
667.885	4787.64
668.077	4570.55
668.268	4646.33
668.459	4775.35
668.651	4740.54
668.842	4691.38
669.033	4586.94
669.224	4558.27
669.416	4681.14
669.607	4695.48
669.798	4623.8
669.989	4631.99
670.18	4447.68
670.371	4621.75
670.563	4439.48
670.754	4355.52
670.945	4341.18
671.136	4361.66
671.327	4404.67
671.518	4386.24
671.709	4464.06
671.9	4369.85
672.091	4468.16
672.282	4287.93
672.473	4283.84
672.664	4246.98
672.855	4165.06
673.046	4328.89
673.237	4292.03
673.428	4302.27
673.619	4187.58
673.809	4097.47
674	4113.86
674.191	4083.14
674.382	4120
674.573	4150.72
674.764	4177.34
674.954	4105.67
675.145	3943.88
675.336	3939.78
675.527	4111.81
675.717	3892.68
675.908	3988.93
676.099	3933.64
676.289	3980.74
676.48	4048.32
676.671	3894.72
676.861	3872.2
677.052	3841.48
677.243	3882.44
677.433	3874.24
677.624	3810.76
677.814	3878.34
678.005	3898.82
678.195	3726.79
678.386	3876.29
678.576	3767.75
678.767	3925.44
678.957	3833.29
679.148	3763.65
679.338	3747.27
679.529	3669.45
679.719	3691.98
679.909	3816.9
680.1	3763.65
680.29	3620.3
680.481	3573.19
680.671	3655.11
680.861	3581.39
681.052	3556.81
681.242	3610.06
681.432	3573.19
681.622	3499.47
681.813	3472.84
682.003	3558.86
682.193	3567.05
682.383	3743.17
682.573	3603.91
682.764	3505.61
682.954	3452.36
683.144	3589.58
683.334	3378.64
683.524	3587.53
683.714	3456.46
683.904	3427.79
684.094	3454.41
684.284	3374.54
684.474	3497.42
684.664	3427.79
684.854	3411.4
685.044	3343.82
685.234	3194.32
685.424	3335.63
685.614	3427.79
685.804	3251.66
685.994	3349.96
686.184	3362.25
686.374	3333.58
686.564	3319.25
686.753	3329.49
686.943	3266
687.133	3280.33
687.323	3218.89
687.513	3349.96
687.702	3179.98
687.892	3122.64
688.082	3214.8
688.272	3364.3
688.461	3124.69
688.651	3169.74
688.841	3149.26
689.03	3032.53
689.22	3014.1
689.41	3104.21
689.599	3116.5
689.789	3196.37
689.979	2989.52
690.168	3048.91
690.358	3007.95
690.547	3048.91
690.737	3079.63
690.926	3012.05
691.116	2969.04
691.305	3046.87
691.495	2958.8
691.684	2981.33
691.874	2911.7
692.063	3063.25
692.252	2885.08
692.442	2923.99
692.631	2858.45
692.82	2919.89
693.01	2778.58
693.199	2870.74
693.388	2854.36
693.578	2864.6
693.767	2842.07
693.956	2751.96
694.146	2739.67
694.335	2794.97
694.524	2665.94
694.713	2760.15
694.902	2702.81
695.092	2694.61
695.281	2686.42
695.47	2762.2
695.659	2672.09
695.848	2678.23
696.037	2762.2
696.226	2704.85
696.415	2708.95
696.604	2754.01
696.793	2596.31
696.982	2622.94
697.171	2729.43
697.36	2561.5
697.549	2680.28
697.738	2563.54
697.927	2604.5
698.116	2569.69
698.305	2514.39
698.494	2598.36
698.683	2547.16
698.872	2524.63
699.061	2549.21
699.25	2522.59
699.438	2614.74
699.627	2637.27
699.816	2620.89
700.005	2446.81
700.193	2581.98
700.382	2567.64
700.571	2616.79
700.76	2604.5
700.948	2596.31
701.137	2428.38
701.326	2483.67
701.514	2448.86
701.703	2469.34
701.892	2422.24
702.08	2618.84
702.269	2504.15
702.457	2428.38
702.646	2414.04
702.834	2483.67
703.023	2551.26
703.212	2477.53
703.4	2463.19
703.589	2368.99
703.777	2452.95
703.965	2405.85
704.154	2336.22
704.342	2407.9
704.531	2567.64
704.719	2524.63
704.907	2444.76
705.096	2317.79
705.284	2541.02
705.472	2426.33
705.661	2385.37
705.849	2479.58
706.037	2432.47
706.226	2299.36
706.414	2368.99
706.602	2325.98
706.79	2432.47
706.979	2334.17
707.167	2393.56
707.355	2452.95
707.543	2379.23
707.731	2418.14
707.919	2309.6
708.107	2293.21
708.296	2385.37
708.484	2303.45
708.672	2330.08
708.86	2309.6
709.048	2434.52
709.236	2268.64
709.424	2416.09
709.612	2227.68
709.8	2199.01
709.988	2340.32
710.176	2325.98
710.364	2346.46
710.551	2295.26
710.739	2346.46
710.927	2432.47
711.115	2334.17
711.303	2119.14
711.491	2278.88
711.679	2235.87
711.866	2242.01
712.054	2276.83
712.242	2252.25
712.43	2346.46
712.617	2147.81
712.805	2313.69
712.993	2276.83
713.181	2336.22
713.368	2239.97
713.556	2332.12
713.744	2276.83
713.931	2377.18
714.119	2215.39
714.306	2287.07
714.494	2317.79
714.682	2235.87
714.869	2209.25
715.057	2354.65
715.244	2262.49
715.432	2201.05
715.619	2223.58
715.807	2285.02
715.994	2227.68
716.182	2248.16
716.369	2203.1
716.556	2276.83
716.744	2199.01
716.931	2143.71
717.119	2205.15
717.306	2131.42
717.493	2184.67
717.681	2192.86
717.868	2278.88
718.055	2287.07
718.242	2164.19
718.43	2235.87
718.617	2166.24
718.804	2049.5
718.991	2172.38
719.179	2178.53
719.366	2149.86
719.553	2137.57
719.74	2106.85
719.927	2141.66
720.114	2248.16
720.301	2090.46
720.488	2047.46
720.676	2188.77
720.863	2244.06
721.05	2194.91
721.237	2092.51
721.424	2072.03
721.611	2162.14
721.798	2110.94
721.985	2174.43
722.172	2041.31
722.358	2053.6
722.545	2209.25
722.732	1994.21
722.919	2133.47
723.106	2033.12
723.293	2166.24
723.48	2049.5
723.667	2016.74
723.853	1992.16
724.04	2137.57
724.227	2072.03
724.414	2069.98
724.6	2131.42
724.787	2067.94
724.974	2119.14
725.161	2112.99
725.347	1973.73
725.534	2004.45
725.72	2139.62
725.907	2047.46
726.094	2022.88
726.28	1973.73
726.467	2067.94
726.653	2026.98
726.84	2180.57
727.027	2156
727.213	1992.16
727.4	2014.69
727.586	2033.12
727.773	2090.46
727.959	2039.26
728.145	2008.55
728.332	1994.21
728.518	1943.01
728.705	1936.87
728.891	1914.34
729.077	2031.07
729.264	2125.28
729.45	2031.07
729.636	2029.03
729.823	2033.12
730.009	1953.25
730.195	2047.46
730.382	2026.98
730.568	2031.07
730.754	1992.16
730.94	2084.32
731.126	2065.89
731.313	1988.07
731.499	1947.11
731.685	2006.5
731.871	1955.3
732.057	1973.73
732.243	2026.98
732.429	1955.3
732.615	1977.83
732.801	2002.4
732.987	2088.42
733.173	1998.31
733.359	1940.96
733.545	1957.35
733.731	2063.84
733.917	1934.82
734.103	1908.19
734.289	1932.77
734.475	1947.11
734.661	1990.11
734.847	1840.61
735.033	1920.48
735.219	1889.76
735.404	1867.24
735.59	1965.54
735.776	1924.58
735.962	1879.52
736.148	1875.43
736.333	1959.39
736.519	1875.43
736.705	1844.71
736.89	1869.28
737.076	1834.47
737.262	1885.67
737.447	1818.08
737.633	1789.41
737.819	1842.66
738.004	1861.09
738.19	1875.43
738.375	1908.19
738.561	1914.34
738.747	1738.21
738.932	1828.32
739.118	1836.52
739.303	1949.15
739.489	1893.86
739.674	1785.32
739.859	1846.76
740.045	1846.76
740.23	1859.04
740.416	1717.73
740.601	1852.9
740.786	1807.84
740.972	1859.04
741.157	1732.07
741.342	1730.02
741.528	1775.08
741.713	1711.59
741.898	1691.11
742.084	1793.51
742.269	1840.61
742.454	1646.05
742.639	1752.55
742.824	1650.15
743.01	1789.41
743.195	1707.49
743.38	1709.54
743.565	1703.4
743.75	1711.59
743.935	1623.53
744.12	1707.49
744.305	1670.63
744.49	1623.53
744.675	1697.25
744.86	1666.53
745.045	1633.77
745.23	1646.05
745.415	1572.33
745.6	1555.94
745.785	1660.39
745.97	1623.53
746.155	1629.67
746.34	1541.61
746.525	1601
746.71	1654.25
746.895	1494.51
747.079	1531.37
747.264	1547.75
747.449	1539.56
747.634	1551.85
747.819	1527.27
748.003	1461.74
748.188	1459.69
748.373	1492.46
748.557	1439.21
748.742	1560.04
748.927	1488.36
749.111	1392.11
749.296	1420.78
749.481	1412.59
749.665	1484.27
749.85	1394.15
750.034	1504.75
750.219	1408.49
750.404	1416.68
750.588	1332.72
750.773	1304.04
750.957	1295.85
751.141	1367.53
751.326	1351.15
751.51	1281.52
751.695	1297.9
751.879	1224.17
752.064	1312.24
752.248	1406.44
752.432	1304.04
752.617	1291.76
752.801	1379.82
752.985	1287.66
753.17	1246.7
753.354	1240.56
753.538	1218.03
753.722	1146.35
753.907	1232.37
754.091	1179.12
754.275	1230.32
754.459	1175.02
754.643	1148.4
754.828	1172.97
755.012	1140.21
755.196	1097.2
755.38	1156.59
755.564	1064.43
755.748	1113.58
755.932	1046
756.116	1109.49
756.3	1062.38
756.484	1113.58
756.668	1129.97
756.852	1091.06
757.036	1005.04
757.22	1107.44
757.404	1002.99
757.588	982.51
757.772	1074.67
757.956	990.7
758.14	1054.19
758.323	1054.19
758.507	998.9
758.691	1066.48
758.875	1023.47
759.059	933.36
759.242	966.13
759.426	1005.04
759.61	968.18
759.794	1009.14
759.977	1031.66
760.161	1017.33
760.345	933.36
760.528	1027.57
760.712	994.8
760.895	1007.09
761.079	1011.18
761.263	964.08
761.446	896.5
761.63	894.45
761.813	894.45
761.997	919.03
762.18	914.93
762.364	947.7
762.547	847.35
762.731	998.9
762.914	828.92
763.098	898.55
763.281	910.83
763.464	937.46
763.648	873.97
763.831	837.11
764.015	861.68
764.198	947.7
764.381	859.63
764.564	835.06
764.748	869.87
764.931	914.93
765.114	749.04
765.297	865.78
765.481	863.73
765.664	794.1
765.847	867.83
766.03	876.02
766.213	898.55
766.397	808.44
766.58	806.39
766.763	794.1
766.946	794.1
767.129	851.44
767.312	777.72
767.495	787.96
767.678	695.8
767.861	769.52
768.044	775.67
768.227	785.91
768.41	759.28
768.593	769.52
768.776	767.48
768.959	847.35
769.142	773.62
769.324	769.52
769.507	785.91
769.69	744.95
769.873	730.61
770.056	706.04
770.239	656.89
770.421	773.62
770.604	710.13
770.787	708.09
770.97	699.89
771.152	720.37
771.335	726.52
771.518	665.08
771.7	781.81
771.883	724.47
772.066	685.56
772.248	681.46
772.431	714.23
772.613	714.23
772.796	632.31
772.978	736.76
773.161	783.86
773.343	605.69
773.526	679.41
773.708	617.97
773.891	685.56
774.073	683.51
774.256	642.55
774.438	605.69
774.621	712.18
774.803	679.41
774.985	622.07
775.168	591.35
775.35	638.45
775.532	519.67
775.715	624.12
775.897	615.93
776.079	628.21
776.261	638.45
776.444	591.35
776.626	548.34
776.808	572.92
776.99	564.73
777.173	566.78
777.355	673.27
777.537	615.93
777.719	540.15
777.901	589.3
778.083	648.69
778.265	548.34
778.447	597.49
778.629	599.54
778.811	599.54
778.993	550.39
779.175	507.38
779.357	517.62
779.539	503.29
779.721	501.24
779.903	622.07
780.085	525.82
780.267	556.54
780.449	503.29
780.631	548.34
780.812	509.43
780.994	501.24
781.176	521.72
781.358	511.48
781.54	511.48
781.721	474.62
781.903	538.1
782.085	493.05
782.267	491
782.448	433.66
782.63	364.03
782.812	370.17
782.993	564.73
783.175	427.51
783.357	429.56
783.538	495.1
783.72	439.8
783.901	447.99
784.083	466.42
784.264	484.86
784.446	292.35
784.627	372.22
784.809	392.7
784.99	384.51
785.172	368.12
785.353	419.32
785.535	409.08
785.716	380.41
785.897	382.46
786.079	402.94
786.26	474.62
786.441	417.27
786.623	339.45
786.804	318.97
786.985	398.84
787.167	396.79
787.348	359.93
787.529	394.75
787.71	345.59
787.891	380.41
788.073	429.56
788.254	296.44
788.435	409.08
788.616	378.36
788.797	372.22
788.978	298.49
789.159	323.07
789.34	327.16
789.522	404.99
789.703	376.31
789.884	333.31
790.065	321.02
790.246	388.6
790.427	275.96
790.607	318.97
790.788	329.21
790.969	321.02
791.15	310.78
791.331	259.58
791.512	269.82
791.693	290.3
791.874	228.86
792.054	353.79
792.235	335.35
792.416	321.02
792.597	294.4
792.778	292.35
792.958	288.25
793.139	302.59
793.32	337.4
793.5	308.73
793.681	286.2
793.862	284.16
794.042	259.58
794.223	282.11
794.404	273.92
794.584	247.29
794.765	249.34
794.945	296.44
795.126	257.53
795.306	312.83
795.487	271.87
795.667	298.49
795.848	304.64
796.028	232.96
796.209	308.73
796.389	249.34
796.57	286.2
796.75	212.48
796.93	245.24
797.111	286.2
797.291	278.01
797.471	257.53
797.652	216.57
797.832	171.52
798.012	271.87
798.192	275.96
798.373	171.52
798.553	214.52
798.733	280.06
798.913	183.81
799.093	220.67
799.274	214.52
799.454	273.92
799.634	269.82
799.814	196.09
799.994	196.09
800.174	288.25
800.354	280.06
800.534	255.48
800.714	251.39
800.894	222.72
801.074	122.37
801.254	151.04
801.434	218.62
801.614	146.94
801.794	159.23
801.974	636.41
802.154	243.2
802.334	247.29
802.514	204.28
802.693	241.15
802.873	247.29
803.053	220.67
803.233	228.86
803.413	247.29
803.592	261.63
803.772	97.79
803.952	245.24
804.131	208.38
804.311	200.19
804.491	196.09
804.67	235
804.85	212.48
805.03	230.91
805.209	179.71
805.389	189.95
805.568	239.1
805.748	179.71
805.928	261.63
806.107	183.81
806.287	196.09
806.466	161.28
806.646	230.91
806.825	210.43
807.004	206.33
807.184	220.67
807.363	196.09
807.543	148.99
807.722	146.94
807.901	179.71
808.081	185.85
808.26	134.65
808.439	130.56
808.619	146.94
808.798	157.18
808.977	257.53
809.156	167.42
809.336	163.33
809.515	237.05
809.694	159.23
809.873	171.52
810.052	173.57
810.231	200.19
810.411	171.52
810.59	216.57
810.769	198.14
810.948	183.81
811.127	198.14
811.306	101.89
811.485	89.6
811.664	251.39
811.843	144.89
812.022	159.23
812.201	146.94
812.38	110.08
812.559	171.52
812.737	181.76
812.916	108.03
813.095	130.56
813.274	214.52
813.453	122.37
813.632	118.27
813.811	81.41
813.989	155.13
814.168	210.43
814.347	204.28
814.526	101.89
814.704	179.71
814.883	200.19
815.062	65.02
815.24	200.19
815.419	116.22
815.598	146.94
815.776	67.07
815.955	122.37
816.133	50.69
816.312	148.99
816.49	155.13
816.669	132.61
816.847	81.41
817.026	210.43
817.204	144.89
817.383	81.41
817.561	138.75
817.74	185.85
817.918	157.18
818.097	183.81
818.275	75.26
818.453	130.56
818.632	130.56
818.81	171.52
818.988	132.61
819.167	97.79
819.345	114.17
819.523	138.75
819.701	83.45
819.879	85.5
820.058	83.45
820.236	167.42
820.414	95.74
820.592	110.08
820.77	140.8
820.948	108.03
821.127	126.46
821.305	155.13
821.483	42.5
821.661	167.42
821.839	87.55
822.017	114.17
822.195	116.22
822.373	108.03
822.551	118.27
822.729	146.94
822.907	110.08
823.085	146.94
823.262	85.5
823.44	155.13
823.618	81.41
823.796	97.79
823.974	175.61
824.152	148.99
824.329	116.22
824.507	159.23
824.685	75.26
824.863	179.71
825.04	85.5
825.218	110.08
825.396	101.89
825.574	91.65
825.751	126.46
825.929	130.56
826.107	56.83
826.284	89.6
826.462	75.26
826.639	99.84
826.817	65.02
826.994	83.45
827.172	7.68
827.349	151.04
827.527	167.42
827.704	89.6
827.882	108.03
828.059	146.94
828.237	62.98
828.414	112.13
828.591	114.17
828.769	175.61
828.946	138.75
829.124	103.93
829.301	142.85
829.478	38.4
829.655	65.02
829.833	200.19
830.01	69.12
830.187	95.74
830.364	46.59
830.542	153.09
830.719	159.23
830.896	169.47
831.073	50.69
831.25	67.07
831.427	101.89
831.604	24.06
831.782	73.21
831.959	124.41
832.136	-12.8
832.313	83.45
832.49	62.98
832.667	24.06
832.844	120.32
833.021	144.89
833.198	91.65
833.374	24.06
833.551	144.89
833.728	97.79
833.905	42.5
834.082	99.84
834.259	153.09
834.436	34.3
834.612	17.92
834.789	48.64
834.966	89.6
835.143	167.42
835.319	112.13
835.496	175.61
835.673	58.88
835.85	132.61
836.026	93.69
836.203	69.12
836.38	38.4
836.556	77.31
836.733	11.78
836.909	134.65
837.086	30.21
837.262	97.79
837.439	112.13
837.616	130.56
837.792	73.21
837.968	19.97
838.145	48.64
838.321	140.8
838.498	91.65
838.674	128.51
838.851	114.17
839.027	48.64
839.203	50.69
839.38	159.23
839.556	60.93
839.732	50.69
839.909	81.41
840.085	116.22
840.261	42.5
840.437	91.65
840.614	15.87
840.79	77.31
840.966	73.21
841.142	40.45
841.318	42.5
841.494	89.6
841.671	99.84
841.847	58.88
842.023	-18.94
842.199	114.17
842.375	155.13
842.551	-12.8
842.727	-4.61
842.903	108.03
843.079	1.54
843.255	36.35
843.431	73.21
843.607	105.98
843.783	44.54
843.959	28.16
844.134	7.68
844.31	7.68
844.486	118.27
844.662	67.07
844.838	71.17
845.013	17.92
845.189	122.37
845.365	81.41
845.541	3.58
845.716	75.26
845.892	52.74
846.068	40.45
846.244	60.93
846.419	26.11
846.595	60.93
846.77	15.87
846.946	73.21
847.122	56.83
847.297	89.6
847.473	89.6
847.648	44.54
847.824	44.54
847.999	-6.66
848.175	-4.61
848.35	126.46
848.526	75.26
848.701	26.11
848.876	56.83
849.052	24.06
849.227	22.02
849.403	71.17
849.578	-10.75
849.753	138.75
849.929	58.88
850.104	3.58
850.279	81.41
850.454	101.89
850.63	81.41
850.805	17.92
850.98	81.41
851.155	40.45
851.33	77.31
851.505	28.16
851.681	44.54
851.856	11.78
852.031	69.12
852.206	40.45
852.381	17.92
852.556	81.41
852.731	56.83
852.906	58.88
853.081	97.79
853.256	89.6
853.431	75.26
853.606	48.64
853.781	17.92
853.956	24.06
854.131	75.26
854.305	13.82
854.48	-0.51
854.655	81.41
854.83	81.41
855.005	17.92
855.18	48.64
855.354	73.21
855.529	56.83
855.704	112.13
855.879	19.97
856.053	7.68
856.228	42.5
856.403	-12.8
856.577	89.6
856.752	85.5
856.926	54.78
857.101	-14.85
857.276	83.45
857.45	142.85
857.625	85.5
857.799	32.26
857.974	1.54
858.148	32.26
858.323	89.6
858.497	54.78
858.672	40.45
858.846	-66.05
859.02	93.69
859.195	-0.51
859.369	48.64
859.543	30.21
859.718	15.87
859.892	1.54
860.066	15.87
860.241	38.4
860.415	65.02
860.589	15.87
860.763	38.4
860.938	-14.85
861.112	24.06
861.286	48.64
861.46	120.32
861.634	-41.47
861.808	58.88
861.982	-2.56
862.157	-8.7
862.331	69.12
862.505	91.65
862.679	9.73
862.853	24.06
863.027	56.83
863.201	116.22
863.375	13.82
863.549	89.6
863.722	67.07
863.896	24.06
864.07	56.83
864.244	17.92
864.418	52.74
864.592	60.93
864.766	15.87
864.939	69.12
865.113	77.31
865.287	89.6
865.461	-8.7
865.634	69.12
865.808	71.17
865.982	58.88
866.156	-47.62
866.329	65.02
866.503	46.59
866.676	24.06
866.85	11.78
867.024	-8.7
867.197	30.21
867.371	89.6
867.544	44.54
867.718	-6.66
867.891	99.84
868.065	-0.51
868.238	30.21
868.412	9.73
868.585	28.16
868.759	65.02
868.932	-61.95
869.105	71.17
869.279	-4.61
869.452	1.54
869.625	44.54
869.799	79.36
869.972	56.83
870.145	91.65
870.319	48.64
870.492	32.26
870.665	26.11
870.838	11.78
871.011	-14.85
871.185	48.64
871.358	-20.99
871.531	114.17
871.704	3.58
871.877	1.54
872.05	71.17
872.223	-16.9
872.396	9.73
872.569	91.65
872.742	5.63
872.915	15.87
873.088	19.97
873.261	34.3
873.434	42.5
873.607	91.65
873.78	40.45
873.953	-14.85
874.126	34.3
874.299	15.87
874.471	56.83
874.644	38.4
874.817	24.06
874.99	-8.7
875.163	-20.99
875.335	83.45
875.508	9.73
875.681	9.73
875.853	73.21
876.026	26.11
876.199	3.58
876.371	-0.51
876.544	17.92
876.717	-16.9
876.889	-8.7
877.062	36.35
877.234	-10.75
877.407	15.87
877.579	65.02
877.752	89.6
877.924	38.4
878.097	83.45
878.269	32.26
878.442	58.88
878.614	62.98
878.786	-10.75
878.959	56.83
879.131	26.11
879.303	5.63
879.476	42.5
879.648	22.02
879.82	3.58
879.993	-8.7
880.165	-16.9
880.337	-59.9
880.509	73.21
880.681	-33.28
880.854	-14.85
881.026	50.69
881.198	114.17
881.37	-16.9
881.542	17.92
881.714	-23.04
881.886	-18.94
882.058	7.68
882.23	48.64
882.402	19.97
882.574	-59.9
882.746	24.06
882.918	83.45
883.09	22.02
883.262	26.11
883.434	17.92
883.606	24.06
883.778	-8.7
883.95	22.02
884.122	15.87
884.293	52.74
884.465	19.97
884.637	128.51
884.809	-2.56
884.98	40.45
885.152	50.69
885.324	77.31
885.496	67.07
885.667	9.73
885.839	17.92
886.011	69.12
886.182	60.93
886.354	40.45
886.525	1.54
886.697	50.69
886.869	-0.51
887.04	-12.8
887.212	46.59
887.383	85.5
887.555	75.26
887.726	48.64
887.897	-33.28
888.069	-8.7
888.24	-16.9
888.412	-18.94
888.583	28.16
888.754	-6.66
888.926	-29.18
889.097	99.84
889.268	-8.7
889.44	32.26
889.611	7.68
889.782	65.02
889.953	93.69
890.125	81.41
890.296	56.83
890.467	60.93
890.638	44.54
890.809	-0.51
890.98	-8.7
891.151	17.92
891.323	60.93
891.494	-4.61
891.665	32.26
891.836	44.54
892.007	26.11
892.178	56.83
892.349	-8.7
892.52	-23.04
892.691	-61.95
892.862	54.78
893.032	-14.85
893.203	40.45
893.374	136.7
893.545	-16.9
893.716	19.97
893.887	34.3
894.057	19.97
894.228	56.83
894.399	-0.51
894.57	56.83
894.74	99.84
894.911	75.26
895.082	69.12
895.253	24.06
895.423	32.26
895.594	83.45
895.764	-2.56
895.935	-18.94
896.106	48.64
896.276	-14.85
896.447	-4.61
896.617	-43.52
896.788	105.98
896.958	54.78
897.129	34.3
897.299	-12.8
897.47	-6.66
897.64	24.06
897.81	-0.51
897.981	62.98
898.151	-39.42
898.322	58.88
898.492	48.64
898.662	48.64
898.832	-39.42
899.003	65.02
899.173	83.45
899.343	24.06
899.513	19.97
