Data from USB4F104151__24__14-16-15-838.txt Node

Date: Thu Mar 13 14:16:15 EDT 2025
User: louis
Spectrometer: USB4F10415
Trigger mode: 4
Integration Time (sec): 2.000000E-2
Scans to average: 1
Electric dark correction enabled: true
Nonlinearity correction enabled: false
Boxcar width: 0
XAxis mode: Wavelengths
Number of Pixels in Spectrum: 3648
>>>>>Begin Spectral Data<<<<<
178.204	20.65
178.424	20.65
178.644	20.65
178.864	-63.32
179.084	-91.99
179.304	67.75
179.524	-16.21
179.744	-30.55
179.964	43.18
180.184	-20.31
180.404	-14.17
180.624	16.55
180.844	8.36
181.064	2.22
181.283	-24.4
181.503	-48.98
181.723	16.55
181.943	24.75
182.163	55.47
182.383	2.22
182.602	20.65
182.822	18.6
183.042	61.61
183.262	82.09
183.482	-22.36
183.701	6.31
183.921	-22.36
184.141	14.51
184.361	34.99
184.58	-12.12
184.8	6.31
185.02	-61.27
185.239	67.75
185.459	28.84
185.679	30.89
185.898	-32.6
186.118	49.32
186.338	-3.93
186.557	-10.07
186.777	18.6
186.997	-26.45
187.216	61.61
187.436	4.27
187.655	30.89
187.875	-14.17
188.095	2.22
188.314	39.08
188.534	69.8
188.753	49.32
188.973	-44.88
189.192	63.66
189.412	-57.17
189.631	-1.88
189.851	24.75
190.07	41.13
190.29	-22.36
190.509	-73.56
190.729	39.08
190.948	57.51
191.168	114.86
191.387	47.27
191.607	-55.12
191.826	8.36
192.045	49.32
192.265	-20.31
192.484	30.89
192.704	-3.93
192.923	14.51
193.142	32.94
193.362	16.55
193.581	82.09
193.8	8.36
194.02	55.47
194.239	32.94
194.458	-1.88
194.678	18.6
194.897	57.51
195.116	-59.22
195.335	49.32
195.555	100.52
195.774	-46.93
195.993	57.51
196.212	45.23
196.432	-14.17
196.651	-8.02
196.87	80.04
197.089	28.84
197.308	37.03
197.528	57.51
197.747	6.31
197.966	18.6
198.185	51.37
198.404	-26.45
198.623	6.31
198.842	24.75
199.062	16.55
199.281	96.43
199.5	41.13
199.719	49.32
199.938	28.84
200.157	106.67
200.376	59.56
200.595	88.23
200.814	-3.93
201.033	-40.79
201.252	75.95
201.471	-12.12
201.69	110.76
201.909	24.75
202.128	2.22
202.347	8.36
202.566	8.36
202.785	37.03
203.004	10.41
203.223	20.65
203.442	49.32
203.661	34.99
203.879	41.13
204.098	24.75
204.317	-28.5
204.536	65.71
204.755	43.18
204.974	20.65
205.193	16.55
205.411	84.14
205.63	-22.36
205.849	-1.88
206.068	65.71
206.287	61.61
206.505	22.7
206.724	-24.4
206.943	73.9
207.162	-24.4
207.381	-30.55
207.599	37.03
207.818	100.52
208.037	16.55
208.255	43.18
208.474	28.84
208.693	-63.32
208.911	16.55
209.13	22.7
209.349	8.36
209.567	0.17
209.786	8.36
210.005	82.09
210.223	73.9
210.442	-3.93
210.661	26.79
210.879	-1.88
211.098	8.36
211.316	-36.69
211.535	34.99
211.753	24.75
211.972	49.32
212.191	37.03
212.409	10.41
212.628	39.08
212.846	8.36
213.065	-1.88
213.283	10.41
213.502	-24.4
213.72	24.75
213.938	57.51
214.157	-28.5
214.375	43.18
214.594	2.22
214.812	14.51
215.031	10.41
215.249	18.6
215.467	34.99
215.686	26.79
215.904	14.51
216.122	67.75
216.341	114.86
216.559	59.56
216.778	49.32
216.996	-55.12
217.214	0.17
217.432	20.65
217.651	24.75
217.869	51.37
218.087	-32.6
218.306	-30.55
218.524	53.42
218.742	10.41
218.96	63.66
219.179	-32.6
219.397	49.32
219.615	92.33
219.833	10.41
220.051	94.38
220.27	10.41
220.488	24.75
220.706	45.23
220.924	32.94
221.142	22.7
221.36	-5.97
221.578	0.17
221.796	71.85
222.015	34.99
222.233	-8.02
222.451	59.56
222.669	-26.45
222.887	-20.31
223.105	-14.17
223.323	57.51
223.541	8.36
223.759	53.42
223.977	45.23
224.195	-30.55
224.413	47.27
224.631	0.17
224.849	49.32
225.067	125.1
225.285	82.09
225.503	-20.31
225.721	-5.97
225.939	106.67
226.157	4.27
226.375	108.71
226.592	-8.02
226.81	-16.21
227.028	26.79
227.246	2.22
227.464	10.41
227.682	2.22
227.9	61.61
228.117	102.57
228.335	-30.55
228.553	57.51
228.771	-1.88
228.989	14.51
229.206	49.32
229.424	8.36
229.642	30.89
229.86	-16.21
230.077	75.95
230.295	-14.17
230.513	59.56
230.731	57.51
230.948	77.99
231.166	49.32
231.384	16.55
231.601	-32.6
231.819	114.86
232.037	-8.02
232.254	-46.93
232.472	8.36
232.689	-22.36
232.907	22.7
233.125	24.75
233.342	49.32
233.56	37.03
233.777	12.46
233.995	59.56
234.213	0.17
234.43	57.51
234.648	20.65
234.865	32.94
235.083	49.32
235.3	26.79
235.518	18.6
235.735	41.13
235.953	-24.4
236.17	8.36
236.388	73.9
236.605	-57.17
236.822	43.18
237.04	8.36
237.257	10.41
237.475	30.89
237.692	16.55
237.909	18.6
238.127	32.94
238.344	77.99
238.562	-34.64
238.779	-28.5
238.996	-3.93
239.214	-79.7
239.431	92.33
239.648	-38.74
239.865	55.47
240.083	-8.02
240.3	53.42
240.517	-36.69
240.735	8.36
240.952	45.23
241.169	-24.4
241.386	67.75
241.603	41.13
241.821	-30.55
242.038	6.31
242.255	49.32
242.472	-1.88
242.689	-30.55
242.907	20.65
243.124	-5.97
243.341	-32.6
243.558	37.03
243.775	-24.4
243.992	-28.5
244.209	0.17
244.426	28.84
244.643	0.17
244.86	-48.98
245.078	71.85
245.295	77.99
245.512	112.81
245.729	14.51
245.946	28.84
246.163	61.61
246.38	-10.07
246.597	61.61
246.814	32.94
247.031	53.42
247.248	59.56
247.464	-14.17
247.681	-65.36
247.898	16.55
248.115	34.99
248.332	-1.88
248.549	4.27
248.766	18.6
248.983	86.19
249.2	-61.27
249.417	34.99
249.633	16.55
249.85	41.13
250.067	14.51
250.284	-22.36
250.501	116.9
250.717	47.27
250.934	26.79
251.151	22.7
251.368	-1.88
251.585	-18.26
251.801	0.17
252.018	-44.88
252.235	18.6
252.451	-32.6
252.668	-44.88
252.885	47.27
253.102	-34.64
253.318	24.75
253.535	-46.93
253.752	18.6
253.968	-12.12
254.185	16.55
254.401	65.71
254.618	86.19
254.835	-38.74
255.051	41.13
255.268	32.94
255.484	82.09
255.701	-30.55
255.917	37.03
256.134	-32.6
256.351	28.84
256.567	16.55
256.784	34.99
257	4.27
257.217	49.32
257.433	53.42
257.65	24.75
257.866	57.51
258.082	-28.5
258.299	-48.98
258.515	-59.22
258.732	-65.36
258.948	-34.64
259.165	-8.02
259.381	32.94
259.597	32.94
259.814	53.42
260.03	-30.55
260.246	-48.98
260.463	59.56
260.679	106.67
260.895	-28.5
261.112	65.71
261.328	73.9
261.544	-24.4
261.761	16.55
261.977	-5.97
262.193	-10.07
262.409	75.95
262.626	10.41
262.842	53.42
263.058	41.13
263.274	8.36
263.49	10.41
263.707	90.28
263.923	-24.4
264.139	57.51
264.355	-10.07
264.571	-1.88
264.787	65.71
265.004	61.61
265.22	-20.31
265.436	12.46
265.652	0.17
265.868	82.09
266.084	-89.94
266.3	-63.32
266.516	45.23
266.732	37.03
266.948	-44.88
267.164	-34.64
267.38	34.99
267.596	32.94
267.812	-42.84
268.028	18.6
268.244	18.6
268.46	-24.4
268.676	39.08
268.892	77.99
269.108	-69.46
269.324	16.55
269.54	-3.93
269.756	24.75
269.972	-1.88
270.188	-3.93
270.403	24.75
270.619	8.36
270.835	16.55
271.051	34.99
271.267	-36.69
271.483	-34.64
271.698	34.99
271.914	18.6
272.13	-38.74
272.346	73.9
272.562	61.61
272.777	41.13
272.993	75.95
273.209	-8.02
273.425	-63.32
273.64	80.04
273.856	47.27
274.072	24.75
274.287	41.13
274.503	0.17
274.719	-5.97
274.934	4.27
275.15	43.18
275.366	45.23
275.581	-3.93
275.797	-67.41
276.012	57.51
276.228	-32.6
276.444	4.27
276.659	2.22
276.875	-48.98
277.09	4.27
277.306	12.46
277.521	98.47
277.737	90.28
277.952	65.71
278.168	86.19
278.383	20.65
278.599	57.51
278.814	41.13
279.03	24.75
279.245	102.57
279.461	16.55
279.676	26.79
279.892	24.75
280.107	88.23
280.322	18.6
280.538	12.46
280.753	-3.93
280.969	-10.07
281.184	-14.17
281.399	77.99
281.615	28.84
281.83	45.23
282.045	8.36
282.26	32.94
282.476	57.51
282.691	67.75
282.906	80.04
283.122	53.42
283.337	-16.21
283.552	96.43
283.767	-10.07
283.983	-8.02
284.198	53.42
284.413	10.41
284.628	20.65
284.843	71.85
285.058	6.31
285.274	20.65
285.489	-8.02
285.704	47.27
285.919	4.27
286.134	41.13
286.349	18.6
286.564	30.89
286.779	24.75
286.995	26.79
287.21	-8.02
287.425	45.23
287.64	28.84
287.855	30.89
288.07	-12.12
288.285	90.28
288.5	26.79
288.715	69.8
288.93	-5.97
289.145	57.51
289.36	92.33
289.575	45.23
289.79	16.55
290.004	-22.36
290.219	86.19
290.434	55.47
290.649	67.75
290.864	73.9
291.079	69.8
291.294	16.55
291.509	61.61
291.724	-14.17
291.938	8.36
292.153	-40.79
292.368	-65.36
292.583	-32.6
292.798	-12.12
293.012	-12.12
293.227	53.42
293.442	32.94
293.657	34.99
293.871	90.28
294.086	6.31
294.301	51.37
294.516	-5.97
294.73	-46.93
294.945	18.6
295.16	-16.21
295.374	43.18
295.589	65.71
295.804	49.32
296.018	32.94
296.233	24.75
296.447	-12.12
296.662	14.51
296.877	12.46
297.091	51.37
297.306	6.31
297.52	-14.17
297.735	12.46
297.949	-18.26
298.164	-12.12
298.378	-55.12
298.593	2.22
298.807	28.84
299.022	-5.97
299.236	28.84
299.451	18.6
299.665	0.17
299.88	49.32
300.094	51.37
300.309	45.23
300.523	-48.98
300.737	32.94
300.952	51.37
301.166	32.94
301.381	94.38
301.595	12.46
301.809	34.99
302.024	-5.97
302.238	0.17
302.452	-5.97
302.667	90.28
302.881	59.56
303.095	77.99
303.309	57.51
303.524	22.7
303.738	63.66
303.952	43.18
304.166	41.13
304.381	-30.55
304.595	6.31
304.809	-8.02
305.023	65.71
305.237	-40.79
305.452	-32.6
305.666	-12.12
305.88	123.05
306.094	34.99
306.308	34.99
306.522	65.71
306.736	65.71
306.95	-8.02
307.164	-44.88
307.379	10.41
307.593	98.47
307.807	0.17
308.021	75.95
308.235	73.9
308.449	18.6
308.663	-14.17
308.877	49.32
309.091	16.55
309.305	-14.17
309.519	-40.79
309.733	75.95
309.947	-14.17
310.161	0.17
310.374	41.13
310.588	26.79
310.802	8.36
311.016	41.13
311.23	49.32
311.444	16.55
311.658	73.9
311.872	4.27
312.085	90.28
312.299	90.28
312.513	41.13
312.727	69.8
312.941	47.27
313.154	49.32
313.368	59.56
313.582	24.75
313.796	-28.5
314.009	34.99
314.223	82.09
314.437	90.28
314.651	-12.12
314.864	18.6
315.078	51.37
315.292	-5.97
315.505	-8.02
315.719	-8.02
315.933	10.41
316.146	8.36
316.36	18.6
316.573	16.55
316.787	49.32
317.001	51.37
317.214	10.41
317.428	2.22
317.641	12.46
317.855	71.85
318.068	34.99
318.282	16.55
318.495	57.51
318.709	65.71
318.922	-12.12
319.136	49.32
319.349	32.94
319.563	26.79
319.776	4.27
319.99	-48.98
320.203	34.99
320.417	34.99
320.63	39.08
320.843	57.51
321.057	45.23
321.27	73.9
321.483	30.89
321.697	118.95
321.91	90.28
322.124	57.51
322.337	-5.97
322.55	-53.08
322.763	-32.6
322.977	90.28
323.19	-48.98
323.403	10.41
323.617	65.71
323.83	69.8
324.043	-10.07
324.256	30.89
324.469	49.32
324.683	133.29
324.896	37.03
325.109	24.75
325.322	28.84
325.535	16.55
325.748	20.65
325.962	41.13
326.175	41.13
326.388	6.31
326.601	80.04
326.814	55.47
327.027	12.46
327.24	57.51
327.453	-79.7
327.666	127.14
327.879	34.99
328.092	84.14
328.305	94.38
328.518	59.56
328.731	-28.5
328.944	-24.4
329.157	57.51
329.37	26.79
329.583	108.71
329.796	121
330.009	34.99
330.222	12.46
330.435	-20.31
330.648	-40.79
330.861	-46.93
331.073	114.86
331.286	82.09
331.499	82.09
331.712	0.17
331.925	20.65
332.138	75.95
332.35	8.36
332.563	55.47
332.776	75.95
332.989	0.17
333.202	43.18
333.414	77.99
333.627	26.79
333.84	69.8
334.053	34.99
334.265	0.17
334.478	18.6
334.691	-46.93
334.903	59.56
335.116	-20.31
335.329	75.95
335.541	45.23
335.754	73.9
335.966	8.36
336.179	-24.4
336.392	-81.75
336.604	37.03
336.817	-18.26
337.029	-8.02
337.242	43.18
337.454	20.65
337.667	-10.07
337.88	63.66
338.092	12.46
338.305	49.32
338.517	41.13
338.729	71.85
338.942	90.28
339.154	32.94
339.367	-1.88
339.579	20.65
339.792	49.32
340.004	-5.97
340.217	32.94
340.429	0.17
340.641	16.55
340.854	45.23
341.066	26.79
341.278	-8.02
341.491	61.61
341.703	75.95
341.915	10.41
342.128	18.6
342.34	69.8
342.552	-24.4
342.764	39.08
342.977	67.75
343.189	-8.02
343.401	98.47
343.613	-5.97
343.826	47.27
344.038	57.51
344.25	65.71
344.462	53.42
344.674	32.94
344.886	12.46
345.099	51.37
345.311	67.75
345.523	24.75
345.735	94.38
345.947	0.17
346.159	75.95
346.371	-8.02
346.583	41.13
346.795	67.75
347.007	-46.93
347.219	26.79
347.431	-8.02
347.643	98.47
347.855	45.23
348.067	34.99
348.279	43.18
348.491	-59.22
348.703	133.29
348.915	10.41
349.127	57.51
349.339	100.52
349.551	0.17
349.763	0.17
349.975	37.03
350.187	34.99
350.399	49.32
350.61	30.89
350.822	4.27
351.034	28.84
351.246	90.28
351.458	57.51
351.669	92.33
351.881	39.08
352.093	67.75
352.305	32.94
352.517	82.09
352.728	100.52
352.94	98.47
353.152	174.25
353.363	-20.31
353.575	51.37
353.787	110.76
353.999	30.89
354.21	49.32
354.422	61.61
354.633	30.89
354.845	69.8
355.057	49.32
355.268	102.57
355.48	12.46
355.692	67.75
355.903	-12.12
356.115	8.36
356.326	67.75
356.538	77.99
356.749	53.42
356.961	0.17
357.172	32.94
357.384	32.94
357.595	28.84
357.807	24.75
358.018	-24.4
358.23	-1.88
358.441	49.32
358.653	65.71
358.864	116.9
359.075	57.51
359.287	16.55
359.498	57.51
359.709	67.75
359.921	8.36
360.132	90.28
360.344	34.99
360.555	37.03
360.766	51.37
360.977	18.6
361.189	39.08
361.4	34.99
361.611	86.19
361.823	73.9
362.034	84.14
362.245	94.38
362.456	82.09
362.667	32.94
362.879	12.46
363.09	0.17
363.301	69.8
363.512	0.17
363.723	45.23
363.935	0.17
364.146	73.9
364.357	-12.12
364.568	2.22
364.779	-5.97
364.99	57.51
365.201	14.51
365.412	39.08
365.623	24.75
365.834	61.61
366.045	28.84
366.256	82.09
366.467	73.9
366.678	18.6
366.889	67.75
367.1	24.75
367.311	100.52
367.522	43.18
367.733	49.32
367.944	90.28
368.155	0.17
368.366	100.52
368.577	77.99
368.788	49.32
368.999	-32.6
369.209	57.51
369.42	84.14
369.631	45.23
369.842	43.18
370.053	39.08
370.264	8.36
370.474	43.18
370.685	10.41
370.896	-1.88
371.107	6.31
371.317	49.32
371.528	32.94
371.739	43.18
371.95	59.56
372.16	-5.97
372.371	20.65
372.582	100.52
372.792	65.71
373.003	71.85
373.214	65.71
373.424	-24.4
373.635	32.94
373.846	67.75
374.056	8.36
374.267	20.65
374.477	61.61
374.688	8.36
374.898	59.56
375.109	59.56
375.319	34.99
375.53	125.1
375.74	51.37
375.951	71.85
376.161	49.32
376.372	71.85
376.582	-16.21
376.793	57.51
377.003	-16.21
377.214	63.66
377.424	69.8
377.635	67.75
377.845	49.32
378.055	34.99
378.266	57.51
378.476	49.32
378.686	12.46
378.897	-14.17
379.107	16.55
379.317	20.65
379.528	2.22
379.738	49.32
379.948	-32.6
380.158	92.33
380.369	67.75
380.579	45.23
380.789	4.27
380.999	8.36
381.21	75.95
381.42	90.28
381.63	16.55
381.84	123.05
382.05	82.09
382.261	41.13
382.471	47.27
382.681	90.28
382.891	63.66
383.101	53.42
383.311	71.85
383.521	57.51
383.731	75.95
383.941	63.66
384.151	114.86
384.361	92.33
384.571	16.55
384.781	32.94
384.991	65.71
385.201	77.99
385.411	92.33
385.621	16.55
385.831	12.46
386.041	73.9
386.251	30.89
386.461	114.86
386.671	28.84
386.881	51.37
387.091	47.27
387.301	59.56
387.511	57.51
387.72	32.94
387.93	92.33
388.14	0.17
388.35	84.14
388.56	71.85
388.769	90.28
388.979	55.47
389.189	41.13
389.399	65.71
389.609	90.28
389.818	-8.02
390.028	6.31
390.238	131.24
390.447	49.32
390.657	32.94
390.867	55.47
391.076	18.6
391.286	73.9
391.496	-18.26
391.705	28.84
391.915	102.57
392.125	135.34
392.334	59.56
392.544	161.96
392.753	45.23
392.963	30.89
393.172	82.09
393.382	30.89
393.591	102.57
393.801	37.03
394.01	125.1
394.22	59.56
394.429	63.66
394.639	37.03
394.848	131.24
395.058	92.33
395.267	57.51
395.477	75.95
395.686	90.28
395.895	75.95
396.105	108.71
396.314	41.13
396.524	77.99
396.733	159.91
396.942	118.95
397.152	123.05
397.361	73.9
397.57	-3.93
397.78	98.47
397.989	141.48
398.198	90.28
398.407	34.99
398.617	159.91
398.826	121
399.035	123.05
399.244	67.75
399.453	61.61
399.663	61.61
399.872	131.24
400.081	-3.93
400.29	166.06
400.499	67.75
400.708	98.47
400.917	24.75
401.127	153.77
401.336	34.99
401.545	149.67
401.754	127.14
401.963	82.09
402.172	96.43
402.381	47.27
402.59	90.28
402.799	84.14
403.008	98.47
403.217	86.19
403.426	166.06
403.635	94.38
403.844	108.71
404.053	100.52
404.262	90.28
404.471	125.1
404.68	196.78
404.888	147.62
405.097	127.14
405.306	151.72
405.515	82.09
405.724	186.54
405.933	196.78
406.142	180.39
406.35	247.97
406.559	164.01
406.768	190.63
406.977	180.39
407.185	256.17
407.394	172.2
407.603	161.96
407.812	204.97
408.02	239.78
408.229	270.5
408.438	209.06
408.646	186.54
408.855	135.34
409.064	262.31
409.272	237.74
409.481	303.27
409.69	196.78
409.898	264.36
410.107	282.79
410.315	311.46
410.524	333.99
410.733	340.13
410.941	303.27
411.15	346.28
411.358	393.38
411.567	473.25
411.775	399.52
411.984	436.39
412.192	377
412.401	422.05
412.609	460.96
412.818	475.3
413.026	452.77
413.234	454.82
413.443	442.53
413.651	520.35
413.86	553.12
414.068	592.03
414.276	567.46
414.485	557.22
414.693	712.86
414.901	690.34
415.11	612.51
415.318	698.53
415.526	721.06
415.734	739.49
415.943	743.58
416.151	757.92
416.359	741.54
416.567	755.87
416.776	731.3
416.984	837.79
417.192	919.71
417.4	925.85
417.608	864.41
417.817	901.28
418.025	1032.35
418.233	1073.31
418.441	1011.87
418.649	995.48
418.857	1202.33
419.065	1171.61
419.273	1140.89
419.481	1190.04
419.689	1335.45
419.897	1441.94
420.105	1347.73
420.313	1425.56
420.521	1372.31
420.729	1525.91
420.937	1661.07
421.145	1644.69
421.353	1687.7
421.561	1853.58
421.769	1777.81
421.977	1904.78
422.185	1826.96
422.393	1949.84
422.601	2062.48
422.809	2050.19
423.017	2105.48
423.224	2283.66
423.432	2259.08
423.64	2353.29
423.848	2502.79
424.056	2402.44
424.263	2631.81
424.471	2621.57
424.679	2586.76
424.887	2820.22
425.094	2957.44
425.302	2955.39
425.51	3037.31
425.718	3182.71
425.925	3104.89
426.133	3254.39
426.341	3459.19
426.548	3641.46
426.756	3592.31
426.964	3764.34
427.171	3856.5
427.379	3879.02
427.586	4071.53
427.794	4178.03
428.001	4350.06
428.209	4563.05
428.417	4317.29
428.624	4849.76
428.832	4796.51
429.039	4653.16
429.247	4735.07
429.454	5226.59
429.662	5521.49
429.869	5197.92
430.076	5437.53
430.284	5333.08
430.491	5705.81
430.699	5892.18
430.906	5849.17
431.114	6039.63
431.321	6230.09
431.528	6520.9
431.736	6981.7
431.943	6809.67
432.15	6725.7
432.358	6989.89
432.565	7286.84
432.772	7139.39
432.979	7444.54
433.187	7784.5
433.394	7823.41
433.601	8372.27
433.808	8480.81
434.016	8265.77
434.223	8620.07
434.43	9269.28
434.637	9060.38
434.844	9707.54
435.052	9723.93
435.259	9848.85
435.466	9566.23
435.673	9580.57
435.88	10293.26
436.087	10733.57
436.294	10625.03
436.501	10481.67
436.708	10801.16
436.915	11108.35
437.122	11677.69
437.329	11513.85
437.537	11835.38
437.743	12306.41
437.95	11913.2
438.157	12711.91
438.364	13141.99
438.571	12945.38
438.778	13109.22
438.985	14383.06
439.192	13977.56
439.399	14393.3
439.606	13924.31
439.813	14841.8
440.02	15744.95
440.227	14942.15
440.433	15157.19
440.64	15708.09
440.847	15583.16
441.054	16064.44
441.261	17049.51
441.467	16857
441.674	17358.75
441.881	17608.61
442.088	17688.48
442.294	17743.77
442.501	17862.55
442.708	18151.32
442.914	19128.2
443.121	19550.08
443.328	19363.72
443.534	20653.94
443.741	19867.52
443.948	19591.04
444.154	21202.79
444.361	21196.65
444.568	21073.77
444.774	21110.63
444.981	21340.01
445.187	22040.41
445.394	23033.68
445.6	22630.23
445.807	24952.62
446.013	23721.79
446.22	24309.56
446.426	25059.12
446.633	25698.08
446.839	26431.26
447.046	25149.23
447.252	26670.87
447.459	26558.23
447.665	26294.04
447.871	27569.93
448.078	28782.32
448.284	27830.02
448.491	28563.19
448.697	29001.46
448.903	29693.67
449.11	29785.83
449.316	29267.69
449.522	29974.24
449.728	30807.76
449.935	30564.06
450.141	31067.86
450.347	31846.08
450.553	30633.69
450.76	30881.49
450.966	32104.13
451.172	31764.17
451.378	32530.11
451.584	31825.61
451.791	32775.86
451.997	32851.64
452.203	33306.29
452.409	33478.32
452.615	33005.24
452.821	31684.3
453.027	31448.78
453.233	32841.4
453.44	31594.18
453.646	32464.57
453.852	32104.13
454.058	32757.43
454.264	31700.68
454.47	32851.64
454.676	31381.2
454.882	33005.24
455.088	29763.3
455.294	30625.5
455.5	31256.27
455.705	31373
455.911	29572.84
456.117	29263.6
456.323	28991.22
456.529	27645.7
456.735	28577.53
456.941	27913.98
457.147	27787.01
457.352	26664.72
457.558	26519.32
457.764	26349.34
457.97	25837.34
458.176	25296.68
458.381	25216.81
458.587	23942.97
458.793	23963.45
458.999	23375.69
459.204	24491.83
459.41	23674.69
459.616	22257.5
459.821	22183.77
460.027	22226.78
460.233	22026.07
460.438	21026.67
460.644	21071.72
460.85	19953.53
461.055	19509.12
461.261	19427.2
461.466	18063.26
461.672	17676.19
461.878	18802.57
462.083	17821.59
462.289	17592.22
462.494	16928.68
462.7	16555.95
462.905	15785.91
463.111	16240.56
463.316	16490.42
463.522	16138.16
463.727	15962.04
463.932	16494.51
464.138	15982.52
464.343	16226.23
464.549	15525.82
464.754	16207.8
464.959	16058.29
465.165	15779.77
465.37	15267.78
465.575	14946.25
465.781	15503.29
465.986	15431.62
466.191	14782.41
466.397	14712.78
466.602	13850.58
466.807	14512.08
467.012	14473.17
467.218	14376.91
467.423	14122.96
467.628	14266.32
467.833	14882.76
468.038	14268.37
468.244	13887.45
468.449	14522.32
468.654	13991.89
468.859	13746.14
469.064	13684.7
469.269	13234.14
469.474	13350.88
469.679	13713.37
469.885	13174.75
470.09	13375.45
470.295	13250.53
470.5	12994.53
470.705	13129.7
470.91	12685.29
471.115	12609.51
471.32	12924.9
471.525	12830.69
471.73	12513.26
471.935	12337.13
472.139	11929.59
472.344	12210.16
472.549	11919.35
472.754	12105.71
472.959	11808.76
473.164	11479.04
473.369	11192.32
473.574	11722.74
473.778	11378.69
473.983	11345.92
474.188	11403.26
474.393	10698.76
474.598	10960.9
474.802	10874.88
475.007	10567.69
475.212	10838.02
475.417	10119.18
475.621	10190.86
475.826	10350.6
476.031	10313.74
476.235	10121.23
476.44	10231.82
476.645	9971.73
476.849	10110.99
477.054	9981.97
477.259	9930.77
477.463	9662.49
477.668	9469.98
477.872	9707.54
478.077	9453.59
478.282	9044
478.486	9136.16
478.691	8978.47
478.895	9246.75
479.1	8966.18
479.304	9091.1
479.509	8839.2
479.713	8904.74
479.918	8831.01
480.122	8511.53
480.326	8759.33
480.531	8919.07
480.735	8591.4
480.94	8601.64
481.144	8933.41
481.348	8423.47
481.553	8595.5
481.757	8194.09
481.961	8499.24
482.166	8587.3
482.37	8331.31
482.574	8515.62
482.778	8327.21
482.983	8511.53
483.187	8302.64
483.391	8323.12
483.595	8241.2
483.8	8259.63
484.004	8269.87
484.208	8439.85
484.412	8335.4
484.616	8445.99
484.821	8226.86
485.025	8345.64
485.229	8314.92
485.433	8405.03
485.637	8155.18
485.841	8306.73
486.045	8286.25
486.249	8153.13
486.453	8314.92
486.657	8196.14
486.861	8493.1
487.065	8077.36
487.269	8255.53
487.473	8273.96
487.677	8503.34
487.881	8507.43
488.085	8335.4
488.289	8339.5
488.493	8306.73
488.697	8384.55
488.901	8468.52
489.105	8423.47
489.309	8362.03
489.512	8486.95
489.716	8511.53
489.92	8292.4
490.124	8470.57
490.328	8568.87
490.531	8527.91
490.735	8538.15
490.939	8583.21
491.143	8581.16
491.346	8482.86
491.55	8761.38
491.754	8546.34
491.958	8656.93
492.161	8587.3
492.365	8847.4
492.569	8808.48
492.772	8734.76
492.976	8798.24
493.18	8925.22
493.383	9023.52
493.587	8962.08
493.79	9064.48
493.994	8888.36
494.197	9070.62
494.401	9259.04
494.605	9244.7
494.808	9281.57
495.012	9328.67
495.215	9486.36
495.419	9486.36
495.622	9449.5
495.825	9463.83
496.029	9490.46
496.232	9895.96
496.436	9791.51
496.639	9783.32
496.843	10147.86
497.046	10125.33
497.249	10346.51
497.453	10256.4
497.656	10254.35
497.859	10295.31
498.063	10356.75
498.266	10692.62
498.469	10752.01
498.673	10817.54
498.876	11177.98
499.079	10962.95
499.282	11032.58
499.485	11347.97
499.689	11245.57
499.892	11689.98
500.095	11649.02
500.298	11890.68
500.501	11833.33
500.705	11978.74
500.908	12212.21
501.111	12081.14
501.314	12586.99
501.517	12621.8
501.72	12634.09
501.923	12646.38
502.126	12984.29
502.329	13258.72
502.532	13334.5
502.735	13424.61
502.938	13682.65
503.141	13570.01
503.344	13705.18
503.547	13885.4
503.75	13912.02
503.953	14278.61
504.156	14335.95
504.359	14571.47
504.562	14557.13
504.765	15091.65
504.968	15040.45
505.17	15169.48
505.373	15151.04
505.576	15081.41
505.779	15431.62
505.982	15660.99
506.185	15898.55
506.387	15953.85
506.59	16091.06
506.793	16752.56
506.996	16490.42
507.198	16994.22
507.401	16846.76
507.604	17137.57
507.807	17254.31
508.009	17311.65
508.212	17338.27
508.415	17928.09
508.617	17858.46
508.82	18085.78
509.022	17887.13
509.225	18769.8
509.428	18663.31
509.63	18827.15
509.833	19019.66
510.035	19212.17
510.238	19095.43
510.44	19392.39
510.643	19648.38
510.845	19623.81
511.048	19715.97
511.25	19990.39
511.453	20113.27
511.655	20883.31
511.858	20365.17
512.06	20737.9
512.262	20742
512.465	20967.27
512.667	21358.44
512.87	21581.67
513.072	21419.88
513.274	21946.2
513.477	22277.97
513.679	22376.28
513.881	22531.92
514.084	22583.12
514.286	22607.7
514.488	23078.73
514.69	23588.67
514.893	23353.16
515.095	23721.79
515.297	24098.62
515.499	24119.1
515.701	24626.99
515.904	24493.88
516.106	24571.7
516.308	24985.39
516.51	25044.78
516.712	25313.06
516.914	25394.98
517.116	26156.83
517.318	26011.42
517.52	26046.24
517.722	26011.42
517.925	26851.09
518.127	26824.47
518.329	27037.45
518.531	27123.47
518.733	27488.01
518.935	27821.83
519.136	27807.49
519.338	27981.57
519.54	28137.21
519.742	28544.76
519.944	28606.2
520.146	28935.92
520.348	29140.72
520.55	29251.31
520.752	29490.92
520.954	29935.33
521.155	29816.55
521.357	30158.56
521.559	30052.06
521.761	31123.15
521.963	30815.96
522.164	30996.18
522.366	31190.73
522.568	31071.95
522.77	31432.4
522.971	31436.49
523.173	31465.16
523.375	32100.03
523.576	31930.05
523.778	32308.93
523.98	32550.59
524.181	32585.4
524.383	32831.16
524.584	32937.65
524.786	33169.07
524.988	33113.78
525.189	33253.04
525.391	33699.5
525.592	33885.86
525.794	33908.39
525.995	34061.99
526.197	33894.05
526.398	33865.38
526.6	34309.79
526.801	34254.5
527.003	34096.8
527.204	34537.12
527.406	34850.45
527.607	34592.41
527.808	35092.12
528.01	34524.83
528.211	34743.96
528.412	35411.6
528.614	35221.14
528.815	35374.73
529.016	35602.06
529.218	35296.91
529.419	35714.7
529.62	35913.35
529.822	35378.83
530.023	35939.97
530.224	35903.11
530.425	35778.18
530.626	36034.18
530.828	35532.43
531.029	36439.68
531.23	35688.07
531.431	35833.48
531.632	35876.49
531.833	36456.06
532.035	36060.8
532.236	36206.21
532.437	36372.1
532.638	36062.85
532.839	36394.62
533.04	36136.58
533.241	35835.53
533.442	36832.89
533.643	36417.15
533.844	36073.09
534.045	36521.6
534.246	36193.92
534.447	36613.76
534.648	36451.97
534.849	36552.32
535.05	35849.86
535.251	36327.04
535.451	36341.38
535.652	36464.25
535.853	36376.19
536.054	36597.37
536.255	36703.87
536.456	36642.43
536.657	36810.36
536.857	36535.93
537.058	36316.8
537.259	36574.84
537.46	36302.46
537.66	36038.28
537.861	36546.17
538.062	36015.75
538.263	36449.92
538.463	36486.78
538.664	36523.65
538.865	36482.69
539.065	36632.19
539.266	36320.9
539.466	36583.04
539.667	36564.6
539.868	36796.03
540.068	36492.93
540.269	36322.94
540.469	36697.72
540.67	36212.35
540.87	36210.31
541.071	36163.2
541.271	36421.25
541.472	36556.41
541.672	35813
541.873	36138.63
542.073	35724.94
542.274	36728.44
542.474	36062.85
542.675	35827.34
542.875	36171.39
543.075	35978.89
543.276	35581.58
543.476	36406.91
543.676	36142.72
543.877	36038.28
544.077	36050.56
544.277	36132.48
544.478	35939.97
544.678	36077.19
544.878	36099.72
545.078	35896.97
545.279	36118.15
545.479	35856.01
545.679	35972.74
545.879	36312.7
546.079	35872.39
546.28	35796.62
546.48	35921.54
546.68	35907.21
546.88	35540.62
547.08	35720.84
547.28	35858.06
547.48	35692.17
547.68	35886.73
547.88	35618.44
548.081	35896.97
548.281	35749.51
548.481	35614.35
548.681	35710.6
548.881	35681.93
549.081	35788.42
549.28	35747.47
549.48	35989.13
549.68	35473.04
549.88	36392.58
550.08	35761.8
550.28	35655.31
550.48	35571.34
550.68	35903.11
550.88	35524.24
551.08	35538.57
551.279	35690.12
551.479	35264.14
551.679	35579.53
551.879	35479.18
552.079	35458.7
552.278	35716.75
552.478	35688.07
552.678	35319.44
552.878	35683.98
553.077	35421.84
553.277	35292.82
553.477	35886.73
553.676	35397.26
553.876	35374.73
554.076	35268.24
554.275	35749.51
554.475	35036.82
554.674	35427.98
554.874	34959
555.074	35419.79
555.273	35483.28
555.473	35679.88
555.672	35102.36
555.872	35360.4
556.071	35321.49
556.271	35280.53
556.47	34709.15
556.67	34743.96
556.869	34696.86
557.068	35262.1
557.268	34758.3
557.467	35071.64
557.667	34924.18
557.866	34752.15
558.065	34959
558.265	34549.4
558.464	34416.29
558.663	35094.16
558.863	34213.54
559.062	34789.02
559.261	34324.13
559.461	34776.73
559.66	34377.37
559.859	34784.92
560.058	34332.32
560.258	34481.82
560.457	34117.28
560.656	34430.62
560.855	34240.16
561.054	34086.56
561.253	34145.95
561.453	34037.41
561.652	34471.58
561.851	33990.31
562.05	33992.36
562.249	33521.32
562.448	34256.54
562.647	33910.44
562.846	33973.92
563.045	33629.87
563.244	33547.95
563.443	34246.3
563.642	33222.32
563.841	33463.98
564.04	33103.54
564.239	33547.95
564.438	33109.68
564.637	33339.05
564.836	33388.21
565.035	33132.21
565.234	33527.47
565.432	33324.72
565.631	33175.22
565.83	33455.79
566.029	33412.78
566.228	32636.6
566.427	32757.43
566.625	32605.88
566.824	32194.24
567.023	32779.96
567.222	32149.18
567.42	32370.36
567.619	32462.52
567.818	32513.72
568.016	32263.87
568.215	32503.48
568.414	32372.41
568.612	32538.3
568.811	32206.53
569.01	32143.04
569.208	32110.27
569.407	32442.04
569.605	31872.71
569.804	31737.54
570.002	31772.36
570.201	31710.92
570.4	31569.61
570.598	31373
570.797	31325.9
570.995	31551.18
571.193	31350.48
571.392	31225.55
571.59	31284.94
571.789	31166.16
571.987	31389.39
572.186	31233.74
572.384	30910.16
572.582	31489.74
572.781	31055.57
572.979	30805.72
573.177	30754.52
573.376	31141.58
573.574	30605.02
573.772	30725.85
573.971	30461.66
574.169	30176.99
574.367	30310.11
574.565	30580.44
574.763	30187.23
574.962	30254.81
575.16	30062.3
575.358	30297.82
575.556	29605.61
575.754	30254.81
575.952	29511.4
576.151	30072.54
576.349	29400.81
576.547	29968.1
576.745	29529.83
576.943	29583.08
577.141	29486.82
577.339	29626.09
577.537	29386.47
577.735	29155.05
577.933	29314.8
578.131	29169.39
578.329	28825.33
578.527	28985.07
578.725	29284.08
578.923	29071.09
579.121	28546.81
579.319	28888.82
579.516	29015.79
579.714	28708.6
579.912	28294.91
580.11	28385.02
580.308	28511.99
580.506	28356.35
580.704	28040.96
580.901	28423.93
581.099	28395.26
581.297	27979.52
581.495	28114.69
581.692	27907.84
581.89	27657.99
582.088	28045.05
582.285	28000
582.483	27758.34
582.681	27614.98
582.878	27422.47
583.076	27488.01
583.274	27676.42
583.471	27303.69
583.669	27438.86
583.866	27016.97
584.064	27365.13
584.262	26869.52
584.459	27012.88
584.657	26890
584.854	27154.19
585.052	26752.79
585.249	26634
585.447	26701.59
585.644	26384.15
585.841	26591
586.039	26740.5
586.236	26445.59
586.434	26232.6
586.631	26199.83
586.828	26369.82
587.026	26140.44
587.223	25878.3
587.42	25978.65
587.618	25835.3
587.815	25554.72
588.012	25669.41
588.21	25790.24
588.407	25317.16
588.604	25712.42
588.801	25104.17
588.999	25384.74
589.196	25659.17
589.393	25155.37
589.59	25155.37
589.787	25507.62
589.984	25112.36
590.182	24872.75
590.379	25005.87
590.576	24944.43
590.773	24588.08
590.97	24741.68
591.167	24764.21
591.364	24424.25
591.561	24614.71
591.758	24493.88
591.955	24311.61
592.152	24596.28
592.349	24276.79
592.546	24473.4
592.743	24338.23
592.94	23836.48
593.137	24231.74
593.334	24317.75
593.531	23459.65
593.727	23975.74
593.924	23613.25
594.121	23480.13
594.318	23852.86
594.515	23641.92
594.712	23713.6
594.908	23291.72
595.105	23715.65
595.302	23013.2
595.499	23248.71
595.696	23199.56
595.892	22869.84
596.089	23156.55
596.286	22986.57
596.482	22959.95
596.679	22955.85
596.876	22726.48
597.072	22857.55
597.269	22599.51
597.466	22499.16
597.662	22570.83
597.859	22390.61
598.055	22400.85
598.252	21903.2
598.448	22382.42
598.645	22275.93
598.841	22095.71
599.038	22134.62
599.234	22019.93
599.431	21868.38
599.627	21684.06
599.824	22089.56
600.02	21804.89
600.217	21688.16
600.413	21749.6
600.609	21325.67
600.806	21632.86
601.002	21563.23
601.198	21266.28
601.395	21325.67
601.591	21237.61
601.787	21335.91
601.984	21055.34
602.18	21395.3
602.376	21059.43
602.572	20936.56
602.769	21104.49
602.965	20760.43
603.161	20705.13
603.357	20911.98
603.553	20586.35
603.75	20834.16
603.946	20346.74
604.142	20580.21
604.338	20299.64
604.534	20623.22
604.73	20342.64
604.926	20213.62
605.122	20180.85
605.318	19861.37
605.514	20107.13
605.71	19713.92
605.906	20004.73
606.102	19971.96
606.298	20195.19
606.494	19924.86
606.69	20074.36
606.886	19797.88
607.082	19414.91
607.278	19871.61
607.474	19447.68
607.67	19488.64
607.866	19289.99
608.062	19902.33
608.257	19443.59
608.453	19429.25
608.649	19249.03
608.845	18995.08
609.041	19181.45
609.236	19257.22
609.432	19011.46
609.628	19304.32
609.824	19077
610.019	19003.27
610.215	18964.36
610.411	19423.11
610.606	18847.63
610.802	18638.73
610.998	18864.01
611.193	18804.62
611.389	18712.46
611.584	18784.14
611.78	18634.64
611.976	18438.03
612.171	18716.56
612.367	18556.82
612.562	18421.65
612.758	18403.22
612.953	18395.03
613.149	18646.93
613.344	18216.85
613.539	18388.88
613.735	18306.96
613.93	18354.07
614.126	18028.44
614.321	18593.68
614.517	18311.06
614.712	18194.33
614.907	17942.42
615.103	17862.55
615.298	18042.78
615.493	18153.37
615.688	17831.83
615.884	18397.07
616.079	17893.27
616.274	17926.04
616.47	17932.19
616.665	18063.26
616.86	17606.56
617.055	17807.26
617.25	17627.04
617.445	17522.59
617.641	17332.13
617.836	17661.85
618.031	17457.06
618.226	17450.91
618.421	17278.88
618.616	17532.83
618.811	17246.12
619.006	17514.4
619.201	17160.1
619.396	16891.82
619.591	16926.63
619.786	17108.9
619.981	16883.63
620.176	16873.39
620.371	16752.56
620.566	16877.48
620.761	16426.93
620.956	16623.53
621.151	16359.35
621.346	16598.96
621.541	16355.25
621.735	16211.89
621.93	16187.32
622.125	16170.93
622.32	16074.68
622.515	16082.87
622.709	15804.35
622.904	15681.47
623.099	15953.85
623.294	15568.83
623.488	15675.32
623.683	15630.27
623.878	15290.31
624.072	15501.25
624.267	15499.2
624.462	15169.48
624.656	14919.62
624.851	15204.29
625.046	15083.46
625.24	14886.86
625.435	14749.64
625.629	14946.25
625.824	14698.44
626.018	14596.04
626.213	14157.78
626.407	14530.51
626.602	14364.62
626.796	14247.89
626.991	14192.59
627.185	14184.4
627.38	13856.73
627.574	13811.67
627.768	13864.92
627.963	13682.65
628.157	13795.29
628.352	13635.55
628.546	13588.44
628.74	13584.35
628.935	13492.19
629.129	13641.69
629.323	13361.12
629.517	13029.35
629.712	13283.3
629.906	13035.49
630.1	12988.39
630.294	13021.16
630.489	12916.71
630.683	13000.68
630.877	12759.02
631.071	12679.15
631.265	12914.66
631.459	12572.65
631.653	12625.9
631.848	12433.39
632.042	12445.68
632.236	12484.59
632.43	12470.25
632.624	12109.81
632.818	12040.18
633.012	11948.02
633.206	12027.89
633.4	11935.73
633.594	12034.04
633.788	11853.81
633.982	12058.61
634.176	11726.84
634.369	11636.73
634.563	11425.79
634.757	11438.08
634.951	11591.67
635.145	11347.97
635.339	11507.71
635.533	11292.67
635.726	11292.67
635.92	11116.55
636.114	11069.44
636.308	11208.7
636.501	11350.01
636.695	10981.38
636.889	10946.56
637.083	10723.34
637.276	10534.92
637.47	10604.55
637.664	10745.86
637.857	10770.44
638.051	10688.52
638.244	10786.82
638.438	10545.16
638.632	10366.99
638.825	10381.32
639.019	10323.98
639.212	10108.94
639.406	10268.69
639.599	10203.15
639.793	10117.14
639.986	9967.63
640.18	10094.61
640.373	10231.82
640.567	9861.14
640.76	9990.16
640.954	9910.29
641.147	9793.56
641.34	9721.88
641.534	9885.72
641.727	9551.9
641.92	9584.66
642.114	9521.18
642.307	9519.13
642.5	9338.91
642.694	9211.93
642.887	9412.64
643.08	9209.89
643.273	9228.32
643.467	9080.86
643.66	8806.44
643.853	9031.71
644.046	8994.85
644.239	8949.79
644.432	8990.75
644.626	8871.97
644.819	8716.33
645.012	8749.09
645.205	8638.5
645.398	8712.23
645.591	8757.29
645.784	8589.35
645.977	8595.5
646.17	8345.64
646.363	8482.86
646.556	8466.47
646.749	8605.74
646.942	8415.27
647.135	8427.56
647.328	8263.72
647.521	8271.92
647.714	8110.13
647.907	8067.12
648.099	8087.6
648.292	7946.29
648.485	7991.34
648.678	7825.46
648.871	7850.03
649.064	7905.33
649.256	7929.91
649.449	7796.79
649.642	7716.92
649.835	7669.81
650.027	7778.36
650.22	7536.7
650.413	7606.33
650.605	7546.94
650.798	7497.78
650.991	7422.01
651.183	7528.5
651.376	7321.66
651.568	7497.78
651.761	7307.32
651.954	7239.74
652.146	7149.63
652.339	7385.15
652.531	7184.45
652.724	7159.87
652.916	6993.98
653.109	7036.99
653.301	6983.74
653.494	6916.16
653.686	6916.16
653.879	6905.92
654.071	6928.45
654.263	6901.83
654.456	6998.08
654.648	6914.11
654.84	6586.44
655.033	6647.88
655.225	6490.18
655.417	6477.9
655.61	6715.46
655.802	6531.14
655.994	6525
656.186	6547.53
656.379	6418.5
656.571	6520.9
656.763	6481.99
656.955	6412.36
657.148	6246.48
657.34	6373.45
657.532	6260.81
657.724	6348.87
657.916	6096.97
658.108	6137.93
658.3	6250.57
658.492	6197.32
658.684	6037.58
658.876	5984.34
659.068	6123.6
659.26	5859.41
659.452	6078.54
659.644	5955.66
659.836	5857.36
660.028	5754.96
660.22	5693.52
660.412	5783.63
660.604	5570.65
660.796	5861.46
660.988	5734.48
661.18	5572.69
661.372	5642.32
661.563	5677.14
661.755	5673.04
661.947	5591.13
662.139	5505.11
662.331	5595.22
662.522	5439.58
662.714	5208.16
662.906	5464.15
663.097	5443.67
663.289	5308.51
663.481	5281.88
663.673	5255.26
663.864	5296.22
664.056	5144.67
664.247	5144.67
664.439	4991.07
664.631	5318.75
664.822	5234.78
665.014	5056.61
665.205	5042.27
665.397	5027.93
665.588	5023.84
665.78	4954.21
665.971	4923.49
666.163	4890.72
666.354	5081.18
666.546	4999.26
666.737	4966.49
666.929	4915.3
667.12	4964.45
667.311	4948.06
667.503	4720.74
667.694	4726.88
667.885	4784.23
668.077	4841.57
668.268	4702.31
668.459	4763.75
668.651	4780.13
668.842	4636.77
669.033	4710.5
669.224	4466.79
669.416	4663.4
669.607	4563.05
669.798	4407.4
669.989	4554.85
670.18	4438.12
670.371	4442.21
670.563	4448.36
670.754	4624.48
670.945	4284.52
671.136	4335.72
671.327	4450.41
671.518	4261.99
671.709	4407.4
671.9	4415.59
672.091	4278.38
672.282	4280.43
672.473	4196.46
672.664	4196.46
672.855	4128.88
673.046	4286.57
673.237	4171.88
673.428	4141.16
673.619	4130.92
673.809	4067.44
674	4075.63
674.191	4130.92
674.382	4059.24
674.573	3977.33
674.764	4028.53
674.954	4253.8
675.145	4046.96
675.336	3883.12
675.527	3915.89
675.717	4038.77
675.908	3874.93
676.099	3866.74
676.289	3881.07
676.48	3899.5
676.671	3752.05
676.861	3924.08
677.052	3803.25
677.243	3811.44
677.433	3709.04
677.624	3895.41
677.814	3702.9
678.005	3743.86
678.195	3864.69
678.386	3842.16
678.576	3702.9
678.767	3598.45
678.957	3752.05
679.148	3706.99
679.338	3614.84
679.529	3580.02
679.719	3756.15
679.909	3684.47
680.1	3811.44
680.29	3575.92
680.481	3637.36
680.671	3584.12
680.861	3684.47
681.052	3469.43
681.242	3448.95
681.432	3600.5
681.622	3514.49
681.813	3498.1
682.003	3532.92
682.193	3522.68
682.383	3405.94
682.573	3371.13
682.764	3328.12
682.954	3516.53
683.144	3416.18
683.334	3426.42
683.524	3416.18
683.714	3412.09
683.904	3330.17
684.094	3373.18
684.284	3276.92
684.474	3422.33
684.664	3295.35
684.854	3412.09
685.044	3303.54
685.234	3328.12
685.424	3270.78
685.614	3303.54
685.804	3346.55
685.994	3260.54
686.184	3303.54
686.374	3203.19
686.564	3235.96
686.753	3123.32
686.943	3065.98
687.133	3172.47
687.323	3072.12
687.513	3182.71
687.702	3158.14
687.892	2994.3
688.082	3154.04
688.272	3102.84
688.461	3106.94
688.651	3051.64
688.841	3020.92
689.03	3080.32
689.22	2936.96
689.41	3070.08
689.599	3010.68
689.789	2936.96
689.979	3104.89
690.168	2936.96
690.358	2941.05
690.547	2916.48
690.737	2984.06
690.926	2930.81
691.116	2836.61
691.305	2885.76
691.495	2896
691.684	2871.42
691.874	2916.48
692.063	2750.59
692.252	2883.71
692.442	2805.89
692.631	2617.47
692.82	2801.79
693.01	2699.39
693.199	2769.02
693.388	2711.68
693.578	2762.88
693.767	2711.68
693.956	2742.4
694.146	2635.91
694.335	2703.49
694.524	2779.26
694.713	2678.91
694.902	2640
695.092	2709.63
695.281	2631.81
695.47	2687.11
695.659	2556.04
695.848	2558.08
696.037	2648.19
696.226	2633.86
696.415	2568.32
696.604	2627.71
696.793	2605.19
696.982	2637.95
697.171	2635.91
697.36	2558.08
697.549	2496.64
697.738	2451.59
697.927	2556.04
698.116	2568.32
698.305	2523.27
698.494	2562.18
698.683	2431.11
698.872	2541.7
699.061	2439.3
699.25	2494.6
699.438	2535.56
699.627	2422.92
699.816	2521.22
700.005	2578.56
700.193	2330.76
700.382	2494.6
700.571	2427.01
700.76	2500.74
700.948	2402.44
701.137	2400.39
701.326	2451.59
701.514	2465.93
701.703	2453.64
701.892	2252.94
702.08	2449.54
702.269	2351.24
702.457	2359.43
702.646	2375.81
702.834	2441.35
703.023	2388.1
703.212	2416.77
703.4	2312.33
703.589	2433.16
703.777	2418.82
703.965	2351.24
704.154	2433.16
704.342	2427.01
704.531	2416.77
704.719	2377.86
704.907	2324.62
705.096	2400.39
705.284	2531.46
705.472	2400.39
705.661	2379.91
705.849	2328.71
706.037	2293.9
706.226	2261.13
706.414	2273.42
706.602	2263.18
706.79	2347.14
706.979	2359.43
707.167	2326.66
707.355	2187.4
707.543	2420.87
707.731	2285.7
707.919	2271.37
708.107	2185.35
708.296	2295.94
708.484	2291.85
708.672	2306.18
708.86	2361.48
709.048	2138.25
709.236	2193.55
709.424	2314.38
709.612	2320.52
709.8	2238.6
709.988	2211.98
710.176	2244.74
710.364	2244.74
710.551	2263.18
710.739	2107.53
710.927	2244.74
711.115	2203.79
711.303	2214.02
711.491	2162.83
711.679	2236.55
711.866	2134.15
712.054	2343.05
712.242	2138.25
712.43	2216.07
712.617	2171.02
712.805	2150.54
712.993	2244.74
713.181	2021.52
713.368	2222.22
713.556	2158.73
713.744	2226.31
713.931	2265.22
714.119	2140.3
714.306	2138.25
714.494	2269.32
714.682	2220.17
714.869	2320.52
715.057	2201.74
715.244	2199.69
715.432	2156.68
715.619	2195.59
715.807	2211.98
715.994	2128.01
716.182	2068.62
716.369	2146.44
716.556	2115.72
716.744	2123.91
716.931	2123.91
717.119	2211.98
717.306	2095.24
717.493	2058.38
717.681	2254.98
717.868	2132.11
718.055	2048.14
718.242	2130.06
718.43	2189.45
718.617	2093.19
718.804	2039.95
718.991	2113.67
719.179	2107.53
719.366	2128.01
719.553	2113.67
719.74	2171.02
719.927	2035.85
720.114	2031.76
720.301	2105.48
720.488	2095.24
720.676	2048.14
720.863	2091.15
721.05	2058.38
721.237	2173.07
721.424	2134.15
721.611	2042
721.798	2060.43
721.985	2025.61
722.172	2017.42
722.358	2080.91
722.545	2132.11
722.732	2095.24
722.919	2080.91
723.106	2046.09
723.293	1996.94
723.48	2101.39
723.667	1958.03
723.853	2031.76
724.04	2130.06
724.227	1978.51
724.414	2017.42
724.6	1927.31
724.787	1982.6
724.974	2109.58
725.161	2052.24
725.347	1933.45
725.534	2017.42
725.72	1958.03
725.907	2037.9
726.094	1937.55
726.28	1966.22
726.467	2003.08
726.653	1908.88
726.84	1990.8
727.027	2042
727.213	1931.41
727.4	2007.18
727.586	2074.76
727.773	1937.55
727.959	1904.78
728.145	2015.37
728.332	1958.03
728.518	1974.41
728.705	2058.38
728.891	1933.45
729.077	1943.69
729.264	1908.88
729.45	1908.88
729.636	1925.26
729.823	1925.26
730.009	1953.93
730.195	1945.74
730.382	1876.11
730.568	1841.29
730.754	1892.49
730.94	1867.92
731.126	1912.97
731.313	1974.41
731.499	1878.16
731.685	1869.97
731.871	1884.3
732.057	1894.54
732.243	1925.26
732.429	1902.73
732.615	1886.35
732.801	1796.24
732.987	1816.72
733.173	1814.67
733.359	1927.31
733.545	1843.34
733.731	1878.16
733.917	1925.26
734.103	1927.31
734.289	1867.92
734.475	1747.09
734.661	1908.88
734.847	1812.62
735.033	1925.26
735.219	1812.62
735.404	1941.65
735.59	1745.04
735.776	1931.41
735.962	1820.81
736.148	1843.34
736.333	1802.38
736.519	1761.42
736.705	1802.38
736.89	1808.53
737.076	1788.05
737.262	1736.85
737.447	1872.01
737.633	1761.42
737.819	1704.08
738.004	1775.76
738.19	1810.58
738.375	1736.85
738.561	1781.9
738.747	1826.96
738.932	1659.03
739.118	1761.42
739.303	1822.86
739.489	1749.14
739.674	1726.61
739.859	1665.17
740.045	1714.32
740.23	1687.7
740.416	1652.88
740.601	1728.66
740.786	1656.98
740.972	1734.8
741.157	1616.02
741.342	1597.59
741.528	1566.87
741.713	1652.88
741.898	1523.86
742.084	1720.46
742.269	1728.66
742.454	1667.22
742.639	1634.45
742.824	1593.49
743.01	1646.74
743.195	1634.45
743.38	1654.93
743.565	1626.26
743.75	1636.5
743.935	1650.83
744.12	1591.44
744.305	1652.88
744.49	1624.21
744.675	1480.85
744.86	1493.14
745.045	1550.48
745.23	1509.52
745.415	1501.33
745.6	1573.01
745.785	1509.52
745.97	1517.72
746.155	1566.87
746.34	1386.65
746.525	1413.27
746.71	1507.48
746.895	1548.44
747.079	1446.04
747.264	1474.71
747.449	1433.75
747.634	1462.42
747.819	1425.56
748.003	1491.09
748.188	1343.64
748.373	1503.38
748.557	1366.17
748.742	1368.21
748.927	1351.83
749.111	1351.83
749.296	1411.22
749.481	1323.16
749.665	1351.83
749.85	1355.93
750.034	1382.55
750.219	1208.47
750.404	1319.06
750.588	1282.2
750.773	1253.53
750.957	1304.73
751.141	1341.59
751.326	1327.25
751.51	1216.66
751.695	1261.72
751.879	1257.62
752.064	1333.4
752.248	1335.45
752.432	1206.42
752.617	1126.55
752.801	1239.19
752.985	1136.79
753.17	1171.61
753.354	1155.23
753.538	1243.29
753.722	1077.4
753.907	1091.74
754.091	1147.03
754.275	1132.7
754.459	1063.07
754.643	1118.36
754.828	1190.04
755.012	1085.59
755.196	1114.27
755.38	1069.21
755.564	1030.3
755.748	1114.27
755.932	1048.73
756.116	1018.01
756.3	1067.16
756.484	1140.89
756.668	1005.72
756.852	1126.55
757.036	1003.68
757.22	1001.63
757.404	977.05
757.588	999.58
757.772	1011.87
757.956	956.57
758.14	1052.83
758.323	993.44
758.507	987.29
758.691	970.91
758.875	1005.72
759.059	954.52
759.242	968.86
759.426	938.14
759.61	925.85
759.794	923.8
759.977	981.15
760.161	948.38
760.345	911.52
760.528	893.09
760.712	917.66
760.895	788.64
761.079	837.79
761.263	880.8
761.446	870.56
761.63	860.32
761.813	952.48
761.997	850.08
762.18	886.94
762.364	884.89
762.547	751.78
762.731	811.17
762.914	811.17
763.098	886.94
763.281	794.78
763.464	794.78
763.648	848.03
763.831	917.66
764.015	802.97
764.198	860.32
764.381	854.17
764.564	786.59
764.748	852.13
764.931	837.79
765.114	805.02
765.297	788.64
765.481	788.64
765.664	827.55
765.847	815.26
766.03	843.93
766.213	762.02
766.397	788.64
766.58	751.78
766.763	757.92
766.946	735.39
767.129	770.21
767.312	776.35
767.495	729.25
767.678	762.02
767.861	731.3
768.044	729.25
768.227	751.78
768.41	766.11
768.593	723.1
768.776	702.62
768.959	764.06
769.142	727.2
769.324	729.25
769.507	673.95
769.69	747.68
769.873	618.66
770.056	692.38
770.239	661.66
770.421	757.92
770.604	747.68
770.787	639.14
770.97	694.43
771.152	565.41
771.335	618.66
771.518	655.52
771.7	790.69
771.883	723.1
772.066	639.14
772.248	667.81
772.431	704.67
772.613	614.56
772.796	628.9
772.978	706.72
773.161	690.34
773.343	616.61
773.526	589.99
773.708	575.65
773.891	671.9
774.073	653.47
774.256	643.23
774.438	655.52
774.621	698.53
774.803	639.14
774.985	589.99
775.168	551.07
775.35	575.65
775.532	649.38
775.715	581.79
775.897	645.28
776.079	516.26
776.261	526.5
776.444	559.27
776.626	499.88
776.808	555.17
776.99	592.03
777.173	608.42
777.355	630.95
777.537	583.84
777.719	518.31
777.901	503.97
778.083	481.44
778.265	467.11
778.447	553.12
778.629	485.54
778.811	528.55
778.993	485.54
779.175	569.51
779.357	483.49
779.539	534.69
779.721	536.74
779.903	475.3
780.085	467.11
780.267	401.57
780.449	387.24
780.631	536.74
780.812	508.07
780.994	460.96
781.176	458.92
781.358	458.92
781.54	395.43
781.721	393.38
781.903	469.16
782.085	473.25
782.267	434.34
782.448	368.81
782.63	420
782.812	467.11
782.993	471.2
783.175	403.62
783.357	356.52
783.538	356.52
783.72	352.42
783.901	385.19
784.083	311.46
784.264	452.77
784.446	362.66
784.627	426.15
784.809	385.19
784.99	360.61
785.172	360.61
785.353	389.28
785.535	463.01
785.716	405.67
785.897	422.05
786.079	340.13
786.26	379.04
786.441	436.39
786.623	389.28
786.804	401.57
786.985	417.96
787.167	352.42
787.348	305.32
787.529	354.47
787.71	342.18
787.891	379.04
788.073	274.6
788.254	346.28
788.435	387.24
788.616	368.81
788.797	252.07
788.978	295.08
789.159	321.7
789.34	346.28
789.522	245.93
789.703	340.13
789.884	229.54
790.065	295.08
790.246	286.89
790.427	268.45
790.607	266.41
790.788	325.8
790.969	290.98
791.15	307.37
791.331	213.16
791.512	305.32
791.693	286.89
791.874	319.65
792.054	278.69
792.235	278.69
792.416	233.64
792.597	182.44
792.778	329.89
792.958	329.89
793.139	188.58
793.32	278.69
793.5	278.69
793.681	325.8
793.862	295.08
794.042	184.49
794.223	204.97
794.404	262.31
794.584	241.83
794.765	254.12
794.945	227.5
795.126	239.78
795.306	264.36
795.487	290.98
795.667	272.55
795.848	278.69
796.028	221.35
796.209	305.32
796.389	188.58
796.57	278.69
796.75	250.02
796.93	288.93
797.111	233.64
797.291	254.12
797.471	233.64
797.652	241.83
797.832	164.01
798.012	231.59
798.192	196.78
798.373	200.87
798.553	131.24
798.733	188.58
798.913	166.06
799.093	204.97
799.274	284.84
799.454	278.69
799.634	245.93
799.814	262.31
799.994	247.97
800.174	182.44
800.354	233.64
800.534	159.91
800.714	149.67
800.894	147.62
801.074	204.97
801.254	180.39
801.434	213.16
801.614	213.16
801.794	192.68
801.974	696.48
802.154	243.88
802.334	196.78
802.514	125.1
802.693	188.58
802.873	90.28
803.053	194.73
803.233	151.72
803.413	90.28
803.592	75.95
803.772	260.26
803.952	133.29
804.131	180.39
804.311	194.73
804.491	164.01
804.67	159.91
804.85	125.1
805.03	180.39
805.209	221.35
805.389	139.43
805.568	71.85
805.748	213.16
805.928	108.71
806.107	198.82
806.287	174.25
806.466	219.3
806.646	108.71
806.825	63.66
807.004	180.39
807.184	174.25
807.363	190.63
807.543	127.14
807.722	106.67
807.901	151.72
808.081	147.62
808.26	57.51
808.439	176.3
808.619	204.97
808.798	141.48
808.977	90.28
809.156	200.87
809.336	143.53
809.515	172.2
809.694	129.19
809.873	133.29
810.052	182.44
810.231	118.95
810.411	143.53
810.59	125.1
810.769	184.49
810.948	161.96
811.127	104.62
811.306	106.67
811.485	75.95
811.664	139.43
811.843	90.28
812.022	86.19
812.201	164.01
812.38	180.39
812.559	80.04
812.737	106.67
812.916	67.75
813.095	131.24
813.274	116.9
813.453	110.76
813.632	129.19
813.811	198.82
813.989	75.95
814.168	61.61
814.347	90.28
814.526	157.86
814.704	213.16
814.883	106.67
815.062	155.82
815.24	155.82
815.419	176.3
815.598	116.9
815.776	67.75
815.955	82.09
816.133	102.57
816.312	88.23
816.49	123.05
816.669	69.8
816.847	131.24
817.026	108.71
817.204	80.04
817.383	155.82
817.561	114.86
817.74	159.91
817.918	94.38
818.097	69.8
818.275	20.65
818.453	82.09
818.632	141.48
818.81	123.05
818.988	75.95
819.167	98.47
819.345	135.34
819.523	82.09
819.701	131.24
819.879	90.28
820.058	86.19
820.236	77.99
820.414	135.34
820.592	110.76
820.77	102.57
820.948	69.8
821.127	116.9
821.305	73.9
821.483	59.56
821.661	69.8
821.839	116.9
822.017	32.94
822.195	16.55
822.373	92.33
822.551	114.86
822.729	94.38
822.907	90.28
823.085	-3.93
823.262	125.1
823.44	84.14
823.618	147.62
823.796	159.91
823.974	49.32
824.152	49.32
824.329	170.15
824.507	32.94
824.685	90.28
824.863	61.61
825.04	53.42
825.218	114.86
825.396	43.18
825.574	8.36
825.751	51.37
825.929	174.25
826.107	92.33
826.284	73.9
826.462	71.85
826.639	8.36
826.817	73.9
826.994	108.71
827.172	98.47
827.349	80.04
827.527	84.14
827.704	100.52
827.882	67.75
828.059	106.67
828.237	28.84
828.414	149.67
828.591	114.86
828.769	41.13
828.946	129.19
829.124	104.62
829.301	45.23
829.478	51.37
829.655	22.7
829.833	37.03
830.01	-48.98
830.187	24.75
830.364	98.47
830.542	45.23
830.719	106.67
830.896	75.95
831.073	82.09
831.25	96.43
831.427	106.67
831.604	84.14
831.782	30.89
831.959	106.67
832.136	2.22
832.313	123.05
832.49	82.09
832.667	112.81
832.844	-71.51
833.021	108.71
833.198	32.94
833.374	108.71
833.551	61.61
833.728	41.13
833.905	59.56
834.082	10.41
834.259	37.03
834.436	28.84
834.612	10.41
834.789	18.6
834.966	20.65
835.143	43.18
835.319	63.66
835.496	61.61
835.673	43.18
835.85	92.33
836.026	10.41
836.203	49.32
836.38	26.79
836.556	61.61
836.733	63.66
836.909	67.75
837.086	12.46
837.262	-24.4
837.439	-34.64
837.616	-5.97
837.792	39.08
837.968	96.43
838.145	2.22
838.321	0.17
838.498	114.86
838.674	63.66
838.851	37.03
839.027	30.89
839.203	67.75
839.38	28.84
839.556	32.94
839.732	77.99
839.909	59.56
840.085	32.94
840.261	16.55
840.437	73.9
840.614	-10.07
840.79	34.99
840.966	8.36
841.142	59.56
841.318	61.61
841.494	84.14
841.671	-3.93
841.847	53.42
842.023	32.94
842.199	61.61
842.375	153.77
842.551	6.31
842.727	100.52
842.903	69.8
843.079	-3.93
843.255	49.32
843.431	39.08
843.607	26.79
843.783	-22.36
843.959	8.36
844.134	37.03
844.31	90.28
844.486	53.42
844.662	41.13
844.838	-53.08
845.013	69.8
845.189	-1.88
845.365	-34.64
845.541	108.71
845.716	16.55
845.892	10.41
846.068	110.76
846.244	-32.6
846.419	90.28
846.595	75.95
846.77	28.84
846.946	28.84
847.122	-1.88
847.297	-8.02
847.473	69.8
847.648	28.84
847.824	-18.26
847.999	-28.5
848.175	65.71
848.35	24.75
848.526	77.99
848.701	-20.31
848.876	59.56
849.052	61.61
849.227	-30.55
849.403	-3.93
849.578	82.09
849.753	24.75
849.929	73.9
850.104	18.6
850.279	80.04
850.454	-22.36
850.63	32.94
850.805	67.75
850.98	49.32
851.155	-22.36
851.33	24.75
851.505	-8.02
851.681	86.19
851.856	-30.55
852.031	73.9
852.206	8.36
852.381	2.22
852.556	-10.07
852.731	43.18
852.906	-8.02
853.081	-16.21
853.256	12.46
853.431	-5.97
853.606	-14.17
853.781	-28.5
853.956	-10.07
854.131	49.32
854.305	49.32
854.48	28.84
854.655	2.22
854.83	16.55
855.005	12.46
855.18	43.18
855.354	-57.17
855.529	-5.97
855.704	18.6
855.879	55.47
856.053	14.51
856.228	37.03
856.403	49.32
856.577	24.75
856.752	34.99
856.926	-5.97
857.101	45.23
857.276	63.66
857.45	-32.6
857.625	43.18
857.799	24.75
857.974	59.56
858.148	-3.93
858.323	0.17
858.497	-10.07
858.672	-3.93
858.846	-32.6
859.02	-22.36
859.195	49.32
859.369	2.22
859.543	-61.27
859.718	2.22
859.892	-8.02
860.066	0.17
860.241	41.13
860.415	16.55
860.589	57.51
860.763	6.31
860.938	-38.74
861.112	-38.74
861.286	-5.97
861.46	-8.02
861.634	-46.93
861.808	41.13
861.982	-24.4
862.157	49.32
862.331	16.55
862.505	-32.6
862.679	-57.17
862.853	-14.17
863.027	4.27
863.201	75.95
863.375	0.17
863.549	10.41
863.722	-24.4
863.896	49.32
864.07	-30.55
864.244	-26.45
864.418	8.36
864.592	49.32
864.766	0.17
864.939	73.9
865.113	45.23
865.287	51.37
865.461	-8.02
865.634	16.55
865.808	-8.02
865.982	2.22
866.156	10.41
866.329	-69.46
866.503	-85.84
866.676	14.51
866.85	-42.84
867.024	57.51
867.197	92.33
867.371	39.08
867.544	24.75
867.718	24.75
867.891	37.03
868.065	16.55
868.238	-18.26
868.412	-12.12
868.585	92.33
868.759	-38.74
868.932	22.7
869.105	-44.88
869.279	-8.02
869.452	-32.6
869.625	14.51
869.799	-8.02
869.972	39.08
870.145	24.75
870.319	-5.97
870.492	-5.97
870.665	-69.46
870.838	24.75
871.011	-57.17
871.185	-1.88
871.358	-16.21
871.531	26.79
871.704	-40.79
871.877	4.27
872.05	32.94
872.223	-16.21
872.396	-32.6
872.569	45.23
872.742	-61.27
872.915	32.94
873.088	20.65
873.261	-20.31
873.434	-3.93
873.607	-20.31
873.78	67.75
873.953	14.51
874.126	-5.97
874.299	34.99
874.471	-59.22
874.644	-12.12
874.817	41.13
874.99	53.42
875.163	18.6
875.335	57.51
875.508	57.51
875.681	57.51
875.853	57.51
876.026	8.36
876.199	0.17
876.371	43.18
876.544	-30.55
876.717	-69.46
876.889	61.61
877.062	-44.88
877.234	61.61
877.407	4.27
877.579	32.94
877.752	-30.55
877.924	-30.55
878.097	-10.07
878.269	69.8
878.442	65.71
878.614	-32.6
878.786	49.32
878.959	151.72
879.131	-20.31
879.303	-73.56
879.476	-8.02
879.648	53.42
879.82	57.51
879.993	28.84
880.165	47.27
880.337	-40.79
880.509	12.46
880.681	-46.93
880.854	-18.26
881.026	-32.6
881.198	24.75
881.37	-89.94
881.542	-22.36
881.714	55.47
881.886	-14.17
882.058	-55.12
882.23	55.47
882.402	47.27
882.574	-48.98
882.746	-8.02
882.918	67.75
883.09	49.32
883.262	16.55
883.434	47.27
883.606	-22.36
883.778	41.13
883.95	57.51
884.122	-53.08
884.293	-38.74
884.465	-34.64
884.637	28.84
884.809	-14.17
884.98	-46.93
885.152	24.75
885.324	90.28
885.496	34.99
885.667	18.6
885.839	-53.08
886.011	22.7
886.182	-48.98
886.354	84.14
886.525	55.47
886.697	47.27
886.869	-63.32
887.04	26.79
887.212	65.71
887.383	-34.64
887.555	-36.69
887.726	-14.17
887.897	-48.98
888.069	45.23
888.24	-14.17
888.412	26.79
888.583	6.31
888.754	108.71
888.926	51.37
889.097	18.6
889.268	-8.02
889.44	18.6
889.611	-3.93
889.782	-51.03
889.953	-34.64
890.125	86.19
890.296	24.75
890.467	-14.17
890.638	-57.17
890.809	-8.02
890.98	-73.56
891.151	49.32
891.323	57.51
891.494	16.55
891.665	-98.13
891.836	-18.26
892.007	-36.69
892.178	-36.69
892.349	57.51
892.52	14.51
892.691	59.56
892.862	57.51
893.032	-36.69
893.203	28.84
893.374	0.17
893.545	32.94
893.716	-69.46
893.887	51.37
894.057	37.03
894.228	16.55
894.399	-40.79
894.57	16.55
894.74	32.94
894.911	-28.5
895.082	-1.88
895.253	-14.17
895.423	-12.12
895.594	-12.12
895.764	-57.17
895.935	-67.41
896.106	18.6
896.276	-63.32
896.447	49.32
896.617	65.71
896.788	8.36
896.958	-40.79
897.129	49.32
897.299	-44.88
897.47	26.79
897.64	51.37
897.81	-24.4
897.981	-44.88
898.151	41.13
898.322	-8.02
898.492	-12.12
898.662	18.6
898.832	-26.45
899.003	16.55
899.173	4.27
899.343	57.51
899.513	-85.84
