Data from USB4F104151__300__14-24-01-631.txt Node

Date: Thu Mar 13 14:24:01 EDT 2025
User: louis
Spectrometer: USB4F10415
Trigger mode: 4
Integration Time (sec): 2.000000E-2
Scans to average: 1
Electric dark correction enabled: true
Nonlinearity correction enabled: false
Boxcar width: 0
XAxis mode: Wavelengths
Number of Pixels in Spectrum: 3648
>>>>>Begin Spectral Data<<<<<
178.204	-100.35
178.424	-100.35
178.644	-100.35
178.864	-75.77
179.084	-16.38
179.304	6.14
179.524	12.29
179.744	-20.48
179.964	-24.58
180.184	-40.96
180.404	73.73
180.624	-20.48
180.844	38.91
181.064	-38.91
181.283	28.67
181.503	-28.67
181.723	14.34
181.943	-61.44
182.163	40.96
182.383	4.1
182.602	0
182.822	69.63
183.042	49.15
183.262	69.63
183.482	30.72
183.701	55.3
183.921	12.29
184.141	-40.96
184.361	110.59
184.58	-10.24
184.8	75.77
185.02	-4.1
185.239	55.3
185.459	-8.19
185.679	30.72
185.898	-38.91
186.118	77.82
186.338	88.06
186.557	110.59
186.777	38.91
186.997	-4.1
187.216	43.01
187.436	157.69
187.655	61.44
187.875	145.41
188.095	57.34
188.314	67.58
188.534	81.92
188.753	8.19
188.973	57.34
189.192	36.86
189.412	47.1
189.631	88.06
189.851	8.19
190.07	63.49
190.29	88.06
190.509	69.63
190.729	106.49
190.948	20.48
191.168	143.36
191.387	108.54
191.607	22.53
191.826	34.82
192.045	-45.06
192.265	55.3
192.484	16.38
192.704	10.24
192.923	36.86
193.142	151.55
193.362	98.3
193.581	63.49
193.8	4.1
194.02	94.21
194.239	77.82
194.458	28.67
194.678	79.87
194.897	12.29
195.116	112.64
195.335	61.44
195.555	69.63
195.774	77.82
195.993	45.06
196.212	6.14
196.432	16.38
196.651	28.67
196.87	16.38
197.089	36.86
197.308	30.72
197.528	16.38
197.747	-45.06
197.966	73.73
198.185	155.65
198.404	30.72
198.623	36.86
198.842	53.25
199.062	96.25
199.281	110.59
199.5	14.34
199.719	12.29
199.938	77.82
200.157	131.07
200.376	110.59
200.595	55.3
200.814	45.06
201.033	120.83
201.252	61.44
201.471	38.91
201.69	55.3
201.909	16.38
202.128	6.14
202.347	63.49
202.566	22.53
202.785	2.05
203.004	75.77
203.223	14.34
203.442	32.77
203.661	12.29
203.879	108.54
204.098	135.17
204.317	-45.06
204.536	102.4
204.755	10.24
204.974	79.87
205.193	75.77
205.411	45.06
205.63	32.77
205.849	18.43
206.068	36.86
206.287	20.48
206.505	28.67
206.724	32.77
206.943	20.48
207.162	-10.24
207.381	-20.48
207.599	88.06
207.818	12.29
208.037	55.3
208.255	38.91
208.474	83.97
208.693	30.72
208.911	120.83
209.13	90.11
209.349	57.34
209.567	86.01
209.786	110.59
210.005	53.25
210.223	32.77
210.442	32.77
210.661	104.45
210.879	4.1
211.098	32.77
211.316	67.58
211.535	-8.19
211.753	6.14
211.972	67.58
212.191	45.06
212.409	20.48
212.628	36.86
212.846	12.29
213.065	92.16
213.283	4.1
213.502	86.01
213.72	88.06
213.938	124.93
214.157	75.77
214.375	98.3
214.594	55.3
214.812	79.87
215.031	6.14
215.249	-2.05
215.467	90.11
215.686	-10.24
215.904	4.1
216.122	12.29
216.341	69.63
216.559	26.62
216.778	102.4
216.996	110.59
217.214	104.45
217.432	-8.19
217.651	36.86
217.869	47.1
218.087	0
218.306	53.25
218.524	36.86
218.742	63.49
218.96	108.54
219.179	69.63
219.397	57.34
219.615	102.4
219.833	51.2
220.051	57.34
220.27	77.82
220.488	61.44
220.706	63.49
220.924	53.25
221.142	53.25
221.36	49.15
221.578	43.01
221.796	69.63
222.015	143.36
222.233	-8.19
222.451	120.83
222.669	26.62
222.887	88.06
223.105	16.38
223.323	38.91
223.541	12.29
223.759	120.83
223.977	40.96
224.195	86.01
224.413	61.44
224.631	86.01
224.849	53.25
225.067	110.59
225.285	20.48
225.503	24.58
225.721	53.25
225.939	71.68
226.157	49.15
226.375	110.59
226.592	30.72
226.81	16.38
227.028	79.87
227.246	86.01
227.464	28.67
227.682	81.92
227.9	18.43
228.117	73.73
228.335	63.49
228.553	51.2
228.771	86.01
228.989	10.24
229.206	12.29
229.424	24.58
229.642	10.24
229.86	47.1
230.077	36.86
230.295	67.58
230.513	26.62
230.731	67.58
230.948	38.91
231.166	51.2
231.384	4.1
231.601	67.58
231.819	118.78
232.037	47.1
232.254	12.29
232.472	28.67
232.689	-20.48
232.907	120.83
233.125	18.43
233.342	65.54
233.56	14.34
233.777	-20.48
233.995	-10.24
234.213	61.44
234.43	65.54
234.648	55.3
234.865	79.87
235.083	26.62
235.3	-16.38
235.518	114.69
235.735	55.3
235.953	24.58
236.17	79.87
236.388	75.77
236.605	-12.29
236.822	98.3
237.04	61.44
237.257	69.63
237.475	-49.15
237.692	79.87
237.909	49.15
238.127	22.53
238.344	2.05
238.562	135.17
238.779	-32.77
238.996	20.48
239.214	18.43
239.431	79.87
239.648	30.72
239.865	38.91
240.083	47.1
240.3	69.63
240.517	4.1
240.735	55.3
240.952	55.3
241.169	120.83
241.386	32.77
241.603	61.44
241.821	49.15
242.038	49.15
242.255	26.62
242.472	20.48
242.689	90.11
242.907	63.49
243.124	104.45
243.341	-28.67
243.558	-4.1
243.775	43.01
243.992	8.19
244.209	47.1
244.426	65.54
244.643	12.29
244.86	65.54
245.078	71.68
245.295	-18.43
245.512	73.73
245.729	-28.67
245.946	75.77
246.163	86.01
246.38	86.01
246.597	63.49
246.814	45.06
247.031	45.06
247.248	45.06
247.464	-10.24
247.681	71.68
247.898	73.73
248.115	34.82
248.332	38.91
248.549	81.92
248.766	98.3
248.983	104.45
249.2	-45.06
249.417	69.63
249.633	32.77
249.85	40.96
250.067	24.58
250.284	63.49
250.501	14.34
250.717	100.35
250.934	16.38
251.151	71.68
251.368	-38.91
251.585	75.77
251.801	73.73
252.018	59.39
252.235	8.19
252.451	30.72
252.668	-4.1
252.885	86.01
253.102	4.1
253.318	153.6
253.535	-4.1
253.752	36.86
253.968	88.06
254.185	-12.29
254.401	-2.05
254.618	59.39
254.835	90.11
255.051	49.15
255.268	8.19
255.484	49.15
255.701	90.11
255.917	102.4
256.134	38.91
256.351	77.82
256.567	61.44
256.784	12.29
257	32.77
257.217	16.38
257.433	53.25
257.65	61.44
257.866	77.82
258.082	53.25
258.299	47.1
258.515	81.92
258.732	-4.1
258.948	53.25
259.165	57.34
259.381	8.19
259.597	-24.58
259.814	-20.48
260.03	51.2
260.246	73.73
260.463	18.43
260.679	65.54
260.895	-8.19
261.112	-10.24
261.328	-32.77
261.544	75.77
261.761	129.02
261.977	36.86
262.193	88.06
262.409	53.25
262.626	77.82
262.842	30.72
263.058	18.43
263.274	79.87
263.49	-18.43
263.707	86.01
263.923	83.97
264.139	-10.24
264.355	102.4
264.571	110.59
264.787	12.29
265.004	126.97
265.22	34.82
265.436	-4.1
265.652	36.86
265.868	22.53
266.084	34.82
266.3	45.06
266.516	20.48
266.732	24.58
266.948	79.87
267.164	14.34
267.38	51.2
267.596	49.15
267.812	49.15
268.028	26.62
268.244	-4.1
268.46	28.67
268.676	73.73
268.892	86.01
269.108	47.1
269.324	47.1
269.54	18.43
269.756	106.49
269.972	53.25
270.188	59.39
270.403	-18.43
270.619	114.69
270.835	47.1
271.051	36.86
271.267	-20.48
271.483	57.34
271.698	133.12
271.914	98.3
272.13	71.68
272.346	124.93
272.562	-8.19
272.777	47.1
272.993	12.29
273.209	79.87
273.425	55.3
273.64	-4.1
273.856	53.25
274.072	20.48
274.287	-16.38
274.503	53.25
274.719	49.15
274.934	169.98
275.15	-14.34
275.366	18.43
275.581	83.97
275.797	59.39
276.012	49.15
276.228	77.82
276.444	22.53
276.659	112.64
276.875	69.63
277.09	67.58
277.306	77.82
277.521	86.01
277.737	94.21
277.952	79.87
278.168	71.68
278.383	40.96
278.599	30.72
278.814	116.73
279.03	45.06
279.245	69.63
279.461	26.62
279.676	161.79
279.892	55.3
280.107	24.58
280.322	12.29
280.538	81.92
280.753	71.68
280.969	45.06
281.184	36.86
281.399	126.97
281.615	40.96
281.83	98.3
282.045	55.3
282.26	18.43
282.476	0
282.691	38.91
282.906	55.3
283.122	67.58
283.337	28.67
283.552	18.43
283.767	20.48
283.983	36.86
284.198	18.43
284.413	-4.1
284.628	73.73
284.843	16.38
285.058	92.16
285.274	61.44
285.489	-28.67
285.704	53.25
285.919	38.91
286.134	8.19
286.349	61.44
286.564	32.77
286.779	122.88
286.995	47.1
287.21	14.34
287.425	4.1
287.64	38.91
287.855	69.63
288.07	-24.58
288.285	90.11
288.5	102.4
288.715	59.39
288.93	61.44
289.145	10.24
289.36	36.86
289.575	94.21
289.79	45.06
290.004	47.1
290.219	30.72
290.434	112.64
290.649	38.91
290.864	22.53
291.079	36.86
291.294	49.15
291.509	135.17
291.724	-36.86
291.938	61.44
292.153	45.06
292.368	65.54
292.583	61.44
292.798	55.3
293.012	10.24
293.227	59.39
293.442	45.06
293.657	86.01
293.871	159.74
294.086	20.48
294.301	73.73
294.516	45.06
294.73	34.82
294.945	104.45
295.16	45.06
295.374	14.34
295.589	-20.48
295.804	-2.05
296.018	20.48
296.233	86.01
296.447	40.96
296.662	-8.19
296.877	8.19
297.091	45.06
297.306	36.86
297.52	28.67
297.735	77.82
297.949	86.01
298.164	36.86
298.378	36.86
298.593	45.06
298.807	45.06
299.022	110.59
299.236	12.29
299.451	-16.38
299.665	18.43
299.88	38.91
300.094	98.3
300.309	-32.77
300.523	36.86
300.737	-8.19
300.952	53.25
301.166	129.02
301.381	26.62
301.595	28.67
301.809	-4.1
302.024	-61.44
302.238	69.63
302.452	51.2
302.667	8.19
302.881	96.25
303.095	143.36
303.309	20.48
303.524	45.06
303.738	73.73
303.952	14.34
304.166	65.54
304.381	28.67
304.595	61.44
304.809	28.67
305.023	36.86
305.237	40.96
305.452	69.63
305.666	110.59
305.88	86.01
306.094	51.2
306.308	94.21
306.522	83.97
306.736	112.64
306.95	22.53
307.164	69.63
307.379	65.54
307.593	88.06
307.807	81.92
308.021	20.48
308.235	-8.19
308.449	-30.72
308.663	81.92
308.877	112.64
309.091	129.02
309.305	77.82
309.519	36.86
309.733	32.77
309.947	77.82
310.161	81.92
310.374	61.44
310.588	38.91
310.802	4.1
311.016	24.58
311.23	6.14
311.444	43.01
311.658	75.77
311.872	131.07
312.085	36.86
312.299	90.11
312.513	96.25
312.727	53.25
312.941	-28.67
313.154	137.21
313.368	28.67
313.582	8.19
313.796	2.05
314.009	71.68
314.223	102.4
314.437	96.25
314.651	28.67
314.864	77.82
315.078	36.86
315.292	65.54
315.505	-16.38
315.719	30.72
315.933	2.05
316.146	61.44
316.36	75.77
316.573	143.36
316.787	96.25
317.001	143.36
317.214	45.06
317.428	69.63
317.641	104.45
317.855	110.59
318.068	61.44
318.282	28.67
318.495	94.21
318.709	129.02
318.922	83.97
319.136	71.68
319.349	98.3
319.563	135.17
319.776	49.15
319.99	24.58
320.203	22.53
320.417	88.06
320.63	81.92
320.843	104.45
321.057	110.59
321.27	53.25
321.483	14.34
321.697	18.43
321.91	38.91
322.124	63.49
322.337	67.58
322.55	-51.2
322.763	49.15
322.977	100.35
323.19	45.06
323.403	10.24
323.617	61.44
323.83	86.01
324.043	-2.05
324.256	61.44
324.469	12.29
324.683	94.21
324.896	32.77
325.109	59.39
325.322	6.14
325.535	53.25
325.748	67.58
325.962	38.91
326.175	-36.86
326.388	24.58
326.601	63.49
326.814	-36.86
327.027	-40.96
327.24	12.29
327.453	-43.01
327.666	-2.05
327.879	77.82
328.092	65.54
328.305	32.77
328.518	12.29
328.731	47.1
328.944	75.77
329.157	40.96
329.37	81.92
329.583	69.63
329.796	34.82
330.009	4.1
330.222	53.25
330.435	36.86
330.648	137.21
330.861	79.87
331.073	28.67
331.286	98.3
331.499	30.72
331.712	-20.48
331.925	18.43
332.138	18.43
332.35	129.02
332.563	26.62
332.776	90.11
332.989	12.29
333.202	47.1
333.414	-4.1
333.627	28.67
333.84	-12.29
334.053	110.59
334.265	6.14
334.478	10.24
334.691	-26.62
334.903	86.01
335.116	38.91
335.329	4.1
335.541	114.69
335.754	96.25
335.966	20.48
336.179	24.58
336.392	20.48
336.604	81.92
336.817	-26.62
337.029	45.06
337.242	36.86
337.454	92.16
337.667	16.38
337.88	63.49
338.092	40.96
338.305	16.38
338.517	40.96
338.729	77.82
338.942	141.31
339.154	36.86
339.367	10.24
339.579	73.73
339.792	-28.67
340.004	20.48
340.217	8.19
340.429	110.59
340.641	36.86
340.854	98.3
341.066	65.54
341.278	86.01
341.491	28.67
341.703	38.91
341.915	4.1
342.128	129.02
342.34	-4.1
342.552	61.44
342.764	122.88
342.977	45.06
343.189	96.25
343.401	116.73
343.613	38.91
343.826	77.82
344.038	-10.24
344.25	-12.29
344.462	77.82
344.674	30.72
344.886	102.4
345.099	86.01
345.311	36.86
345.523	71.68
345.735	49.15
345.947	-4.1
346.159	18.43
346.371	57.34
346.583	53.25
346.795	88.06
347.007	-36.86
347.219	75.77
347.431	-8.19
347.643	45.06
347.855	104.45
348.067	108.54
348.279	18.43
348.491	4.1
348.703	20.48
348.915	55.3
349.127	110.59
349.339	24.58
349.551	30.72
349.763	55.3
349.975	47.1
350.187	20.48
350.399	77.82
350.61	30.72
350.822	-2.05
351.034	47.1
351.246	69.63
351.458	30.72
351.669	69.63
351.881	14.34
352.093	51.2
352.305	118.78
352.517	30.72
352.728	55.3
352.94	2.05
353.152	110.59
353.363	71.68
353.575	102.4
353.787	112.64
353.999	86.01
354.21	83.97
354.422	28.67
354.633	57.34
354.845	73.73
355.057	0
355.268	24.58
355.48	61.44
355.692	45.06
355.903	28.67
356.115	86.01
356.326	77.82
356.538	88.06
356.749	26.62
356.961	65.54
357.172	100.35
357.384	79.87
357.595	36.86
357.807	38.91
358.018	118.78
358.23	83.97
358.441	137.21
358.653	43.01
358.864	67.58
359.075	86.01
359.287	98.3
359.498	-20.48
359.709	34.82
359.921	30.72
360.132	106.49
360.344	47.1
360.555	124.93
360.766	102.4
360.977	65.54
361.189	59.39
361.4	20.48
361.611	69.63
361.823	174.08
362.034	112.64
362.245	14.34
362.456	131.07
362.667	28.67
362.879	69.63
363.09	36.86
363.301	36.86
363.512	36.86
363.723	53.25
363.935	94.21
364.146	102.4
364.357	86.01
364.568	77.82
364.779	65.54
364.99	53.25
365.201	20.48
365.412	36.86
365.623	32.77
365.834	22.53
366.045	61.44
366.256	67.58
366.467	135.17
366.678	67.58
366.889	24.58
367.1	57.34
367.311	155.65
367.522	53.25
367.733	0
367.944	77.82
368.155	69.63
368.366	65.54
368.577	71.68
368.788	57.34
368.999	32.77
369.209	4.1
369.42	92.16
369.631	83.97
369.842	53.25
370.053	63.49
370.264	-12.29
370.474	32.77
370.685	45.06
370.896	77.82
371.107	20.48
371.317	6.14
371.528	51.2
371.739	110.59
371.95	65.54
372.16	28.67
372.371	65.54
372.582	-16.38
372.792	45.06
373.003	102.4
373.214	32.77
373.424	86.01
373.635	32.77
373.846	53.25
374.056	104.45
374.267	57.34
374.477	40.96
374.688	96.25
374.898	77.82
375.109	22.53
375.319	34.82
375.53	69.63
375.74	69.63
375.951	38.91
376.161	61.44
376.372	94.21
376.582	90.11
376.793	94.21
377.003	67.58
377.214	77.82
377.424	12.29
377.635	12.29
377.845	32.77
378.055	124.93
378.266	16.38
378.476	102.4
378.686	-20.48
378.897	53.25
379.107	20.48
379.317	34.82
379.528	65.54
379.738	94.21
379.948	63.49
380.158	94.21
380.369	22.53
380.579	122.88
380.789	102.4
380.999	143.36
381.21	98.3
381.42	61.44
381.63	45.06
381.84	16.38
382.05	69.63
382.261	90.11
382.471	112.64
382.681	67.58
382.891	102.4
383.101	71.68
383.311	4.1
383.521	20.48
383.731	92.16
383.941	65.54
384.151	12.29
384.361	8.19
384.571	61.44
384.781	69.63
384.991	86.01
385.201	67.58
385.411	110.59
385.621	114.69
385.831	0
386.041	53.25
386.251	57.34
386.461	53.25
386.671	114.69
386.881	71.68
387.091	36.86
387.301	57.34
387.511	118.78
387.72	135.17
387.93	59.39
388.14	79.87
388.35	28.67
388.56	98.3
388.769	88.06
388.979	40.96
389.189	36.86
389.399	-10.24
389.609	12.29
389.818	104.45
390.028	57.34
390.238	94.21
390.447	47.1
390.657	90.11
390.867	45.06
391.076	30.72
391.286	40.96
391.496	55.3
391.705	20.48
391.915	92.16
392.125	55.3
392.334	55.3
392.544	69.63
392.753	96.25
392.963	40.96
393.172	100.35
393.382	6.14
393.591	90.11
393.801	94.21
394.01	106.49
394.22	88.06
394.429	71.68
394.639	77.82
394.848	69.63
395.058	71.68
395.267	83.97
395.477	88.06
395.686	77.82
395.895	133.12
396.105	135.17
396.314	98.3
396.524	30.72
396.733	102.4
396.942	120.83
397.152	96.25
397.361	172.03
397.57	139.26
397.78	65.54
397.989	98.3
398.198	106.49
398.407	180.22
398.617	114.69
398.826	110.59
399.035	137.21
399.244	110.59
399.453	159.74
399.663	94.21
399.872	131.07
400.081	67.58
400.29	169.98
400.499	36.86
400.708	118.78
400.917	106.49
401.127	86.01
401.336	98.3
401.545	104.45
401.754	88.06
401.963	96.25
402.172	100.35
402.381	57.34
402.59	131.07
402.799	69.63
403.008	94.21
403.217	88.06
403.426	129.02
403.635	75.77
403.844	90.11
404.053	102.4
404.262	77.82
404.471	143.36
404.68	143.36
404.888	96.25
405.097	129.02
405.306	149.5
405.515	204.8
405.724	120.83
405.933	118.78
406.142	151.55
406.35	120.83
406.559	200.7
406.768	137.21
406.977	219.13
407.185	176.13
407.394	194.56
407.603	151.55
407.812	184.32
408.02	225.28
408.229	186.37
408.438	262.14
408.646	225.28
408.855	235.52
409.064	274.43
409.272	229.37
409.481	196.61
409.69	219.13
409.898	202.75
410.107	249.85
410.315	327.68
410.524	251.9
410.733	307.2
410.941	321.53
411.15	397.31
411.358	331.77
411.567	333.82
411.775	243.71
411.984	313.34
412.192	409.59
412.401	405.5
412.609	317.44
412.818	440.31
413.026	364.54
413.234	456.7
413.443	380.92
413.651	462.84
413.86	479.22
414.068	507.9
414.276	518.14
414.485	450.55
414.693	573.43
414.901	514.04
415.11	593.91
415.318	587.77
415.526	552.95
415.734	612.34
415.943	616.44
416.151	628.73
416.359	653.3
416.567	612.34
416.776	716.79
416.984	735.22
417.192	778.23
417.4	727.03
417.608	774.13
417.817	858.1
418.025	831.48
418.233	870.39
418.441	864.24
418.649	929.78
418.857	1013.74
419.065	993.26
419.273	950.26
419.481	1105.9
419.689	1093.62
419.897	1167.34
420.105	1226.73
420.313	1202.16
420.521	1191.92
420.729	1300.46
420.937	1218.54
421.145	1306.6
421.353	1251.31
421.561	1529.83
421.769	1492.97
421.977	1546.22
422.185	1601.51
422.393	1585.13
422.601	1742.82
422.809	1699.81
423.017	1716.2
423.224	1767.4
423.432	1884.13
423.64	1849.32
423.848	1978.34
424.056	1939.43
424.263	2205.66
424.471	2138.08
424.679	2228.19
424.887	2289.63
425.094	2338.78
425.302	2324.44
425.51	2394.08
425.718	2449.37
425.925	2498.52
426.133	2676.7
426.341	2785.24
426.548	2791.38
426.756	2961.36
426.964	2899.92
427.171	3051.47
427.379	3176.4
427.586	3139.54
427.794	3321.81
428.001	3473.36
428.209	3567.56
428.417	3567.56
428.624	3729.35
428.832	3815.37
429.039	3801.03
429.247	3751.88
429.454	4140.99
429.662	4292.54
429.869	4065.22
430.076	4313.02
430.284	4249.54
430.491	4513.72
430.699	4743.1
430.906	4812.73
431.114	4722.62
431.321	4984.76
431.528	5164.98
431.736	5353.39
431.943	5437.36
432.15	5502.89
432.358	5398.45
432.565	5840.81
432.772	5791.66
432.979	6150.05
433.187	6039.46
433.394	6270.88
433.601	6807.45
433.808	6750.11
434.016	6565.79
434.223	6905.75
434.43	7305.1
434.637	7303.06
434.844	7667.6
435.052	7876.49
435.259	7712.65
435.466	7776.14
435.673	7821.19
435.88	8198.02
436.087	8564.61
436.294	8421.25
436.501	8363.9
436.708	8576.89
436.915	8884.09
437.122	9271.15
437.329	9119.6
437.537	9531.25
437.743	9748.33
437.95	9607.02
438.157	10186.6
438.364	10301.28
438.571	10606.43
438.778	10274.66
438.985	11349.84
439.192	11089.75
439.399	11163.48
439.606	10999.64
439.813	11620.17
440.02	12554.05
440.227	12109.64
440.433	12132.17
440.64	12339.01
440.847	12291.91
441.054	12687.17
441.261	13602.61
441.467	13369.14
441.674	13702.96
441.881	13948.72
442.088	14130.98
442.294	13791.02
442.501	14251.81
442.708	14350.12
442.914	14970.65
443.121	15939.34
443.328	15068.95
443.534	16639.75
443.741	16000.78
443.948	15572.75
444.154	16822.02
444.361	16498.44
444.568	17047.29
444.774	16670.47
444.981	16848.64
445.187	17485.56
445.394	18317.03
445.6	17895.15
445.807	19685.08
446.013	18929.38
446.22	19107.55
446.426	19701.46
446.633	20285.13
446.839	20850.37
447.046	19965.65
447.252	20639.43
447.459	20846.27
447.665	20821.7
447.871	21911.22
448.078	22875.81
448.284	21563.06
448.491	22283.95
448.697	23234.21
448.903	23580.31
449.11	23651.99
449.316	23103.14
449.522	23807.64
449.728	24428.17
449.935	24450.7
450.141	24487.56
450.347	25165.44
450.553	24147.6
450.76	24614.54
450.966	25661.05
451.172	25253.5
451.378	25587.32
451.584	25063.04
451.791	25845.37
451.997	25740.92
452.203	26218.1
452.409	26205.81
452.615	26484.33
452.821	25300.61
453.027	24751.75
453.233	26218.1
453.44	25366.14
453.646	25413.24
453.852	25824.89
454.058	25794.17
454.264	25294.46
454.47	25591.42
454.676	24833.67
454.882	26156.66
455.088	23817.88
455.294	24434.32
455.5	24530.57
455.705	24796.81
455.911	23545.5
456.117	23506.59
456.323	22974.11
456.529	21567.16
456.735	22601.38
456.941	22339.24
457.147	21679.8
457.352	21290.68
457.558	20807.36
457.764	20885.19
457.97	20772.55
458.176	20168.4
458.381	20207.31
458.587	19076.83
458.793	18910.94
458.999	18179.82
459.204	19668.69
459.41	18956
459.616	17884.91
459.821	17872.62
460.027	17827.57
460.233	17506.04
460.438	16641.79
460.644	16705.28
460.85	15820.56
461.055	15795.98
461.261	15789.84
461.466	14585.63
461.672	14159.66
461.878	15187.74
462.083	14481.19
462.289	13817.65
462.494	13545.27
462.7	13078.33
462.905	12787.52
463.111	13309.75
463.316	13244.21
463.522	12842.81
463.727	12881.72
463.932	12959.55
464.138	12810.04
464.343	12769.09
464.549	12554.05
464.754	12957.5
464.959	12752.7
465.165	12525.38
465.37	12322.63
465.575	11661.13
465.781	12347.2
465.986	12517.18
466.191	12046.15
466.397	11622.22
466.602	10995.54
466.807	11726.67
467.012	11425.62
467.218	11419.47
467.423	11206.48
467.628	11595.6
467.833	11724.62
468.038	11485.01
468.244	11169.62
468.449	11827.02
468.654	11382.61
468.859	11114.33
469.064	11126.61
469.269	10565.47
469.474	10772.32
469.679	10927.96
469.885	10821.47
470.09	10628.96
470.295	10637.15
470.5	10538.85
470.705	10557.28
470.91	10116.97
471.115	10174.31
471.32	10379.11
471.525	10465.12
471.73	9885.55
471.935	9924.46
472.139	9451.38
472.344	9760.62
472.549	9480.05
472.754	9572.21
472.959	9389.94
473.164	9070.45
473.369	9090.93
473.574	9545.58
473.778	9240.43
473.983	9260.91
474.188	9400.18
474.393	8687.48
474.598	8771.45
474.802	8712.06
475.007	8632.19
475.212	8683.39
475.417	8490.88
475.621	8341.38
475.826	8454.01
476.031	8288.13
476.235	8062.85
476.44	8085.38
476.645	7901.06
476.849	8163.2
477.054	8009.61
477.259	7833.48
477.463	7813
477.668	7651.21
477.872	7651.21
478.077	7579.53
478.282	7372.69
478.486	7475.09
478.691	7468.94
478.895	7356.3
479.1	7153.55
479.304	7393.17
479.509	7108.5
479.713	7296.91
479.918	7002.01
480.122	7081.88
480.326	7118.74
480.531	7133.08
480.735	7102.36
480.94	6780.82
481.144	7098.26
481.348	6895.51
481.553	6942.61
481.757	6569.88
481.961	6860.7
482.166	6860.7
482.37	6909.85
482.574	6805.4
482.778	6631.32
482.983	6936.47
483.187	6623.13
483.391	6852.5
483.595	6832.02
483.8	6600.6
484.004	6690.71
484.208	6887.32
484.412	6705.05
484.616	6856.6
484.821	6868.89
485.025	6713.24
485.229	6811.54
485.433	6764.44
485.637	6764.44
485.841	6631.32
486.045	6629.27
486.249	6606.75
486.453	6733.72
486.657	6698.91
486.861	6707.1
487.065	6444.96
487.269	6698.91
487.473	6784.92
487.677	6842.26
487.881	6915.99
488.085	6596.51
488.289	6860.7
488.493	6553.5
488.697	6766.49
488.901	6885.27
489.105	6717.34
489.309	6717.34
489.512	6959
489.716	6954.9
489.92	6780.82
490.124	6877.08
490.328	6815.64
490.531	6789.02
490.735	6872.98
490.939	6944.66
491.143	6963.09
491.346	6961.05
491.55	7034.77
491.754	7098.26
491.958	7049.11
492.161	7100.31
492.365	7085.97
492.569	7018.39
492.772	7018.39
492.976	6969.24
493.18	7118.74
493.383	7266.19
493.587	7376.78
493.79	7538.57
493.994	7499.66
494.197	7405.46
494.401	7434.13
494.605	7602.06
494.808	7577.48
495.012	7597.96
495.215	7614.35
495.419	7813
495.622	7585.68
495.825	7831.43
496.029	7944.07
496.232	8011.65
496.436	7819.14
496.639	8185.73
496.843	8073.09
497.046	8316.8
497.249	8339.33
497.453	8269.7
497.656	8296.32
497.859	8187.78
498.063	8568.7
498.266	8615.8
498.469	8697.72
498.673	8707.96
498.876	8943.48
499.079	8843.13
499.282	9080.69
499.485	9195.38
499.689	9275.25
499.892	9248.63
500.095	9338.74
500.298	9543.53
500.501	9789.29
500.705	9625.45
500.908	9944.94
501.111	9766.76
501.314	10108.77
501.517	10174.31
501.72	10159.97
501.923	10375.01
502.126	10248.04
502.329	10811.23
502.532	10596.19
502.735	10872.67
502.938	11018.07
503.141	10913.63
503.344	11364.18
503.547	11112.28
503.75	11415.38
503.953	11302.74
504.156	11767.63
504.359	11714.38
504.562	11898.7
504.765	11925.32
504.968	11761.48
505.17	12369.73
505.373	12193.61
505.576	12662.59
505.779	12627.78
505.982	12678.97
506.185	12951.35
506.387	12969.79
506.59	13086.52
506.793	13211.45
506.996	13164.34
507.198	13723.44
507.401	13573.94
507.604	13879.08
507.807	13920.04
508.009	14061.35
508.212	14171.94
508.415	14366.5
508.617	14591.78
508.82	14389.03
509.022	14636.83
509.225	15073.05
509.428	15089.43
509.63	15269.65
509.833	15259.42
510.035	15841.04
510.238	15480.6
510.44	15777.55
510.643	16037.64
510.845	16097.03
511.048	16084.75
511.25	16281.35
511.453	16637.7
511.655	17061.63
511.858	16940.8
512.06	17118.97
512.262	17084.16
512.465	16936.7
512.667	17776.37
512.87	17501.94
513.072	17506.04
513.274	17827.57
513.477	17968.88
513.679	18298.6
513.881	18398.95
514.084	18517.73
514.286	18734.82
514.488	18861.79
514.69	19519.19
514.893	19181.28
515.095	19287.77
515.297	19721.94
515.499	19906.26
515.701	20225.74
515.904	20209.36
516.106	20530.89
516.308	20696.77
516.51	20770.5
516.712	20704.96
516.914	21065.41
517.116	21374.65
517.318	21626.55
517.52	21448.38
517.722	21843.63
517.925	21925.55
518.127	21995.18
518.329	22161.07
518.531	22099.63
518.733	22515.37
518.935	22900.39
519.136	22881.95
519.338	23373.47
519.54	23262.88
519.742	23590.55
519.944	23975.57
520.146	24047.25
520.348	24006.29
520.55	24206.99
520.752	24573.58
520.954	24669.83
521.155	24821.38
521.357	24966.79
521.559	25284.22
521.761	25591.42
521.963	25546.36
522.164	25607.8
522.366	26009.2
522.568	25894.52
522.77	26412.65
522.971	26273.39
523.173	26265.2
523.375	26513
523.576	26965.6
523.778	26691.18
523.98	27108.96
524.181	27164.26
524.383	27528.8
524.584	27768.41
524.786	27465.31
524.988	27596.38
525.189	27868.76
525.391	28073.56
525.592	28073.56
525.794	28388.94
525.995	28249.68
526.197	28470.86
526.398	28401.23
526.6	28724.81
526.801	28806.73
527.003	28513.87
527.204	28984.9
527.406	29324.86
527.607	29134.4
527.808	29619.77
528.01	29058.63
528.211	29701.69
528.412	29791.8
528.614	29531.71
528.815	29799.99
529.016	29646.4
529.218	29679.16
529.419	30041.65
529.62	29797.95
529.822	29877.82
530.023	30215.73
530.224	30123.57
530.425	30187.06
530.626	30127.67
530.828	30234.16
531.029	30672.43
531.23	30539.31
531.431	30459.44
531.632	30479.92
531.833	30420.53
532.035	30434.86
532.236	30635.56
532.437	30316.08
532.638	30211.63
532.839	30461.49
533.04	30760.49
533.241	30295.6
533.442	31043.11
533.643	30570.03
533.844	30369.33
534.045	30617.13
534.246	30363.18
534.447	30928.42
534.648	30654
534.849	30703.15
535.05	30406.19
535.251	30733.87
535.451	30735.91
535.652	31059.49
535.853	30541.36
536.054	30735.91
536.255	30729.77
536.456	30410.29
536.657	31036.97
536.857	30793.26
537.058	30076.47
537.259	31024.68
537.46	30623.28
537.66	30551.6
537.861	30711.34
538.062	30621.23
538.263	30789.16
538.463	30408.24
538.664	30703.15
538.865	30506.54
539.065	30965.29
539.266	30121.52
539.466	30932.52
539.667	30039.61
539.868	30668.33
540.068	30574.13
540.269	30471.73
540.469	30830.12
540.67	30387.76
540.87	30285.36
541.071	30287.41
541.271	30561.84
541.472	30230.07
541.672	30301.75
541.873	30244.4
542.073	30326.32
542.274	30467.63
542.474	30402.1
542.675	29863.48
542.875	30473.77
543.075	30273.07
543.276	30123.57
543.476	30780.97
543.676	30058.04
543.877	30449.2
544.077	30567.98
544.277	30135.86
544.478	30271.03
544.678	30029.37
544.878	30363.18
545.078	30357.04
545.279	30479.92
545.479	30152.24
545.679	30146.1
545.879	30217.78
546.079	30219.83
546.28	29832.76
546.48	29781.56
546.68	30017.08
546.88	30354.99
547.08	30006.84
547.28	29982.26
547.48	29691.45
547.68	30133.81
547.88	30096.95
548.081	30201.4
548.281	30010.93
548.481	30051.89
548.681	30209.59
548.881	30086.71
549.081	30238.26
549.28	30146.1
549.48	30316.08
549.68	30023.22
549.88	30314.03
550.08	29752.89
550.28	30170.68
550.48	29564.48
550.68	30055.99
550.88	30101.04
551.08	29861.43
551.279	29771.32
551.479	29765.18
551.679	30219.83
551.879	29908.54
552.079	30191.16
552.278	29799.99
552.478	30074.42
552.678	29845.05
552.878	29920.82
553.077	29824.57
553.277	29613.63
553.477	30393.9
553.676	29730.36
553.876	30002.74
554.076	29838.9
554.275	29470.27
554.475	29730.36
554.674	29982.26
554.874	29763.13
555.074	29085.25
555.273	29453.89
555.473	30129.72
555.672	29621.82
555.872	29691.45
556.071	29857.34
556.271	29662.78
556.47	29584.96
556.67	29169.22
556.869	29429.31
557.068	29531.71
557.268	29351.49
557.467	29390.4
557.667	29374.02
557.866	29335.1
558.065	29388.35
558.265	29163.07
558.464	29054.53
558.663	29462.08
558.863	28806.73
559.062	29455.93
559.261	28984.9
559.461	29347.39
559.66	28407.37
559.859	28999.24
560.058	28548.68
560.258	28757.58
560.457	28993.09
560.656	28929.61
560.855	28417.61
561.054	29161.03
561.253	28778.06
561.453	28989
561.652	28941.89
561.851	28796.49
562.05	28948.04
562.249	28216.91
562.448	28689.99
562.647	28327.5
562.846	28339.79
563.045	28612.17
563.244	28255.82
563.443	28753.48
563.642	28108.37
563.841	28333.65
564.04	28024.4
564.239	28313.17
564.438	27584.09
564.637	28104.28
564.836	28118.61
565.035	27692.63
565.234	27854.42
565.432	27825.75
565.631	27645.53
565.83	27879
566.029	27844.18
566.228	27991.64
566.427	27401.82
566.625	27133.54
566.824	27387.49
567.023	27299.42
567.222	26893.93
567.42	27618.91
567.619	26904.17
567.818	26910.31
568.016	26906.21
568.215	27280.99
568.414	27139.68
568.612	27311.71
568.811	27090.53
569.01	27027.04
569.208	26746.47
569.407	26476.14
569.605	26482.28
569.804	27018.85
570.002	26383.98
570.201	26519.15
570.4	26224.24
570.598	26064.5
570.797	26117.75
570.995	26060.4
571.193	25804.41
571.392	26386.03
571.59	26164.85
571.789	26029.68
571.987	25812.6
572.186	25960.05
572.384	25824.89
572.582	26187.38
572.781	25747.06
572.979	25542.27
573.177	25652.86
573.376	25663.1
573.574	25343.61
573.772	25566.84
573.971	25538.17
574.169	25058.95
574.367	24766.09
574.565	25478.78
574.763	24907.4
574.962	25198.21
575.16	24630.92
575.358	25060.99
575.556	24604.3
575.754	25163.39
575.952	24587.91
576.151	24825.48
576.349	24690.31
576.547	24645.26
576.745	24897.16
576.943	24417.93
577.141	24422.03
577.339	24401.55
577.537	24391.31
577.735	24186.51
577.933	23989.91
578.131	24397.45
578.329	24198.8
578.527	23703.19
578.725	23883.41
578.923	24014.48
579.121	23627.42
579.319	23674.52
579.516	23807.64
579.714	23727.77
579.912	23336.6
580.11	23817.88
580.308	23504.54
580.506	23465.63
580.704	23242.4
580.901	23146.14
581.099	23561.88
581.297	23137.95
581.495	23123.62
581.692	23443.1
581.89	23119.52
582.088	23043.74
582.285	22879.91
582.483	22927.01
582.681	22976.16
582.878	22873.76
583.076	22791.84
583.274	22779.56
583.471	22486.7
583.669	22726.31
583.866	22410.92
584.064	22441.64
584.262	22210.22
584.459	22621.86
584.657	22329
584.854	22496.94
585.052	21946.03
585.249	22183.6
585.447	22367.91
585.644	21962.42
585.841	21898.93
586.039	22175.41
586.236	21640.89
586.434	21550.78
586.631	21997.23
586.828	21720.76
587.026	21520.06
587.223	21524.15
587.42	21386.94
587.618	21929.65
587.815	21276.35
588.012	21028.54
588.21	21223.1
588.407	21317.31
588.604	21331.64
588.801	21024.45
588.999	20799.17
589.196	21114.56
589.393	20901.57
589.59	20764.36
589.787	20633.29
589.984	20580.04
590.182	20518.6
590.379	21167.8
590.576	20614.85
590.773	20668.1
590.97	20508.36
591.167	20512.45
591.364	20039.37
591.561	20614.85
591.758	19975.89
591.955	20557.51
592.152	20321.99
592.349	20217.55
592.546	20131.53
592.743	20180.68
592.94	19523.29
593.137	20049.61
593.334	19988.17
593.531	19857.1
593.727	19580.63
593.924	19740.37
594.121	19449.56
594.318	19515.09
594.515	19240.67
594.712	19312.35
594.908	19410.65
595.105	19193.56
595.302	18933.47
595.499	19386.07
595.696	19183.32
595.892	18999.01
596.089	19068.64
596.286	19111.64
596.482	19304.15
596.679	19062.49
596.876	19087.07
597.072	18919.14
597.269	18564.84
597.466	18546.4
597.662	18726.63
597.859	18558.69
598.055	18439.91
598.252	18554.6
598.448	18304.74
598.645	18263.79
598.841	18065.13
599.038	18327.27
599.234	18339.56
599.431	18288.36
599.627	18169.58
599.824	18282.22
600.02	18216.68
600.217	18210.54
600.413	17839.86
600.609	17901.29
600.806	17641.2
601.002	17891.06
601.198	17809.14
601.395	17428.21
601.591	17579.76
601.787	17680.11
601.984	17506.04
602.18	17495.8
602.376	17395.45
602.572	17561.33
602.769	17426.17
602.965	17014.52
603.161	17340.15
603.357	16938.75
603.553	17037.05
603.75	17186.55
603.946	17000.19
604.142	17266.42
604.338	16977.66
604.534	17035
604.73	16762.62
604.926	16721.66
605.122	16803.58
605.318	16682.75
605.514	16355.08
605.71	16455.43
605.906	16465.67
606.102	16795.39
606.298	16578.31
606.494	16441.09
606.69	16482.05
606.886	16543.49
607.082	16199.43
607.278	16426.76
607.474	16086.79
607.67	16447.24
607.866	16027.4
608.062	16391.94
608.257	16121.61
608.453	16109.32
608.649	16146.19
608.845	16008.97
609.041	15654.67
609.236	15920.91
609.432	15855.37
609.628	15834.89
609.824	15671.06
610.019	15482.64
610.215	15773.46
610.411	15972.11
610.606	15814.41
610.802	15642.39
610.998	15732.5
611.193	15720.21
611.389	15390.49
611.584	15322.9
611.78	15343.38
611.976	15370.01
612.171	15658.77
612.367	15525.65
612.562	15468.31
612.758	15243.03
612.953	15148.82
613.149	15267.61
613.344	15120.15
613.539	15499.03
613.735	15138.58
613.93	15261.46
614.126	14907.16
614.321	15025.95
614.517	15265.56
614.712	15167.26
614.907	14823.2
615.103	15071
615.298	15017.75
615.493	15296.28
615.688	14700.32
615.884	15257.37
616.079	14759.71
616.274	14802.72
616.47	14778.14
616.665	14841.63
616.86	14602.02
617.055	14769.95
617.25	14749.47
617.445	14626.59
617.641	14378.79
617.836	14710.56
618.031	14378.79
618.226	14599.97
618.421	14212.9
618.616	14567.2
618.811	14135.08
619.006	14382.88
619.201	14290.73
619.396	14323.49
619.591	13772.59
619.786	14284.58
619.981	13993.77
620.176	14014.25
620.371	13856.56
620.566	13934.38
620.761	13760.3
620.956	13963.05
621.151	13651.76
621.346	13606.7
621.541	13487.92
621.735	13629.23
621.93	13557.55
622.125	13449.01
622.32	13127.48
622.515	13483.83
622.709	13115.19
622.904	13037.37
623.099	12961.59
623.294	13135.67
623.488	13023.03
623.683	12963.64
623.878	12998.46
624.072	12869.44
624.267	12652.35
624.462	12597.06
624.656	12414.79
624.851	12324.68
625.046	12275.52
625.24	12154.69
625.435	12121.93
625.629	12375.88
625.824	12056.39
626.018	12197.7
626.213	12017.48
626.407	12089.16
626.602	11624.27
626.796	11829.07
626.991	11611.98
627.185	11552.59
627.38	11665.23
627.574	11405.14
627.768	11466.58
627.963	11372.37
628.157	11210.58
628.352	11274.07
628.546	11157.33
628.74	11339.6
628.935	11054.94
629.129	11061.08
629.323	10915.67
629.517	10798.94
629.712	11013.98
629.906	10743.64
630.1	10719.07
630.294	10600.29
630.489	10594.14
630.683	10757.98
630.877	10362.72
631.071	10514.27
631.265	10489.7
631.459	10407.78
631.653	10276.71
631.848	10497.89
632.042	10319.71
632.236	10350.43
632.43	10211.17
632.624	10131.3
632.818	10129.25
633.012	9820.01
633.206	9869.16
633.4	10168.16
633.594	9746.28
633.788	9858.92
633.982	9830.25
634.176	9596.78
634.369	9662.32
634.563	9559.92
634.757	9461.62
634.951	9494.38
635.145	9512.81
635.339	9396.08
635.533	9191.28
635.726	9348.98
635.92	9228.15
636.114	9183.09
636.308	9027.45
636.501	9158.52
636.695	9058.17
636.889	8765.31
637.083	8884.09
637.276	8974.2
637.47	8943.48
637.664	8734.59
637.857	8783.74
638.051	8765.31
638.244	8626.04
638.438	8654.72
638.632	8482.69
638.825	8488.83
639.019	8605.56
639.212	8454.01
639.406	8263.55
639.599	8343.42
639.793	8107.91
639.986	8318.85
640.18	8304.51
640.373	8212.35
640.567	7985.03
640.76	8177.54
640.954	7966.6
641.147	8046.47
641.34	7968.65
641.534	7939.97
641.727	7919.5
641.92	8017.8
642.114	7665.55
642.307	7669.64
642.5	7608.2
642.694	7690.12
642.887	7681.93
643.08	7772.04
643.273	7704.46
643.467	7430.03
643.66	7505.81
643.853	7569.29
644.046	7233.43
644.239	7444.37
644.432	7253.91
644.626	7280.53
644.819	7194.51
645.012	7133.08
645.205	7253.91
645.398	7042.96
645.591	6991.77
645.784	7036.82
645.977	7075.73
646.17	7028.63
646.363	7141.27
646.556	6926.23
646.749	6815.64
646.942	6885.27
647.135	6870.94
647.328	6803.35
647.521	6703
647.714	6645.66
647.907	6545.31
648.099	6614.94
648.292	6576.03
648.485	6557.6
648.678	6629.27
648.871	6348.7
649.064	6242.21
649.256	6625.18
649.449	6297.5
649.642	6420.38
649.835	6256.54
650.027	6299.55
650.22	6223.78
650.413	6205.35
650.605	6225.82
650.798	6129.57
650.991	6000.55
651.183	6029.22
651.376	5863.33
651.568	5984.16
651.761	5978.02
651.954	6000.55
652.146	5885.86
652.339	5918.63
652.531	5900.2
652.724	5826.47
652.916	5771.18
653.109	5785.51
653.301	5910.44
653.494	5808.04
653.686	5529.52
653.879	5758.89
654.071	5691.31
654.263	5627.82
654.456	5638.06
654.648	5689.26
654.84	5640.11
655.033	5431.21
655.225	5646.25
655.417	5453.74
655.61	5633.96
655.802	5519.28
655.994	5396.4
656.186	5543.85
656.379	5261.23
656.571	5322.67
656.763	5273.52
656.955	5253.04
657.148	5250.99
657.34	5316.53
657.532	5042.1
657.724	5203.89
657.916	5156.79
658.108	5134.26
658.3	4921.27
658.492	5156.79
658.684	4929.46
658.876	4921.27
659.068	5021.62
659.26	4954.04
659.452	4958.13
659.644	4919.22
659.836	4782.01
660.028	4839.35
660.22	4665.27
660.412	4765.62
660.604	4886.45
660.796	4667.32
660.988	4693.94
661.18	4689.85
661.372	4650.94
661.563	4712.38
661.755	4435.9
661.947	4517.82
662.139	4552.63
662.331	4644.79
662.522	4401.08
662.714	4612.03
662.906	4526.01
663.097	4388.8
663.289	4444.09
663.481	4419.52
663.673	4329.41
663.864	4378.56
664.056	4378.56
664.247	4321.21
664.439	4435.9
664.631	4368.32
664.822	4157.38
665.014	4265.92
665.205	4165.57
665.397	4159.42
665.588	4304.83
665.78	4126.66
665.971	4235.2
666.163	4128.7
666.354	4046.79
666.546	4120.51
666.737	4034.5
666.929	4169.66
667.12	4177.86
667.311	4063.17
667.503	4032.45
667.694	4032.45
667.885	4054.98
668.077	3960.77
668.268	3936.2
668.459	3874.76
668.651	4038.59
668.842	3903.43
669.033	3784.65
669.224	3936.2
669.416	3946.44
669.607	3844.04
669.798	3901.38
669.989	3831.75
670.18	3821.51
670.371	3741.64
670.563	3764.17
670.754	3751.88
670.945	3768.26
671.136	3686.34
671.327	3885
671.518	3723.21
671.709	3780.55
671.9	3848.13
672.091	3762.12
672.282	3657.67
672.473	3667.91
672.664	3710.92
672.855	3739.59
673.046	3655.62
673.237	3669.96
673.428	3512.27
673.619	3563.47
673.809	3575.75
674	3610.57
674.191	3559.37
674.382	3604.43
674.573	3549.13
674.764	3641.29
674.954	3551.18
675.145	3456.97
675.336	3502.03
675.527	3542.99
675.717	3416.01
675.908	3569.61
676.099	3467.21
676.289	3395.53
676.48	3461.07
676.671	3485.64
676.861	3389.39
677.052	3471.31
677.243	3397.58
677.433	3362.76
677.624	3342.28
677.814	3393.48
678.005	3358.67
678.195	3360.72
678.386	3354.57
678.576	3313.61
678.767	3399.63
678.957	3215.31
679.148	3426.25
679.338	3450.83
679.529	3323.85
679.719	3385.29
679.909	3311.57
680.1	3422.16
680.29	3379.15
680.481	3366.86
680.671	3338.19
680.861	3297.23
681.052	3327.95
681.242	3178.45
681.432	3219.41
681.622	3260.37
681.813	3254.22
682.003	3385.29
682.193	3270.61
682.383	3278.8
682.573	3307.47
682.764	3223.5
682.954	3215.31
683.144	3350.48
683.334	3282.89
683.524	3086.29
683.714	3246.03
683.904	3311.57
684.094	3121.1
684.284	3309.52
684.474	3278.8
684.664	3252.17
684.854	3235.79
685.044	3231.69
685.234	3137.49
685.424	3141.58
685.614	3141.58
685.804	3198.93
685.994	3211.22
686.184	3184.59
686.374	3059.67
686.564	2990.03
686.753	3035.09
686.943	3002.32
687.133	3080.15
687.323	2908.12
687.513	2979.79
687.702	3051.47
687.892	3002.32
688.082	3123.15
688.272	3067.86
688.461	3024.85
688.651	2953.17
688.841	2936.79
689.03	2963.41
689.22	2965.46
689.41	3057.62
689.599	2895.83
689.789	2992.08
689.979	2844.63
690.168	2977.75
690.358	2904.02
690.547	2893.78
690.737	2955.22
690.926	2813.91
691.116	2818.01
691.305	2906.07
691.495	2797.53
691.684	2846.68
691.874	2748.37
692.063	2883.54
692.252	2815.96
692.442	2744.28
692.631	2641.88
692.82	2828.24
693.01	2715.61
693.199	2813.91
693.388	2666.46
693.578	2697.17
693.767	2652.12
693.956	2701.27
694.146	2625.5
694.335	2637.78
694.524	2703.32
694.713	2588.63
694.902	2699.22
695.092	2727.89
695.281	2574.3
695.47	2662.36
695.659	2625.5
695.848	2650.07
696.037	2611.16
696.226	2611.16
696.415	2547.67
696.604	2717.65
696.793	2695.13
696.982	2602.97
697.171	2707.41
697.36	2496.47
697.549	2562.01
697.738	2555.87
697.927	2451.42
698.116	2514.91
698.305	2586.58
698.494	2471.9
698.683	2490.33
698.872	2580.44
699.061	2650.07
699.25	2486.23
699.438	2576.34
699.627	2537.43
699.816	2578.39
700.005	2463.71
700.193	2592.73
700.382	2621.4
700.571	2568.15
700.76	2412.51
700.948	2465.75
701.137	2449.37
701.326	2494.43
701.514	2396.12
701.703	2527.19
701.892	2580.44
702.08	2598.87
702.269	2469.85
702.457	2496.47
702.646	2580.44
702.834	2535.39
703.023	2445.27
703.212	2420.7
703.4	2465.75
703.589	2527.19
703.777	2516.95
703.965	2551.77
704.154	2568.15
704.342	2535.39
704.531	2441.18
704.719	2412.51
704.907	2475.99
705.096	2494.43
705.284	2424.8
705.472	2588.63
705.661	2346.97
705.849	2600.92
706.037	2592.73
706.226	2459.61
706.414	2387.93
706.602	2502.62
706.79	2514.91
706.979	2408.41
707.167	2443.23
707.355	2537.43
707.543	2451.42
707.731	2480.09
707.919	2555.87
708.107	2527.19
708.296	2488.28
708.484	2449.37
708.672	2416.6
708.86	2461.66
709.048	2494.43
709.236	2469.85
709.424	2418.65
709.612	2406.36
709.8	2383.84
709.988	2367.45
710.176	2414.56
710.364	2461.66
710.551	2398.17
710.739	2490.33
710.927	2394.08
711.115	2437.08
711.303	2420.7
711.491	2392.03
711.679	2379.74
711.866	2422.75
712.054	2465.75
712.242	2365.4
712.43	2457.56
712.617	2473.95
712.805	2432.99
712.993	2439.13
713.181	2310.11
713.368	2426.84
713.556	2480.09
713.744	2437.08
713.931	2531.29
714.119	2359.26
714.306	2326.49
714.494	2471.9
714.682	2359.26
714.869	2387.93
715.057	2512.86
715.244	2297.82
715.432	2371.55
715.619	2363.36
715.807	2443.23
715.994	2289.63
716.182	2242.53
716.369	2355.16
716.556	2475.99
716.744	2316.25
716.931	2306.01
717.119	2412.51
717.306	2424.8
717.493	2430.94
717.681	2408.41
717.868	2260.96
718.055	2426.84
718.242	2437.08
718.43	2318.3
718.617	2432.99
718.804	2222.05
718.991	2324.44
719.179	2318.3
719.366	2324.44
719.553	2334.68
719.74	2336.73
719.927	2392.03
720.114	2404.32
720.301	2394.08
720.488	2349.02
720.676	2332.64
720.863	2256.86
721.05	2256.86
721.237	2299.87
721.424	2330.59
721.611	2349.02
721.798	2344.92
721.985	2289.63
722.172	2381.79
722.358	2357.21
722.545	2383.84
722.732	2240.48
722.919	2377.69
723.106	2279.39
723.293	2324.44
723.48	2435.03
723.667	2224.09
723.853	2183.13
724.04	2174.94
724.227	2224.09
724.414	2123.74
724.6	2209.76
724.787	2238.43
724.974	2326.49
725.161	2310.11
725.347	2263.01
725.534	2215.9
725.72	2322.4
725.907	2308.06
726.094	2330.59
726.28	2232.29
726.467	2269.15
726.653	2349.02
726.84	2226.14
727.027	2336.73
727.213	2250.72
727.4	2432.99
727.586	2324.44
727.773	2152.42
727.959	2250.72
728.145	2318.3
728.332	2234.33
728.518	2242.53
728.705	2381.79
728.891	2183.13
729.077	2191.33
729.264	2281.44
729.45	2289.63
729.636	2299.87
729.823	2164.7
730.009	2232.29
730.195	2248.67
730.382	2283.49
730.568	2314.2
730.754	2203.61
730.94	2244.57
731.126	2281.44
731.313	2181.09
731.499	2322.4
731.685	2234.33
731.871	2269.15
732.057	2193.37
732.243	2271.2
732.429	2076.64
732.615	2199.52
732.801	2285.53
732.987	2293.73
733.173	2207.71
733.359	2258.91
733.545	2170.85
733.731	2211.81
733.917	2306.01
734.103	2252.77
734.289	2224.09
734.475	2195.42
734.661	2236.38
734.847	2215.9
735.033	2269.15
735.219	2113.5
735.404	2117.6
735.59	2197.47
735.776	2158.56
735.962	2236.38
736.148	2207.71
736.333	2193.37
736.519	2244.57
736.705	2152.42
736.89	2146.27
737.076	2150.37
737.262	2002.91
737.447	2277.34
737.633	2121.7
737.819	2047.97
738.004	2060.26
738.19	2160.61
738.375	2035.68
738.561	2113.5
738.747	2105.31
738.932	2070.5
739.118	2181.09
739.303	2043.87
739.489	2129.89
739.674	2084.83
739.859	2074.59
740.045	2103.26
740.23	2072.54
740.416	1955.81
740.601	2007.01
740.786	2095.07
740.972	1992.67
741.157	2043.87
741.342	2000.87
741.528	2035.68
741.713	2029.54
741.898	2056.16
742.084	2064.35
742.269	2035.68
742.454	2037.73
742.639	1978.34
742.824	2021.35
743.01	1986.53
743.195	2050.02
743.38	1877.99
743.565	2027.49
743.75	1994.72
743.935	1925.09
744.12	1855.46
744.305	1914.85
744.49	1914.85
744.675	1855.46
744.86	1886.18
745.045	1914.85
745.23	1908.71
745.415	1814.5
745.6	1904.61
745.785	1728.49
745.97	1791.97
746.155	1785.83
746.34	1798.12
746.525	1812.45
746.71	1869.8
746.895	1789.92
747.079	1832.93
747.264	1728.49
747.449	1800.16
747.634	1708.01
747.819	1738.73
748.003	1675.24
748.188	1763.3
748.373	1644.52
748.557	1789.92
748.742	1814.5
748.927	1632.23
749.111	1619.94
749.296	1613.8
749.481	1660.9
749.665	1617.9
749.85	1597.42
750.034	1669.09
750.219	1621.99
750.404	1540.07
750.588	1675.24
750.773	1464.3
750.957	1578.98
751.141	1619.94
751.326	1507.31
751.51	1560.55
751.695	1460.2
751.879	1478.63
752.064	1509.35
752.248	1437.67
752.432	1611.75
752.617	1478.63
752.801	1581.03
752.985	1398.76
753.17	1421.29
753.354	1413.1
753.538	1464.3
753.722	1361.9
753.907	1421.29
754.091	1335.28
754.275	1409
754.459	1361.9
754.643	1363.95
754.828	1245.17
755.012	1361.9
755.196	1306.6
755.38	1355.76
755.564	1322.99
755.748	1296.36
755.932	1265.64
756.116	1302.51
756.3	1325.04
756.484	1189.87
756.668	1251.31
756.852	1187.82
757.036	1210.35
757.22	1236.97
757.404	1214.45
757.588	1204.21
757.772	1200.11
757.956	1224.69
758.14	1093.62
758.323	1179.63
758.507	1167.34
758.691	1116.14
758.875	1159.15
759.059	1161.2
759.242	1159.15
759.426	1150.96
759.61	1171.44
759.794	1069.04
759.977	1150.96
760.161	1110
760.345	1099.76
760.528	1081.33
760.712	1060.85
760.895	1046.51
761.079	999.41
761.263	1032.18
761.446	1064.94
761.63	1134.57
761.813	1091.57
761.997	1036.27
762.18	931.83
762.364	946.16
762.547	997.36
762.731	1044.46
762.914	989.17
763.098	1019.89
763.281	966.64
763.464	978.93
763.648	1060.85
763.831	937.97
764.015	858.1
764.198	1046.51
764.381	931.83
764.564	921.59
764.748	968.69
764.931	1009.65
765.114	907.25
765.297	1005.55
765.481	915.44
765.664	1011.7
765.847	921.59
766.03	956.4
766.213	946.16
766.397	890.87
766.58	890.87
766.763	1028.08
766.946	802.8
767.129	907.25
767.312	890.87
767.495	923.63
767.678	894.96
767.861	888.82
768.044	901.11
768.227	872.43
768.41	808.95
768.593	831.48
768.776	950.26
768.959	806.9
769.142	837.62
769.324	886.77
769.507	751.6
769.69	749.56
769.873	837.62
770.056	937.97
770.239	860.15
770.421	839.67
770.604	802.8
770.787	856.05
770.97	751.6
771.152	776.18
771.335	862.19
771.518	677.88
771.7	778.23
771.883	847.86
772.066	716.79
772.248	765.94
772.431	774.13
772.613	790.52
772.796	757.75
772.978	684.02
773.161	825.33
773.343	751.6
773.526	706.55
773.708	727.03
773.891	626.68
774.073	704.5
774.256	694.26
774.438	806.9
774.621	686.07
774.803	774.13
774.985	661.49
775.168	645.11
775.35	677.88
775.532	749.56
775.715	692.21
775.897	610.29
776.079	694.26
776.261	661.49
776.444	727.03
776.626	550.9
776.808	645.11
776.99	602.1
777.173	618.49
777.355	589.82
777.537	669.69
777.719	538.62
777.901	737.27
778.083	593.91
778.265	675.83
778.447	659.45
778.629	610.29
778.811	602.1
778.993	630.77
779.175	634.87
779.357	532.47
779.539	520.18
779.721	647.16
779.903	610.29
780.085	530.42
780.267	591.86
780.449	520.18
780.631	516.09
780.812	505.85
780.994	557.05
781.176	516.09
781.358	563.19
781.54	499.7
781.721	575.48
781.903	530.42
782.085	557.05
782.267	464.89
782.448	501.75
782.63	528.38
782.812	505.85
782.993	546.81
783.175	585.72
783.357	487.42
783.538	526.33
783.72	487.42
783.901	462.84
784.083	473.08
784.264	413.69
784.446	405.5
784.627	436.22
784.809	440.31
784.99	495.61
785.172	516.09
785.353	417.79
785.535	479.22
785.716	464.89
785.897	335.87
786.079	323.58
786.26	350.2
786.441	454.65
786.623	471.03
786.804	356.35
786.985	450.55
787.167	374.78
787.348	466.94
787.529	413.69
787.71	378.87
787.891	348.15
788.073	397.31
788.254	378.87
788.435	405.5
788.616	315.39
788.797	378.87
788.978	352.25
789.159	333.82
789.34	391.16
789.522	397.31
789.703	348.15
789.884	440.31
790.065	307.2
790.246	360.44
790.427	370.68
790.607	331.77
790.788	432.12
790.969	360.44
791.15	385.02
791.331	299
791.512	249.85
791.693	266.24
791.874	284.67
792.054	335.87
792.235	348.15
792.416	258.04
792.597	303.1
792.778	372.73
792.958	292.86
793.139	348.15
793.32	362.49
793.5	344.06
793.681	315.39
793.862	272.38
794.042	284.67
794.223	241.66
794.404	327.68
794.584	284.67
794.765	319.48
794.945	331.77
795.126	235.52
795.306	348.15
795.487	364.54
795.667	243.71
795.848	256
796.028	245.76
796.209	247.8
796.389	292.86
796.57	331.77
796.75	305.15
796.93	342.01
797.111	299
797.291	323.58
797.471	331.77
797.652	313.34
797.832	290.81
798.012	309.24
798.192	264.19
798.373	235.52
798.553	260.09
798.733	284.67
798.913	276.48
799.093	290.81
799.274	249.85
799.454	245.76
799.634	241.66
799.814	202.75
799.994	233.47
800.174	282.62
800.354	223.23
800.534	221.18
800.714	303.1
800.894	219.13
801.074	167.93
801.254	202.75
801.434	221.18
801.614	288.76
801.794	202.75
801.974	667.64
802.154	210.94
802.334	229.37
802.514	303.1
802.693	180.22
802.873	192.51
803.053	221.18
803.233	202.75
803.413	243.71
803.592	266.24
803.772	200.7
803.952	219.13
804.131	141.31
804.311	180.22
804.491	323.58
804.67	157.69
804.85	126.97
805.03	284.67
805.209	217.08
805.389	194.56
805.568	184.32
805.748	190.46
805.928	200.7
806.107	196.61
806.287	204.8
806.466	131.07
806.646	153.6
806.825	217.08
807.004	186.37
807.184	194.56
807.363	184.32
807.543	163.84
807.722	223.23
807.901	196.61
808.081	176.13
808.26	208.89
808.439	206.84
808.619	143.36
808.798	145.41
808.977	135.17
809.156	196.61
809.336	126.97
809.515	161.79
809.694	159.74
809.873	129.02
810.052	233.47
810.231	169.98
810.411	192.51
810.59	176.13
810.769	96.25
810.948	192.51
811.127	126.97
811.306	196.61
811.485	204.8
811.664	194.56
811.843	120.83
812.022	184.32
812.201	131.07
812.38	206.84
812.559	65.54
812.737	208.89
812.916	112.64
813.095	77.82
813.274	137.21
813.453	147.45
813.632	153.6
813.811	188.41
813.989	106.49
814.168	120.83
814.347	108.54
814.526	135.17
814.704	61.44
814.883	159.74
815.062	122.88
815.24	112.64
815.419	122.88
815.598	163.84
815.776	94.21
815.955	88.06
816.133	120.83
816.312	143.36
816.49	184.32
816.669	153.6
816.847	106.49
817.026	100.35
817.204	102.4
817.383	178.17
817.561	110.59
817.74	163.84
817.918	124.93
818.097	90.11
818.275	155.65
818.453	186.37
818.632	112.64
818.81	126.97
818.988	120.83
819.167	77.82
819.345	174.08
819.523	106.49
819.701	149.5
819.879	141.31
820.058	186.37
820.236	139.26
820.414	108.54
820.592	180.22
820.77	169.98
820.948	73.73
821.127	126.97
821.305	153.6
821.483	79.87
821.661	126.97
821.839	126.97
822.017	110.59
822.195	112.64
822.373	114.69
822.551	92.16
822.729	69.63
822.907	155.65
823.085	202.75
823.262	149.5
823.44	122.88
823.618	118.78
823.796	110.59
823.974	61.44
824.152	34.82
824.329	159.74
824.507	112.64
824.685	145.41
824.863	110.59
825.04	114.69
825.218	118.78
825.396	100.35
825.574	90.11
825.751	126.97
825.929	141.31
826.107	49.15
826.284	184.32
826.462	126.97
826.639	94.21
826.817	51.2
826.994	159.74
827.172	110.59
827.349	94.21
827.527	100.35
827.704	118.78
827.882	92.16
828.059	131.07
828.237	112.64
828.414	86.01
828.591	45.06
828.769	88.06
828.946	135.17
829.124	28.67
829.301	118.78
829.478	94.21
829.655	135.17
829.833	88.06
830.01	-18.43
830.187	135.17
830.364	118.78
830.542	83.97
830.719	184.32
830.896	65.54
831.073	71.68
831.25	106.49
831.427	71.68
831.604	73.73
831.782	88.06
831.959	126.97
832.136	71.68
832.313	120.83
832.49	94.21
832.667	108.54
832.844	77.82
833.021	145.41
833.198	81.92
833.374	86.01
833.551	88.06
833.728	120.83
833.905	116.73
834.082	30.72
834.259	38.91
834.436	55.3
834.612	57.34
834.789	61.44
834.966	104.45
835.143	40.96
835.319	4.1
835.496	102.4
835.673	100.35
835.85	49.15
836.026	118.78
836.203	178.17
836.38	94.21
836.556	69.63
836.733	0
836.909	135.17
837.086	124.93
837.262	86.01
837.439	57.34
837.616	79.87
837.792	28.67
837.968	110.59
838.145	96.25
838.321	69.63
838.498	77.82
838.674	81.92
838.851	106.49
839.027	36.86
839.203	102.4
839.38	102.4
839.556	114.69
839.732	63.49
839.909	49.15
840.085	75.77
840.261	28.67
840.437	102.4
840.614	40.96
840.79	77.82
840.966	92.16
841.142	110.59
841.318	77.82
841.494	104.45
841.671	22.53
841.847	120.83
842.023	45.06
842.199	73.73
842.375	139.26
842.551	8.19
842.727	0
842.903	90.11
843.079	124.93
843.255	137.21
843.431	86.01
843.607	75.77
843.783	51.2
843.959	120.83
844.134	43.01
844.31	73.73
844.486	55.3
844.662	36.86
844.838	77.82
845.013	47.1
845.189	53.25
845.365	45.06
845.541	122.88
845.716	176.13
845.892	6.14
846.068	71.68
846.244	6.14
846.419	38.91
846.595	45.06
846.77	59.39
846.946	69.63
847.122	-12.29
847.297	88.06
847.473	108.54
847.648	38.91
847.824	83.97
847.999	6.14
848.175	38.91
848.35	59.39
848.526	104.45
848.701	30.72
848.876	104.45
849.052	88.06
849.227	90.11
849.403	4.1
849.578	45.06
849.753	45.06
849.929	65.54
850.104	20.48
850.279	124.93
850.454	20.48
850.63	83.97
850.805	34.82
850.98	69.63
851.155	28.67
851.33	16.38
851.505	90.11
851.681	102.4
851.856	18.43
852.031	2.05
852.206	49.15
852.381	16.38
852.556	20.48
852.731	24.58
852.906	45.06
853.081	55.3
853.256	22.53
853.431	34.82
853.606	-18.43
853.781	12.29
853.956	77.82
854.131	22.53
854.305	22.53
854.48	106.49
854.655	49.15
854.83	-22.53
855.005	69.63
855.18	-4.1
855.354	53.25
855.529	77.82
855.704	26.62
855.879	47.1
856.053	20.48
856.228	69.63
856.403	-4.1
856.577	38.91
856.752	-2.05
856.926	86.01
857.101	-4.1
857.276	2.05
857.45	4.1
857.625	55.3
857.799	-20.48
857.974	14.34
858.148	90.11
858.323	86.01
858.497	40.96
858.672	14.34
858.846	16.38
859.02	53.25
859.195	38.91
859.369	92.16
859.543	-36.86
859.718	90.11
859.892	133.12
860.066	6.14
860.241	43.01
860.415	45.06
860.589	20.48
860.763	94.21
860.938	28.67
861.112	57.34
861.286	22.53
861.46	38.91
861.634	12.29
861.808	75.77
861.982	28.67
862.157	36.86
862.331	43.01
862.505	-4.1
862.679	-28.67
862.853	65.54
863.027	-10.24
863.201	63.49
863.375	4.1
863.549	45.06
863.722	61.44
863.896	73.73
864.07	30.72
864.244	30.72
864.418	4.1
864.592	40.96
864.766	4.1
864.939	53.25
865.113	-4.1
865.287	94.21
865.461	-47.1
865.634	10.24
865.808	-20.48
865.982	20.48
866.156	-18.43
866.329	-8.19
866.503	-2.05
866.676	86.01
866.85	26.62
867.024	22.53
867.197	16.38
867.371	30.72
867.544	20.48
867.718	61.44
867.891	47.1
868.065	81.92
868.238	4.1
868.412	98.3
868.585	69.63
868.759	38.91
868.932	47.1
869.105	-10.24
869.279	22.53
869.452	12.29
869.625	118.78
869.799	63.49
869.972	12.29
870.145	6.14
870.319	129.02
870.492	77.82
870.665	49.15
870.838	153.6
871.011	-12.29
871.185	133.12
871.358	83.97
871.531	49.15
871.704	45.06
871.877	36.86
872.05	28.67
872.223	53.25
872.396	45.06
872.569	75.77
872.742	12.29
872.915	49.15
873.088	18.43
873.261	-67.58
873.434	8.19
873.607	12.29
873.78	16.38
873.953	16.38
874.126	24.58
874.299	20.48
874.471	47.1
874.644	-20.48
874.817	53.25
874.99	104.45
875.163	32.77
875.335	40.96
875.508	63.49
875.681	65.54
875.853	61.44
876.026	96.25
876.199	22.53
876.371	36.86
876.544	45.06
876.717	-47.1
876.889	32.77
877.062	45.06
877.234	14.34
877.407	30.72
877.579	-34.82
877.752	92.16
877.924	28.67
878.097	75.77
878.269	20.48
878.442	53.25
878.614	73.73
878.786	65.54
878.959	-4.1
879.131	57.34
879.303	-16.38
879.476	24.58
879.648	22.53
879.82	57.34
879.993	43.01
880.165	86.01
880.337	-26.62
880.509	49.15
880.681	73.73
880.854	4.1
881.026	65.54
881.198	67.58
881.37	71.68
881.542	71.68
881.714	-20.48
881.886	-18.43
882.058	22.53
882.23	-51.2
882.402	77.82
882.574	69.63
882.746	51.2
882.918	-20.48
883.09	36.86
883.262	-32.77
883.434	22.53
883.606	-32.77
883.778	90.11
883.95	94.21
884.122	14.34
884.293	131.07
884.465	28.67
884.637	20.48
884.809	-6.14
884.98	133.12
885.152	-18.43
885.324	65.54
885.496	-20.48
885.667	43.01
885.839	36.86
886.011	24.58
886.182	94.21
886.354	77.82
886.525	-10.24
886.697	36.86
886.869	12.29
887.04	6.14
887.212	69.63
887.383	32.77
887.555	20.48
887.726	96.25
887.897	4.1
888.069	22.53
888.24	-10.24
888.412	79.87
888.583	-65.53
888.754	22.53
888.926	20.48
889.097	24.58
889.268	22.53
889.44	36.86
889.611	-4.1
889.782	0
889.953	43.01
890.125	57.34
890.296	0
890.467	77.82
890.638	-16.38
890.809	14.34
890.98	-40.96
891.151	40.96
891.323	94.21
891.494	94.21
891.665	49.15
891.836	-6.14
892.007	63.49
892.178	24.58
892.349	53.25
892.52	-36.86
892.691	77.82
892.862	8.19
893.032	-61.44
893.203	2.05
893.374	22.53
893.545	36.86
893.716	18.43
893.887	49.15
894.057	59.39
894.228	-12.29
894.399	16.38
894.57	45.06
894.74	28.67
894.911	36.86
895.082	4.1
895.253	-26.62
895.423	-4.1
895.594	112.64
895.764	10.24
895.935	-2.05
896.106	20.48
896.276	-61.44
896.447	16.38
896.617	40.96
896.788	55.3
896.958	36.86
897.129	-8.19
897.299	-36.86
897.47	104.45
897.64	30.72
897.81	-20.48
897.981	28.67
898.151	24.58
898.322	53.25
898.492	24.58
898.662	61.44
898.832	-55.3
899.003	-24.58
899.173	32.77
899.343	-36.86
899.513	-43.01
