Data from USB4F104151__21__14-16-14-358.txt Node

Date: Thu Mar 13 14:16:14 EDT 2025
User: louis
Spectrometer: USB4F10415
Trigger mode: 4
Integration Time (sec): 2.000000E-2
Scans to average: 1
Electric dark correction enabled: true
Nonlinearity correction enabled: false
Boxcar width: 0
XAxis mode: Wavelengths
Number of Pixels in Spectrum: 3648
>>>>>Begin Spectral Data<<<<<
178.204	-118.44
178.424	-118.44
178.644	-118.44
178.864	-40.62
179.084	-161.45
179.304	-40.62
179.524	12.63
179.744	-22.19
179.964	14.68
180.184	-81.58
180.404	-42.67
180.624	24.92
180.844	-3.75
181.064	16.73
181.283	14.68
181.503	12.63
181.723	94.55
181.943	-83.63
182.163	106.84
182.383	20.82
182.602	82.26
182.822	104.79
183.042	31.06
183.262	-3.75
183.482	0.34
183.701	12.63
183.921	84.31
184.141	-24.23
184.361	55.64
184.58	24.92
184.8	4.44
185.02	63.83
185.239	39.25
185.459	29.01
185.679	-18.09
185.898	-44.71
186.118	82.26
186.338	72.02
186.557	10.58
186.777	20.82
186.997	20.82
187.216	-34.47
187.436	37.2
187.655	31.06
187.875	129.36
188.095	-9.9
188.314	-18.09
188.534	131.41
188.753	59.73
188.973	43.35
189.192	14.68
189.412	0.34
189.631	106.84
189.851	69.97
190.07	18.77
190.29	18.77
190.509	29.01
190.729	24.92
190.948	69.97
191.168	31.06
191.387	63.83
191.607	-18.09
191.826	53.59
192.045	51.54
192.265	69.97
192.484	6.49
192.704	-1.71
192.923	16.73
193.142	164.18
193.362	45.4
193.581	29.01
193.8	67.92
194.02	72.02
194.239	29.01
194.458	31.06
194.678	8.53
194.897	49.49
195.116	80.21
195.335	10.58
195.555	6.49
195.774	-22.19
195.993	69.97
196.212	-26.28
196.432	-18.09
196.651	12.63
196.87	-11.95
197.089	63.83
197.308	-5.8
197.528	-36.52
197.747	10.58
197.966	24.92
198.185	57.68
198.404	-26.28
198.623	65.88
198.842	-11.95
199.062	37.2
199.281	78.16
199.5	61.78
199.719	12.63
199.938	57.68
200.157	45.4
200.376	31.06
200.595	80.21
200.814	63.83
201.033	4.44
201.252	69.97
201.471	24.92
201.69	110.93
201.909	-1.71
202.128	33.11
202.347	65.88
202.566	86.36
202.785	12.63
203.004	53.59
203.223	76.12
203.442	53.59
203.661	22.87
203.879	57.68
204.098	47.44
204.317	6.49
204.536	94.55
204.755	55.64
204.974	47.44
205.193	74.07
205.411	94.55
205.63	-1.71
205.849	31.06
206.068	29.01
206.287	29.01
206.505	72.02
206.724	61.78
206.943	43.35
207.162	8.53
207.381	29.01
207.599	45.4
207.818	63.83
208.037	37.2
208.255	41.3
208.474	61.78
208.693	59.73
208.911	0.34
209.13	53.59
209.349	76.12
209.567	102.74
209.786	86.36
210.005	55.64
210.223	143.7
210.442	-89.77
210.661	69.97
210.879	137.56
211.098	92.5
211.316	4.44
211.535	86.36
211.753	-3.75
211.972	20.82
212.191	102.74
212.409	53.59
212.628	24.92
212.846	90.45
213.065	65.88
213.283	22.87
213.502	0.34
213.72	47.44
213.938	63.83
214.157	29.01
214.375	39.25
214.594	-20.14
214.812	106.84
215.031	76.12
215.249	14.68
215.467	102.74
215.686	61.78
215.904	59.73
216.122	74.07
216.341	12.63
216.559	78.16
216.778	47.44
216.996	76.12
217.214	72.02
217.432	-36.52
217.651	20.82
217.869	69.97
218.087	-5.8
218.306	43.35
218.524	29.01
218.742	57.68
218.96	12.63
219.179	-16.04
219.397	31.06
219.615	82.26
219.833	112.98
220.051	24.92
220.27	12.63
220.488	82.26
220.706	39.25
220.924	45.4
221.142	-9.9
221.36	45.4
221.578	102.74
221.796	-26.28
222.015	4.44
222.233	74.07
222.451	45.4
222.669	47.44
222.887	94.55
223.105	-26.28
223.323	22.87
223.541	35.16
223.759	65.88
223.977	29.01
224.195	86.36
224.413	47.44
224.631	53.59
224.849	141.65
225.067	61.78
225.285	-11.95
225.503	-20.14
225.721	6.49
225.939	53.59
226.157	0.34
226.375	53.59
226.592	29.01
226.81	22.87
227.028	45.4
227.246	65.88
227.464	26.96
227.682	74.07
227.9	63.83
228.117	98.64
228.335	29.01
228.553	-40.62
228.771	14.68
228.989	53.59
229.206	41.3
229.424	-3.75
229.642	4.44
229.86	59.73
230.077	63.83
230.295	59.73
230.513	53.59
230.731	53.59
230.948	69.97
231.166	61.78
231.384	39.25
231.601	53.59
231.819	31.06
232.037	24.92
232.254	8.53
232.472	53.59
232.689	-28.33
232.907	53.59
233.125	47.44
233.342	45.4
233.56	-1.71
233.777	47.44
233.995	-32.43
234.213	39.25
234.43	102.74
234.648	112.98
234.865	78.16
235.083	67.92
235.3	59.73
235.518	76.12
235.735	67.92
235.953	74.07
236.17	-85.67
236.388	69.97
236.605	33.11
236.822	65.88
237.04	22.87
237.257	69.97
237.475	0.34
237.692	86.36
237.909	20.82
238.127	-38.57
238.344	55.64
238.562	14.68
238.779	51.54
238.996	74.07
239.214	96.6
239.431	74.07
239.648	69.97
239.865	12.63
240.083	37.2
240.3	45.4
240.517	39.25
240.735	-24.23
240.952	47.44
241.169	43.35
241.386	65.88
241.603	94.55
241.821	0.34
242.038	57.68
242.255	37.2
242.472	37.2
242.689	-32.43
242.907	29.01
243.124	67.92
243.341	33.11
243.558	31.06
243.775	22.87
243.992	45.4
244.209	69.97
244.426	8.53
244.643	37.2
244.86	20.82
245.078	-11.95
245.295	63.83
245.512	78.16
245.729	-57
245.946	20.82
246.163	45.4
246.38	8.53
246.597	-40.62
246.814	6.49
247.031	63.83
247.248	-11.95
247.464	-36.52
247.681	94.55
247.898	86.36
248.115	0.34
248.332	12.63
248.549	53.59
248.766	45.4
248.983	37.2
249.2	-7.85
249.417	49.49
249.633	20.82
249.85	49.49
250.067	43.35
250.284	18.77
250.501	37.2
250.717	53.59
250.934	14.68
251.151	20.82
251.368	29.01
251.585	72.02
251.801	24.92
252.018	14.68
252.235	24.92
252.451	29.01
252.668	29.01
252.885	29.01
253.102	80.21
253.318	45.4
253.535	29.01
253.752	-11.95
253.968	16.73
254.185	53.59
254.401	-1.71
254.618	4.44
254.835	57.68
255.051	-16.04
255.268	86.36
255.484	63.83
255.701	8.53
255.917	84.31
256.134	74.07
256.351	119.12
256.567	-16.04
256.784	45.4
257	31.06
257.217	86.36
257.433	4.44
257.65	-3.75
257.866	45.4
258.082	10.58
258.299	59.73
258.515	53.59
258.732	0.34
258.948	-42.67
259.165	-48.81
259.381	86.36
259.597	22.87
259.814	53.59
260.03	26.96
260.246	45.4
260.463	119.12
260.679	96.6
260.895	8.53
261.112	69.97
261.328	29.01
261.544	6.49
261.761	104.79
261.977	100.69
262.193	37.2
262.409	80.21
262.626	53.59
262.842	55.64
263.058	0.34
263.274	129.36
263.49	-22.19
263.707	129.36
263.923	6.49
264.139	-9.9
264.355	-5.8
264.571	61.78
264.787	-18.09
265.004	10.58
265.22	100.69
265.436	49.49
265.652	-18.09
265.868	33.11
266.084	53.59
266.3	49.49
266.516	-9.9
266.732	88.4
266.948	-18.09
267.164	6.49
267.38	8.53
267.596	49.49
267.812	33.11
268.028	53.59
268.244	61.78
268.46	47.44
268.676	-77.48
268.892	-50.86
269.108	6.49
269.324	10.58
269.54	37.2
269.756	24.92
269.972	-44.71
270.188	0.34
270.403	4.44
270.619	96.6
270.835	145.75
271.051	39.25
271.267	0.34
271.483	31.06
271.698	41.3
271.914	37.2
272.13	37.2
272.346	-28.33
272.562	90.45
272.777	53.59
272.993	45.4
273.209	43.35
273.425	47.44
273.64	49.49
273.856	57.68
274.072	94.55
274.287	10.58
274.503	80.21
274.719	-28.33
274.934	31.06
275.15	53.59
275.366	20.82
275.581	53.59
275.797	129.36
276.012	33.11
276.228	-40.62
276.444	2.39
276.659	82.26
276.875	-18.09
277.09	61.78
277.306	33.11
277.521	65.88
277.737	45.4
277.952	47.44
278.168	63.83
278.383	-1.71
278.599	72.02
278.814	24.92
279.03	63.83
279.245	63.83
279.461	8.53
279.676	78.16
279.892	82.26
280.107	-42.67
280.322	14.68
280.538	37.2
280.753	-7.85
280.969	61.78
281.184	72.02
281.399	86.36
281.615	16.73
281.83	65.88
282.045	67.92
282.26	69.97
282.476	12.63
282.691	72.02
282.906	78.16
283.122	49.49
283.337	-1.71
283.552	22.87
283.767	20.82
283.983	88.4
284.198	-18.09
284.413	39.25
284.628	22.87
284.843	78.16
285.058	74.07
285.274	53.59
285.489	76.12
285.704	119.12
285.919	53.59
286.134	-5.8
286.349	2.39
286.564	-26.28
286.779	135.51
286.995	65.88
287.21	2.39
287.425	37.2
287.64	-11.95
287.855	78.16
288.07	-38.57
288.285	61.78
288.5	78.16
288.715	6.49
288.93	0.34
289.145	86.36
289.36	43.35
289.575	51.54
289.79	10.58
290.004	14.68
290.219	115.03
290.434	-24.23
290.649	4.44
290.864	16.73
291.079	53.59
291.294	47.44
291.509	0.34
291.724	-46.76
291.938	18.77
292.153	96.6
292.368	20.82
292.583	82.26
292.798	37.2
293.012	137.56
293.227	76.12
293.442	6.49
293.657	39.25
293.871	20.82
294.086	6.49
294.301	110.93
294.516	76.12
294.73	14.68
294.945	43.35
295.16	61.78
295.374	94.55
295.589	12.63
295.804	31.06
296.018	67.92
296.233	119.12
296.447	82.26
296.662	45.4
296.877	104.79
297.091	115.03
297.306	78.16
297.52	-16.04
297.735	-46.76
297.949	10.58
298.164	86.36
298.378	65.88
298.593	16.73
298.807	26.96
299.022	16.73
299.236	24.92
299.451	78.16
299.665	-59.05
299.88	-11.95
300.094	10.58
300.309	43.35
300.523	29.01
300.737	49.49
300.952	12.63
301.166	20.82
301.381	6.49
301.595	-20.14
301.809	-3.75
302.024	4.44
302.238	-50.86
302.452	24.92
302.667	53.59
302.881	86.36
303.095	22.87
303.309	18.77
303.524	-5.8
303.738	74.07
303.952	12.63
304.166	100.69
304.381	45.4
304.595	24.92
304.809	47.44
305.023	55.64
305.237	61.78
305.452	53.59
305.666	45.4
305.88	37.2
306.094	24.92
306.308	100.69
306.522	63.83
306.736	-11.95
306.95	26.96
307.164	63.83
307.379	45.4
307.593	57.68
307.807	65.88
308.021	102.74
308.235	61.78
308.449	41.3
308.663	20.82
308.877	102.74
309.091	-7.85
309.305	47.44
309.519	-26.28
309.733	53.59
309.947	2.39
310.161	72.02
310.374	-11.95
310.588	-13.99
310.802	69.97
311.016	74.07
311.23	61.78
311.444	8.53
311.658	86.36
311.872	49.49
312.085	90.45
312.299	74.07
312.513	80.21
312.727	61.78
312.941	20.82
313.154	133.46
313.368	86.36
313.582	72.02
313.796	31.06
314.009	80.21
314.223	47.44
314.437	-30.38
314.651	47.44
314.864	61.78
315.078	16.73
315.292	67.92
315.505	26.96
315.719	59.73
315.933	6.49
316.146	18.77
316.36	59.73
316.573	0.34
316.787	18.77
317.001	127.32
317.214	0.34
317.428	-11.95
317.641	18.77
317.855	24.92
318.068	18.77
318.282	16.73
318.495	139.6
318.709	12.63
318.922	-22.19
319.136	65.88
319.349	119.12
319.563	31.06
319.776	6.49
319.99	6.49
320.203	86.36
320.417	16.73
320.63	151.89
320.843	86.36
321.057	31.06
321.27	86.36
321.483	20.82
321.697	-13.99
321.91	45.4
322.124	39.25
322.337	94.55
322.55	80.21
322.763	37.2
322.977	110.93
323.19	49.49
323.403	-20.14
323.617	33.11
323.83	74.07
324.043	20.82
324.256	41.3
324.469	8.53
324.683	108.88
324.896	78.16
325.109	14.68
325.322	-16.04
325.535	31.06
325.748	4.44
325.962	55.64
326.175	80.21
326.388	86.36
326.601	-11.95
326.814	16.73
327.027	139.6
327.24	94.55
327.453	-16.04
327.666	14.68
327.879	131.41
328.092	14.68
328.305	33.11
328.518	39.25
328.731	57.68
328.944	184.66
329.157	94.55
329.37	20.82
329.583	121.17
329.796	145.75
330.009	-32.43
330.222	49.49
330.435	12.63
330.648	53.59
330.861	78.16
331.073	29.01
331.286	41.3
331.499	-1.71
331.712	-38.57
331.925	-1.71
332.138	63.83
332.35	18.77
332.563	33.11
332.776	10.58
332.989	12.63
333.202	16.73
333.414	6.49
333.627	-32.43
333.84	57.68
334.053	61.78
334.265	-5.8
334.478	39.25
334.691	86.36
334.903	33.11
335.116	29.01
335.329	0.34
335.541	6.49
335.754	123.22
335.966	88.4
336.179	49.49
336.392	55.64
336.604	29.01
336.817	63.83
337.029	4.44
337.242	-26.28
337.454	96.6
337.667	-44.71
337.88	61.78
338.092	12.63
338.305	72.02
338.517	33.11
338.729	-7.85
338.942	131.41
339.154	39.25
339.367	37.2
339.579	24.92
339.792	20.82
340.004	145.75
340.217	61.78
340.429	61.78
340.641	-20.14
340.854	41.3
341.066	80.21
341.278	143.7
341.491	35.16
341.703	55.64
341.915	35.16
342.128	131.41
342.34	35.16
342.552	22.87
342.764	37.2
342.977	22.87
343.189	55.64
343.401	55.64
343.613	45.4
343.826	63.83
344.038	8.53
344.25	94.55
344.462	63.83
344.674	31.06
344.886	-22.19
345.099	-24.23
345.311	72.02
345.523	10.58
345.735	84.31
345.947	57.68
346.159	74.07
346.371	61.78
346.583	6.49
346.795	53.59
347.007	63.83
347.219	53.59
347.431	49.49
347.643	102.74
347.855	86.36
348.067	115.03
348.279	78.16
348.491	22.87
348.703	53.59
348.915	55.64
349.127	51.54
349.339	39.25
349.551	26.96
349.763	65.88
349.975	45.4
350.187	115.03
350.399	45.4
350.61	-3.75
350.822	74.07
351.034	59.73
351.246	55.64
351.458	78.16
351.669	92.5
351.881	43.35
352.093	82.26
352.305	55.64
352.517	43.35
352.728	55.64
352.94	39.25
353.152	61.78
353.363	-36.52
353.575	94.55
353.787	53.59
353.999	-16.04
354.21	59.73
354.422	26.96
354.633	4.44
354.845	86.36
355.057	16.73
355.268	112.98
355.48	65.88
355.692	12.63
355.903	69.97
356.115	-28.33
356.326	20.82
356.538	6.49
356.749	55.64
356.961	110.93
357.172	88.4
357.384	49.49
357.595	98.64
357.807	45.4
358.018	92.5
358.23	22.87
358.441	33.11
358.653	29.01
358.864	65.88
359.075	29.01
359.287	35.16
359.498	90.45
359.709	112.98
359.921	74.07
360.132	115.03
360.344	72.02
360.555	57.68
360.766	55.64
360.977	41.3
361.189	-1.71
361.4	14.68
361.611	-9.9
361.823	102.74
362.034	78.16
362.245	12.63
362.456	69.97
362.667	78.16
362.879	72.02
363.09	90.45
363.301	47.44
363.512	55.64
363.723	4.44
363.935	22.87
364.146	53.59
364.357	57.68
364.568	65.88
364.779	29.01
364.99	49.49
365.201	-9.9
365.412	2.39
365.623	53.59
365.834	82.26
366.045	26.96
366.256	78.16
366.467	43.35
366.678	39.25
366.889	29.01
367.1	57.68
367.311	131.41
367.522	-63.15
367.733	119.12
367.944	63.83
368.155	4.44
368.366	63.83
368.577	108.88
368.788	61.78
368.999	18.77
369.209	39.25
369.42	108.88
369.631	69.97
369.842	53.59
370.053	41.3
370.264	47.44
370.474	65.88
370.685	16.73
370.896	94.55
371.107	160.08
371.317	69.97
371.528	37.2
371.739	78.16
371.95	10.58
372.16	37.2
372.371	55.64
372.582	65.88
372.792	69.97
373.003	162.13
373.214	26.96
373.424	63.83
373.635	88.4
373.846	53.59
374.056	92.5
374.267	63.83
374.477	29.01
374.688	47.44
374.898	4.44
375.109	47.44
375.319	22.87
375.53	-9.9
375.74	61.78
375.951	74.07
376.161	55.64
376.372	102.74
376.582	0.34
376.793	55.64
377.003	55.64
377.214	-1.71
377.424	12.63
377.635	18.77
377.845	-42.67
378.055	63.83
378.266	-3.75
378.476	82.26
378.686	20.82
378.897	133.46
379.107	33.11
379.317	41.3
379.528	88.4
379.738	47.44
379.948	86.36
380.158	94.55
380.369	-28.33
380.579	61.78
380.789	74.07
380.999	110.93
381.21	78.16
381.42	88.4
381.63	18.77
381.84	102.74
382.05	86.36
382.261	133.46
382.471	16.73
382.681	129.36
382.891	104.79
383.101	53.59
383.311	37.2
383.521	33.11
383.731	47.44
383.941	12.63
384.151	104.79
384.361	55.64
384.571	121.17
384.781	112.98
384.991	180.56
385.201	86.36
385.411	88.4
385.621	112.98
385.831	-11.95
386.041	98.64
386.251	39.25
386.461	151.89
386.671	8.53
386.881	119.12
387.091	29.01
387.301	96.6
387.511	98.64
387.72	82.26
387.93	47.44
388.14	29.01
388.35	53.59
388.56	135.51
388.769	76.12
388.979	80.21
389.189	-7.85
389.399	80.21
389.609	102.74
389.818	29.01
390.028	86.36
390.238	92.5
390.447	-65.19
390.657	53.59
390.867	-1.71
391.076	8.53
391.286	88.4
391.496	63.83
391.705	39.25
391.915	100.69
392.125	61.78
392.334	31.06
392.544	119.12
392.753	-42.67
392.963	-16.04
393.172	39.25
393.382	12.63
393.591	108.88
393.801	69.97
394.01	104.79
394.22	49.49
394.429	104.79
394.639	88.4
394.848	96.6
395.058	45.4
395.267	45.4
395.477	69.97
395.686	57.68
395.895	110.93
396.105	84.31
396.314	121.17
396.524	78.16
396.733	149.84
396.942	108.88
397.152	123.22
397.361	174.42
397.57	106.84
397.78	137.56
397.989	129.36
398.198	51.54
398.407	69.97
398.617	53.59
398.826	106.84
399.035	135.51
399.244	184.66
399.453	102.74
399.663	155.99
399.872	131.41
400.081	102.74
400.29	123.22
400.499	147.8
400.708	178.51
400.917	110.93
401.127	106.84
401.336	108.88
401.545	184.66
401.754	76.12
401.963	80.21
402.172	162.13
402.381	55.64
402.59	61.78
402.799	123.22
403.008	133.46
403.217	61.78
403.426	141.65
403.635	74.07
403.844	168.27
404.053	96.6
404.262	139.6
404.471	115.03
404.68	100.69
404.888	123.22
405.097	86.36
405.306	65.88
405.515	160.08
405.724	135.51
405.933	127.32
406.142	110.93
406.35	246.1
406.559	176.47
406.768	131.41
406.977	178.51
407.185	254.29
407.394	227.67
407.603	170.32
407.812	254.29
408.02	147.8
408.229	201.04
408.438	248.15
408.646	227.67
408.855	213.33
409.064	235.86
409.272	178.51
409.481	315.73
409.69	319.82
409.898	221.52
410.107	303.44
410.315	293.2
410.524	282.96
410.733	348.5
410.941	348.5
411.15	368.98
411.358	452.94
411.567	442.7
411.775	260.43
411.984	387.41
412.192	414.03
412.401	342.35
412.609	446.8
412.818	577.87
413.026	498
413.234	479.57
413.443	454.99
413.651	567.63
413.86	541.01
414.068	555.34
414.276	581.96
414.485	465.23
414.693	653.64
414.901	665.93
415.11	719.18
415.318	676.17
415.526	708.94
415.734	682.31
415.943	700.75
416.151	817.48
416.359	837.96
416.567	784.71
416.776	866.63
416.984	858.44
417.192	942.41
417.4	975.17
417.608	860.49
417.817	913.74
418.025	1022.28
418.233	1053
418.441	1036.61
418.649	1089.86
418.857	1139.01
419.065	1206.59
419.273	1220.93
419.481	1239.36
419.689	1282.37
419.897	1483.07
420.105	1382.72
420.313	1454.4
420.521	1519.93
420.729	1528.13
420.937	1579.33
421.145	1587.52
421.353	1653.05
421.561	1698.11
421.769	1720.64
421.977	1808.7
422.185	1829.18
422.393	1986.87
422.601	2033.97
422.809	2044.21
423.017	2083.13
423.224	2265.39
423.432	2302.26
423.64	2326.83
423.848	2494.77
424.056	2488.62
424.263	2722.09
424.471	2656.56
424.679	2728.24
424.887	2824.49
425.094	3006.76
425.302	2842.92
425.51	3006.76
425.718	3150.12
425.925	3146.02
426.133	3342.63
426.341	3442.98
426.548	3512.61
426.756	3559.71
426.964	3698.97
427.171	3711.26
427.379	3789.08
427.586	4008.22
427.794	4083.99
428.001	4096.28
428.209	4366.61
428.417	4436.24
428.624	4641.04
428.832	4899.08
429.039	4694.29
429.247	4763.92
429.454	5214.47
429.662	5536
429.869	5107.98
430.076	5525.76
430.284	5310.72
430.491	5640.45
430.699	5828.86
430.906	5890.3
431.114	6070.52
431.321	6236.41
431.528	6189.3
431.736	6820.08
431.943	7131.37
432.15	6758.64
432.358	6883.56
432.565	7463.14
432.772	7401.7
432.979	7549.15
433.187	7788.77
433.394	7555.3
433.601	8386.77
433.808	8380.63
434.016	8372.44
434.223	8399.06
434.43	9025.74
434.637	8718.54
434.844	9582.79
435.052	9834.69
435.259	9687.23
435.466	9547.97
435.673	9765.06
435.88	10148.03
436.087	10832.05
436.294	10807.47
436.501	10358.97
436.708	10672.31
436.915	10920.11
437.122	11399.34
437.329	11466.92
437.537	11796.64
437.743	12023.97
437.95	11923.62
438.157	12599.45
438.364	12951.7
438.571	12935.31
438.778	13060.24
438.985	14405.75
439.192	13594.76
439.399	13947.01
439.606	14008.45
439.813	14803.06
440.02	15614.06
440.227	15112.3
440.433	15241.32
440.64	15470.7
440.847	15423.59
441.054	15880.29
441.261	16955.47
441.467	16820.31
441.674	16949.33
441.881	17594.44
442.088	17424.46
442.294	17371.21
442.501	17723.46
442.708	18278.46
442.914	18851.89
443.121	19611.69
443.328	19093.55
443.534	20473.88
443.741	19992.61
443.948	19466.28
444.154	20934.68
444.361	21108.76
444.568	20961.3
444.774	21104.66
444.981	21442.57
445.187	21800.97
445.394	22929.4
445.6	22679.55
445.807	24895.45
446.013	23545.84
446.22	24322.02
446.426	25036.76
446.633	25415.63
446.839	26331.08
447.046	25114.58
447.252	26527.68
447.459	26320.84
447.665	26515.39
447.871	27641.78
448.078	28690.34
448.284	27410.36
448.491	28053.42
448.697	29255.57
448.903	29579.15
449.11	29720.46
449.316	29181.85
449.522	29491.09
449.728	30566.27
449.935	30769.02
450.141	30496.64
450.347	31709.04
450.553	30416.77
450.76	30801.79
450.966	31790.96
451.172	31436.66
451.378	32550.76
451.584	31598.45
451.791	32225.13
451.997	32290.66
452.203	33101.66
452.409	32868.19
452.615	32638.82
452.821	31446.9
453.027	31223.67
453.233	32999.26
453.44	31590.26
453.646	32046.96
453.852	32137.07
454.058	32728.93
454.264	31283.06
454.47	32192.36
454.676	31289.21
454.882	32255.85
455.088	29947.79
455.294	30117.77
455.5	30216.07
455.705	31037.31
455.911	29628.31
456.117	29257.62
456.323	28841.89
456.529	27350.96
456.735	28446.63
456.941	27936.68
457.147	27729.84
457.352	26601.41
457.558	26519.49
457.764	26417.09
457.97	25829.32
458.176	25212.88
458.381	25173.97
458.587	24307.68
458.793	24039.4
458.999	22732.79
459.204	24217.57
459.41	23638
459.616	22310.91
459.821	21839.88
460.027	22274.05
460.233	21649.42
460.438	20746.26
460.644	20652.06
460.85	19847.21
461.055	19400.75
461.261	19466.28
461.466	18198.59
461.672	17440.84
461.878	18686.01
462.083	17569.87
462.289	17403.98
462.494	16937.04
462.7	16408.67
462.905	16054.37
463.111	16316.51
463.316	16482.39
463.522	15972.45
463.727	16091.23
463.932	16246.88
464.138	15710.31
464.343	16021.6
464.549	15317.1
464.754	16050.27
464.959	15837.28
465.165	15757.41
465.37	15024.24
465.575	14532.73
465.781	15382.63
465.986	15263.85
466.191	14618.74
466.397	14391.42
466.602	13713.54
466.807	14344.31
467.012	14372.99
467.218	14190.72
467.423	13987.97
467.628	14164.09
467.833	14798.96
468.038	14141.57
468.244	13770.88
468.449	14266.49
468.654	13998.21
468.859	13670.53
469.064	13678.72
469.269	13148.3
469.474	13215.88
469.679	13670.53
469.885	13037.71
470.09	13228.17
470.295	13121.68
470.5	12791.95
470.705	13004.94
470.91	12677.27
471.115	12726.42
471.32	13088.91
471.525	12710.04
471.73	12468.38
471.935	12433.56
472.139	11804.83
472.344	12191.9
472.549	11874.46
472.754	11794.59
472.959	11608.23
473.164	11253.93
473.369	11118.76
473.574	11673.76
473.778	11436.2
473.983	11243.69
474.188	11301.03
474.393	10827.95
474.598	10930.35
474.802	10703.03
475.007	10850.48
475.212	10592.44
475.417	10371.26
475.621	10494.13
475.826	10313.91
476.031	10154.17
476.235	9894.08
476.44	10068.16
476.645	9879.74
476.849	9828.54
477.054	9781.44
477.259	9545.92
477.463	9498.82
477.668	9461.96
477.872	9654.47
478.077	9574.6
478.282	9162.95
478.486	9314.5
478.691	9023.69
478.895	8980.68
479.1	8886.48
479.304	8851.66
479.509	8874.19
479.713	8818.89
479.918	8671.44
480.122	8558.8
480.326	8659.15
480.531	8829.13
480.735	8497.36
480.94	8394.97
481.144	8802.51
481.348	8341.72
481.553	8370.39
481.757	8224.98
481.961	8366.29
482.166	8417.49
482.37	8313.05
482.574	8341.72
482.778	8356.05
482.983	8470.74
483.187	8394.97
483.391	8372.44
483.595	8288.47
483.8	8108.25
484.004	8315.09
484.208	8442.07
484.412	8362.2
484.616	8327.38
484.821	8294.61
485.025	8104.15
485.229	8259.8
485.433	8263.9
485.637	8204.5
485.841	8276.18
486.045	8220.89
486.249	8288.47
486.453	8100.06
486.657	8374.49
486.861	8157.4
487.065	8083.67
487.269	8216.79
487.473	8048.86
487.677	8493.27
487.881	8589.52
488.085	8265.94
488.289	8323.29
488.493	8210.65
488.697	8319.19
488.901	8274.14
489.105	8407.25
489.309	8409.3
489.512	8288.47
489.716	8460.5
489.92	8397.01
490.124	8390.87
490.328	8644.82
490.531	8634.58
490.735	8706.26
490.939	8581.33
491.143	8392.92
491.346	8483.03
491.55	8620.24
491.754	8397.01
491.958	8646.87
492.161	8661.2
492.365	8728.78
492.569	8558.8
492.772	8646.87
492.976	8741.07
493.18	8947.92
493.383	8960.2
493.587	8927.44
493.79	8917.2
493.994	8806.61
494.197	8986.83
494.401	9191.63
494.605	9238.73
494.808	9337.03
495.012	9464
495.215	9345.22
495.419	9638.08
495.622	9533.64
495.825	9521.35
496.029	9435.33
496.232	9728.19
496.436	9689.28
496.639	10078.4
496.843	9863.36
497.046	10047.68
497.249	10105.02
497.453	10268.86
497.656	10436.79
497.859	10379.45
498.063	10533.04
498.266	10858.67
498.469	10533.04
498.673	10852.53
498.876	10786.99
499.079	11079.85
499.282	11063.47
499.485	11090.09
499.689	11464.87
499.892	11497.64
500.095	11493.54
500.298	11753.63
500.501	11718.82
500.705	12222.62
500.908	12251.29
501.111	12286.11
501.314	12361.88
501.517	12839.06
501.72	12466.33
501.923	12615.83
502.126	12656.79
502.329	13162.64
502.532	13027.47
502.735	13230.22
502.938	13527.17
503.141	13457.54
503.344	13967.49
503.547	13748.36
503.75	13883.52
503.953	14030.98
504.156	14213.24
504.359	14336.12
504.562	14307.45
504.765	14825.59
504.968	14762.1
505.17	15059.06
505.373	15067.25
505.576	15378.54
505.779	15618.15
505.982	15382.63
506.185	15687.78
506.387	15892.58
506.59	16021.6
506.793	16281.69
506.996	16130.14
507.198	16853.08
507.401	16703.57
507.604	16930.9
507.807	17313.87
508.009	17227.85
508.212	17459.27
508.415	17700.94
508.617	17752.13
508.82	17967.17
509.022	17928.26
509.225	18247.74
509.428	18567.23
509.63	18452.54
509.833	18602.04
510.035	19269.68
510.238	19028.02
510.44	19204.14
510.643	19314.73
510.845	19869.73
511.048	19537.96
511.25	20052
511.453	20217.89
511.655	20678.68
511.858	20365.34
512.06	20529.18
512.262	20690.97
512.465	20967.45
512.667	20983.83
512.87	21630.99
513.072	21508.11
513.274	21696.52
513.477	22128.64
513.679	22005.77
513.881	22558.72
514.084	22607.87
514.286	22482.94
514.488	22681.6
514.69	23388.14
514.893	23693.29
515.095	23433.2
515.297	23740.4
515.499	23996.39
515.701	24264.68
515.904	24397.79
516.106	24678.36
516.308	24838.11
516.51	25110.49
516.712	25389.01
516.914	25503.7
517.116	25632.72
517.318	25962.44
517.52	25886.67
517.722	26130.37
517.925	26472.39
518.127	26611.65
518.329	26924.99
518.531	26689.47
518.733	27396.02
518.935	27660.21
519.136	27875.24
519.338	28045.23
519.54	28098.47
519.742	28305.32
519.944	28499.87
520.146	28811.17
520.348	28913.56
520.55	29126.55
520.752	29165.46
520.954	29517.71
521.155	29792.14
521.357	30029.71
521.559	30410.63
521.761	30580.61
521.963	30642.05
522.164	30633.86
522.366	30666.63
522.568	31051.64
522.77	31022.97
522.971	31608.69
523.173	31508.34
523.375	32014.19
523.576	31762.29
523.778	31913.84
523.98	32071.53
524.181	32483.17
524.383	32317.29
524.584	32786.27
524.786	33064.8
524.988	32669.54
525.189	32952.16
525.391	33472.34
525.592	33570.65
525.794	33576.79
525.995	33593.17
526.197	33918.8
526.398	33873.74
526.6	34123.6
526.801	34049.87
527.003	34189.13
527.204	34092.88
527.406	34953.02
527.607	34465.61
527.808	35004.22
528.01	34094.93
528.211	34830.15
528.412	35452.73
528.614	35348.28
528.815	34920.26
529.016	35544.89
529.218	35553.08
529.419	35405.63
529.62	35616.57
529.822	35200.83
530.023	35274.56
530.224	35530.55
530.425	35469.11
530.626	35518.26
530.828	35495.74
531.029	36380.46
531.23	35247.93
531.431	35518.26
531.632	35778.36
531.833	36099.89
532.035	36216.62
532.236	35774.26
532.437	36417.32
532.638	35723.06
532.839	36161.33
533.04	36259.63
533.241	35667.77
533.442	36826.92
533.643	35974.96
533.844	35899.19
534.045	36464.42
534.246	35714.87
534.447	36478.76
534.648	36456.23
534.849	36675.37
535.05	36294.44
535.251	36398.89
535.451	35862.32
535.652	36116.27
535.853	36364.07
536.054	36071.21
536.255	36382.51
536.456	35780.4
536.657	36638.5
536.857	36120.37
537.058	36353.83
537.259	36521.77
537.46	36337.45
537.66	36157.23
537.861	36595.49
538.062	36077.36
538.263	36171.57
538.463	36140.85
538.664	36310.83
538.865	36036.4
539.065	36259.63
539.266	35927.86
539.466	36435.75
539.667	36128.56
539.868	36394.79
540.068	36159.28
540.269	36058.93
540.469	36405.03
540.67	36101.93
540.87	36007.73
541.071	36523.82
541.271	35987.25
541.472	35915.57
541.672	35827.51
541.873	35817.27
542.073	35219.26
542.274	36249.39
542.474	35993.39
542.675	35995.44
542.875	36034.35
543.075	35700.53
543.276	35682.1
543.476	36302.64
543.676	35782.45
543.877	35850.03
544.077	35860.27
544.277	35628.85
544.478	35874.61
544.678	35868.47
544.878	35655.48
545.078	35770.16
545.279	35473.21
545.479	35743.54
545.679	35503.93
545.879	35684.15
546.079	35934
546.28	35620.66
546.48	35256.12
546.68	35577.65
546.88	35565.37
547.08	35878.71
547.28	35637.05
547.48	35340.09
547.68	35856.18
547.88	35481.4
548.081	35700.53
548.281	35678
548.481	35739.44
548.681	36265.77
548.881	35479.35
549.081	35456.82
549.28	35567.41
549.48	35415.86
549.68	35444.54
549.88	35977.01
550.08	35403.58
550.28	35520.31
550.48	35331.9
550.68	35747.64
550.88	35147.58
551.08	35387.19
551.279	35739.44
551.479	35340.09
551.679	35084.09
551.879	35348.28
552.079	35733.3
552.278	34934.59
552.478	35274.56
552.678	35630.9
552.878	35419.96
553.077	35249.98
553.277	34940.74
553.477	35581.75
553.676	35254.08
553.876	34789.19
554.076	35039.04
554.275	35104.57
554.475	34893.63
554.674	34867.01
554.874	35045.18
555.074	34875.2
555.273	35266.36
555.473	35014.46
555.672	34840.39
555.872	35120.96
556.071	34987.84
556.271	35225.4
556.47	35051.33
556.67	34426.7
556.869	34651.97
557.068	35086.14
557.268	34633.54
557.467	34617.16
557.667	34594.63
557.866	34713.41
558.065	34719.56
558.265	34451.27
558.464	34434.89
558.663	34883.39
558.863	34139.98
559.062	34772.8
559.261	34125.64
559.461	34666.31
559.66	34150.22
559.859	34320.2
560.058	33963.86
560.258	34357.07
560.457	33926.99
560.656	34053.97
560.855	33859.41
561.054	34309.96
561.253	33396.57
561.453	33922.9
561.652	34146.12
561.851	34297.67
562.05	33816.4
562.249	33603.41
562.448	33965.9
562.647	33714
562.846	33671
563.045	33464.15
563.244	33374.04
563.443	33685.33
563.642	33234.78
563.841	33511.25
564.04	33627.99
564.239	33449.81
564.438	33156.96
564.637	33204.06
564.836	33189.72
565.035	32794.46
565.234	33253.21
565.432	32812.9
565.631	32886.62
565.83	33169.24
566.029	32823.14
566.228	32589.67
566.427	32563.04
566.625	32311.14
566.824	32388.97
567.023	33091.42
567.222	32040.81
567.42	32651.11
567.619	32575.33
567.818	32364.39
568.016	31981.42
568.215	32380.78
568.414	32153.45
568.612	32298.86
568.811	31928.17
569.01	31946.61
569.208	31815.54
569.407	32065.39
569.605	31610.74
569.804	31926.13
570.002	31500.15
570.201	31731.57
570.4	31158.14
570.598	31588.21
570.797	31162.23
570.995	31373.17
571.193	30957.44
571.392	31143.8
571.59	31094.65
571.789	30869.37
571.987	30785.41
572.186	30971.77
572.384	30683.01
572.582	31115.13
572.781	30785.41
572.979	30390.15
573.177	30472.07
573.376	30603.14
573.574	30285.7
573.772	30429.06
573.971	30105.48
574.169	30128.01
574.367	29986.7
574.565	30453.64
574.763	30164.87
574.962	30091.15
575.16	29431.7
575.358	29872.01
575.556	29159.32
575.754	30119.82
575.952	29583.25
576.151	29732.75
576.349	29636.5
576.547	29417.36
576.745	29523.86
576.943	29538.19
577.141	29609.87
577.339	29267.86
577.537	29351.83
577.735	29226.9
577.933	28807.07
578.131	28975
578.329	28632.99
578.527	28770.21
578.725	28553.12
578.923	28475.3
579.121	28405.67
579.319	28688.29
579.516	28354.47
579.714	28600.22
579.912	28377
580.11	28143.53
580.308	28123.05
580.506	28213.16
580.704	27744.17
580.901	27891.63
581.099	28385.19
581.297	27723.69
581.495	27563.95
581.692	27860.91
581.89	27727.79
582.088	27989.93
582.285	27586.48
582.483	27778.99
582.681	27467.7
582.878	27359.16
583.076	27037.62
583.274	27555.76
583.471	27043.77
583.669	27226.04
583.866	27062.2
584.064	27037.62
584.262	26505.15
584.459	26789.82
584.657	26984.38
584.854	27064.25
585.052	26703.81
585.249	26609.6
585.447	26906.55
585.644	26304.45
585.841	26357.7
586.039	26673.09
586.236	26208.2
586.434	26218.44
586.631	25905.1
586.828	26306.5
587.026	26099.66
587.223	26066.89
587.42	25980.87
587.618	25804.75
587.815	25620.43
588.012	25343.95
588.21	25477.07
588.407	25591.76
588.604	25161.69
588.801	25135.06
588.999	25346
589.196	25028.57
589.393	25196.5
589.59	24981.46
589.787	25040.86
589.984	25137.11
590.182	24819.67
590.379	25085.91
590.576	24799.19
590.773	24733.66
590.97	24502.24
591.167	24711.13
591.364	24178.66
591.561	24530.91
591.758	24090.6
591.955	24184.8
592.152	24608.73
592.349	23836.65
592.546	24057.83
592.743	24074.21
592.94	24149.99
593.137	23797.74
593.334	24354.79
593.531	23494.64
593.727	23842.79
593.924	23734.25
594.121	23474.16
594.318	23633.9
594.515	23375.86
594.712	23572.46
594.908	23338.99
595.105	23351.28
595.302	22814.71
595.499	22990.84
595.696	23197.68
595.892	23021.56
596.089	23019.51
596.286	23148.53
596.482	22915.06
596.679	22835.19
596.876	22652.92
597.072	22427.65
597.269	22525.95
597.466	22558.72
597.662	22396.93
597.859	22106.12
598.055	22560.77
598.252	22202.37
598.448	22214.66
598.645	21938.18
598.841	21794.82
599.038	21919.75
599.234	22038.53
599.431	21606.41
599.627	21743.63
599.824	21755.91
600.02	21868.55
600.217	21395.47
600.413	21657.61
600.609	21383.18
600.806	21391.37
601.002	21770.25
601.198	21243.92
601.395	21387.28
601.591	21100.56
601.787	21213.2
601.984	21016.6
602.18	21018.64
602.376	20994.07
602.572	20588.57
602.769	20701.21
602.965	20494.36
603.161	20838.42
603.357	20678.68
603.553	20551.71
603.75	20547.61
603.946	20580.38
604.142	20359.2
604.338	20357.15
604.534	20217.89
604.73	20234.27
604.926	20185.12
605.122	20267.04
605.318	19959.84
605.514	19898.41
605.71	19996.71
605.906	19726.38
606.102	19836.97
606.298	19906.6
606.494	19691.56
606.69	19798.06
606.886	19712.04
607.082	19413.04
607.278	19357.74
607.474	19355.69
607.67	19499.05
607.866	19345.45
608.062	19417.13
608.257	19179.57
608.453	19253.3
608.649	19148.85
608.845	19042.35
609.041	19111.99
609.236	18896.95
609.432	18792.5
609.628	19077.17
609.824	19152.95
610.019	18757.69
610.215	18708.54
610.411	19075.12
610.606	18729.02
610.802	18864.18
610.998	18751.54
611.193	18702.39
611.389	18829.37
611.584	18671.67
611.78	18350.14
611.976	18683.96
612.171	18647.1
612.367	18665.53
612.562	18307.13
612.758	18042.95
612.953	18214.98
613.149	18409.53
613.344	18262.08
613.539	18315.33
613.735	17961.03
613.93	18651.19
614.126	18243.65
614.321	18206.78
614.517	17811.53
614.712	17901.64
614.907	17774.66
615.103	18102.34
615.298	18163.78
615.493	17965.12
615.688	17641.54
615.884	18239.55
616.079	17682.5
616.274	17721.41
616.47	17752.13
616.665	17559.63
616.86	17741.89
617.055	17571.91
617.25	17514.57
617.445	17825.86
617.641	17395.79
617.836	17391.69
618.031	17500.23
618.226	17281.1
618.421	17303.63
618.616	17287.25
618.811	17178.7
619.006	17088.59
619.201	16947.28
619.396	17209.42
619.591	16588.89
619.786	17100.88
619.981	16939.09
620.176	16805.97
620.371	16490.59
620.566	16699.48
620.761	16560.22
620.956	16380
621.151	16103.52
621.346	16197.73
621.541	16144.48
621.735	16388.19
621.93	16148.57
622.125	15941.73
622.32	15988.83
622.515	15822.95
622.709	16027.74
622.904	15902.82
623.099	15429.74
623.294	15728.74
623.488	15530.09
623.683	15579.24
623.878	15331.44
624.072	15245.42
624.267	15024.24
624.462	15077.49
624.656	15040.62
624.851	14887.03
625.046	14944.37
625.24	14977.14
625.435	14606.45
625.629	14782.58
625.824	14579.83
626.018	14633.08
626.213	14254.2
626.407	14467.19
626.602	13955.2
626.796	14243.96
626.991	14071.93
627.185	14098.56
627.38	13932.67
627.574	13860.99
627.768	13637.77
627.963	13738.12
628.157	13725.83
628.352	13660.29
628.546	13353.1
628.74	13246.6
628.935	13351.05
629.129	13299.85
629.323	13215.88
629.517	13213.84
629.712	12972.18
629.906	13027.47
630.1	12906.64
630.294	13015.18
630.489	12796.05
630.683	12783.76
630.877	12413.08
631.071	12533.91
631.265	12726.42
631.459	12288.15
631.653	12390.55
631.848	12384.41
632.042	12255.39
632.236	12382.36
632.43	12345.5
632.624	11923.62
632.818	12183.71
633.012	11991.2
633.206	11862.18
633.4	12122.27
633.594	11792.55
633.788	11704.48
633.982	11755.68
634.176	11620.52
634.369	11577.51
634.563	11681.96
634.757	11374.76
634.951	11475.11
635.145	11358.38
635.339	11417.77
635.533	11147.44
635.726	11440.29
635.92	11143.34
636.114	11100.33
636.308	11030.7
636.501	11049.13
636.695	10821.81
636.889	10997.93
637.083	10786.99
637.276	10719.41
637.47	10645.68
637.664	10860.72
637.857	10531
638.051	10518.71
638.244	10408.12
638.438	10383.54
638.632	10334.39
638.825	10377.4
639.019	10346.68
639.212	10090.68
639.406	10172.6
639.599	10123.45
639.793	10096.83
639.986	9892.03
640.18	9973.95
640.373	9844.93
640.567	9744.58
640.76	9826.5
640.954	9615.55
641.147	9529.54
641.34	9672.9
641.534	9773.25
641.727	9638.08
641.92	9705.67
642.114	9388.23
642.307	9472.2
642.5	9457.86
642.694	9334.98
642.887	9253.06
643.08	9275.59
643.273	9353.41
643.467	9134.28
643.66	9081.03
643.853	8999.12
644.046	8855.76
644.239	9083.08
644.432	8853.71
644.626	8788.18
644.819	8661.2
645.012	8849.61
645.205	8728.78
645.398	8591.57
645.591	8650.96
645.784	8523.99
645.977	8544.47
646.17	8577.23
646.363	8308.95
646.556	8335.57
646.749	8315.09
646.942	8425.68
647.135	8409.3
647.328	8147.16
647.521	8208.6
647.714	8055
647.907	8034.52
648.099	8085.72
648.292	8147.16
648.485	8040.67
648.678	7911.64
648.871	7952.6
649.064	7940.32
649.256	7893.21
649.449	7669.98
649.642	7698.66
649.835	7645.41
650.027	7620.83
650.22	7657.7
650.413	7495.91
650.605	7581.92
650.798	7551.2
650.991	7450.85
651.183	7467.24
651.376	7377.12
651.568	7336.17
651.761	7368.93
651.954	7188.71
652.146	7282.92
652.339	7305.45
652.531	7141.61
652.724	7088.36
652.916	6852.84
653.109	7074.03
653.301	6992.11
653.494	6965.48
653.686	6983.91
653.879	6912.24
654.071	6934.76
654.263	6674.67
654.456	6729.97
654.648	6828.27
654.84	6787.31
655.033	6588.66
655.225	6586.61
655.417	6711.53
655.61	6547.7
655.802	6559.99
655.994	6326.52
656.186	6410.48
656.379	6414.58
656.571	6598.9
656.763	6342.9
656.955	6316.28
657.148	6246.65
657.34	6385.91
657.532	6377.72
657.724	6197.49
657.916	6295.8
658.108	6187.25
658.3	6037.75
658.492	6093.05
658.684	6101.24
658.876	6054.14
659.068	6000.89
659.26	5878.01
659.452	5863.68
659.644	5927.16
659.836	5882.11
660.028	5878.01
660.22	5716.22
660.412	5904.64
660.604	5609.73
660.796	5810.43
660.988	5675.26
661.18	5605.63
661.372	5501.19
661.563	5486.85
661.755	5398.79
661.947	5456.13
662.139	5435.65
662.331	5470.47
662.522	5536
662.714	5538.05
662.906	5370.12
663.097	5536
663.289	5290.24
663.481	5181.7
663.673	5339.4
663.864	5265.67
664.056	5286.15
664.247	5212.42
664.439	5218.57
664.631	5019.91
664.822	5169.41
665.014	5036.3
665.205	5142.79
665.397	5075.21
665.588	4978.95
665.78	5017.86
665.971	4944.14
666.163	4966.67
666.354	4763.92
666.546	4942.09
666.737	4608.27
666.929	4880.65
667.12	4966.67
667.311	4714.77
667.503	4675.85
667.694	4862.22
667.885	4845.84
668.077	4755.72
668.268	4694.29
668.459	4819.21
668.651	4733.2
668.842	4595.98
669.033	4663.57
669.224	4587.79
669.416	4587.79
669.607	4460.82
669.798	4495.63
669.989	4579.6
670.18	4374.8
670.371	4530.45
670.563	4339.99
670.754	4532.5
670.945	4366.61
671.136	4454.67
671.327	4387.09
671.518	4409.62
671.709	4268.31
671.9	4446.48
672.091	4499.73
672.282	4231.44
672.473	4278.55
672.664	4319.51
672.855	4251.92
673.046	4231.44
673.237	4206.87
673.428	4198.68
673.619	4137.24
673.809	4135.19
674	4167.96
674.191	4176.15
674.382	4061.46
674.573	4059.42
674.764	4071.7
674.954	4143.38
675.145	4026.65
675.336	3858.71
675.527	4071.7
675.717	4047.13
675.908	4038.94
676.099	3948.83
676.289	3969.3
676.48	3877.15
676.671	3891.48
676.861	3866.91
677.052	3821.85
677.243	3877.15
677.433	3893.53
677.624	3803.42
677.814	3830.04
678.005	3899.67
678.195	3780.89
678.386	3655.97
678.576	3651.87
678.767	3711.26
678.957	3598.62
679.148	3672.35
679.338	3690.78
679.529	3676.45
679.719	3617.05
679.909	3715.36
680.1	3621.15
680.29	3766.56
680.481	3619.1
680.671	3682.59
680.861	3701.02
681.052	3635.49
681.242	3672.35
681.432	3678.49
681.622	3533.09
681.813	3445.02
682.003	3592.48
682.193	3520.8
682.383	3717.4
682.573	3328.29
682.764	3510.56
682.954	3473.7
683.144	3537.18
683.334	3463.46
683.524	3496.22
683.714	3520.8
683.904	3543.33
684.094	3477.79
684.284	3422.5
684.474	3387.68
684.664	3387.68
684.854	3365.15
685.044	3434.78
685.234	3475.74
685.424	3305.76
685.614	3346.72
685.804	3367.2
685.994	3295.52
686.184	3344.67
686.374	3387.68
686.564	3330.34
686.753	3346.72
686.943	3324.19
687.133	3160.36
687.323	3143.97
687.513	3264.8
687.702	3064.1
687.892	3193.12
688.082	3178.79
688.272	3092.77
688.461	3186.98
688.651	3166.5
688.841	3043.62
689.03	3086.63
689.22	3064.1
689.41	3111.21
689.599	3076.39
689.789	3035.43
689.979	3066.15
690.168	3045.67
690.358	3051.81
690.547	3068.2
690.737	2965.8
690.926	3031.34
691.116	2896.17
691.305	2996.52
691.495	2994.47
691.684	2910.5
691.874	2908.46
692.063	3006.76
692.252	2879.79
692.442	2939.18
692.631	2867.5
692.82	3043.62
693.01	2738.48
693.199	2826.54
693.388	2785.58
693.578	2851.11
693.767	2736.43
693.956	2705.71
694.146	2781.48
694.335	2767.15
694.524	2697.52
694.713	2715.95
694.902	2642.22
695.092	2720.04
695.281	2756.91
695.47	2617.65
695.659	2638.13
695.848	2668.84
696.037	2674.99
696.226	2650.41
696.415	2767.15
696.604	2744.62
696.793	2562.35
696.982	2789.67
697.171	2627.89
697.36	2466.1
697.549	2611.5
697.738	2529.58
697.927	2599.21
698.116	2634.03
698.305	2511.15
698.494	2588.97
698.683	2603.31
698.872	2586.93
699.061	2535.73
699.25	2586.93
699.438	2642.22
699.627	2486.58
699.816	2560.3
700.005	2380.08
700.193	2541.87
700.382	2519.34
700.571	2410.8
700.76	2646.32
700.948	2558.25
701.137	2480.43
701.326	2496.82
701.514	2439.47
701.703	2392.37
701.892	2441.52
702.08	2558.25
702.269	2478.38
702.457	2521.39
702.646	2449.71
702.834	2560.3
703.023	2539.82
703.212	2416.94
703.4	2486.58
703.589	2431.28
703.777	2431.28
703.965	2382.13
704.154	2572.59
704.342	2341.17
704.531	2437.42
704.719	2414.9
704.907	2466.1
705.096	2455.86
705.284	2382.13
705.472	2412.85
705.661	2421.04
705.849	2388.27
706.037	2457.9
706.226	2441.52
706.414	2355.51
706.602	2244.92
706.79	2568.49
706.979	2244.92
707.167	2443.57
707.355	2375.99
707.543	2406.7
707.731	2388.27
707.919	2392.37
708.107	2357.55
708.296	2371.89
708.484	2294.07
708.672	2451.76
708.86	2449.71
709.048	2382.13
709.236	2365.75
709.424	2400.56
709.612	2298.16
709.8	2410.8
709.988	2242.87
710.176	2367.79
710.364	2281.78
710.551	2339.12
710.739	2335.03
710.927	2335.03
711.115	2261.3
711.303	2308.4
711.491	2349.36
711.679	2287.92
711.866	2308.4
712.054	2324.79
712.242	2230.58
712.43	2302.26
712.617	2341.17
712.805	2199.86
712.993	2300.21
713.181	2212.15
713.368	2187.57
713.556	2169.14
713.744	2175.28
713.931	2404.66
714.119	2242.87
714.306	2371.89
714.494	2273.59
714.682	2277.68
714.869	2285.87
715.057	2208.05
715.244	2337.07
715.432	2249.01
715.619	2117.94
715.807	2259.25
715.994	2105.65
716.182	2232.63
716.369	2357.55
716.556	2275.63
716.744	2201.91
716.931	2203.96
717.119	2177.33
717.306	2253.11
717.493	2126.13
717.681	2122.04
717.868	2206
718.055	2191.67
718.242	2210.1
718.43	2128.18
718.617	2249.01
718.804	2261.3
718.991	2191.67
719.179	2163
719.366	2160.95
719.553	2203.96
719.74	2199.86
719.927	2158.9
720.114	2222.39
720.301	2158.9
720.488	2195.76
720.676	2130.23
720.863	2134.32
721.05	2177.33
721.237	2076.98
721.424	2072.89
721.611	2066.74
721.798	2091.32
721.985	2072.89
722.172	2076.98
722.358	2216.24
722.545	2134.32
722.732	2218.29
722.919	2165.04
723.106	2111.8
723.293	2136.37
723.48	2089.27
723.667	1923.38
723.853	1978.68
724.04	2111.8
724.227	2093.37
724.414	1980.73
724.6	2085.17
724.787	2126.13
724.974	2244.92
725.161	2017.59
725.347	1982.78
725.534	2060.6
725.72	2181.43
725.907	2140.47
726.094	2023.73
726.28	2072.89
726.467	2011.45
726.653	2111.8
726.84	2167.09
727.027	2093.37
727.213	2040.12
727.4	2048.31
727.586	2079.03
727.773	1974.58
727.959	2019.64
728.145	2027.83
728.332	2072.89
728.518	1960.25
728.705	2054.45
728.891	1950.01
729.077	2040.12
729.264	2029.88
729.45	1915.19
729.636	2023.73
729.823	2056.5
730.009	1970.49
730.195	2029.88
730.382	2021.69
730.568	2046.26
730.754	1962.3
730.94	2136.37
731.126	2109.75
731.313	2027.83
731.499	1941.82
731.685	2003.25
731.871	2142.52
732.057	2046.26
732.243	1921.34
732.429	1972.54
732.615	2013.49
732.801	1927.48
732.987	1999.16
733.173	1978.68
733.359	1968.44
733.545	2033.97
733.731	1993.01
733.917	1896.76
734.103	2015.54
734.289	1904.95
734.475	1888.57
734.661	2070.84
734.847	1909.05
735.033	1966.39
735.219	2068.79
735.404	1849.66
735.59	1855.8
735.776	1917.24
735.962	1974.58
736.148	1974.58
736.333	1939.77
736.519	1964.34
736.705	1894.71
736.89	1933.62
737.076	1913.14
737.262	1909.05
737.447	2027.83
737.633	1794.36
737.819	2011.45
738.004	1792.31
738.19	1855.8
738.375	1859.9
738.561	1909.05
738.747	1843.51
738.932	1868.09
739.118	1917.24
739.303	1898.81
739.489	1823.03
739.674	1913.14
739.859	1798.46
740.045	1814.84
740.23	1784.12
740.416	1859.9
740.601	1878.33
740.786	1833.27
740.972	1769.79
741.157	1866.04
741.342	1659.2
741.528	1782.07
741.713	1794.36
741.898	1745.21
742.084	1825.08
742.269	1734.97
742.454	1716.54
742.639	1689.92
742.824	1710.4
743.01	1724.73
743.195	1716.54
743.38	1644.86
743.565	1710.4
743.75	1694.01
743.935	1782.07
744.12	1718.59
744.305	1706.3
744.49	1642.81
744.675	1632.57
744.86	1741.11
745.045	1638.72
745.23	1620.28
745.415	1562.94
745.6	1745.21
745.785	1667.39
745.97	1732.92
746.155	1669.44
746.34	1548.61
746.525	1567.04
746.71	1548.61
746.895	1562.94
747.079	1587.52
747.264	1597.76
747.449	1632.57
747.634	1458.5
747.819	1472.83
748.003	1503.55
748.188	1331.52
748.373	1462.59
748.557	1499.45
748.742	1483.07
748.927	1376.58
749.111	1444.16
749.296	1413.44
749.481	1472.83
749.665	1507.65
749.85	1466.69
750.034	1382.72
750.219	1401.15
750.404	1419.58
750.588	1440.06
750.773	1331.52
750.957	1450.3
751.141	1364.29
751.326	1415.49
751.51	1372.48
751.695	1384.77
751.879	1376.58
752.064	1356.1
752.248	1370.43
752.432	1370.43
752.617	1284.42
752.801	1292.61
752.985	1319.23
753.17	1220.93
753.354	1327.43
753.538	1308.99
753.722	1202.5
753.907	1192.26
754.091	1175.88
754.275	1257.79
754.459	1171.78
754.643	1179.97
754.828	1194.31
755.012	1104.2
755.196	1200.45
755.38	1147.2
755.564	1100.1
755.748	1169.73
755.932	1136.96
756.116	1145.16
756.3	1124.68
756.484	1055.05
756.668	1167.68
756.852	1005.89
757.036	991.56
757.22	1034.57
757.404	1038.66
757.588	1067.33
757.772	1073.48
757.956	1069.38
758.14	1096
758.323	1036.61
758.507	1114.44
758.691	1042.76
758.875	1042.76
759.059	1030.47
759.242	1040.71
759.426	981.32
759.61	1007.94
759.794	991.56
759.977	1038.66
760.161	987.46
760.345	1018.18
760.528	926.02
760.712	899.4
760.895	944.45
761.079	864.58
761.263	930.12
761.446	909.64
761.63	964.93
761.813	958.79
761.997	966.98
762.18	889.16
762.364	876.87
762.547	917.83
762.731	891.21
762.914	930.12
763.098	790.86
763.281	842.06
763.464	917.83
763.648	807.24
763.831	840.01
764.015	797
764.198	801.1
764.381	864.58
764.564	803.15
764.748	895.3
764.931	858.44
765.114	878.92
765.297	897.35
765.481	815.43
765.664	866.63
765.847	854.34
766.03	864.58
766.213	844.1
766.397	823.62
766.58	766.28
766.763	825.67
766.946	819.53
767.129	758.09
767.312	762.19
767.495	794.95
767.678	805.19
767.861	747.85
768.044	733.51
768.227	731.47
768.41	684.36
768.593	723.27
768.776	766.28
768.959	799.05
769.142	725.32
769.324	760.14
769.507	751.95
769.69	790.86
769.873	749.9
770.056	733.51
770.239	825.67
770.421	729.42
770.604	827.72
770.787	690.51
770.97	680.27
771.152	735.56
771.335	756.04
771.518	715.08
771.7	708.94
771.883	749.9
772.066	729.42
772.248	758.09
772.431	647.5
772.613	631.12
772.796	702.79
772.978	725.32
773.161	688.46
773.343	651.6
773.526	700.75
773.708	702.79
773.891	676.17
774.073	667.98
774.256	657.74
774.438	643.4
774.621	692.55
774.803	614.73
774.985	604.49
775.168	688.46
775.35	649.55
775.532	676.17
775.715	667.98
775.897	620.88
776.079	526.67
776.261	639.31
776.444	510.29
776.626	448.85
776.808	610.64
776.99	532.81
777.173	545.1
777.355	618.83
777.537	594.25
777.719	573.77
777.901	538.96
778.083	524.62
778.265	555.34
778.447	600.4
778.629	553.29
778.811	541.01
778.993	571.72
779.175	571.72
779.357	549.2
779.539	454.99
779.721	518.48
779.903	495.95
780.085	489.81
780.267	532.81
780.449	528.72
780.631	598.35
780.812	448.85
780.994	543.05
781.176	532.81
781.358	487.76
781.54	385.36
781.721	500.05
781.903	538.96
782.085	448.85
782.267	500.05
782.448	397.65
782.63	411.98
782.812	475.47
782.993	475.47
783.175	471.37
783.357	397.65
783.538	465.23
783.72	422.22
783.901	457.04
784.083	434.51
784.264	448.85
784.446	399.7
784.627	397.65
784.809	325.97
784.99	395.6
785.172	424.27
785.353	377.17
785.535	379.22
785.716	414.03
785.897	354.64
786.079	321.87
786.26	348.5
786.441	446.8
786.623	282.96
786.804	395.6
786.985	323.92
787.167	315.73
787.348	323.92
787.529	332.11
787.71	377.17
787.891	375.12
788.073	311.63
788.254	297.3
788.435	358.74
788.616	356.69
788.797	280.91
788.978	338.26
789.159	315.73
789.34	323.92
789.522	360.78
789.703	334.16
789.884	352.59
790.065	340.3
790.246	377.17
790.427	272.72
790.607	342.35
790.788	432.46
790.969	307.54
791.15	332.11
791.331	338.26
791.512	317.78
791.693	358.74
791.874	342.35
792.054	344.4
792.235	348.5
792.416	315.73
792.597	254.29
792.778	270.67
792.958	250.19
793.139	301.39
793.32	268.63
793.5	250.19
793.681	368.98
793.862	295.25
794.042	203.09
794.223	248.15
794.404	344.4
794.584	299.34
794.765	270.67
794.945	262.48
795.126	282.96
795.306	350.54
795.487	270.67
795.667	229.71
795.848	307.54
796.028	233.81
796.209	278.87
796.389	209.23
796.57	205.14
796.75	258.39
796.93	233.81
797.111	274.77
797.291	219.47
797.471	264.53
797.652	213.33
797.832	250.19
798.012	287.06
798.192	233.81
798.373	123.22
798.553	282.96
798.733	280.91
798.913	201.04
799.093	282.96
799.274	176.47
799.454	155.99
799.634	250.19
799.814	244.05
799.994	291.15
800.174	250.19
800.354	229.71
800.534	229.71
800.714	299.34
800.894	176.47
801.074	244.05
801.254	274.77
801.434	276.82
801.614	203.09
801.794	211.28
801.974	633.16
802.154	184.66
802.334	256.34
802.514	258.39
802.693	203.09
802.873	209.23
803.053	211.28
803.233	194.9
803.413	201.04
803.592	203.09
803.772	209.23
803.952	129.36
804.131	170.32
804.311	170.32
804.491	242
804.67	178.51
804.85	201.04
805.03	102.74
805.209	233.81
805.389	160.08
805.568	160.08
805.748	102.74
805.928	172.37
806.107	188.75
806.287	192.85
806.466	139.6
806.646	262.48
806.825	104.79
807.004	176.47
807.184	233.81
807.363	170.32
807.543	201.04
807.722	151.89
807.901	135.51
808.081	217.43
808.26	168.27
808.439	145.75
808.619	184.66
808.798	149.84
808.977	188.75
809.156	184.66
809.336	194.9
809.515	180.56
809.694	188.75
809.873	178.51
810.052	139.6
810.231	170.32
810.411	170.32
810.59	244.05
810.769	201.04
810.948	172.37
811.127	90.45
811.306	178.51
811.485	123.22
811.664	258.39
811.843	145.75
812.022	147.8
812.201	121.17
812.38	123.22
812.559	119.12
812.737	155.99
812.916	102.74
813.095	172.37
813.274	186.71
813.453	153.94
813.632	170.32
813.811	123.22
813.989	131.41
814.168	102.74
814.347	137.56
814.526	108.88
814.704	145.75
814.883	121.17
815.062	133.46
815.24	139.6
815.419	112.98
815.598	141.65
815.776	72.02
815.955	88.4
816.133	127.32
816.312	153.94
816.49	102.74
816.669	178.51
816.847	139.6
817.026	61.78
817.204	69.97
817.383	121.17
817.561	72.02
817.74	151.89
817.918	72.02
818.097	205.14
818.275	115.03
818.453	229.71
818.632	115.03
818.81	141.65
818.988	37.2
819.167	63.83
819.345	176.47
819.523	164.18
819.701	106.84
819.879	59.73
820.058	115.03
820.236	135.51
820.414	74.07
820.592	137.56
820.77	86.36
820.948	69.97
821.127	88.4
821.305	145.75
821.483	102.74
821.661	72.02
821.839	88.4
822.017	53.59
822.195	82.26
822.373	151.89
822.551	80.21
822.729	104.79
822.907	164.18
823.085	22.87
823.262	94.55
823.44	143.7
823.618	88.4
823.796	119.12
823.974	78.16
824.152	37.2
824.329	139.6
824.507	110.93
824.685	112.98
824.863	78.16
825.04	53.59
825.218	145.75
825.396	102.74
825.574	106.84
825.751	106.84
825.929	96.6
826.107	39.25
826.284	94.55
826.462	74.07
826.639	166.23
826.817	41.3
826.994	143.7
827.172	37.2
827.349	119.12
827.527	80.21
827.704	53.59
827.882	49.49
828.059	96.6
828.237	63.83
828.414	123.22
828.591	31.06
828.769	104.79
828.946	78.16
829.124	110.93
829.301	110.93
829.478	104.79
829.655	135.51
829.833	45.4
830.01	96.6
830.187	131.41
830.364	69.97
830.542	121.17
830.719	168.27
830.896	80.21
831.073	51.54
831.25	88.4
831.427	78.16
831.604	80.21
831.782	39.25
831.959	119.12
832.136	-16.04
832.313	39.25
832.49	41.3
832.667	39.25
832.844	80.21
833.021	20.82
833.198	117.08
833.374	16.73
833.551	127.32
833.728	76.12
833.905	69.97
834.082	8.53
834.259	115.03
834.436	112.98
834.612	86.36
834.789	6.49
834.966	82.26
835.143	61.78
835.319	35.16
835.496	123.22
835.673	86.36
835.85	37.2
836.026	82.26
836.203	53.59
836.38	129.36
836.556	4.44
836.733	24.92
836.909	57.68
837.086	72.02
837.262	4.44
837.439	63.83
837.616	72.02
837.792	-16.04
837.968	88.4
838.145	35.16
838.321	86.36
838.498	63.83
838.674	0.34
838.851	-13.99
839.027	33.11
839.203	16.73
839.38	65.88
839.556	74.07
839.732	69.97
839.909	18.77
840.085	39.25
840.261	65.88
840.437	104.79
840.614	45.4
840.79	86.36
840.966	51.54
841.142	33.11
841.318	69.97
841.494	29.01
841.671	80.21
841.847	29.01
842.023	106.84
842.199	112.98
842.375	98.64
842.551	67.92
842.727	8.53
842.903	137.56
843.079	84.31
843.255	31.06
843.431	63.83
843.607	86.36
843.783	-44.71
843.959	-11.95
844.134	-24.23
844.31	41.3
844.486	47.44
844.662	94.55
844.838	-1.71
845.013	37.2
845.189	45.4
845.365	-13.99
845.541	72.02
845.716	47.44
845.892	90.45
846.068	24.92
846.244	53.59
846.419	61.78
846.595	53.59
846.77	4.44
846.946	29.01
847.122	94.55
847.297	45.4
847.473	4.44
847.648	41.3
847.824	94.55
847.999	2.39
848.175	-1.71
848.35	49.49
848.526	57.68
848.701	74.07
848.876	96.6
849.052	135.51
849.227	55.64
849.403	-7.85
849.578	88.4
849.753	33.11
849.929	92.5
850.104	-100.01
850.279	10.58
850.454	69.97
850.63	20.82
850.805	45.4
850.98	20.82
851.155	43.35
851.33	45.4
851.505	29.01
851.681	69.97
851.856	14.68
852.031	0.34
852.206	-40.62
852.381	-11.95
852.556	-20.14
852.731	12.63
852.906	78.16
853.081	20.82
853.256	59.73
853.431	31.06
853.606	24.92
853.781	2.39
853.956	-7.85
854.131	29.01
854.305	-20.14
854.48	12.63
854.655	20.82
854.83	31.06
855.005	37.2
855.18	80.21
855.354	-16.04
855.529	41.3
855.704	26.96
855.879	4.44
856.053	20.82
856.228	94.55
856.403	-22.19
856.577	88.4
856.752	22.87
856.926	51.54
857.101	-13.99
857.276	29.01
857.45	-11.95
857.625	-30.38
857.799	47.44
857.974	90.45
858.148	65.88
858.323	84.31
858.497	-22.19
858.672	0.34
858.846	4.44
859.02	41.3
859.195	37.2
859.369	-50.86
859.543	49.49
859.718	57.68
859.892	-22.19
860.066	12.63
860.241	72.02
860.415	24.92
860.589	37.2
860.763	24.92
860.938	47.44
861.112	104.79
861.286	18.77
861.46	-18.09
861.634	16.73
861.808	115.03
861.982	31.06
862.157	18.77
862.331	-61.1
862.505	-28.33
862.679	57.68
862.853	10.58
863.027	47.44
863.201	78.16
863.375	-61.1
863.549	31.06
863.722	63.83
863.896	31.06
864.07	-9.9
864.244	-24.23
864.418	-9.9
864.592	74.07
864.766	35.16
864.939	33.11
865.113	33.11
865.287	47.44
865.461	-50.86
865.634	63.83
865.808	14.68
865.982	31.06
866.156	12.63
866.329	-9.9
866.503	37.2
866.676	98.64
866.85	-22.19
867.024	29.01
867.197	59.73
867.371	63.83
867.544	20.82
867.718	-67.24
867.891	24.92
868.065	6.49
868.238	29.01
868.412	2.39
868.585	12.63
868.759	72.02
868.932	-42.67
869.105	12.63
869.279	14.68
869.452	-28.33
869.625	4.44
869.799	18.77
869.972	63.83
870.145	16.73
870.319	55.64
870.492	61.78
870.665	51.54
870.838	8.53
871.011	-67.24
871.185	-20.14
871.358	12.63
871.531	29.01
871.704	31.06
871.877	-20.14
872.05	88.4
872.223	37.2
872.396	78.16
872.569	6.49
872.742	45.4
872.915	14.68
873.088	0.34
873.261	-5.8
873.434	2.39
873.607	10.58
873.78	33.11
873.953	-40.62
874.126	4.44
874.299	8.53
874.471	-44.71
874.644	78.16
874.817	16.73
874.99	43.35
875.163	20.82
875.335	22.87
875.508	-9.9
875.681	24.92
875.853	59.73
876.026	45.4
876.199	41.3
876.371	-18.09
876.544	-13.99
876.717	80.21
876.889	-32.43
877.062	39.25
877.234	6.49
877.407	-57
877.579	14.68
877.752	39.25
877.924	51.54
878.097	72.02
878.269	-42.67
878.442	41.3
878.614	6.49
878.786	55.64
878.959	-11.95
879.131	29.01
879.303	6.49
879.476	-40.62
879.648	80.21
879.82	65.88
879.993	33.11
880.165	-24.23
880.337	-7.85
880.509	39.25
880.681	-30.38
880.854	72.02
881.026	6.49
881.198	-1.71
881.37	39.25
881.542	4.44
881.714	8.53
881.886	22.87
882.058	72.02
882.23	18.77
882.402	80.21
882.574	61.78
882.746	6.49
882.918	94.55
883.09	-26.28
883.262	-5.8
883.434	39.25
883.606	-20.14
883.778	80.21
883.95	76.12
884.122	72.02
884.293	72.02
884.465	-13.99
884.637	86.36
884.809	20.82
884.98	35.16
885.152	35.16
885.324	41.3
885.496	12.63
885.667	-26.28
885.839	-16.04
886.011	69.97
886.182	10.58
886.354	57.68
886.525	24.92
886.697	37.2
886.869	-54.95
887.04	-20.14
887.212	47.44
887.383	57.68
887.555	-11.95
887.726	37.2
887.897	-7.85
888.069	-3.75
888.24	4.44
888.412	-18.09
888.583	47.44
888.754	0.34
888.926	16.73
889.097	4.44
889.268	-52.91
889.44	90.45
889.611	39.25
889.782	18.77
889.953	86.36
890.125	39.25
890.296	-59.05
890.467	-28.33
890.638	-11.95
890.809	14.68
890.98	-20.14
891.151	12.63
891.323	41.3
891.494	57.68
891.665	-3.75
891.836	-9.9
892.007	45.4
892.178	-83.63
892.349	4.44
892.52	-46.76
892.691	-3.75
892.862	57.68
893.032	-7.85
893.203	94.55
893.374	39.25
893.545	37.2
893.716	63.83
893.887	-11.95
894.057	41.3
894.228	31.06
894.399	-46.76
894.57	61.78
894.74	0.34
894.911	41.3
895.082	24.92
895.253	-36.52
895.423	78.16
895.594	37.2
895.764	12.63
895.935	-24.23
896.106	-3.75
896.276	59.73
896.447	-73.39
896.617	-52.91
896.788	4.44
896.958	4.44
897.129	-34.47
897.299	-24.23
897.47	20.82
897.64	45.4
897.81	-18.09
897.981	61.78
898.151	22.87
898.322	6.49
898.492	45.4
898.662	33.11
898.832	37.2
899.003	26.96
899.173	63.83
899.343	-42.67
899.513	-61.1
