Data from USB4F104151__116__14-18-34-467.txt Node

Date: Thu Mar 13 14:18:34 EDT 2025
User: louis
Spectrometer: USB4F10415
Trigger mode: 4
Integration Time (sec): 2.000000E-2
Scans to average: 1
Electric dark correction enabled: true
Nonlinearity correction enabled: false
Boxcar width: 0
XAxis mode: Wavelengths
Number of Pixels in Spectrum: 3648
>>>>>Begin Spectral Data<<<<<
178.204	-138.24
178.424	-138.24
178.644	-138.24
178.864	-154.62
179.084	-119.81
179.304	-72.7
179.524	-13.31
179.744	-35.84
179.964	5.12
180.184	-13.31
180.404	50.18
180.624	-29.7
180.844	3.07
181.064	5.12
181.283	66.56
181.503	-27.65
181.723	62.46
181.943	-25.6
182.163	27.65
182.383	-23.55
182.602	74.75
182.822	-9.22
183.042	44.03
183.262	-33.79
183.482	64.51
183.701	46.08
183.921	-70.65
184.141	15.36
184.361	35.84
184.58	-37.89
184.8	-33.79
185.02	25.6
185.239	37.89
185.459	-29.7
185.679	50.18
185.898	-37.89
186.118	11.26
186.338	7.17
186.557	29.7
186.777	-17.41
186.997	-41.98
187.216	-17.41
187.436	107.52
187.655	113.66
187.875	5.12
188.095	25.6
188.314	113.66
188.534	35.84
188.753	91.13
188.973	-17.41
189.192	-5.12
189.412	-44.03
189.631	7.17
189.851	-103.42
190.07	121.85
190.29	64.51
190.509	9.22
190.729	9.22
190.948	87.04
191.168	144.38
191.387	9.22
191.607	-3.07
191.826	17.41
192.045	-74.75
192.265	-33.79
192.484	-70.65
192.704	23.55
192.923	25.6
193.142	121.85
193.362	35.84
193.581	15.36
193.8	44.03
194.02	27.65
194.239	11.26
194.458	17.41
194.678	27.65
194.897	82.94
195.116	27.65
195.335	11.26
195.555	17.41
195.774	17.41
195.993	-9.22
196.212	1.02
196.432	-80.89
196.651	-50.18
196.87	-29.7
197.089	68.61
197.308	15.36
197.528	3.07
197.747	-7.17
197.966	-41.98
198.185	158.72
198.404	89.09
198.623	17.41
198.842	48.13
199.062	3.07
199.281	74.75
199.5	-9.22
199.719	-5.12
199.938	31.74
200.157	74.75
200.376	52.22
200.595	50.18
200.814	72.7
201.033	-3.07
201.252	52.22
201.471	7.17
201.69	39.94
201.909	21.5
202.128	17.41
202.347	113.66
202.566	-1.02
202.785	5.12
203.004	-99.33
203.223	56.32
203.442	39.94
203.661	64.51
203.879	97.28
204.098	80.89
204.317	-9.22
204.536	64.51
204.755	-1.02
204.974	72.7
205.193	68.61
205.411	125.95
205.63	25.6
205.849	31.74
206.068	35.84
206.287	-39.94
206.505	50.18
206.724	-33.79
206.943	31.74
207.162	31.74
207.381	-1.02
207.599	-50.18
207.818	-44.03
208.037	15.36
208.255	29.7
208.474	62.46
208.693	107.52
208.911	1.02
209.13	39.94
209.349	-46.08
209.567	-23.55
209.786	64.51
210.005	27.65
210.223	1.02
210.442	52.22
210.661	66.56
210.879	39.94
211.098	58.37
211.316	56.32
211.535	9.22
211.753	-21.5
211.972	-9.22
212.191	-25.6
212.409	13.31
212.628	-41.98
212.846	39.94
213.065	62.46
213.283	39.94
213.502	-7.17
213.72	58.37
213.938	76.8
214.157	74.75
214.375	56.32
214.594	23.55
214.812	72.7
215.031	-50.18
215.249	64.51
215.467	7.17
215.686	60.42
215.904	35.84
216.122	3.07
216.341	66.56
216.559	105.47
216.778	9.22
216.996	48.13
217.214	-7.17
217.432	41.98
217.651	-21.5
217.869	-74.75
218.087	23.55
218.306	-21.5
218.524	33.79
218.742	-1.02
218.96	58.37
219.179	-50.18
219.397	76.8
219.615	97.28
219.833	19.46
220.051	39.94
220.27	48.13
220.488	97.28
220.706	-25.6
220.924	44.03
221.142	-27.65
221.36	70.65
221.578	76.8
221.796	46.08
222.015	39.94
222.233	33.79
222.451	74.75
222.669	23.55
222.887	50.18
223.105	11.26
223.323	29.7
223.541	1.02
223.759	31.74
223.977	-9.22
224.195	89.09
224.413	-11.26
224.631	25.6
224.849	-29.7
225.067	105.47
225.285	5.12
225.503	33.79
225.721	17.41
225.939	-58.37
226.157	80.89
226.375	107.52
226.592	31.74
226.81	-3.07
227.028	48.13
227.246	72.7
227.464	9.22
227.682	56.32
227.9	52.22
228.117	-19.46
228.335	1.02
228.553	60.42
228.771	58.37
228.989	74.75
229.206	84.99
229.424	-58.37
229.642	-41.98
229.86	-9.22
230.077	-17.41
230.295	52.22
230.513	25.6
230.731	23.55
230.948	-1.02
231.166	76.8
231.384	64.51
231.601	3.07
231.819	91.13
232.037	3.07
232.254	-7.17
232.472	-19.46
232.689	23.55
232.907	111.61
233.125	31.74
233.342	7.17
233.56	66.56
233.777	-91.13
233.995	-5.12
234.213	23.55
234.43	-13.31
234.648	-7.17
234.865	1.02
235.083	99.33
235.3	44.03
235.518	5.12
235.735	31.74
235.953	23.55
236.17	-21.5
236.388	-21.5
236.605	-1.02
236.822	31.74
237.04	64.51
237.257	23.55
237.475	-13.31
237.692	33.79
237.909	101.37
238.127	62.46
238.344	52.22
238.562	13.31
238.779	19.46
238.996	-37.89
239.214	76.8
239.431	44.03
239.648	-33.79
239.865	97.28
240.083	80.89
240.3	56.32
240.517	56.32
240.735	-33.79
240.952	35.84
241.169	27.65
241.386	19.46
241.603	48.13
241.821	-56.32
242.038	56.32
242.255	39.94
242.472	-23.55
242.689	7.17
242.907	87.04
243.124	33.79
243.341	31.74
243.558	-37.89
243.775	-35.84
243.992	93.18
244.209	72.7
244.426	70.65
244.643	48.13
244.86	-33.79
245.078	64.51
245.295	15.36
245.512	-33.79
245.729	-25.6
245.946	-11.26
246.163	93.18
246.38	23.55
246.597	31.74
246.814	60.42
247.031	21.5
247.248	-11.26
247.464	21.5
247.681	80.89
247.898	76.8
248.115	74.75
248.332	1.02
248.549	7.17
248.766	58.37
248.983	66.56
249.2	70.65
249.417	39.94
249.633	82.94
249.85	35.84
250.067	74.75
250.284	-41.98
250.501	56.32
250.717	9.22
250.934	-3.07
251.151	-11.26
251.368	5.12
251.585	58.37
251.801	23.55
252.018	17.41
252.235	41.98
252.451	-48.13
252.668	-1.02
252.885	23.55
253.102	44.03
253.318	-1.02
253.535	56.32
253.752	33.79
253.968	15.36
254.185	-31.74
254.401	-11.26
254.618	-60.42
254.835	-31.74
255.051	99.33
255.268	37.89
255.484	50.18
255.701	44.03
255.917	15.36
256.134	15.36
256.351	41.98
256.567	17.41
256.784	1.02
257	-9.22
257.217	19.46
257.433	31.74
257.65	25.6
257.866	99.33
258.082	9.22
258.299	7.17
258.515	25.6
258.732	48.13
258.948	-13.31
259.165	-21.5
259.381	56.32
259.597	3.07
259.814	64.51
260.03	-5.12
260.246	58.37
260.463	27.65
260.679	50.18
260.895	7.17
261.112	64.51
261.328	39.94
261.544	64.51
261.761	72.7
261.977	-1.02
262.193	31.74
262.409	27.65
262.626	23.55
262.842	58.37
263.058	52.22
263.274	-3.07
263.49	-1.02
263.707	25.6
263.923	52.22
264.139	23.55
264.355	23.55
264.571	89.09
264.787	9.22
265.004	113.66
265.22	-11.26
265.436	-64.51
265.652	58.37
265.868	60.42
266.084	76.8
266.3	72.7
266.516	-9.22
266.732	56.32
266.948	-5.12
267.164	9.22
267.38	52.22
267.596	72.7
267.812	109.57
268.028	3.07
268.244	17.41
268.46	52.22
268.676	-17.41
268.892	60.42
269.108	15.36
269.324	46.08
269.54	31.74
269.756	64.51
269.972	-25.6
270.188	33.79
270.403	-27.65
270.619	-9.22
270.835	66.56
271.051	27.65
271.267	72.7
271.483	-9.22
271.698	15.36
271.914	89.09
272.13	17.41
272.346	7.17
272.562	-5.12
272.777	76.8
272.993	17.41
273.209	3.07
273.425	68.61
273.64	-19.46
273.856	50.18
274.072	-7.17
274.287	-80.89
274.503	3.07
274.719	78.85
274.934	-13.31
275.15	-60.42
275.366	41.98
275.581	-37.89
275.797	29.7
276.012	-17.41
276.228	9.22
276.444	29.7
276.659	-21.5
276.875	1.02
277.09	25.6
277.306	25.6
277.521	23.55
277.737	-7.17
277.952	-1.02
278.168	60.42
278.383	-13.31
278.599	-66.56
278.814	17.41
279.03	-17.41
279.245	31.74
279.461	-1.02
279.676	21.5
279.892	-31.74
280.107	39.94
280.322	-60.42
280.538	1.02
280.753	-5.12
280.969	19.46
281.184	5.12
281.399	1.02
281.615	-1.02
281.83	17.41
282.045	-91.13
282.26	11.26
282.476	72.7
282.691	105.47
282.906	56.32
283.122	-70.65
283.337	31.74
283.552	64.51
283.767	-5.12
283.983	23.55
284.198	-21.5
284.413	-21.5
284.628	-54.27
284.843	113.66
285.058	7.17
285.274	-1.02
285.489	25.6
285.704	64.51
285.919	-1.02
286.134	-7.17
286.349	68.61
286.564	27.65
286.779	62.46
286.995	17.41
287.21	-9.22
287.425	3.07
287.64	3.07
287.855	87.04
288.07	9.22
288.285	46.08
288.5	27.65
288.715	97.28
288.93	27.65
289.145	23.55
289.36	29.7
289.575	-66.56
289.79	64.51
290.004	50.18
290.219	70.65
290.434	48.13
290.649	7.17
290.864	74.75
291.079	7.17
291.294	56.32
291.509	-17.41
291.724	-1.02
291.938	3.07
292.153	23.55
292.368	82.94
292.583	48.13
292.798	1.02
293.012	13.31
293.227	39.94
293.442	3.07
293.657	39.94
293.871	60.42
294.086	142.33
294.301	123.9
294.516	46.08
294.73	7.17
294.945	23.55
295.16	-29.7
295.374	64.51
295.589	62.46
295.804	52.22
296.018	-62.46
296.233	11.26
296.447	101.37
296.662	-29.7
296.877	164.86
297.091	50.18
297.306	-13.31
297.52	48.13
297.735	48.13
297.949	27.65
298.164	17.41
298.378	33.79
298.593	19.46
298.807	54.27
299.022	1.02
299.236	50.18
299.451	-25.6
299.665	-39.94
299.88	27.65
300.094	62.46
300.309	17.41
300.523	-1.02
300.737	50.18
300.952	78.85
301.166	-5.12
301.381	15.36
301.595	46.08
301.809	64.51
302.024	52.22
302.238	-13.31
302.452	93.18
302.667	66.56
302.881	107.52
303.095	27.65
303.309	58.37
303.524	-29.7
303.738	62.46
303.952	82.94
304.166	31.74
304.381	-50.18
304.595	66.56
304.809	-15.36
305.023	17.41
305.237	1.02
305.452	15.36
305.666	41.98
305.88	56.32
306.094	56.32
306.308	-25.6
306.522	-54.27
306.736	39.94
306.95	-9.22
307.164	-33.79
307.379	25.6
307.593	60.42
307.807	87.04
308.021	-1.02
308.235	3.07
308.449	48.13
308.663	39.94
308.877	111.61
309.091	-25.6
309.305	15.36
309.519	39.94
309.733	91.13
309.947	-15.36
310.161	-1.02
310.374	31.74
310.588	52.22
310.802	-54.27
311.016	35.84
311.23	87.04
311.444	7.17
311.658	19.46
311.872	-15.36
312.085	1.02
312.299	-89.09
312.513	-41.98
312.727	-19.46
312.941	-48.13
313.154	11.26
313.368	37.89
313.582	44.03
313.796	15.36
314.009	19.46
314.223	-25.6
314.437	19.46
314.651	-27.65
314.864	31.74
315.078	21.5
315.292	31.74
315.505	17.41
315.719	64.51
315.933	60.42
316.146	64.51
316.36	-9.22
316.573	44.03
316.787	-11.26
317.001	66.56
317.214	27.65
317.428	103.42
317.641	-74.75
317.855	1.02
318.068	13.31
318.282	-7.17
318.495	29.7
318.709	101.37
318.922	60.42
319.136	136.19
319.349	46.08
319.563	33.79
319.776	-17.41
319.99	-1.02
320.203	-11.26
320.417	-23.55
320.63	1.02
320.843	93.18
321.057	3.07
321.27	17.41
321.483	11.26
321.697	17.41
321.91	68.61
322.124	11.26
322.337	-19.46
322.55	-15.36
322.763	17.41
322.977	15.36
323.19	84.99
323.403	11.26
323.617	39.94
323.83	97.28
324.043	50.18
324.256	11.26
324.469	-35.84
324.683	154.62
324.896	-17.41
325.109	1.02
325.322	50.18
325.535	64.51
325.748	93.18
325.962	13.31
326.175	39.94
326.388	52.22
326.601	44.03
326.814	78.85
327.027	-41.98
327.24	50.18
327.453	15.36
327.666	76.8
327.879	64.51
328.092	48.13
328.305	13.31
328.518	23.55
328.731	15.36
328.944	17.41
329.157	62.46
329.37	54.27
329.583	48.13
329.796	44.03
330.009	-31.74
330.222	58.37
330.435	31.74
330.648	89.09
330.861	17.41
331.073	130.05
331.286	27.65
331.499	39.94
331.712	50.18
331.925	27.65
332.138	46.08
332.35	76.8
332.563	-60.42
332.776	93.18
332.989	76.8
333.202	68.61
333.414	72.7
333.627	17.41
333.84	48.13
334.053	19.46
334.265	44.03
334.478	11.26
334.691	54.27
334.903	19.46
335.116	33.79
335.329	7.17
335.541	56.32
335.754	17.41
335.966	-50.18
336.179	31.74
336.392	1.02
336.604	-5.12
336.817	33.79
337.029	74.75
337.242	-46.08
337.454	35.84
337.667	44.03
337.88	-21.5
338.092	76.8
338.305	74.75
338.517	-5.12
338.729	3.07
338.942	23.55
339.154	-13.31
339.367	17.41
339.579	-17.41
339.792	3.07
340.004	19.46
340.217	70.65
340.429	-17.41
340.641	111.61
340.854	27.65
341.066	7.17
341.278	27.65
341.491	64.51
341.703	33.79
341.915	13.31
342.128	62.46
342.34	39.94
342.552	105.47
342.764	66.56
342.977	56.32
343.189	39.94
343.401	76.8
343.613	1.02
343.826	56.32
344.038	54.27
344.25	25.6
344.462	-5.12
344.674	121.85
344.886	11.26
345.099	11.26
345.311	33.79
345.523	23.55
345.735	-41.98
345.947	17.41
346.159	3.07
346.371	35.84
346.583	33.79
346.795	64.51
347.007	39.94
347.219	54.27
347.431	3.07
347.643	138.24
347.855	19.46
348.067	72.7
348.279	68.61
348.491	56.32
348.703	25.6
348.915	-17.41
349.127	-80.89
349.339	56.32
349.551	21.5
349.763	84.99
349.975	101.37
350.187	11.26
350.399	11.26
350.61	54.27
350.822	84.99
351.034	48.13
351.246	35.84
351.458	89.09
351.669	31.74
351.881	72.7
352.093	44.03
352.305	19.46
352.517	46.08
352.728	109.57
352.94	19.46
353.152	113.66
353.363	62.46
353.575	101.37
353.787	48.13
353.999	41.98
354.21	62.46
354.422	17.41
354.633	15.36
354.845	33.79
355.057	52.22
355.268	97.28
355.48	-39.94
355.692	115.71
355.903	60.42
356.115	76.8
356.326	-44.03
356.538	89.09
356.749	-5.12
356.961	17.41
357.172	15.36
357.384	60.42
357.595	52.22
357.807	117.76
358.018	-17.41
358.23	39.94
358.441	78.85
358.653	-1.02
358.864	-13.31
359.075	27.65
359.287	89.09
359.498	39.94
359.709	1.02
359.921	-48.13
360.132	109.57
360.344	52.22
360.555	11.26
360.766	91.13
360.977	23.55
361.189	54.27
361.4	82.94
361.611	48.13
361.823	56.32
362.034	72.7
362.245	-9.22
362.456	56.32
362.667	25.6
362.879	56.32
363.09	95.23
363.301	25.6
363.512	19.46
363.723	56.32
363.935	35.84
364.146	58.37
364.357	15.36
364.568	1.02
364.779	1.02
364.99	52.22
365.201	13.31
365.412	64.51
365.623	60.42
365.834	7.17
366.045	-15.36
366.256	1.02
366.467	68.61
366.678	101.37
366.889	-9.22
367.1	41.98
367.311	52.22
367.522	84.99
367.733	27.65
367.944	1.02
368.155	23.55
368.366	48.13
368.577	-21.5
368.788	68.61
368.999	-15.36
369.209	33.79
369.42	93.18
369.631	97.28
369.842	95.23
370.053	7.17
370.264	76.8
370.474	-70.65
370.685	21.5
370.896	64.51
371.107	-7.17
371.317	39.94
371.528	31.74
371.739	46.08
371.95	1.02
372.16	9.22
372.371	58.37
372.582	5.12
372.792	7.17
373.003	91.13
373.214	72.7
373.424	87.04
373.635	-33.79
373.846	27.65
374.056	35.84
374.267	99.33
374.477	31.74
374.688	56.32
374.898	15.36
375.109	97.28
375.319	-9.22
375.53	56.32
375.74	41.98
375.951	52.22
376.161	64.51
376.372	21.5
376.582	103.42
376.793	23.55
377.003	97.28
377.214	9.22
377.424	48.13
377.635	44.03
377.845	15.36
378.055	89.09
378.266	56.32
378.476	84.99
378.686	19.46
378.897	44.03
379.107	-5.12
379.317	-15.36
379.528	76.8
379.738	78.85
379.948	15.36
380.158	97.28
380.369	9.22
380.579	13.31
380.789	84.99
380.999	87.04
381.21	80.89
381.42	64.51
381.63	-9.22
381.84	80.89
382.05	27.65
382.261	15.36
382.471	41.98
382.681	-29.7
382.891	54.27
383.101	76.8
383.311	19.46
383.521	58.37
383.731	23.55
383.941	-1.02
384.151	52.22
384.361	48.13
384.571	58.37
384.781	60.42
384.991	37.89
385.201	56.32
385.411	82.94
385.621	39.94
385.831	72.7
386.041	48.13
386.251	21.5
386.461	109.57
386.671	7.17
386.881	101.37
387.091	99.33
387.301	84.99
387.511	-23.55
387.72	97.28
387.93	80.89
388.14	-15.36
388.35	-9.22
388.56	7.17
388.769	31.74
388.979	44.03
389.189	52.22
389.399	72.7
389.609	72.7
389.818	109.57
390.028	41.98
390.238	64.51
390.447	76.8
390.657	113.66
390.867	-1.02
391.076	62.46
391.286	39.94
391.496	64.51
391.705	19.46
391.915	39.94
392.125	31.74
392.334	113.66
392.544	87.04
392.753	60.42
392.963	130.05
393.172	44.03
393.382	60.42
393.591	64.51
393.801	35.84
394.01	99.33
394.22	121.85
394.429	35.84
394.639	91.13
394.848	91.13
395.058	66.56
395.267	82.94
395.477	74.75
395.686	107.52
395.895	134.14
396.105	97.28
396.314	68.61
396.524	31.74
396.733	91.13
396.942	101.37
397.152	130.05
397.361	89.09
397.57	48.13
397.78	64.51
397.989	52.22
398.198	115.71
398.407	13.31
398.617	140.29
398.826	11.26
399.035	82.94
399.244	31.74
399.453	158.72
399.663	27.65
399.872	93.18
400.081	39.94
400.29	156.67
400.499	21.5
400.708	121.85
400.917	48.13
401.127	146.43
401.336	66.56
401.545	76.8
401.754	128
401.963	146.43
402.172	25.6
402.381	56.32
402.59	121.85
402.799	109.57
403.008	80.89
403.217	113.66
403.426	158.72
403.635	99.33
403.844	68.61
404.053	56.32
404.262	87.04
404.471	166.91
404.68	154.62
404.888	99.33
405.097	72.7
405.306	117.76
405.515	173.05
405.724	84.99
405.933	173.05
406.142	181.25
406.35	173.05
406.559	130.05
406.768	35.84
406.977	111.61
407.185	99.33
407.394	177.15
407.603	105.47
407.812	166.91
408.02	193.53
408.229	138.24
408.438	140.29
408.646	158.72
408.855	156.67
409.064	214.01
409.272	142.33
409.481	271.36
409.69	195.58
409.898	207.87
410.107	181.25
410.315	211.96
410.524	187.39
410.733	195.58
410.941	297.98
411.15	250.88
411.358	269.31
411.567	254.97
411.775	242.68
411.984	328.7
412.192	398.33
412.401	359.42
412.609	353.27
412.818	361.47
413.026	396.28
413.234	457.72
413.443	416.76
413.651	400.38
413.86	465.91
414.068	441.34
414.276	398.33
414.485	525.3
414.693	492.54
414.901	543.74
415.11	574.46
415.318	556.02
415.526	539.64
415.734	529.4
415.943	599.03
416.151	578.55
416.359	576.5
416.567	629.75
416.776	685.05
416.984	691.19
417.192	777.2
417.4	717.81
417.608	750.58
417.817	740.34
418.025	805.88
418.233	844.79
418.441	764.92
418.649	855.03
418.857	908.27
419.065	908.27
419.273	885.75
419.481	1072.11
419.689	1014.77
419.897	1119.21
420.105	1123.31
420.313	1197.04
420.521	1141.74
420.729	1184.75
420.937	1203.18
421.145	1315.82
421.353	1315.82
421.561	1467.37
421.769	1393.64
421.977	1514.47
422.185	1493.99
422.393	1604.58
422.601	1694.69
422.809	1614.82
423.017	1661.93
423.224	1778.66
423.432	1790.95
423.64	1833.96
423.848	1883.11
424.056	1858.53
424.263	1981.41
424.471	2014.18
424.679	2151.39
424.887	2085.86
425.094	2229.21
425.302	2151.39
425.51	2276.32
425.718	2417.63
425.925	2464.73
426.133	2546.65
426.341	2628.57
426.548	2851.8
426.756	2716.63
426.964	2921.43
427.171	2943.96
427.379	2919.38
427.586	3103.7
427.794	3144.66
428.001	3359.69
428.209	3468.24
428.417	3414.99
428.624	3652.55
428.832	3627.98
429.039	3603.4
429.247	3724.23
429.454	4103.11
429.662	4271.04
429.869	3982.28
430.076	4189.12
430.284	4225.98
430.491	4455.36
430.699	4752.31
430.906	4557.75
431.114	4774.84
431.321	4791.22
431.528	4983.73
431.736	5260.21
431.943	5391.28
432.15	5413.81
432.358	5493.68
432.565	5634.99
432.772	5577.64
432.979	5970.85
433.187	6239.14
433.394	6046.63
433.601	6515.61
433.808	6431.65
434.016	6462.37
434.223	6751.13
434.43	7207.83
434.637	6908.82
434.844	7490.45
435.052	7670.67
435.259	7469.97
435.466	7568.27
435.673	7379.86
435.88	7924.62
436.087	8291.2
436.294	8334.21
436.501	8246.15
436.708	8364.93
436.915	8704.89
437.122	8944.5
437.329	9012.09
437.537	9263.99
437.743	9519.98
437.95	9415.54
438.157	9945.96
438.364	10158.95
438.571	10265.44
438.778	10361.7
438.985	11344.72
439.192	10836.83
439.399	11004.76
439.606	10838.87
439.813	11352.91
440.02	12174.15
440.227	12002.12
440.433	11907.91
440.64	12143.43
440.847	12104.52
441.054	12417.86
441.261	13355.83
441.467	13163.32
441.674	13527.86
441.881	13798.19
442.088	13642.54
442.294	13527.86
442.501	14043.95
442.708	14461.73
442.914	14758.69
443.121	15483.67
443.328	14900
443.534	16091.91
443.741	15522.58
443.948	15379.22
444.154	16399.11
444.361	16646.91
444.568	16642.82
444.774	16390.92
444.981	16794.37
445.187	16997.12
445.394	18064.11
445.6	17492.73
445.807	19458.78
446.013	18334.44
446.22	18756.32
446.426	19641.04
446.633	19946.19
446.839	20406.98
447.046	19432.15
447.252	20980.42
447.459	20708.04
447.665	20546.25
447.871	21467.83
448.078	22452.91
448.284	21506.74
448.491	21996.21
448.697	23009.95
448.903	23206.56
449.11	23335.58
449.316	23065.25
449.522	23485.08
449.728	23982.74
449.935	24124.05
450.141	23970.45
450.347	24650.38
450.553	24154.77
450.76	24355.47
450.966	25008.77
451.172	24771.21
451.378	25674.36
451.584	25016.96
451.791	25680.5
451.997	25850.49
452.203	25922.16
452.409	25944.69
452.615	25787
452.821	24846.98
453.027	24722.05
453.233	25997.94
453.44	24863.36
453.646	25295.49
453.852	25490.04
454.058	25752.18
454.264	25057.92
454.47	25752.18
454.676	25090.69
454.882	25934.45
455.088	23480.99
455.294	23839.38
455.5	24386.19
455.705	24826.5
455.911	23585.43
456.117	23231.13
456.323	22745.76
456.529	21689.01
456.735	22545.06
456.941	21842.61
457.147	21652.15
457.352	21121.73
457.558	20914.88
457.764	20794.05
457.97	20458.18
458.176	19917.52
458.381	20075.21
458.587	19106.52
458.793	19055.33
458.999	18246.38
459.204	19595.99
459.41	18852.58
459.616	17687.28
459.821	17746.67
460.027	17396.47
460.233	17490.68
460.438	16460.55
460.644	16950.01
460.85	15981.32
461.055	15907.6
461.261	15778.58
461.466	14428.96
461.672	13753.13
461.878	15170.33
462.083	14043.95
462.289	13589.3
462.494	13814.57
462.7	12938.04
462.905	12614.46
463.111	13304.63
463.316	13155.13
463.522	13001.53
463.727	12921.66
463.932	12753.73
464.138	12720.96
464.343	12794.68
464.549	12305.22
464.754	12829.5
464.959	12481.35
465.165	12481.35
465.37	12176.2
465.575	11823.95
465.781	12229.45
465.986	12276.55
466.191	12002.12
466.397	11537.23
466.602	11086.68
466.807	11588.43
467.012	11322.2
467.218	11451.22
467.423	11277.14
467.628	11389.78
467.833	12024.65
468.038	11197.27
468.244	10994.52
468.449	11504.46
468.654	11090.77
468.859	11002.71
469.064	10994.52
469.269	10492.77
469.474	10660.7
469.679	10847.07
469.885	10337.12
470.09	10634.08
470.295	10382.18
470.5	10408.8
470.705	10333.03
470.91	10034.02
471.115	10054.5
471.32	10234.72
471.525	10275.68
471.73	9931.62
471.935	9913.19
472.139	9554.8
472.344	9608.05
472.549	9661.29
472.754	9569.13
472.959	9296.75
473.164	9044.85
473.369	8807.29
473.574	9384.82
473.778	9315.19
473.983	9132.92
474.188	9065.33
474.393	8694.65
474.598	8776.57
474.802	8661.88
475.007	8686.46
475.212	8737.66
475.417	8240
475.621	8442.75
475.826	8256.39
476.031	8442.75
476.235	7924.62
476.44	8121.22
476.645	7840.65
476.849	7994.25
477.054	7895.94
477.259	7818.12
477.463	7771.02
477.668	7510.93
477.872	7908.23
478.077	7545.74
478.282	7125.91
478.486	7498.64
478.691	7377.81
478.895	7252.88
479.1	7113.62
479.304	7267.22
479.509	6998.93
479.713	7095.19
479.918	6865.82
480.122	6906.77
480.326	7068.56
480.531	6976.41
480.735	6751.13
480.94	6828.95
481.144	7117.72
481.348	6773.66
481.553	6783.9
481.757	6675.35
481.961	6673.31
482.166	6769.56
482.37	6730.65
482.574	6521.76
482.778	6585.24
482.983	6759.32
483.187	6742.94
483.391	6759.32
483.595	6511.52
483.8	6493.08
484.004	6732.7
484.208	6724.51
484.412	6628.25
484.616	6658.97
484.821	6736.79
485.025	6796.18
485.229	6675.35
485.433	6626.2
485.637	6701.98
485.841	6564.76
486.045	6644.63
486.249	6695.83
486.453	6468.51
486.657	6595.48
486.861	6665.11
487.065	6626.2
487.269	6511.52
487.473	6646.68
487.677	6615.96
487.881	6738.84
488.085	6634.39
488.289	6724.51
488.493	6482.85
488.697	6650.78
488.901	6501.28
489.105	6650.78
489.309	6730.65
489.512	6790.04
489.716	6740.89
489.92	6769.56
490.124	6781.85
490.328	6882.2
490.531	6671.26
490.735	6687.64
490.939	6704.03
491.143	6708.12
491.346	6742.94
491.55	6888.34
491.754	6978.45
491.958	6919.06
492.161	6998.93
492.365	6867.86
492.569	6912.92
492.772	7019.41
492.976	7076.76
493.18	7089.04
493.383	7179.15
493.587	7213.97
493.79	7142.29
493.994	7138.2
494.197	7367.57
494.401	7218.07
494.605	7361.42
494.808	7568.27
495.012	7437.2
495.215	7449.49
495.419	7660.43
495.622	7490.45
495.825	7678.86
496.029	7760.78
496.232	7910.28
496.436	7680.91
496.639	7953.29
496.843	7859.08
497.046	8123.27
497.249	8090.5
497.453	8317.83
497.656	8307.59
497.859	8266.63
498.063	8360.83
498.266	8569.73
498.469	8579.97
498.673	8526.72
498.876	8504.19
499.079	8860.54
499.282	8670.08
499.485	8977.27
499.689	9063.29
499.892	9077.62
500.095	9151.35
500.298	9419.63
500.501	9223.03
500.705	9692.01
500.908	9597.81
501.111	9784.17
501.314	9872.23
501.517	9870.19
501.72	10134.37
501.923	10044.26
502.126	10277.73
502.329	10451.81
502.532	10404.71
502.735	10617.69
502.938	10742.62
503.141	10627.93
503.344	10920.79
503.547	11039.58
503.75	11049.82
503.953	11291.48
504.156	11436.88
504.359	11338.58
504.562	11625.29
504.765	11760.46
504.968	11692.88
505.17	11830.09
505.373	12032.84
505.576	12211.01
505.779	12413.76
505.982	12192.58
506.185	12833.6
506.387	12714.81
506.59	12802.88
506.793	13241.14
506.996	12935.99
507.198	13144.89
507.401	13509.43
507.604	13611.82
507.807	13572.91
508.009	13966.12
508.212	13914.92
508.415	14265.13
508.617	14238.5
508.82	14273.32
509.022	14322.47
509.225	14734.11
509.428	14639.9
509.63	14945.05
509.833	14777.12
510.035	15368.98
510.238	15262.49
510.44	15387.41
510.643	15772.43
510.845	16038.67
511.048	15629.07
511.25	15979.28
511.453	16194.31
511.655	16536.32
511.858	16411.4
512.06	16530.18
512.262	16997.12
512.465	16849.66
512.667	17169.15
512.87	17269.5
513.072	17332.98
513.274	17279.74
513.477	17922.8
513.679	17814.26
513.881	18064.11
514.084	18334.44
514.286	18186.99
514.488	18326.25
514.69	18987.74
514.893	18815.71
515.095	19180.25
515.297	19170.01
515.499	19319.51
515.701	19446.49
515.904	19438.3
516.106	19800.79
516.308	20056.78
516.51	20255.43
516.712	20263.63
516.914	20466.38
517.116	21037.76
517.318	20822.72
517.52	21277.37
517.722	21101.25
517.925	21482.17
518.127	21838.51
518.329	21932.72
518.531	21830.32
518.733	22170.29
518.935	22258.35
519.136	22420.14
519.338	22653.61
519.54	22772.39
519.742	22725.29
519.944	23001.76
520.146	23726.74
520.348	23382.68
520.55	23605.91
520.752	23679.64
520.954	24023.7
521.155	24013.46
521.357	24378
521.559	24480.39
521.761	24965.76
521.963	24586.89
522.164	24906.37
522.366	25191.04
522.568	25305.73
522.77	25498.23
522.971	25815.67
523.173	25434.75
523.375	25934.45
523.576	25932.4
523.778	26045.04
523.98	26434.16
524.181	26665.58
524.383	26489.45
524.584	26886.76
524.786	27304.54
524.988	26940
525.189	27206.24
525.391	27363.93
525.592	27552.35
525.794	27445.85
525.995	27601.5
526.197	27650.65
526.398	27699.8
526.6	28271.18
526.801	28250.7
527.003	28283.47
527.204	28093.01
527.406	28580.43
527.607	28281.42
527.808	28527.18
528.01	28504.65
528.211	28635.72
528.412	29053.51
528.614	28908.1
528.815	29010.5
529.016	28850.76
529.218	28688.97
529.419	29411.9
529.62	29196.87
529.822	29512.25
530.023	29117
530.224	29127.24
530.425	29436.48
530.626	29133.38
530.828	29037.12
531.029	29446.72
531.23	29561.4
531.431	29190.72
531.632	29450.81
531.833	29868.6
532.035	29651.52
532.236	29770.3
532.437	30057.01
532.638	29547.07
532.839	29874.74
533.04	29764.15
533.241	29805.11
533.442	30337.59
533.643	29985.33
533.844	29811.26
534.045	29964.85
534.246	29786.68
534.447	30159.41
534.648	29989.43
534.849	29944.38
535.05	30233.14
535.251	29946.42
535.451	30069.3
535.652	30183.99
535.853	30173.75
536.054	30179.89
536.255	30347.82
536.456	29870.65
536.657	30323.25
536.857	29686.33
537.058	29973.05
537.259	30517.81
537.46	30188.08
537.66	29944.38
537.861	30239.28
538.062	29700.67
538.263	29932.09
538.463	29698.62
538.664	29897.27
538.865	30085.68
539.065	30167.6
539.266	29721.15
539.466	30247.47
539.667	29940.28
539.868	30284.34
540.068	30339.63
540.269	29807.16
540.469	29930.04
540.67	29739.58
540.87	29948.47
541.071	29872.7
541.271	29876.79
541.472	29825.59
541.672	30093.88
541.873	29608.51
542.073	29610.56
542.274	29952.57
542.474	29876.79
542.675	29721.15
542.875	30202.42
543.075	29833.78
543.276	29620.8
543.476	29981.24
543.676	29618.75
543.877	29876.79
544.077	29917.75
544.277	29784.63
544.478	29792.83
544.678	29909.56
544.878	29911.61
545.078	29612.6
545.279	29682.24
545.479	29643.32
545.679	29678.14
545.879	29680.19
546.079	29575.74
546.28	29821.5
546.48	29530.69
546.68	29973.05
546.88	29733.43
547.08	30069.3
547.28	29753.91
547.48	29354.56
547.68	29708.86
547.88	29807.16
548.081	29880.89
548.281	29829.69
548.481	29614.65
548.681	29874.74
548.881	29688.38
549.081	29665.85
549.28	29495.87
549.48	29905.46
549.68	29364.8
549.88	30007.86
550.08	29409.86
550.28	29678.14
550.48	29246.02
550.68	29585.98
550.88	29430.33
551.08	29372.99
551.279	29237.83
551.479	29473.34
551.679	29596.22
551.879	29338.18
552.079	29962.81
552.278	29403.71
552.478	29139.52
552.678	29299.26
552.878	29385.28
553.077	29299.26
553.277	29119.04
553.477	29622.84
553.676	29614.65
553.876	29225.54
554.076	29268.55
554.275	29203.01
554.475	29141.57
554.674	29502.01
554.874	29272.64
555.074	29059.65
555.273	29305.41
555.473	29553.21
555.672	28774.98
555.872	29276.74
556.071	29047.36
556.271	29239.87
556.47	28949.06
556.67	28691.02
556.869	28932.68
557.068	28885.58
557.268	28428.88
557.467	28985.93
557.667	28901.96
557.866	28869.19
558.065	28777.03
558.265	28709.45
558.464	28598.86
558.663	29241.92
558.863	28473.93
559.062	28916.29
559.261	28453.45
559.461	29151.81
559.66	28467.79
559.859	28404.3
560.058	28219.99
560.258	28250.7
560.457	28246.61
560.656	28510.8
560.855	28176.98
561.054	28559.95
561.253	27832.92
561.453	28088.92
561.652	28219.99
561.851	28553.8
562.05	28056.15
562.249	27781.72
562.448	27914.84
562.647	28480.08
562.846	27619.93
563.045	28070.48
563.244	27726.42
563.443	28125.78
563.642	27634.27
563.841	27816.54
564.04	27646.55
564.239	27986.52
564.438	27177.57
564.637	27603.55
564.836	27861.59
565.035	27204.19
565.234	27449.95
565.432	27077.22
565.631	27216.48
565.83	27320.93
566.029	27142.75
566.228	27171.43
566.427	27177.57
566.625	27124.32
566.824	26374.77
567.023	26964.58
567.222	26624.62
567.42	26849.89
567.619	26851.94
567.818	26794.6
568.016	26710.63
568.215	26798.7
568.414	26475.12
568.612	26743.4
568.811	26405.49
569.01	26491.5
569.208	25967.22
569.407	26186.35
569.605	26188.4
569.804	26319.47
570.002	25985.65
570.201	25948.79
570.4	25948.79
570.598	25989.75
570.797	25793.14
570.995	25903.73
571.193	25502.33
571.392	25985.65
571.59	25608.83
571.789	25805.43
571.987	25483.9
572.186	25660.02
572.384	25619.07
572.582	25479.8
572.781	25406.08
572.979	25272.96
573.177	25455.23
573.376	25467.52
573.574	24871.56
573.772	25197.18
573.971	24818.31
574.169	24937.09
574.367	24601.22
574.565	24984.19
574.763	24629.9
574.962	24619.66
575.16	24697.48
575.358	24519.31
575.556	24472.2
575.754	24619.66
575.952	24197.77
576.151	24289.93
576.349	24060.56
576.547	24246.93
576.745	24318.6
576.943	24201.87
577.141	23933.59
577.339	23980.69
577.537	24078.99
577.735	23962.26
577.933	23843.48
578.131	23661.21
578.329	23460.51
578.527	23480.99
578.725	23546.52
578.923	23526.04
579.121	23642.78
579.319	23558.81
579.516	23407.26
579.714	23222.94
579.912	23376.54
580.11	23245.47
580.308	23304.86
580.506	23048.86
580.704	22713
580.901	23300.76
581.099	22950.56
581.297	22698.66
581.495	22553.26
581.692	22758.05
581.89	22485.67
582.088	22882.98
582.285	22504.1
582.483	22758.05
582.681	22334.12
582.878	22145.71
583.076	22178.48
583.274	22612.65
583.471	22090.41
583.669	22256.3
583.866	22100.65
584.064	22215.34
584.262	22031.02
584.459	22020.78
584.657	21803.7
584.854	22500.01
585.052	21629.62
585.249	21793.46
585.447	21594.81
585.644	21404.35
585.841	21408.44
586.039	21877.43
586.236	21273.28
586.434	21467.83
586.631	21371.58
586.828	21187.26
587.026	21312.19
587.223	21377.72
587.42	21406.39
587.618	21246.65
587.815	20863.68
588.012	20716.23
588.21	20785.86
588.407	21170.88
588.604	20802.24
588.801	20689.6
588.999	20730.56
589.196	20705.99
589.393	20685.51
589.59	20798.15
589.787	20441.8
589.984	20286.15
590.182	20228.81
590.379	20331.21
590.576	20128.46
590.773	20269.77
590.97	20343.5
591.167	20181.71
591.364	19860.18
591.561	20445.9
591.758	20019.92
591.955	19741.39
592.152	19976.91
592.349	19765.97
592.546	19565.27
592.743	19821.27
592.94	19331.8
593.137	19516.12
593.334	19552.98
593.531	19430.1
593.727	19688.15
593.924	19602.13
594.121	19268.31
594.318	19159.77
594.515	19071.71
594.712	19253.98
594.908	19032.8
595.105	19075.8
595.302	18889.44
595.499	19057.37
595.696	18735.84
595.892	18875.1
596.089	19061.47
596.286	18823.9
596.482	18600.68
596.679	18625.25
596.876	18653.92
597.072	18369.26
597.269	18518.76
597.466	18318.06
597.662	18385.64
597.859	18152.17
598.055	18273
598.252	18238.19
598.448	18088.68
598.645	18139.88
598.841	17859.31
599.038	18447.08
599.234	17939.18
599.431	17855.22
599.627	17816.3
599.824	17941.23
600.02	17562.36
600.217	17711.86
600.413	17484.53
600.609	17445.62
600.806	17445.62
601.002	17365.75
601.198	17271.54
601.395	17107.71
601.591	17261.3
601.787	17085.18
601.984	17070.84
602.18	17406.71
602.376	16950.01
602.572	17066.75
602.769	17058.56
602.965	16777.98
603.161	16952.06
603.357	16966.4
603.553	16923.39
603.75	16802.56
603.946	16546.56
604.142	17042.17
604.338	16405.25
604.534	16546.56
604.73	16216.84
604.926	16464.64
605.122	16478.98
605.318	16139.02
605.514	16376.58
605.71	16075.53
605.906	16122.63
606.102	16309
606.298	16483.08
606.494	16472.84
606.69	16106.25
606.886	16188.17
607.082	15842.06
607.278	15960.84
607.474	15764.24
607.67	15864.59
607.866	15563.54
608.062	15815.44
608.257	15780.62
608.453	15618.83
608.649	15909.65
608.845	15522.58
609.041	15704.85
609.236	15450.9
609.432	15604.5
609.628	15567.63
609.824	15252.25
610.019	15315.73
610.215	15588.11
610.411	15545.11
610.606	15256.34
610.802	15379.22
610.998	15164.18
611.193	15299.35
611.389	15223.58
611.584	15147.8
611.78	15022.87
611.976	15409.94
612.171	15285.01
612.367	15264.54
612.562	15004.44
612.758	14877.47
612.953	14904.09
613.149	15076.12
613.344	15049.5
613.539	15287.06
613.735	14775.07
613.93	14801.69
614.126	14748.45
614.321	15100.7
614.517	14875.42
614.712	14738.21
614.907	14822.17
615.103	14725.92
615.298	14832.41
615.493	14838.56
615.688	14680.86
615.884	14920.48
616.079	14449.44
616.274	14580.51
616.47	14408.48
616.665	14431.01
616.86	14400.29
617.055	14482.21
617.25	14412.58
617.445	14639.9
617.641	14283.56
617.836	14256.93
618.031	14342.95
618.226	14539.55
618.421	14154.54
618.616	14222.12
618.811	14015.27
619.006	14019.37
619.201	13706.03
619.396	14041.9
619.591	13720.37
619.786	13824.81
619.981	13818.67
620.176	13794.09
620.371	13638.45
620.566	13800.24
620.761	13534
620.956	13622.06
621.151	13378.36
621.346	13417.27
621.541	13353.78
621.735	13278.01
621.93	13015.87
622.125	13292.34
622.32	13056.82
622.515	12892.99
622.709	13026.11
622.904	12944.19
623.099	12884.8
623.294	12999.48
623.488	12559.17
623.683	12815.16
623.878	12467.01
624.072	12651.33
624.267	12593.98
624.462	12366.66
624.656	12268.36
624.851	12587.84
625.046	12387.14
625.24	12188.49
625.435	12067.66
625.629	12051.27
625.824	11811.66
626.018	11750.22
626.213	11563.86
626.407	11934.54
626.602	11455.31
626.796	11623.25
626.991	11557.71
627.185	11600.72
627.38	11492.18
627.574	11389.78
627.768	11307.86
627.963	11324.24
628.157	11154.26
628.352	11238.23
628.546	11047.77
628.74	11275.09
628.935	11049.82
629.129	11064.15
629.323	10759
629.517	10726.24
629.712	10744.67
629.906	10744.67
630.1	10443.62
630.294	10623.84
630.489	10550.11
630.683	10607.45
630.877	10337.12
631.071	10353.51
631.265	10343.27
631.459	10503.01
631.653	10230.63
631.848	10134.37
632.042	9988.97
632.236	10206.05
632.43	9888.62
632.624	10064.74
632.818	9927.53
633.012	9833.32
633.206	9724.78
633.4	9841.51
633.594	9530.22
633.788	9945.96
633.982	9620.33
634.176	9534.32
634.369	9460.59
634.563	9309.04
634.757	9337.71
634.951	9378.67
635.145	9270.13
635.339	9485.17
635.533	9145.2
635.726	9149.3
635.92	9087.86
636.114	9100.15
636.308	8954.74
636.501	8764.28
636.695	8997.75
636.889	8780.67
637.083	8926.07
637.276	8698.75
637.47	8862.58
637.664	8842.11
637.857	8649.6
638.051	8506.24
638.244	8485.76
638.438	8754.04
638.632	8387.46
638.825	8416.13
639.019	8168.32
639.212	8256.39
639.406	8469.37
639.599	8313.73
639.793	8178.56
639.986	8139.65
640.18	8254.34
640.373	8182.66
640.567	8022.92
640.76	7928.71
640.954	8020.87
641.147	7945.09
641.34	7719.82
641.534	7936.9
641.727	7850.89
641.92	7932.81
642.114	7926.66
642.307	7752.59
642.5	7723.91
642.694	7547.79
642.887	7490.45
643.08	7576.46
643.273	7502.73
643.467	7463.82
643.66	7320.46
643.853	7392.14
644.046	7314.32
644.239	7226.26
644.432	7316.37
644.626	7148.43
644.819	7273.36
645.012	7173.01
645.205	7146.39
645.398	7158.67
645.591	6921.11
645.784	7113.62
645.977	6900.63
646.17	7089.04
646.363	6845.34
646.556	6732.7
646.749	6923.16
646.942	6724.51
647.135	6835.1
647.328	6851.48
647.521	6794.14
647.714	6593.44
647.907	6681.5
648.099	6642.59
648.292	6552.48
648.485	6761.37
648.678	6400.93
648.871	6609.82
649.064	6220.71
649.256	6288.29
649.449	6441.89
649.642	6259.62
649.835	6327.2
650.027	6052.77
650.22	6169.51
650.413	6151.07
650.605	6146.98
650.798	6218.66
650.991	5948.33
651.183	6003.62
651.376	6106.02
651.568	6142.88
651.761	5981.09
651.954	5921.7
652.146	5999.52
652.339	5968.8
652.531	5821.35
652.724	5761.96
652.916	5634.99
653.109	5692.33
653.301	5637.03
653.494	5630.89
653.686	5651.37
653.879	5630.89
654.071	5872.55
654.263	5444.52
654.456	5643.18
654.648	5665.71
654.84	5460.91
655.033	5520.3
655.225	5530.54
655.417	5491.63
655.61	5534.64
655.802	5274.54
655.994	5397.42
656.186	5266.35
656.379	5241.78
656.571	5323.69
656.763	5319.6
656.955	5067.7
657.148	5239.73
657.34	5145.52
657.532	4918.2
657.724	5170.1
657.916	5110.71
658.108	5153.71
658.3	5026.74
658.492	4940.72
658.684	4901.81
658.876	4926.39
659.068	4924.34
659.26	4918.2
659.452	4881.33
659.644	4922.29
659.836	4914.1
660.028	4803.51
660.22	4590.52
660.412	4893.62
660.604	4793.27
660.796	4733.88
660.988	4651.96
661.18	4594.62
661.372	4619.19
661.563	4651.96
661.755	4551.61
661.947	4541.37
662.139	4508.6
662.331	4533.18
662.522	4514.75
662.714	4383.68
662.906	4324.29
663.097	4422.59
663.289	4275.13
663.481	4348.86
663.673	4355.01
663.864	4406.2
664.056	4422.59
664.247	4352.96
664.439	4217.79
664.631	4236.22
664.822	4316.09
665.014	4285.37
665.205	4225.98
665.397	4099.01
665.588	4221.89
665.78	4031.43
665.971	4137.92
666.163	4121.54
666.354	4172.74
666.546	4174.78
666.737	3929.03
666.929	4072.39
667.12	4008.9
667.311	3957.7
667.503	3922.88
667.694	4004.8
667.885	3986.37
668.077	3943.36
668.268	3828.68
668.459	3924.93
668.651	3945.41
668.842	3865.54
669.033	3824.58
669.224	3906.5
669.416	3906.5
669.607	3906.5
669.798	3718.09
669.989	3761.09
670.18	3808.2
670.371	3705.8
670.563	3601.35
670.754	3978.18
670.945	3816.39
671.136	3613.64
671.327	3695.56
671.518	3808.2
671.709	3658.7
671.9	3554.25
672.091	3695.56
672.282	3556.3
672.473	3660.74
672.664	3654.6
672.855	3517.39
673.046	3474.38
673.237	3644.36
673.428	3556.3
673.619	3531.72
673.809	3488.71
674	3525.58
674.191	3572.68
674.382	3503.05
674.573	3488.71
674.764	3546.06
674.954	3476.43
675.145	3359.69
675.336	3435.47
675.527	3480.52
675.717	3361.74
675.908	3445.71
676.099	3369.93
676.289	3380.17
676.48	3390.41
676.671	3468.24
676.861	3490.76
677.052	3304.4
677.243	3306.45
677.433	3455.95
677.624	3314.64
677.814	3369.93
678.005	3261.39
678.195	3308.49
678.386	3228.62
678.576	3382.22
678.767	3355.6
678.957	3343.31
679.148	3242.96
679.338	3288.01
679.529	3431.37
679.719	3263.44
679.909	3214.29
680.1	3273.68
680.29	3238.86
680.481	3306.45
680.671	3232.72
680.861	3122.13
681.052	3189.71
681.242	3101.65
681.432	3212.24
681.622	3136.46
681.813	3187.66
682.003	2989.01
682.193	3081.17
682.383	3259.34
682.573	3122.13
682.764	3185.62
682.954	3042.26
683.144	3165.14
683.334	3115.98
683.524	3093.46
683.714	3105.74
683.904	3122.13
684.094	3064.79
684.284	3115.98
684.474	3070.93
684.664	3029.97
684.854	3056.59
685.044	3036.11
685.234	2950.1
685.424	2943.96
685.614	2976.72
685.804	2962.39
685.994	2845.65
686.184	2931.67
686.374	3079.12
686.564	2829.27
686.753	2958.29
686.943	2927.57
687.133	2939.86
687.323	2884.56
687.513	3054.55
687.702	2882.52
687.892	2958.29
688.082	2814.93
688.272	2780.12
688.461	2972.63
688.651	2849.75
688.841	2778.07
689.03	2745.3
689.22	2939.86
689.41	2808.79
689.599	2702.29
689.789	2763.73
689.979	2677.72
690.168	2776.02
690.358	2726.87
690.547	2595.8
690.737	2622.42
690.926	2720.73
691.116	2620.38
691.305	2694.1
691.495	2647
691.684	2593.75
691.874	2638.81
692.063	2665.43
692.252	2677.72
692.442	2552.79
692.631	2517.98
692.82	2567.13
693.01	2505.69
693.199	2569.18
693.388	2513.88
693.578	2497.5
693.767	2479.07
693.956	2540.51
694.146	2378.72
694.335	2468.83
694.524	2452.44
694.713	2538.46
694.902	2415.58
695.092	2434.01
695.281	2382.81
695.47	2421.72
695.659	2419.68
695.848	2497.5
696.037	2317.28
696.226	2354.14
696.415	2358.24
696.604	2391
696.793	2415.58
696.982	2276.32
697.171	2395.1
697.36	2388.96
697.549	2409.44
697.738	2286.56
697.927	2268.13
698.116	2399.2
698.305	2374.62
698.494	2391
698.683	2221.02
698.872	2399.2
699.061	2259.93
699.25	2237.41
699.438	2325.47
699.627	2253.79
699.816	2317.28
700.005	2235.36
700.193	2286.56
700.382	2268.13
700.571	2327.52
700.76	2319.32
700.948	2399.2
701.137	2294.75
701.326	2290.65
701.514	2180.06
701.703	2227.17
701.892	2196.45
702.08	2114.53
702.269	2337.76
702.457	2235.36
702.646	2214.88
702.834	2218.97
703.023	2266.08
703.212	2321.37
703.4	2190.3
703.589	2231.26
703.777	2210.78
703.965	2169.82
704.154	2116.58
704.342	2255.84
704.531	2276.32
704.719	2130.91
704.907	2202.59
705.096	2214.88
705.284	2223.07
705.472	2186.21
705.661	2157.54
705.849	2206.69
706.037	2198.49
706.226	2147.3
706.414	2051.04
706.602	2116.58
706.79	2063.33
706.979	2092
707.167	2245.6
707.355	2087.9
707.543	2122.72
707.731	2165.73
707.919	2038.75
708.107	2063.33
708.296	2083.81
708.484	2132.96
708.672	2190.3
708.86	2130.91
709.048	2106.34
709.236	2073.57
709.424	2180.06
709.612	2149.34
709.8	2145.25
709.988	2130.91
710.176	2100.19
710.364	2268.13
710.551	2139.1
710.739	2096.1
710.927	2198.49
711.115	2122.72
711.303	1993.7
711.491	2079.71
711.679	2096.1
711.866	2124.77
712.054	2120.67
712.242	2206.69
712.43	2077.66
712.617	2073.57
712.805	2044.9
712.993	2132.96
713.181	2071.52
713.368	2317.28
713.556	2112.48
713.744	2102.24
713.931	2194.4
714.119	2124.77
714.306	1952.74
714.494	1995.75
714.682	2120.67
714.869	2038.75
715.057	2116.58
715.244	1969.12
715.432	2046.94
715.619	2112.48
715.807	2130.91
715.994	2118.62
716.182	1983.46
716.369	2145.25
716.556	2092
716.744	2092
716.931	2112.48
717.119	2122.72
717.306	2130.91
717.493	2165.73
717.681	2104.29
717.868	2104.29
718.055	2149.34
718.242	2040.8
718.43	2163.68
718.617	2051.04
718.804	2124.77
718.991	2112.48
719.179	2071.52
719.366	2075.62
719.553	2065.38
719.74	2022.37
719.927	2063.33
720.114	2046.94
720.301	2098.14
720.488	2028.51
720.676	2104.29
720.863	2071.52
721.05	2018.27
721.237	1973.22
721.424	2055.14
721.611	2184.16
721.798	1981.41
721.985	2114.53
722.172	2071.52
722.358	1962.98
722.545	2055.14
722.732	1987.55
722.919	2161.63
723.106	2024.42
723.293	2124.77
723.48	2153.44
723.667	1995.75
723.853	2112.48
724.04	2083.81
724.227	2044.9
724.414	2046.94
724.6	2063.33
724.787	2083.81
724.974	2210.78
725.161	1948.64
725.347	2092
725.534	2106.34
725.72	2016.23
725.907	2100.19
726.094	2098.14
726.28	2032.61
726.467	1989.6
726.653	2077.66
726.84	2046.94
727.027	2073.57
727.213	2030.56
727.4	2071.52
727.586	2083.81
727.773	1987.55
727.959	2042.85
728.145	2071.52
728.332	2028.51
728.518	2065.38
728.705	2147.3
728.891	2001.89
729.077	1997.79
729.264	2081.76
729.45	2030.56
729.636	1973.22
729.823	2010.08
730.009	2022.37
730.195	1969.12
730.382	2096.1
730.568	1969.12
730.754	2030.56
730.94	2053.09
731.126	2106.34
731.313	2075.62
731.499	2028.51
731.685	2169.82
731.871	1956.83
732.057	2038.75
732.243	2069.47
732.429	2075.62
732.615	2071.52
732.801	2032.61
732.987	2110.43
733.173	2042.85
733.359	2048.99
733.545	1924.07
733.731	1913.83
733.917	1973.22
734.103	2098.14
734.289	1999.84
734.475	1952.74
734.661	2005.99
734.847	2003.94
735.033	2057.18
735.219	2098.14
735.404	2055.14
735.59	2096.1
735.776	1983.46
735.962	2106.34
736.148	2055.14
736.333	2114.53
736.519	1958.88
736.705	1997.79
736.89	1952.74
737.076	1987.55
737.262	1993.7
737.447	2141.15
737.633	1934.31
737.819	1946.59
738.004	2075.62
738.19	2018.27
738.375	1928.16
738.561	1907.68
738.747	1883.11
738.932	1962.98
739.118	1975.27
739.303	1983.46
739.489	1975.27
739.674	1965.03
739.859	1973.22
740.045	1981.41
740.23	1924.07
740.416	1887.2
740.601	1938.4
740.786	1911.78
740.972	1893.35
741.157	1946.59
741.342	1885.16
741.528	1885.16
741.713	1901.54
741.898	1883.11
742.084	1850.34
742.269	1919.97
742.454	1895.4
742.639	2026.47
742.824	1829.86
743.01	1850.34
743.195	1952.74
743.38	1692.65
743.565	1727.46
743.75	1786.85
743.935	1889.25
744.12	1928.16
744.305	1739.75
744.49	1733.61
744.675	1807.33
744.86	1819.62
745.045	1758.18
745.23	1817.57
745.415	1829.86
745.6	1663.97
745.785	1713.13
745.97	1694.69
746.155	1754.09
746.34	1733.61
746.525	1694.69
746.71	1633.26
746.895	1637.35
747.079	1752.04
747.264	1649.64
747.449	1674.21
747.634	1573.86
747.819	1649.64
748.003	1663.97
748.188	1637.35
748.373	1567.72
748.557	1580.01
748.742	1571.82
748.927	1616.87
749.111	1524.71
749.296	1623.02
749.481	1586.15
749.665	1514.47
749.85	1530.86
750.034	1661.93
750.219	1442.79
750.404	1469.42
750.588	1588.2
750.773	1436.65
750.957	1410.03
751.141	1387.5
751.326	1426.41
751.51	1389.55
751.695	1506.28
751.879	1432.55
752.064	1475.56
752.248	1446.89
752.432	1444.84
752.617	1465.32
752.801	1385.45
752.985	1324.01
753.17	1227.76
753.354	1305.58
753.538	1391.59
753.722	1328.11
753.907	1278.96
754.091	1287.15
754.275	1317.87
754.459	1268.72
754.643	1207.28
754.828	1219.57
755.012	1205.23
755.196	1170.41
755.38	1289.2
755.564	1182.7
755.748	1213.42
755.932	1260.52
756.116	1276.91
756.3	1289.2
756.484	1117.17
756.668	1264.62
756.852	1078.26
757.036	1158.13
757.22	1174.51
757.404	1065.97
757.588	1074.16
757.772	1031.15
757.956	1082.35
758.14	1102.83
758.323	1088.5
758.507	1022.96
758.691	1053.68
758.875	1117.17
759.059	1162.22
759.242	1065.97
759.426	1104.88
759.61	1035.25
759.794	1006.58
759.977	1096.69
760.161	1086.45
760.345	1084.4
760.528	1014.77
760.712	1106.93
760.895	1033.2
761.079	975.86
761.263	1006.58
761.446	998.38
761.63	881.65
761.813	1000.43
761.997	982
762.18	984.05
762.364	936.95
762.547	938.99
762.731	990.19
762.914	1022.96
763.098	941.04
763.281	961.52
763.464	967.67
763.648	910.32
763.831	928.75
764.015	900.08
764.198	934.9
764.381	904.18
764.564	930.8
764.748	838.64
764.931	943.09
765.114	902.13
765.297	873.46
765.481	902.13
765.664	883.7
765.847	789.49
766.03	863.22
766.213	895.99
766.397	852.98
766.58	844.79
766.763	777.2
766.946	904.18
767.129	836.6
767.312	789.49
767.495	801.78
767.678	818.16
767.861	814.07
768.044	803.83
768.227	832.5
768.41	832.5
768.593	818.16
768.776	826.36
768.959	773.11
769.142	697.33
769.324	805.88
769.507	760.82
769.69	801.78
769.873	779.25
770.056	809.97
770.239	721.91
770.421	869.36
770.604	650.23
770.787	736.24
770.97	719.86
771.152	732.15
771.335	748.53
771.518	787.44
771.7	760.82
771.883	814.07
772.066	705.53
772.248	687.09
772.431	752.63
772.613	787.44
772.796	711.67
772.978	664.57
773.161	773.11
773.343	726
773.526	656.37
773.708	687.09
773.891	676.85
774.073	687.09
774.256	637.94
774.438	707.57
774.621	662.52
774.803	732.15
774.985	646.13
775.168	646.13
775.35	666.61
775.532	639.99
775.715	658.42
775.897	623.61
776.079	623.61
776.261	654.33
776.444	556.02
776.626	617.46
776.808	631.8
776.99	564.22
777.173	613.37
777.355	605.17
777.537	625.65
777.719	609.27
777.901	590.84
778.083	558.07
778.265	523.26
778.447	515.06
778.629	545.78
778.811	576.5
778.993	523.26
779.175	596.98
779.357	564.22
779.539	523.26
779.721	564.22
779.903	541.69
780.085	418.81
780.267	558.07
780.449	556.02
780.631	490.49
780.812	568.31
780.994	416.76
781.176	508.92
781.358	449.53
781.54	465.91
781.721	480.25
781.903	566.26
782.085	506.87
782.267	457.72
782.448	400.38
782.63	406.52
782.812	486.39
782.993	461.82
783.175	443.39
783.357	449.53
783.538	461.82
783.72	394.23
783.901	375.8
784.083	451.58
784.264	379.9
784.446	437.24
784.627	365.56
784.809	416.76
784.99	351.23
785.172	351.23
785.353	443.39
785.535	418.81
785.716	383.99
785.897	410.62
786.079	441.34
786.26	343.03
786.441	459.77
786.623	373.75
786.804	394.23
786.985	476.15
787.167	402.43
787.348	330.75
787.529	422.91
787.71	437.24
787.891	353.27
788.073	390.14
788.254	287.74
788.435	334.84
788.616	367.61
788.797	314.36
788.978	308.22
789.159	353.27
789.34	285.69
789.522	261.12
789.703	295.93
789.884	291.84
790.065	361.47
790.246	291.84
790.427	252.92
790.607	322.56
790.788	357.37
790.969	244.73
791.15	308.22
791.331	226.3
791.512	297.98
791.693	279.55
791.874	306.17
792.054	330.75
792.235	361.47
792.416	193.53
792.597	263.16
792.778	320.51
792.958	320.51
793.139	218.11
793.32	277.5
793.5	211.96
793.681	228.35
793.862	326.65
794.042	269.31
794.223	224.25
794.404	277.5
794.584	199.68
794.765	287.74
794.945	197.63
795.126	310.27
795.306	306.17
795.487	263.16
795.667	248.83
795.848	244.73
796.028	300.03
796.209	232.44
796.389	252.92
796.57	252.92
796.75	181.25
796.93	257.02
797.111	195.58
797.291	257.02
797.471	199.68
797.652	248.83
797.832	160.77
798.012	238.59
798.192	220.16
798.373	179.2
798.553	220.16
798.733	277.5
798.913	203.77
799.093	246.78
799.274	279.55
799.454	197.63
799.634	261.12
799.814	310.27
799.994	279.55
800.174	314.36
800.354	166.91
800.534	123.9
800.714	244.73
800.894	216.06
801.074	130.05
801.254	205.82
801.434	197.63
801.614	238.59
801.794	228.35
801.974	769.01
802.154	181.25
802.334	197.63
802.514	158.72
802.693	134.14
802.873	191.49
803.053	173.05
803.233	197.63
803.413	185.34
803.592	107.52
803.772	109.57
803.952	197.63
804.131	142.33
804.311	230.4
804.491	203.77
804.67	189.44
804.85	236.54
805.03	197.63
805.209	191.49
805.389	224.25
805.568	105.47
805.748	181.25
805.928	216.06
806.107	166.91
806.287	173.05
806.466	138.24
806.646	99.33
806.825	125.95
807.004	138.24
807.184	164.86
807.363	199.68
807.543	191.49
807.722	148.48
807.901	179.2
808.081	183.29
808.26	78.85
808.439	171.01
808.619	195.58
808.798	181.25
808.977	220.16
809.156	181.25
809.336	220.16
809.515	181.25
809.694	105.47
809.873	175.1
810.052	134.14
810.231	197.63
810.411	166.91
810.59	189.44
810.769	187.39
810.948	175.1
811.127	173.05
811.306	199.68
811.485	121.85
811.664	125.95
811.843	183.29
812.022	158.72
812.201	150.53
812.38	146.43
812.559	160.77
812.737	144.38
812.916	70.65
813.095	68.61
813.274	173.05
813.453	144.38
813.632	105.47
813.811	156.67
813.989	52.22
814.168	191.49
814.347	134.14
814.526	113.66
814.704	171.01
814.883	195.58
815.062	105.47
815.24	128
815.419	103.42
815.598	56.32
815.776	109.57
815.955	171.01
816.133	56.32
816.312	197.63
816.49	175.1
816.669	160.77
816.847	60.42
817.026	168.96
817.204	138.24
817.383	140.29
817.561	50.18
817.74	62.46
817.918	138.24
818.097	99.33
818.275	68.61
818.453	144.38
818.632	91.13
818.81	48.13
818.988	74.75
819.167	152.57
819.345	105.47
819.523	80.89
819.701	58.37
819.879	121.85
820.058	101.37
820.236	56.32
820.414	130.05
820.592	72.7
820.77	64.51
820.948	99.33
821.127	48.13
821.305	125.95
821.483	105.47
821.661	130.05
821.839	101.37
822.017	97.28
822.195	97.28
822.373	80.89
822.551	66.56
822.729	44.03
822.907	41.98
823.085	146.43
823.262	89.09
823.44	97.28
823.618	-17.41
823.796	105.47
823.974	52.22
824.152	78.85
824.329	158.72
824.507	156.67
824.685	87.04
824.863	37.89
825.04	93.18
825.218	158.72
825.396	52.22
825.574	130.05
825.751	113.66
825.929	76.8
826.107	52.22
826.284	117.76
826.462	97.28
826.639	91.13
826.817	97.28
826.994	72.7
827.172	3.07
827.349	140.29
827.527	150.53
827.704	109.57
827.882	103.42
828.059	101.37
828.237	93.18
828.414	121.85
828.591	-7.17
828.769	31.74
828.946	64.51
829.124	68.61
829.301	138.24
829.478	103.42
829.655	60.42
829.833	78.85
830.01	82.94
830.187	140.29
830.364	134.14
830.542	109.57
830.719	62.46
830.896	99.33
831.073	62.46
831.25	121.85
831.427	113.66
831.604	78.85
831.782	19.46
831.959	105.47
832.136	87.04
832.313	82.94
832.49	99.33
832.667	144.38
832.844	25.6
833.021	17.41
833.198	44.03
833.374	72.7
833.551	23.55
833.728	60.42
833.905	76.8
834.082	89.09
834.259	87.04
834.436	50.18
834.612	11.26
834.789	80.89
834.966	41.98
835.143	150.53
835.319	119.81
835.496	84.99
835.673	66.56
835.85	148.48
836.026	132.09
836.203	72.7
836.38	37.89
836.556	132.09
836.733	7.17
836.909	123.9
837.086	9.22
837.262	80.89
837.439	105.47
837.616	101.37
837.792	11.26
837.968	39.94
838.145	58.37
838.321	56.32
838.498	13.31
838.674	89.09
838.851	-9.22
839.027	50.18
839.203	31.74
839.38	48.13
839.556	-1.02
839.732	50.18
839.909	19.46
840.085	93.18
840.261	80.89
840.437	35.84
840.614	-17.41
840.79	-5.12
840.966	78.85
841.142	84.99
841.318	21.5
841.494	64.51
841.671	91.13
841.847	91.13
842.023	-1.02
842.199	27.65
842.375	89.09
842.551	-5.12
842.727	13.31
842.903	140.29
843.079	87.04
843.255	64.51
843.431	50.18
843.607	41.98
843.783	-25.6
843.959	3.07
844.134	50.18
844.31	50.18
844.486	58.37
844.662	19.46
844.838	56.32
845.013	-23.55
845.189	72.7
845.365	84.99
845.541	72.7
845.716	-25.6
845.892	46.08
846.068	-33.79
846.244	5.12
846.419	97.28
846.595	23.55
846.77	27.65
846.946	13.31
847.122	15.36
847.297	25.6
847.473	17.41
847.648	-13.31
847.824	60.42
847.999	19.46
848.175	80.89
848.35	103.42
848.526	17.41
848.701	89.09
848.876	25.6
849.052	56.32
849.227	89.09
849.403	48.13
849.578	-62.46
849.753	19.46
849.929	-54.27
850.104	58.37
850.279	23.55
850.454	-3.07
850.63	70.65
850.805	58.37
850.98	72.7
851.155	27.65
851.33	19.46
851.505	15.36
851.681	31.74
851.856	31.74
852.031	97.28
852.206	84.99
852.381	78.85
852.556	7.17
852.731	62.46
852.906	-9.22
853.081	19.46
853.256	1.02
853.431	70.65
853.606	13.31
853.781	50.18
853.956	-33.79
854.131	93.18
854.305	-1.02
854.48	-62.46
854.655	-9.22
854.83	23.55
855.005	76.8
855.18	52.22
855.354	39.94
855.529	-9.22
855.704	27.65
855.879	91.13
856.053	15.36
856.228	-9.22
856.403	-50.18
856.577	39.94
856.752	-15.36
856.926	33.79
857.101	31.74
857.276	-3.07
857.45	-27.65
857.625	66.56
857.799	5.12
857.974	76.8
858.148	-7.17
858.323	7.17
858.497	37.89
858.672	-17.41
858.846	27.65
859.02	48.13
859.195	-5.12
859.369	15.36
859.543	19.46
859.718	-31.74
859.892	68.61
860.066	60.42
860.241	-9.22
860.415	48.13
860.589	-9.22
860.763	66.56
860.938	-7.17
861.112	-37.89
861.286	-39.94
861.46	60.42
861.634	-7.17
861.808	58.37
861.982	-33.79
862.157	48.13
862.331	7.17
862.505	-25.6
862.679	11.26
862.853	7.17
863.027	35.84
863.201	-7.17
863.375	46.08
863.549	48.13
863.722	82.94
863.896	140.29
864.07	82.94
864.244	39.94
864.418	48.13
864.592	74.75
864.766	-15.36
864.939	-41.98
865.113	17.41
865.287	72.7
865.461	-13.31
865.634	35.84
865.808	-39.94
865.982	-13.31
866.156	54.27
866.329	-25.6
866.503	52.22
866.676	66.56
866.85	74.75
867.024	15.36
867.197	-17.41
867.371	48.13
867.544	82.94
867.718	17.41
867.891	-9.22
868.065	-46.08
868.238	-1.02
868.412	33.79
868.585	64.51
868.759	-17.41
868.932	27.65
869.105	-39.94
869.279	-37.89
869.452	58.37
869.625	7.17
869.799	-9.22
869.972	-13.31
870.145	-9.22
870.319	39.94
870.492	17.41
870.665	-15.36
870.838	35.84
871.011	-50.18
871.185	1.02
871.358	60.42
871.531	-35.84
871.704	15.36
871.877	48.13
872.05	-41.98
872.223	-54.27
872.396	19.46
872.569	23.55
872.742	-21.5
872.915	134.14
873.088	29.7
873.261	-46.08
873.434	-25.6
873.607	-9.22
873.78	7.17
873.953	15.36
874.126	46.08
874.299	17.41
874.471	39.94
874.644	56.32
874.817	44.03
874.99	39.94
875.163	-3.07
875.335	35.84
875.508	44.03
875.681	56.32
875.853	21.5
876.026	-46.08
876.199	-11.26
876.371	-1.02
876.544	31.74
876.717	76.8
876.889	-64.51
877.062	-39.94
877.234	31.74
877.407	-9.22
877.579	-1.02
877.752	31.74
877.924	-17.41
878.097	56.32
878.269	-1.02
878.442	31.74
878.614	41.98
878.786	5.12
878.959	-52.22
879.131	-58.37
879.303	17.41
879.476	56.32
879.648	33.79
879.82	39.94
879.993	3.07
880.165	35.84
880.337	-56.32
880.509	15.36
880.681	9.22
880.854	-1.02
881.026	-15.36
881.198	82.94
881.37	39.94
881.542	-9.22
881.714	-25.6
881.886	-29.7
882.058	-29.7
882.23	25.6
882.402	-19.46
882.574	17.41
882.746	52.22
882.918	82.94
883.09	44.03
883.262	-5.12
883.434	17.41
883.606	-35.84
883.778	-19.46
883.95	39.94
884.122	13.31
884.293	23.55
884.465	-39.94
884.637	68.61
884.809	15.36
884.98	13.31
885.152	97.28
885.324	31.74
885.496	-15.36
885.667	-7.17
885.839	-23.55
886.011	-46.08
886.182	-13.31
886.354	-15.36
886.525	17.41
886.697	58.37
886.869	-37.89
887.04	56.32
887.212	80.89
887.383	60.42
887.555	15.36
887.726	19.46
887.897	-11.26
888.069	-48.13
888.24	-13.31
888.412	33.79
888.583	52.22
888.754	-3.07
888.926	-56.32
889.097	82.94
889.268	-60.42
889.44	56.32
889.611	-25.6
889.782	48.13
889.953	-13.31
890.125	37.89
890.296	-21.5
890.467	-56.32
890.638	-3.07
890.809	37.89
890.98	-25.6
891.151	23.55
891.323	-9.22
891.494	-1.02
891.665	15.36
891.836	-41.98
892.007	-7.17
892.178	-17.41
892.349	-41.98
892.52	-17.41
892.691	33.79
892.862	-9.22
893.032	-99.33
893.203	35.84
893.374	3.07
893.545	-17.41
893.716	-87.04
893.887	-33.79
894.057	-48.13
894.228	105.47
894.399	-29.7
894.57	27.65
894.74	-13.31
894.911	-46.08
895.082	56.32
895.253	-80.89
895.423	1.02
895.594	25.6
895.764	-7.17
895.935	5.12
896.106	-52.22
896.276	-48.13
896.447	15.36
896.617	-17.41
896.788	5.12
896.958	-64.51
897.129	66.56
897.299	39.94
897.47	105.47
897.64	-33.79
897.81	11.26
897.981	64.51
898.151	-33.79
898.322	-21.5
898.492	23.55
898.662	11.26
898.832	19.46
899.003	-15.36
899.173	-17.41
899.343	1.02
899.513	-91.13
