Data from USB4F104151__301__14-24-02-111.txt Node

Date: Thu Mar 13 14:24:02 EDT 2025
User: louis
Spectrometer: USB4F10415
Trigger mode: 4
Integration Time (sec): 2.000000E-2
Scans to average: 1
Electric dark correction enabled: true
Nonlinearity correction enabled: false
Boxcar width: 0
XAxis mode: Wavelengths
Number of Pixels in Spectrum: 3648
>>>>>Begin Spectral Data<<<<<
178.204	-73.39
178.424	-73.39
178.644	-73.39
178.864	-138.92
179.084	-40.62
179.304	-9.9
179.524	-69.29
179.744	-38.57
179.964	26.96
180.184	59.73
180.404	16.73
180.624	41.3
180.844	29.01
181.064	-79.53
181.283	2.39
181.503	-3.75
181.723	24.92
181.943	20.82
182.163	6.49
182.383	-65.19
182.602	41.3
182.822	33.11
183.042	-9.9
183.262	-40.62
183.482	-3.75
183.701	16.73
183.921	57.68
184.141	-18.09
184.361	-48.81
184.58	8.53
184.8	26.96
185.02	-69.29
185.239	18.77
185.459	12.63
185.679	22.87
185.898	59.73
186.118	39.25
186.338	-24.23
186.557	39.25
186.777	24.92
186.997	74.07
187.216	16.73
187.436	33.11
187.655	33.11
187.875	2.39
188.095	-30.38
188.314	90.45
188.534	63.83
188.753	-13.99
188.973	78.16
189.192	-3.75
189.412	-20.14
189.631	12.63
189.851	12.63
190.07	45.4
190.29	33.11
190.509	57.68
190.729	18.77
190.948	86.36
191.168	149.84
191.387	24.92
191.607	65.88
191.826	41.3
192.045	47.44
192.265	0.34
192.484	-30.38
192.704	51.54
192.923	26.96
193.142	33.11
193.362	10.58
193.581	98.64
193.8	8.53
194.02	43.35
194.239	63.83
194.458	-24.23
194.678	20.82
194.897	-65.19
195.116	-13.99
195.335	-13.99
195.555	2.39
195.774	35.16
195.993	8.53
196.212	-5.8
196.432	16.73
196.651	-40.62
196.87	43.35
197.089	74.07
197.308	82.26
197.528	43.35
197.747	20.82
197.966	-13.99
198.185	84.31
198.404	-63.15
198.623	-16.04
198.842	-7.85
199.062	35.16
199.281	26.96
199.5	-7.85
199.719	57.68
199.938	33.11
200.157	24.92
200.376	33.11
200.595	98.64
200.814	45.4
201.033	49.49
201.252	29.01
201.471	-42.67
201.69	8.53
201.909	-13.99
202.128	41.3
202.347	8.53
202.566	-73.39
202.785	31.06
203.004	-16.04
203.223	45.4
203.442	59.73
203.661	-38.57
203.879	37.2
204.098	51.54
204.317	-44.71
204.536	24.92
204.755	49.49
204.974	29.01
205.193	57.68
205.411	8.53
205.63	55.64
205.849	65.88
206.068	57.68
206.287	-24.23
206.505	-18.09
206.724	24.92
206.943	8.53
207.162	41.3
207.381	12.63
207.599	53.59
207.818	-20.14
208.037	51.54
208.255	98.64
208.474	2.39
208.693	-24.23
208.911	2.39
209.13	26.96
209.349	20.82
209.567	-48.81
209.786	35.16
210.005	-16.04
210.223	2.39
210.442	-16.04
210.661	14.68
210.879	-3.75
211.098	55.64
211.316	8.53
211.535	108.88
211.753	0.34
211.972	69.97
212.191	-16.04
212.409	14.68
212.628	26.96
212.846	41.3
213.065	37.2
213.283	33.11
213.502	4.44
213.72	98.64
213.938	67.92
214.157	-16.04
214.375	43.35
214.594	-38.57
214.812	26.96
215.031	57.68
215.249	41.3
215.467	-7.85
215.686	12.63
215.904	12.63
216.122	-24.23
216.341	57.68
216.559	-22.19
216.778	51.54
216.996	65.88
217.214	8.53
217.432	51.54
217.651	-65.19
217.869	20.82
218.087	20.82
218.306	8.53
218.524	65.88
218.742	33.11
218.96	-5.8
219.179	-24.23
219.397	31.06
219.615	90.45
219.833	65.88
220.051	4.44
220.27	90.45
220.488	55.64
220.706	-7.85
220.924	-63.15
221.142	51.54
221.36	-7.85
221.578	59.73
221.796	-3.75
222.015	-22.19
222.233	57.68
222.451	49.49
222.669	53.59
222.887	-65.19
223.105	-61.1
223.323	63.83
223.541	-16.04
223.759	106.84
223.977	43.35
224.195	57.68
224.413	86.36
224.631	74.07
224.849	-13.99
225.067	26.96
225.285	43.35
225.503	24.92
225.721	45.4
225.939	16.73
226.157	16.73
226.375	108.88
226.592	-57
226.81	16.73
227.028	72.02
227.246	41.3
227.464	53.59
227.682	49.49
227.9	2.39
228.117	24.92
228.335	10.58
228.553	57.68
228.771	18.77
228.989	0.34
229.206	41.3
229.424	37.2
229.642	14.68
229.86	59.73
230.077	-40.62
230.295	12.63
230.513	-32.43
230.731	14.68
230.948	90.45
231.166	4.44
231.384	41.3
231.601	12.63
231.819	108.88
232.037	41.3
232.254	2.39
232.472	18.77
232.689	26.96
232.907	37.2
233.125	-44.71
233.342	24.92
233.56	59.73
233.777	0.34
233.995	51.54
234.213	39.25
234.43	74.07
234.648	-32.43
234.865	-42.67
235.083	131.41
235.3	-52.91
235.518	121.17
235.735	26.96
235.953	39.25
236.17	51.54
236.388	16.73
236.605	-52.91
236.822	24.92
237.04	57.68
237.257	8.53
237.475	72.02
237.692	41.3
237.909	106.84
238.127	-54.95
238.344	51.54
238.562	16.73
238.779	-30.38
238.996	-24.23
239.214	-24.23
239.431	53.59
239.648	-30.38
239.865	49.49
240.083	6.49
240.3	24.92
240.517	8.53
240.735	35.16
240.952	35.16
241.169	65.88
241.386	33.11
241.603	16.73
241.821	-32.43
242.038	8.53
242.255	0.34
242.472	18.77
242.689	74.07
242.907	-26.28
243.124	82.26
243.341	51.54
243.558	10.58
243.775	-24.23
243.992	-28.33
244.209	51.54
244.426	55.64
244.643	49.49
244.86	-16.04
245.078	33.11
245.295	20.82
245.512	-9.9
245.729	8.53
245.946	26.96
246.163	110.93
246.38	65.88
246.597	51.54
246.814	67.92
247.031	12.63
247.248	-48.81
247.464	78.16
247.681	51.54
247.898	59.73
248.115	61.78
248.332	-13.99
248.549	8.53
248.766	90.45
248.983	20.82
249.2	53.59
249.417	59.73
249.633	-30.38
249.85	24.92
250.067	18.77
250.284	86.36
250.501	53.59
250.717	4.44
250.934	43.35
251.151	2.39
251.368	22.87
251.585	49.49
251.801	41.3
252.018	24.92
252.235	90.45
252.451	41.3
252.668	-61.1
252.885	51.54
253.102	108.88
253.318	16.73
253.535	-40.62
253.752	-11.95
253.968	-52.91
254.185	-20.14
254.401	35.16
254.618	33.11
254.835	-20.14
255.051	14.68
255.268	2.39
255.484	74.07
255.701	78.16
255.917	4.44
256.134	-30.38
256.351	8.53
256.567	-1.71
256.784	2.39
257	-40.62
257.217	-52.91
257.433	104.79
257.65	90.45
257.866	65.88
258.082	-40.62
258.299	-32.43
258.515	2.39
258.732	-11.95
258.948	8.53
259.165	-11.95
259.381	57.68
259.597	2.39
259.814	2.39
260.03	12.63
260.246	69.97
260.463	61.78
260.679	8.53
260.895	31.06
261.112	49.49
261.328	67.92
261.544	0.34
261.761	59.73
261.977	8.53
262.193	14.68
262.409	-3.75
262.626	33.11
262.842	84.31
263.058	-16.04
263.274	100.69
263.49	22.87
263.707	16.73
263.923	35.16
264.139	-44.71
264.355	-7.85
264.571	65.88
264.787	-13.99
265.004	98.64
265.22	41.3
265.436	-11.95
265.652	10.58
265.868	-28.33
266.084	-69.29
266.3	33.11
266.516	-38.57
266.732	76.12
266.948	-5.8
267.164	-24.23
267.38	10.58
267.596	76.12
267.812	6.49
268.028	2.39
268.244	16.73
268.46	35.16
268.676	10.58
268.892	16.73
269.108	12.63
269.324	43.35
269.54	22.87
269.756	33.11
269.972	-5.8
270.188	4.44
270.403	74.07
270.619	16.73
270.835	72.02
271.051	-13.99
271.267	51.54
271.483	33.11
271.698	24.92
271.914	90.45
272.13	33.11
272.346	0.34
272.562	-91.82
272.777	82.26
272.993	18.77
273.209	-5.8
273.425	26.96
273.64	125.27
273.856	22.87
274.072	57.68
274.287	33.11
274.503	65.88
274.719	12.63
274.934	63.83
275.15	18.77
275.366	29.01
275.581	47.44
275.797	67.92
276.012	0.34
276.228	-65.19
276.444	-20.14
276.659	-16.04
276.875	65.88
277.09	90.45
277.306	69.97
277.521	-24.23
277.737	78.16
277.952	53.59
278.168	43.35
278.383	100.69
278.599	-24.23
278.814	59.73
279.03	43.35
279.245	106.84
279.461	100.69
279.676	35.16
279.892	18.77
280.107	43.35
280.322	-40.62
280.538	-7.85
280.753	-16.04
280.969	45.4
281.184	-40.62
281.399	33.11
281.615	-11.95
281.83	98.64
282.045	-32.43
282.26	10.58
282.476	-32.43
282.691	76.12
282.906	22.87
283.122	35.16
283.337	-5.8
283.552	20.82
283.767	-69.29
283.983	-32.43
284.198	31.06
284.413	57.68
284.628	100.69
284.843	41.3
285.058	57.68
285.274	20.82
285.489	82.26
285.704	20.82
285.919	16.73
286.134	4.44
286.349	-63.15
286.564	2.39
286.779	57.68
286.995	6.49
287.21	-63.15
287.425	4.44
287.64	16.73
287.855	78.16
288.07	-9.9
288.285	59.73
288.5	33.11
288.715	-7.85
288.93	-1.71
289.145	76.12
289.36	0.34
289.575	45.4
289.79	24.92
290.004	-3.75
290.219	74.07
290.434	-24.23
290.649	-65.19
290.864	-7.85
291.079	16.73
291.294	35.16
291.509	90.45
291.724	16.73
291.938	-3.75
292.153	82.26
292.368	0.34
292.583	49.49
292.798	92.5
293.012	-7.85
293.227	41.3
293.442	86.36
293.657	39.25
293.871	106.84
294.086	57.68
294.301	135.51
294.516	53.59
294.73	78.16
294.945	-28.33
295.16	2.39
295.374	45.4
295.589	90.45
295.804	-3.75
296.018	33.11
296.233	82.26
296.447	-32.43
296.662	78.16
296.877	24.92
297.091	92.5
297.306	16.73
297.52	-54.95
297.735	-24.23
297.949	53.59
298.164	10.58
298.378	18.77
298.593	-3.75
298.807	22.87
299.022	-5.8
299.236	41.3
299.451	24.92
299.665	20.82
299.88	102.74
300.094	67.92
300.309	10.58
300.523	-7.85
300.737	86.36
300.952	51.54
301.166	61.78
301.381	31.06
301.595	12.63
301.809	49.49
302.024	41.3
302.238	90.45
302.452	61.78
302.667	-3.75
302.881	16.73
303.095	-16.04
303.309	-3.75
303.524	-32.43
303.738	8.53
303.952	-3.75
304.166	164.18
304.381	16.73
304.595	74.07
304.809	20.82
305.023	-24.23
305.237	2.39
305.452	-24.23
305.666	33.11
305.88	98.64
306.094	-5.8
306.308	12.63
306.522	37.2
306.736	59.73
306.95	24.92
307.164	47.44
307.379	45.4
307.593	31.06
307.807	-5.8
308.021	82.26
308.235	43.35
308.449	-36.52
308.663	82.26
308.877	-28.33
309.091	63.83
309.305	88.4
309.519	43.35
309.733	16.73
309.947	-30.38
310.161	45.4
310.374	74.07
310.588	12.63
310.802	20.82
311.016	49.49
311.23	26.96
311.444	14.68
311.658	69.97
311.872	102.74
312.085	-1.71
312.299	117.08
312.513	18.77
312.727	24.92
312.941	-28.33
313.154	26.96
313.368	0.34
313.582	-16.04
313.796	65.88
314.009	8.53
314.223	18.77
314.437	-1.71
314.651	16.73
314.864	-32.43
315.078	2.39
315.292	57.68
315.505	59.73
315.719	51.54
315.933	33.11
316.146	-26.28
316.36	16.73
316.573	45.4
316.787	-1.71
317.001	20.82
317.214	55.64
317.428	43.35
317.641	6.49
317.855	-67.24
318.068	-13.99
318.282	39.25
318.495	35.16
318.709	51.54
318.922	-7.85
319.136	82.26
319.349	80.21
319.563	14.68
319.776	41.3
319.99	-16.04
320.203	55.64
320.417	51.54
320.63	24.92
320.843	-1.71
321.057	37.2
321.27	45.4
321.483	16.73
321.697	84.31
321.91	61.78
322.124	98.64
322.337	2.39
322.55	41.3
322.763	59.73
322.977	26.96
323.19	-71.34
323.403	69.97
323.617	47.44
323.83	59.73
324.043	-22.19
324.256	-34.47
324.469	33.11
324.683	-11.95
324.896	-57
325.109	57.68
325.322	-57
325.535	-24.23
325.748	98.64
325.962	-48.81
326.175	12.63
326.388	82.26
326.601	-5.8
326.814	26.96
327.027	102.74
327.24	49.49
327.453	-24.23
327.666	-57
327.879	90.45
328.092	69.97
328.305	-13.99
328.518	43.35
328.731	45.4
328.944	-5.8
329.157	-7.85
329.37	0.34
329.583	137.56
329.796	47.44
330.009	2.39
330.222	82.26
330.435	59.73
330.648	35.16
330.861	2.39
331.073	69.97
331.286	39.25
331.499	102.74
331.712	26.96
331.925	41.3
332.138	33.11
332.35	35.16
332.563	-9.9
332.776	61.78
332.989	-18.09
333.202	4.44
333.414	49.49
333.627	82.26
333.84	12.63
334.053	22.87
334.265	0.34
334.478	90.45
334.691	-1.71
334.903	4.44
335.116	20.82
335.329	2.39
335.541	41.3
335.754	90.45
335.966	22.87
336.179	-40.62
336.392	20.82
336.604	41.3
336.817	-18.09
337.029	106.84
337.242	-79.53
337.454	76.12
337.667	-5.8
337.88	35.16
338.092	29.01
338.305	43.35
338.517	-28.33
338.729	49.49
338.942	127.32
339.154	-16.04
339.367	10.58
339.579	65.88
339.792	-67.24
340.004	131.41
340.217	-7.85
340.429	-40.62
340.641	-5.8
340.854	20.82
341.066	20.82
341.278	57.68
341.491	115.03
341.703	20.82
341.915	65.88
342.128	-50.86
342.34	-3.75
342.552	-106.15
342.764	16.73
342.977	84.31
343.189	8.53
343.401	82.26
343.613	31.06
343.826	18.77
344.038	0.34
344.25	92.5
344.462	-3.75
344.674	18.77
344.886	24.92
345.099	18.77
345.311	104.79
345.523	26.96
345.735	14.68
345.947	53.59
346.159	35.16
346.371	-24.23
346.583	10.58
346.795	69.97
347.007	35.16
347.219	94.55
347.431	16.73
347.643	86.36
347.855	49.49
348.067	63.83
348.279	49.49
348.491	63.83
348.703	31.06
348.915	-73.39
349.127	115.03
349.339	-1.71
349.551	24.92
349.763	41.3
349.975	-26.28
350.187	84.31
350.399	29.01
350.61	12.63
350.822	-3.75
351.034	57.68
351.246	76.12
351.458	12.63
351.669	-24.23
351.881	131.41
352.093	41.3
352.305	43.35
352.517	51.54
352.728	6.49
352.94	-48.81
353.152	41.3
353.363	41.3
353.575	72.02
353.787	86.36
353.999	49.49
354.21	67.92
354.422	117.08
354.633	43.35
354.845	16.73
355.057	12.63
355.268	69.97
355.48	76.12
355.692	18.77
355.903	37.2
356.115	-30.38
356.326	-32.43
356.538	49.49
356.749	59.73
356.961	26.96
357.172	18.77
357.384	-52.91
357.595	104.79
357.807	61.78
358.018	14.68
358.23	74.07
358.441	80.21
358.653	82.26
358.864	43.35
359.075	-22.19
359.287	20.82
359.498	29.01
359.709	110.93
359.921	47.44
360.132	26.96
360.344	14.68
360.555	82.26
360.766	65.88
360.977	20.82
361.189	65.88
361.4	86.36
361.611	37.2
361.823	61.78
362.034	8.53
362.245	-24.23
362.456	41.3
362.667	69.97
362.879	69.97
363.09	-20.14
363.301	53.59
363.512	94.55
363.723	16.73
363.935	-104.11
364.146	100.69
364.357	24.92
364.568	49.49
364.779	20.82
364.99	69.97
365.201	16.73
365.412	45.4
365.623	-63.15
365.834	74.07
366.045	0.34
366.256	51.54
366.467	59.73
366.678	41.3
366.889	29.01
367.1	-32.43
367.311	43.35
367.522	41.3
367.733	43.35
367.944	82.26
368.155	4.44
368.366	82.26
368.577	51.54
368.788	-3.75
368.999	-54.95
369.209	-1.71
369.42	100.69
369.631	41.3
369.842	12.63
370.053	51.54
370.264	47.44
370.474	24.92
370.685	24.92
370.896	80.21
371.107	86.36
371.317	-3.75
371.528	-7.85
371.739	90.45
371.95	24.92
372.16	57.68
372.371	-7.85
372.582	59.73
372.792	45.4
373.003	39.25
373.214	16.73
373.424	-20.14
373.635	39.25
373.846	82.26
374.056	-16.04
374.267	16.73
374.477	26.96
374.688	51.54
374.898	117.08
375.109	78.16
375.319	6.49
375.53	-24.23
375.74	8.53
375.951	18.77
376.161	16.73
376.372	115.03
376.582	-16.04
376.793	119.12
377.003	-7.85
377.214	-1.71
377.424	55.64
377.635	39.25
377.845	-73.39
378.055	-5.8
378.266	22.87
378.476	-24.23
378.686	-20.14
378.897	133.46
379.107	72.02
379.317	45.4
379.528	-52.91
379.738	84.31
379.948	29.01
380.158	82.26
380.369	74.07
380.579	49.49
380.789	82.26
380.999	-28.33
381.21	74.07
381.42	51.54
381.63	39.25
381.84	33.11
382.05	53.59
382.261	98.64
382.471	8.53
382.681	29.01
382.891	61.78
383.101	12.63
383.311	-5.8
383.521	16.73
383.731	43.35
383.941	-20.14
384.151	22.87
384.361	41.3
384.571	100.69
384.781	-32.43
384.991	82.26
385.201	41.3
385.411	43.35
385.621	-36.52
385.831	22.87
386.041	74.07
386.251	94.55
386.461	14.68
386.671	82.26
386.881	47.44
387.091	16.73
387.301	67.92
387.511	8.53
387.72	41.3
387.93	0.34
388.14	41.3
388.35	59.73
388.56	69.97
388.769	92.5
388.979	-20.14
389.189	-20.14
389.399	-3.75
389.609	16.73
389.818	86.36
390.028	96.6
390.238	106.84
390.447	-48.81
390.657	10.58
390.867	-1.71
391.076	8.53
391.286	57.68
391.496	29.01
391.705	90.45
391.915	90.45
392.125	88.4
392.334	49.49
392.544	61.78
392.753	82.26
392.963	26.96
393.172	26.96
393.382	20.82
393.591	67.92
393.801	33.11
394.01	139.6
394.22	35.16
394.429	-52.91
394.639	61.78
394.848	-18.09
395.058	37.2
395.267	51.54
395.477	45.4
395.686	123.22
395.895	147.8
396.105	127.32
396.314	65.88
396.524	26.96
396.733	65.88
396.942	123.22
397.152	57.68
397.361	33.11
397.57	43.35
397.78	57.68
397.989	51.54
398.198	65.88
398.407	57.68
398.617	90.45
398.826	82.26
399.035	98.64
399.244	117.08
399.453	74.07
399.663	76.12
399.872	106.84
400.081	98.64
400.29	145.75
400.499	41.3
400.708	106.84
400.917	74.07
401.127	112.98
401.336	43.35
401.545	67.92
401.754	49.49
401.963	131.41
402.172	82.26
402.381	57.68
402.59	-9.9
402.799	86.36
403.008	139.6
403.217	108.88
403.426	74.07
403.635	41.3
403.844	106.84
404.053	131.41
404.262	82.26
404.471	205.14
404.68	139.6
404.888	41.3
405.097	67.92
405.306	115.03
405.515	125.27
405.724	172.37
405.933	106.84
406.142	106.84
406.35	141.65
406.559	139.6
406.768	147.8
406.977	158.03
407.185	135.51
407.394	127.32
407.603	127.32
407.812	170.32
408.02	242
408.229	106.84
408.438	233.81
408.646	170.32
408.855	94.55
409.064	168.27
409.272	215.38
409.481	198.99
409.69	252.24
409.898	188.75
410.107	213.33
410.315	229.71
410.524	244.05
410.733	280.91
410.941	225.62
411.15	287.06
411.358	221.52
411.567	356.69
411.775	319.82
411.984	328.02
412.192	340.3
412.401	321.87
412.609	379.22
412.818	411.98
413.026	328.02
413.234	411.98
413.443	395.6
413.651	442.7
413.86	360.78
414.068	500.05
414.276	475.47
414.485	475.47
414.693	581.96
414.901	495.95
415.11	504.14
415.318	495.95
415.526	569.68
415.734	502.09
415.943	588.11
416.151	649.55
416.359	618.83
416.567	606.54
416.776	682.31
416.984	745.8
417.192	786.76
417.4	772.43
417.608	721.23
417.817	784.71
418.025	835.91
418.233	870.73
418.441	827.72
418.649	932.17
418.857	950.6
419.065	905.54
419.273	991.56
419.481	1026.37
419.689	1050.95
419.897	1141.06
420.105	1093.96
420.313	1081.67
420.521	1282.37
420.729	1179.97
420.937	1253.7
421.145	1319.23
421.353	1444.16
421.561	1460.54
421.769	1579.33
421.977	1567.04
422.185	1474.88
422.393	1569.09
422.601	1657.15
422.809	1714.49
423.017	1708.35
423.224	1769.79
423.432	1786.17
423.64	1728.83
423.848	1986.87
424.056	2017.59
424.263	2081.08
424.471	2068.79
424.679	2117.94
424.887	2236.72
425.094	2335.03
425.302	2380.08
425.51	2335.03
425.718	2492.72
425.925	2634.03
426.133	2664.75
426.341	2785.58
426.548	2855.21
426.756	2873.64
426.964	2957.61
427.171	3066.15
427.379	3143.97
427.586	3240.23
427.794	3277.09
428.001	3420.45
428.209	3563.81
428.417	3514.66
428.624	3787.04
428.832	3744.03
429.039	3711.26
429.247	3809.56
429.454	4114.71
429.662	4290.84
429.869	4208.92
430.076	4391.19
430.284	4362.51
430.491	4456.72
430.699	4688.14
430.906	4770.06
431.114	4673.81
431.321	4950.28
431.528	5005.58
431.736	5218.57
431.943	5619.97
432.15	5447.94
432.358	5562.62
432.565	5671.17
432.772	5861.63
432.979	6131.96
433.187	6246.65
433.394	6283.51
433.601	6674.67
433.808	6674.67
434.016	6635.76
434.223	6848.75
434.43	7268.58
434.637	7184.62
434.844	7749.86
435.052	7667.94
435.259	7831.77
435.466	7692.51
435.673	7747.81
435.88	8069.34
436.087	8691.92
436.294	8661.2
436.501	8454.36
436.708	8569.04
436.915	9078.99
437.122	9328.84
437.329	9349.32
437.537	9427.14
437.743	9742.53
437.95	9660.61
438.157	10086.59
438.364	10424.5
438.571	10494.13
438.778	10307.77
438.985	11276.46
439.192	10993.84
439.399	11288.75
439.606	10930.35
439.813	11641
440.02	12306.59
440.227	12099.74
440.433	12169.37
440.64	12501.14
440.847	12320.92
441.054	12490.9
441.261	13639.81
441.467	13508.74
441.674	13746.31
441.881	13947.01
442.088	14065.79
442.294	13979.78
442.501	14346.36
442.708	14461.05
442.914	15149.17
443.121	15833.19
443.328	15149.17
443.534	16136.29
443.741	15876.2
443.948	15548.52
444.154	16660.57
444.361	16664.66
444.568	16971.86
444.774	16775.25
444.981	16910.42
445.187	17326.16
445.394	18061.38
445.6	18036.8
445.807	19681.32
446.013	18792.5
446.22	19025.97
446.426	19681.32
446.633	20183.07
446.839	20762.65
447.046	19892.26
447.252	20856.86
447.459	20897.81
447.665	20809.75
447.871	21694.47
448.078	22738.94
448.284	21749.77
448.491	22208.51
448.697	23205.88
448.903	23627.76
449.11	23468.02
449.316	23322.61
449.522	23738.35
449.728	24203.24
449.935	24621.02
450.141	24578.01
450.347	25061.33
450.553	24219.62
450.76	24668.12
450.966	25219.03
451.172	25311.19
451.378	25892.81
451.584	25259.99
451.791	25788.36
451.997	25780.17
452.203	26335.17
452.409	26351.56
452.615	26355.65
452.821	25130.97
453.027	24739.8
453.233	26279.88
453.44	25303
453.646	25485.26
453.852	25716.68
454.058	26228.68
454.264	25233.36
454.47	25956.3
454.676	24938.46
454.882	25759.69
455.088	23668.72
455.294	24168.42
455.5	24289.25
455.705	24774.62
455.911	23554.03
456.117	22990.84
456.323	23095.28
456.529	22140.93
456.735	22757.37
456.941	22052.87
457.147	21811.21
457.352	21358.61
457.558	21026.84
457.764	20985.88
457.97	20428.83
458.176	20224.03
458.381	20432.93
458.587	19191.86
458.793	18976.82
458.999	18333.76
459.204	19693.61
459.41	18896.95
459.616	17977.41
459.821	18006.08
460.027	17678.41
460.233	17418.32
460.438	16435.29
460.644	16719.96
460.85	15812.71
461.055	15741.03
461.261	15603.82
461.466	14430.33
461.672	14125.18
461.878	15186.03
462.083	14020.74
462.289	13920.38
462.494	13635.72
462.7	13009.04
462.905	12589.21
463.111	13117.58
463.316	13312.14
463.522	12832.91
463.727	13021.33
463.932	12902.54
464.138	12656.79
464.343	12724.37
464.549	12419.22
464.754	12722.32
464.959	12697.75
465.165	12478.61
465.37	12191.9
465.575	11665.57
465.781	12273.82
465.986	12148.89
466.191	11886.75
466.397	11739.3
466.602	10969.26
466.807	11602.08
467.012	11491.49
467.218	11233.45
467.423	11325.61
467.628	11528.36
467.833	11948.19
468.038	11454.63
468.244	11227.31
468.449	11542.69
468.654	11266.22
468.859	11133.1
469.064	11227.31
469.269	10834.1
469.474	10735.79
469.679	10838.19
469.885	10453.17
470.09	10766.51
470.295	10684.59
470.5	10379.45
470.705	10420.41
470.91	10430.65
471.115	10293.43
471.32	10266.81
471.525	10201.27
471.73	9777.34
471.935	10070.2
472.139	9558.21
472.344	9758.91
472.549	9615.55
472.754	9691.33
472.959	9367.75
473.164	9167.05
473.369	9203.91
473.574	9425.09
473.778	9154.76
473.983	9251.02
474.188	9097.42
474.393	8718.54
474.598	8757.46
474.802	8560.85
475.007	8734.93
475.212	8675.54
475.417	8306.9
475.621	8354.01
475.826	8405.21
476.031	8188.12
476.235	8106.2
476.44	8169.69
476.645	8190.17
476.849	8198.36
477.054	8040.67
477.259	7659.74
477.463	7940.32
477.668	7547.11
477.872	7700.7
478.077	7420.13
478.282	7360.74
478.486	7315.69
478.691	7321.83
478.895	7289.06
479.1	7192.81
479.304	7325.93
479.509	7061.74
479.713	7076.07
479.918	6840.56
480.122	6887.66
480.326	6891.76
480.531	7102.7
480.735	6893.8
480.94	6953.2
481.144	7125.22
481.348	6891.76
481.553	6844.65
481.757	6691.06
481.961	6914.28
482.166	6848.75
482.37	6850.8
482.574	6639.86
482.778	6648.05
482.983	6840.56
483.187	6750.45
483.391	6867.18
483.595	6572.27
483.8	6686.96
484.004	6637.81
484.208	6766.83
484.412	6732.01
484.616	6717.68
484.821	6881.52
485.025	6648.05
485.229	6596.85
485.433	6676.72
485.637	6705.39
485.841	6619.38
486.045	6664.43
486.249	6801.65
486.453	6625.52
486.657	6820.08
486.861	6609.14
487.065	6504.69
487.269	6635.76
487.473	6453.49
487.677	6703.34
487.881	6754.54
488.085	6809.84
488.289	6803.69
488.493	6758.64
488.697	6809.84
488.901	6633.71
489.105	6783.21
489.309	6713.58
489.512	6736.11
489.716	6865.13
489.92	6815.98
490.124	6646
490.328	6942.96
490.531	6781.17
490.735	6729.97
490.939	7053.55
491.143	6863.08
491.346	6938.86
491.55	6949.1
491.754	6916.33
491.958	7094.51
492.161	7084.27
492.365	7094.51
492.569	7028.97
492.772	7145.7
492.976	7139.56
493.18	7133.42
493.383	7135.46
493.587	7190.76
493.79	7344.36
493.994	7250.15
494.197	7373.03
494.401	7448.8
494.605	7358.69
494.808	7506.15
495.012	7485.67
495.215	7645.41
495.419	7649.5
495.622	7540.96
495.825	7917.79
496.029	7674.08
496.232	7966.94
496.436	7868.64
496.639	8095.96
496.843	8032.47
497.046	8100.06
497.249	8345.81
497.453	8335.57
497.656	8354.01
497.859	8284.37
498.063	8507.6
498.266	8433.88
498.469	8552.66
498.673	8892.62
498.876	8743.12
499.079	8962.25
499.282	8831.18
499.485	9052.36
499.689	8939.72
499.892	9228.49
500.095	9291.98
500.298	9597.12
500.501	9425.09
500.705	9775.3
500.908	9814.21
501.111	9939.13
501.314	9980.09
501.517	10121.4
501.72	10369.21
501.923	10094.78
502.126	10389.69
502.329	10514.61
502.532	10563.76
502.735	10713.27
502.938	10987.69
503.141	11092.14
503.344	10969.26
503.547	11280.55
503.75	11444.39
503.953	11546.79
504.156	11387.05
504.359	11684
504.562	11866.27
504.765	11778.21
504.968	11933.86
505.17	12304.54
505.373	12320.92
505.576	12773.52
505.779	12413.08
505.982	12595.35
506.185	12855.44
506.387	12853.39
506.59	13183.12
506.793	13172.88
506.996	13254.8
507.198	13750.4
507.401	13580.42
507.604	13772.93
507.807	13707.4
508.009	14037.12
508.212	14112.89
508.415	14422.14
508.617	14446.71
508.82	14618.74
509.022	14497.91
509.225	14930.03
509.428	15104.11
509.63	15245.42
509.833	15106.16
510.035	15771.75
510.238	15607.91
510.44	15607.91
510.643	15941.73
510.845	16160.86
511.048	16179.29
511.25	16408.67
511.453	16435.29
511.655	16988.24
511.858	16992.34
512.06	17008.72
512.262	17242.19
512.465	17207.37
512.667	17664.07
512.87	17510.47
513.072	17539.15
513.274	18073.67
513.477	17862.72
513.679	18178.11
513.881	18710.58
514.084	18591.8
514.286	18778.17
514.488	18751.54
514.69	19288.11
514.893	19271.73
515.095	19562.54
515.297	19468.33
515.499	19728.42
515.701	19965.99
515.904	20183.07
516.106	20363.29
516.308	20602.91
516.51	20932.63
516.712	20881.43
516.914	21018.64
517.116	21495.82
517.318	21174.29
517.52	21766.15
517.722	21719.05
517.925	21874.7
518.127	22022.15
518.329	22192.13
518.531	22661.12
518.733	22556.67
518.935	22810.62
519.136	22757.37
519.338	23314.42
519.54	23275.51
519.742	23678.96
519.944	23803.88
520.146	24037.35
520.348	23957.48
520.55	24225.76
520.752	24481.76
520.954	24748
521.155	24715.23
521.357	25210.84
521.559	25546.7
521.761	25309.14
521.963	25280.47
522.164	25784.27
522.366	25593.81
522.568	26226.63
522.77	26251.2
522.971	26628.03
523.173	26367.94
523.375	26687.42
523.576	26486.72
523.778	26853.31
523.98	27029.43
524.181	27160.5
524.383	27545.52
524.584	27834.28
524.786	27455.41
524.988	27656.11
525.189	28032.94
525.391	28245.93
525.592	28374.95
525.794	28139.43
525.995	28250.02
526.197	28473.25
526.398	28458.92
526.6	28506.02
526.801	28944.28
527.003	28895.13
527.204	28901.28
527.406	29390.74
527.607	29040.54
527.808	29534.1
528.01	28880.8
528.211	29222.81
528.412	29853.58
528.614	29503.38
528.815	29763.47
529.016	29908.88
529.218	29632.4
529.419	29958.03
529.62	29964.17
529.822	29841.29
530.023	30072.71
530.224	29910.92
530.425	30078.86
530.626	30093.19
530.828	29771.66
531.029	30793.6
531.23	29966.22
531.431	30490.5
531.632	30314.37
531.833	30492.55
532.035	30275.46
532.236	30515.08
532.437	30644.1
532.638	30173.06
532.839	30760.83
533.04	30691.2
533.241	30250.89
533.442	30678.91
533.643	30551.94
533.844	30400.39
534.045	30904.19
534.246	30437.25
534.447	30850.94
534.648	30492.55
534.849	30672.77
535.05	30705.54
535.251	30615.43
535.451	30637.95
535.652	31035.26
535.853	30515.08
536.054	30457.73
536.255	30615.43
536.456	30537.6
536.657	31059.84
536.857	30760.83
537.058	30627.71
537.259	30848.89
537.46	30607.23
537.66	30375.81
537.861	30760.83
538.062	30646.15
538.263	30842.75
538.463	30310.28
538.664	30416.77
538.865	30527.36
539.065	30820.22
539.266	30570.37
539.466	30973.82
539.667	30287.75
539.868	31151.99
540.068	30678.91
540.269	30439.3
540.469	30611.33
540.67	30349.19
540.87	30490.5
541.071	30279.56
541.271	30611.33
541.472	30498.69
541.672	30281.61
541.873	30347.14
542.073	29964.17
542.274	30484.36
542.474	30224.26
542.675	30027.66
542.875	30361.48
543.075	30152.59
543.276	29960.08
543.476	30537.6
543.676	30076.81
543.877	30410.63
544.077	30414.73
544.277	30326.66
544.478	30336.9
544.678	30029.71
544.878	30320.52
545.078	30166.92
545.279	29804.43
545.479	30166.92
545.679	30181.26
545.879	30039.95
546.079	30306.18
546.28	29906.83
546.48	29869.97
546.68	30480.26
546.88	30332.81
547.08	30345.09
547.28	30156.68
547.48	29802.38
547.68	30136.2
547.88	30111.63
548.081	30117.77
548.281	30037.9
548.481	29798.29
548.681	30326.66
548.881	29826.96
549.081	29896.59
549.28	29841.29
549.48	29951.88
549.68	30189.45
549.88	30312.33
550.08	29738.9
550.28	29616.02
550.48	29806.48
550.68	30285.7
550.88	29665.17
551.08	29816.72
551.279	29941.64
551.479	29587.35
551.679	29820.81
551.879	29872.01
552.079	29712.27
552.278	29699.98
552.478	29702.03
552.678	29634.45
552.878	29689.74
553.077	29532.05
553.277	29429.65
553.477	30068.62
553.676	29714.32
553.876	29681.55
554.076	29472.66
554.275	29761.42
554.475	29421.46
554.674	29896.59
554.874	29136.79
555.074	29597.59
555.273	29704.08
555.473	30101.39
555.672	29382.55
555.872	29278.1
556.071	29413.27
556.271	29753.23
556.47	29560.72
556.67	29300.63
556.869	29335.45
557.068	29417.36
557.268	29235.1
557.467	29337.49
557.667	29411.22
557.866	29218.71
558.065	29345.69
558.265	29054.87
558.464	29200.28
558.663	29380.5
558.863	28647.33
559.062	29403.03
559.261	28821.41
559.461	29560.72
559.66	29097.88
559.859	28932
560.058	28913.56
560.258	29026.2
560.457	28649.38
560.656	29198.23
560.855	28635.04
561.054	28440.48
561.253	28446.63
561.453	28594.08
561.652	28641.18
561.851	28866.46
562.05	28356.52
562.249	28299.17
562.448	28581.79
562.647	28467.11
562.846	28460.96
563.045	28596.13
563.244	28161.96
563.443	28899.23
563.642	28024.75
563.841	28313.51
564.04	28108.71
564.239	28426.15
564.438	27994.03
564.637	27680.69
564.836	28254.12
565.035	27682.73
565.234	28026.79
565.432	27692.97
565.631	27699.12
565.83	27594.67
566.029	27469.75
566.228	27717.55
566.427	27463.6
566.625	27336.63
566.824	27189.17
567.023	27424.69
567.222	26963.9
567.42	27219.89
567.619	27154.36
567.818	27086.78
568.016	26728.38
568.215	27314.1
568.414	27064.25
568.612	27191.22
568.811	26687.42
569.01	26875.84
569.208	26443.71
569.407	27015.1
569.605	26290.12
569.804	27008.95
570.002	26210.25
570.201	26683.33
570.4	26105.8
570.598	26263.49
570.797	25954.25
570.995	26492.87
571.193	26210.25
571.392	26257.35
571.59	25538.51
571.789	26034.12
571.987	25671.63
572.186	25884.62
572.384	25802.7
572.582	25735.12
572.781	25794.51
572.979	25374.67
573.177	25524.18
573.376	25599.95
573.574	25511.89
573.772	25657.29
573.971	25477.07
574.169	25157.59
574.367	24905.69
574.565	25411.54
574.763	24963.03
574.962	25092.05
575.16	24653.79
575.358	24782.81
575.556	24938.46
575.754	25237.46
575.952	24661.98
576.151	24924.12
576.349	24393.7
576.547	24573.92
576.745	24756.19
576.943	24731.61
577.141	24358.88
577.339	24397.79
577.537	24410.08
577.735	24256.48
577.933	24203.24
578.131	24156.13
578.329	23891.94
578.527	24119.27
578.725	23967.72
578.923	23867.37
579.121	23760.87
579.319	23734.25
579.516	23646.19
579.714	23891.94
579.912	23447.54
580.11	23572.46
580.308	23519.21
580.506	23302.13
580.704	23146.48
580.901	23404.53
581.099	23324.66
581.297	23187.44
581.495	23195.64
581.692	23265.27
581.89	22986.74
582.088	22943.74
582.285	22802.43
582.483	22992.89
582.681	22974.45
582.878	22501.37
583.076	22657.02
583.274	22759.42
583.471	22274.05
583.669	22497.28
583.866	22460.41
584.064	22378.5
584.262	22085.64
584.459	22597.63
584.657	22456.32
584.854	22458.37
585.052	21866.5
585.249	22163.46
585.447	21796.87
585.644	21958.66
585.841	22163.46
586.039	22267.91
586.236	21825.54
586.434	21786.63
586.631	21721.1
586.828	21745.67
587.026	21399.57
587.223	21745.67
587.42	21403.66
587.618	21626.89
587.815	21309.46
588.012	21374.99
588.21	21340.18
588.407	21338.13
588.604	21053.46
588.801	20846.62
588.999	21131.28
589.196	21149.71
589.393	21006.36
589.59	20996.12
589.787	20930.58
589.984	20858.9
590.182	20408.35
590.379	20650.01
590.576	20443.17
590.773	20553.76
590.97	20226.08
591.167	20346.91
591.364	20242.46
591.561	20381.73
591.758	20166.69
591.955	20258.85
592.152	20221.98
592.349	20062.24
592.546	20252.7
592.743	20181.03
592.94	20017.19
593.137	19978.28
593.334	19669.03
593.531	19492.91
593.727	19898.41
593.924	19482.67
594.121	19394.61
594.318	19910.69
594.515	19357.74
594.712	19304.49
594.908	19173.42
595.105	19410.99
595.302	18997.3
595.499	19345.45
595.696	19292.21
595.892	18853.94
596.089	19329.07
596.286	19241.01
596.482	18851.89
596.679	18997.3
596.876	18896.95
597.072	18616.38
597.269	18612.28
597.466	18573.37
597.662	18763.83
597.859	18718.78
598.055	18722.87
598.252	18503.74
598.448	18657.34
598.645	18473.02
598.841	18321.47
599.038	18507.83
599.234	18417.72
599.431	18040.9
599.627	18202.69
599.824	18317.37
600.02	18085.95
600.217	18120.77
600.413	17918.02
600.609	17987.65
600.806	17852.48
601.002	18157.63
601.198	17700.94
601.395	17721.41
601.591	17731.65
601.787	17602.63
601.984	17268.81
602.18	17668.17
602.376	17299.53
602.572	17293.39
602.769	17342.54
602.965	17107.02
603.161	17139.79
603.357	17170.51
603.553	17236.05
603.75	17090.64
603.946	16740.44
604.142	17199.18
604.338	16803.92
604.534	17047.63
604.73	16840.79
604.926	16867.41
605.122	16588.89
605.318	16572.5
605.514	16615.51
605.71	16336.99
605.906	16408.67
606.102	16275.55
606.298	16470.11
606.494	16349.28
606.69	16388.19
606.886	16232.54
607.082	15927.39
607.278	16336.99
607.474	15966.31
607.67	16359.52
607.866	15958.11
608.062	16011.36
608.257	15915.11
608.453	16029.79
608.649	16013.41
608.845	15698.02
609.041	15929.44
609.236	16009.31
609.432	15949.92
609.628	16054.37
609.824	15874.15
610.019	15558.76
610.215	15644.77
610.411	15761.51
610.606	15792.23
610.802	15583.34
610.998	15587.43
611.193	15640.68
611.389	15646.82
611.584	15536.23
611.78	15409.26
611.976	15257.71
612.171	15429.74
612.367	15460.46
612.562	15417.45
612.758	15057.01
612.953	15218.8
613.149	15394.92
613.344	15249.52
613.539	15249.52
613.735	15224.94
613.93	15052.91
614.126	15257.71
614.321	15161.45
614.517	15106.16
614.712	15149.17
614.907	15130.73
615.103	15163.5
615.298	15110.25
615.493	15179.89
615.688	14774.39
615.884	15159.41
616.079	14887.03
616.274	14747.76
616.47	14850.16
616.665	14706.8
616.86	14676.09
617.055	14872.69
617.25	14817.4
617.445	14649.46
617.641	14491.77
617.836	14534.78
618.031	14391.42
618.226	14524.54
618.421	14401.66
618.616	14596.21
618.811	14049.41
619.006	14387.32
619.201	14166.14
619.396	14153.85
619.591	13924.48
619.786	14196.86
619.981	14035.07
620.176	14139.52
620.371	13760.64
620.566	13795.46
620.761	13885.57
620.956	13787.27
621.151	13549.7
621.346	13652.1
621.541	13353.1
621.735	13672.58
621.93	13181.07
622.125	13535.37
622.32	13226.12
622.515	13402.25
622.709	13156.49
622.904	13181.07
623.099	13090.96
623.294	12998.8
623.488	12722.32
623.683	12916.88
623.878	12718.23
624.072	12650.64
624.267	12486.81
624.462	12439.7
624.656	12216.47
624.851	12544.15
625.046	12333.21
625.24	12138.65
625.435	12230.81
625.629	12189.85
625.824	12044.45
626.018	12124.32
626.213	11755.68
626.407	11978.91
626.602	11917.47
626.796	11845.79
626.991	11770.02
627.185	11567.27
627.38	11493.54
627.574	11518.12
627.768	11358.38
627.963	11221.16
628.157	11360.42
628.352	11389.1
628.546	10979.5
628.74	11321.51
628.935	11042.99
629.129	11024.56
629.323	10879.15
629.517	10963.12
629.712	11020.46
629.906	10918.06
630.1	10596.53
630.294	10838.19
630.489	10625.2
630.683	10739.89
630.877	10520.76
631.071	10459.32
631.265	10475.7
631.459	10199.23
631.653	10324.15
631.848	10281.14
632.042	10215.61
632.236	10092.73
632.43	10102.97
632.624	10131.64
632.818	9783.49
633.012	10012.86
633.206	9748.67
633.4	10006.72
633.594	9904.32
633.788	9517.25
633.982	9713.86
634.176	9806.02
634.369	9613.51
634.563	9515.2
634.757	9552.07
634.951	9597.12
635.145	9431.24
635.339	9289.93
635.533	9396.42
635.726	9306.31
635.92	8960.2
636.114	9251.02
636.308	9126.09
636.501	8970.44
636.695	8935.63
636.889	8921.29
637.083	8872.14
637.276	8894.67
637.47	8882.38
637.664	8724.69
637.857	8939.72
638.051	8642.77
638.244	8550.61
638.438	8319.19
638.632	8693.97
638.825	8618.19
639.019	8487.12
639.212	8415.44
639.406	8249.56
639.599	8421.59
639.793	8378.58
639.986	8077.53
640.18	8397.01
640.373	8212.7
640.567	8085.72
640.76	8138.97
640.954	7989.47
641.147	7897.31
641.34	7899.36
641.534	7942.36
641.727	8005.85
641.92	8055
642.114	7817.44
642.307	7876.83
642.5	7719.14
642.694	7465.19
642.887	7569.63
643.08	7622.88
643.273	7497.95
643.467	7565.54
643.66	7614.69
643.853	7342.31
644.046	7418.08
644.239	7170.28
644.432	7250.15
644.626	7262.44
644.819	7114.98
645.012	7256.29
645.205	7061.74
645.398	7012.59
645.591	6881.52
645.784	7031.02
645.977	6818.03
646.17	7037.16
646.363	6947.05
646.556	6824.17
646.749	6824.17
646.942	6736.11
647.135	6674.67
647.328	6613.23
647.521	6801.65
647.714	6607.09
647.907	6725.87
648.099	6504.69
648.292	6623.47
648.485	6504.69
648.678	6547.7
648.871	6484.21
649.064	6400.24
649.256	6402.29
649.449	6252.79
649.642	6289.65
649.835	6236.41
650.027	6308.09
650.22	6148.34
650.413	6119.67
650.605	6166.78
650.798	6170.87
650.991	6103.29
651.183	6070.52
651.376	5974.27
651.568	6013.18
651.761	6074.62
651.954	5955.83
652.146	6099.19
652.339	6004.99
652.531	5828.86
652.724	5851.39
652.916	5701.89
653.109	5712.13
653.301	5875.96
653.494	5835
653.686	5603.58
653.879	5605.63
654.071	5533.95
654.263	5562.62
654.456	5503.23
654.648	5583.1
654.84	5536
655.033	5525.76
655.225	5570.82
655.417	5425.41
655.61	5398.79
655.802	5237
655.994	5392.64
656.186	5275.91
656.379	5382.4
656.571	5183.75
656.763	5114.12
656.955	5370.12
657.148	5226.76
657.34	5132.55
657.532	5079.3
657.724	5212.42
657.916	5007.62
658.108	5132.55
658.3	5067.02
658.492	5040.39
658.684	4944.14
658.876	4911.37
659.068	4884.75
659.26	4972.81
659.452	4917.51
659.644	4890.89
659.836	4802.83
660.028	4778.25
660.22	4622.61
660.412	4841.74
660.604	4745.48
660.796	4655.37
660.988	4673.81
661.18	4587.79
661.372	4737.29
661.563	4614.41
661.755	4583.7
661.947	4643.09
662.139	4663.57
662.331	4485.39
662.522	4581.65
662.714	4538.64
662.906	4473.11
663.097	4487.44
663.289	4391.19
663.481	4385.04
663.673	4434.19
663.864	4387.09
664.056	4321.56
664.247	4251.92
664.439	4217.11
664.631	4294.93
664.822	4317.46
665.014	4151.57
665.205	4202.77
665.397	4354.32
665.588	4149.53
665.78	4227.35
665.971	4153.62
666.163	4286.74
666.354	4088.09
666.546	4153.62
666.737	3965.21
666.929	3961.11
667.12	4161.81
667.311	3909.91
667.503	4038.94
667.694	4049.18
667.885	3895.58
668.077	3973.4
668.268	3916.06
668.459	3719.45
668.651	4022.55
668.842	4053.27
669.033	3907.87
669.224	3911.96
669.416	3803.42
669.607	3916.06
669.798	3778.84
669.989	3830.04
670.18	3754.27
670.371	3774.75
670.563	3598.62
670.754	3731.74
670.945	3698.97
671.136	3580.19
671.327	3705.12
671.518	3680.54
671.709	3701.02
671.9	3723.55
672.091	3750.17
672.282	3594.53
672.473	3698.97
672.664	3572
672.855	3729.69
673.046	3557.66
673.237	3635.49
673.428	3633.44
673.619	3498.27
673.809	3514.66
674	3395.87
674.191	3572
674.382	3576.09
674.573	3572
674.764	3485.98
674.954	3465.5
675.145	3477.79
675.336	3440.93
675.527	3639.58
675.717	3297.57
675.908	3563.81
676.099	3457.31
676.289	3547.42
676.48	3469.6
676.671	3445.02
676.861	3402.02
677.052	3496.22
677.243	3389.73
677.433	3318.05
677.624	3373.35
677.814	3436.83
678.005	3440.93
678.195	3303.71
678.386	3408.16
678.576	3236.13
678.767	3273
678.957	3238.18
679.148	3367.2
679.338	3391.78
679.529	3268.9
679.719	3285.28
679.909	3373.35
680.1	3383.59
680.29	3350.82
680.481	3270.95
680.671	3309.86
680.861	3217.7
681.052	3258.66
681.242	3275.04
681.432	3309.86
681.622	3236.13
681.813	3270.95
682.003	3137.83
682.193	3299.62
682.383	3266.85
682.573	3281.19
682.764	3189.03
682.954	3146.02
683.144	3225.89
683.334	3154.21
683.524	3227.94
683.714	3088.68
683.904	3156.26
684.094	3105.06
684.284	3139.88
684.474	3207.46
684.664	3213.6
684.854	3088.68
685.044	3229.99
685.234	3109.16
685.424	3154.21
685.614	3123.49
685.804	3166.5
685.994	3180.84
686.184	3150.12
686.374	3158.31
686.564	3191.08
686.753	3082.53
686.943	2887.98
687.133	2957.61
687.323	3023.14
687.513	3023.14
687.702	2971.94
687.892	2918.7
688.082	3008.81
688.272	3074.34
688.461	3017
688.651	2892.07
688.841	3031.34
689.03	2961.7
689.22	2965.8
689.41	2908.46
689.599	2867.5
689.789	2828.59
689.979	2949.42
690.168	2810.15
690.358	2785.58
690.547	3031.34
690.737	2867.5
690.926	2771.24
691.116	2761
691.305	2842.92
691.495	2777.39
691.684	2668.84
691.874	2789.67
692.063	2697.52
692.252	2779.43
692.442	2697.52
692.631	2715.95
692.82	2705.71
693.01	2761
693.199	2687.28
693.388	2683.18
693.578	2646.32
693.767	2726.19
693.956	2619.69
694.146	2752.81
694.335	2670.89
694.524	2580.78
694.713	2775.34
694.902	2679.08
695.092	2703.66
695.281	2564.4
695.47	2507.06
695.659	2572.59
695.848	2517.29
696.037	2550.06
696.226	2582.83
696.415	2595.12
696.604	2652.46
696.793	2636.08
696.982	2552.11
697.171	2654.51
697.36	2677.04
697.549	2515.25
697.738	2507.06
697.927	2554.16
698.116	2496.82
698.305	2498.86
698.494	2474.29
698.683	2521.39
698.872	2564.4
699.061	2523.44
699.25	2517.29
699.438	2476.34
699.627	2674.99
699.816	2642.22
700.005	2527.53
700.193	2543.92
700.382	2623.79
700.571	2457.9
700.76	2535.73
700.948	2517.29
701.137	2531.63
701.326	2488.62
701.514	2470.19
701.703	2476.34
701.892	2513.2
702.08	2535.73
702.269	2548.01
702.457	2425.14
702.646	2425.14
702.834	2566.45
703.023	2457.9
703.212	2672.94
703.4	2380.08
703.589	2425.14
703.777	2423.09
703.965	2384.18
704.154	2392.37
704.342	2474.29
704.531	2378.03
704.719	2408.75
704.907	2394.42
705.096	2416.94
705.284	2400.56
705.472	2388.27
705.661	2339.12
705.849	2531.63
706.037	2523.44
706.226	2404.66
706.414	2396.46
706.602	2435.38
706.79	2486.58
706.979	2371.89
707.167	2408.75
707.355	2445.62
707.543	2369.84
707.731	2416.94
707.919	2425.14
708.107	2507.06
708.296	2361.65
708.484	2386.22
708.672	2388.27
708.86	2421.04
709.048	2400.56
709.236	2414.9
709.424	2453.81
709.612	2435.38
709.8	2367.79
709.988	2523.44
710.176	2328.88
710.364	2433.33
710.551	2441.52
710.739	2517.29
710.927	2375.99
711.115	2429.23
711.303	2314.55
711.491	2359.6
711.679	2363.7
711.866	2375.99
712.054	2343.22
712.242	2310.45
712.43	2416.94
712.617	2441.52
712.805	2425.14
712.993	2339.12
713.181	2337.07
713.368	2421.04
713.556	2392.37
713.744	2277.68
713.931	2365.75
714.119	2304.31
714.306	2421.04
714.494	2279.73
714.682	2316.59
714.869	2271.54
715.057	2285.87
715.244	2335.03
715.432	2408.75
715.619	2425.14
715.807	2423.09
715.994	2408.75
716.182	2240.82
716.369	2287.92
716.556	2277.68
716.744	2390.32
716.931	2312.5
717.119	2380.08
717.306	2345.27
717.493	2251.06
717.681	2216.24
717.868	2240.82
718.055	2453.81
718.242	2408.75
718.43	2406.7
718.617	2353.46
718.804	2310.45
718.991	2302.26
719.179	2367.79
719.366	2351.41
719.553	2353.46
719.74	2224.44
719.927	2324.79
720.114	2285.87
720.301	2220.34
720.488	2279.73
720.676	2175.28
720.863	2298.16
721.05	2236.72
721.237	2279.73
721.424	2220.34
721.611	2269.49
721.798	2287.92
721.985	2224.44
722.172	2283.83
722.358	2318.64
722.545	2273.59
722.732	2244.92
722.919	2341.17
723.106	2269.49
723.293	2384.18
723.48	2244.92
723.667	2326.83
723.853	2177.33
724.04	2335.03
724.227	2330.93
724.414	2199.86
724.6	2322.74
724.787	2328.88
724.974	2302.26
725.161	2197.81
725.347	2183.48
725.534	2171.19
725.72	2320.69
725.907	2261.3
726.094	2259.25
726.28	2195.76
726.467	2261.3
726.653	2222.39
726.84	2263.35
727.027	2199.86
727.213	2298.16
727.4	2255.15
727.586	2253.11
727.773	2249.01
727.959	2197.81
728.145	2179.38
728.332	2304.31
728.518	2253.11
728.705	2232.63
728.891	2197.81
729.077	2169.14
729.264	2310.45
729.45	2187.57
729.636	2269.49
729.823	2208.05
730.009	2226.48
730.195	2261.3
730.382	2283.83
730.568	2171.19
730.754	2208.05
730.94	2255.15
731.126	2148.66
731.313	2283.83
731.499	2220.34
731.685	2230.58
731.871	2230.58
732.057	2216.24
732.243	2310.45
732.429	2249.01
732.615	2208.05
732.801	2177.33
732.987	2238.77
733.173	2122.04
733.359	2074.93
733.545	2146.61
733.731	2179.38
733.917	2269.49
734.103	2257.2
734.289	2187.57
734.475	2109.75
734.661	2142.52
734.847	2105.65
735.033	2269.49
735.219	2173.24
735.404	2072.89
735.59	2173.24
735.776	2048.31
735.962	2038.07
736.148	2179.38
736.333	2146.61
736.519	2212.15
736.705	2105.65
736.89	2027.83
737.076	2150.71
737.262	2025.78
737.447	2048.31
737.633	2052.41
737.819	2087.22
738.004	2109.75
738.19	2097.46
738.375	2066.74
738.561	2199.86
738.747	2238.77
738.932	2066.74
739.118	2099.51
739.303	2089.27
739.489	1982.78
739.674	1974.58
739.859	2081.08
740.045	2144.56
740.23	2025.78
740.416	1872.18
740.601	2079.03
740.786	2015.54
740.972	1927.48
741.157	1999.16
741.342	1904.95
741.528	1974.58
741.713	2015.54
741.898	1950.01
742.084	1999.16
742.269	1958.2
742.454	1917.24
742.639	1995.06
742.824	1896.76
743.01	1884.47
743.195	1929.53
743.38	1976.63
743.565	1876.28
743.75	1843.51
743.935	1952.06
744.12	1900.86
744.305	1859.9
744.49	1827.13
744.675	1876.28
744.86	1845.56
745.045	1880.38
745.23	1870.14
745.415	1943.86
745.6	1847.61
745.785	1835.32
745.97	1769.79
746.155	1780.03
746.34	1739.07
746.525	1882.42
746.71	1788.22
746.895	1622.33
747.079	1677.63
747.264	1728.83
747.449	1728.83
747.634	1601.85
747.819	1747.26
748.003	1614.14
748.188	1622.33
748.373	1761.59
748.557	1702.2
748.742	1679.68
748.927	1651
749.111	1679.68
749.296	1704.25
749.481	1524.03
749.665	1651
749.85	1655.1
750.034	1618.24
750.219	1554.75
750.404	1474.88
750.588	1569.09
750.773	1507.65
750.957	1540.41
751.141	1495.36
751.326	1478.97
751.51	1687.87
751.695	1474.88
751.879	1538.37
752.064	1462.59
752.248	1417.54
752.432	1438.02
752.617	1435.97
752.801	1370.43
752.985	1384.77
753.17	1444.16
753.354	1356.1
753.538	1339.71
753.722	1278.27
753.907	1315.14
754.091	1306.95
754.275	1233.22
754.459	1354.05
754.643	1263.94
754.828	1329.47
755.012	1204.55
755.196	1216.83
755.38	1278.27
755.564	1237.31
755.748	1194.31
755.932	1313.09
756.116	1245.51
756.3	1212.74
756.484	1179.97
756.668	1239.36
756.852	1155.4
757.036	1139.01
757.22	1114.44
757.404	1192.26
757.588	1136.96
757.772	1159.49
757.956	1134.92
758.14	1139.01
758.323	1007.94
758.507	1155.4
758.691	1124.68
758.875	1155.4
759.059	1143.11
759.242	1130.82
759.426	1093.96
759.61	1065.29
759.794	1083.72
759.977	1128.77
760.161	1136.96
760.345	1083.72
760.528	1093.96
760.712	1100.1
760.895	1106.24
761.079	1069.38
761.263	1040.71
761.446	991.56
761.63	1055.05
761.813	995.65
761.997	1038.66
762.18	983.37
762.364	975.17
762.547	960.84
762.731	999.75
762.914	977.22
763.098	878.92
763.281	1024.33
763.464	919.88
763.648	1032.52
763.831	1003.85
764.015	880.97
764.198	991.56
764.381	874.82
764.564	817.48
764.748	1065.29
764.931	874.82
765.114	934.22
765.297	950.6
765.481	835.91
765.664	950.6
765.847	815.43
766.03	856.39
766.213	868.68
766.397	901.45
766.58	897.35
766.763	936.26
766.946	837.96
767.129	840.01
767.312	835.91
767.495	868.68
767.678	776.52
767.861	811.34
768.044	805.19
768.227	833.86
768.41	917.83
768.593	831.82
768.776	893.26
768.959	753.99
769.142	919.88
769.324	731.47
769.507	811.34
769.69	885.06
769.873	801.1
770.056	811.34
770.239	751.95
770.421	901.45
770.604	737.61
770.787	780.62
770.97	725.32
771.152	729.42
771.335	788.81
771.518	653.64
771.7	692.55
771.883	819.53
772.066	776.52
772.248	756.04
772.431	756.04
772.613	823.62
772.796	667.98
772.978	727.37
773.161	801.1
773.343	747.85
773.526	708.94
773.708	725.32
773.891	721.23
774.073	655.69
774.256	663.88
774.438	700.75
774.621	680.27
774.803	704.84
774.985	606.54
775.168	674.12
775.35	637.26
775.532	760.14
775.715	680.27
775.897	661.84
776.079	610.64
776.261	663.88
776.444	721.23
776.626	606.54
776.808	586.06
776.99	680.27
777.173	592.2
777.355	631.12
777.537	588.11
777.719	649.55
777.901	557.39
778.083	592.2
778.265	629.07
778.447	624.97
778.629	557.39
778.811	633.16
778.993	600.4
779.175	608.59
779.357	524.62
779.539	547.15
779.721	516.43
779.903	549.2
780.085	538.96
780.267	481.61
780.449	479.57
780.631	561.48
780.812	541.01
780.994	536.91
781.176	575.82
781.358	463.18
781.54	473.42
781.721	459.09
781.903	522.57
782.085	444.75
782.267	448.85
782.448	516.43
782.63	534.86
782.812	491.85
782.993	506.19
783.175	454.99
783.357	475.47
783.538	467.28
783.72	473.42
783.901	448.85
784.083	491.85
784.264	444.75
784.446	305.49
784.627	383.31
784.809	434.51
784.99	442.7
785.172	360.78
785.353	434.51
785.535	428.37
785.716	459.09
785.897	379.22
786.079	319.82
786.26	393.55
786.441	469.33
786.623	397.65
786.804	340.3
786.985	373.07
787.167	381.26
787.348	356.69
787.529	336.21
787.71	328.02
787.891	450.89
788.073	297.3
788.254	313.68
788.435	469.33
788.616	397.65
788.797	303.44
788.978	293.2
789.159	377.17
789.34	319.82
789.522	280.91
789.703	414.03
789.884	289.1
790.065	307.54
790.246	354.64
790.427	297.3
790.607	387.41
790.788	340.3
790.969	270.67
791.15	330.06
791.331	299.34
791.512	295.25
791.693	291.15
791.874	387.41
792.054	246.1
792.235	403.79
792.416	246.1
792.597	313.68
792.778	311.63
792.958	254.29
793.139	311.63
793.32	311.63
793.5	201.04
793.681	319.82
793.862	311.63
794.042	248.15
794.223	264.53
794.404	172.37
794.584	280.91
794.765	289.1
794.945	242
795.126	299.34
795.306	276.82
795.487	319.82
795.667	201.04
795.848	201.04
796.028	268.63
796.209	207.19
796.389	256.34
796.57	215.38
796.75	186.71
796.93	270.67
797.111	274.77
797.291	164.18
797.471	266.58
797.652	203.09
797.832	242
798.012	262.48
798.192	225.62
798.373	264.53
798.553	233.81
798.733	201.04
798.913	158.03
799.093	139.6
799.274	225.62
799.454	254.29
799.634	203.09
799.814	221.52
799.994	237.91
800.174	246.1
800.354	231.76
800.534	184.66
800.714	217.43
800.894	237.91
801.074	227.67
801.254	239.95
801.434	168.27
801.614	127.32
801.794	209.23
801.974	772.43
802.154	196.95
802.334	250.19
802.514	141.65
802.693	250.19
802.873	205.14
803.053	170.32
803.233	293.2
803.413	227.67
803.592	192.85
803.772	160.08
803.952	125.27
804.131	205.14
804.311	254.29
804.491	188.75
804.67	164.18
804.85	166.23
805.03	192.85
805.209	231.76
805.389	198.99
805.568	198.99
805.748	256.34
805.928	172.37
806.107	192.85
806.287	221.52
806.466	188.75
806.646	225.62
806.825	131.41
807.004	194.9
807.184	131.41
807.363	207.19
807.543	176.47
807.722	172.37
807.901	182.61
808.081	133.46
808.26	102.74
808.439	174.42
808.619	176.47
808.798	125.27
808.977	164.18
809.156	205.14
809.336	143.7
809.515	164.18
809.694	174.42
809.873	192.85
810.052	149.84
810.231	174.42
810.411	268.63
810.59	213.33
810.769	160.08
810.948	166.23
811.127	141.65
811.306	106.84
811.485	90.45
811.664	215.38
811.843	155.99
812.022	139.6
812.201	115.03
812.38	147.8
812.559	94.55
812.737	237.91
812.916	94.55
813.095	98.64
813.274	168.27
813.453	131.41
813.632	166.23
813.811	176.47
813.989	55.64
814.168	158.03
814.347	84.31
814.526	172.37
814.704	78.16
814.883	151.89
815.062	69.97
815.24	127.32
815.419	37.2
815.598	213.33
815.776	135.51
815.955	123.22
816.133	178.51
816.312	74.07
816.49	94.55
816.669	41.3
816.847	137.56
817.026	151.89
817.204	115.03
817.383	115.03
817.561	74.07
817.74	129.36
817.918	119.12
818.097	98.64
818.275	112.98
818.453	119.12
818.632	127.32
818.81	155.99
818.988	59.73
819.167	131.41
819.345	112.98
819.523	121.17
819.701	115.03
819.879	98.64
820.058	115.03
820.236	125.27
820.414	74.07
820.592	8.53
820.77	102.74
820.948	135.51
821.127	31.06
821.305	92.5
821.483	57.68
821.661	51.54
821.839	123.22
822.017	125.27
822.195	86.36
822.373	164.18
822.551	96.6
822.729	82.26
822.907	74.07
823.085	74.07
823.262	98.64
823.44	96.6
823.618	78.16
823.796	55.64
823.974	96.6
824.152	94.55
824.329	39.25
824.507	-13.99
824.685	33.11
824.863	141.65
825.04	74.07
825.218	78.16
825.396	72.02
825.574	80.21
825.751	147.8
825.929	43.35
826.107	115.03
826.284	94.55
826.462	67.92
826.639	106.84
826.817	76.12
826.994	41.3
827.172	29.01
827.349	184.66
827.527	80.21
827.704	119.12
827.882	123.22
828.059	51.54
828.237	20.82
828.414	127.32
828.591	26.96
828.769	90.45
828.946	65.88
829.124	106.84
829.301	149.84
829.478	141.65
829.655	123.22
829.833	90.45
830.01	53.59
830.187	98.64
830.364	74.07
830.542	45.4
830.719	78.16
830.896	24.92
831.073	96.6
831.25	80.21
831.427	33.11
831.604	65.88
831.782	26.96
831.959	106.84
832.136	74.07
832.313	131.41
832.49	-5.8
832.667	59.73
832.844	51.54
833.021	61.78
833.198	61.78
833.374	131.41
833.551	16.73
833.728	141.65
833.905	86.36
834.082	14.68
834.259	41.3
834.436	35.16
834.612	41.3
834.789	158.03
834.966	72.02
835.143	76.12
835.319	-24.23
835.496	82.26
835.673	49.49
835.85	94.55
836.026	67.92
836.203	49.49
836.38	41.3
836.556	14.68
836.733	20.82
836.909	178.51
837.086	33.11
837.262	10.58
837.439	-13.99
837.616	67.92
837.792	16.73
837.968	166.23
838.145	-24.23
838.321	41.3
838.498	22.87
838.674	82.26
838.851	43.35
839.027	18.77
839.203	65.88
839.38	63.83
839.556	4.44
839.732	82.26
839.909	98.64
840.085	90.45
840.261	96.6
840.437	-38.57
840.614	57.68
840.79	115.03
840.966	35.16
841.142	108.88
841.318	69.97
841.494	145.75
841.671	55.64
841.847	0.34
842.023	29.01
842.199	-7.85
842.375	115.03
842.551	49.49
842.727	4.44
842.903	84.31
843.079	16.73
843.255	94.55
843.431	41.3
843.607	100.69
843.783	51.54
843.959	78.16
844.134	-18.09
844.31	106.84
844.486	0.34
844.662	16.73
844.838	84.31
845.013	24.92
845.189	115.03
845.365	94.55
845.541	53.59
845.716	10.58
845.892	2.39
846.068	47.44
846.244	37.2
846.419	47.44
846.595	-13.99
846.77	10.58
846.946	59.73
847.122	26.96
847.297	33.11
847.473	82.26
847.648	-54.95
847.824	86.36
847.999	10.58
848.175	65.88
848.35	51.54
848.526	84.31
848.701	2.39
848.876	59.73
849.052	49.49
849.227	43.35
849.403	31.06
849.578	-7.85
849.753	-40.62
849.929	8.53
850.104	20.82
850.279	6.49
850.454	57.68
850.63	69.97
850.805	6.49
850.98	-40.62
851.155	33.11
851.33	110.93
851.505	-28.33
851.681	57.68
851.856	110.93
852.031	-20.14
852.206	112.98
852.381	92.5
852.556	82.26
852.731	49.49
852.906	57.68
853.081	12.63
853.256	37.2
853.431	53.59
853.606	33.11
853.781	35.16
853.956	69.97
854.131	43.35
854.305	-48.81
854.48	39.25
854.655	6.49
854.83	35.16
855.005	-57
855.18	47.44
855.354	106.84
855.529	117.08
855.704	8.53
855.879	-7.85
856.053	29.01
856.228	41.3
856.403	49.49
856.577	67.92
856.752	0.34
856.926	57.68
857.101	8.53
857.276	-61.1
857.45	4.44
857.625	37.2
857.799	33.11
857.974	59.73
858.148	-32.43
858.323	35.16
858.497	37.2
858.672	-11.95
858.846	-73.39
859.02	69.97
859.195	24.92
859.369	-11.95
859.543	16.73
859.718	20.82
859.892	-13.99
860.066	-9.9
860.241	-16.04
860.415	-13.99
860.589	16.73
860.763	65.88
860.938	41.3
861.112	37.2
861.286	80.21
861.46	0.34
861.634	22.87
861.808	106.84
861.982	-38.57
862.157	-44.71
862.331	57.68
862.505	-24.23
862.679	16.73
862.853	-18.09
863.027	0.34
863.201	51.54
863.375	-26.28
863.549	33.11
863.722	16.73
863.896	-22.19
864.07	20.82
864.244	82.26
864.418	65.88
864.592	98.64
864.766	-28.33
864.939	53.59
865.113	61.78
865.287	65.88
865.461	-11.95
865.634	2.39
865.808	4.44
865.982	8.53
866.156	69.97
866.329	33.11
866.503	-13.99
866.676	18.77
866.85	108.88
867.024	29.01
867.197	53.59
867.371	55.64
867.544	-40.62
867.718	-73.39
867.891	26.96
868.065	24.92
868.238	-24.23
868.412	20.82
868.585	-11.95
868.759	20.82
868.932	-67.24
869.105	57.68
869.279	29.01
869.452	-32.43
869.625	96.6
869.799	12.63
869.972	-38.57
870.145	4.44
870.319	-54.95
870.492	-79.53
870.665	31.06
870.838	-7.85
871.011	-40.62
871.185	-22.19
871.358	-30.38
871.531	-69.29
871.704	33.11
871.877	-79.53
872.05	-5.8
872.223	37.2
872.396	4.44
872.569	14.68
872.742	8.53
872.915	67.92
873.088	29.01
873.261	-65.19
873.434	8.53
873.607	65.88
873.78	4.44
873.953	-3.75
874.126	6.49
874.299	86.36
874.471	35.16
874.644	-13.99
874.817	98.64
874.99	57.68
875.163	8.53
875.335	16.73
875.508	24.92
875.681	33.11
875.853	33.11
876.026	98.64
876.199	8.53
876.371	8.53
876.544	49.49
876.717	51.54
876.889	-11.95
877.062	131.41
877.234	-140.97
877.407	-7.85
877.579	-5.8
877.752	63.83
877.924	10.58
878.097	-16.04
878.269	-32.43
878.442	43.35
878.614	-7.85
878.786	-30.38
878.959	0.34
879.131	16.73
879.303	-24.23
879.476	53.59
879.648	47.44
879.82	65.88
879.993	33.11
880.165	-13.99
880.337	-20.14
880.509	-57
880.681	-40.62
880.854	-16.04
881.026	37.2
881.198	78.16
881.37	-5.8
881.542	26.96
881.714	12.63
881.886	43.35
882.058	41.3
882.23	37.2
882.402	-48.81
882.574	-24.23
882.746	41.3
882.918	14.68
883.09	45.4
883.262	-18.09
883.434	-22.19
883.606	49.49
883.778	18.77
883.95	84.31
884.122	72.02
884.293	65.88
884.465	-71.34
884.637	-16.04
884.809	0.34
884.98	35.16
885.152	-40.62
885.324	24.92
885.496	-11.95
885.667	29.01
885.839	-46.76
886.011	49.49
886.182	-30.38
886.354	20.82
886.525	2.39
886.697	8.53
886.869	-46.76
887.04	-65.19
887.212	51.54
887.383	100.69
887.555	4.44
887.726	-7.85
887.897	-40.62
888.069	-42.67
888.24	-9.9
888.412	29.01
888.583	-89.77
888.754	94.55
888.926	16.73
889.097	-11.95
889.268	74.07
889.44	10.58
889.611	-22.19
889.782	72.02
889.953	-30.38
890.125	33.11
890.296	4.44
890.467	-16.04
890.638	-40.62
890.809	-46.76
890.98	53.59
891.151	49.49
891.323	-13.99
891.494	-24.23
891.665	24.92
891.836	20.82
892.007	-75.43
892.178	45.4
892.349	-16.04
892.52	8.53
892.691	45.4
892.862	-28.33
893.032	-54.95
893.203	-40.62
893.374	82.26
893.545	10.58
893.716	-3.75
893.887	76.12
894.057	-36.52
894.228	-11.95
894.399	-32.43
894.57	59.73
894.74	33.11
894.911	37.2
895.082	-11.95
895.253	-36.52
895.423	31.06
895.594	20.82
895.764	31.06
895.935	29.01
896.106	37.2
896.276	-28.33
896.447	-18.09
896.617	43.35
896.788	-30.38
896.958	-81.58
897.129	-7.85
897.299	4.44
897.47	24.92
897.64	33.11
897.81	-13.99
897.981	43.35
898.151	-73.39
898.322	59.73
898.492	82.26
898.662	-26.28
898.832	4.44
899.003	2.39
899.173	41.3
899.343	61.78
899.513	-67.24
