Data from USB4F104151__117__14-18-34-967.txt Node

Date: Thu Mar 13 14:18:34 EDT 2025
User: louis
Spectrometer: USB4F10415
Trigger mode: 4
Integration Time (sec): 2.000000E-2
Scans to average: 1
Electric dark correction enabled: true
Nonlinearity correction enabled: false
Boxcar width: 0
XAxis mode: Wavelengths
Number of Pixels in Spectrum: 3648
>>>>>Begin Spectral Data<<<<<
178.204	-98.3
178.424	-98.3
178.644	-98.3
178.864	-88.06
179.084	-133.12
179.304	86.01
179.524	-26.62
179.744	45.06
179.964	20.48
180.184	16.38
180.404	-14.34
180.624	-26.62
180.844	-102.4
181.064	-12.29
181.283	-20.48
181.503	-24.58
181.723	59.39
181.943	14.34
182.163	114.69
182.383	-30.72
182.602	8.19
182.822	18.43
183.042	18.43
183.262	40.96
183.482	-12.29
183.701	90.11
183.921	-14.34
184.141	20.48
184.361	81.92
184.58	47.1
184.8	20.48
185.02	51.2
185.239	49.15
185.459	81.92
185.679	36.86
185.898	-36.86
186.118	49.15
186.338	79.87
186.557	57.34
186.777	-2.05
186.997	18.43
187.216	8.19
187.436	55.3
187.655	79.87
187.875	57.34
188.095	79.87
188.314	81.92
188.534	110.59
188.753	49.15
188.973	12.29
189.192	131.07
189.412	55.3
189.631	16.38
189.851	57.34
190.07	38.91
190.29	81.92
190.509	22.53
190.729	49.15
190.948	65.53
191.168	108.54
191.387	104.45
191.607	49.15
191.826	12.29
192.045	92.16
192.265	20.48
192.484	22.53
192.704	47.1
192.923	30.72
193.142	51.2
193.362	92.16
193.581	10.24
193.8	79.87
194.02	94.21
194.239	79.87
194.458	-32.77
194.678	-10.24
194.897	6.14
195.116	69.63
195.335	40.96
195.555	67.58
195.774	8.19
195.993	-6.14
196.212	51.2
196.432	8.19
196.651	75.77
196.87	4.1
197.089	51.2
197.308	67.58
197.528	83.97
197.747	30.72
197.966	71.68
198.185	65.53
198.404	24.58
198.623	92.16
198.842	126.97
199.062	45.06
199.281	118.78
199.5	122.88
199.719	43.01
199.938	102.4
200.157	8.19
200.376	12.29
200.595	57.34
200.814	-4.1
201.033	40.96
201.252	18.43
201.471	57.34
201.69	65.53
201.909	24.58
202.128	57.34
202.347	81.92
202.566	10.24
202.785	-32.77
203.004	32.77
203.223	157.69
203.442	-6.14
203.661	36.86
203.879	32.77
204.098	108.54
204.317	83.97
204.536	57.34
204.755	77.82
204.974	67.58
205.193	114.69
205.411	61.44
205.63	75.77
205.849	92.16
206.068	-0
206.287	20.48
206.505	40.96
206.724	16.38
206.943	2.05
207.162	45.06
207.381	-6.14
207.599	49.15
207.818	65.53
208.037	57.34
208.255	49.15
208.474	100.35
208.693	18.43
208.911	51.2
209.13	63.49
209.349	-0
209.567	81.92
209.786	65.53
210.005	-26.62
210.223	34.82
210.442	45.06
210.661	43.01
210.879	83.97
211.098	30.72
211.316	6.14
211.535	135.17
211.753	73.73
211.972	-26.62
212.191	61.44
212.409	40.96
212.628	81.92
212.846	67.58
213.065	67.58
213.283	75.77
213.502	4.1
213.72	24.58
213.938	-38.91
214.157	61.44
214.375	49.15
214.594	16.38
214.812	30.72
215.031	16.38
215.249	38.91
215.467	55.3
215.686	67.58
215.904	-16.38
216.122	6.14
216.341	69.63
216.559	40.96
216.778	71.68
216.996	157.69
217.214	67.58
217.432	43.01
217.651	120.83
217.869	2.05
218.087	108.54
218.306	65.53
218.524	12.29
218.742	-6.14
218.96	57.34
219.179	24.58
219.397	57.34
219.615	131.07
219.833	63.49
220.051	59.39
220.27	40.96
220.488	28.67
220.706	47.1
220.924	49.15
221.142	32.77
221.36	73.73
221.578	73.73
221.796	6.14
222.015	20.48
222.233	77.82
222.451	106.49
222.669	67.58
222.887	-20.48
223.105	32.77
223.323	28.67
223.541	55.3
223.759	20.48
223.977	133.12
224.195	51.2
224.413	110.59
224.631	100.35
224.849	16.38
225.067	81.92
225.285	40.96
225.503	28.67
225.721	24.58
225.939	22.53
226.157	43.01
226.375	104.45
226.592	-0
226.81	16.38
227.028	45.06
227.246	22.53
227.464	40.96
227.682	47.1
227.9	57.34
228.117	98.3
228.335	36.86
228.553	-4.1
228.771	-47.1
228.989	61.44
229.206	106.49
229.424	26.62
229.642	75.77
229.86	16.38
230.077	10.24
230.295	65.53
230.513	22.53
230.731	-32.77
230.948	90.11
231.166	-4.1
231.384	57.34
231.601	12.29
231.819	141.31
232.037	20.48
232.254	-0
232.472	-0
232.689	73.73
232.907	98.3
233.125	-2.05
233.342	59.39
233.56	36.86
233.777	45.06
233.995	83.97
234.213	90.11
234.43	75.77
234.648	32.77
234.865	18.43
235.083	73.73
235.3	12.29
235.518	28.67
235.735	81.92
235.953	57.34
236.17	-26.62
236.388	90.11
236.605	90.11
236.822	38.91
237.04	36.86
237.257	90.11
237.475	-10.24
237.692	53.25
237.909	73.73
238.127	-20.48
238.344	81.92
238.562	47.1
238.779	-18.43
238.996	30.72
239.214	45.06
239.431	65.53
239.648	16.38
239.865	73.73
240.083	12.29
240.3	10.24
240.517	120.83
240.735	73.73
240.952	28.67
241.169	16.38
241.386	69.63
241.603	18.43
241.821	49.15
242.038	71.68
242.255	104.45
242.472	-22.53
242.689	59.39
242.907	75.77
243.124	10.24
243.341	106.49
243.558	32.77
243.775	-22.53
243.992	6.14
244.209	98.3
244.426	49.15
244.643	59.39
244.86	32.77
245.078	49.15
245.295	24.58
245.512	45.06
245.729	10.24
245.946	24.58
246.163	24.58
246.38	32.77
246.597	98.3
246.814	45.06
247.031	26.62
247.248	114.69
247.464	-32.77
247.681	53.25
247.898	22.53
248.115	51.2
248.332	26.62
248.549	49.15
248.766	28.67
248.983	57.34
249.2	43.01
249.417	67.58
249.633	-28.67
249.85	38.91
250.067	92.16
250.284	94.21
250.501	57.34
250.717	51.2
250.934	59.39
251.151	98.3
251.368	114.69
251.585	73.73
251.801	-0
252.018	57.34
252.235	73.73
252.451	65.53
252.668	57.34
252.885	61.44
253.102	77.82
253.318	83.97
253.535	28.67
253.752	53.25
253.968	-14.34
254.185	10.24
254.401	38.91
254.618	8.19
254.835	14.34
255.051	57.34
255.268	2.05
255.484	71.68
255.701	51.2
255.917	55.3
256.134	-69.63
256.351	34.82
256.567	75.77
256.784	92.16
257	-12.29
257.217	65.53
257.433	77.82
257.65	73.73
257.866	73.73
258.082	-16.38
258.299	18.43
258.515	65.53
258.732	-16.38
258.948	16.38
259.165	4.1
259.381	53.25
259.597	22.53
259.814	26.62
260.03	45.06
260.246	81.92
260.463	67.58
260.679	77.82
260.895	49.15
261.112	10.24
261.328	34.82
261.544	28.67
261.761	172.03
261.977	18.43
262.193	81.92
262.409	153.6
262.626	43.01
262.842	94.21
263.058	-4.1
263.274	24.58
263.49	34.82
263.707	90.11
263.923	30.72
264.139	45.06
264.355	67.58
264.571	73.73
264.787	22.53
265.004	26.62
265.22	71.68
265.436	96.25
265.652	49.15
265.868	57.34
266.084	-20.48
266.3	81.92
266.516	10.24
266.732	24.58
266.948	61.44
267.164	49.15
267.38	81.92
267.596	57.34
267.812	114.69
268.028	133.12
268.244	-18.43
268.46	28.67
268.676	118.78
268.892	92.16
269.108	40.96
269.324	-12.29
269.54	36.86
269.756	114.69
269.972	73.73
270.188	69.63
270.403	12.29
270.619	32.77
270.835	126.97
271.051	79.87
271.267	51.2
271.483	10.24
271.698	4.1
271.914	83.97
272.13	12.29
272.346	43.01
272.562	67.58
272.777	69.63
272.993	-22.53
273.209	30.72
273.425	143.36
273.64	45.06
273.856	81.92
274.072	43.01
274.287	24.58
274.503	45.06
274.719	61.44
274.934	55.3
275.15	12.29
275.366	34.82
275.581	-32.77
275.797	90.11
276.012	-0
276.228	75.77
276.444	88.06
276.659	112.64
276.875	57.34
277.09	36.86
277.306	18.43
277.521	122.88
277.737	20.48
277.952	131.07
278.168	-24.58
278.383	114.69
278.599	45.06
278.814	141.31
279.03	77.82
279.245	92.16
279.461	47.1
279.676	124.93
279.892	36.86
280.107	-8.19
280.322	12.29
280.538	69.63
280.753	57.34
280.969	40.96
281.184	53.25
281.399	83.97
281.615	43.01
281.83	-14.34
282.045	-6.14
282.26	36.86
282.476	-16.38
282.691	90.11
282.906	26.62
283.122	16.38
283.337	57.34
283.552	108.54
283.767	49.15
283.983	8.19
284.198	20.48
284.413	79.87
284.628	118.78
284.843	32.77
285.058	22.53
285.274	28.67
285.489	-2.05
285.704	53.25
285.919	43.01
286.134	40.96
286.349	10.24
286.564	-4.1
286.779	34.82
286.995	32.77
287.21	51.2
287.425	43.01
287.64	63.49
287.855	53.25
288.07	-12.29
288.285	88.06
288.5	49.15
288.715	8.19
288.93	49.15
289.145	59.39
289.36	65.53
289.575	-6.14
289.79	32.77
290.004	2.05
290.219	34.82
290.434	57.34
290.649	-8.19
290.864	-0
291.079	8.19
291.294	108.54
291.509	-0
291.724	-22.53
291.938	-57.34
292.153	-20.48
292.368	-32.77
292.583	83.97
292.798	49.15
293.012	24.58
293.227	-14.34
293.442	110.59
293.657	77.82
293.871	16.38
294.086	-2.05
294.301	61.44
294.516	104.45
294.73	69.63
294.945	69.63
295.16	49.15
295.374	98.3
295.589	81.92
295.804	43.01
296.018	92.16
296.233	81.92
296.447	65.53
296.662	-16.38
296.877	90.11
297.091	20.48
297.306	65.53
297.52	-4.1
297.735	63.49
297.949	40.96
298.164	10.24
298.378	2.05
298.593	55.3
298.807	90.11
299.022	10.24
299.236	65.53
299.451	81.92
299.665	30.72
299.88	49.15
300.094	75.77
300.309	81.92
300.523	102.4
300.737	51.2
300.952	90.11
301.166	100.35
301.381	49.15
301.595	45.06
301.809	32.77
302.024	73.73
302.238	8.19
302.452	53.25
302.667	8.19
302.881	-14.34
303.095	118.78
303.309	6.14
303.524	61.44
303.738	8.19
303.952	32.77
304.166	12.29
304.381	-4.1
304.595	135.17
304.809	-57.34
305.023	81.92
305.237	-8.19
305.452	90.11
305.666	45.06
305.88	71.68
306.094	59.39
306.308	45.06
306.522	51.2
306.736	73.73
306.95	43.01
307.164	-8.19
307.379	18.43
307.593	114.69
307.807	10.24
308.021	118.78
308.235	-14.34
308.449	16.38
308.663	55.3
308.877	77.82
309.091	8.19
309.305	57.34
309.519	40.96
309.733	81.92
309.947	32.77
310.161	-6.14
310.374	92.16
310.588	81.92
310.802	86.01
311.016	28.67
311.23	151.55
311.444	18.43
311.658	6.14
311.872	65.53
312.085	-38.91
312.299	61.44
312.513	53.25
312.727	141.31
312.941	43.01
313.154	108.54
313.368	61.44
313.582	81.92
313.796	59.39
314.009	53.25
314.223	26.62
314.437	114.69
314.651	30.72
314.864	81.92
315.078	59.39
315.292	24.58
315.505	65.53
315.719	71.68
315.933	-4.1
316.146	24.58
316.36	-14.34
316.573	126.97
316.787	94.21
317.001	45.06
317.214	12.29
317.428	114.69
317.641	77.82
317.855	122.88
318.068	-36.86
318.282	59.39
318.495	55.3
318.709	49.15
318.922	104.45
319.136	98.3
319.349	139.26
319.563	108.54
319.776	98.3
319.99	8.19
320.203	16.38
320.417	-2.05
320.63	110.59
320.843	114.69
321.057	8.19
321.27	32.77
321.483	53.25
321.697	16.38
321.91	40.96
322.124	145.41
322.337	24.58
322.55	-14.34
322.763	98.3
322.977	77.82
323.19	36.86
323.403	61.44
323.617	57.34
323.83	73.73
324.043	73.73
324.256	28.67
324.469	-0
324.683	65.53
324.896	104.45
325.109	-0
325.322	16.38
325.535	65.53
325.748	100.35
325.962	30.72
326.175	32.77
326.388	75.77
326.601	131.07
326.814	14.34
327.027	67.58
327.24	176.13
327.453	-38.91
327.666	94.21
327.879	151.55
328.092	122.88
328.305	43.01
328.518	26.62
328.731	26.62
328.944	40.96
329.157	81.92
329.37	47.1
329.583	77.82
329.796	90.11
330.009	12.29
330.222	40.96
330.435	81.92
330.648	24.58
330.861	67.58
331.073	94.21
331.286	75.77
331.499	100.35
331.712	61.44
331.925	36.86
332.138	69.63
332.35	75.77
332.563	14.34
332.776	34.82
332.989	28.67
333.202	-20.48
333.414	83.97
333.627	98.3
333.84	49.15
334.053	63.49
334.265	26.62
334.478	73.73
334.691	24.58
334.903	45.06
335.116	-4.1
335.329	65.53
335.541	34.82
335.754	83.97
335.966	73.73
336.179	65.53
336.392	75.77
336.604	86.01
336.817	-30.72
337.029	63.49
337.242	98.3
337.454	32.77
337.667	81.92
337.88	94.21
338.092	12.29
338.305	81.92
338.517	20.48
338.729	90.11
338.942	102.4
339.154	-20.48
339.367	67.58
339.579	61.44
339.792	20.48
340.004	77.82
340.217	126.97
340.429	100.35
340.641	-20.48
340.854	67.58
341.066	38.91
341.278	65.53
341.491	94.21
341.703	36.86
341.915	40.96
342.128	90.11
342.34	77.82
342.552	16.38
342.764	20.48
342.977	40.96
343.189	59.39
343.401	71.68
343.613	-16.38
343.826	-0
344.038	-8.19
344.25	81.92
344.462	2.05
344.674	-20.48
344.886	32.77
345.099	73.73
345.311	51.2
345.523	73.73
345.735	47.1
345.947	90.11
346.159	14.34
346.371	61.44
346.583	16.38
346.795	40.96
347.007	28.67
347.219	26.62
347.431	133.12
347.643	143.36
347.855	-22.53
348.067	133.12
348.279	34.82
348.491	81.92
348.703	59.39
348.915	34.82
349.127	59.39
349.339	-4.1
349.551	49.15
349.763	8.19
349.975	65.53
350.187	53.25
350.399	94.21
350.61	69.63
350.822	67.58
351.034	147.45
351.246	22.53
351.458	57.34
351.669	122.88
351.881	-20.48
352.093	8.19
352.305	61.44
352.517	94.21
352.728	49.15
352.94	98.3
353.152	14.34
353.363	40.96
353.575	126.97
353.787	53.25
353.999	36.86
354.21	112.64
354.422	24.58
354.633	-28.67
354.845	81.92
355.057	51.2
355.268	40.96
355.48	-49.15
355.692	51.2
355.903	26.62
356.115	34.82
356.326	61.44
356.538	147.45
356.749	28.67
356.961	69.63
357.172	114.69
357.384	86.01
357.595	122.88
357.807	126.97
358.018	114.69
358.23	73.73
358.441	6.14
358.653	47.1
358.864	100.35
359.075	79.87
359.287	69.63
359.498	59.39
359.709	-4.1
359.921	12.29
360.132	61.44
360.344	67.58
360.555	32.77
360.766	77.82
360.977	43.01
361.189	98.3
361.4	98.3
361.611	139.26
361.823	69.63
362.034	94.21
362.245	90.11
362.456	49.15
362.667	40.96
362.879	8.19
363.09	73.73
363.301	83.97
363.512	122.88
363.723	45.06
363.935	131.07
364.146	92.16
364.357	16.38
364.568	47.1
364.779	69.63
364.99	118.78
365.201	26.62
365.412	122.88
365.623	6.14
365.834	83.97
366.045	30.72
366.256	12.29
366.467	94.21
366.678	34.82
366.889	65.53
367.1	4.1
367.311	-0
367.522	83.97
367.733	69.63
367.944	32.77
368.155	-0
368.366	8.19
368.577	73.73
368.788	26.62
368.999	16.38
369.209	116.73
369.42	51.2
369.631	34.82
369.842	112.64
370.053	34.82
370.264	71.68
370.474	53.25
370.685	108.54
370.896	106.49
371.107	92.16
371.317	81.92
371.528	73.73
371.739	110.59
371.95	147.45
372.16	124.93
372.371	20.48
372.582	24.58
372.792	61.44
373.003	131.07
373.214	90.11
373.424	24.58
373.635	59.39
373.846	34.82
374.056	18.43
374.267	32.77
374.477	86.01
374.688	34.82
374.898	-53.25
375.109	106.49
375.319	75.77
375.53	65.53
375.74	57.34
375.951	16.38
376.161	71.68
376.372	135.17
376.582	59.39
376.793	90.11
377.003	53.25
377.214	40.96
377.424	55.3
377.635	-8.19
377.845	83.97
378.055	139.26
378.266	-2.05
378.476	69.63
378.686	59.39
378.897	59.39
379.107	151.55
379.317	40.96
379.528	102.4
379.738	143.36
379.948	-6.14
380.158	75.77
380.369	98.3
380.579	83.97
380.789	88.06
380.999	49.15
381.21	122.88
381.42	38.91
381.63	57.34
381.84	49.15
382.05	100.35
382.261	69.63
382.471	90.11
382.681	53.25
382.891	118.78
383.101	116.73
383.311	137.21
383.521	4.1
383.731	129.02
383.941	141.31
384.151	10.24
384.361	61.44
384.571	-10.24
384.781	98.3
384.991	108.54
385.201	108.54
385.411	20.48
385.621	100.35
385.831	102.4
386.041	73.73
386.251	22.53
386.461	147.45
386.671	65.53
386.881	36.86
387.091	2.05
387.301	202.75
387.511	-6.14
387.72	155.65
387.93	104.45
388.14	36.86
388.35	28.67
388.56	81.92
388.769	83.97
388.979	40.96
389.189	71.68
389.399	92.16
389.609	147.45
389.818	51.2
390.028	104.45
390.238	22.53
390.447	88.06
390.657	141.31
390.867	51.2
391.076	16.38
391.286	94.21
391.496	108.54
391.705	45.06
391.915	92.16
392.125	69.63
392.334	94.21
392.544	106.49
392.753	139.26
392.963	53.25
393.172	61.44
393.382	24.58
393.591	133.12
393.801	75.77
394.01	81.92
394.22	102.4
394.429	77.82
394.639	24.58
394.848	155.65
395.058	79.87
395.267	75.77
395.477	51.2
395.686	176.13
395.895	155.65
396.105	116.73
396.314	88.06
396.524	71.68
396.733	63.49
396.942	147.45
397.152	149.5
397.361	118.78
397.57	88.06
397.78	71.68
397.989	45.06
398.198	157.69
398.407	151.55
398.617	98.3
398.826	141.31
399.035	98.3
399.244	88.06
399.453	94.21
399.663	143.36
399.872	223.23
400.081	53.25
400.29	83.97
400.499	143.36
400.708	126.97
400.917	40.96
401.127	36.86
401.336	43.01
401.545	114.69
401.754	67.58
401.963	131.07
402.172	77.82
402.381	139.26
402.59	188.41
402.799	163.84
403.008	98.3
403.217	92.16
403.426	114.69
403.635	73.73
403.844	106.49
404.053	114.69
404.262	108.54
404.471	188.41
404.68	151.55
404.888	108.54
405.097	94.21
405.306	112.64
405.515	122.88
405.724	147.45
405.933	163.84
406.142	141.31
406.35	108.54
406.559	194.56
406.768	180.22
406.977	174.08
407.185	114.69
407.394	163.84
407.603	258.04
407.812	221.18
408.02	243.71
408.229	227.32
408.438	237.56
408.646	210.94
408.855	231.42
409.064	212.99
409.272	286.72
409.481	217.08
409.69	231.42
409.898	200.7
410.107	231.42
410.315	311.29
410.524	192.51
410.733	360.44
410.941	352.25
411.15	286.72
411.358	344.06
411.567	278.52
411.775	262.14
411.984	368.63
412.192	389.11
412.401	368.63
412.609	382.97
412.818	339.96
413.026	397.31
413.234	378.87
413.443	442.36
413.651	430.07
413.86	380.92
414.068	499.7
414.276	528.38
414.485	462.84
414.693	471.03
414.901	632.82
415.11	534.52
415.318	600.05
415.526	546.81
415.734	630.77
415.943	569.34
416.151	612.34
416.359	612.34
416.567	657.4
416.776	655.35
416.984	681.97
417.192	747.51
417.4	757.75
417.608	761.84
417.817	755.7
418.025	819.19
418.233	931.83
418.441	866.29
418.649	901.11
418.857	1040.37
419.065	1009.65
419.273	1028.08
419.481	1017.84
419.689	1091.57
419.897	1130.48
420.105	1251.31
420.313	1116.14
420.521	1214.45
420.729	1214.45
420.937	1253.36
421.145	1372.14
421.353	1359.85
421.561	1425.39
421.769	1540.07
421.977	1499.11
422.185	1525.74
422.393	1607.66
422.601	1662.95
422.809	1671.14
423.017	1658.85
423.224	1765.35
423.432	1826.79
423.64	1832.93
423.848	1855.46
424.056	1894.37
424.263	2019.3
424.471	1966.05
424.679	2097.12
424.887	2242.53
425.094	2230.24
425.302	2275.29
425.51	2289.63
425.718	2441.18
425.925	2508.76
426.133	2596.82
426.341	2635.74
426.548	2910.16
426.756	2809.81
426.964	2879.44
427.171	2987.99
427.379	3065.81
427.586	3108.82
427.794	3352.52
428.001	3456.97
428.209	3592.14
428.417	3631.05
428.624	3733.45
428.832	3661.77
429.039	3778.5
429.247	3745.73
429.454	4089.79
429.662	4337.6
429.869	4036.55
430.076	4429.76
430.284	4229.06
430.491	4487.1
430.699	4736.95
430.906	4728.76
431.114	4695.99
431.321	5025.72
431.528	5011.38
431.736	5326.77
431.943	5599.15
432.15	5267.38
432.358	5365.68
432.565	5769.13
432.772	5738.41
432.979	5836.71
433.187	6104.99
433.394	6148
433.601	6506.4
433.808	6586.27
434.016	6492.06
434.223	6807.45
434.43	7122.84
434.637	7131.03
434.844	7466.89
435.052	7561.1
435.259	7450.51
435.466	7616.4
435.673	7614.35
435.88	8132.48
436.087	8433.54
436.294	8464.25
436.501	8216.45
436.708	8589.18
436.915	8695.68
437.122	9133.94
437.329	8865.66
437.537	9201.52
437.743	9568.11
437.95	9453.42
438.157	9863.02
438.364	10143.59
438.571	10157.92
438.778	10256.23
438.985	11401.04
439.192	10762.08
439.399	11134.81
439.606	10807.13
439.813	11517.78
440.02	12121.93
440.227	12267.33
440.433	11937.61
440.64	12283.72
440.847	12209.99
441.054	12453.7
441.261	13168.44
441.467	13188.92
441.674	13422.39
441.881	13920.04
442.088	13819.69
442.294	13680.43
442.501	14069.55
442.708	14323.49
442.914	14921.5
443.121	15421.2
443.328	15167.26
443.534	16133.9
443.741	15572.75
443.948	15560.47
444.154	16377.61
444.361	16412.42
444.568	16860.93
444.774	16727.81
444.981	16791.3
445.187	17645.3
445.394	17907.44
445.6	17850.1
445.807	19539.67
446.013	18650.85
446.22	19074.78
446.426	19488.47
446.633	19859.15
446.839	20664
447.046	19672.79
447.252	20764.36
447.459	20893.38
447.665	20502.22
447.871	21737.14
448.078	22515.37
448.284	21440.18
448.491	22206.13
448.697	22879.91
448.903	23287.45
449.11	23277.21
449.316	23103.14
449.522	23576.22
449.728	23922.32
449.935	24307.34
450.141	24401.55
450.347	24848
450.553	24104.59
450.76	24168.08
450.966	25079.43
451.172	24649.35
451.378	25507.45
451.584	24819.33
451.791	25593.47
451.997	25839.22
452.203	25998.96
452.409	26066.55
452.615	26068.59
452.821	25265.79
453.027	24888.96
453.233	25906.8
453.44	25235.07
453.646	25491.07
453.852	25601.66
454.058	25921.14
454.264	25224.83
454.47	25497.21
454.676	24696.46
454.882	26132.08
455.088	23627.42
455.294	24002.19
455.5	24592.01
455.705	24714.89
455.911	23463.58
456.117	23150.24
456.323	22998.69
456.529	21872.31
456.735	22675.11
456.941	22236.84
457.147	21741.24
457.352	21421.75
457.558	20833.99
457.764	20911.81
457.97	20668.1
458.176	20344.52
458.381	20176.59
458.587	19273.43
458.793	19132.12
458.999	18255.59
459.204	19656.4
459.41	18777.83
459.616	17784.56
459.821	17770.22
460.027	17821.42
460.233	17116.92
460.438	16531.2
460.644	16723.71
460.85	16074.51
461.055	15900.43
461.261	15578.9
461.466	14509.86
461.672	14018.35
461.878	15107.87
462.083	14194.47
462.289	13780.78
462.494	13872.94
462.7	13309.75
462.905	12830.52
463.111	13250.36
463.316	13199.16
463.522	12926.78
463.727	13107
463.932	13006.65
464.138	12826.43
464.343	12615.49
464.549	12431.17
464.754	12713.79
464.959	12578.62
465.165	12732.22
465.37	12037.96
465.575	11753.29
465.781	12228.42
465.986	12228.42
466.191	11741
466.397	11644.75
466.602	10960.73
466.807	11378.51
467.012	11525.97
467.218	11552.59
467.423	11202.39
467.628	11417.43
467.833	11779.92
468.038	11566.93
468.244	11206.49
468.449	11525.97
468.654	11212.63
468.859	10960.73
469.064	10909.53
469.269	10643.29
469.474	10714.97
469.679	11054.94
469.885	10446.69
470.09	10706.78
470.295	10749.79
470.5	10360.67
470.705	10440.54
470.91	10194.79
471.115	10190.69
471.32	10297.19
471.525	10149.73
471.73	10020.71
471.935	9723.76
472.139	9443.18
472.344	9514.86
472.549	9654.12
472.754	9355.12
472.959	9383.79
473.164	9064.31
473.369	9062.26
473.574	9478
473.778	9383.79
473.983	9283.44
474.188	8953.72
474.393	8810.36
474.598	8691.58
474.802	8611.71
475.007	8822.65
475.212	8742.78
475.417	8454.01
475.621	8368
475.826	8357.76
476.031	8263.55
476.235	8114.05
476.44	8191.87
476.645	8081.28
476.849	7982.98
477.054	8015.75
477.259	7847.82
477.463	7942.02
477.668	7778.19
477.872	7667.59
478.077	7579.53
478.282	7268.24
478.486	7323.54
478.691	7389.07
478.895	7552.91
479.1	7030.68
479.304	7249.81
479.509	7063.44
479.713	7176.08
479.918	6936.47
480.122	7063.44
480.326	7135.12
480.531	7276.43
480.735	7014.29
480.94	6864.79
481.144	7042.96
481.348	6498.2
481.553	6713.24
481.757	6612.89
481.961	6713.24
482.166	6860.7
482.37	6868.89
482.574	6637.47
482.778	6703
482.983	6860.7
483.187	6674.33
483.391	6729.63
483.595	6514.59
483.8	6651.8
484.004	6647.71
484.208	6629.27
484.412	6676.38
484.616	6619.03
484.821	6694.81
485.025	6614.94
485.229	6750.1
485.433	6586.27
485.637	6627.23
485.841	6659.99
486.045	6850.46
486.249	6768.54
486.453	6561.69
486.657	6627.23
486.861	6799.26
487.065	6430.62
487.269	6635.42
487.473	6737.82
487.677	6754.2
487.881	6746.01
488.085	6569.88
488.289	6887.32
488.493	6659.99
488.697	6688.67
488.901	6612.89
489.105	6770.58
489.309	6776.73
489.512	6731.67
489.716	6791.06
489.92	6645.66
490.124	6705.05
490.328	6743.96
490.531	6719.39
490.735	6799.26
490.939	6780.82
491.143	6645.66
491.346	6784.92
491.55	7008.15
491.754	6987.67
491.958	6969.24
492.161	6864.79
492.365	7190.42
492.569	6926.23
492.772	7081.88
492.976	6979.48
493.18	7065.49
493.383	7155.6
493.587	7241.62
493.79	7227.28
493.994	7063.44
494.197	7223.19
494.401	7452.56
494.605	7372.69
494.808	7522.19
495.012	7407.5
495.215	7516.05
495.419	7630.73
495.622	7440.27
495.825	7649.16
496.029	7649.16
496.232	7753.61
496.436	7788.43
496.639	8093.57
496.843	7946.12
497.046	8069
497.249	8284.03
497.453	8298.37
497.656	8368
497.859	8200.07
498.063	8359.81
498.266	8611.71
498.469	8580.99
498.673	8591.23
498.876	8896.38
499.079	8963.96
499.282	8920.95
499.485	9004.92
499.689	9095.03
499.892	9400.18
500.095	9256.82
500.298	9453.42
500.501	9394.03
500.705	9500.53
500.908	9906.02
501.111	9920.36
501.314	9944.94
501.517	9961.32
501.72	10325.86
501.923	10059.62
502.126	10276.71
502.329	10581.85
502.532	10551.13
502.735	10645.34
502.938	10899.29
503.141	10889.05
503.344	11036.5
503.547	11282.26
503.75	11020.12
503.953	11460.43
504.156	11466.58
504.359	11575.12
504.562	11667.28
504.765	11953.99
504.968	11976.52
505.17	12148.55
505.373	12230.47
505.576	12271.43
505.779	12517.18
505.982	12443.46
506.185	12779.33
506.387	12947.26
506.59	12816.19
506.793	13055.8
506.996	13369.14
507.198	13381.43
507.401	13639.47
507.604	13420.34
507.807	13881.13
508.009	13889.32
508.212	13977.39
508.415	14296.87
508.617	14284.58
508.82	14450.47
509.022	14135.08
509.225	14819.1
509.428	14939.93
509.63	14792.48
509.833	14952.22
510.035	15367.96
510.238	15433.49
510.44	15390.49
510.643	15640.34
510.845	15855.37
511.048	15804.17
511.25	15996.68
511.453	16181
511.655	16580.35
511.858	16246.54
512.06	16645.89
512.262	16783.1
512.465	16879.36
512.667	17180.41
512.87	17383.16
513.072	17524.47
513.274	17737.46
513.477	17936.11
513.679	18169.58
513.881	18018.03
514.084	18286.31
514.286	18329.32
514.488	18702.05
514.69	18743.01
514.893	18949.85
515.095	19001.05
515.297	19279.58
515.499	19056.35
515.701	19396.31
515.904	19644.12
516.106	19719.89
516.308	20192.97
516.51	20430.54
516.712	20272.84
516.914	20608.71
517.116	20743.88
517.318	21020.35
517.52	21208.76
517.722	21407.42
517.925	21335.74
518.127	21845.68
518.329	22038.19
518.531	21835.44
518.733	22202.03
518.935	22492.84
519.136	22236.84
519.338	22861.48
519.54	22826.66
519.742	23000.74
519.944	23365.28
520.146	23543.45
520.348	23617.18
520.55	23590.55
520.752	23535.26
520.954	24333.96
521.155	24092.3
521.357	24503.95
521.559	24790.66
521.761	25155.2
521.963	25044.61
522.164	24968.83
522.366	25441.92
522.568	25507.45
522.77	25564.79
522.971	25742.97
523.173	25859.7
523.375	26105.46
523.576	25763.45
523.778	26115.7
523.98	26685.03
524.181	26660.46
524.383	26547.82
524.584	27299.42
524.786	27143.78
524.988	26826.34
525.189	27172.45
525.391	27375.2
525.592	27528.8
525.794	27670.11
525.995	27995.73
526.197	27629.15
526.398	27958.87
526.6	28182.1
526.801	28134.99
527.003	28192.34
527.204	28048.98
527.406	28642.89
527.607	28921.41
527.808	28669.51
528.01	28167.76
528.211	29023.81
528.412	29251.14
528.614	29044.29
528.815	28984.9
529.016	29359.68
529.218	28751.43
529.419	29193.79
529.62	29271.62
529.822	29150.79
530.023	29414.98
530.224	29167.17
530.425	29525.57
530.626	29591.1
530.828	29288
531.029	30105.14
531.23	29914.68
531.431	29306.43
531.632	29808.19
531.833	29863.48
532.035	30037.56
532.236	29713.98
532.437	30250.55
532.638	29869.62
532.839	30342.7
533.04	29812.28
533.241	29998.65
533.442	30281.27
533.643	30254.64
533.844	30285.36
534.045	30015.03
534.246	29785.66
534.447	30375.47
534.648	29953.59
534.849	30080.56
535.05	30070.33
535.251	30228.02
535.451	29986.36
535.652	30508.59
535.853	30039.61
536.054	30234.16
536.255	30529.07
536.456	30148.15
536.657	30410.29
536.857	29795.9
537.058	30248.5
537.259	30410.29
537.46	30262.83
537.66	30123.57
537.861	30436.91
538.062	30207.54
538.263	30148.15
538.463	30090.8
538.664	29994.55
538.865	30299.7
539.065	30334.51
539.266	29990.45
539.466	30295.6
539.667	29650.49
539.868	30119.48
540.068	30137.91
540.269	30256.69
540.469	30250.55
540.67	30101.04
540.87	30055.99
541.071	29824.57
541.271	30096.95
541.472	30088.76
541.672	30043.7
541.873	30047.8
542.073	29761.08
542.274	30043.7
542.474	29666.88
542.675	29926.97
542.875	30318.13
543.075	30240.31
543.276	29754.94
543.476	30041.65
543.676	29681.21
543.877	30047.8
544.077	29898.3
544.277	29779.51
544.478	29615.68
544.678	29924.92
544.878	30010.93
545.078	30043.7
545.279	29695.55
545.479	29922.87
545.679	29797.95
545.879	30137.91
546.079	30113.33
546.28	29879.86
546.48	29636.16
546.68	29728.31
546.88	29652.54
547.08	29888.06
547.28	29711.93
547.48	29713.98
547.68	29820.47
547.88	29716.03
548.081	30010.93
548.281	29752.89
548.481	29296.19
548.681	29904.44
548.881	29564.48
549.081	29433.41
549.28	29300.29
549.48	29707.83
549.68	29421.12
549.88	30146.1
550.08	29582.91
550.28	29601.34
550.48	29664.83
550.68	29916.73
550.88	29548.09
551.08	29490.75
551.279	29226.56
551.479	29462.08
551.679	29662.78
551.879	29476.41
552.079	29435.45
552.278	29249.09
552.478	29396.54
552.678	29630.01
552.878	29587
553.077	29711.93
553.277	29064.77
553.477	29580.86
553.676	29204.03
553.876	29681.21
554.076	29589.05
554.275	29165.12
554.475	28880.46
554.674	29279.81
554.874	29058.63
555.074	29099.59
555.273	29404.74
555.473	29437.5
555.672	28958.28
555.872	29232.71
556.071	29333.06
556.271	29228.61
556.47	28859.98
556.67	28792.39
556.869	28960.33
557.068	29046.34
557.268	28993.09
557.467	29052.48
557.667	28868.17
557.866	28974.66
558.065	29050.44
558.265	28681.8
558.464	28401.23
558.663	29234.75
558.863	28692.04
559.062	29064.77
559.261	28364.37
559.461	28649.03
559.66	28282.45
559.859	28515.92
560.058	28425.81
560.258	28417.61
560.457	28329.55
560.656	28595.79
560.855	28173.91
561.054	28513.87
561.253	27858.52
561.453	28436.05
561.652	28192.34
561.851	28309.07
562.05	28147.28
562.249	27979.35
562.448	28071.51
562.647	27940.44
562.846	28167.76
563.045	28438.09
563.244	27876.95
563.443	28018.26
563.642	27258.46
563.841	27645.53
564.04	27426.4
564.239	27735.64
564.438	27676.25
564.637	27453.02
564.836	27418.21
565.035	27340.38
565.234	27528.8
565.432	27676.25
565.631	27072.1
565.83	27348.57
566.029	26973.8
566.228	27219.55
566.427	27070.05
566.625	27201.12
566.824	26898.02
567.023	26680.94
567.222	26701.42
567.42	27268.7
567.619	27061.86
567.818	26689.13
568.016	26756.71
568.215	26871.4
568.414	26482.28
568.612	27149.92
568.811	26551.91
569.01	26433.13
569.208	26220.14
569.407	26465.9
569.605	25767.54
569.804	26222.19
570.002	26111.6
570.201	26340.97
570.4	25964.15
570.598	26238.58
570.797	26074.74
570.995	25871.99
571.193	25509.5
571.392	26072.69
571.59	25357.95
571.789	25949.81
571.987	25544.31
572.186	25292.41
572.384	25321.09
572.582	25546.36
572.781	25581.18
572.979	25038.47
573.177	25110.14
573.376	25187.97
573.574	24962.69
573.772	25421.44
573.971	24931.97
574.169	25024.13
574.367	24977.03
574.565	24956.55
574.763	24567.43
574.962	24802.95
575.16	24761.99
575.358	24921.73
575.556	24710.79
575.754	24901.25
575.952	24301.2
576.151	24675.98
576.349	24346.25
576.547	24313.48
576.745	24102.54
576.943	24338.06
577.141	23989.91
577.339	24354.44
577.537	24153.74
577.735	24184.46
577.933	23531.16
578.131	23821.97
578.329	23766.68
578.527	23402.14
578.725	23981.71
578.923	23760.53
579.121	23879.32
579.319	23533.21
579.516	23645.85
579.714	23490.2
579.912	23563.93
580.11	23307.93
580.308	23463.58
580.506	23064.22
580.704	22720.17
580.901	23281.31
581.099	23178.91
581.297	22945.44
581.495	22879.91
581.692	23025.31
581.89	22736.55
582.088	22939.3
582.285	22642.34
582.483	23096.99
582.681	22863.52
582.878	22744.74
583.076	22490.79
583.274	22630.05
583.471	22498.98
583.669	22431.4
583.866	22173.36
584.064	22668.97
584.262	21814.96
584.459	22496.94
584.657	21954.22
584.854	22042.29
585.052	21419.71
585.249	22138.54
585.447	21972.66
585.644	21634.74
585.841	21536.44
586.039	21706.42
586.236	21333.69
586.434	21571.25
586.631	21356.22
586.828	21434.04
587.026	21558.97
587.223	21726.9
587.42	21481.14
587.618	21245.63
587.815	20852.42
588.012	20979.39
588.21	20727.49
588.407	21477.05
588.604	21118.65
588.801	21112.51
588.999	20809.41
589.196	20534.98
589.393	20541.13
589.59	20772.55
589.787	20623.05
589.984	20577.99
590.182	20106.96
590.379	20680.39
590.576	20231.88
590.773	20655.81
590.97	20367.05
591.167	20217.55
591.364	19902.16
591.561	20299.47
591.758	19965.65
591.955	19973.84
592.152	20254.41
592.349	19666.64
592.546	19920.59
592.743	19816.15
592.94	19570.39
593.137	19719.89
593.334	19533.53
593.531	19355.35
593.727	19793.62
593.924	19701.46
594.121	19400.41
594.318	19529.43
594.515	19093.21
594.712	19246.81
594.908	19246.81
595.105	19009.25
595.302	19087.07
595.499	19125.98
595.696	18972.38
595.892	18878.18
596.089	18947.81
596.286	19187.42
596.482	18792.16
596.679	18616.04
596.876	18603.75
597.072	18654.95
597.269	18718.43
597.466	18689.76
597.662	18538.21
597.859	18312.94
598.055	18468.58
598.252	18091.76
598.448	18087.66
598.645	18198.25
598.841	17897.2
599.038	18239.21
599.234	17874.67
599.431	17862.38
599.627	17909.49
599.824	17858.29
600.02	17833.71
600.217	17620.72
600.413	17737.46
600.609	17932.01
600.806	17614.58
601.002	17473.27
601.198	17596.15
601.395	17530.61
601.591	17374.97
601.787	17585.91
601.984	17420.02
602.18	17420.02
602.376	17141.5
602.572	17161.98
602.769	17182.46
602.965	17004.28
603.161	17002.24
603.357	17035
603.553	16875.26
603.75	16758.53
603.946	16637.7
604.142	16557.83
604.338	16885.5
604.534	16647.94
604.73	16643.84
604.926	16381.7
605.122	16623.36
605.318	16172.81
605.514	16473.86
605.71	16393.99
605.906	16428.81
606.102	16398.09
606.298	15994.64
606.494	16371.46
606.69	16041.74
606.886	15892.24
607.082	16074.51
607.278	16164.62
607.474	15828.75
607.67	16086.79
607.866	15775.5
608.062	15916.81
608.257	15925
608.453	15755.02
608.649	16015.12
608.845	15757.07
609.041	15593.23
609.236	15791.89
609.432	15744.78
609.628	15605.52
609.824	15740.69
610.019	15607.57
610.215	15513.36
610.411	15509.27
610.606	15347.48
610.802	15486.74
610.998	15644.43
611.193	15157.02
611.389	15187.74
611.584	15406.87
611.78	15173.4
611.976	15075.1
612.171	15433.49
612.367	15032.09
612.562	15247.13
612.758	14894.88
612.953	14950.17
613.149	15415.06
613.344	15081.24
613.539	15073.05
613.735	15064.86
613.93	15124.25
614.126	14888.73
614.321	14929.69
614.517	14960.41
614.712	14978.84
614.907	14724.9
615.103	14724.9
615.298	14804.77
615.493	14860.06
615.688	14534.43
615.884	15122.2
616.079	14532.39
616.274	14796.57
616.47	14513.95
616.665	14737.18
616.86	14483.24
617.055	14356.26
617.25	14577.44
617.445	14536.48
617.641	14389.03
617.836	14503.71
618.031	14190.38
618.226	14202.66
618.421	14188.33
618.616	14356.26
618.811	14135.08
619.006	14024.49
619.201	13983.53
619.396	14159.66
619.591	13893.42
619.786	14067.5
619.981	13797.17
620.176	13995.82
620.371	13621.04
620.566	13825.84
620.761	13827.88
620.956	13791.02
621.151	13459.25
621.346	13360.95
621.541	13281.08
621.735	13764.4
621.93	13092.66
622.125	13270.84
622.32	13094.71
622.515	12865.34
622.709	12943.16
622.904	12783.42
623.099	12930.87
623.294	12873.53
623.488	12808
623.683	12908.35
623.878	12480.32
624.072	12504.9
624.267	12533.57
624.462	12572.48
624.656	12508.99
624.851	12443.46
625.046	12277.57
625.24	12281.67
625.435	12052.3
625.629	12183.37
625.824	12209.99
626.018	11808.59
626.213	11747.15
626.407	11853.64
626.602	11624.27
626.796	11749.2
626.991	11743.05
627.185	11730.76
627.38	11437.91
627.574	11509.58
627.768	11442
627.963	11177.81
628.157	11118.42
628.352	11280.21
628.546	10923.87
628.74	11226.96
628.935	10905.43
629.129	10973.02
629.323	10850.14
629.517	10846.04
629.712	10731.36
629.906	10604.38
630.1	10477.41
630.294	10721.12
630.489	10475.36
630.683	10770.27
630.877	10487.65
631.071	10434.4
631.265	10440.54
631.459	10174.31
631.653	10268.52
631.848	10239.84
632.042	10170.21
632.236	10047.33
632.43	9922.41
632.624	10049.38
632.818	9781.1
633.012	9709.42
633.206	9777
633.4	9797.48
633.594	9688.94
633.788	9785.19
633.982	9725.8
634.176	9535.34
634.369	9559.92
634.563	9619.31
634.757	9394.03
634.951	9602.93
635.145	9320.31
635.339	9250.67
635.533	9391.98
635.726	9387.89
635.92	9086.84
636.114	9072.5
636.308	9119.6
636.501	9201.52
636.695	9133.94
636.889	9021.3
637.083	8763.26
637.276	8722.3
637.47	8650.62
637.664	8681.34
637.857	8697.72
638.051	8712.06
638.244	8693.63
638.438	8578.94
638.632	8613.76
638.825	8552.32
639.019	8464.25
639.212	8501.12
639.406	8396.67
639.599	8361.86
639.793	8421.25
639.986	8220.55
640.18	8208.26
640.373	8351.62
640.567	8214.4
640.76	7999.37
640.954	7823.24
641.147	8062.85
641.34	8060.8
641.534	7876.49
641.727	7933.83
641.92	7974.79
642.114	7800.71
642.307	7905.16
642.5	7905.16
642.694	7589.77
642.887	7620.49
643.08	7632.78
643.273	7667.59
643.467	7606.16
643.66	7413.65
643.853	7499.66
644.046	7251.86
644.239	7235.47
644.432	7145.36
644.626	7122.84
644.819	7241.62
645.012	7219.09
645.205	7348.11
645.398	7323.54
645.591	7085.97
645.784	7139.22
645.977	7108.5
646.17	7020.44
646.363	6864.79
646.556	6709.15
646.749	6891.41
646.942	6821.78
647.135	6834.07
647.328	6825.88
647.521	6848.41
647.714	6614.94
647.907	6561.69
648.099	6594.46
648.292	6784.92
648.485	6598.56
648.678	6475.68
648.871	6483.87
649.064	6498.2
649.256	6535.07
649.449	6393.76
649.642	6418.33
649.835	6332.32
650.027	6287.26
650.22	6367.13
650.413	6240.16
650.605	6168.48
650.798	6160.29
650.991	6178.72
651.183	6207.39
651.376	6160.29
651.568	6092.71
651.761	6129.57
651.954	5906.34
652.146	5963.68
652.339	5924.77
652.531	6057.89
652.724	5867.43
652.916	5717.93
653.109	5597.1
653.301	5750.7
653.494	5816.23
653.686	5593
653.879	5713.83
654.071	5679.02
654.263	5488.56
654.456	5588.91
654.648	5595.05
654.84	5416.88
655.033	5674.92
655.225	5539.76
655.417	5455.79
655.61	5402.54
655.802	5414.83
655.994	5408.69
656.186	5386.16
656.379	5328.81
656.571	5466.03
656.763	5369.77
656.955	5187.5
657.148	5285.81
657.34	5341.1
657.532	5322.67
657.724	5148.59
657.916	5128.11
658.108	5189.55
658.3	5083.06
658.492	5255.09
658.684	5093.3
658.876	5093.3
659.068	5066.67
659.26	5013.43
659.452	4988.85
659.644	4958.13
659.836	4812.73
660.028	4990.9
660.22	4646.84
660.412	4829.11
660.604	4868.02
660.796	4730.81
660.988	4736.95
661.18	4702.14
661.372	4652.98
661.563	4745.14
661.755	4702.14
661.947	4601.79
662.139	4622.27
662.331	4603.83
662.522	4466.62
662.714	4587.45
662.906	4548.54
663.097	4505.53
663.289	4423.61
663.481	4409.28
663.673	4476.86
663.864	4337.6
664.056	4157.38
664.247	4399.04
664.439	4382.65
664.631	4388.8
664.822	4218.82
665.014	4284.35
665.205	4292.54
665.397	4173.76
665.588	4245.44
665.78	4210.62
665.971	3968.96
666.163	4210.62
666.354	4140.99
666.546	4050.88
666.737	4253.63
666.929	4120.51
667.12	4071.36
667.311	3958.72
667.503	3987.4
667.694	3932.1
667.885	3964.87
668.077	4093.89
668.268	4046.79
668.459	3983.3
668.651	4001.73
668.842	3835.85
669.033	3833.8
669.224	3915.72
669.416	3852.23
669.607	3909.57
669.798	3860.42
669.989	3784.65
670.18	3770.31
670.371	3729.35
670.563	3919.81
670.754	3792.84
670.945	3784.65
671.136	3665.86
671.327	3694.54
671.518	3678.15
671.709	3727.3
671.9	3717.06
672.091	3776.45
672.282	3538.89
672.473	3622.86
672.664	3563.47
672.855	3715.02
673.046	3583.95
673.237	3723.21
673.428	3469.26
673.619	3653.58
673.809	3612.62
674	3502.03
674.191	3571.66
674.382	3514.31
674.573	3489.74
674.764	3598.28
674.954	3549.13
675.145	3383.24
675.336	3481.55
675.527	3473.35
675.717	3538.89
675.908	3495.88
676.099	3428.3
676.289	3375.05
676.48	3567.56
676.671	3309.52
676.861	3344.33
677.052	3336.14
677.243	3280.85
677.433	3334.09
677.624	3428.3
677.814	3164.11
678.005	3207.12
678.195	3303.37
678.386	3305.42
678.576	3307.47
678.767	3295.18
678.957	3268.56
679.148	3330
679.338	3155.92
679.529	3289.04
679.719	3184.59
679.909	3313.61
680.1	3295.18
680.29	3309.52
680.481	3268.56
680.671	3260.37
680.861	3164.11
681.052	3260.37
681.242	3082.19
681.432	3239.89
681.622	3278.8
681.813	3352.52
682.003	3284.94
682.193	3026.9
682.383	3131.34
682.573	3065.81
682.764	3178.45
682.954	3203.02
683.144	3139.54
683.334	3088.34
683.524	3018.71
683.714	3012.56
683.904	3063.76
684.094	3039.19
684.284	3057.62
684.474	3137.49
684.664	3121.1
684.854	3057.62
685.044	3106.77
685.234	3080.14
685.424	3030.99
685.614	3071.95
685.804	3047.38
685.994	3026.9
686.184	2981.84
686.374	3014.61
686.564	2975.7
686.753	2887.64
686.943	2891.73
687.133	2959.31
687.323	3033.04
687.513	2846.68
687.702	2908.12
687.892	2973.65
688.082	2858.96
688.272	2871.25
688.461	2770.9
688.651	2826.2
688.841	2861.01
689.03	2772.95
689.22	2779.09
689.41	2811.86
689.599	2836.44
689.789	2686.93
689.979	2785.24
690.168	2865.11
690.358	2709.46
690.547	2592.73
690.737	2793.43
690.926	2824.15
691.116	2781.14
691.305	2764.76
691.495	2762.71
691.684	2742.23
691.874	2652.12
692.063	2598.87
692.252	2703.32
692.442	2631.64
692.631	2461.66
692.82	2617.3
693.01	2541.53
693.199	2584.54
693.388	2504.67
693.578	2414.56
693.767	2387.93
693.956	2594.78
694.146	2490.33
694.335	2566.1
694.524	2506.71
694.713	2473.95
694.902	2555.86
695.092	2549.72
695.281	2359.26
695.47	2400.22
695.659	2502.62
695.848	2328.54
696.037	2410.46
696.226	2404.32
696.415	2361.31
696.604	2562.01
696.793	2287.58
696.982	2420.7
697.171	2461.66
697.36	2439.13
697.549	2342.88
697.738	2437.08
697.927	2351.07
698.116	2297.82
698.305	2240.48
698.494	2400.22
698.683	2301.92
698.872	2211.81
699.061	2379.74
699.25	2328.54
699.438	2207.71
699.627	2357.21
699.816	2285.53
700.005	2160.61
700.193	2306.01
700.382	2357.21
700.571	2342.88
700.76	2197.47
700.948	2287.58
701.137	2267.1
701.326	2314.2
701.514	2293.72
701.703	2246.62
701.892	2273.25
702.08	2297.82
702.269	2373.6
702.457	2252.77
702.646	2244.57
702.834	2222.05
703.023	2156.51
703.212	2236.38
703.4	2236.38
703.589	2146.27
703.777	2068.45
703.965	2240.48
704.154	2271.2
704.342	2142.18
704.531	2136.03
704.719	2236.38
704.907	2281.44
705.096	2351.07
705.284	2226.14
705.472	2160.61
705.661	2140.13
705.849	2236.38
706.037	2215.9
706.226	2166.75
706.414	2174.94
706.602	2197.47
706.79	2269.15
706.979	2312.16
707.167	2273.25
707.355	2168.8
707.543	2154.46
707.731	2242.53
707.919	2107.36
708.107	2215.9
708.296	2156.51
708.484	2162.65
708.672	2146.27
708.86	2162.65
709.048	2220
709.236	2140.13
709.424	2142.18
709.612	2121.7
709.8	2154.46
709.988	2232.29
710.176	2232.29
710.364	2150.37
710.551	2168.8
710.739	2140.13
710.927	2062.3
711.115	2105.31
711.303	2230.24
711.491	2123.74
711.679	2027.49
711.866	2099.17
712.054	2287.58
712.242	2144.22
712.43	2123.74
712.617	2064.35
712.805	2203.61
712.993	2097.12
713.181	2025.44
713.368	2207.71
713.556	2187.23
713.744	2125.79
713.931	2162.65
714.119	2129.89
714.306	2125.79
714.494	2123.74
714.682	2099.17
714.869	2170.85
715.057	2097.12
715.244	2084.83
715.432	2152.42
715.619	2058.21
715.807	2129.89
715.994	2099.17
716.182	2127.84
716.369	2129.89
716.556	2136.03
716.744	2150.37
716.931	2199.52
717.119	2115.55
717.306	2093.02
717.493	2123.74
717.681	2039.78
717.868	1986.53
718.055	2105.31
718.242	2189.28
718.43	2232.29
718.617	2002.91
718.804	2086.88
718.991	2129.89
719.179	2072.54
719.366	2140.13
719.553	2121.7
719.74	2170.85
719.927	2156.51
720.114	2099.17
720.301	2121.7
720.488	2052.06
720.676	2146.27
720.863	2150.37
721.05	2062.3
721.237	2166.75
721.424	2138.08
721.611	2084.83
721.798	2068.45
721.985	2113.5
722.172	1966.05
722.358	2064.35
722.545	2121.7
722.732	1959.91
722.919	2113.5
723.106	2056.16
723.293	2054.11
723.48	2066.4
723.667	2093.02
723.853	2029.54
724.04	1996.77
724.227	2080.74
724.414	2064.35
724.6	2021.35
724.787	2117.6
724.974	2088.93
725.161	2064.35
725.347	2068.45
725.534	2140.13
725.72	2064.35
725.907	2019.3
726.094	2088.93
726.28	2013.15
726.467	2105.31
726.653	2052.06
726.84	1992.67
727.027	2090.98
727.213	2035.68
727.4	2133.98
727.586	2097.12
727.773	2076.64
727.959	2029.54
728.145	2097.12
728.332	2017.25
728.518	2074.59
728.705	2090.98
728.891	2047.97
729.077	2109.41
729.264	2017.25
729.45	2123.74
729.636	2097.12
729.823	2088.93
730.009	1957.86
730.195	2064.35
730.382	2099.17
730.568	2029.54
730.754	2090.98
730.94	2002.91
731.126	2033.63
731.313	2011.11
731.499	2013.15
731.685	2088.93
731.871	2105.31
732.057	2107.36
732.243	2074.59
732.429	2088.93
732.615	2162.65
732.801	2168.8
732.987	2043.87
733.173	2015.2
733.359	2052.06
733.545	2009.06
733.731	2093.02
733.917	2107.36
734.103	2187.23
734.289	2125.79
734.475	2007.01
734.661	2097.12
734.847	2002.91
735.033	2111.46
735.219	2064.35
735.404	2060.26
735.59	2093.02
735.776	2027.49
735.962	2080.74
736.148	2039.78
736.333	2105.31
736.519	2002.91
736.705	2021.35
736.89	2050.02
737.076	2090.98
737.262	1904.61
737.447	2054.11
737.633	1957.86
737.819	2060.26
738.004	1998.82
738.19	1951.71
738.375	1957.86
738.561	2064.35
738.747	2064.35
738.932	2041.82
739.118	2064.35
739.303	2009.06
739.489	1990.63
739.674	1961.95
739.859	1959.91
740.045	1978.34
740.23	2078.69
740.416	1888.23
740.601	2043.87
740.786	1884.13
740.972	2025.44
741.157	1871.84
741.342	1929.19
741.528	1847.27
741.713	1949.67
741.898	1959.91
742.084	1904.61
742.269	1943.52
742.454	1916.9
742.639	1863.65
742.824	1957.86
743.01	1849.32
743.195	1830.88
743.38	1826.79
743.565	1884.13
743.75	1916.9
743.935	1837.03
744.12	1961.95
744.305	1736.68
744.49	1804.26
744.675	1867.75
744.86	1703.91
745.045	1802.21
745.23	1669.09
745.415	1796.07
745.6	1818.6
745.785	1761.25
745.97	1806.31
746.155	1732.58
746.34	1761.25
746.525	1859.56
746.71	1746.92
746.895	1708.01
747.079	1732.58
747.264	1654.76
747.449	1646.57
747.634	1671.14
747.819	1662.95
748.003	1585.13
748.188	1652.71
748.373	1687.53
748.557	1585.13
748.742	1509.35
748.927	1712.1
749.111	1640.42
749.296	1648.61
749.481	1671.14
749.665	1583.08
749.85	1550.31
750.034	1503.21
750.219	1495.02
750.404	1546.22
750.588	1581.03
750.773	1501.16
750.957	1501.16
751.141	1556.46
751.326	1419.24
751.51	1468.39
751.695	1519.59
751.879	1511.4
752.064	1429.48
752.248	1312.75
752.432	1378.28
752.617	1437.67
752.801	1386.47
752.985	1402.86
753.17	1392.62
753.354	1519.59
753.538	1353.71
753.722	1376.23
753.907	1306.6
754.091	1351.66
754.275	1351.66
754.459	1374.19
754.643	1341.42
754.828	1273.84
755.012	1255.4
755.196	1277.93
755.38	1243.12
755.564	1249.26
755.748	1198.06
755.932	1325.04
756.116	1267.69
756.3	1333.23
756.484	1224.69
756.668	1249.26
756.852	1171.44
757.036	1196.01
757.22	1206.25
757.404	1153.01
757.588	1163.25
757.772	1157.1
757.956	1112.05
758.14	1155.05
758.323	1089.52
758.507	1214.45
758.691	1056.75
758.875	1114.09
759.059	1163.25
759.242	1056.75
759.426	1114.09
759.61	1110
759.794	1114.09
759.977	1107.95
760.161	1064.94
760.345	1105.9
760.528	1114.09
760.712	966.64
760.895	1075.18
761.079	1034.22
761.263	1023.98
761.446	901.11
761.63	937.97
761.813	995.31
761.997	958.45
762.18	1064.94
762.364	1009.65
762.547	980.98
762.731	987.12
762.914	1036.27
763.098	1028.08
763.281	974.83
763.464	1007.6
763.648	942.07
763.831	950.26
764.015	874.48
764.198	921.59
764.381	987.12
764.564	966.64
764.748	944.11
764.931	1050.61
765.114	925.68
765.297	907.25
765.481	892.91
765.664	868.34
765.847	854
766.03	903.15
766.213	884.72
766.397	880.63
766.58	786.42
766.763	921.59
766.946	811
767.129	901.11
767.312	841.72
767.495	837.62
767.678	849.91
767.861	819.19
768.044	839.67
768.227	829.43
768.41	860.15
768.593	888.82
768.776	790.52
768.959	894.96
769.142	817.14
769.324	856.05
769.507	851.95
769.69	792.56
769.873	811
770.056	837.62
770.239	798.71
770.421	800.76
770.604	800.76
770.787	729.08
770.97	737.27
771.152	688.12
771.335	839.67
771.518	780.28
771.7	866.29
771.883	823.28
772.066	688.12
772.248	780.28
772.431	786.42
772.613	790.52
772.796	741.36
772.978	743.41
773.161	731.12
773.343	753.65
773.526	698.36
773.708	681.97
773.891	708.6
774.073	747.51
774.256	700.41
774.438	737.27
774.621	645.11
774.803	634.87
774.985	712.69
775.168	638.97
775.35	593.91
775.532	749.56
775.715	614.39
775.897	673.78
776.079	616.44
776.261	593.91
776.444	548.86
776.626	638.97
776.808	630.77
776.99	690.17
777.173	589.81
777.355	555
777.537	569.34
777.719	567.29
777.901	497.66
778.083	641.01
778.265	544.76
778.447	673.78
778.629	598.01
778.811	542.71
778.993	557.05
779.175	581.62
779.357	544.76
779.539	593.91
779.721	579.58
779.903	638.97
780.085	532.47
780.267	526.33
780.449	499.7
780.631	501.75
780.812	528.38
780.994	557.05
781.176	595.96
781.358	452.6
781.54	419.83
781.721	516.09
781.903	483.32
782.085	403.45
782.267	571.38
782.448	493.56
782.63	417.79
782.812	563.19
782.993	528.38
783.175	483.32
783.357	452.6
783.538	483.32
783.72	473.08
783.901	544.76
784.083	409.59
784.264	485.37
784.446	481.27
784.627	397.31
784.809	454.65
784.99	385.02
785.172	407.55
785.353	434.17
785.535	419.83
785.716	460.79
785.897	434.17
786.079	401.4
786.26	419.83
786.441	413.69
786.623	380.92
786.804	401.4
786.985	319.48
787.167	346.11
787.348	376.83
787.529	407.55
787.71	425.98
787.891	356.35
788.073	389.11
788.254	399.35
788.435	354.3
788.616	339.96
788.797	325.63
788.978	370.68
789.159	356.35
789.34	352.25
789.522	376.83
789.703	337.91
789.884	382.97
790.065	376.83
790.246	428.03
790.427	305.15
790.607	434.17
790.788	360.44
790.969	368.63
791.15	329.72
791.331	327.67
791.512	280.57
791.693	311.29
791.874	335.87
792.054	360.44
792.235	352.25
792.416	196.6
792.597	303.1
792.778	280.57
792.958	309.24
793.139	266.24
793.32	319.48
793.5	188.41
793.681	249.85
793.862	253.95
794.042	278.52
794.223	311.29
794.404	327.67
794.584	311.29
794.765	272.38
794.945	272.38
795.126	380.92
795.306	274.43
795.487	243.71
795.667	268.28
795.848	327.67
796.028	253.95
796.209	319.48
796.389	288.76
796.57	313.34
796.75	247.8
796.93	253.95
797.111	276.48
797.291	368.63
797.471	323.58
797.652	319.48
797.832	198.65
798.012	286.72
798.192	196.6
798.373	280.57
798.553	303.1
798.733	305.15
798.913	235.52
799.093	206.84
799.274	247.8
799.454	221.18
799.634	264.19
799.814	268.28
799.994	237.56
800.174	233.47
800.354	206.84
800.534	151.55
800.714	256
800.894	204.8
801.074	184.32
801.254	249.85
801.434	221.18
801.614	278.52
801.794	188.41
801.974	813.04
802.154	190.46
802.334	237.56
802.514	210.94
802.693	196.6
802.873	247.8
803.053	307.2
803.233	212.99
803.413	253.95
803.592	163.84
803.772	212.99
803.952	229.37
804.131	266.24
804.311	239.61
804.491	192.51
804.67	184.32
804.85	172.03
805.03	147.45
805.209	276.48
805.389	157.69
805.568	143.36
805.748	176.13
805.928	204.8
806.107	208.89
806.287	196.6
806.466	176.13
806.646	204.8
806.825	167.93
807.004	143.36
807.184	202.75
807.363	206.84
807.543	143.36
807.722	135.17
807.901	206.84
808.081	231.42
808.26	270.33
808.439	155.65
808.619	219.13
808.798	196.6
808.977	180.22
809.156	217.08
809.336	206.84
809.515	172.03
809.694	131.07
809.873	200.7
810.052	212.99
810.231	251.9
810.411	219.13
810.59	210.94
810.769	124.93
810.948	221.18
811.127	153.6
811.306	165.89
811.485	120.83
811.664	208.89
811.843	114.69
812.022	135.17
812.201	167.93
812.38	135.17
812.559	106.49
812.737	241.66
812.916	114.69
813.095	151.55
813.274	169.98
813.453	167.93
813.632	100.35
813.811	135.17
813.989	174.08
814.168	149.5
814.347	104.45
814.526	114.69
814.704	249.85
814.883	204.8
815.062	159.74
815.24	151.55
815.419	151.55
815.598	135.17
815.776	102.4
815.955	200.7
816.133	131.07
816.312	139.26
816.49	139.26
816.669	163.84
816.847	129.02
817.026	188.41
817.204	131.07
817.383	116.73
817.561	172.03
817.74	139.26
817.918	163.84
818.097	202.75
818.275	196.6
818.453	135.17
818.632	122.88
818.81	100.35
818.988	110.59
819.167	165.89
819.345	165.89
819.523	118.78
819.701	102.4
819.879	135.17
820.058	159.74
820.236	106.49
820.414	98.3
820.592	98.3
820.77	204.8
820.948	110.59
821.127	116.73
821.305	155.65
821.483	167.93
821.661	159.74
821.839	131.07
822.017	63.49
822.195	135.17
822.373	165.89
822.551	143.36
822.729	81.92
822.907	104.45
823.085	131.07
823.262	149.5
823.44	77.82
823.618	81.92
823.796	186.37
823.974	102.4
824.152	126.97
824.329	86.01
824.507	153.6
824.685	104.45
824.863	118.78
825.04	32.77
825.218	77.82
825.396	43.01
825.574	126.97
825.751	61.44
825.929	196.6
826.107	118.78
826.284	108.54
826.462	133.12
826.639	118.78
826.817	94.21
826.994	133.12
827.172	65.53
827.349	208.89
827.527	108.54
827.704	83.97
827.882	133.12
828.059	133.12
828.237	172.03
828.414	114.69
828.591	106.49
828.769	59.39
828.946	49.15
829.124	100.35
829.301	61.44
829.478	73.73
829.655	53.25
829.833	92.16
830.01	75.77
830.187	110.59
830.364	98.3
830.542	92.16
830.719	159.74
830.896	114.69
831.073	106.49
831.25	126.97
831.427	186.37
831.604	155.65
831.782	40.96
831.959	141.31
832.136	73.73
832.313	81.92
832.49	55.3
832.667	69.63
832.844	108.54
833.021	147.45
833.198	40.96
833.374	114.69
833.551	86.01
833.728	122.88
833.905	24.58
834.082	114.69
834.259	143.36
834.436	90.11
834.612	106.49
834.789	139.26
834.966	94.21
835.143	135.17
835.319	86.01
835.496	83.97
835.673	120.83
835.85	133.12
836.026	100.35
836.203	98.3
836.38	26.62
836.556	18.43
836.733	49.15
836.909	163.84
837.086	28.67
837.262	94.21
837.439	73.73
837.616	57.34
837.792	59.39
837.968	98.3
838.145	-51.2
838.321	36.86
838.498	69.63
838.674	81.92
838.851	20.48
839.027	63.49
839.203	-14.34
839.38	32.77
839.556	43.01
839.732	94.21
839.909	53.25
840.085	73.73
840.261	104.45
840.437	106.49
840.614	-6.14
840.79	77.82
840.966	114.69
841.142	114.69
841.318	92.16
841.494	30.72
841.671	143.36
841.847	122.88
842.023	63.49
842.199	92.16
842.375	122.88
842.551	59.39
842.727	20.48
842.903	67.58
843.079	47.1
843.255	143.36
843.431	108.54
843.607	86.01
843.783	-34.82
843.959	16.38
844.134	71.68
844.31	59.39
844.486	73.73
844.662	45.06
844.838	40.96
845.013	49.15
845.189	77.82
845.365	47.1
845.541	126.97
845.716	59.39
845.892	108.54
846.068	34.82
846.244	137.21
846.419	59.39
846.595	40.96
846.77	63.49
846.946	57.34
847.122	65.53
847.297	47.1
847.473	86.01
847.648	-16.38
847.824	108.54
847.999	57.34
848.175	34.82
848.35	163.84
848.526	57.34
848.701	86.01
848.876	53.25
849.052	116.73
849.227	53.25
849.403	81.92
849.578	124.93
849.753	79.87
849.929	118.78
850.104	-32.77
850.279	63.49
850.454	43.01
850.63	28.67
850.805	43.01
850.98	36.86
851.155	139.26
851.33	65.53
851.505	-20.48
851.681	57.34
851.856	100.35
852.031	81.92
852.206	32.77
852.381	49.15
852.556	63.49
852.731	92.16
852.906	49.15
853.081	65.53
853.256	114.69
853.431	8.19
853.606	57.34
853.781	43.01
853.956	18.43
854.131	51.2
854.305	30.72
854.48	36.86
854.655	90.11
854.83	75.77
855.005	53.25
855.18	92.16
855.354	65.53
855.529	12.29
855.704	65.53
855.879	135.17
856.053	22.53
856.228	104.45
856.403	65.53
856.577	116.73
856.752	65.53
856.926	26.62
857.101	86.01
857.276	47.1
857.45	34.82
857.625	155.65
857.799	32.77
857.974	92.16
858.148	40.96
858.323	57.34
858.497	86.01
858.672	8.19
858.846	83.97
859.02	40.96
859.195	-24.58
859.369	8.19
859.543	81.92
859.718	40.96
859.892	65.53
860.066	-28.67
860.241	88.06
860.415	67.58
860.589	92.16
860.763	69.63
860.938	77.82
861.112	92.16
861.286	32.77
861.46	-0
861.634	10.24
861.808	159.74
861.982	32.77
862.157	22.53
862.331	32.77
862.505	49.15
862.679	32.77
862.853	65.53
863.027	36.86
863.201	88.06
863.375	59.39
863.549	40.96
863.722	24.58
863.896	14.34
864.07	49.15
864.244	-2.05
864.418	20.48
864.592	81.92
864.766	57.34
864.939	34.82
865.113	16.38
865.287	47.1
865.461	2.05
865.634	83.97
865.808	-8.19
865.982	14.34
866.156	77.82
866.329	32.77
866.503	51.2
866.676	8.19
866.85	4.1
867.024	92.16
867.197	131.07
867.371	24.58
867.544	-4.1
867.718	-36.86
867.891	-14.34
868.065	2.05
868.238	116.73
868.412	-4.1
868.585	69.63
868.759	16.38
868.932	-12.29
869.105	32.77
869.279	67.58
869.452	71.68
869.625	-14.34
869.799	4.1
869.972	16.38
870.145	40.96
870.319	26.62
870.492	81.92
870.665	-6.14
870.838	-4.1
871.011	10.24
871.185	-12.29
871.358	81.92
871.531	73.73
871.704	8.19
871.877	49.15
872.05	-22.53
872.223	55.3
872.396	8.19
872.569	38.91
872.742	-14.34
872.915	90.11
873.088	-43.01
873.261	34.82
873.434	53.25
873.607	-69.63
873.78	71.68
873.953	67.58
874.126	-28.67
874.299	100.35
874.471	49.15
874.644	24.58
874.817	92.16
874.99	34.82
875.163	86.01
875.335	-6.14
875.508	-114.69
875.681	65.53
875.853	-0
876.026	81.92
876.199	-2.05
876.371	32.77
876.544	24.58
876.717	-8.19
876.889	96.25
877.062	57.34
877.234	-20.48
877.407	8.19
877.579	2.05
877.752	4.1
877.924	69.63
878.097	24.58
878.269	112.64
878.442	24.58
878.614	32.77
878.786	8.19
878.959	59.39
879.131	2.05
879.303	-4.1
879.476	51.2
879.648	14.34
879.82	-43.01
879.993	86.01
880.165	53.25
880.337	-16.38
880.509	63.49
880.681	-40.96
880.854	90.11
881.026	65.53
881.198	116.73
881.37	49.15
881.542	47.1
881.714	38.91
881.886	77.82
882.058	57.34
882.23	49.15
882.402	-20.48
882.574	-12.29
882.746	43.01
882.918	153.6
883.09	14.34
883.262	59.39
883.434	-65.54
883.606	-24.58
883.778	-90.11
883.95	102.4
884.122	67.58
884.293	8.19
884.465	18.43
884.637	75.77
884.809	-14.34
884.98	16.38
885.152	43.01
885.324	-32.77
885.496	-24.58
885.667	32.77
885.839	40.96
886.011	14.34
886.182	-20.48
886.354	67.58
886.525	49.15
886.697	67.58
886.869	81.92
887.04	49.15
887.212	73.73
887.383	32.77
887.555	-8.19
887.726	24.58
887.897	-49.15
888.069	-4.1
888.24	16.38
888.412	34.82
888.583	2.05
888.754	-22.53
888.926	-8.19
889.097	69.63
889.268	45.06
889.44	28.67
889.611	55.3
889.782	-32.77
889.953	8.19
890.125	67.58
890.296	-22.53
890.467	-8.19
890.638	40.96
890.809	73.73
890.98	26.62
891.151	65.53
891.323	20.48
891.494	28.67
891.665	102.4
891.836	83.97
892.007	114.69
892.178	16.38
892.349	-4.1
892.52	81.92
892.691	-0
892.862	122.88
893.032	-34.82
893.203	94.21
893.374	40.96
893.545	26.62
893.716	2.05
893.887	40.96
894.057	-0
894.228	16.38
894.399	16.38
894.57	32.77
894.74	4.1
894.911	-4.1
895.082	28.67
895.253	51.2
895.423	28.67
895.594	45.06
895.764	73.73
895.935	49.15
896.106	65.53
896.276	36.86
896.447	32.77
896.617	32.77
896.788	4.1
896.958	-4.1
897.129	22.53
897.299	43.01
897.47	53.25
897.64	38.91
897.81	6.14
897.981	-59.39
898.151	100.35
898.322	16.38
898.492	100.35
898.662	57.34
898.832	18.43
899.003	75.77
899.173	43.01
899.343	16.38
899.513	108.54
