Data from USB4F104151__64__14-17-12-437.txt Node

Date: Thu Mar 13 14:17:12 EDT 2025
User: louis
Spectrometer: USB4F10415
Trigger mode: 4
Integration Time (sec): 2.000000E-2
Scans to average: 1
Electric dark correction enabled: true
Nonlinearity correction enabled: false
Boxcar width: 0
XAxis mode: Wavelengths
Number of Pixels in Spectrum: 3648
>>>>>Begin Spectral Data<<<<<
178.204	-124.76
178.424	-124.76
178.644	-124.76
178.864	-167.76
179.084	-135
179.304	45.23
179.524	22.7
179.744	6.31
179.964	14.51
180.184	43.18
180.404	45.23
180.624	4.27
180.844	-57.17
181.064	-87.89
181.283	-16.21
181.503	0.17
181.723	-20.31
181.943	-32.6
182.163	67.75
182.383	61.61
182.602	77.99
182.822	8.36
183.042	4.27
183.262	-12.12
183.482	-3.93
183.701	12.46
183.921	77.99
184.141	-57.17
184.361	71.85
184.58	6.31
184.8	86.19
185.02	-3.93
185.239	55.47
185.459	45.23
185.679	94.38
185.898	-53.08
186.118	53.42
186.338	10.41
186.557	43.18
186.777	-46.93
186.997	24.75
187.216	0.17
187.436	-12.12
187.655	-28.5
187.875	110.76
188.095	-28.5
188.314	65.71
188.534	-18.26
188.753	55.47
188.973	16.55
189.192	69.8
189.412	90.28
189.631	49.32
189.851	-8.02
190.07	63.66
190.29	-59.22
190.509	98.47
190.729	0.17
190.948	22.7
191.168	82.09
191.387	65.71
191.607	-18.26
191.826	37.03
192.045	-3.93
192.265	37.03
192.484	6.31
192.704	4.27
192.923	20.65
193.142	63.66
193.362	16.55
193.581	63.66
193.8	6.31
194.02	86.19
194.239	-38.74
194.458	53.42
194.678	-3.93
194.897	26.79
195.116	63.66
195.335	22.7
195.555	61.61
195.774	8.36
195.993	32.94
196.212	49.32
196.432	37.03
196.651	-28.5
196.87	71.85
197.089	123.05
197.308	20.65
197.528	12.46
197.747	-3.93
197.966	41.13
198.185	80.04
198.404	-36.69
198.623	-12.12
198.842	4.27
199.062	28.84
199.281	4.27
199.5	20.65
199.719	77.99
199.938	28.84
200.157	104.62
200.376	-3.93
200.595	-3.93
200.814	104.62
201.033	-20.31
201.252	-20.31
201.471	20.65
201.69	-22.36
201.909	12.46
202.128	-8.02
202.347	28.84
202.566	43.18
202.785	0.17
203.004	18.6
203.223	80.04
203.442	51.37
203.661	4.27
203.879	80.04
204.098	-28.5
204.317	-20.31
204.536	20.65
204.755	0.17
204.974	69.8
205.193	6.31
205.411	45.23
205.63	8.36
205.849	61.61
206.068	-32.6
206.287	24.75
206.505	-18.26
206.724	14.51
206.943	53.42
207.162	12.46
207.381	127.14
207.599	22.7
207.818	-44.88
208.037	34.99
208.255	6.31
208.474	98.47
208.693	12.46
208.911	-24.4
209.13	16.55
209.349	69.8
209.567	82.09
209.786	108.71
210.005	57.51
210.223	80.04
210.442	45.23
210.661	41.13
210.879	49.32
211.098	10.41
211.316	30.89
211.535	4.27
211.753	24.75
211.972	53.42
212.191	69.8
212.409	32.94
212.628	37.03
212.846	6.31
213.065	37.03
213.283	77.99
213.502	-20.31
213.72	-75.6
213.938	-14.17
214.157	45.23
214.375	28.84
214.594	-32.6
214.812	53.42
215.031	32.94
215.249	-18.26
215.467	-53.08
215.686	16.55
215.904	65.71
216.122	6.31
216.341	45.23
216.559	45.23
216.778	69.8
216.996	10.41
217.214	-30.55
217.432	37.03
217.651	-26.45
217.869	0.17
218.087	49.32
218.306	-5.97
218.524	80.04
218.742	-18.26
218.96	37.03
219.179	-65.36
219.397	116.9
219.615	67.75
219.833	14.51
220.051	-12.12
220.27	20.65
220.488	41.13
220.706	69.8
220.924	-16.21
221.142	30.89
221.36	53.42
221.578	96.43
221.796	14.51
222.015	-34.64
222.233	53.42
222.451	71.85
222.669	18.6
222.887	61.61
223.105	-8.02
223.323	-3.93
223.541	-28.5
223.759	14.51
223.977	12.46
224.195	37.03
224.413	-44.88
224.631	-3.93
224.849	-77.65
225.067	77.99
225.285	32.94
225.503	-24.4
225.721	-38.74
225.939	12.46
226.157	49.32
226.375	73.9
226.592	2.22
226.81	-20.31
227.028	61.61
227.246	37.03
227.464	-12.12
227.682	14.51
227.9	61.61
228.117	61.61
228.335	28.84
228.553	135.34
228.771	-28.5
228.989	26.79
229.206	-10.07
229.424	12.46
229.642	-34.64
229.86	26.79
230.077	-26.45
230.295	-1.88
230.513	53.42
230.731	30.89
230.948	2.22
231.166	20.65
231.384	-48.98
231.601	30.89
231.819	22.7
232.037	22.7
232.254	-12.12
232.472	49.32
232.689	65.71
232.907	47.27
233.125	-26.45
233.342	65.71
233.56	-5.97
233.777	26.79
233.995	49.32
234.213	59.56
234.43	22.7
234.648	28.84
234.865	22.7
235.083	55.47
235.3	20.65
235.518	47.27
235.735	73.9
235.953	53.42
236.17	32.94
236.388	30.89
236.605	28.84
236.822	10.41
237.04	-89.94
237.257	-38.74
237.475	-8.02
237.692	51.37
237.909	4.27
238.127	-12.12
238.344	51.37
238.562	-20.31
238.779	16.55
238.996	98.47
239.214	57.51
239.431	43.18
239.648	30.89
239.865	53.42
240.083	24.75
240.3	96.43
240.517	-3.93
240.735	12.46
240.952	-1.88
241.169	69.8
241.386	57.51
241.603	22.7
241.821	-40.79
242.038	37.03
242.255	63.66
242.472	14.51
242.689	4.27
242.907	49.32
243.124	20.65
243.341	65.71
243.558	-73.56
243.775	8.36
243.992	-34.64
244.209	63.66
244.426	0.17
244.643	92.33
244.86	28.84
245.078	55.47
245.295	55.47
245.512	28.84
245.729	-18.26
245.946	61.61
246.163	24.75
246.38	69.8
246.597	8.36
246.814	28.84
247.031	47.27
247.248	69.8
247.464	16.55
247.681	6.31
247.898	20.65
248.115	2.22
248.332	-8.02
248.549	-24.4
248.766	41.13
248.983	26.79
249.2	45.23
249.417	37.03
249.633	53.42
249.85	55.47
250.067	37.03
250.284	-28.5
250.501	30.89
250.717	30.89
250.934	53.42
251.151	-12.12
251.368	37.03
251.585	47.27
251.801	53.42
252.018	-10.07
252.235	-3.93
252.451	-94.04
252.668	-1.88
252.885	71.85
253.102	47.27
253.318	-3.93
253.535	-28.5
253.752	18.6
253.968	6.31
254.185	-53.08
254.401	47.27
254.618	4.27
254.835	8.36
255.051	63.66
255.268	75.95
255.484	57.51
255.701	-53.08
255.917	45.23
256.134	-3.93
256.351	47.27
256.567	-40.79
256.784	37.03
257	30.89
257.217	57.51
257.433	-8.02
257.65	10.41
257.866	4.27
258.082	-61.27
258.299	-5.97
258.515	80.04
258.732	-18.26
258.948	-38.74
259.165	45.23
259.381	-22.36
259.597	4.27
259.814	22.7
260.03	14.51
260.246	77.99
260.463	67.75
260.679	96.43
260.895	4.27
261.112	47.27
261.328	-16.21
261.544	24.75
261.761	55.47
261.977	-22.36
262.193	8.36
262.409	37.03
262.626	37.03
262.842	6.31
263.058	-20.31
263.274	49.32
263.49	14.51
263.707	14.51
263.923	102.57
264.139	4.27
264.355	51.37
264.571	80.04
264.787	22.7
265.004	30.89
265.22	28.84
265.436	14.51
265.652	-1.88
265.868	96.43
266.084	14.51
266.3	102.57
266.516	24.75
266.732	28.84
266.948	53.42
267.164	61.61
267.38	77.99
267.596	-42.84
267.812	90.28
268.028	12.46
268.244	8.36
268.46	90.28
268.676	6.31
268.892	63.66
269.108	-1.88
269.324	28.84
269.54	-44.88
269.756	18.6
269.972	-69.46
270.188	57.51
270.403	-8.02
270.619	0.17
270.835	88.23
271.051	-1.88
271.267	-36.69
271.483	-3.93
271.698	10.41
271.914	24.75
272.13	14.51
272.346	86.19
272.562	30.89
272.777	129.19
272.993	14.51
273.209	14.51
273.425	118.95
273.64	32.94
273.856	37.03
274.072	20.65
274.287	37.03
274.503	45.23
274.719	8.36
274.934	-18.26
275.15	-8.02
275.366	32.94
275.581	-18.26
275.797	12.46
276.012	63.66
276.228	-38.74
276.444	37.03
276.659	-12.12
276.875	-16.21
277.09	61.61
277.306	37.03
277.521	-34.64
277.737	65.71
277.952	63.66
278.168	24.75
278.383	47.27
278.599	86.19
278.814	37.03
279.03	24.75
279.245	22.7
279.461	57.51
279.676	61.61
279.892	-28.5
280.107	94.38
280.322	-71.51
280.538	-20.31
280.753	-10.07
280.969	-22.36
281.184	20.65
281.399	-10.07
281.615	18.6
281.83	-24.4
282.045	-85.84
282.26	47.27
282.476	61.61
282.691	43.18
282.906	28.84
283.122	-10.07
283.337	-1.88
283.552	-20.31
283.767	2.22
283.983	12.46
284.198	10.41
284.413	14.51
284.628	-48.98
284.843	-38.74
285.058	121
285.274	104.62
285.489	32.94
285.704	12.46
285.919	-26.45
286.134	86.19
286.349	18.6
286.564	8.36
286.779	37.03
286.995	88.23
287.21	6.31
287.425	20.65
287.64	30.89
287.855	-28.5
288.07	22.7
288.285	55.47
288.5	6.31
288.715	73.9
288.93	37.03
289.145	77.99
289.36	-8.02
289.575	37.03
289.79	43.18
290.004	16.55
290.219	-40.79
290.434	51.37
290.649	18.6
290.864	45.23
291.079	-32.6
291.294	14.51
291.509	-3.93
291.724	28.84
291.938	-28.5
292.153	20.65
292.368	80.04
292.583	-28.5
292.798	6.31
293.012	26.79
293.227	-5.97
293.442	86.19
293.657	37.03
293.871	12.46
294.086	-5.97
294.301	71.85
294.516	51.37
294.73	77.99
294.945	-1.88
295.16	8.36
295.374	16.55
295.589	86.19
295.804	-8.02
296.018	69.8
296.233	102.57
296.447	16.55
296.662	86.19
296.877	98.47
297.091	53.42
297.306	55.47
297.52	-20.31
297.735	-8.02
297.949	30.89
298.164	73.9
298.378	-28.5
298.593	-1.88
298.807	28.84
299.022	37.03
299.236	34.99
299.451	-10.07
299.665	-30.55
299.88	41.13
300.094	14.51
300.309	71.85
300.523	82.09
300.737	14.51
300.952	8.36
301.166	-28.5
301.381	4.27
301.595	37.03
301.809	53.42
302.024	37.03
302.238	-12.12
302.452	94.38
302.667	53.42
302.881	45.23
303.095	14.51
303.309	61.61
303.524	43.18
303.738	32.94
303.952	-1.88
304.166	37.03
304.381	37.03
304.595	45.23
304.809	69.8
305.023	6.31
305.237	20.65
305.452	65.71
305.666	39.08
305.88	94.38
306.094	6.31
306.308	24.75
306.522	22.7
306.736	-22.36
306.95	61.61
307.164	55.47
307.379	20.65
307.593	121
307.807	-30.55
308.021	-28.5
308.235	20.65
308.449	39.08
308.663	-8.02
308.877	86.19
309.091	53.42
309.305	53.42
309.519	12.46
309.733	41.13
309.947	-51.03
310.161	94.38
310.374	41.13
310.588	-16.21
310.802	-8.02
311.016	4.27
311.23	104.62
311.444	53.42
311.658	-12.12
311.872	12.46
312.085	90.28
312.299	59.56
312.513	16.55
312.727	57.51
312.941	6.31
313.154	2.22
313.368	24.75
313.582	69.8
313.796	77.99
314.009	28.84
314.223	94.38
314.437	47.27
314.651	123.05
314.864	37.03
315.078	90.28
315.292	14.51
315.505	45.23
315.719	57.51
315.933	24.75
316.146	34.99
316.36	-30.55
316.573	51.37
316.787	63.66
317.001	12.46
317.214	-14.17
317.428	73.9
317.641	-3.93
317.855	22.7
318.068	-3.93
318.282	63.66
318.495	57.51
318.709	69.8
318.922	14.51
319.136	61.61
319.349	28.84
319.563	65.71
319.776	30.89
319.99	69.8
320.203	-51.03
320.417	22.7
320.63	14.51
320.843	53.42
321.057	14.51
321.27	65.71
321.483	61.61
321.697	77.99
321.91	80.04
322.124	47.27
322.337	-20.31
322.55	-10.07
322.763	24.75
322.977	24.75
323.19	51.37
323.403	57.51
323.617	77.99
323.83	127.14
324.043	-3.93
324.256	61.61
324.469	8.36
324.683	4.27
324.896	-10.07
325.109	45.23
325.322	-14.17
325.535	65.71
325.748	-20.31
325.962	2.22
326.175	-3.93
326.388	39.08
326.601	-1.88
326.814	67.75
327.027	53.42
327.24	82.09
327.453	-3.93
327.666	86.19
327.879	6.31
328.092	-16.21
328.305	28.84
328.518	-1.88
328.731	20.65
328.944	6.31
329.157	49.32
329.37	24.75
329.583	32.94
329.796	80.04
330.009	18.6
330.222	90.28
330.435	20.65
330.648	22.7
330.861	22.7
331.073	63.66
331.286	125.1
331.499	84.14
331.712	28.84
331.925	2.22
332.138	71.85
332.35	112.81
332.563	-81.75
332.776	77.99
332.989	57.51
333.202	51.37
333.414	4.27
333.627	24.75
333.84	57.51
334.053	45.23
334.265	45.23
334.478	32.94
334.691	67.75
334.903	22.7
335.116	-3.93
335.329	110.76
335.541	102.57
335.754	82.09
335.966	47.27
336.179	-40.79
336.392	6.31
336.604	6.31
336.817	30.89
337.029	63.66
337.242	47.27
337.454	45.23
337.667	16.55
337.88	-14.17
338.092	18.6
338.305	61.61
338.517	39.08
338.729	61.61
338.942	86.19
339.154	-16.21
339.367	-18.26
339.579	53.42
339.792	12.46
340.004	80.04
340.217	34.99
340.429	-12.12
340.641	10.41
340.854	22.7
341.066	12.46
341.278	94.38
341.491	86.19
341.703	-24.4
341.915	22.7
342.128	45.23
342.34	28.84
342.552	69.8
342.764	4.27
342.977	61.61
343.189	90.28
343.401	41.13
343.613	-1.88
343.826	22.7
344.038	32.94
344.25	14.51
344.462	32.94
344.674	-16.21
344.886	-22.36
345.099	34.99
345.311	-3.93
345.523	39.08
345.735	-42.84
345.947	32.94
346.159	57.51
346.371	88.23
346.583	32.94
346.795	104.62
347.007	-20.31
347.219	61.61
347.431	20.65
347.643	39.08
347.855	-28.5
348.067	45.23
348.279	-61.27
348.491	20.65
348.703	53.42
348.915	37.03
349.127	20.65
349.339	-5.97
349.551	12.46
349.763	43.18
349.975	-16.21
350.187	123.05
350.399	94.38
350.61	77.99
350.822	-3.93
351.034	41.13
351.246	-10.07
351.458	82.09
351.669	71.85
351.881	55.47
352.093	65.71
352.305	55.47
352.517	84.14
352.728	82.09
352.94	22.7
353.152	86.19
353.363	-61.27
353.575	45.23
353.787	67.75
353.999	55.47
354.21	47.27
354.422	55.47
354.633	16.55
354.845	133.29
355.057	-42.84
355.268	14.51
355.48	55.47
355.692	55.47
355.903	18.6
356.115	14.51
356.326	20.65
356.538	63.66
356.749	47.27
356.961	98.47
357.172	43.18
357.384	69.8
357.595	77.99
357.807	-3.93
358.018	14.51
358.23	53.42
358.441	127.14
358.653	96.43
358.864	39.08
359.075	34.99
359.287	37.03
359.498	170.15
359.709	90.28
359.921	30.89
360.132	39.08
360.344	10.41
360.555	92.33
360.766	75.95
360.977	30.89
361.189	37.03
361.4	-3.93
361.611	104.62
361.823	80.04
362.034	127.14
362.245	-12.12
362.456	96.43
362.667	123.05
362.879	0.17
363.09	16.55
363.301	16.55
363.512	49.32
363.723	77.99
363.935	57.51
364.146	75.95
364.357	22.7
364.568	-18.26
364.779	8.36
364.99	77.99
365.201	0.17
365.412	49.32
365.623	-44.88
365.834	75.95
366.045	71.85
366.256	12.46
366.467	104.62
366.678	4.27
366.889	26.79
367.1	12.46
367.311	26.79
367.522	0.17
367.733	-20.31
367.944	88.23
368.155	39.08
368.366	37.03
368.577	6.31
368.788	118.95
368.999	28.84
369.209	14.51
369.42	41.13
369.631	153.77
369.842	88.23
370.053	39.08
370.264	39.08
370.474	-10.07
370.685	-12.12
370.896	41.13
371.107	92.33
371.317	41.13
371.528	20.65
371.739	43.18
371.95	-10.07
372.16	102.57
372.371	-3.93
372.582	30.89
372.792	37.03
373.003	63.66
373.214	49.32
373.424	61.61
373.635	47.27
373.846	75.95
374.056	-28.5
374.267	127.14
374.477	84.14
374.688	28.84
374.898	37.03
375.109	14.51
375.319	57.51
375.53	59.56
375.74	65.71
375.951	159.91
376.161	18.6
376.372	61.61
376.582	129.19
376.793	20.65
377.003	6.31
377.214	71.85
377.424	47.27
377.635	-3.93
377.845	49.32
378.055	65.71
378.266	49.32
378.476	14.51
378.686	-28.5
378.897	-22.36
379.107	98.47
379.317	22.7
379.528	32.94
379.738	88.23
379.948	90.28
380.158	121
380.369	94.38
380.579	69.8
380.789	104.62
380.999	-61.27
381.21	73.9
381.42	106.67
381.63	-3.93
381.84	104.62
382.05	108.71
382.261	-28.5
382.471	53.42
382.681	55.47
382.891	137.38
383.101	61.61
383.311	20.65
383.521	47.27
383.731	53.42
383.941	39.08
384.151	63.66
384.361	20.65
384.571	82.09
384.781	112.81
384.991	121
385.201	67.75
385.411	86.19
385.621	6.31
385.831	49.32
386.041	8.36
386.251	86.19
386.461	57.51
386.671	20.65
386.881	45.23
387.091	-1.88
387.301	-3.93
387.511	4.27
387.72	110.76
387.93	73.9
388.14	-42.84
388.35	20.65
388.56	112.81
388.769	90.28
388.979	63.66
389.189	77.99
389.399	12.46
389.609	41.13
389.818	75.95
390.028	37.03
390.238	61.61
390.447	45.23
390.657	55.47
390.867	94.38
391.076	-12.12
391.286	98.47
391.496	4.27
391.705	94.38
391.915	59.56
392.125	12.46
392.334	61.61
392.544	94.38
392.753	98.47
392.963	37.03
393.172	12.46
393.382	53.42
393.591	82.09
393.801	37.03
394.01	102.57
394.22	63.66
394.429	47.27
394.639	4.27
394.848	73.9
395.058	43.18
395.267	47.27
395.477	73.9
395.686	69.8
395.895	121
396.105	129.19
396.314	86.19
396.524	98.47
396.733	116.9
396.942	71.85
397.152	110.76
397.361	135.34
397.57	102.57
397.78	80.04
397.989	147.62
398.198	143.53
398.407	82.09
398.617	82.09
398.826	41.13
399.035	123.05
399.244	168.1
399.453	135.34
399.663	121
399.872	118.95
400.081	170.15
400.29	151.72
400.499	20.65
400.708	147.62
400.917	151.72
401.127	90.28
401.336	143.53
401.545	129.19
401.754	164.01
401.963	110.76
402.172	92.33
402.381	106.67
402.59	135.34
402.799	90.28
403.008	127.14
403.217	37.03
403.426	139.43
403.635	100.52
403.844	110.76
404.053	131.24
404.262	151.72
404.471	174.25
404.68	147.62
404.888	114.86
405.097	65.71
405.306	102.57
405.515	127.14
405.724	127.14
405.933	168.1
406.142	139.43
406.35	225.45
406.559	211.11
406.768	176.3
406.977	213.16
407.185	108.71
407.394	219.3
407.603	190.63
407.812	178.34
408.02	262.31
408.229	196.78
408.438	168.1
408.646	237.74
408.855	235.69
409.064	209.06
409.272	239.78
409.481	266.41
409.69	293.03
409.898	313.51
410.107	243.88
410.315	311.46
410.524	307.37
410.733	282.79
410.941	348.33
411.15	352.42
411.358	407.72
411.567	401.57
411.775	364.71
411.984	432.29
412.192	366.76
412.401	446.63
412.609	430.24
412.818	487.59
413.026	446.63
413.234	481.44
413.443	491.68
413.651	565.41
413.86	512.16
414.068	528.55
414.276	635.04
414.485	561.31
414.693	680.1
414.901	716.96
415.11	778.4
415.318	749.73
415.526	843.93
415.734	833.69
415.943	745.63
416.151	833.69
416.359	807.07
416.567	841.89
416.776	919.71
416.984	925.85
417.192	1028.25
417.4	893.09
417.608	1015.96
417.817	987.29
418.025	1036.44
418.233	1089.69
418.441	1118.36
418.649	1200.28
418.857	1280.15
419.065	1304.73
419.273	1196.18
419.481	1380.5
419.689	1333.4
419.897	1374.36
420.105	1439.89
420.313	1513.62
420.521	1566.87
420.729	1630.35
420.937	1732.75
421.145	1620.11
421.353	1857.68
421.561	1880.21
421.769	2015.37
421.977	2070.67
422.185	1955.98
422.393	1976.46
422.601	2275.46
422.809	2322.57
423.017	2216.07
423.224	2306.18
423.432	2502.79
423.64	2486.4
423.848	2650.24
424.056	2578.56
424.263	2816.13
424.471	2816.13
424.679	2891.9
424.887	2957.44
425.094	3145.85
425.302	3031.16
425.51	3235.96
425.718	3197.05
425.925	3477.62
426.133	3561.59
426.341	3580.02
426.548	3846.26
426.756	3971.18
426.964	3858.54
427.171	4126.83
427.379	4208.75
427.586	4296.81
427.794	4290.67
428.001	4532.33
428.209	4747.36
428.417	4714.59
428.624	4989.02
428.832	5058.65
429.039	4970.59
429.247	5066.85
429.454	5539.93
429.662	5877.84
429.869	5437.53
430.076	5787.73
430.284	5716.05
430.491	6082.64
430.699	6295.63
430.906	6344.78
431.114	6451.27
431.321	6828.1
431.528	6828.1
431.736	7157.82
431.943	7395.39
432.15	7389.24
432.358	7303.23
432.565	7874.61
432.772	7696.44
432.979	8163.37
433.187	8456.23
433.394	8251.44
433.601	8976.42
433.808	8896.55
434.016	8745
434.223	9130.02
434.43	9887.76
434.637	9592.86
434.844	10260.49
435.052	10536.97
435.259	10536.97
435.466	10590.22
435.673	10217.49
435.88	11022.34
436.087	11454.46
436.294	11513.85
436.501	11177.98
436.708	11452.41
436.915	12034.04
437.122	12361.71
437.329	12455.92
437.537	12810.22
437.743	13139.94
437.95	13068.26
438.157	13588.44
438.364	14018.52
438.571	14055.38
438.778	13975.51
438.985	15300.55
439.192	14907.34
439.399	15079.36
439.606	14657.48
439.813	15816.63
440.02	16805.8
440.227	16383.92
440.433	16156.6
440.64	16668.59
440.847	16639.92
441.054	17254.31
441.261	18202.52
441.467	17878.94
441.674	18235.28
441.881	19013.51
442.088	19048.33
442.294	18829.2
442.501	19134.34
442.708	19437.44
442.914	20275.06
443.121	21368.68
443.328	20658.03
443.534	21899.1
443.741	21335.91
443.948	20989.8
444.154	22689.62
444.361	22832.97
444.568	22656.85
444.774	22650.71
444.981	22849.36
445.187	23707.46
445.394	24366.9
445.6	24133.43
445.807	26025.76
446.013	25671.46
446.22	25691.94
446.426	27244.3
446.633	27447.05
446.839	28362.49
447.046	26892.05
447.252	28552.95
447.459	28223.23
447.665	28292.86
447.871	29757.16
448.078	31223.5
448.284	29089.52
448.491	30213.85
448.697	31395.53
448.903	32319.17
449.11	32059.07
449.316	31446.73
449.522	31966.91
449.728	32814.77
449.935	33234.61
450.141	33164.98
450.347	33578.67
450.553	33132.21
450.76	33566.38
450.966	34621.08
451.172	33816.23
451.378	34709.15
451.584	34008.74
451.791	35239.57
451.997	34983.57
452.203	35602.06
452.409	35681.93
452.615	35012.24
452.821	34021.03
453.027	33935.01
453.233	35665.55
453.44	33957.54
453.646	34256.54
453.852	34762.39
454.058	35120.79
454.264	34404
454.47	35174.03
454.676	33840.81
454.882	35090.07
455.088	32052.93
455.294	32624.31
455.5	33232.56
455.705	33590.95
455.911	32161.47
456.117	31702.73
456.323	30983.89
456.529	29613.8
456.735	30947.03
456.941	30066.4
457.147	29644.52
457.352	28978.93
457.558	28104.45
457.764	28516.09
457.97	27907.84
458.176	27287.31
458.381	27334.41
458.587	26154.78
458.793	25749.28
458.999	24563.51
459.204	26386.2
459.41	25759.52
459.616	24018.75
459.821	23848.77
460.027	24368.95
460.233	23500.61
460.438	22581.07
460.644	22529.87
460.85	21710.69
461.055	21172.07
461.261	21362.53
461.466	19613.57
461.672	18939.79
461.878	20354.93
462.083	19212.17
462.289	18825.1
462.494	18462.61
462.7	17876.89
462.905	17196.96
463.111	17690.52
463.316	17766.3
463.522	17477.54
463.727	17446.82
463.932	17348.51
464.138	17258.4
464.343	17313.7
464.549	16762.79
464.754	17475.49
464.959	17041.32
465.165	16994.22
465.37	16308.15
465.575	15773.63
465.781	16611.25
465.986	16330.67
466.191	15988.66
466.397	15765.43
466.602	14970.82
466.807	15577.02
467.012	15777.72
467.218	15634.36
467.423	15429.57
467.628	15364.03
467.833	15876.02
468.038	15146.95
468.244	14999.49
468.449	15642.56
468.654	15128.52
468.859	14821.32
469.064	14821.32
469.269	14553.04
469.474	14534.6
469.679	14690.25
469.885	14370.77
470.09	14489.55
470.295	14434.25
470.5	14143.44
470.705	14213.07
470.91	14116.82
471.115	13516.76
471.32	13930.45
471.525	13772.76
471.73	13430.75
471.935	13393.89
472.139	13164.51
472.344	13252.58
472.549	13078.5
472.754	12826.6
472.959	12806.12
473.164	12031.99
473.369	12308.46
473.574	12799.98
473.778	12648.43
473.983	12148.72
474.188	12404.72
474.393	11999.22
474.598	12120.05
474.802	11927.54
475.007	11808.76
475.212	11571.19
475.417	11237.38
475.621	11405.31
475.826	11329.53
476.031	11210.75
476.235	10903.56
476.44	11171.84
476.645	10792.97
476.849	10846.21
477.054	10895.36
477.259	10588.17
477.463	10352.65
477.668	10213.39
477.872	10575.88
478.077	10309.65
478.282	10135.57
478.486	9844.76
478.691	10022.93
478.895	9986.07
479.1	9703.45
479.304	9828.37
479.509	9439.26
479.713	9730.07
479.918	9349.15
480.122	9402.4
480.326	9402.4
480.531	9689.11
480.735	9220.13
480.94	9099.3
481.144	9629.72
481.348	9082.91
481.553	9162.78
481.757	9050.14
481.961	9308.19
482.166	9238.56
482.37	9289.76
482.574	9173.02
482.778	9154.59
482.983	9443.35
483.187	9136.16
483.391	9193.5
483.595	9089.06
483.8	8876.07
484.004	9162.78
484.208	9330.72
484.412	9222.17
484.616	9076.77
484.821	9076.77
485.025	8939.55
485.229	9201.69
485.433	8876.07
485.637	9275.42
485.841	8982.56
486.045	8962.08
486.249	8890.4
486.453	9023.52
486.657	9015.33
486.861	9197.6
487.065	8953.89
487.269	9154.59
487.473	8745
487.677	9062.43
487.881	9136.16
488.085	9025.57
488.289	9230.37
488.493	9207.84
488.697	9113.63
488.901	9115.68
489.105	9134.11
489.309	9328.67
489.512	9365.53
489.716	9404.44
489.92	9357.34
490.124	9236.51
490.328	9414.68
490.531	9388.06
490.735	9228.32
490.939	9265.18
491.143	9261.09
491.346	9334.81
491.55	9601.05
491.754	9594.9
491.958	9396.25
492.161	9609.24
492.365	9412.64
492.569	9558.04
492.772	9650.2
492.976	9685.01
493.18	9705.49
493.383	9850.9
493.587	9867.28
493.79	9961.49
493.994	10008.59
494.197	9955.35
494.401	10104.85
494.605	9992.21
494.808	10035.22
495.012	10582.03
495.215	10252.3
495.419	10453
495.622	10254.35
495.825	10747.91
496.029	10311.69
496.232	11051.01
496.436	10956.8
496.639	11118.59
496.843	10985.48
497.046	11108.35
497.249	11214.85
497.453	11341.82
497.656	11347.97
497.859	11526.14
498.063	11634.68
498.266	11917.3
498.469	11804.66
498.673	11878.39
498.876	11952.12
499.079	12212.21
499.282	12267.5
499.485	12439.53
499.689	12652.52
499.892	12490.73
500.095	12705.77
500.298	13008.87
500.501	13045.73
500.705	13305.82
500.908	13484
501.111	13725.66
501.314	13617.11
501.517	13907.93
501.72	14020.56
501.923	14096.34
502.126	14125.01
502.329	14399.44
502.532	14569.42
502.735	14567.37
502.938	14847.94
503.141	14880.71
503.344	15355.84
503.547	15290.31
503.75	15349.7
503.953	16025.53
504.156	15777.72
504.359	16089.01
504.562	16289.71
504.765	16277.43
504.968	16574.38
505.17	16566.19
505.373	16809.9
505.576	17004.46
505.779	17395.62
505.982	17270.69
506.185	17684.38
506.387	17797.02
506.59	17797.02
506.793	18069.4
506.996	18106.26
507.198	18714.51
507.401	18681.74
507.604	18921.35
507.807	19130.25
508.009	19357.57
508.212	19300.23
508.415	19654.53
508.617	20045.69
508.82	20002.68
509.022	20012.92
509.225	20463.47
509.428	20744.05
509.63	20911.98
509.833	20967.27
510.035	21239.65
510.238	21262.18
510.44	21483.36
510.643	21983.07
510.845	22144.86
511.048	22040.41
511.25	22380.37
511.453	22392.66
511.655	23437.13
511.858	23007.05
512.06	23418.69
512.262	23183.18
512.465	23525.19
512.667	23762.75
512.87	24151.87
513.072	24076.09
513.274	24774.45
513.477	25233.19
513.679	24991.53
513.881	25491.24
514.084	25759.52
514.286	25581.35
514.488	25790.24
514.69	26402.58
514.893	26674.96
515.095	26445.59
515.297	26973.97
515.499	27090.7
515.701	27588.36
515.904	27442.95
516.106	27758.34
516.308	27686.66
516.51	28385.02
516.712	28540.66
516.914	28661.49
517.116	29435.63
517.318	29345.51
517.52	29322.99
517.722	29355.75
517.925	29931.23
518.127	30336.73
518.329	30381.79
518.531	30422.75
518.733	30750.42
518.935	31069.9
519.136	31008.47
519.338	31876.8
519.54	31768.26
519.742	32192.19
519.944	32288.45
520.146	32663.22
520.348	32945.84
520.55	33171.12
520.752	33298.09
520.954	33935.01
521.155	33480.36
521.357	34109.09
521.559	34539.16
521.761	34971.29
521.963	34614.94
522.164	35225.23
522.366	34946.71
522.568	35331.73
522.77	35622.54
522.971	35917.45
523.173	35815.05
523.375	36210.31
523.576	36241.03
523.778	35976.84
523.98	36896.38
524.181	36994.68
524.383	37019.25
524.584	37457.52
524.786	37860.97
524.988	37426.8
525.189	38035.05
525.391	37994.09
525.592	38141.54
525.794	38516.32
525.995	38645.34
526.197	38510.18
526.398	38356.58
526.6	39001.69
526.801	39224.92
527.003	39233.11
527.204	39294.55
527.406	39378.51
527.607	39855.69
527.808	39986.76
528.01	39444.05
528.211	39767.63
528.412	40695.36
528.614	40363.59
528.815	40126.02
529.016	40351.3
529.218	40242.76
529.419	40844.86
529.62	40504.9
529.822	40838.72
530.023	40764.99
530.224	40738.37
530.425	40730.17
530.626	40832.57
530.828	40584.77
531.029	41358.9
531.23	40984.12
531.431	41406
531.632	41197.11
531.833	41520.69
532.035	41057.85
532.236	41723.44
532.437	41897.52
532.638	41385.52
532.839	41702.96
533.04	41737.77
533.241	41125.43
533.442	42135.08
533.643	41717.29
533.844	41971.24
534.045	41858.6
534.246	41575.98
534.447	41891.37
534.648	41659.95
534.849	42182.18
535.05	41623.09
535.251	41616.94
535.451	41897.52
535.652	42149.42
535.853	41743.92
536.054	41848.36
536.255	42042.92
536.456	41793.07
536.657	42417.7
536.857	41915.95
537.058	41967.15
537.259	42221.09
537.46	42245.67
537.66	41893.42
537.861	42214.95
538.062	41522.74
538.263	41926.19
538.463	41858.6
538.664	41844.27
538.865	42133.03
539.065	41909.8
539.266	41248.31
539.466	42098.22
539.667	42077.74
539.868	41991.72
540.068	42276.39
540.269	41510.45
540.469	42505.76
540.67	41606.7
540.87	41823.79
541.071	41745.97
541.271	42022.44
541.472	41872.94
541.672	41457.2
541.873	41674.29
542.073	41354.8
542.274	42333.73
542.474	41422.39
542.675	41397.81
542.875	42022.44
543.075	41864.75
543.276	41348.66
543.476	41852.46
543.676	41823.79
543.877	42180.14
544.077	41594.42
544.277	41563.7
544.478	41365.04
544.678	42057.26
544.878	41778.73
545.078	41680.43
545.279	41197.11
545.479	41127.48
545.679	41424.43
545.879	41487.92
546.079	41748.01
546.28	41225.78
546.48	41487.92
546.68	41885.23
546.88	41682.48
547.08	41565.74
547.28	41731.63
547.48	41102.9
547.68	41436.72
547.88	41397.81
548.081	41766.45
548.281	41524.79
548.481	41125.43
548.681	41604.66
548.881	41307.7
549.081	41324.08
549.28	41094.71
549.48	41690.67
549.68	41553.46
549.88	41846.32
550.08	40699.45
550.28	41395.76
550.48	41352.76
550.68	41590.32
550.88	41121.34
551.08	41244.21
551.279	41276.98
551.479	41066.04
551.679	41289.27
551.879	41018.94
552.079	41453.11
552.278	41115.19
552.478	41326.13
552.678	41174.58
552.878	41254.45
553.077	41049.66
553.277	40932.92
553.477	41270.84
553.676	41055.8
553.876	40869.44
554.076	40687.17
554.275	40654.4
554.475	40468.03
554.674	41057.85
554.874	41180.73
555.074	40662.59
555.273	40590.91
555.473	41139.77
555.672	40640.06
555.872	40742.46
556.071	40552
556.271	40754.75
556.47	40500.8
556.67	40543.81
556.869	40332.87
557.068	40478.27
557.268	40414.79
557.467	40320.58
557.667	40140.36
557.866	40472.13
558.065	40318.53
558.265	39913.03
558.464	40144.45
558.663	40556.1
558.863	39779.92
559.062	40326.72
559.261	39943.75
559.461	40552
559.66	39374.42
559.859	39407.19
560.058	39513.68
560.258	39765.58
560.457	39599.69
560.656	40246.85
560.855	39292.5
561.054	39849.55
561.253	39036.5
561.453	39269.97
561.652	39698
561.851	39296.6
562.05	39190.1
562.249	38991.45
562.448	39503.44
562.647	39337.55
562.846	39194.2
563.045	39208.53
563.244	38823.51
563.443	39269.97
563.642	38702.68
563.841	38827.61
564.04	38205.03
564.239	39472.72
564.438	38420.06
564.637	38712.92
564.836	38878.81
565.035	38561.37
565.234	38620.77
565.432	38084.2
565.631	37680.75
565.83	38401.63
566.029	38278.75
566.228	37688.94
566.427	38215.27
566.625	37557.87
566.824	37674.6
567.023	37777
567.222	37049.97
567.42	37711.47
567.619	37875.3
567.818	37375.6
568.016	37277.3
568.215	37434.99
568.414	37119.6
568.612	37641.84
568.811	37027.45
569.01	37217.91
569.208	36675.2
569.407	37170.8
569.605	36470.4
569.804	36972.15
570.002	36230.79
570.201	36812.41
570.4	36365.95
570.598	36800.12
570.797	36232.83
570.995	36552.32
571.193	35944.07
571.392	36466.3
571.59	35786.38
571.789	36236.93
571.987	36030.08
572.186	35722.89
572.384	35526.28
572.582	35772.04
572.781	35991.17
572.979	35184.27
573.177	35520.14
573.376	35368.59
573.574	35380.88
573.772	35042.96
573.971	34852.5
574.169	34922.13
574.367	34856.6
574.565	35077.78
574.763	34721.43
574.962	34633.37
575.16	34447.01
575.358	34510.49
575.556	34051.75
575.754	34684.57
575.952	34111.14
576.151	34184.87
576.349	34070.18
576.547	34350.75
576.745	33932.96
576.943	34094.75
577.141	33892.01
577.339	33853.09
577.537	33619.63
577.735	33791.66
577.933	33685.16
578.131	33486.51
578.329	33470.12
578.527	32995
578.725	33463.98
578.923	33388.21
579.121	32845.49
579.319	33078.96
579.516	32820.92
579.714	32933.56
579.912	32333.5
580.11	32521.91
580.308	32483
580.506	32431.8
580.704	31930.05
580.901	32345.79
581.099	32577.21
581.297	32345.79
581.495	31964.87
581.692	32165.57
581.89	31971.01
582.088	32005.83
582.285	31921.86
582.483	31887.04
582.681	31876.8
582.878	31803.08
583.076	31547.08
583.274	31770.31
583.471	30967.51
583.669	31413.96
583.866	31002.32
584.064	31422.16
584.262	30883.54
584.459	31076.05
584.657	30863.06
584.854	30895.83
585.052	30613.21
585.249	30758.61
585.447	30527.19
585.644	30320.35
585.841	30537.43
586.039	31000.27
586.236	29908.71
586.434	30201.57
586.631	30043.87
586.828	30207.71
587.026	29660.9
587.223	29961.95
587.42	29939.43
587.618	29757.16
587.815	29392.62
588.012	29187.82
588.21	29411.05
588.407	29849.32
588.604	29327.08
588.801	29003.5
588.999	29413.1
589.196	28882.67
589.393	29138.67
589.59	29042.42
589.787	28743.41
589.984	28956.4
590.182	28595.96
590.379	28495.61
590.576	28712.69
590.773	28544.76
590.97	28231.42
591.167	28464.89
591.364	27864.83
591.561	28415.74
591.758	27666.18
591.955	28151.55
592.152	28237.56
592.349	27823.87
592.546	28026.62
592.743	27823.87
592.94	27455.24
593.137	27754.24
593.334	27692.8
593.531	27172.62
593.727	27408.14
593.924	27600.65
594.121	27125.52
594.318	27234.06
594.515	27111.18
594.712	27119.37
594.908	26922.77
595.105	26732.31
595.302	26400.54
595.499	26941.2
595.696	26621.72
595.892	26509.08
596.089	26521.37
596.286	26840.85
596.482	26320.67
596.679	26119.96
596.876	26572.57
597.072	26007.33
597.269	26105.63
597.466	26025.76
597.662	25814.82
597.859	25546.53
598.055	26152.73
598.252	25749.28
598.448	25882.4
598.645	25882.4
598.841	25225
599.038	25343.78
599.234	25540.39
599.431	25313.06
599.627	25069.36
599.824	25302.82
600.02	24747.83
600.217	24778.54
600.413	25130.8
600.609	24612.66
600.806	24538.93
601.002	24885.04
601.198	24289.08
601.395	24450.87
601.591	24487.73
601.787	24160.06
601.984	24317.75
602.18	24268.6
602.376	24100.67
602.572	24115
602.769	24180.54
602.965	23869.25
603.161	24088.38
603.357	23492.42
603.553	23521.09
603.75	23940.93
603.946	23539.52
604.142	23543.62
604.338	23140.17
604.534	23299.91
604.73	22957.9
604.926	23174.99
605.122	23115.59
605.318	22912.85
605.514	22941.52
605.71	22898.51
605.906	23158.6
606.102	23054.15
606.298	23217.99
606.494	22706
606.69	22654.8
606.886	22722.38
607.082	22028.12
607.278	22736.72
607.474	22339.41
607.67	22697.81
607.866	22185.82
608.062	22380.37
608.257	22015.83
608.453	22093.66
608.649	22292.31
608.845	22040.41
609.041	22269.78
609.236	21917.53
609.432	21815.13
609.628	21981.02
609.824	21800.8
610.019	21864.29
610.215	21913.44
610.411	22005.59
610.606	21682.02
610.802	21520.23
610.998	21587.81
611.193	21747.55
611.389	21284.71
611.584	21239.65
611.78	21299.05
611.976	21200.74
612.171	21481.31
612.367	21628.77
612.562	21174.12
612.758	20877.16
612.953	20895.6
613.149	21251.94
613.344	21387.11
613.539	21442.4
613.735	21000.04
613.93	21077.87
614.126	21051.24
614.321	21114.73
614.517	20770.67
614.712	20793.2
614.907	20744.05
615.103	20825.96
615.298	20393.84
615.493	20625.26
615.688	20369.27
615.884	20770.67
616.079	20488.05
616.274	20475.76
616.47	20612.98
616.665	20639.6
616.86	20297.59
617.055	19982.2
617.25	20352.88
617.445	20432.75
617.641	20160.38
617.836	20086.65
618.031	19892.09
618.226	20320.12
618.421	19912.57
618.616	19953.53
618.811	19545.98
619.006	19724.16
619.201	19414.91
619.396	19570.56
619.591	19150.73
619.786	19455.87
619.981	19087.24
620.176	19527.55
620.371	19150.73
620.566	19197.83
620.761	19009.42
620.956	19279.75
621.151	18814.86
621.346	18855.82
621.541	18440.08
621.735	18794.38
621.93	18438.03
622.125	18620.3
622.32	18190.23
622.515	18370.45
622.709	18118.55
622.904	17866.65
623.099	18155.41
623.294	17827.74
623.488	17682.33
623.683	17944.47
623.878	17676.19
624.072	17465.25
624.267	17465.25
624.462	17475.49
624.656	17225.64
624.851	17336.23
625.046	16871.34
625.24	16912.3
625.435	16697.26
625.629	16922.54
625.824	16740.27
626.018	16568.24
626.213	16218.04
626.407	16596.91
626.602	16406.45
626.796	16273.33
626.991	16254.9
627.185	16078.77
627.38	16134.07
627.574	15900.6
627.768	16011.19
627.963	15912.89
628.157	15663.04
628.352	15579.07
628.546	15540.16
628.74	15298.5
628.935	15146.95
629.129	15298.5
629.323	14974.92
629.517	14981.06
629.712	15048.65
629.906	14946.25
630.1	14475.21
630.294	14768.07
630.489	14831.56
630.683	14849.99
630.877	14557.13
631.071	14360.53
631.265	14581.71
631.459	14186.45
631.653	14469.07
631.848	14102.48
632.042	14204.88
632.236	14110.68
632.43	13883.35
632.624	13893.59
632.818	13858.78
633.012	13625.31
633.206	13692.89
633.4	13912.02
633.594	13522.91
633.788	13660.12
633.982	13608.92
634.176	13352.93
634.369	13209.57
634.563	13184.99
634.757	13221.86
634.951	13287.39
635.145	12935.14
635.339	13295.58
635.533	12885.99
635.726	12795.88
635.92	12562.41
636.114	12689.39
636.308	12623.85
636.501	12632.04
636.695	12447.72
636.889	12357.61
637.083	12269.55
637.276	12197.87
637.47	12390.38
637.664	12185.58
637.857	12253.17
638.051	12122.1
638.244	11984.88
638.438	11972.6
638.632	11874.29
638.825	11769.85
639.019	11786.23
639.212	11732.98
639.406	11681.78
639.599	11624.44
639.793	11649.02
639.986	11407.36
640.18	11390.97
640.373	11370.49
640.567	10995.71
640.76	10993.67
640.954	11227.14
641.147	10989.57
641.34	11001.86
641.534	11102.21
641.727	11087.87
641.92	10776.58
642.114	10672.14
642.307	10653.7
642.5	10725.38
642.694	10442.76
642.887	10297.36
643.08	10549.26
643.273	10598.41
643.467	10383.37
643.66	10311.69
643.853	10037.27
644.046	10139.66
644.239	10113.04
644.432	10088.46
644.626	9961.49
644.819	10004.5
645.012	9779.22
645.205	10143.76
645.398	9855
645.591	9820.18
645.784	9756.69
645.977	9664.54
646.17	9744.41
646.363	9599
646.556	9338.91
646.749	9476.12
646.942	9371.68
647.135	9150.5
647.328	9310.24
647.521	9365.53
647.714	9058.34
647.907	9052.19
648.099	8986.66
648.292	9048.1
648.485	8878.12
648.678	8724.52
648.871	8769.57
649.064	8933.41
649.256	8865.83
649.449	8646.69
649.642	8642.6
649.835	8714.28
650.027	8652.84
650.22	8575.02
650.413	8532.01
650.605	8597.54
650.798	8540.2
650.991	8552.49
651.183	8435.75
651.376	8245.29
651.568	8245.29
651.761	8421.42
651.954	8122.41
652.146	8183.85
652.339	8069.17
652.531	8257.58
652.724	7925.81
652.916	7972.91
653.109	7706.68
653.301	8310.83
653.494	7835.7
653.686	7927.86
653.879	7716.92
654.071	7890.99
654.263	7526.46
654.456	7786.55
654.648	7716.92
654.84	7540.79
655.033	7600.18
655.225	7362.62
655.417	7311.42
655.61	7422.01
655.802	7426.11
655.994	7344.19
656.186	7442.49
656.379	7151.68
656.571	7286.84
656.763	7213.12
656.955	7049.28
657.148	7075.9
657.34	7254.08
657.532	7188.54
657.724	6959.17
657.916	6985.79
658.108	6973.5
658.3	6893.63
658.492	6910.02
658.684	6873.15
658.876	6873.15
659.068	6713.41
659.26	6783.04
659.452	6826.05
659.644	6756.42
659.836	6625.35
660.028	6676.55
660.22	6383.69
660.412	6451.27
660.604	6473.8
660.796	6451.27
660.988	6533.19
661.18	6297.67
661.372	6248.52
661.563	6459.46
661.755	6234.19
661.947	6357.07
662.139	6187.08
662.331	6066.25
662.522	6045.77
662.714	6051.92
662.906	6096.97
663.097	6105.17
663.289	5998.67
663.481	5967.95
663.673	6027.34
663.864	5972.05
664.056	6006.86
664.247	6049.87
664.439	5888.08
664.631	5867.6
664.822	5722.2
665.014	5689.43
665.205	5804.11
665.397	5771.35
665.588	5701.72
665.78	5640.28
665.971	5738.58
666.163	5714
666.354	5648.47
666.546	5621.84
666.737	5685.33
666.929	5367.9
667.12	5470.3
667.311	5470.3
667.503	5386.33
667.694	5505.11
667.885	5406.81
668.077	5300.31
668.268	5333.08
668.459	5189.72
668.651	5365.85
668.842	5308.51
669.033	5263.45
669.224	5218.4
669.416	5335.13
669.607	5103.71
669.798	5113.95
669.989	5181.53
670.18	5083.23
670.371	5165.15
670.563	5118.04
670.754	4933.73
670.945	5027.93
671.136	5091.42
671.327	4925.54
671.518	4960.35
671.709	4968.54
671.9	5050.46
672.091	4950.11
672.282	5011.55
672.473	4735.07
672.664	4796.51
672.855	4730.98
673.046	4804.71
673.237	4749.41
673.428	4792.42
673.619	4855.9
673.809	4632.68
674	4825.19
674.191	4620.39
674.382	4687.97
674.573	4673.64
674.764	4739.17
674.954	4710.5
675.145	4595.81
675.336	4657.25
675.527	4665.44
675.717	4552.81
675.908	4530.28
676.099	4470.89
676.289	4558.95
676.48	4579.43
676.671	4468.84
676.861	4546.66
677.052	4305
677.243	4386.92
677.433	4321.38
677.624	4341.86
677.814	4366.44
678.005	4446.31
678.195	4384.87
678.386	4431.98
678.576	4448.36
678.767	4339.82
678.957	4339.82
679.148	4477.03
679.338	4255.85
679.529	4319.34
679.719	4173.93
679.909	4368.49
680.1	4227.18
680.29	4323.43
680.481	4302.95
680.671	4315.24
680.861	4239.47
681.052	4264.04
681.242	4128.88
681.432	4313.19
681.622	4149.36
681.813	4194.41
682.003	4126.83
682.193	4200.55
682.383	4102.25
682.573	4120.68
682.764	4124.78
682.954	4022.38
683.144	4067.44
683.334	3985.52
683.524	3944.56
683.714	4061.29
683.904	4128.88
684.094	4026.48
684.284	3991.66
684.474	4028.53
684.664	3954.8
684.854	3883.12
685.044	3928.17
685.234	3793.01
685.424	3938.41
685.614	3911.79
685.804	3960.94
685.994	3913.84
686.184	3768.43
686.374	3883.12
686.564	3743.86
686.753	3741.81
686.943	3651.7
687.133	3790.96
687.323	3741.81
687.513	3731.57
687.702	3641.46
687.892	3780.72
688.082	3651.7
688.272	3739.76
688.461	3741.81
688.651	3733.62
688.841	3600.5
689.03	3592.31
689.22	3651.7
689.41	3594.36
689.599	3543.16
689.789	3715.19
689.979	3571.83
690.168	3637.36
690.358	3520.63
690.547	3481.72
690.737	3588.21
690.926	3657.84
691.116	3377.27
691.305	3459.19
691.495	3463.29
691.684	3393.65
691.874	3500.15
692.063	3500.15
692.252	3397.75
692.442	3391.61
692.631	3303.54
692.82	3350.65
693.01	3422.33
693.199	3344.5
693.388	3364.98
693.578	3350.65
693.767	3297.4
693.956	3219.58
694.146	3252.35
694.335	3289.21
694.524	3188.86
694.713	3432.57
694.902	3184.76
695.092	3250.3
695.281	3215.48
695.47	3330.17
695.659	3307.64
695.848	3043.45
696.037	3174.52
696.226	3178.62
696.415	3137.66
696.604	3209.34
696.793	3170.43
696.982	3248.25
697.171	3182.71
697.36	3158.14
697.549	3055.74
697.738	3053.69
697.927	3020.92
698.116	3078.27
698.305	3045.5
698.494	3113.08
698.683	3070.08
698.872	3117.18
699.061	3139.71
699.25	3127.42
699.438	3063.93
699.627	2947.2
699.816	3094.65
700.005	2988.16
700.193	2914.43
700.382	3016.83
700.571	3098.75
700.76	2947.2
700.948	3037.31
701.137	3037.31
701.326	3037.31
701.514	2945.15
701.703	3014.78
701.892	2979.97
702.08	3121.28
702.269	2900.09
702.457	2957.44
702.646	2875.52
702.834	2943.1
703.023	3100.8
703.212	3002.49
703.4	2838.66
703.589	2977.92
703.777	2828.42
703.965	2930.81
704.154	2863.23
704.342	2955.39
704.531	2889.85
704.719	2820.22
704.907	2812.03
705.096	2783.36
705.284	2783.36
705.472	2801.79
705.661	2904.19
705.849	2965.63
706.037	2904.19
706.226	2889.85
706.414	2891.9
706.602	2865.28
706.79	2863.23
706.979	2758.78
707.167	2803.84
707.355	2861.18
707.543	2846.85
707.731	2824.32
707.919	2732.16
708.107	2779.26
708.296	2820.22
708.484	2658.43
708.672	2889.85
708.86	2760.83
709.048	2726.02
709.236	2676.87
709.424	2818.18
709.612	2803.84
709.8	2762.88
709.988	2697.35
710.176	2748.54
710.364	2801.79
710.551	2570.37
710.739	2748.54
710.927	2617.47
711.115	2726.02
711.303	2715.78
711.491	2750.59
711.679	2652.29
711.866	2766.98
712.054	2814.08
712.242	2658.43
712.43	2650.24
712.617	2717.83
712.805	2697.35
712.993	2646.15
713.181	2715.78
713.368	2691.2
713.556	2527.36
713.744	2578.56
713.931	2644.1
714.119	2594.95
714.306	2656.39
714.494	2564.23
714.682	2603.14
714.869	2627.71
715.057	2619.52
715.244	2611.33
715.432	2502.79
715.619	2650.24
715.807	2613.38
715.994	2691.2
716.182	2568.32
716.369	2541.7
716.556	2545.8
716.744	2594.95
716.931	2560.13
717.119	2582.66
717.306	2592.9
717.493	2605.19
717.681	2523.27
717.868	2496.64
718.055	2521.22
718.242	2689.15
718.43	2576.52
718.617	2549.89
718.804	2486.4
718.991	2504.84
719.179	2504.84
719.366	2513.03
719.553	2470.02
719.74	2429.06
719.927	2443.4
720.114	2474.12
720.301	2496.64
720.488	2388.1
720.676	2457.73
720.863	2459.78
721.05	2510.98
721.237	2510.98
721.424	2517.12
721.611	2515.08
721.798	2515.08
721.985	2437.25
722.172	2437.25
722.358	2388.1
722.545	2355.33
722.732	2400.39
722.919	2429.06
723.106	2429.06
723.293	2398.34
723.48	2404.49
723.667	2412.68
723.853	2277.51
724.04	2396.29
724.227	2445.45
724.414	2379.91
724.6	2431.11
724.787	2392.2
724.974	2318.47
725.161	2287.75
725.347	2334.86
725.534	2300.04
725.72	2429.06
725.907	2418.82
726.094	2306.18
726.28	2398.34
726.467	2300.04
726.653	2295.94
726.84	2480.26
727.027	2324.62
727.213	2283.66
727.4	2279.56
727.586	2306.18
727.773	2277.51
727.959	2359.43
728.145	2363.53
728.332	2304.14
728.518	2306.18
728.705	2257.03
728.891	2259.08
729.077	2420.87
729.264	2250.89
729.45	2341
729.636	2435.21
729.823	2277.51
730.009	2236.55
730.195	2306.18
730.382	2254.98
730.568	2201.74
730.754	2248.84
730.94	2308.23
731.126	2341
731.313	2279.56
731.499	2273.42
731.685	2334.86
731.871	2193.55
732.057	2283.66
732.243	2216.07
732.429	2177.16
732.615	2248.84
732.801	2191.5
732.987	2224.26
733.173	2191.5
733.359	2248.84
733.545	2142.35
733.731	2207.88
733.917	2265.22
734.103	2216.07
734.289	2226.31
734.475	2132.11
734.661	2207.88
734.847	2154.63
735.033	2230.41
735.219	2242.7
735.404	2070.67
735.59	2152.59
735.776	2132.11
735.962	2160.78
736.148	2076.81
736.333	2158.73
736.519	2095.24
736.705	2218.12
736.89	2066.57
737.076	2128.01
737.262	1933.45
737.447	2037.9
737.633	2103.43
737.819	2089.1
738.004	2039.95
738.19	1974.41
738.375	2134.15
738.561	2105.48
738.747	2152.59
738.932	2068.62
739.118	2254.98
739.303	2070.67
739.489	2111.63
739.674	2082.95
739.859	2027.66
740.045	2025.61
740.23	2039.95
740.416	1937.55
740.601	2048.14
740.786	1966.22
740.972	2044.04
741.157	2085
741.342	1982.6
741.528	1982.6
741.713	1974.41
741.898	1966.22
742.084	2011.28
742.269	1972.36
742.454	1859.73
742.639	1867.92
742.824	2009.23
743.01	1962.12
743.195	1935.5
743.38	1843.34
743.565	1939.6
743.75	1798.29
743.935	1839.25
744.12	1874.06
744.305	1929.36
744.49	1863.82
744.675	1829.01
744.86	1790.1
745.045	1869.97
745.23	1804.43
745.415	1824.91
745.6	1788.05
745.785	1814.67
745.97	1765.52
746.155	1783.95
746.34	1753.23
746.525	1708.18
746.71	1765.52
746.895	1683.6
747.079	1679.51
747.264	1661.07
747.449	1663.12
747.634	1675.41
747.819	1644.69
748.003	1736.85
748.188	1675.41
748.373	1665.17
748.557	1673.36
748.742	1675.41
748.927	1609.87
749.111	1613.97
749.296	1568.91
749.481	1550.48
749.665	1585.3
749.85	1511.57
750.034	1597.59
750.219	1544.34
750.404	1601.68
750.588	1603.73
750.773	1521.81
750.957	1573.01
751.141	1415.32
751.326	1446.04
751.51	1394.84
751.695	1454.23
751.879	1560.72
752.064	1497.24
752.248	1458.32
752.432	1355.93
752.617	1446.04
752.801	1552.53
752.985	1396.89
753.17	1521.81
753.354	1390.74
753.538	1419.41
753.722	1317.01
753.907	1321.11
754.091	1241.24
754.275	1314.97
754.459	1284.25
754.643	1233.05
754.828	1296.53
755.012	1249.43
755.196	1290.39
755.38	1245.34
755.564	1216.66
755.748	1167.51
755.932	1349.78
756.116	1228.95
756.3	1267.86
756.484	1169.56
756.668	1235.1
756.852	1101.98
757.036	1192.09
757.22	1253.53
757.404	1179.8
757.588	1169.56
757.772	1144.99
757.956	1124.51
758.14	1161.37
758.323	1114.27
758.507	1112.22
758.691	1099.93
758.875	1101.98
759.059	1106.07
759.242	1081.5
759.426	1073.31
759.61	1026.2
759.794	1056.92
759.977	1108.12
760.161	1110.17
760.345	1132.7
760.528	1112.22
760.712	979.1
760.895	991.39
761.079	1073.31
761.263	1007.77
761.446	929.95
761.63	995.48
761.813	995.48
761.997	966.81
762.18	923.8
762.364	919.71
762.547	958.62
762.731	1022.11
762.914	1003.68
763.098	882.85
763.281	1013.92
763.464	856.22
763.648	913.56
763.831	944.28
764.015	899.23
764.198	927.9
764.381	868.51
764.564	891.04
764.748	950.43
764.931	854.17
765.114	872.61
765.297	800.93
765.481	815.26
765.664	917.66
765.847	946.33
766.03	958.62
766.213	841.89
766.397	872.61
766.58	886.94
766.763	872.61
766.946	819.36
767.129	843.93
767.312	827.55
767.495	817.31
767.678	778.4
767.861	835.74
768.044	811.17
768.227	827.55
768.41	872.61
768.593	815.26
768.776	800.93
768.959	774.3
769.142	774.3
769.324	772.25
769.507	762.02
769.69	813.21
769.873	839.84
770.056	864.41
770.239	848.03
770.421	827.55
770.604	739.49
770.787	841.89
770.97	737.44
771.152	768.16
771.335	807.07
771.518	762.02
771.7	805.02
771.883	721.06
772.066	714.91
772.248	716.96
772.431	835.74
772.613	743.58
772.796	727.2
772.978	759.97
773.161	712.86
773.343	768.16
773.526	745.63
773.708	680.1
773.891	725.15
774.073	659.62
774.256	673.95
774.438	737.44
774.621	700.58
774.803	755.87
774.985	618.66
775.168	684.19
775.35	708.77
775.532	688.29
775.715	671.9
775.897	669.86
776.079	577.7
776.261	569.51
776.444	692.38
776.626	589.99
776.808	614.56
776.99	641.18
777.173	735.39
777.355	635.04
777.537	553.12
777.719	577.7
777.901	604.32
778.083	559.27
778.265	569.51
778.447	600.23
778.629	571.55
778.811	491.68
778.993	538.79
779.175	544.93
779.357	581.79
779.539	544.93
779.721	520.35
779.903	555.17
780.085	555.17
780.267	514.21
780.449	506.02
780.631	493.73
780.812	524.45
780.994	530.59
781.176	434.34
781.358	503.97
781.54	514.21
781.721	530.59
781.903	503.97
782.085	471.2
782.267	438.44
782.448	446.63
782.63	516.26
782.812	471.2
782.993	573.6
783.175	467.11
783.357	436.39
783.538	510.11
783.72	348.33
783.901	489.64
784.083	399.52
784.264	391.33
784.446	432.29
784.627	399.52
784.809	381.09
784.99	495.78
785.172	422.05
785.353	377
785.535	391.33
785.716	422.05
785.897	342.18
786.079	522.4
786.26	354.47
786.441	385.19
786.623	358.57
786.804	446.63
786.985	383.14
787.167	323.75
787.348	387.24
787.529	372.9
787.71	385.19
787.891	352.42
788.073	362.66
788.254	415.91
788.435	467.11
788.616	399.52
788.797	297.13
788.978	297.13
789.159	393.38
789.34	336.04
789.522	344.23
789.703	385.19
789.884	319.65
790.065	327.85
790.246	364.71
790.427	364.71
790.607	319.65
790.788	307.37
790.969	360.61
791.15	323.75
791.331	315.56
791.512	288.93
791.693	270.5
791.874	315.56
792.054	315.56
792.235	268.45
792.416	288.93
792.597	252.07
792.778	399.52
792.958	219.3
793.139	276.65
793.32	233.64
793.5	303.27
793.681	254.12
793.862	282.79
794.042	319.65
794.223	241.83
794.404	266.41
794.584	241.83
794.765	225.45
794.945	282.79
795.126	321.7
795.306	331.94
795.487	219.3
795.667	217.26
795.848	252.07
796.028	161.96
796.209	272.55
796.389	262.31
796.57	258.21
796.75	225.45
796.93	200.87
797.111	233.64
797.291	178.34
797.471	301.22
797.652	229.54
797.832	174.25
798.012	219.3
798.192	276.65
798.373	233.64
798.553	280.74
798.733	213.16
798.913	174.25
799.093	262.31
799.274	192.68
799.454	164.01
799.634	209.06
799.814	286.89
799.994	219.3
800.174	229.54
800.354	221.35
800.534	202.92
800.714	262.31
800.894	245.93
801.074	213.16
801.254	284.84
801.434	295.08
801.614	207.02
801.794	196.78
801.974	798.88
802.154	170.15
802.334	204.97
802.514	178.34
802.693	196.78
802.873	129.19
803.053	307.37
803.233	200.87
803.413	233.64
803.592	131.24
803.772	194.73
803.952	147.62
804.131	164.01
804.311	100.52
804.491	231.59
804.67	155.82
804.85	178.34
805.03	239.78
805.209	215.21
805.389	145.58
805.568	180.39
805.748	102.57
805.928	180.39
806.107	217.26
806.287	213.16
806.466	182.44
806.646	174.25
806.825	168.1
807.004	155.82
807.184	207.02
807.363	151.72
807.543	176.3
807.722	164.01
807.901	114.86
808.081	155.82
808.26	69.8
808.439	112.81
808.619	225.45
808.798	192.68
808.977	112.81
809.156	239.78
809.336	194.73
809.515	204.97
809.694	114.86
809.873	159.91
810.052	204.97
810.231	168.1
810.411	118.95
810.59	180.39
810.769	131.24
810.948	155.82
811.127	168.1
811.306	102.57
811.485	153.77
811.664	213.16
811.843	151.72
812.022	184.49
812.201	143.53
812.38	135.34
812.559	114.86
812.737	118.95
812.916	102.57
813.095	75.95
813.274	164.01
813.453	159.91
813.632	180.39
813.811	151.72
813.989	127.14
814.168	110.76
814.347	145.58
814.526	118.95
814.704	133.29
814.883	102.57
815.062	32.94
815.24	227.5
815.419	133.29
815.598	137.38
815.776	137.38
815.955	143.53
816.133	141.48
816.312	114.86
816.49	131.24
816.669	80.04
816.847	143.53
817.026	145.58
817.204	176.3
817.383	137.38
817.561	125.1
817.74	47.27
817.918	108.71
818.097	106.67
818.275	61.61
818.453	174.25
818.632	198.82
818.81	121
818.988	194.73
819.167	37.03
819.345	127.14
819.523	61.61
819.701	73.9
819.879	196.78
820.058	151.72
820.236	82.09
820.414	168.1
820.592	88.23
820.77	104.62
820.948	41.13
821.127	12.46
821.305	71.85
821.483	118.95
821.661	166.06
821.839	90.28
822.017	82.09
822.195	80.04
822.373	143.53
822.551	135.34
822.729	131.24
822.907	102.57
823.085	123.05
823.262	141.48
823.44	57.51
823.618	61.61
823.796	137.38
823.974	57.51
824.152	112.81
824.329	-5.97
824.507	30.89
824.685	96.43
824.863	96.43
825.04	151.72
825.218	114.86
825.396	188.58
825.574	141.48
825.751	88.23
825.929	94.38
826.107	65.71
826.284	106.67
826.462	110.76
826.639	129.19
826.817	30.89
826.994	73.9
827.172	45.23
827.349	149.67
827.527	77.99
827.704	96.43
827.882	96.43
828.059	112.81
828.237	90.28
828.414	118.95
828.591	-26.45
828.769	86.19
828.946	22.7
829.124	127.14
829.301	102.57
829.478	20.65
829.655	57.51
829.833	63.66
830.01	6.31
830.187	96.43
830.364	96.43
830.542	69.8
830.719	43.18
830.896	43.18
831.073	114.86
831.25	30.89
831.427	28.84
831.604	102.57
831.782	-48.98
831.959	77.99
832.136	49.32
832.313	98.47
832.49	12.46
832.667	2.22
832.844	92.33
833.021	73.9
833.198	73.9
833.374	90.28
833.551	4.27
833.728	94.38
833.905	14.51
834.082	24.75
834.259	41.13
834.436	73.9
834.612	26.79
834.789	149.67
834.966	-26.45
835.143	12.46
835.319	37.03
835.496	41.13
835.673	47.27
835.85	143.53
836.026	63.66
836.203	123.05
836.38	-18.26
836.556	71.85
836.733	20.65
836.909	135.34
837.086	-3.93
837.262	55.47
837.439	102.57
837.616	71.85
837.792	37.03
837.968	114.86
838.145	-100.18
838.321	-8.02
838.498	18.6
838.674	47.27
838.851	-32.6
839.027	32.94
839.203	59.56
839.38	30.89
839.556	69.8
839.732	65.71
839.909	20.65
840.085	82.09
840.261	-28.5
840.437	28.84
840.614	20.65
840.79	77.99
840.966	86.19
841.142	-1.88
841.318	14.51
841.494	6.31
841.671	82.09
841.847	-32.6
842.023	-8.02
842.199	-85.84
842.375	104.62
842.551	69.8
842.727	32.94
842.903	96.43
843.079	-34.64
843.255	0.17
843.431	-34.64
843.607	47.27
843.783	-36.69
843.959	71.85
844.134	-18.26
844.31	61.61
844.486	61.61
844.662	-3.93
844.838	2.22
845.013	96.43
845.189	139.43
845.365	41.13
845.541	26.79
845.716	22.7
845.892	80.04
846.068	-16.21
846.244	-20.31
846.419	69.8
846.595	41.13
846.77	45.23
846.946	65.71
847.122	-1.88
847.297	43.18
847.473	-34.64
847.648	24.75
847.824	63.66
847.999	4.27
848.175	-3.93
848.35	4.27
848.526	77.99
848.701	43.18
848.876	45.23
849.052	28.84
849.227	-1.88
849.403	28.84
849.578	20.65
849.753	37.03
849.929	86.19
850.104	28.84
850.279	4.27
850.454	73.9
850.63	61.61
850.805	-8.02
850.98	-14.17
851.155	-16.21
851.33	32.94
851.505	-44.88
851.681	80.04
851.856	28.84
852.031	-55.12
852.206	39.08
852.381	45.23
852.556	-46.93
852.731	41.13
852.906	55.47
853.081	-20.31
853.256	26.79
853.431	18.6
853.606	102.57
853.781	-1.88
853.956	-108.37
854.131	22.7
854.305	-20.31
854.48	26.79
854.655	41.13
854.83	-20.31
855.005	28.84
855.18	28.84
855.354	-28.5
855.529	41.13
855.704	63.66
855.879	20.65
856.053	-36.69
856.228	12.46
856.403	37.03
856.577	110.76
856.752	-3.93
856.926	53.42
857.101	-12.12
857.276	-36.69
857.45	20.65
857.625	90.28
857.799	-1.88
857.974	53.42
858.148	-3.93
858.323	75.95
858.497	4.27
858.672	24.75
858.846	-44.88
859.02	69.8
859.195	-26.45
859.369	-16.21
859.543	18.6
859.718	-61.27
859.892	14.51
860.066	30.89
860.241	0.17
860.415	-5.97
860.589	-24.4
860.763	-28.5
860.938	-42.84
861.112	34.99
861.286	-3.93
861.46	55.47
861.634	-112.47
861.808	71.85
861.982	-59.22
862.157	20.65
862.331	14.51
862.505	-18.26
862.679	4.27
862.853	43.18
863.027	2.22
863.201	41.13
863.375	92.33
863.549	30.89
863.722	20.65
863.896	6.31
864.07	-14.17
864.244	-48.98
864.418	4.27
864.592	-3.93
864.766	69.8
864.939	57.51
865.113	26.79
865.287	16.55
865.461	-48.98
865.634	63.66
865.808	12.46
865.982	20.65
866.156	2.22
866.329	-10.07
866.503	-22.36
866.676	63.66
866.85	37.03
867.024	32.94
867.197	-40.79
867.371	-3.93
867.544	49.32
867.718	-69.46
867.891	69.8
868.065	20.65
868.238	2.22
868.412	26.79
868.585	6.31
868.759	71.85
868.932	-20.31
869.105	-36.69
869.279	6.31
869.452	-32.6
869.625	-34.64
869.799	16.55
869.972	-20.31
870.145	-8.02
870.319	20.65
870.492	-40.79
870.665	51.37
870.838	-14.17
871.011	-71.51
871.185	-12.12
871.358	37.03
871.531	14.51
871.704	-3.93
871.877	30.89
872.05	-26.45
872.223	-12.12
872.396	-8.02
872.569	90.28
872.742	2.22
872.915	20.65
873.088	6.31
873.261	55.47
873.434	14.51
873.607	28.84
873.78	-20.31
873.953	-77.65
874.126	37.03
874.299	32.94
874.471	-1.88
874.644	67.75
874.817	57.51
874.99	123.05
875.163	-36.69
875.335	-38.74
875.508	-26.45
875.681	30.89
875.853	8.36
876.026	61.61
876.199	37.03
876.371	73.9
876.544	28.84
876.717	32.94
876.889	22.7
877.062	53.42
877.234	-28.5
877.407	53.42
877.579	24.75
877.752	-5.97
877.924	86.19
878.097	14.51
878.269	-44.88
878.442	-26.45
878.614	0.17
878.786	45.23
878.959	-69.46
879.131	-20.31
879.303	-42.84
879.476	32.94
879.648	39.08
879.82	55.47
879.993	-5.97
880.165	-10.07
880.337	-10.07
880.509	-53.08
880.681	-16.21
880.854	49.32
881.026	-12.12
881.198	88.23
881.37	37.03
881.542	-1.88
881.714	20.65
881.886	30.89
882.058	-30.55
882.23	47.27
882.402	-61.27
882.574	-40.79
882.746	20.65
882.918	43.18
883.09	53.42
883.262	-20.31
883.434	-12.12
883.606	-5.97
883.778	12.46
883.95	24.75
884.122	-38.74
884.293	18.6
884.465	71.85
884.637	55.47
884.809	-73.56
884.98	39.08
885.152	2.22
885.324	-1.88
885.496	34.99
885.667	-3.93
885.839	-77.65
886.011	49.32
886.182	-16.21
886.354	-16.21
886.525	-10.07
886.697	22.7
886.869	-30.55
887.04	-16.21
887.212	2.22
887.383	71.85
887.555	39.08
887.726	-20.31
887.897	0.17
888.069	-12.12
888.24	69.8
888.412	49.32
888.583	-18.26
888.754	53.42
888.926	-30.55
889.097	-3.93
889.268	-48.98
889.44	-16.21
889.611	-81.75
889.782	-42.84
889.953	-40.79
890.125	-24.4
890.296	-59.22
890.467	55.47
890.638	47.27
890.809	69.8
890.98	-42.84
891.151	32.94
891.323	20.65
891.494	45.23
891.665	16.55
891.836	-36.69
892.007	-73.56
892.178	55.47
892.349	51.37
892.52	-3.93
892.691	-85.84
892.862	-40.79
893.032	-65.36
893.203	-8.02
893.374	39.08
893.545	-18.26
893.716	30.89
893.887	0.17
894.057	-18.26
894.228	22.7
894.399	-1.88
894.57	-28.5
894.74	26.79
894.911	20.65
895.082	-96.08
895.253	37.03
895.423	-10.07
895.594	14.51
895.764	24.75
895.935	-32.6
896.106	-32.6
896.276	10.41
896.447	-26.45
896.617	-36.69
896.788	-3.93
896.958	-36.69
897.129	-3.93
897.299	-51.03
897.47	-34.64
897.64	55.47
897.81	-20.31
897.981	-36.69
898.151	-34.64
898.322	-3.93
898.492	-8.02
898.662	0.17
898.832	-22.36
899.003	-61.27
899.173	108.71
899.343	-40.79
899.513	-106.32
