Data from USB4F104151__313__14-27-07-405.txt Node

Date: Thu Mar 13 14:27:07 EDT 2025
User: louis
Spectrometer: USB4F10415
Trigger mode: 4
Integration Time (sec): 2.500000E-2
Scans to average: 1
Electric dark correction enabled: true
Nonlinearity correction enabled: false
Boxcar width: 0
XAxis mode: Wavelengths
Number of Pixels in Spectrum: 3648
>>>>>Begin Spectral Data<<<<<
178.204	-119.64
178.424	-119.64
178.644	-119.64
178.864	-127.83
179.084	-156.5
179.304	-9.05
179.524	58.54
179.744	11.43
179.964	-13.14
180.184	25.77
180.404	36.01
180.624	-7
180.844	-21.33
181.064	-52.05
181.283	31.91
181.503	-45.91
181.723	-15.19
181.943	-35.67
182.163	46.25
182.383	58.54
182.602	70.83
182.822	68.78
183.042	52.39
183.262	50.35
183.482	38.06
183.701	44.2
183.921	60.59
184.141	103.59
184.361	99.5
184.58	74.92
184.8	105.64
185.02	74.92
185.239	101.55
185.459	-4.95
185.679	42.15
185.898	9.39
186.118	124.07
186.338	66.73
186.557	87.21
186.777	19.63
186.997	50.35
187.216	17.58
187.436	132.26
187.655	91.31
187.875	58.54
188.095	-64.34
188.314	31.91
188.534	83.11
188.753	19.63
188.973	74.92
189.192	21.67
189.412	62.63
189.631	-21.33
189.851	9.39
190.07	87.21
190.29	-21.33
190.509	54.44
190.729	3.24
190.948	101.55
191.168	126.12
191.387	91.31
191.607	58.54
191.826	76.97
192.045	66.73
192.265	46.25
192.484	87.21
192.704	81.07
192.923	-35.67
193.142	105.64
193.362	17.58
193.581	107.69
193.8	56.49
194.02	50.35
194.239	85.16
194.458	119.98
194.678	89.26
194.897	21.67
195.116	17.58
195.335	25.77
195.555	85.16
195.774	33.96
195.993	40.11
196.212	11.43
196.432	19.63
196.651	70.83
196.87	46.25
197.089	95.4
197.308	87.21
197.528	128.17
197.747	-15.19
197.966	58.54
198.185	56.49
198.404	50.35
198.623	83.11
198.842	46.25
199.062	76.97
199.281	91.31
199.5	25.77
199.719	95.4
199.938	66.73
200.157	81.07
200.376	-7
200.595	93.35
200.814	101.55
201.033	66.73
201.252	136.36
201.471	74.92
201.69	15.53
201.909	56.49
202.128	113.83
202.347	107.69
202.566	50.35
202.785	70.83
203.004	83.11
203.223	103.59
203.442	50.35
203.661	64.68
203.879	17.58
204.098	9.39
204.317	36.01
204.536	85.16
204.755	66.73
204.974	95.4
205.193	85.16
205.411	99.5
205.63	50.35
205.849	9.39
206.068	52.39
206.287	144.55
206.505	117.93
206.724	70.83
206.943	44.2
207.162	85.16
207.381	103.59
207.599	29.87
207.818	74.92
208.037	48.3
208.255	99.5
208.474	54.44
208.693	58.54
208.911	54.44
209.13	52.39
209.349	50.35
209.567	187.56
209.786	132.26
210.005	134.31
210.223	70.83
210.442	-2.9
210.661	83.11
210.879	70.83
211.098	3.24
211.316	119.98
211.535	148.65
211.753	17.58
211.972	76.97
212.191	42.15
212.409	79.02
212.628	99.5
212.846	33.96
213.065	68.78
213.283	85.16
213.502	-29.52
213.72	70.83
213.938	54.44
214.157	79.02
214.375	115.88
214.594	91.31
214.812	56.49
215.031	60.59
215.249	56.49
215.467	36.01
215.686	38.06
215.904	3.24
216.122	66.73
216.341	115.88
216.559	152.74
216.778	70.83
216.996	25.77
217.214	9.39
217.432	5.29
217.651	79.02
217.869	101.55
218.087	17.58
218.306	58.54
218.524	113.83
218.742	58.54
218.96	99.5
219.179	9.39
219.397	58.54
219.615	93.35
219.833	156.84
220.051	27.82
220.27	87.21
220.488	119.98
220.706	79.02
220.924	52.39
221.142	83.11
221.36	54.44
221.578	109.74
221.796	85.16
222.015	3.24
222.233	58.54
222.451	95.4
222.669	42.15
222.887	107.69
223.105	27.82
223.323	-4.95
223.541	101.55
223.759	60.59
223.977	91.31
224.195	76.97
224.413	19.63
224.631	3.24
224.849	-0.85
225.067	97.45
225.285	1.19
225.503	25.77
225.721	1.19
225.939	113.83
226.157	31.91
226.375	189.61
226.592	-15.19
226.81	91.31
227.028	156.84
227.246	107.69
227.464	128.17
227.682	124.07
227.9	95.4
228.117	40.11
228.335	97.45
228.553	68.78
228.771	52.39
228.989	66.73
229.206	1.19
229.424	93.35
229.642	52.39
229.86	29.87
230.077	58.54
230.295	36.01
230.513	70.83
230.731	-7
230.948	58.54
231.166	50.35
231.384	9.39
231.601	60.59
231.819	76.97
232.037	42.15
232.254	76.97
232.472	91.31
232.689	15.53
232.907	158.89
233.125	13.48
233.342	74.92
233.56	44.2
233.777	60.59
233.995	58.54
234.213	76.97
234.43	99.5
234.648	25.77
234.865	-37.72
235.083	25.77
235.3	56.49
235.518	54.44
235.735	124.07
235.953	140.46
236.17	76.97
236.388	58.54
236.605	128.17
236.822	83.11
237.04	101.55
237.257	60.59
237.475	-11.09
237.692	42.15
237.909	76.97
238.127	7.34
238.344	-0.85
238.562	79.02
238.779	42.15
238.996	70.83
239.214	54.44
239.431	66.73
239.648	36.01
239.865	128.17
240.083	58.54
240.3	91.31
240.517	62.63
240.735	38.06
240.952	99.5
241.169	60.59
241.386	58.54
241.603	42.15
241.821	60.59
242.038	189.61
242.255	122.02
242.472	76.97
242.689	83.11
242.907	171.18
243.124	50.35
243.341	93.35
243.558	50.35
243.775	-4.95
243.992	50.35
244.209	115.88
244.426	140.46
244.643	85.16
244.86	79.02
245.078	85.16
245.295	66.73
245.512	70.83
245.729	3.24
245.946	11.43
246.163	83.11
246.38	107.69
246.597	101.55
246.814	124.07
247.031	21.67
247.248	60.59
247.464	36.01
247.681	11.43
247.898	60.59
248.115	70.83
248.332	56.49
248.549	70.83
248.766	158.89
248.983	79.02
249.2	115.88
249.417	95.4
249.633	38.06
249.85	99.5
250.067	9.39
250.284	60.59
250.501	109.74
250.717	117.93
250.934	-37.72
251.151	76.97
251.368	83.11
251.585	115.88
251.801	91.31
252.018	58.54
252.235	76.97
252.451	79.02
252.668	27.82
252.885	91.31
253.102	27.82
253.318	115.88
253.535	54.44
253.752	93.35
253.968	54.44
254.185	60.59
254.401	56.49
254.618	68.78
254.835	91.31
255.051	101.55
255.268	48.3
255.484	91.31
255.701	46.25
255.917	60.59
256.134	33.96
256.351	140.46
256.567	38.06
256.784	81.07
257	17.58
257.217	138.41
257.433	91.31
257.65	50.35
257.866	148.65
258.082	-7
258.299	21.67
258.515	87.21
258.732	23.72
258.948	42.15
259.165	68.78
259.381	33.96
259.597	62.63
259.814	15.53
260.03	119.98
260.246	46.25
260.463	132.26
260.679	140.46
260.895	64.68
261.112	36.01
261.328	-13.14
261.544	36.01
261.761	156.84
261.977	27.82
262.193	-21.33
262.409	58.54
262.626	91.31
262.842	27.82
263.058	40.11
263.274	107.69
263.49	58.54
263.707	167.08
263.923	83.11
264.139	40.11
264.355	134.31
264.571	103.59
264.787	54.44
265.004	72.87
265.22	91.31
265.436	85.16
265.652	44.2
265.868	79.02
266.084	48.3
266.3	27.82
266.516	54.44
266.732	66.73
266.948	87.21
267.164	107.69
267.38	99.5
267.596	132.26
267.812	124.07
268.028	101.55
268.244	50.35
268.46	29.87
268.676	33.96
268.892	134.31
269.108	81.07
269.324	50.35
269.54	58.54
269.756	91.31
269.972	99.5
270.188	97.45
270.403	-7
270.619	60.59
270.835	97.45
271.051	23.72
271.267	33.96
271.483	126.12
271.698	150.7
271.914	140.46
272.13	64.68
272.346	50.35
272.562	21.67
272.777	27.82
272.993	1.19
273.209	95.4
273.425	132.26
273.64	60.59
273.856	93.35
274.072	91.31
274.287	56.49
274.503	142.5
274.719	56.49
274.934	54.44
275.15	33.96
275.366	83.11
275.581	58.54
275.797	42.15
276.012	74.92
276.228	17.58
276.444	60.59
276.659	105.64
276.875	72.87
277.09	19.63
277.306	-15.19
277.521	62.63
277.737	52.39
277.952	119.98
278.168	74.92
278.383	74.92
278.599	148.65
278.814	76.97
279.03	91.31
279.245	99.5
279.461	68.78
279.676	42.15
279.892	11.43
280.107	33.96
280.322	-45.91
280.538	148.65
280.753	54.44
280.969	58.54
281.184	95.4
281.399	95.4
281.615	60.59
281.83	103.59
282.045	93.35
282.26	27.82
282.476	3.24
282.691	140.46
282.906	27.82
283.122	93.35
283.337	50.35
283.552	62.63
283.767	62.63
283.983	126.12
284.198	3.24
284.413	109.74
284.628	107.69
284.843	25.77
285.058	169.13
285.274	126.12
285.489	62.63
285.704	115.88
285.919	42.15
286.134	91.31
286.349	85.16
286.564	44.2
286.779	40.11
286.995	44.2
287.21	38.06
287.425	132.26
287.64	64.68
287.855	48.3
288.07	-45.91
288.285	85.16
288.5	146.6
288.715	33.96
288.93	103.59
289.145	15.53
289.36	117.93
289.575	142.5
289.79	101.55
290.004	50.35
290.219	142.5
290.434	-2.9
290.649	103.59
290.864	21.67
291.079	115.88
291.294	46.25
291.509	101.55
291.724	62.63
291.938	115.88
292.153	83.11
292.368	54.44
292.583	9.39
292.798	66.73
293.012	60.59
293.227	60.59
293.442	111.78
293.657	91.31
293.871	119.98
294.086	83.11
294.301	175.27
294.516	165.03
294.73	42.15
294.945	50.35
295.16	58.54
295.374	74.92
295.589	119.98
295.804	79.02
296.018	70.83
296.233	142.5
296.447	33.96
296.662	25.77
296.877	99.5
297.091	33.96
297.306	9.39
297.52	17.58
297.735	134.31
297.949	48.3
298.164	19.63
298.378	-4.95
298.593	99.5
298.807	62.63
299.022	146.6
299.236	140.46
299.451	33.96
299.665	54.44
299.88	66.73
300.094	99.5
300.309	72.87
300.523	52.39
300.737	144.55
300.952	70.83
301.166	152.74
301.381	83.11
301.595	38.06
301.809	91.31
302.024	52.39
302.238	-7
302.452	140.46
302.667	29.87
302.881	109.74
303.095	122.02
303.309	124.07
303.524	79.02
303.738	76.97
303.952	117.93
304.166	25.77
304.381	36.01
304.595	105.64
304.809	58.54
305.023	74.92
305.237	-23.38
305.452	21.67
305.666	171.18
305.88	113.83
306.094	68.78
306.308	115.88
306.522	66.73
306.736	93.35
306.95	148.65
307.164	107.69
307.379	60.59
307.593	91.31
307.807	91.31
308.021	74.92
308.235	115.88
308.449	68.78
308.663	95.4
308.877	124.07
309.091	72.87
309.305	85.16
309.519	64.68
309.733	91.31
309.947	-7
310.161	107.69
310.374	93.35
310.588	119.98
310.802	79.02
311.016	36.01
311.23	105.64
311.444	42.15
311.658	111.78
311.872	38.06
312.085	46.25
312.299	70.83
312.513	103.59
312.727	60.59
312.941	50.35
313.154	83.11
313.368	42.15
313.582	132.26
313.796	68.78
314.009	150.7
314.223	99.5
314.437	107.69
314.651	134.31
314.864	25.77
315.078	111.78
315.292	38.06
315.505	115.88
315.719	60.59
315.933	89.26
316.146	62.63
316.36	15.53
316.573	160.94
316.787	103.59
317.001	144.55
317.214	-35.67
317.428	62.63
317.641	54.44
317.855	70.83
318.068	-4.95
318.282	140.46
318.495	158.89
318.709	48.3
318.922	105.64
319.136	115.88
319.349	89.26
319.563	60.59
319.776	50.35
319.99	33.96
320.203	105.64
320.417	13.48
320.63	113.83
320.843	76.97
321.057	113.83
321.27	91.31
321.483	74.92
321.697	167.08
321.91	109.74
322.124	25.77
322.337	58.54
322.55	54.44
322.763	76.97
322.977	9.39
323.19	81.07
323.403	111.78
323.617	105.64
323.83	46.25
324.043	17.58
324.256	76.97
324.469	-9.05
324.683	132.26
324.896	79.02
325.109	74.92
325.322	25.77
325.535	156.84
325.748	111.78
325.962	50.35
326.175	36.01
326.388	91.31
326.601	95.4
326.814	13.48
327.027	89.26
327.24	107.69
327.453	-0.85
327.666	103.59
327.879	181.42
328.092	66.73
328.305	158.89
328.518	95.4
328.731	60.59
328.944	79.02
329.157	175.27
329.37	-2.9
329.583	128.17
329.796	62.63
330.009	70.83
330.222	132.26
330.435	50.35
330.648	62.63
330.861	50.35
331.073	79.02
331.286	72.87
331.499	107.69
331.712	117.93
331.925	50.35
332.138	-15.19
332.35	109.74
332.563	5.29
332.776	132.26
332.989	36.01
333.202	79.02
333.414	58.54
333.627	36.01
333.84	44.2
334.053	132.26
334.265	70.83
334.478	25.77
334.691	169.13
334.903	74.92
335.116	40.11
335.329	74.92
335.541	93.35
335.754	144.55
335.966	29.87
336.179	74.92
336.392	17.58
336.604	50.35
336.817	140.46
337.029	36.01
337.242	1.19
337.454	119.98
337.667	152.74
337.88	74.92
338.092	99.5
338.305	117.93
338.517	66.73
338.729	74.92
338.942	115.88
339.154	122.02
339.367	-11.09
339.579	70.83
339.792	113.83
340.004	76.97
340.217	68.78
340.429	156.84
340.641	-31.57
340.854	74.92
341.066	29.87
341.278	95.4
341.491	138.41
341.703	74.92
341.915	19.63
342.128	79.02
342.34	87.21
342.552	93.35
342.764	87.21
342.977	85.16
343.189	58.54
343.401	144.55
343.613	1.19
343.826	72.87
344.038	62.63
344.25	140.46
344.462	13.48
344.674	128.17
344.886	109.74
345.099	58.54
345.311	119.98
345.523	83.11
345.735	1.19
345.947	99.5
346.159	52.39
346.371	140.46
346.583	99.5
346.795	111.78
347.007	95.4
347.219	115.88
347.431	50.35
347.643	132.26
347.855	29.87
348.067	103.59
348.279	46.25
348.491	17.58
348.703	97.45
348.915	83.11
349.127	44.2
349.339	83.11
349.551	36.01
349.763	76.97
349.975	97.45
350.187	124.07
350.399	74.92
350.61	103.59
350.822	66.73
351.034	115.88
351.246	62.63
351.458	25.77
351.669	9.39
351.881	148.65
352.093	74.92
352.305	124.07
352.517	109.74
352.728	99.5
352.94	115.88
353.152	140.46
353.363	64.68
353.575	162.98
353.787	103.59
353.999	99.5
354.21	181.42
354.422	70.83
354.633	87.21
354.845	85.16
355.057	128.17
355.268	113.83
355.48	113.83
355.692	62.63
355.903	74.92
356.115	83.11
356.326	-35.67
356.538	115.88
356.749	25.77
356.961	148.65
357.172	17.58
357.384	66.73
357.595	148.65
357.807	50.35
358.018	25.77
358.23	64.68
358.441	101.55
358.653	130.22
358.864	115.88
359.075	134.31
359.287	91.31
359.498	181.42
359.709	33.96
359.921	99.5
360.132	113.83
360.344	85.16
360.555	103.59
360.766	140.46
360.977	21.67
361.189	124.07
361.4	74.92
361.611	99.5
361.823	185.51
362.034	33.96
362.245	101.55
362.456	97.45
362.667	36.01
362.879	36.01
363.09	74.92
363.301	132.26
363.512	144.55
363.723	111.78
363.935	66.73
364.146	132.26
364.357	119.98
364.568	42.15
364.779	56.49
364.99	9.39
365.201	93.35
365.412	66.73
365.623	150.7
365.834	87.21
366.045	13.48
366.256	93.35
366.467	107.69
366.678	115.88
366.889	83.11
367.1	148.65
367.311	70.83
367.522	132.26
367.733	126.12
367.944	156.84
368.155	60.59
368.366	93.35
368.577	115.88
368.788	91.31
368.999	85.16
369.209	76.97
369.42	165.03
369.631	132.26
369.842	83.11
370.053	95.4
370.264	95.4
370.474	60.59
370.685	101.55
370.896	70.83
371.107	173.22
371.317	124.07
371.528	68.78
371.739	74.92
371.95	132.26
372.16	140.46
372.371	70.83
372.582	50.35
372.792	42.15
373.003	156.84
373.214	54.44
373.424	52.39
373.635	79.02
373.846	165.03
374.056	46.25
374.267	1.19
374.477	50.35
374.688	-27.48
374.898	99.5
375.109	60.59
375.319	107.69
375.53	95.4
375.74	119.98
375.951	148.65
376.161	156.84
376.372	181.42
376.582	48.3
376.793	165.03
377.003	130.22
377.214	54.44
377.424	60.59
377.635	13.48
377.845	124.07
378.055	197.8
378.266	36.01
378.476	50.35
378.686	148.65
378.897	3.24
379.107	109.74
379.317	58.54
379.528	103.59
379.738	95.4
379.948	-21.33
380.158	165.03
380.369	-4.95
380.579	103.59
380.789	132.26
380.999	148.65
381.21	132.26
381.42	136.36
381.63	89.26
381.84	148.65
382.05	154.79
382.261	56.49
382.471	162.98
382.681	58.54
382.891	103.59
383.101	99.5
383.311	156.84
383.521	68.78
383.731	101.55
383.941	76.97
384.151	17.58
384.361	60.59
384.571	107.69
384.781	52.39
384.991	111.78
385.201	152.74
385.411	81.07
385.621	107.69
385.831	76.97
386.041	93.35
386.251	89.26
386.461	79.02
386.671	119.98
386.881	109.74
387.091	99.5
387.301	107.69
387.511	17.58
387.72	140.46
387.93	126.12
388.14	107.69
388.35	91.31
388.56	97.45
388.769	165.03
388.979	117.93
389.189	79.02
389.399	83.11
389.609	91.31
389.818	216.23
390.028	132.26
390.238	134.31
390.447	83.11
390.657	50.35
390.867	134.31
391.076	58.54
391.286	103.59
391.496	119.98
391.705	87.21
391.915	109.74
392.125	122.02
392.334	148.65
392.544	99.5
392.753	97.45
392.963	107.69
393.172	124.07
393.382	150.7
393.591	185.51
393.801	185.51
394.01	236.71
394.22	122.02
394.429	167.08
394.639	117.93
394.848	185.51
395.058	134.31
395.267	107.69
395.477	119.98
395.686	119.98
395.895	156.84
396.105	230.57
396.314	99.5
396.524	156.84
396.733	50.35
396.942	156.84
397.152	173.22
397.361	154.79
397.57	115.88
397.78	240.81
397.989	169.13
398.198	210.09
398.407	195.75
398.617	167.08
398.826	160.94
399.035	144.55
399.244	165.03
399.453	167.08
399.663	179.37
399.872	66.73
400.081	126.12
400.29	197.8
400.499	144.55
400.708	328.87
400.917	117.93
401.127	165.03
401.336	210.09
401.545	249
401.754	66.73
401.963	232.62
402.172	189.61
402.381	173.22
402.59	263.33
402.799	154.79
403.008	238.76
403.217	205.99
403.426	232.62
403.635	132.26
403.844	210.09
404.053	226.47
404.262	158.89
404.471	273.57
404.68	322.73
404.888	218.28
405.097	169.13
405.306	232.62
405.515	257.19
405.724	226.47
405.933	320.68
406.142	304.29
406.35	324.77
406.559	287.91
406.768	265.38
406.977	337.06
407.185	216.23
407.394	300.2
407.603	296.1
407.812	263.33
408.02	416.93
408.229	355.49
408.438	332.97
408.646	386.21
408.855	361.64
409.064	390.31
409.272	353.45
409.481	445.6
409.69	410.79
409.898	404.64
410.107	369.83
410.315	416.93
410.524	464.04
410.733	451.75
410.941	476.32
411.15	541.86
411.358	517.28
411.567	607.39
411.775	611.49
411.984	664.74
412.192	591.01
412.401	638.11
412.609	611.49
412.818	738.46
413.026	773.28
413.234	787.61
413.443	750.75
413.651	748.7
413.86	820.38
414.068	904.35
414.276	945.31
414.485	861.34
414.693	980.12
414.901	1012.89
415.11	1025.18
415.318	947.36
415.526	1090.71
415.734	1172.63
415.943	1119.39
416.151	1217.69
416.359	1168.54
416.567	1256.6
416.776	1285.27
416.984	1479.83
417.192	1404.05
417.4	1363.09
417.608	1504.4
417.817	1381.53
418.025	1514.64
418.233	1557.65
418.441	1592.47
418.649	1696.91
418.857	1764.5
419.065	1891.47
419.273	1856.65
419.481	1940.62
419.689	2024.59
419.897	2149.51
420.105	2098.31
420.313	2231.43
420.521	2245.77
420.729	2299.02
420.937	2491.52
421.145	2462.85
421.353	2626.69
421.561	2794.62
421.769	2813.06
421.977	2894.97
422.185	2921.6
422.393	3079.29
422.601	3187.83
422.809	3183.74
423.017	3253.37
423.224	3398.77
423.432	3619.96
423.64	3513.46
423.848	3884.14
424.056	3857.52
424.263	4025.45
424.471	3855.47
424.679	4154.48
424.887	4437.09
425.094	4494.44
425.302	4596.84
425.51	4725.86
425.718	4674.66
425.925	5043.29
426.133	5287
426.341	5266.52
426.548	5497.94
426.756	5508.18
426.964	5614.68
427.171	6034.51
427.379	5999.7
427.586	6073.42
427.794	6349.9
428.001	6540.36
428.209	6896.71
428.417	6794.31
428.624	7220.28
428.832	7251
429.039	7189.56
429.247	7373.88
429.454	7965.75
429.662	8258.6
429.869	7980.08
430.076	8639.53
430.284	8229.93
430.491	8569.9
430.699	9036.83
430.906	8950.82
431.114	9223.2
431.321	9401.37
431.528	9847.83
431.736	10304.53
431.943	10691.59
432.15	10408.97
432.358	10695.69
432.565	11203.58
432.772	11154.43
432.979	11719.67
433.187	11770.87
433.394	11926.52
433.601	12841.96
433.808	12901.35
434.016	12678.12
434.223	13419.49
434.43	13968.34
434.637	13677.53
434.844	14504.91
435.052	14752.71
435.259	14603.21
435.466	14801.86
435.673	14678.99
435.88	15547.33
436.087	16470.96
436.294	16575.41
436.501	16133.04
436.708	16479.15
436.915	16876.46
437.122	17783.71
437.329	17519.52
437.537	18494.35
437.743	18502.54
437.95	18377.62
438.157	19360.64
438.364	20276.09
438.571	19962.75
438.778	19950.46
438.985	21820.25
439.192	21119.85
439.399	21801.82
439.606	21046.12
439.813	22270.81
440.02	23814.98
440.227	23247.69
440.433	23130.95
440.64	23591.75
440.847	23845.69
441.054	24353.59
441.261	25721.63
441.467	25326.38
441.674	25932.57
441.881	26686.23
442.088	26751.76
442.294	26743.57
442.501	27626.25
442.708	27595.53
442.914	28934.9
443.121	30249.69
443.328	29520.62
443.534	31539.91
443.741	30501.59
443.948	30124.77
444.154	31955.65
444.361	32279.23
444.568	32496.31
444.774	32035.52
444.981	32393.92
445.187	33751.72
445.394	34849.43
445.6	34134.69
445.807	37677.68
446.013	36143.75
446.22	36737.66
446.426	38156.9
446.633	38703.71
446.839	39570
447.046	38054.5
447.252	40362.56
447.459	39893.58
447.665	40086.09
447.871	41726.51
448.078	43618.83
448.284	41046.58
448.491	42076.71
448.697	44012.04
448.903	45304.31
449.11	45177.34
449.316	44374.53
449.522	44743.17
449.728	46246.38
449.935	46350.82
450.141	46668.26
450.347	47530.45
450.553	46174.7
450.76	46801.38
450.966	48062.93
451.172	47833.55
451.378	49134.01
451.584	47813.07
451.791	48884.16
451.997	48904.64
452.203	49191.36
452.409	49674.68
452.615	49613.24
452.821	47794.64
453.027	46930.4
453.233	49547.7
453.44	47731.15
453.646	48032.21
453.852	48499.14
454.058	49185.21
454.264	47651.28
454.47	49056.19
454.676	47200.73
454.882	48724.42
455.088	45232.63
455.294	45634.03
455.5	46660.07
455.705	46698.98
455.911	44728.83
456.117	44046.86
456.323	43520.53
456.529	41908.78
456.735	43031.07
456.941	41589.3
457.147	41345.59
457.352	39963.21
457.558	39588.43
457.764	39862.86
457.97	38916.7
458.176	38320.74
458.381	38064.74
458.587	36108.93
458.793	36553.34
458.999	34511.52
459.204	36983.41
459.41	35517.07
459.616	33669.8
459.821	33710.76
460.027	33247.92
460.233	32772.79
460.438	31273.68
460.644	31703.75
460.85	30075.62
461.055	29514.47
461.261	29235.95
461.466	27366.15
461.672	26506.01
461.878	28592.89
462.083	26757.91
462.289	25899.81
462.494	25543.46
462.7	24576.82
462.905	24124.22
463.111	25279.27
463.316	25004.85
463.522	24408.89
463.727	24630.07
463.932	24318.78
464.138	24144.7
464.343	24003.39
464.549	23171.91
464.754	24109.88
464.959	24042.3
465.165	23647.04
465.37	22823.76
465.575	21900.12
465.781	23382.85
465.986	23280.46
466.191	22385.49
466.397	22006.62
466.602	20913
466.807	21732.19
467.012	21607.26
467.218	21713.76
467.423	20947.82
467.628	21234.53
467.833	22109.02
468.038	21416.8
468.244	20697.97
468.449	21918.56
468.654	20917.1
468.859	20841.32
469.064	20480.88
469.269	19743.61
469.474	19815.29
469.679	20570.99
469.885	19743.61
470.09	19991.42
470.295	20153.21
470.5	19420.03
470.705	19596.16
470.91	19215.24
471.115	18756.49
471.32	19180.42
471.525	19317.64
471.73	18385.81
471.935	18758.54
472.139	18078.61
472.344	18258.84
472.549	18013.08
472.754	17900.44
472.959	17367.97
473.164	17167.27
473.369	17099.69
473.574	17519.52
473.778	17228.71
473.983	16972.71
474.188	17204.13
474.393	16341.94
474.598	16421.81
474.802	16104.37
475.007	15907.77
475.212	16198.58
475.417	15713.21
475.621	15580.09
475.826	15498.17
476.031	15360.96
476.235	14984.13
476.44	15342.53
476.645	15021
476.849	15035.33
477.054	14758.86
477.259	14496.72
477.463	14422.99
477.668	14042.07
477.872	14296.02
478.077	14334.93
478.282	13765.59
478.486	13822.94
478.691	13599.71
478.895	13618.14
479.1	13548.51
479.304	13353.95
479.509	13159.39
479.713	13280.22
479.918	13286.37
480.122	12618.73
480.326	13198.31
480.531	13034.47
480.735	12714.98
480.94	12692.46
481.144	13124.58
481.348	12719.08
481.553	12706.79
481.757	12518.38
481.961	12682.22
482.166	12690.41
482.37	12696.55
482.574	12534.76
482.778	12665.83
482.983	12815.34
483.187	12463.08
483.391	12573.67
483.595	12436.46
483.8	12329.97
484.004	12520.43
484.208	12456.94
484.412	12553.2
484.616	12555.24
484.821	12436.46
485.025	12393.45
485.229	12424.17
485.433	12391.41
485.637	12141.55
485.841	12205.04
486.045	12383.21
486.249	12387.31
486.453	12168.18
486.657	12485.61
486.861	12381.17
487.065	12004.34
487.269	12305.39
487.473	12125.17
487.677	12303.34
487.881	12450.8
488.085	12155.89
488.289	12383.21
488.493	12129.27
488.697	12551.15
488.901	12239.86
489.105	12327.92
489.309	12538.86
489.512	12481.52
489.716	12291.06
489.92	12323.82
490.124	12391.41
490.328	12864.49
490.531	12403.69
490.735	12624.87
490.939	12694.5
491.143	12510.19
491.346	12561.39
491.55	12727.27
491.754	12743.66
491.958	12743.66
492.161	12858.34
492.365	12821.48
492.569	12870.63
492.772	12911.59
492.976	13140.96
493.18	12729.32
493.383	13007.84
493.587	13333.47
493.79	13558.75
493.994	13263.84
494.197	13214.69
494.401	13517.79
494.605	13331.42
494.808	13710.3
495.012	13863.9
495.215	13855.7
495.419	13657.05
495.622	13845.46
495.825	13954.01
496.029	14093.27
496.232	14441.42
496.436	14126.04
496.639	14693.32
496.843	14533.58
497.046	15045.57
497.249	15113.16
497.453	14891.98
497.656	15186.88
497.859	15139.78
498.063	15473.6
498.266	15854.52
498.469	15610.81
498.673	15813.56
498.876	15758.27
499.079	16206.77
499.282	16116.66
499.485	16481.2
499.689	16462.77
499.892	16876.46
500.095	16786.35
500.298	17154.98
500.501	16985
500.705	17589.15
500.908	17709.98
501.111	17613.73
501.314	17961.88
501.517	18264.98
501.72	18371.47
501.923	18318.23
502.126	18852.75
502.329	18944.91
502.532	18852.75
502.735	19129.22
502.938	19303.3
503.141	19450.75
503.344	19860.35
503.547	19733.37
503.75	19862.4
503.953	20310.9
504.156	20579.18
504.359	20763.5
504.562	20849.52
504.765	21236.58
504.968	21230.44
505.17	21687.14
505.373	21719.9
505.576	21967.71
505.779	22192.98
505.982	22590.29
506.185	22737.74
506.387	22790.99
506.59	22995.79
506.793	23438.15
506.996	23593.79
507.198	24224.57
507.401	24027.96
507.604	24249.14
507.807	24572.72
508.009	24623.92
508.212	25027.37
508.415	25262.89
508.617	25453.35
508.82	25787.17
509.022	25586.47
509.225	26047.26
509.428	26579.73
509.63	26772.24
509.833	26604.31
510.035	27560.71
510.238	27022.09
510.44	27441.93
510.643	28091.13
510.845	27910.91
511.048	27941.63
511.25	28525.3
511.453	28674.81
511.655	29391.59
511.858	29158.13
512.06	29496.04
512.262	29954.79
512.465	29836
512.667	30456.54
512.87	30620.38
513.072	30763.73
513.274	31218.38
513.477	31691.46
513.679	31888.07
513.881	31849.16
514.084	32426.68
514.286	31945.41
514.488	32580.28
514.69	33389.23
514.893	33247.92
515.095	33364.65
515.297	33741.48
515.499	33923.75
515.701	34816.66
515.904	34822.81
516.106	35054.23
516.308	35070.61
516.51	35541.64
516.712	35265.17
516.914	36012.68
517.116	36551.29
517.318	36313.73
517.52	36854.39
517.722	36745.85
517.925	37442.16
518.127	37685.87
518.329	38093.41
518.531	37927.53
518.733	38363.75
518.935	38902.36
519.136	38730.33
519.338	39209.56
519.54	39522.9
519.742	39539.28
519.944	39887.43
520.146	40366.66
520.348	40387.14
520.55	40507.97
520.752	40770.11
520.954	41644.59
521.155	40784.44
521.357	41388.6
521.559	42002.99
521.761	42560.03
521.963	42113.58
522.164	42254.89
522.366	42695.2
522.568	42787.36
522.77	43129.37
522.971	43375.12
523.173	43678.22
523.375	44093.96
523.576	43633.17
523.778	43401.75
523.98	44257.8
524.181	44241.42
524.383	44036.62
524.584	44896.77
524.786	44720.64
524.988	44456.45
525.189	45226.49
525.391	44941.82
525.592	45439.48
525.794	45218.3
525.995	45464.05
526.197	45148.67
526.398	45791.73
526.6	46051.82
526.801	46037.48
527.003	45904.37
527.204	46197.23
527.406	46617.06
527.607	46371.3
527.808	46418.41
528.01	46004.72
528.211	45808.11
528.412	46823.9
528.614	46778.85
528.815	46598.63
529.016	47096.28
529.218	46606.82
529.419	46543.33
529.62	46735.84
529.822	46369.26
530.023	46572
530.224	46875.1
530.425	46569.96
530.626	46377.45
530.828	46062.06
531.029	46985.69
531.23	46365.16
531.431	46979.55
531.632	46586.34
531.833	46952.93
532.035	46821.86
532.236	46457.32
532.437	46854.62
532.638	46240.23
532.839	47118.81
533.04	46832.1
533.241	46229.99
533.442	47116.76
533.643	46334.44
533.844	46592.48
534.045	46610.92
534.246	46004.72
534.447	46608.87
534.648	46344.68
534.849	45994.48
535.05	45867.5
535.251	46094.83
535.451	46133.74
535.652	46529
535.853	46103.02
536.054	46381.54
536.255	46148.07
536.456	45754.86
536.657	46479.85
536.857	46107.12
537.058	45877.74
537.259	46121.45
537.46	46123.5
537.66	45949.42
537.861	45781.49
538.062	45685.23
538.263	46148.07
538.463	45347.32
538.664	45703.67
538.865	46049.77
539.065	45957.61
539.266	45443.57
539.466	46084.59
539.667	45404.66
539.868	46029.29
540.068	45554.16
540.269	45289.98
540.469	45646.32
540.67	45365.75
540.87	45498.87
541.071	45644.27
541.271	45939.18
541.472	45347.32
541.672	45009.4
541.873	45062.65
542.073	44833.28
542.274	45900.27
542.474	45009.4
542.675	44755.46
542.875	45599.22
543.075	45269.5
543.276	44509.7
543.476	45433.33
543.676	44947.96
543.877	45234.68
544.077	45505.01
544.277	45246.97
544.478	44970.49
544.678	45253.11
544.878	44550.66
545.078	45263.35
545.279	44759.55
545.479	44732.93
545.679	45212.15
545.879	44845.57
546.079	45001.21
546.28	44696.06
546.48	44366.34
546.68	44984.83
546.88	45130.23
547.08	44829.18
547.28	44837.37
547.48	44431.88
547.68	44915.2
547.88	44462.6
548.081	44648.96
548.281	44309
548.481	44823.04
548.681	45165.05
548.881	45005.31
549.081	44749.31
549.28	44550.66
549.48	44845.57
549.68	44564.99
549.88	44923.39
550.08	44816.89
550.28	44820.99
550.48	44642.82
550.68	45074.94
550.88	44319.24
551.08	44532.23
551.279	44945.92
551.479	44911.1
551.679	44964.35
551.879	44517.89
552.079	44956.16
552.278	44655.11
552.478	44904.96
552.678	44892.67
552.878	44478.98
553.077	45146.62
553.277	44435.97
553.477	45001.21
553.676	44478.98
553.876	44868.09
554.076	44765.7
554.275	44356.1
554.475	44233.22
554.674	44528.13
554.874	44505.6
555.074	44595.71
555.273	44515.84
555.473	44831.23
555.672	43979.28
555.872	44716.54
556.071	44581.38
556.271	44837.37
556.47	44456.45
556.67	44448.26
556.869	44487.17
557.068	44902.91
557.268	44399.11
557.467	44673.54
557.667	44251.66
557.866	44560.9
558.065	44487.17
558.265	44636.67
558.464	44257.8
558.663	45126.14
558.863	44335.62
559.062	44868.09
559.261	44179.98
559.461	44849.66
559.66	44173.83
559.859	44251.66
560.058	44085.77
560.258	44501.51
560.457	44222.98
560.656	44784.13
560.855	44325.38
561.054	44593.67
561.253	43930.12
561.453	44380.68
561.652	44427.78
561.851	44655.11
562.05	44147.21
562.249	44005.9
562.448	44558.85
562.647	44382.73
562.846	44212.74
563.045	44526.08
563.244	43858.45
563.443	44356.1
563.642	43551.25
563.841	44063.24
564.04	43704.85
564.239	44048.91
564.438	43973.13
564.637	44284.42
564.836	43981.32
565.035	43657.74
565.234	43866.64
565.432	43864.59
565.631	43309.59
565.83	43893.26
566.029	43512.34
566.228	43637.26
566.427	43541.01
566.625	43266.58
566.824	42689.06
567.023	43321.88
567.222	42766.88
567.42	43354.65
567.619	43178.52
567.818	42856.99
568.016	42996.25
568.215	43432.47
568.414	42969.63
568.612	43428.37
568.811	42867.23
569.01	42998.3
569.208	42367.52
569.407	43321.88
569.605	42484.26
569.804	42932.76
570.002	42113.58
570.201	42467.87
570.4	42074.66
570.598	42097.19
570.797	42121.77
570.995	42060.33
571.193	41941.55
571.392	42113.58
571.59	41845.29
571.789	41937.45
571.987	41708.08
572.186	41906.73
572.384	41429.55
572.582	41886.25
572.781	41959.98
572.979	41126.46
573.177	41626.16
573.376	41310.77
573.574	41214.52
573.772	41022.01
573.971	40843.84
574.169	41054.78
574.367	40522.3
574.565	40987.19
574.763	40655.42
574.962	40653.37
575.16	40094.28
575.358	40391.23
575.556	40239.68
575.754	40737.34
575.952	39713.36
576.151	40110.66
576.349	39778.89
576.547	39985.74
576.745	39916.11
576.943	40204.87
577.141	39778.89
577.339	40047.18
577.537	39412.31
577.735	39774.8
577.933	39451.22
578.131	39623.25
578.329	38959.7
578.527	38937.18
578.725	38773.34
578.923	39363.15
579.121	38707.8
579.319	38556.25
579.516	39117.4
579.714	38619.74
579.912	38472.29
580.11	38343.27
580.308	38427.23
580.506	38488.67
580.704	37595.76
580.901	37974.63
581.099	38378.08
581.297	37991.01
581.495	37866.09
581.692	37923.43
581.89	37589.61
582.088	37603.95
582.285	37769.83
582.483	38285.92
582.681	37552.75
582.878	37644.91
583.076	37087.86
583.274	37579.37
583.471	37007.99
583.669	37087.86
583.866	37032.57
584.064	37018.23
584.262	36936.31
584.459	36833.91
584.657	36520.57
584.854	36725.37
585.052	35740.3
585.249	36420.22
585.447	36233.86
585.644	35693.19
585.841	36266.63
586.039	36438.65
586.236	35869.32
586.434	35803.78
586.631	35615.37
586.828	35752.59
587.026	35803.78
587.223	35742.35
587.42	35607.18
587.618	35318.42
587.815	35160.72
588.012	35304.08
588.21	35177.11
588.407	35332.75
588.604	34781.85
588.801	34706.07
588.999	35029.65
589.196	34765.46
589.393	34646.68
589.59	34648.73
589.787	34712.22
589.984	34400.93
590.182	33970.85
590.379	34421.41
590.576	33974.95
590.773	34089.63
590.97	33788.58
591.167	33987.24
591.364	33686.18
591.561	34087.59
591.758	33768.1
591.955	33153.71
592.152	33841.83
592.349	33401.52
592.546	33600.17
592.743	33577.64
592.94	32764.6
593.137	33227.44
593.334	33542.83
593.531	32953.01
593.727	33247.92
593.924	33084.08
594.121	32799.41
594.318	33077.94
594.515	32633.53
594.712	33063.6
594.908	32615.1
595.105	32533.18
595.302	32346.81
595.499	32633.53
595.696	32414.4
595.892	32228.03
596.089	32619.19
596.286	32158.4
596.482	32279.23
596.679	32379.58
596.876	32352.96
597.072	31883.97
597.269	32115.39
597.466	31699.65
597.662	31892.16
597.859	32017.09
598.055	32121.54
598.252	31580.87
598.448	31646.41
598.645	31492.81
598.841	31154.9
599.038	31535.82
599.234	31525.58
599.431	31386.32
599.627	31259.34
599.824	31617.74
600.02	31433.42
600.217	31300.3
600.413	31191.76
600.609	31175.37
600.806	31263.44
601.002	31351.5
601.198	31038.16
601.395	30769.88
601.591	31259.34
601.787	30939.86
601.984	30655.19
602.18	31187.66
602.376	30980.82
602.572	30859.99
602.769	30710.49
602.965	30647
603.161	30843.6
603.357	30569.18
603.553	30579.42
603.75	30659.29
603.946	30511.83
604.142	30677.72
604.338	30145.25
604.534	30489.31
604.73	30376.67
604.926	30474.97
605.122	30540.5
605.318	30589.66
605.514	30321.37
605.71	30468.83
605.906	30548.7
606.102	30687.96
606.298	30571.22
606.494	30403.29
606.69	30309.08
606.886	30647
607.082	29981.41
607.278	30673.62
607.474	30038.75
607.67	30571.22
607.866	30337.76
608.062	30505.69
608.257	30466.78
608.453	30472.92
608.649	30485.21
608.845	30167.77
609.041	30130.91
609.236	30784.21
609.432	30681.81
609.628	30606.04
609.824	30231.26
610.019	30397.15
610.215	30378.72
610.411	30436.06
610.606	30440.15
610.802	30278.36
610.998	30384.86
611.193	30319.32
611.389	30261.98
611.584	30384.86
611.78	30163.68
611.976	30651.09
612.171	30200.54
612.367	30280.41
612.562	30212.83
612.758	30210.78
612.953	30210.78
613.149	30296.8
613.344	30276.32
613.539	30669.53
613.735	30294.75
613.93	30636.76
614.126	30118.62
614.321	30874.32
614.517	30352.09
614.712	30663.38
614.907	30282.46
615.103	30339.8
615.298	30212.83
615.493	30687.96
615.688	29706.98
615.884	30808.79
616.079	29897.44
616.274	30477.02
616.47	30337.76
616.665	30286.56
616.86	30118.62
617.055	30083.81
617.25	30040.8
617.445	30302.94
617.641	29813.48
617.836	30411.48
618.031	29688.55
618.226	30038.75
618.421	29985.51
618.616	29940.45
618.811	29383.4
619.006	29932.26
619.201	29094.64
619.396	29496.04
619.591	29078.25
619.786	29637.35
619.981	28900.08
620.176	29250.28
620.371	28783.35
620.566	28979.95
620.761	28971.76
620.956	29035.25
621.151	28265.21
621.346	28533.5
621.541	28551.93
621.735	28771.06
621.93	28070.65
622.125	28304.12
622.32	27675.4
622.515	28158.72
622.709	27857.67
622.904	27884.29
623.099	27562.76
623.294	27685.64
623.488	27120.4
623.683	27532.04
623.878	26708.76
624.072	27206.41
624.267	26927.89
624.462	26856.21
624.656	26618.64
624.851	26731.28
625.046	26348.31
625.24	26256.15
625.435	26151.71
625.629	25963.29
625.824	25639.72
626.018	25846.56
626.213	25404.2
626.407	25639.72
626.602	25432.87
626.796	25463.59
626.991	25203.5
627.185	25019.18
627.38	24980.27
627.574	24791.86
627.768	24609.59
627.963	24539.96
628.157	24556.34
628.352	24427.32
628.546	24101.69
628.74	24181.56
628.935	23937.85
629.129	24060.73
629.323	23520.07
629.517	23569.22
629.712	23534.4
629.906	23454.53
630.1	23501.64
630.294	22850.38
630.489	23194.44
630.683	23135.05
630.877	23001.93
631.071	22778.7
631.265	22707.02
631.459	22563.67
631.653	22160.22
631.848	22219.61
632.042	21789.53
632.236	22315.86
632.43	21830.49
632.624	22051.67
632.818	21650.27
633.012	21257.06
633.206	21169
633.4	21234.53
633.594	21123.94
633.788	21066.6
633.982	21390.18
634.176	20853.61
634.369	20671.34
634.563	20589.42
634.757	20665.2
634.951	21115.75
635.145	20474.74
635.339	20659.06
635.533	20216.69
635.726	20112.25
635.92	19878.78
636.114	19874.68
636.308	19940.22
636.501	19835.77
636.695	19907.45
636.889	19549.06
637.083	19598.21
637.276	19227.53
637.47	19174.28
637.664	19098.5
637.857	19102.6
638.051	19088.26
638.244	18776.97
638.438	18682.77
638.632	18586.51
638.825	18432.91
639.019	18324.37
639.212	18295.7
639.406	18355.09
639.599	17898.39
639.793	18029.46
639.986	17472.42
640.18	17953.69
640.373	18211.73
640.567	17714.08
640.76	17529.76
640.954	17378.21
641.147	17499.04
641.34	17175.46
641.534	17134.5
641.727	17009.58
641.92	17167.27
642.114	16798.63
642.307	16862.12
642.5	16669.61
642.694	16552.88
642.887	16518.06
643.08	16446.38
643.273	16356.27
643.467	16210.87
643.66	15946.68
643.853	15729.59
644.046	16053.17
644.239	15827.9
644.432	15594.43
644.626	15549.37
644.819	15721.4
645.012	15524.8
645.205	15543.23
645.398	15457.21
645.591	15221.7
645.784	15170.5
645.977	15010.76
646.17	15123.4
646.363	14799.82
646.556	14787.53
646.749	14646.22
646.942	14635.98
647.135	14562.25
647.328	14457.81
647.521	14177.23
647.714	14304.21
647.907	14414.8
648.099	14140.37
648.292	14253.01
648.485	14162.9
648.678	13988.82
648.871	13820.89
649.064	13747.16
649.256	13980.63
649.449	13536.22
649.642	13571.04
649.835	13587.42
650.027	13446.11
650.22	13224.93
650.413	13210.59
650.605	13052.9
650.798	13165.54
650.991	12864.49
651.183	12987.36
651.376	12725.22
651.568	12669.93
651.761	12811.24
651.954	12657.64
652.146	12731.37
652.339	12577.77
652.531	12516.33
652.724	12407.79
652.916	12211.18
653.109	12436.46
653.301	12295.15
653.494	12358.64
653.686	12116.98
653.879	12231.66
654.071	12051.44
654.263	11787.25
654.456	11801.59
654.648	11815.93
654.84	11715.58
655.033	11760.63
655.225	11494.4
655.417	11576.31
655.61	11525.11
655.802	11412.48
655.994	11340.8
656.186	11412.48
656.379	11242.5
656.571	11228.16
656.763	11125.76
656.955	11011.07
657.148	10941.44
657.34	10900.48
657.532	10769.41
657.724	10871.81
657.916	10732.55
658.108	10757.13
658.3	10552.33
658.492	10472.46
658.684	10447.88
658.876	10617.86
659.068	10429.45
659.26	10273.81
659.452	10343.44
659.644	10234.89
659.836	10118.16
660.028	10193.94
660.22	9925.65
660.412	9987.09
660.604	9808.92
660.796	10071.06
660.988	9679.89
661.18	9845.78
661.372	9544.73
661.563	9655.32
661.755	9620.5
661.947	9462.81
662.139	9614.36
662.331	9421.85
662.522	9335.84
662.714	9241.63
662.906	9262.11
663.097	9161.76
663.289	9006.11
663.481	8875.04
663.673	9036.83
663.864	9028.64
664.056	8952.87
664.247	9028.64
664.439	8762.4
664.631	8893.47
664.822	8573.99
665.014	8641.57
665.205	8422.44
665.397	8578.09
665.588	8766.5
665.78	8363.05
665.971	8389.67
666.163	8569.9
666.354	8578.09
666.546	8361
666.737	8182.83
666.929	8162.35
667.12	8334.38
667.311	8236.08
667.503	8127.53
667.694	8045.62
667.885	7973.94
668.077	7988.27
668.268	7957.55
668.459	7803.96
668.651	8047.66
668.842	7883.83
669.033	7709.75
669.224	7724.08
669.416	7849.01
669.607	7646.26
669.798	7576.63
669.989	7562.3
670.18	7763
670.371	7472.18
670.563	7234.62
670.754	7562.3
670.945	7337.02
671.136	7316.54
671.327	7386.17
671.518	7345.21
671.709	7431.23
671.9	7222.33
672.091	7095.36
672.282	7019.58
672.473	7023.68
672.664	6980.67
672.855	7056.45
673.046	6976.58
673.237	7005.25
673.428	7078.97
673.619	6876.23
673.809	6693.96
674	6908.99
674.191	6870.08
674.382	6751.3
674.573	6710.34
674.764	6808.64
674.954	6702.15
675.145	6618.18
675.336	6536.26
675.527	6628.42
675.717	6630.47
675.908	6532.17
676.099	6466.63
676.289	6425.67
676.48	6638.66
676.671	6374.47
676.861	6454.34
677.052	6270.03
677.243	6313.03
677.433	6245.45
677.624	6233.16
677.814	6313.03
678.005	6179.92
678.195	6241.36
678.386	6216.78
678.576	6149.2
678.767	6089.81
678.957	6018.13
679.148	6128.72
679.338	5966.93
679.529	6155.34
679.719	6030.41
679.909	6202.44
680.1	5887.06
680.29	5811.28
680.481	6022.22
680.671	5901.39
680.861	5760.08
681.052	5907.54
681.242	5809.23
681.432	5895.25
681.622	5919.82
681.813	5852.24
682.003	5661.78
682.193	5700.69
682.383	5643.35
682.573	5827.67
682.764	5581.91
682.954	5592.15
683.144	5729.36
683.334	5512.28
683.524	5655.64
683.714	5684.31
683.904	5495.89
684.094	5669.97
684.284	5530.71
684.474	5606.49
684.664	5547.09
684.854	5440.6
685.044	5366.87
685.234	5336.15
685.424	5397.59
685.614	5473.37
685.804	5368.92
685.994	5211.23
686.184	5368.92
686.374	5493.85
686.564	5440.6
686.753	5207.13
686.943	5379.16
687.133	5110.88
687.323	5227.61
687.513	5270.62
687.702	5145.69
687.892	5194.84
688.082	5145.69
688.272	5178.46
688.461	5092.44
688.651	5246.04
688.841	5033.05
689.03	5131.36
689.22	5031.01
689.41	5080.16
689.599	5071.97
689.789	5031.01
689.979	4949.09
690.168	5039.2
690.358	4965.47
690.547	4916.32
690.737	4850.78
690.926	5092.44
691.116	4887.65
691.305	4951.14
691.495	4897.89
691.684	4809.83
691.874	4777.06
692.063	4826.21
692.252	4811.87
692.442	4760.67
692.631	4650.08
692.82	4869.22
693.01	4734.05
693.199	4621.41
693.388	4793.44
693.578	4709.47
693.767	4637.8
693.956	4695.14
694.146	4844.64
694.335	4711.52
694.524	4607.08
694.713	4781.15
694.902	4578.4
695.092	4674.66
695.281	4557.93
695.47	4531.3
695.659	4449.38
695.848	4564.07
696.037	4420.71
696.226	4502.63
696.415	4535.4
696.604	4613.22
696.793	4510.82
696.982	4555.88
697.171	4439.14
697.36	4535.4
697.549	4375.66
697.738	4383.85
697.927	4314.22
698.116	4473.96
698.305	4416.62
698.494	4328.55
698.683	4375.66
698.872	4310.12
699.061	4236.39
699.25	4203.63
699.438	4334.7
699.627	4199.53
699.816	4322.41
700.005	4275.31
700.193	4273.26
700.382	4334.7
700.571	4211.82
700.76	4299.88
700.948	4334.7
701.137	4244.59
701.326	4195.43
701.514	4105.32
701.703	4342.89
701.892	4179.05
702.08	4181.1
702.269	4086.89
702.457	4162.67
702.646	4228.2
702.834	4072.56
703.023	4230.25
703.212	4189.29
703.4	4115.56
703.589	4041.84
703.777	4107.37
703.965	3826.8
704.154	4072.56
704.342	3929.2
704.531	3941.49
704.719	3970.16
704.907	3998.83
705.096	3947.63
705.284	3961.97
705.472	3976.3
705.661	3861.62
705.849	4002.93
706.037	3912.81
706.226	3796.08
706.414	3810.42
706.602	3783.79
706.79	3847.28
706.979	3845.23
707.167	3892.34
707.355	3832.94
707.543	3748.98
707.731	3757.17
707.919	3771.51
708.107	3818.61
708.296	3812.46
708.484	3662.96
708.672	3738.74
708.86	3613.81
709.048	3716.21
709.236	3615.86
709.424	3566.71
709.612	3679.35
709.8	3490.93
709.988	3642.48
710.176	3538.04
710.364	3622
710.551	3523.7
710.739	3484.79
710.927	3540.08
711.115	3560.56
711.303	3466.36
711.491	3392.63
711.679	3574.9
711.866	3439.73
712.054	3531.89
712.242	3499.13
712.43	3515.51
712.617	3409.01
712.805	3376.25
712.993	3368.06
713.181	3318.9
713.368	3370.1
713.556	3441.78
713.744	3200.12
713.931	3388.53
714.119	3245.18
714.306	3273.85
714.494	3228.79
714.682	3314.81
714.869	3263.61
715.057	3257.46
715.244	3179.64
715.432	3279.99
715.619	3273.85
715.807	3220.6
715.994	3261.56
716.182	3216.51
716.369	3241.08
716.556	3134.59
716.744	3116.16
716.931	3130.49
717.119	3222.65
717.306	3052.67
717.493	3067
717.681	3044.48
717.868	3032.19
718.055	3163.26
718.242	3048.57
718.43	3064.96
718.617	3122.3
718.804	2970.75
718.991	2911.36
719.179	3116.16
719.366	3069.05
719.553	2946.17
719.74	3001.47
719.927	2927.74
720.114	2860.16
720.301	2835.58
720.488	2921.6
720.676	2833.54
720.863	2958.46
721.05	3071.1
721.237	2821.25
721.424	2845.82
721.611	2778.24
721.798	2737.28
721.985	2716.8
722.172	2776.19
722.358	2761.86
722.545	2786.43
722.732	2802.82
722.919	2931.84
723.106	2638.98
723.293	2763.9
723.48	2755.71
723.667	2790.53
723.853	2559.11
724.04	2729.09
724.227	2686.08
724.414	2755.71
724.6	2610.31
724.787	2567.3
724.974	2710.66
725.161	2653.31
725.347	2497.67
725.534	2509.96
725.72	2630.79
725.907	2632.83
726.094	2536.58
726.28	2659.46
726.467	2557.06
726.653	2636.93
726.84	2610.31
727.027	2466.95
727.213	2466.95
727.4	2614.4
727.586	2428.04
727.773	2618.5
727.959	2442.37
728.145	2477.19
728.332	2471.04
728.518	2462.85
728.705	2428.04
728.891	2409.61
729.077	2434.18
729.264	2360.45
729.45	2399.37
729.636	2368.65
729.823	2407.56
730.009	2352.26
730.195	2339.97
730.382	2380.93
730.568	2329.74
730.754	2217.1
730.94	2344.07
731.126	2376.84
731.313	2368.65
731.499	2368.65
731.685	2417.8
731.871	2339.97
732.057	2319.5
732.243	2258.06
732.429	2305.16
732.615	2333.83
732.801	2311.3
732.987	2174.09
733.173	2299.02
733.359	2321.54
733.545	2272.39
733.731	2217.1
733.917	2206.86
734.103	2268.3
734.289	2108.55
734.475	2149.51
734.661	2280.58
734.847	2169.99
735.033	2256.01
735.219	2061.45
735.404	2065.55
735.59	2038.92
735.776	2063.5
735.962	2165.9
736.148	2143.37
736.333	2098.31
736.519	2051.21
736.705	2040.97
736.89	2061.45
737.076	2018.44
737.262	2006.16
737.447	1971.34
737.633	2000.01
737.819	2032.78
738.004	1946.76
738.19	2018.44
738.375	1995.92
738.561	2176.14
738.747	2059.4
738.932	1944.72
739.118	1942.67
739.303	1938.57
739.489	1967.24
739.674	1975.44
739.859	2002.06
740.045	1909.9
740.23	1893.52
740.416	1866.89
740.601	1928.33
740.786	1854.61
740.972	1879.18
741.157	1858.7
741.342	1821.84
741.528	1819.79
741.713	1932.43
741.898	1854.61
742.084	1764.5
742.269	1832.08
742.454	1881.23
742.639	1813.65
742.824	1844.37
743.01	1803.41
743.195	1807.5
743.38	1750.16
743.565	1827.98
743.75	1737.87
743.935	1754.26
744.12	1784.98
744.305	1655.95
744.49	1631.38
744.675	1555.6
744.86	1739.92
745.045	1698.96
745.23	1670.29
745.415	1666.19
745.6	1770.64
745.785	1676.43
745.97	1748.11
746.155	1698.96
746.34	1647.76
746.525	1551.51
746.71	1649.81
746.895	1694.86
747.079	1612.95
747.264	1516.69
747.449	1516.69
747.634	1574.03
747.819	1524.88
748.003	1459.35
748.188	1434.77
748.373	1557.65
748.557	1541.27
748.742	1541.27
748.927	1580.18
749.111	1442.96
749.296	1541.27
749.481	1455.25
749.665	1442.96
749.85	1459.35
750.034	1420.44
750.219	1402.01
750.404	1352.85
750.588	1406.1
750.773	1477.78
750.957	1365.14
751.141	1408.15
751.326	1408.15
751.51	1254.55
751.695	1434.77
751.879	1262.74
752.064	1324.18
752.248	1295.51
752.432	1295.51
752.617	1268.89
752.801	1242.26
752.985	1285.27
753.17	1332.37
753.354	1283.22
753.538	1303.7
753.722	1209.5
753.907	1279.13
754.091	1229.98
754.275	1256.6
754.459	1107.1
754.643	1152.15
754.828	1227.93
755.012	1148.06
755.196	1184.92
755.38	1182.87
755.564	1199.26
755.748	1139.87
755.932	1189.02
756.116	1295.51
756.3	1197.21
756.484	1146.01
756.668	1156.25
756.852	1115.29
757.036	1039.51
757.22	1189.02
757.404	1082.52
757.588	1016.99
757.772	1074.33
757.956	1076.38
758.14	1109.15
758.323	961.69
758.507	1066.14
758.691	1053.85
758.875	1119.39
759.059	959.64
759.242	1066.14
759.426	1037.47
759.61	1000.6
759.794	920.73
759.977	1125.53
760.161	1066.14
760.345	1111.19
760.528	1066.14
760.712	1053.85
760.895	978.08
761.079	945.31
761.263	963.74
761.446	943.26
761.63	939.16
761.813	1016.99
761.997	887.97
762.18	906.4
762.364	1008.8
762.547	879.77
762.731	928.92
762.914	900.25
763.098	1049.75
763.281	951.45
763.464	947.36
763.648	873.63
763.831	879.77
764.015	986.27
764.198	953.5
764.381	953.5
764.564	941.21
764.748	912.54
764.931	984.22
765.114	818.33
765.297	998.56
765.481	918.68
765.664	822.43
765.847	855.2
766.03	879.77
766.213	804
766.397	879.77
766.58	937.12
766.763	920.73
766.946	820.38
767.129	869.53
767.312	830.62
767.495	904.35
767.678	777.37
767.861	900.25
768.044	822.43
768.227	869.53
768.41	781.47
768.593	810.14
768.776	804
768.959	885.92
769.142	851.1
769.324	797.85
769.507	828.57
769.69	732.32
769.873	795.81
770.056	820.38
770.239	797.85
770.421	849.05
770.604	865.44
770.787	820.38
770.97	865.44
771.152	734.37
771.335	804
771.518	797.85
771.7	789.66
771.883	906.4
772.066	709.79
772.248	838.81
772.431	806.05
772.613	760.99
772.796	713.89
772.978	758.94
773.161	787.61
773.343	730.27
773.526	773.28
773.708	687.26
773.891	648.35
774.073	732.32
774.256	720.03
774.438	804
774.621	646.3
774.803	730.27
774.985	734.37
775.168	738.46
775.35	658.59
775.532	705.7
775.715	625.83
775.897	683.17
776.079	560.29
776.261	771.23
776.444	650.4
776.626	713.89
776.808	664.74
776.99	703.65
777.173	662.69
777.355	650.4
777.537	689.31
777.719	652.45
777.901	660.64
778.083	656.54
778.265	625.83
778.447	699.55
778.629	627.87
778.811	580.77
778.993	636.06
779.175	705.7
779.357	580.77
779.539	617.63
779.721	537.76
779.903	599.2
780.085	615.59
780.267	558.24
780.449	609.44
780.631	560.29
780.812	543.91
780.994	591.01
781.176	636.06
781.358	521.38
781.54	582.82
781.721	521.38
781.903	533.67
782.085	543.91
782.267	582.82
782.448	494.76
782.63	513.19
782.812	564.39
782.993	627.87
783.175	578.72
783.357	498.85
783.538	472.23
783.72	541.86
783.901	515.23
784.083	574.63
784.264	468.13
784.446	459.94
784.627	472.23
784.809	517.28
784.99	461.99
785.172	410.79
785.353	455.84
785.535	480.42
785.716	464.04
785.897	523.43
786.079	486.56
786.26	429.22
786.441	554.15
786.623	386.21
786.804	435.36
786.985	476.32
787.167	425.12
787.348	423.08
787.529	421.03
787.71	459.94
787.891	470.18
788.073	429.22
788.254	347.3
788.435	410.79
788.616	337.06
788.797	390.31
788.978	369.83
789.159	468.13
789.34	443.56
789.522	361.64
789.703	345.25
789.884	451.75
790.065	380.07
790.246	515.23
790.427	380.07
790.607	369.83
790.788	439.46
790.969	365.73
791.15	378.02
791.331	468.13
791.512	357.54
791.693	298.15
791.874	355.49
792.054	414.88
792.235	353.45
792.416	357.54
792.597	300.2
792.778	369.83
792.958	312.49
793.139	298.15
793.32	283.81
793.5	238.76
793.681	451.75
793.862	365.73
794.042	373.92
794.223	355.49
794.404	353.45
794.584	298.15
794.765	337.06
794.945	355.49
795.126	349.35
795.306	320.68
795.487	349.35
795.667	324.77
795.848	357.54
796.028	267.43
796.209	312.49
796.389	273.57
796.57	351.4
796.75	316.58
796.93	205.99
797.111	320.68
797.291	251.05
797.471	273.57
797.652	312.49
797.832	347.3
798.012	302.25
798.192	279.72
798.373	236.71
798.553	289.96
798.733	330.92
798.913	234.66
799.093	287.91
799.274	257.19
799.454	347.3
799.634	298.15
799.814	347.3
799.994	251.05
800.174	271.53
800.354	249
800.534	249
800.714	292.01
800.894	246.95
801.074	230.57
801.254	160.94
801.434	232.62
801.614	242.85
801.794	189.61
801.974	967.84
802.154	292.01
802.334	294.05
802.514	271.53
802.693	255.14
802.873	296.1
803.053	216.23
803.233	273.57
803.413	205.99
803.592	242.85
803.772	283.81
803.952	257.19
804.131	167.08
804.311	183.46
804.491	320.68
804.67	132.26
804.85	232.62
805.03	240.81
805.209	292.01
805.389	175.27
805.568	189.61
805.748	242.85
805.928	199.85
806.107	232.62
806.287	263.33
806.466	218.28
806.646	218.28
806.825	255.14
807.004	222.38
807.184	193.7
807.363	177.32
807.543	287.91
807.722	238.76
807.901	273.57
808.081	238.76
808.26	165.03
808.439	173.22
808.619	238.76
808.798	109.74
808.977	230.57
809.156	167.08
809.336	226.47
809.515	212.14
809.694	179.37
809.873	158.89
810.052	234.66
810.231	187.56
810.411	199.85
810.59	253.09
810.769	158.89
810.948	271.53
811.127	101.55
811.306	214.18
811.485	232.62
811.664	240.81
811.843	191.66
812.022	140.46
812.201	115.88
812.38	187.56
812.559	173.22
812.737	214.18
812.916	101.55
813.095	230.57
813.274	210.09
813.453	109.74
813.632	140.46
813.811	185.51
813.989	95.4
814.168	185.51
814.347	195.75
814.526	226.47
814.704	214.18
814.883	214.18
815.062	150.7
815.24	169.13
815.419	175.27
815.598	255.14
815.776	183.46
815.955	150.7
816.133	93.35
816.312	173.22
816.49	169.13
816.669	158.89
816.847	158.89
817.026	218.28
817.204	128.17
817.383	197.8
817.561	169.13
817.74	83.11
817.918	162.98
818.097	60.59
818.275	171.18
818.453	240.81
818.632	179.37
818.81	36.01
818.988	38.06
819.167	187.56
819.345	132.26
819.523	167.08
819.701	107.69
819.879	158.89
820.058	171.18
820.236	271.53
820.414	132.26
820.592	130.22
820.77	99.5
820.948	70.83
821.127	93.35
821.305	140.46
821.483	165.03
821.661	199.85
821.839	156.84
822.017	179.37
822.195	150.7
822.373	165.03
822.551	162.98
822.729	99.5
822.907	107.69
823.085	134.31
823.262	109.74
823.44	128.17
823.618	140.46
823.796	91.31
823.974	83.11
824.152	201.9
824.329	115.88
824.507	113.83
824.685	197.8
824.863	107.69
825.04	107.69
825.218	140.46
825.396	97.45
825.574	167.08
825.751	97.45
825.929	144.55
826.107	177.32
826.284	87.21
826.462	107.69
826.639	83.11
826.817	89.26
826.994	154.79
827.172	76.97
827.349	197.8
827.527	115.88
827.704	113.83
827.882	79.02
828.059	66.73
828.237	103.59
828.414	136.36
828.591	38.06
828.769	107.69
828.946	17.58
829.124	183.46
829.301	42.15
829.478	189.61
829.655	107.69
829.833	117.93
830.01	27.82
830.187	52.39
830.364	134.31
830.542	167.08
830.719	56.49
830.896	181.42
831.073	81.07
831.25	126.12
831.427	181.42
831.604	66.73
831.782	58.54
831.959	128.17
832.136	50.35
832.313	105.64
832.49	132.26
832.667	117.93
832.844	66.73
833.021	134.31
833.198	76.97
833.374	83.11
833.551	107.69
833.728	42.15
833.905	60.59
834.082	97.45
834.259	144.55
834.436	160.94
834.612	-0.85
834.789	140.46
834.966	68.78
835.143	58.54
835.319	85.16
835.496	173.22
835.673	19.63
835.85	52.39
836.026	107.69
836.203	103.59
836.38	107.69
836.556	83.11
836.733	70.83
836.909	218.28
837.086	79.02
837.262	93.35
837.439	95.4
837.616	91.31
837.792	115.88
837.968	117.93
838.145	36.01
838.321	87.21
838.498	115.88
838.674	148.65
838.851	36.01
839.027	31.91
839.203	68.78
839.38	144.55
839.556	58.54
839.732	162.98
839.909	109.74
840.085	113.83
840.261	9.39
840.437	76.97
840.614	101.55
840.79	103.59
840.966	128.17
841.142	142.5
841.318	74.92
841.494	126.12
841.671	76.97
841.847	52.39
842.023	48.3
842.199	103.59
842.375	138.41
842.551	66.73
842.727	17.58
842.903	158.89
843.079	109.74
843.255	97.45
843.431	87.21
843.607	33.96
843.783	66.73
843.959	117.93
844.134	36.01
844.31	183.46
844.486	117.93
844.662	87.21
844.838	36.01
845.013	99.5
845.189	124.07
845.365	62.63
845.541	107.69
845.716	91.31
845.892	83.11
846.068	46.25
846.244	-35.67
846.419	46.25
846.595	83.11
846.77	66.73
846.946	99.5
847.122	62.63
847.297	66.73
847.473	115.88
847.648	52.39
847.824	87.21
847.999	13.48
848.175	62.63
848.35	76.97
848.526	107.69
848.701	66.73
848.876	76.97
849.052	76.97
849.227	99.5
849.403	31.91
849.578	76.97
849.753	48.3
849.929	-37.72
850.104	21.67
850.279	17.58
850.454	74.92
850.63	52.39
850.805	27.82
850.98	68.78
851.155	70.83
851.33	103.59
851.505	25.77
851.681	103.59
851.856	5.29
852.031	79.02
852.206	60.59
852.381	56.49
852.556	66.73
852.731	50.35
852.906	119.98
853.081	56.49
853.256	83.11
853.431	-9.05
853.606	1.19
853.781	58.54
853.956	21.67
854.131	91.31
854.305	56.49
854.48	36.01
854.655	-15.19
854.83	140.46
855.005	85.16
855.18	109.74
855.354	42.15
855.529	91.31
855.704	85.16
855.879	72.87
856.053	-54.1
856.228	68.78
856.403	44.2
856.577	99.5
856.752	-43.86
856.926	-0.85
857.101	68.78
857.276	42.15
857.45	9.39
857.625	38.06
857.799	58.54
857.974	50.35
858.148	11.43
858.323	68.78
858.497	115.88
858.672	74.92
858.846	33.96
859.02	76.97
859.195	9.39
859.369	13.48
859.543	50.35
859.718	99.5
859.892	19.63
860.066	58.54
860.241	42.15
860.415	109.74
860.589	3.24
860.763	-7
860.938	68.78
861.112	58.54
861.286	83.11
861.46	83.11
861.634	-17.24
861.808	27.82
861.982	38.06
862.157	101.55
862.331	42.15
862.505	19.63
862.679	-23.38
862.853	25.77
863.027	50.35
863.201	132.26
863.375	74.92
863.549	52.39
863.722	46.25
863.896	113.83
864.07	42.15
864.244	44.2
864.418	29.87
864.592	48.3
864.766	25.77
864.939	68.78
865.113	31.91
865.287	52.39
865.461	-4.95
865.634	-7
865.808	38.06
865.982	91.31
866.156	7.34
866.329	25.77
866.503	38.06
866.676	19.63
866.85	81.07
867.024	91.31
867.197	70.83
867.371	21.67
867.544	9.39
867.718	91.31
867.891	91.31
868.065	36.01
868.238	134.31
868.412	101.55
868.585	91.31
868.759	29.87
868.932	48.3
869.105	-13.14
869.279	60.59
869.452	-23.38
869.625	5.29
869.799	21.67
869.972	-39.76
870.145	1.19
870.319	58.54
870.492	25.77
870.665	31.91
870.838	-58.2
871.011	60.59
871.185	56.49
871.358	19.63
871.531	52.39
871.704	42.15
871.877	17.58
872.05	42.15
872.223	17.58
872.396	103.59
872.569	42.15
872.742	-33.62
872.915	122.02
873.088	11.43
873.261	33.96
873.434	74.92
873.607	60.59
873.78	68.78
873.953	42.15
874.126	9.39
874.299	21.67
874.471	-21.33
874.644	70.83
874.817	33.96
874.99	136.36
875.163	17.58
875.335	-13.14
875.508	13.48
875.681	130.22
875.853	19.63
876.026	-9.05
876.199	95.4
876.371	99.5
876.544	29.87
876.717	15.53
876.889	27.82
877.062	29.87
877.234	-2.9
877.407	-19.29
877.579	66.73
877.752	27.82
877.924	19.63
878.097	115.88
878.269	48.3
878.442	-11.09
878.614	62.63
878.786	36.01
878.959	74.92
879.131	60.59
879.303	19.63
879.476	38.06
879.648	36.01
879.82	42.15
879.993	-25.43
880.165	66.73
880.337	9.39
880.509	17.58
880.681	9.39
880.854	5.29
881.026	128.17
881.198	46.25
881.37	72.87
881.542	-4.95
881.714	42.15
881.886	128.17
882.058	66.73
882.23	33.96
882.402	50.35
882.574	1.19
882.746	99.5
882.918	66.73
883.09	76.97
883.262	-23.38
883.434	83.11
883.606	-23.38
883.778	9.39
883.95	70.83
884.122	1.19
884.293	50.35
884.465	17.58
884.637	95.4
884.809	17.58
884.98	9.39
885.152	11.43
885.324	17.58
885.496	36.01
885.667	52.39
885.839	33.96
886.011	58.54
886.182	44.2
886.354	64.68
886.525	-27.48
886.697	148.65
886.869	44.2
887.04	11.43
887.212	122.02
887.383	142.5
887.555	1.19
887.726	-23.38
887.897	-7
888.069	7.34
888.24	-29.52
888.412	76.97
888.583	-7
888.754	1.19
888.926	11.43
889.097	42.15
889.268	42.15
889.44	50.35
889.611	-56.15
889.782	9.39
889.953	-72.53
890.125	52.39
890.296	33.96
890.467	-35.67
890.638	99.5
890.809	33.96
890.98	36.01
891.151	74.92
891.323	-29.52
891.494	74.92
891.665	70.83
891.836	109.74
892.007	-2.9
892.178	31.91
892.349	74.92
892.52	70.83
892.691	42.15
892.862	62.63
893.032	46.25
893.203	111.78
893.374	76.97
893.545	72.87
893.716	95.4
893.887	115.88
894.057	-33.62
894.228	50.35
894.399	46.25
894.57	54.44
894.74	105.64
894.911	52.39
895.082	76.97
895.253	9.39
895.423	-13.14
895.594	42.15
895.764	17.58
895.935	11.43
896.106	83.11
896.276	38.06
896.447	-15.19
896.617	36.01
896.788	-39.76
896.958	50.35
897.129	17.58
897.299	38.06
897.47	70.83
897.64	85.16
897.81	-15.19
897.981	50.35
898.151	74.92
898.322	105.64
898.492	70.83
898.662	13.48
898.832	93.35
899.003	17.58
899.173	-47.96
899.343	44.2
899.513	-11.09
