Data from USB4F104151__172__14-19-57-678.txt Node

Date: Thu Mar 13 14:19:57 EDT 2025
User: louis
Spectrometer: USB4F10415
Trigger mode: 4
Integration Time (sec): 2.000000E-2
Scans to average: 1
Electric dark correction enabled: true
Nonlinearity correction enabled: false
Boxcar width: 0
XAxis mode: Wavelengths
Number of Pixels in Spectrum: 3648
>>>>>Begin Spectral Data<<<<<
178.204	-70.31
178.424	-70.31
178.644	-70.31
178.864	-94.89
179.084	-164.52
179.304	42.32
179.524	27.99
179.744	-33.45
179.964	52.56
180.184	15.7
180.404	15.7
180.624	13.65
180.844	-70.31
181.064	-0.68
181.283	-53.93
181.503	7.51
181.723	-17.07
181.943	-49.83
182.163	60.76
182.383	15.7
182.602	68.95
182.822	32.08
183.042	68.95
183.262	30.04
183.482	19.8
183.701	21.84
183.921	-70.31
184.141	-12.97
184.361	11.61
184.58	56.66
184.8	27.99
185.02	1.37
185.239	13.65
185.459	25.94
185.679	118.1
185.898	19.8
186.118	73.04
186.338	-27.31
186.557	36.18
186.777	71
186.997	52.56
187.216	73.04
187.436	134.48
187.655	60.76
187.875	89.43
188.095	-41.64
188.314	44.37
188.534	134.48
188.753	11.61
188.973	48.47
189.192	27.99
189.412	62.8
189.631	-29.35
189.851	64.85
190.07	109.91
190.29	3.41
190.509	77.14
190.729	-84.65
190.948	50.52
191.168	68.95
191.387	73.04
191.607	36.18
191.826	27.99
192.045	62.8
192.265	7.51
192.484	27.99
192.704	-58.03
192.923	-84.65
193.142	99.67
193.362	38.23
193.581	103.76
193.8	19.8
194.02	64.85
194.239	-92.84
194.458	44.37
194.678	54.61
194.897	85.33
195.116	-0.68
195.335	5.46
195.555	75.09
195.774	52.56
195.993	62.8
196.212	48.47
196.432	-62.12
196.651	-39.59
196.87	62.8
197.089	93.52
197.308	-43.69
197.528	64.85
197.747	-2.73
197.966	25.94
198.185	146.77
198.404	-43.69
198.623	105.81
198.842	-10.92
199.062	13.65
199.281	5.46
199.5	36.18
199.719	85.33
199.938	46.42
200.157	68.95
200.376	-21.16
200.595	11.61
200.814	-21.16
201.033	60.76
201.252	9.56
201.471	85.33
201.69	21.84
201.909	34.13
202.128	-6.83
202.347	73.04
202.566	44.37
202.785	54.61
203.004	71
203.223	109.91
203.442	11.61
203.661	-37.55
203.879	85.33
204.098	118.1
204.317	7.51
204.536	-10.92
204.755	15.7
204.974	79.19
205.193	13.65
205.411	54.61
205.63	109.91
205.849	56.66
206.068	44.37
206.287	85.33
206.505	97.62
206.724	42.32
206.943	77.14
207.162	-0.68
207.381	54.61
207.599	64.85
207.818	60.76
208.037	54.61
208.255	44.37
208.474	62.8
208.693	83.28
208.911	36.18
209.13	32.08
209.349	3.41
209.567	48.47
209.786	71
210.005	32.08
210.223	-15.02
210.442	7.51
210.661	36.18
210.879	-41.64
211.098	13.65
211.316	27.99
211.535	46.42
211.753	15.7
211.972	87.38
212.191	36.18
212.409	73.04
212.628	73.04
212.846	-37.55
213.065	50.52
213.283	-10.92
213.502	73.04
213.72	-53.93
213.938	36.18
214.157	118.1
214.375	23.89
214.594	44.37
214.812	-0.68
215.031	-6.83
215.249	-33.45
215.467	-8.87
215.686	56.66
215.904	-21.16
216.122	87.38
216.341	77.14
216.559	13.65
216.778	38.23
216.996	73.04
217.214	118.1
217.432	21.84
217.651	46.42
217.869	13.65
218.087	3.41
218.306	-10.92
218.524	81.24
218.742	48.47
218.96	54.61
219.179	87.38
219.397	-2.73
219.615	46.42
219.833	44.37
220.051	52.56
220.27	36.18
220.488	32.08
220.706	-17.07
220.924	36.18
221.142	64.85
221.36	34.13
221.578	52.56
221.796	3.41
222.015	30.04
222.233	11.61
222.451	44.37
222.669	-21.16
222.887	52.56
223.105	7.51
223.323	103.76
223.541	19.8
223.759	89.43
223.977	48.47
224.195	62.8
224.413	42.32
224.631	93.52
224.849	93.52
225.067	87.38
225.285	105.81
225.503	-8.87
225.721	-27.31
225.939	38.23
226.157	30.04
226.375	68.95
226.592	-21.16
226.81	118.1
227.028	93.52
227.246	68.95
227.464	-43.69
227.682	19.8
227.9	42.32
228.117	66.9
228.335	38.23
228.553	60.76
228.771	3.41
228.989	81.24
229.206	30.04
229.424	44.37
229.642	32.08
229.86	27.99
230.077	9.56
230.295	54.61
230.513	9.56
230.731	85.33
230.948	71
231.166	183.63
231.384	-10.92
231.601	85.33
231.819	15.7
232.037	54.61
232.254	36.18
232.472	15.7
232.689	-12.97
232.907	154.96
233.125	52.56
233.342	48.47
233.56	32.08
233.777	21.84
233.995	1.37
234.213	83.28
234.43	36.18
234.648	85.33
234.865	77.14
235.083	46.42
235.3	11.61
235.518	93.52
235.735	73.04
235.953	56.66
236.17	-6.83
236.388	3.41
236.605	120.15
236.822	130.39
237.04	54.61
237.257	-2.73
237.475	21.84
237.692	5.46
237.909	36.18
238.127	36.18
238.344	-12.97
238.562	7.51
238.779	7.51
238.996	-4.78
239.214	46.42
239.431	3.41
239.648	64.85
239.865	95.57
240.083	52.56
240.3	81.24
240.517	25.94
240.735	19.8
240.952	68.95
241.169	107.86
241.386	93.52
241.603	3.41
241.821	19.8
242.038	62.8
242.255	32.08
242.472	-29.35
242.689	85.33
242.907	87.38
243.124	56.66
243.341	60.76
243.558	-25.26
243.775	44.37
243.992	1.37
244.209	71
244.426	103.76
244.643	64.85
244.86	-2.73
245.078	-12.97
245.295	46.42
245.512	73.04
245.729	56.66
245.946	89.43
246.163	52.56
246.38	60.76
246.597	60.76
246.814	44.37
247.031	-27.31
247.248	7.51
247.464	169.3
247.681	-15.02
247.898	66.9
248.115	138.58
248.332	-15.02
248.549	15.7
248.766	56.66
248.983	103.76
249.2	50.52
249.417	60.76
249.633	32.08
249.85	-12.97
250.067	54.61
250.284	-19.11
250.501	27.99
250.717	32.08
250.934	52.56
251.151	93.52
251.368	-12.97
251.585	89.43
251.801	21.84
252.018	-23.21
252.235	30.04
252.451	54.61
252.668	-31.4
252.885	19.8
253.102	97.62
253.318	48.47
253.535	-51.88
253.752	109.91
253.968	95.57
254.185	-51.88
254.401	58.71
254.618	77.14
254.835	60.76
255.051	77.14
255.268	60.76
255.484	93.52
255.701	77.14
255.917	52.56
256.134	-21.16
256.351	-17.07
256.567	-29.35
256.784	21.84
257	-37.55
257.217	85.33
257.433	81.24
257.65	81.24
257.866	-2.73
258.082	21.84
258.299	5.46
258.515	-39.59
258.732	23.89
258.948	93.52
259.165	44.37
259.381	44.37
259.597	73.04
259.814	-15.02
260.03	60.76
260.246	-2.73
260.463	19.8
260.679	83.28
260.895	40.28
261.112	36.18
261.328	-2.73
261.544	-49.83
261.761	56.66
261.977	58.71
262.193	89.43
262.409	25.94
262.626	64.85
262.842	68.95
263.058	-31.4
263.274	118.1
263.49	111.96
263.707	23.89
263.923	-10.92
264.139	21.84
264.355	-12.97
264.571	85.33
264.787	62.8
265.004	32.08
265.22	77.14
265.436	56.66
265.652	85.33
265.868	71
266.084	32.08
266.3	120.15
266.516	32.08
266.732	15.7
266.948	36.18
267.164	34.13
267.38	93.52
267.596	25.94
267.812	46.42
268.028	19.8
268.244	-12.97
268.46	48.47
268.676	48.47
268.892	85.33
269.108	27.99
269.324	-60.07
269.54	-8.87
269.756	64.85
269.972	38.23
270.188	40.28
270.403	103.76
270.619	38.23
270.835	46.42
271.051	44.37
271.267	-41.64
271.483	30.04
271.698	30.04
271.914	38.23
272.13	44.37
272.346	62.8
272.562	32.08
272.777	114
272.993	3.41
273.209	-37.55
273.425	136.53
273.64	101.72
273.856	48.47
274.072	52.56
274.287	17.75
274.503	5.46
274.719	50.52
274.934	62.8
275.15	23.89
275.366	73.04
275.581	68.95
275.797	-33.45
276.012	-12.97
276.228	-29.35
276.444	-4.78
276.659	118.1
276.875	5.46
277.09	79.19
277.306	-2.73
277.521	40.28
277.737	83.28
277.952	38.23
278.168	-45.74
278.383	44.37
278.599	62.8
278.814	36.18
279.03	-27.31
279.245	138.58
279.461	30.04
279.676	89.43
279.892	52.56
280.107	52.56
280.322	38.23
280.538	40.28
280.753	44.37
280.969	71
281.184	91.48
281.399	107.86
281.615	-15.02
281.83	19.8
282.045	-2.73
282.26	77.14
282.476	85.33
282.691	36.18
282.906	23.89
283.122	40.28
283.337	48.47
283.552	60.76
283.767	3.41
283.983	-23.21
284.198	9.56
284.413	101.72
284.628	11.61
284.843	7.51
285.058	81.24
285.274	19.8
285.489	44.37
285.704	134.48
285.919	13.65
286.134	81.24
286.349	60.76
286.564	44.37
286.779	50.52
286.995	62.8
287.21	15.7
287.425	19.8
287.64	-25.26
287.855	-12.97
288.07	56.66
288.285	56.66
288.5	32.08
288.715	107.86
288.93	38.23
289.145	-4.78
289.36	32.08
289.575	-0.68
289.79	77.14
290.004	-45.74
290.219	68.95
290.434	13.65
290.649	36.18
290.864	62.8
291.079	27.99
291.294	93.52
291.509	30.04
291.724	64.85
291.938	23.89
292.153	89.43
292.368	58.71
292.583	85.33
292.798	56.66
293.012	-4.78
293.227	85.33
293.442	21.84
293.657	-12.97
293.871	54.61
294.086	38.23
294.301	30.04
294.516	109.91
294.73	103.76
294.945	52.56
295.16	81.24
295.374	56.66
295.589	109.91
295.804	48.47
296.018	19.8
296.233	56.66
296.447	-37.55
296.662	27.99
296.877	68.95
297.091	11.61
297.306	105.81
297.52	-27.31
297.735	46.42
297.949	89.43
298.164	19.8
298.378	1.37
298.593	-27.31
298.807	40.28
299.022	7.51
299.236	-2.73
299.451	66.9
299.665	128.34
299.88	95.57
300.094	71
300.309	60.76
300.523	81.24
300.737	5.46
300.952	42.32
301.166	64.85
301.381	42.32
301.595	-21.16
301.809	60.76
302.024	111.96
302.238	5.46
302.452	77.14
302.667	27.99
302.881	77.14
303.095	46.42
303.309	116.05
303.524	19.8
303.738	56.66
303.952	-23.21
304.166	68.95
304.381	21.84
304.595	77.14
304.809	-2.73
305.023	17.75
305.237	30.04
305.452	-29.35
305.666	85.33
305.88	5.46
306.094	32.08
306.308	87.38
306.522	19.8
306.736	54.61
306.95	7.51
307.164	93.52
307.379	60.76
307.593	68.95
307.807	81.24
308.021	71
308.235	56.66
308.449	7.51
308.663	48.47
308.877	126.29
309.091	13.65
309.305	9.56
309.519	-33.45
309.733	-8.87
309.947	7.51
310.161	56.66
310.374	-8.87
310.588	103.76
310.802	11.61
311.016	5.46
311.23	93.52
311.444	79.19
311.658	36.18
311.872	81.24
312.085	68.95
312.299	138.58
312.513	71
312.727	73.04
312.941	-0.68
313.154	36.18
313.368	30.04
313.582	5.46
313.796	23.89
314.009	30.04
314.223	81.24
314.437	32.08
314.651	50.52
314.864	42.32
315.078	-12.97
315.292	81.24
315.505	-37.55
315.719	56.66
315.933	17.75
316.146	-0.68
316.36	-2.73
316.573	71
316.787	60.76
317.001	52.56
317.214	-2.73
317.428	50.52
317.641	-27.31
317.855	48.47
318.068	13.65
318.282	21.84
318.495	81.24
318.709	60.76
318.922	25.94
319.136	103.76
319.349	68.95
319.563	71
319.776	60.76
319.99	3.41
320.203	21.84
320.417	73.04
320.63	52.56
320.843	150.87
321.057	9.56
321.27	87.38
321.483	19.8
321.697	60.76
321.91	32.08
322.124	46.42
322.337	73.04
322.55	97.62
322.763	40.28
322.977	36.18
323.19	7.51
323.403	62.8
323.617	89.43
323.83	109.91
324.043	38.23
324.256	54.61
324.469	101.72
324.683	44.37
324.896	19.8
325.109	36.18
325.322	30.04
325.535	81.24
325.748	150.87
325.962	71
326.175	73.04
326.388	34.13
326.601	30.04
326.814	9.56
327.027	5.46
327.24	81.24
327.453	-17.07
327.666	-19.11
327.879	68.95
328.092	38.23
328.305	52.56
328.518	54.61
328.731	-29.35
328.944	-27.31
329.157	68.95
329.37	73.04
329.583	95.57
329.796	208.21
330.009	9.56
330.222	13.65
330.435	68.95
330.648	85.33
330.861	-21.16
331.073	122.2
331.286	103.76
331.499	48.47
331.712	52.56
331.925	1.37
332.138	77.14
332.35	60.76
332.563	3.41
332.776	79.19
332.989	11.61
333.202	7.51
333.414	105.81
333.627	118.1
333.84	19.8
334.053	77.14
334.265	23.89
334.478	19.8
334.691	32.08
334.903	111.96
335.116	62.8
335.329	15.7
335.541	68.95
335.754	68.95
335.966	-53.93
336.179	68.95
336.392	54.61
336.604	97.62
336.817	73.04
337.029	64.85
337.242	52.56
337.454	52.56
337.667	85.33
337.88	62.8
338.092	-37.55
338.305	95.57
338.517	154.96
338.729	77.14
338.942	66.9
339.154	85.33
339.367	3.41
339.579	32.08
339.792	13.65
340.004	97.62
340.217	60.76
340.429	52.56
340.641	11.61
340.854	19.8
341.066	21.84
341.278	89.43
341.491	101.72
341.703	17.75
341.915	36.18
342.128	71
342.34	79.19
342.552	85.33
342.764	60.76
342.977	101.72
343.189	81.24
343.401	44.37
343.613	-41.64
343.826	77.14
344.038	23.89
344.25	79.19
344.462	19.8
344.674	105.81
344.886	60.76
345.099	83.28
345.311	36.18
345.523	9.56
345.735	9.56
345.947	128.34
346.159	48.47
346.371	114
346.583	21.84
346.795	87.38
347.007	15.7
347.219	21.84
347.431	66.9
347.643	5.46
347.855	11.61
348.067	144.72
348.279	5.46
348.491	48.47
348.703	34.13
348.915	19.8
349.127	46.42
349.339	50.52
349.551	38.23
349.763	30.04
349.975	30.04
350.187	126.29
350.399	48.47
350.61	27.99
350.822	68.95
351.034	40.28
351.246	40.28
351.458	50.52
351.669	101.72
351.881	46.42
352.093	66.9
352.305	50.52
352.517	19.8
352.728	109.91
352.94	103.76
353.152	66.9
353.363	-12.97
353.575	138.58
353.787	25.94
353.999	105.81
354.21	120.15
354.422	30.04
354.633	23.89
354.845	79.19
355.057	109.91
355.268	64.85
355.48	60.76
355.692	81.24
355.903	44.37
356.115	60.76
356.326	19.8
356.538	111.96
356.749	93.52
356.961	56.66
357.172	50.52
357.384	-4.78
357.595	77.14
357.807	77.14
358.018	62.8
358.23	19.8
358.441	77.14
358.653	81.24
358.864	85.33
359.075	3.41
359.287	87.38
359.498	77.14
359.709	36.18
359.921	89.43
360.132	83.28
360.344	-15.02
360.555	3.41
360.766	54.61
360.977	138.58
361.189	71
361.4	-10.92
361.611	71
361.823	87.38
362.034	38.23
362.245	3.41
362.456	27.99
362.667	46.42
362.879	134.48
363.09	93.52
363.301	73.04
363.512	60.76
363.723	30.04
363.935	-37.55
364.146	114
364.357	-2.73
364.568	32.08
364.779	44.37
364.99	62.8
365.201	40.28
365.412	71
365.623	44.37
365.834	114
366.045	62.8
366.256	71
366.467	83.28
366.678	40.28
366.889	111.96
367.1	-17.07
367.311	111.96
367.522	97.62
367.733	36.18
367.944	77.14
368.155	-12.97
368.366	79.19
368.577	11.61
368.788	60.76
368.999	71
369.209	7.51
369.42	120.15
369.631	146.77
369.842	91.48
370.053	101.72
370.264	42.32
370.474	93.52
370.685	60.76
370.896	44.37
371.107	52.56
371.317	124.24
371.528	48.47
371.739	44.37
371.95	97.62
372.16	109.91
372.371	-15.02
372.582	118.1
372.792	66.9
373.003	120.15
373.214	25.94
373.424	52.56
373.635	46.42
373.846	93.52
374.056	21.84
374.267	30.04
374.477	58.71
374.688	71
374.898	68.95
375.109	27.99
375.319	27.99
375.53	93.52
375.74	128.34
375.951	13.65
376.161	101.72
376.372	85.33
376.582	32.08
376.793	62.8
377.003	56.66
377.214	73.04
377.424	32.08
377.635	40.28
377.845	79.19
378.055	71
378.266	77.14
378.476	68.95
378.686	64.85
378.897	75.09
379.107	32.08
379.317	68.95
379.528	5.46
379.738	87.38
379.948	-12.97
380.158	54.61
380.369	-10.92
380.579	5.46
380.789	62.8
380.999	95.57
381.21	68.95
381.42	81.24
381.63	23.89
381.84	124.24
382.05	68.95
382.261	87.38
382.471	118.1
382.681	44.37
382.891	120.15
383.101	109.91
383.311	62.8
383.521	91.48
383.731	77.14
383.941	17.75
384.151	64.85
384.361	44.37
384.571	97.62
384.781	81.24
384.991	130.39
385.201	134.48
385.411	66.9
385.621	81.24
385.831	87.38
386.041	68.95
386.251	95.57
386.461	46.42
386.671	93.52
386.881	52.56
387.091	95.57
387.301	21.84
387.511	42.32
387.72	103.76
387.93	54.61
388.14	42.32
388.35	157.01
388.56	85.33
388.769	159.06
388.979	95.57
389.189	73.04
389.399	58.71
389.609	83.28
389.818	118.1
390.028	48.47
390.238	81.24
390.447	25.94
390.657	36.18
390.867	-4.78
391.076	60.76
391.286	54.61
391.496	126.29
391.705	64.85
391.915	95.57
392.125	46.42
392.334	87.38
392.544	77.14
392.753	103.76
392.963	66.9
393.172	46.42
393.382	101.72
393.591	171.35
393.801	-37.55
394.01	140.63
394.22	109.91
394.429	120.15
394.639	58.71
394.848	120.15
395.058	111.96
395.267	40.28
395.477	73.04
395.686	95.57
395.895	83.28
396.105	126.29
396.314	46.42
396.524	62.8
396.733	62.8
396.942	87.38
397.152	128.34
397.361	165.2
397.57	146.77
397.78	122.2
397.989	144.72
398.198	132.44
398.407	71
398.617	99.67
398.826	97.62
399.035	150.87
399.244	114
399.453	122.2
399.663	83.28
399.872	157.01
400.081	150.87
400.29	163.15
400.499	75.09
400.708	169.3
400.917	159.06
401.127	169.3
401.336	44.37
401.545	175.44
401.754	177.49
401.963	105.81
402.172	107.86
402.381	83.28
402.59	148.82
402.799	64.85
403.008	146.77
403.217	195.92
403.426	118.1
403.635	118.1
403.844	120.15
404.053	185.68
404.262	136.53
404.471	159.06
404.68	169.3
404.888	245.07
405.097	222.55
405.306	83.28
405.515	159.06
405.724	122.2
405.933	230.74
406.142	163.15
406.35	120.15
406.559	224.59
406.768	183.63
406.977	232.79
407.185	185.68
407.394	175.44
407.603	120.15
407.812	249.17
408.02	234.83
408.229	175.44
408.438	259.41
408.646	236.88
408.855	226.64
409.064	308.56
409.272	204.11
409.481	277.84
409.69	324.94
409.898	283.98
410.107	333.14
410.315	306.51
410.524	333.14
410.733	404.82
410.941	333.14
411.15	372.05
411.358	427.34
411.567	413.01
411.775	372.05
411.984	429.39
412.192	408.91
412.401	437.58
412.609	531.79
412.818	537.93
413.026	501.07
413.234	523.6
413.443	462.16
413.651	566.6
413.86	609.61
414.068	603.47
414.276	736.59
414.485	675.15
414.693	656.72
414.901	742.73
415.11	746.83
415.318	683.34
415.526	787.79
415.734	718.15
415.943	855.37
416.151	838.98
416.359	818.5
416.567	873.8
416.776	908.62
416.984	963.91
417.192	968.01
417.4	1023.3
417.608	974.15
417.817	1011.01
418.025	1101.12
418.233	1289.54
418.441	1158.47
418.649	1191.24
418.857	1353.02
419.065	1367.36
419.273	1330.5
419.481	1432.9
419.689	1461.57
419.897	1543.49
420.105	1604.92
420.313	1580.35
420.521	1645.88
420.729	1672.51
420.937	1709.37
421.145	1850.68
421.353	1899.83
421.561	1963.32
421.769	2032.95
421.977	2020.66
422.185	2069.81
422.393	2219.32
422.601	2295.09
422.809	2348.34
423.017	2315.57
423.224	2444.59
423.432	2546.99
423.64	2577.71
423.848	2755.88
424.056	2764.08
424.263	2925.86
424.471	2968.87
424.679	3106.09
424.887	3163.43
425.094	3310.88
425.302	3224.87
425.51	3384.61
425.718	3546.4
425.925	3618.08
426.133	3726.62
426.341	3738.91
426.548	3999
426.756	4058.39
426.964	3945.75
427.171	4349.2
427.379	4336.92
427.586	4451.6
427.794	4660.49
428.001	4824.33
428.209	5025.03
428.417	4887.82
428.624	5283.08
428.832	5330.18
429.039	5068.04
429.247	5188.87
429.454	5909.76
429.662	6069.5
429.869	5858.56
430.076	6092.02
430.284	5852.41
430.491	6231.29
430.699	6581.49
430.906	6669.55
431.114	6638.83
431.321	7085.29
431.528	7009.51
431.736	7384.29
431.943	7777.5
432.15	7537.89
432.358	7652.58
432.565	8221.91
432.772	8068.31
432.979	8400.09
433.187	8670.42
433.394	8643.79
433.601	9153.74
433.808	9358.53
434.016	9131.21
434.223	9665.73
434.43	10144.95
434.637	9989.31
434.844	10693.81
435.052	10792.11
435.259	10579.12
435.466	10796.21
435.673	10771.63
435.88	11488.42
436.087	12229.79
436.294	11984.03
436.501	11981.98
436.708	11740.32
436.915	12436.63
437.122	12965.01
437.329	12709.01
437.537	13266.06
437.743	13364.36
437.95	13464.71
438.157	13968.51
438.364	14578.81
438.571	14369.91
438.778	14597.24
438.985	15799.4
439.192	15455.34
439.399	16022.62
439.606	15346.8
439.813	16360.54
440.02	17337.42
440.227	17128.53
440.433	16565.34
440.64	17321.04
440.847	17224.78
441.054	17656.9
441.261	18664.5
441.467	18682.94
441.674	18732.09
441.881	19602.47
442.088	19385.39
442.294	19530.8
442.501	20020.26
442.708	20438.05
442.914	20884.5
443.121	21842.95
443.328	21175.31
443.534	22840.31
443.741	22037.51
443.948	21720.07
444.154	23489.52
444.361	23245.81
444.568	23354.35
444.774	23571.44
444.981	23436.27
445.187	24331.23
445.394	25437.14
445.6	25234.39
445.807	27536.31
446.013	26135.49
446.22	26852.28
446.426	28005.29
446.633	28058.54
446.839	28857.24
447.046	27515.83
447.252	29383.57
447.459	29244.31
447.665	29430.68
447.871	30442.37
448.078	31587.19
448.284	30163.85
448.491	31357.81
448.697	32484.2
448.903	32809.82
449.11	32973.66
449.316	32396.13
449.522	32908.13
449.728	34130.76
449.935	34413.38
450.141	33999.69
450.347	35164.99
450.553	33792.85
450.76	34419.53
450.966	35455.8
451.172	34874.18
451.378	35404.6
451.584	35150.65
451.791	35889.97
451.997	35523.38
452.203	36500.26
452.409	36401.96
452.615	36465.45
452.821	34696
453.027	34773.83
453.233	36678.44
453.44	34904.9
453.646	35519.29
453.852	35783.48
454.058	36266.8
454.264	35191.61
454.47	36156.21
454.676	34915.14
454.882	36205.36
455.088	32949.09
455.294	33579.86
455.5	34241.35
455.705	34251.59
455.911	33031.01
456.117	32465.77
456.323	31908.72
456.529	30188.42
456.735	31892.33
456.941	30632.83
457.147	30505.86
457.352	29580.18
457.558	28953.5
457.764	29051.8
457.97	28709.79
458.176	27968.43
458.381	28023.72
458.587	26758.08
458.793	26739.65
458.999	25156.57
459.204	27405.24
459.41	26371.01
459.616	24824.79
459.821	24880.09
460.027	24728.54
460.233	23948.26
460.438	23100.4
460.644	23139.32
460.85	22385.66
461.055	21709.83
461.261	21615.63
461.466	20167.71
461.672	19500.08
461.878	21138.45
462.083	19565.61
462.289	19338.29
462.494	19016.76
462.7	18179.14
462.905	17886.28
463.111	18261.05
463.316	18195.52
463.522	18238.53
463.727	18048.07
463.932	17898.56
464.138	17820.74
464.343	17927.24
464.549	17230.93
464.754	17855.56
464.959	17509.45
465.165	17376.33
465.37	16847.96
465.575	16442.46
465.781	16954.45
465.986	17196.11
466.191	16551
466.397	16168.03
466.602	15445.1
466.807	16125.02
467.012	16073.82
467.218	16280.67
467.423	15381.61
467.628	15963.23
467.833	16368.73
468.038	15723.62
468.244	15244.4
468.449	15987.81
468.654	15314.03
468.859	15555.69
469.064	15326.32
469.269	14842.99
469.474	14652.53
469.679	15248.49
469.885	14666.87
470.09	14836.85
470.295	14679.16
470.5	14417.02
470.705	14490.74
470.91	14011.52
471.115	14130.3
471.32	14111.87
471.525	14343.29
471.73	13755.52
471.935	13612.17
472.139	13214.86
472.344	13388.94
472.549	13456.52
472.754	13243.53
472.959	12805.27
473.164	12655.76
473.369	12467.35
473.574	12979.34
473.778	12786.83
473.983	12672.15
474.188	12678.29
474.393	11992.22
474.598	12119.2
474.802	12080.28
475.007	11971.74
475.212	12149.92
475.417	11539.62
475.621	11513
475.826	11926.69
476.031	11541.67
476.235	11150.51
476.44	11439.27
476.645	11162.8
476.849	11041.96
477.054	10941.61
477.259	10798.26
477.463	10687.67
477.668	10413.24
477.872	10607.8
478.077	10394.81
478.282	10294.46
478.486	10243.26
478.691	10179.77
478.895	9972.93
479.1	10165.43
479.304	9915.58
479.509	9587.91
479.713	9944.25
479.918	9706.69
480.122	9424.07
480.326	9827.52
480.531	9761.98
480.735	9618.63
480.94	9286.86
481.144	9837.76
481.348	9342.15
481.553	9372.87
481.757	9227.46
481.961	9385.16
482.166	9452.74
482.37	9460.93
482.574	9235.66
482.778	9385.16
482.983	9407.69
483.187	9151.69
483.391	9288.9
483.595	9295.05
483.8	9309.38
484.004	9043.15
484.208	9295.05
484.412	9239.75
484.616	9174.22
484.821	9456.84
485.025	9229.51
485.229	9422.02
485.433	9104.59
485.637	9288.9
485.841	9106.63
486.045	9032.91
486.249	9190.6
486.453	9182.41
486.657	9063.63
486.861	9262.28
487.065	9008.33
487.269	9219.27
487.473	9045.2
487.677	9280.71
487.881	9342.15
488.085	9280.71
488.289	9270.47
488.493	9219.27
488.697	9239.75
488.901	9315.53
489.105	9319.62
489.309	9249.99
489.512	9295.05
489.716	9346.25
489.92	9262.28
490.124	9354.44
490.328	9706.69
490.531	9405.64
490.735	9581.76
490.939	9503.94
491.143	9454.79
491.346	9614.53
491.55	9858.24
491.754	9632.96
491.958	9632.96
492.161	9645.25
492.365	9788.61
492.569	9741.5
492.772	9673.92
492.976	9755.84
493.18	9743.55
493.383	10071.23
493.587	9829.57
493.79	9944.25
493.994	9936.06
494.197	10304.7
494.401	10187.96
494.605	10308.79
494.808	10388.66
495.012	10243.26
495.215	10439.86
495.419	10702
495.622	10685.62
495.825	10671.28
496.029	10656.95
496.232	10892.46
496.436	10943.66
496.639	11121.84
496.843	11261.1
497.046	11361.45
497.249	11218.09
497.453	11525.29
497.656	11711.65
497.859	11480.23
498.063	11719.84
498.266	11857.06
498.469	11771.04
498.673	11963.55
498.876	12145.82
499.079	12422.3
499.282	12399.77
499.485	12645.52
499.689	12586.13
499.892	13028.49
500.095	12846.23
500.298	13153.42
500.501	13044.88
500.705	13329.55
500.908	13390.98
501.111	13956.22
501.314	13618.31
501.517	13788.29
501.72	14023.81
501.923	13841.54
502.126	14400.63
502.329	14640.25
502.532	14707.83
502.735	14673.01
502.938	14924.91
503.141	15232.11
503.344	15199.34
503.547	15428.71
503.75	15660.13
503.953	15780.96
504.156	15946.85
504.359	16112.74
504.562	16104.54
504.765	16389.21
504.968	16411.74
505.17	16825.43
505.373	16694.36
505.576	17273.93
505.779	17189.97
505.982	17392.72
506.185	17691.72
506.387	17939.52
506.59	17835.08
506.793	18220.1
506.996	18484.28
507.198	18746.42
507.401	18854.97
507.604	18693.18
507.807	19350.57
508.009	19139.63
508.212	19383.34
508.415	19565.61
508.617	19661.87
508.82	20010.02
509.022	20044.84
509.225	20358.17
509.428	20364.32
509.63	20751.38
509.833	20679.71
510.035	21232.66
510.238	21494.8
510.44	21468.17
510.643	21992.45
510.845	21744.65
511.048	22103.04
511.25	22127.62
511.453	22264.83
511.655	23323.63
511.858	22940.66
512.06	22952.95
512.262	23450.61
512.465	23325.68
512.667	23798.76
512.87	23964.65
513.072	24212.45
513.274	24341.47
513.477	24515.55
513.679	24611.81
513.881	25129.94
514.084	25375.7
514.286	25353.17
514.488	25510.86
514.69	26403.78
514.893	26110.92
515.095	26266.56
515.297	26481.6
515.499	26762.17
515.701	26868.67
515.904	27149.24
516.106	27257.78
516.308	27472.82
516.51	27874.22
516.712	27833.26
516.914	28373.92
517.116	28728.22
517.318	28679.07
517.52	28904.35
517.722	28910.49
517.925	29440.92
518.127	29932.43
518.329	30270.34
518.531	29924.24
518.733	30567.3
518.935	30714.75
519.136	30622.59
519.338	30901.12
519.54	31273.85
519.742	31425.4
519.944	31206.27
520.146	32103.28
520.348	32252.78
520.55	32396.13
520.752	32400.23
520.954	33270.62
521.155	32645.99
521.357	33291.1
521.559	33491.8
521.761	33616.72
521.963	33657.68
522.164	34229.07
522.366	34153.29
522.568	34437.96
522.77	34972.48
522.971	35164.99
523.173	34792.26
523.375	35287.87
523.576	35416.89
523.778	35220.28
523.98	35998.51
524.181	35621.69
524.383	35574.58
524.584	36164.4
524.786	36150.06
524.988	36365.1
525.189	36533.03
525.391	37020.45
525.592	37118.75
525.794	37497.63
525.995	37466.91
526.197	37167.9
526.398	37352.22
526.6	37921.55
526.801	37724.95
527.003	37856.02
527.204	37976.85
527.406	38140.69
527.607	38124.3
527.808	38802.18
528.01	38271.76
528.211	38382.35
528.412	39088.9
528.614	39037.7
528.815	38818.56
529.016	39406.33
529.218	38863.62
529.419	39416.57
529.62	39150.34
529.822	39383.8
530.023	39441.15
530.224	39662.33
530.425	39287.55
530.626	39267.07
530.828	38966.02
531.029	40022.77
531.23	39377.66
531.431	39670.52
531.632	39867.12
531.833	39551.74
532.035	39856.89
532.236	39979.76
532.437	40098.55
532.638	39578.36
532.839	39858.93
533.04	39910.13
533.241	39488.25
533.442	40069.87
533.643	39918.32
533.844	40389.36
534.045	40219.38
534.246	39838.45
534.447	40260.33
534.648	39918.32
534.849	39844.6
535.05	39713.53
535.251	40428.27
535.451	39691
535.652	40313.58
535.853	39926.52
536.054	40375.02
536.255	40028.91
536.456	39783.16
536.657	40651.5
536.857	39858.93
537.058	39842.55
537.259	39856.89
537.46	40172.27
537.66	39906.04
537.861	40399.6
538.062	40258.29
538.263	39983.86
538.463	39936.76
538.664	39901.94
538.865	40067.83
539.065	40264.43
539.266	40139.5
539.466	40549.1
539.667	39480.06
539.868	40510.19
540.068	39985.91
540.269	39682.81
540.469	40289.01
540.67	39793.4
540.87	39557.88
541.071	39652.09
541.271	40317.68
541.472	39934.71
541.672	39627.51
541.873	39484.15
542.073	39488.25
542.274	40147.7
542.474	39787.25
542.675	39504.63
542.875	40030.96
543.075	39832.31
543.276	39535.35
543.476	39875.32
543.676	39836.41
543.877	39691
544.077	39826.17
544.277	39711.48
544.478	39535.35
544.678	39623.42
544.878	39979.76
545.078	39279.36
545.279	39158.53
545.479	39332.61
545.679	39795.45
545.879	39768.82
546.079	39607.03
546.28	39609.08
546.48	39242.49
546.68	39629.56
546.88	39820.02
547.08	39422.72
547.28	39410.43
547.48	39006.98
547.68	39211.77
547.88	39101.18
548.081	39748.34
548.281	39615.22
548.481	39813.88
548.681	39381.76
548.881	39115.52
549.081	39336.7
549.28	39062.27
549.48	39566.07
549.68	39088.9
549.88	39772.92
550.08	38855.43
550.28	39484.15
550.48	38986.5
550.68	39641.85
550.88	39219.97
551.08	39373.56
551.279	39389.95
551.479	39074.56
551.679	39215.87
551.879	38757.13
552.079	39445.24
552.278	39152.38
552.478	39211.77
552.678	39039.75
552.878	39265.02
553.077	38882.05
553.277	38656.78
553.477	39197.44
553.676	38814.47
553.876	39273.21
554.076	38468.36
554.275	38847.24
554.475	38288.14
554.674	38812.42
554.874	39113.47
555.074	38544.14
555.273	39086.85
555.473	39049.99
555.672	38605.58
555.872	38757.13
556.071	38601.48
556.271	38793.99
556.47	38757.13
556.67	38703.88
556.869	38368.01
557.068	38738.69
557.268	37815.06
557.467	38269.71
557.667	38394.64
557.866	38378.25
558.065	38396.68
558.265	38277.9
558.464	38484.75
558.663	38707.97
558.863	37810.96
559.062	38388.49
559.261	38155.02
559.461	38503.18
559.66	37507.86
559.859	37833.49
560.058	37657.37
560.258	38005.52
560.457	37716.76
560.656	38165.26
560.855	37774.1
561.054	37890.84
561.253	37372.7
561.453	38009.62
561.652	37870.36
561.851	37681.94
562.05	37319.45
562.249	37442.33
562.448	37886.74
562.647	37522.2
562.846	37505.82
563.045	37155.61
563.244	37167.9
563.443	37266.2
563.642	36832.04
563.841	37133.09
564.04	37149.47
564.239	37362.46
564.438	36698.92
564.637	37057.31
564.836	37190.43
565.035	36551.46
565.234	36760.36
565.432	36698.92
565.631	36500.26
565.83	36383.53
566.029	36864.8
566.228	36125.49
566.427	36096.81
566.625	36363.05
566.824	35826.48
567.023	36219.69
567.222	35470.14
567.42	36139.82
567.619	35892.02
567.818	35855.15
568.016	35887.92
568.215	35906.35
568.414	35580.73
568.612	35826.48
568.811	35306.3
569.01	35619.64
569.208	35228.48
569.407	35722.04
569.605	35318.59
569.804	35640.12
570.002	34853.7
570.201	35179.32
570.4	34980.67
570.598	34800.45
570.797	34874.18
570.995	34702.15
571.193	34693.96
571.392	34573.13
571.59	34724.68
571.789	34728.77
571.987	34370.38
572.186	34560.84
572.384	34157.39
572.582	34286.41
572.781	34085.71
572.979	33653.59
573.177	34192.2
573.376	34397
573.574	33708.88
573.772	33846.1
573.971	33870.67
574.169	33545.05
574.367	33526.61
574.565	33747.79
574.763	33180.51
574.962	33653.59
575.16	33069.92
575.358	33432.41
575.556	32611.17
575.754	33698.64
575.952	32488.29
576.151	33678.16
576.349	32758.63
576.547	32623.46
576.745	33033.05
576.943	32791.39
577.141	32447.33
577.339	32791.39
577.537	32557.92
577.735	32070.51
577.933	32076.65
578.131	32461.67
578.329	31927.15
578.527	31806.32
578.725	31955.82
578.923	32131.95
579.121	31669.11
579.319	31804.27
579.516	31939.44
579.714	31775.6
579.912	31605.62
580.11	31316.86
580.308	31439.73
580.506	31468.41
580.704	30778.24
580.901	31251.32
581.099	31746.93
581.297	30995.32
581.495	31021.95
581.692	31341.43
581.89	30626.69
582.088	31390.58
582.285	30520.2
582.483	31357.81
582.681	30370.69
582.878	30409.61
583.076	30012.3
583.274	30409.61
583.471	30061.45
583.669	30194.57
583.866	30450.56
584.064	30401.41
584.262	29860.75
584.459	30272.39
584.657	29596.56
584.854	30030.73
585.052	29404.05
585.249	29694.86
585.447	29655.95
585.644	29449.11
585.841	29391.76
586.039	29778.83
586.236	29033.37
586.434	29115.29
586.631	29037.47
586.828	29010.84
587.026	29346.71
587.223	28754.85
587.42	28941.21
587.618	29125.53
587.815	28674.98
588.012	28521.38
588.21	28597.15
588.407	28504.99
588.604	28236.71
588.801	28025.77
588.999	28189.61
589.196	28216.23
589.393	28294.05
589.59	28124.07
589.787	27517.87
589.984	27896.75
590.182	27620.27
590.379	27782.06
590.576	27552.69
590.773	27769.77
590.97	27261.88
591.167	27130.81
591.364	27136.95
591.561	27474.87
591.758	27347.89
591.955	27026.36
592.152	27292.6
592.349	26733.5
592.546	26985.4
592.743	26844.09
592.94	26461.12
593.137	26659.77
593.334	26911.67
593.531	26569.66
593.727	26729.41
593.924	26268.61
594.121	26117.06
594.318	26278.85
594.515	25723.85
594.712	26354.63
594.908	25881.55
595.105	26145.73
595.302	25820.11
595.499	26063.82
595.696	25752.52
595.892	25863.11
596.089	25496.53
596.286	25842.63
596.482	25613.26
596.679	25351.12
596.876	25527.25
597.072	25510.86
597.269	25396.18
597.466	24951.77
597.662	25236.44
597.859	25080.79
598.055	25162.71
598.252	24851.42
598.448	24669.15
598.645	24493.02
598.841	24701.92
599.038	24490.98
599.234	24443.87
599.431	24222.69
599.627	24431.58
599.824	24318.95
600.02	24138.72
600.217	24308.71
600.413	24075.24
600.609	23821.29
600.806	23739.37
601.002	23931.88
601.198	23874.54
601.395	23485.42
601.591	23391.22
601.787	24013.8
601.984	23505.9
602.18	23436.27
602.376	23346.16
602.572	22961.14
602.769	23452.66
602.965	23227.38
603.161	23491.57
603.357	23186.42
603.553	23239.67
603.75	23061.49
603.946	22946.81
604.142	22887.42
604.338	22268.93
604.534	22565.88
604.73	22400
604.926	22823.93
605.122	22670.33
605.318	22453.25
605.514	22045.7
605.71	22176.77
605.906	22504.45
606.102	22338.56
606.298	22305.79
606.494	22088.71
606.69	21969.93
606.886	22270.98
607.082	21601.29
607.278	21804.04
607.474	21625.87
607.67	21941.25
607.866	21636.11
608.062	21810.18
608.257	21689.35
608.453	21498.89
608.649	21615.63
608.845	21488.65
609.041	21359.63
609.236	21408.78
609.432	21666.83
609.628	21261.33
609.824	21320.72
610.019	21226.51
610.215	21351.44
610.411	21509.13
610.606	21122.07
610.802	21263.38
610.998	21019.67
611.193	20859.93
611.389	20767.77
611.584	21302.29
611.78	20712.47
611.976	21068.82
612.171	21054.48
612.367	20868.12
612.562	20532.25
612.758	20073.51
612.953	20780.06
613.149	20818.97
613.344	20491.29
613.539	20526.11
613.735	20780.06
613.93	20474.91
614.126	20409.37
614.321	20493.34
614.517	20411.42
614.712	20280.35
614.907	20352.03
615.103	20173.86
615.298	20087.84
615.493	20585.5
615.688	19725.35
615.884	20444.19
616.079	19835.94
616.274	20153.38
616.47	19833.89
616.665	19657.77
616.86	19985.44
617.055	20093.99
617.25	19870.76
617.445	20096.03
617.641	19565.61
617.836	19985.44
618.031	19713.06
618.226	19733.54
618.421	19387.44
618.616	19737.64
618.811	19280.94
619.006	19575.85
619.201	19272.75
619.396	19090.48
619.591	19113.01
619.786	19190.83
619.981	18586.68
620.176	19328.05
620.371	18641.98
620.566	18951.22
620.761	18570.3
620.956	18785.33
621.151	18357.31
621.346	18594.87
621.541	18013.25
621.735	18637.88
621.93	18220.1
622.125	18273.34
622.32	17888.32
622.515	17996.87
622.709	18058.31
622.904	17775.69
623.099	17720.39
623.294	17605.7
623.488	17503.31
623.683	17593.42
623.878	17337.42
624.072	17294.41
624.267	17187.92
624.462	17062.99
624.656	17128.53
624.851	16905.3
625.046	16823.38
625.24	16981.07
625.435	16690.26
625.629	16335.96
625.824	16510.04
626.018	16378.97
626.213	16020.58
626.407	16395.36
626.602	16018.53
626.796	16174.17
626.991	16034.91
627.185	15926.37
627.38	15830.12
627.574	15623.27
627.768	15260.78
627.963	15639.65
628.157	15576.17
628.352	15359.08
628.546	15316.08
628.74	15342.7
628.935	15068.27
629.129	15062.13
629.323	14724.21
629.517	15027.31
629.712	15131.76
629.906	14892.15
630.1	14847.09
630.294	14830.71
630.489	14363.77
630.683	14558.33
630.877	14218.36
631.071	14429.31
631.265	14111.87
631.459	14136.45
631.653	14046.33
631.848	13976.7
632.042	13892.74
632.236	13960.32
632.43	13792.39
632.624	13941.89
632.818	13638.79
633.012	13442.18
633.206	13438.09
633.4	13438.09
633.594	13515.91
633.788	13425.8
633.982	13313.16
634.176	13188.24
634.369	13180.04
634.563	13134.99
634.757	13063.31
634.951	12993.68
635.145	12856.47
635.339	12948.62
635.533	12856.47
635.726	12704.92
635.92	12461.21
636.114	12567.7
636.308	12483.73
636.501	12422.3
636.695	12405.91
636.889	12250.27
637.083	12035.23
637.276	12166.3
637.47	12498.07
637.664	11977.89
637.857	12012.7
638.051	11879.58
638.244	11857.06
638.438	11832.48
638.632	11689.12
638.825	11728.03
639.019	11709.6
639.212	11562.15
639.406	11435.17
639.599	11377.83
639.793	11310.25
639.986	11250.86
640.18	11531.43
640.373	11144.36
640.567	11132.08
640.76	11199.66
640.954	11113.64
641.147	10765.49
641.34	11130.03
641.534	10890.42
641.727	10945.71
641.92	10712.24
642.114	10468.53
642.307	10810.54
642.5	10546.36
642.694	10605.75
642.887	10386.61
643.08	10446.01
643.273	10579.12
643.467	10294.46
643.66	10140.86
643.853	10294.46
644.046	9819.33
644.239	9954.49
644.432	10026.17
644.626	9809.09
644.819	9929.92
645.012	10017.98
645.205	9925.82
645.398	9897.15
645.591	9700.55
645.784	9514.18
645.977	9456.84
646.17	9592
646.363	9454.79
646.556	9338.05
646.749	9583.81
646.942	9534.66
647.135	9387.21
647.328	9305.29
647.521	9217.22
647.714	8942.8
647.907	9039.05
648.099	9227.46
648.292	9313.48
648.485	9157.83
648.678	9022.67
648.871	9057.48
649.064	8889.55
649.256	8789.2
649.449	8817.87
649.642	8832.21
649.835	8615.12
650.027	8754.38
650.22	8672.47
650.413	8654.03
650.605	8477.91
650.798	8529.11
650.991	8383.7
651.183	8436.95
651.376	8400.09
651.568	8457.43
651.761	8219.86
651.954	8264.92
652.146	7990.49
652.339	8105.18
652.531	8015.07
652.724	8045.79
652.916	7888.09
653.109	7916.76
653.301	7953.63
653.494	7908.57
653.686	7746.78
653.879	7867.61
654.071	7791.84
654.263	7793.89
654.456	7615.71
654.648	7709.92
654.84	7488.74
655.033	7623.9
655.225	7449.83
655.417	7398.63
655.61	7662.82
655.802	7519.46
655.994	7509.22
656.186	7275.75
656.379	7173.35
656.571	7408.87
656.763	7234.79
656.955	7095.53
657.148	7240.93
657.34	7083.24
657.532	7116.01
657.724	7032.04
657.916	6941.93
658.108	6939.88
658.3	6970.6
658.492	7081.19
658.684	6819.05
658.876	6884.59
659.068	6763.76
659.26	6687.98
659.452	6728.94
659.644	6661.36
659.836	6608.11
660.028	6745.33
660.22	6620.4
660.412	6597.87
660.604	6395.12
660.796	6718.7
660.988	6538.48
661.18	6511.86
661.372	6438.13
661.563	6352.12
661.755	6462.71
661.947	6384.88
662.139	6315.25
662.331	6423.8
662.522	6147.32
662.714	6243.57
662.906	6286.58
663.097	6243.57
663.289	6024.44
663.481	6032.63
663.673	6051.06
663.864	6077.69
664.056	5803.26
664.247	6044.92
664.439	5819.64
664.631	5870.84
664.822	5926.14
665.014	5788.92
665.205	5801.21
665.397	5741.82
665.588	5737.73
665.78	5743.87
665.971	5553.41
666.163	5772.54
666.354	5459.2
666.546	5569.79
666.737	5541.12
666.929	5491.97
667.12	5541.12
667.311	5559.55
667.503	5496.07
667.694	5356.8
667.885	5541.12
668.077	5319.94
668.268	5461.25
668.459	5242.12
668.651	5340.42
668.842	5301.51
669.033	5418.24
669.224	5287.17
669.416	5221.64
669.607	5283.08
669.798	5303.56
669.989	5168.39
670.18	5145.86
670.371	5240.07
670.563	5016.84
670.754	5223.69
670.945	5176.58
671.136	5125.38
671.327	4932.87
671.518	5039.37
671.709	4943.11
671.9	5065.99
672.091	5127.43
672.282	4812.04
672.473	4957.45
672.664	4818.19
672.855	4910.35
673.046	4777.23
673.237	4893.96
673.428	4853
673.619	4750.6
673.809	4848.91
674	4791.56
674.191	4764.94
674.382	4515.09
674.573	4625.68
674.764	4756.75
674.954	4760.84
675.145	4683.02
675.336	4736.27
675.527	4570.38
675.717	4627.73
675.908	4582.67
676.099	4599.06
676.289	4599.06
676.48	4463.89
676.671	4582.67
676.861	4617.49
677.052	4492.56
677.243	4482.32
677.433	4453.65
677.624	4510.99
677.814	4584.72
678.005	4506.9
678.195	4373.78
678.386	4486.42
678.576	4443.41
678.767	4427.03
678.957	4373.78
679.148	4355.35
679.338	4377.87
679.529	4338.96
679.719	4375.83
679.909	4412.69
680.1	4246.8
680.29	4418.83
680.481	4328.72
680.671	4285.72
680.861	4152.6
681.052	4193.56
681.242	4281.62
681.432	4226.32
681.622	4044.06
681.813	4238.61
682.003	4173.08
682.193	3921.18
682.383	4291.86
682.573	4105.49
682.764	4087.06
682.954	4232.47
683.144	4203.8
683.334	4263.19
683.524	4095.25
683.714	4109.59
683.904	4050.2
684.094	4154.65
684.284	3945.75
684.474	4242.71
684.664	3955.99
684.854	4009.24
685.044	4062.49
685.234	3931.42
685.424	3912.99
685.614	3927.32
685.804	3996.95
685.994	3972.38
686.184	3853.59
686.374	3968.28
686.564	3878.17
686.753	3990.81
686.943	3837.21
687.133	3939.61
687.323	3886.36
687.513	3880.22
687.702	3845.4
687.892	3740.96
688.082	3869.98
688.272	3867.93
688.461	3863.83
688.651	3726.62
688.841	3751.2
689.03	3669.28
689.22	3816.73
689.41	3706.14
689.599	3613.98
689.789	3591.45
689.979	3558.69
690.168	3536.16
690.358	3548.45
690.547	3665.18
690.737	3581.21
690.926	3669.28
691.116	3470.62
691.305	3624.22
691.495	3583.26
691.684	3394.85
691.874	3517.73
692.063	3493.15
692.252	3405.09
692.442	3392.8
692.631	3370.27
692.82	3366.18
693.01	3431.71
693.199	3298.59
693.388	3206.44
693.578	3267.88
693.767	3222.82
693.956	3165.48
694.146	3339.55
694.335	3319.07
694.524	3253.54
694.713	3278.12
694.902	3241.25
695.092	3235.11
695.281	3140.9
695.47	3333.41
695.659	3099.94
695.848	3241.25
696.037	3077.41
696.226	3124.52
696.415	3087.65
696.604	3276.07
696.793	3198.24
696.982	3013.93
697.171	3167.52
697.36	2919.72
697.549	3198.24
697.738	2993.45
697.927	3069.22
698.116	3091.75
698.305	2917.67
698.494	3108.13
698.683	2903.34
698.872	2954.54
699.061	2940.2
699.25	3036.45
699.438	2862.38
699.627	2966.82
699.816	2952.49
700.005	3054.89
700.193	2956.58
700.382	2956.58
700.571	2934.06
700.76	2972.97
700.948	3052.84
701.137	2889
701.326	2970.92
701.514	2940.2
701.703	2999.59
701.892	2895.15
702.08	2981.16
702.269	2835.75
702.457	2854.19
702.646	2923.82
702.834	2936.1
703.023	2907.43
703.212	2889
703.4	2854.19
703.589	2874.67
703.777	2817.32
703.965	2854.19
704.154	2850.09
704.342	2815.27
704.531	2790.7
704.719	2829.61
704.907	2776.36
705.096	2823.47
705.284	2837.8
705.472	2790.7
705.661	2782.51
705.849	2895.15
706.037	2895.15
706.226	2889
706.414	2854.19
706.602	2895.15
706.79	2796.84
706.979	2866.47
707.167	2854.19
707.355	2747.69
707.543	2706.73
707.731	2809.13
707.919	2749.74
708.107	2594.09
708.296	2784.55
708.484	2721.07
708.672	2940.2
708.86	2708.78
709.048	2805.03
709.236	2764.08
709.424	2700.59
709.612	2628.91
709.8	2680.11
709.988	2567.47
710.176	2686.25
710.364	2731.31
710.551	2716.97
710.739	2682.16
710.927	2692.4
711.115	2624.81
711.303	2692.4
711.491	2811.18
711.679	2678.06
711.866	2678.06
712.054	2630.96
712.242	2596.14
712.43	2741.55
712.617	2628.91
712.805	2549.04
712.993	2526.51
713.181	2594.09
713.368	2635.05
713.556	2641.2
713.744	2655.53
713.931	2622.77
714.119	2676.01
714.306	2706.73
714.494	2723.12
714.682	2620.72
714.869	2555.18
715.057	2673.96
715.244	2592.05
715.432	2575.66
715.619	2583.85
715.807	2524.46
715.994	2616.62
716.182	2555.18
716.369	2542.89
716.556	2669.87
716.744	2544.94
716.931	2575.66
717.119	2729.26
717.306	2602.29
717.493	2628.91
717.681	2596.14
717.868	2645.29
718.055	2575.66
718.242	2503.98
718.43	2561.33
718.617	2571.57
718.804	2686.25
718.991	2596.14
719.179	2587.95
719.366	2460.98
719.553	2612.53
719.74	2616.62
719.927	2491.7
720.114	2567.47
720.301	2569.52
720.488	2524.46
720.676	2528.56
720.863	2510.13
721.05	2485.55
721.237	2501.94
721.424	2481.46
721.611	2499.89
721.798	2432.3
721.985	2440.5
722.172	2438.45
722.358	2493.74
722.545	2723.12
722.732	2491.7
722.919	2448.69
723.106	2370.87
723.293	2518.32
723.48	2391.34
723.667	2428.21
723.853	2495.79
724.04	2508.08
724.227	2563.37
724.414	2452.78
724.6	2551.09
724.787	2559.28
724.974	2512.17
725.161	2491.7
725.347	2452.78
725.534	2493.74
725.72	2463.02
725.907	2596.14
726.094	2479.41
726.28	2510.13
726.467	2383.15
726.653	2559.28
726.84	2506.03
727.027	2544.94
727.213	2446.64
727.4	2506.03
727.586	2518.32
727.773	2471.22
727.959	2460.98
728.145	2493.74
728.332	2516.27
728.518	2456.88
728.705	2452.78
728.891	2403.63
729.077	2411.82
729.264	2407.73
729.45	2389.3
729.636	2438.45
729.823	2317.62
730.009	2417.97
730.195	2510.13
730.382	2436.4
730.568	2512.17
730.754	2448.69
730.94	2387.25
731.126	2379.06
731.313	2520.37
731.499	2479.41
731.685	2526.51
731.871	2407.73
732.057	2456.88
732.243	2432.3
732.429	2354.48
732.615	2420.02
732.801	2307.38
732.987	2428.21
733.173	2452.78
733.359	2477.36
733.545	2325.81
733.731	2438.45
733.917	2571.57
734.103	2487.6
734.289	2399.54
734.475	2411.82
734.661	2444.59
734.847	2493.74
735.033	2448.69
735.219	2438.45
735.404	2487.6
735.59	2307.38
735.776	2307.38
735.962	2276.66
736.148	2428.21
736.333	2280.75
736.519	2342.19
736.705	2305.33
736.89	2346.29
737.076	2301.23
737.262	2420.02
737.447	2344.24
737.633	2321.71
737.819	2295.09
738.004	2354.48
738.19	2325.81
738.375	2323.76
738.561	2366.77
738.747	2338.1
738.932	2313.52
739.118	2313.52
739.303	2329.91
739.489	2250.03
739.674	2321.71
739.859	2301.23
740.045	2336.05
740.23	2254.13
740.416	2278.71
740.601	2184.5
740.786	2307.38
740.972	2241.84
741.157	2282.8
741.342	2127.16
741.528	2231.6
741.713	2215.22
741.898	2202.93
742.084	2247.99
742.269	2180.4
742.454	2321.71
742.639	2188.6
742.824	2243.89
743.01	2215.22
743.195	2198.84
743.38	2178.36
743.565	2092.34
743.75	2233.65
743.935	2168.12
744.12	2223.41
744.305	2078.01
744.49	2088.25
744.675	2084.15
744.86	2026.81
745.045	2114.87
745.23	2080.05
745.415	1989.94
745.6	2092.34
745.785	2065.72
745.97	2170.16
746.155	2006.33
746.34	2002.23
746.525	1914.17
746.71	1891.64
746.895	2006.33
747.079	2035
747.264	1846.59
747.449	1991.99
747.634	1912.12
747.819	1936.7
748.003	1840.44
748.188	1879.35
748.373	1772.86
748.557	1875.26
748.742	1836.35
748.927	1840.44
749.111	1940.79
749.296	1774.91
749.481	1760.57
749.665	1871.16
749.85	1711.42
750.034	1832.25
750.219	1838.39
750.404	1789.24
750.588	1776.95
750.773	1649.98
750.957	1674.56
751.141	1684.8
751.326	1666.36
751.51	1692.99
751.695	1748.28
751.879	1555.77
752.064	1701.18
752.248	1553.73
752.432	1592.64
752.617	1586.49
752.801	1584.45
752.985	1604.92
753.17	1623.36
753.354	1559.87
753.538	1701.18
753.722	1502.53
753.907	1518.91
754.091	1576.25
754.275	1516.86
754.459	1508.67
754.643	1502.53
754.828	1508.67
755.012	1422.66
755.196	1543.49
755.38	1436.99
755.564	1377.6
755.748	1449.28
755.932	1396.03
756.116	1324.35
756.3	1426.75
756.484	1502.53
756.668	1436.99
756.852	1457.47
757.036	1402.18
757.22	1367.36
757.404	1385.79
757.588	1281.35
757.772	1357.12
757.956	1287.49
758.14	1408.32
758.323	1226.05
758.507	1254.72
758.691	1267.01
758.875	1217.86
759.059	1365.31
759.242	1254.72
759.426	1121.6
759.61	1219.91
759.794	1232.19
759.977	1156.42
760.161	1174.85
760.345	1232.19
760.528	1152.32
760.712	1193.28
760.895	1174.85
761.079	1170.76
761.263	1080.64
761.446	1094.98
761.63	1135.94
761.813	1115.46
761.997	1252.67
762.18	1215.81
762.364	1191.24
762.547	1039.69
762.731	1060.17
762.914	1068.36
763.098	1113.41
763.281	1174.85
763.464	1183.04
763.648	1002.82
763.831	1125.7
764.015	1011.01
764.198	986.44
764.381	1094.98
764.564	1076.55
764.748	972.1
764.931	1199.43
765.114	1004.87
765.297	1023.3
765.481	1011.01
765.664	959.81
765.847	1031.49
766.03	1127.75
766.213	949.57
766.397	968.01
766.58	1019.21
766.763	1021.25
766.946	994.63
767.129	994.63
767.312	988.49
767.495	1019.21
767.678	955.72
767.861	945.48
768.044	978.25
768.227	920.9
768.41	1078.6
768.593	974.15
768.776	931.14
768.959	990.53
769.142	970.05
769.324	927.05
769.507	879.94
769.69	968.01
769.873	818.5
770.056	914.76
770.239	970.05
770.421	929.1
770.604	918.86
770.787	873.8
770.97	845.13
771.152	830.79
771.335	965.96
771.518	867.66
771.7	892.23
771.883	857.42
772.066	802.12
772.248	894.28
772.431	896.33
772.613	877.9
772.796	826.7
772.978	898.38
773.161	894.28
773.343	853.32
773.526	699.72
773.708	841.03
773.891	712.01
774.073	814.41
774.256	746.83
774.438	871.75
774.621	734.54
774.803	806.22
774.985	759.11
775.168	740.68
775.35	726.35
775.532	791.88
775.715	761.16
775.897	798.03
776.079	736.59
776.261	765.26
776.444	773.45
776.626	677.19
776.808	666.96
776.99	650.57
777.173	740.68
777.355	759.11
777.537	609.61
777.719	660.81
777.901	732.49
778.083	658.76
778.265	785.74
778.447	658.76
778.629	660.81
778.811	623.95
778.993	652.62
779.175	765.26
779.357	603.47
779.539	615.76
779.721	693.58
779.903	615.76
780.085	582.99
780.267	617.8
780.449	593.23
780.631	628.04
780.812	619.85
780.994	603.47
781.176	621.9
781.358	527.69
781.54	554.32
781.721	654.67
781.903	582.99
782.085	519.5
782.267	566.6
782.448	558.41
782.63	576.84
782.812	535.89
782.993	560.46
783.175	511.31
783.357	507.21
783.538	539.98
783.72	539.98
783.901	511.31
784.083	523.6
784.264	544.08
784.446	388.43
784.627	507.21
784.809	513.36
784.99	492.88
785.172	552.27
785.353	462.16
785.535	527.69
785.716	529.74
785.897	355.66
786.079	462.16
786.26	482.64
786.441	494.93
786.623	437.58
786.804	396.62
786.985	404.82
787.167	357.71
787.348	429.39
787.529	449.87
787.71	462.16
787.891	419.15
788.073	431.44
788.254	365.9
788.435	443.73
788.616	439.63
788.797	318.8
788.978	378.19
789.159	396.62
789.34	374.1
789.522	453.97
789.703	470.35
789.884	306.51
790.065	388.43
790.246	445.77
790.427	439.63
790.607	453.97
790.788	413.01
790.969	470.35
791.15	382.29
791.331	302.42
791.512	376.14
791.693	343.38
791.874	279.89
792.054	394.58
792.235	390.48
792.416	326.99
792.597	253.27
792.778	324.94
792.958	384.34
793.139	363.86
793.32	370
793.5	372.05
793.681	421.2
793.862	277.84
794.042	302.42
794.223	310.61
794.404	374.1
794.584	222.55
794.765	300.37
794.945	396.62
795.126	298.32
795.306	298.32
795.487	347.47
795.667	179.54
795.848	347.47
796.028	345.42
796.209	308.56
796.389	275.79
796.57	283.98
796.75	300.37
796.93	355.66
797.111	273.75
797.291	267.6
797.471	318.8
797.652	286.03
797.832	228.69
798.012	306.51
798.192	320.85
798.373	238.93
798.553	245.07
798.733	335.18
798.913	261.46
799.093	255.31
799.274	312.66
799.454	253.27
799.634	226.64
799.814	322.9
799.994	267.6
800.174	228.69
800.354	263.51
800.534	220.5
800.714	245.07
800.894	267.6
801.074	240.98
801.254	202.07
801.434	232.79
801.614	269.65
801.794	183.63
801.974	718.15
802.154	232.79
802.334	247.12
802.514	238.93
802.693	202.07
802.873	208.21
803.053	290.13
803.233	240.98
803.413	197.97
803.592	257.36
803.772	249.17
803.952	232.79
804.131	257.36
804.311	154.96
804.491	183.63
804.67	195.92
804.85	226.64
805.03	175.44
805.209	263.51
805.389	259.41
805.568	183.63
805.748	236.88
805.928	212.31
806.107	234.83
806.287	220.5
806.466	236.88
806.646	175.44
806.825	195.92
807.004	181.59
807.184	216.4
807.363	212.31
807.543	243.03
807.722	185.68
807.901	150.87
808.081	202.07
808.26	195.92
808.439	159.06
808.619	157.01
808.798	177.49
808.977	226.64
809.156	220.5
809.336	208.21
809.515	218.45
809.694	183.63
809.873	220.5
810.052	298.32
810.231	290.13
810.411	142.68
810.59	253.27
810.769	243.03
810.948	183.63
811.127	105.81
811.306	167.25
811.485	224.59
811.664	245.07
811.843	216.4
812.022	161.11
812.201	208.21
812.38	161.11
812.559	169.3
812.737	240.98
812.916	146.77
813.095	152.91
813.274	101.72
813.453	218.45
813.632	181.59
813.811	126.29
813.989	138.58
814.168	154.96
814.347	179.54
814.526	163.15
814.704	114
814.883	128.34
815.062	124.24
815.24	118.1
815.419	105.81
815.598	114
815.776	163.15
815.955	202.07
816.133	120.15
816.312	93.52
816.49	87.38
816.669	167.25
816.847	152.91
817.026	150.87
817.204	132.44
817.383	128.34
817.561	152.91
817.74	171.35
817.918	85.33
818.097	142.68
818.275	159.06
818.453	134.48
818.632	91.48
818.81	89.43
818.988	103.76
819.167	159.06
819.345	23.89
819.523	218.45
819.701	111.96
819.879	109.91
820.058	179.54
820.236	146.77
820.414	71
820.592	60.76
820.77	161.11
820.948	95.57
821.127	193.87
821.305	218.45
821.483	50.52
821.661	167.25
821.839	218.45
822.017	191.83
822.195	152.91
822.373	130.39
822.551	107.86
822.729	148.82
822.907	89.43
823.085	144.72
823.262	79.19
823.44	126.29
823.618	93.52
823.796	150.87
823.974	103.76
824.152	77.14
824.329	60.76
824.507	128.34
824.685	136.53
824.863	54.61
825.04	62.8
825.218	167.25
825.396	71
825.574	114
825.751	124.24
825.929	66.9
826.107	111.96
826.284	109.91
826.462	105.81
826.639	128.34
826.817	91.48
826.994	120.15
827.172	89.43
827.349	101.72
827.527	124.24
827.704	101.72
827.882	132.44
828.059	126.29
828.237	99.67
828.414	126.29
828.591	19.8
828.769	118.1
828.946	111.96
829.124	181.59
829.301	126.29
829.478	195.92
829.655	118.1
829.833	138.58
830.01	122.2
830.187	68.95
830.364	36.18
830.542	195.92
830.719	97.62
830.896	103.76
831.073	109.91
831.25	124.24
831.427	167.25
831.604	142.68
831.782	114
831.959	93.52
832.136	62.8
832.313	97.62
832.49	87.38
832.667	30.04
832.844	60.76
833.021	118.1
833.198	101.72
833.374	38.23
833.551	68.95
833.728	81.24
833.905	9.56
834.082	109.91
834.259	107.86
834.436	138.58
834.612	73.04
834.789	138.58
834.966	91.48
835.143	93.52
835.319	21.84
835.496	150.87
835.673	154.96
835.85	87.38
836.026	109.91
836.203	142.68
836.38	42.32
836.556	81.24
836.733	40.28
836.909	150.87
837.086	73.04
837.262	13.65
837.439	56.66
837.616	40.28
837.792	54.61
837.968	79.19
838.145	48.47
838.321	118.1
838.498	64.85
838.674	85.33
838.851	71
839.027	75.09
839.203	11.61
839.38	114
839.556	71
839.732	97.62
839.909	99.67
840.085	66.9
840.261	52.56
840.437	54.61
840.614	64.85
840.79	120.15
840.966	60.76
841.142	56.66
841.318	48.47
841.494	68.95
841.671	167.25
841.847	56.66
842.023	85.33
842.199	54.61
842.375	167.25
842.551	-4.78
842.727	1.37
842.903	79.19
843.079	-4.78
843.255	60.76
843.431	32.08
843.607	93.52
843.783	11.61
843.959	79.19
844.134	19.8
844.31	62.8
844.486	62.8
844.662	66.9
844.838	77.14
845.013	52.56
845.189	85.33
845.365	15.7
845.541	60.76
845.716	111.96
845.892	52.56
846.068	-78.51
846.244	5.46
846.419	79.19
846.595	34.13
846.77	30.04
846.946	126.29
847.122	9.56
847.297	73.04
847.473	87.38
847.648	60.76
847.824	101.72
847.999	19.8
848.175	109.91
848.35	-4.78
848.526	19.8
848.701	40.28
848.876	68.95
849.052	62.8
849.227	11.61
849.403	32.08
849.578	58.71
849.753	19.8
849.929	126.29
850.104	32.08
850.279	62.8
850.454	15.7
850.63	32.08
850.805	50.52
850.98	126.29
851.155	66.9
851.33	68.95
851.505	23.89
851.681	62.8
851.856	21.84
852.031	54.61
852.206	62.8
852.381	44.37
852.556	23.89
852.731	11.61
852.906	11.61
853.081	77.14
853.256	34.13
853.431	-8.87
853.606	-8.87
853.781	11.61
853.956	52.56
854.131	56.66
854.305	3.41
854.48	52.56
854.655	71
854.83	73.04
855.005	21.84
855.18	44.37
855.354	19.8
855.529	-12.97
855.704	40.28
855.879	21.84
856.053	30.04
856.228	13.65
856.403	-33.45
856.577	52.56
856.752	13.65
856.926	27.99
857.101	36.18
857.276	34.13
857.45	44.37
857.625	68.95
857.799	44.37
857.974	44.37
858.148	3.41
858.323	97.62
858.497	34.13
858.672	-15.02
858.846	-12.97
859.02	68.95
859.195	-31.4
859.369	25.94
859.543	25.94
859.718	68.95
859.892	60.76
860.066	85.33
860.241	44.37
860.415	62.8
860.589	46.42
860.763	5.46
860.938	62.8
861.112	52.56
861.286	-21.16
861.46	60.76
861.634	23.89
861.808	73.04
861.982	99.67
862.157	-43.69
862.331	-4.78
862.505	23.89
862.679	27.99
862.853	42.32
863.027	-21.16
863.201	77.14
863.375	64.85
863.549	54.61
863.722	-60.07
863.896	91.48
864.07	5.46
864.244	77.14
864.418	36.18
864.592	91.48
864.766	77.14
864.939	60.76
865.113	58.71
865.287	111.96
865.461	62.8
865.634	60.76
865.808	71
865.982	19.8
866.156	60.76
866.329	-12.97
866.503	19.8
866.676	32.08
866.85	21.84
867.024	19.8
867.197	81.24
867.371	32.08
867.544	64.85
867.718	-12.97
867.891	5.46
868.065	-51.88
868.238	38.23
868.412	27.99
868.585	56.66
868.759	114
868.932	-31.4
869.105	27.99
869.279	58.71
869.452	79.19
869.625	27.99
869.799	52.56
869.972	-21.16
870.145	60.76
870.319	30.04
870.492	64.85
870.665	-10.92
870.838	109.91
871.011	-17.07
871.185	-49.83
871.358	5.46
871.531	62.8
871.704	40.28
871.877	-43.69
872.05	56.66
872.223	-29.35
872.396	32.08
872.569	44.37
872.742	-51.88
872.915	27.99
873.088	36.18
873.261	7.51
873.434	27.99
873.607	60.76
873.78	50.52
873.953	-27.31
874.126	-78.51
874.299	36.18
874.471	-15.02
874.644	62.8
874.817	52.56
874.99	3.41
875.163	1.37
875.335	-37.55
875.508	32.08
875.681	54.61
875.853	-53.93
876.026	97.62
876.199	101.72
876.371	-12.97
876.544	-17.07
876.717	48.47
876.889	-12.97
877.062	17.75
877.234	21.84
877.407	-4.78
877.579	71
877.752	23.89
877.924	-21.16
878.097	111.96
878.269	19.8
878.442	38.23
878.614	-10.92
878.786	11.61
878.959	77.14
879.131	-10.92
879.303	-33.45
879.476	62.8
879.648	13.65
879.82	105.81
879.993	85.33
880.165	52.56
880.337	-21.16
880.509	-2.73
880.681	5.46
880.854	-19.11
881.026	79.19
881.198	77.14
881.37	3.41
881.542	3.41
881.714	17.75
881.886	-35.5
882.058	32.08
882.23	73.04
882.402	-19.11
882.574	44.37
882.746	36.18
882.918	64.85
883.09	109.91
883.262	27.99
883.434	13.65
883.606	-19.11
883.778	36.18
883.95	95.57
884.122	27.99
884.293	15.7
884.465	-17.07
884.637	11.61
884.809	-4.78
884.98	38.23
885.152	52.56
885.324	52.56
885.496	-49.83
885.667	93.52
885.839	-41.64
886.011	15.7
886.182	-2.73
886.354	77.14
886.525	85.33
886.697	30.04
886.869	-33.45
887.04	-43.69
887.212	3.41
887.383	27.99
887.555	-10.92
887.726	-37.55
887.897	75.09
888.069	60.76
888.24	25.94
888.412	-37.55
888.583	-17.07
888.754	11.61
888.926	19.8
889.097	-62.12
889.268	-51.88
889.44	-8.87
889.611	13.65
889.782	-45.74
889.953	-21.16
890.125	-2.73
890.296	60.76
890.467	-86.7
890.638	-45.74
890.809	-37.55
890.98	27.99
891.151	77.14
891.323	79.19
891.494	-12.97
891.665	-49.83
891.836	-29.35
892.007	-29.35
892.178	-8.87
892.349	-4.78
892.52	36.18
892.691	23.89
892.862	34.13
893.032	46.42
893.203	36.18
893.374	11.61
893.545	-35.5
893.716	27.99
893.887	64.85
894.057	3.41
894.228	13.65
894.399	36.18
894.57	68.95
894.74	27.99
894.911	97.62
895.082	-12.97
895.253	52.56
895.423	9.56
895.594	54.61
895.764	13.65
895.935	46.42
896.106	66.9
896.276	85.33
896.447	3.41
896.617	38.23
896.788	27.99
896.958	27.99
897.129	40.28
897.299	44.37
897.47	25.94
897.64	-10.92
897.81	-23.21
897.981	-2.73
898.151	-17.07
898.322	1.37
898.492	-27.31
898.662	-17.07
898.832	38.23
899.003	-8.87
899.173	60.76
899.343	-68.27
899.513	-12.97
