Data from USB4F104151__19__14-16-09-080.txt Node

Date: Thu Mar 13 14:16:09 EDT 2025
User: louis
Spectrometer: USB4F10415
Trigger mode: 4
Integration Time (sec): 2.000000E-2
Scans to average: 1
Electric dark correction enabled: true
Nonlinearity correction enabled: false
Boxcar width: 0
XAxis mode: Wavelengths
Number of Pixels in Spectrum: 3648
>>>>>Begin Spectral Data<<<<<
178.204	-118.1
178.424	-118.1
178.644	-118.1
178.864	-163.15
179.084	-103.76
179.304	-62.8
179.524	-21.84
179.744	2.73
179.964	19.11
180.184	35.5
180.404	15.02
180.624	-27.99
180.844	-71
181.064	25.26
181.283	19.11
181.503	47.79
181.723	19.11
181.943	-17.75
182.163	101.03
182.383	19.11
182.602	-3.41
182.822	10.92
183.042	-46.42
183.262	-21.84
183.482	45.74
183.701	78.51
183.921	-9.56
184.141	10.92
184.361	39.59
184.58	8.87
184.8	23.21
185.02	0.68
185.239	43.69
185.459	41.64
185.679	68.27
185.898	-64.85
186.118	2.73
186.338	21.16
186.557	76.46
186.777	2.73
186.997	0.68
187.216	47.79
187.436	72.36
187.655	-5.46
187.875	84.65
188.095	23.21
188.314	62.12
188.534	6.83
188.753	-38.23
188.973	6.83
189.192	-23.89
189.412	19.11
189.631	10.92
189.851	66.22
190.07	68.27
190.29	17.07
190.509	10.92
190.729	-42.32
190.948	96.94
191.168	117.42
191.387	53.93
191.607	6.83
191.826	33.45
192.045	58.03
192.265	27.31
192.484	96.94
192.704	43.69
192.923	23.21
193.142	133.8
193.362	35.5
193.581	39.59
193.8	35.5
194.02	27.31
194.239	-32.08
194.458	125.61
194.678	-9.56
194.897	-17.75
195.116	-30.04
195.335	-25.94
195.555	55.98
195.774	15.02
195.993	-1.37
196.212	-87.38
196.432	21.16
196.651	-19.8
196.87	2.73
197.089	0.68
197.308	10.92
197.528	43.69
197.747	-36.18
197.966	80.55
198.185	84.65
198.404	-21.84
198.623	-21.84
198.842	19.11
199.062	10.92
199.281	66.22
199.5	-38.23
199.719	78.51
199.938	60.07
200.157	60.07
200.376	76.46
200.595	60.07
200.814	33.45
201.033	29.35
201.252	-3.41
201.471	82.6
201.69	27.31
201.909	90.79
202.128	45.74
202.347	27.31
202.566	43.69
202.785	-71
203.004	-30.04
203.223	31.4
203.442	47.79
203.661	21.16
203.879	45.74
204.098	62.12
204.317	-5.46
204.536	-71
204.755	31.4
204.974	64.17
205.193	43.69
205.411	27.31
205.63	68.27
205.849	23.21
206.068	-11.61
206.287	-11.61
206.505	55.98
206.724	62.12
206.943	82.6
207.162	55.98
207.381	31.4
207.599	39.59
207.818	-52.56
208.037	55.98
208.255	70.31
208.474	21.16
208.693	103.08
208.911	-27.99
209.13	70.31
209.349	113.32
209.567	-1.37
209.786	35.5
210.005	47.79
210.223	27.31
210.442	43.69
210.661	31.4
210.879	43.69
211.098	27.31
211.316	-5.46
211.535	86.7
211.753	47.79
211.972	-25.94
212.191	-1.37
212.409	35.5
212.628	35.5
212.846	60.07
213.065	53.93
213.283	55.98
213.502	-44.37
213.72	74.41
213.938	27.31
214.157	-46.42
214.375	64.17
214.594	-13.65
214.812	53.93
215.031	37.55
215.249	35.5
215.467	84.65
215.686	-34.13
215.904	19.11
216.122	58.03
216.341	33.45
216.559	12.97
216.778	60.07
216.996	41.64
217.214	10.92
217.432	-1.37
217.651	15.02
217.869	39.59
218.087	43.69
218.306	41.64
218.524	43.69
218.742	-27.99
218.96	21.16
219.179	-27.99
219.397	-50.52
219.615	135.85
219.833	-17.75
220.051	2.73
220.27	58.03
220.488	-11.61
220.706	31.4
220.924	2.73
221.142	84.65
221.36	-11.61
221.578	37.55
221.796	45.74
222.015	29.35
222.233	-9.56
222.451	53.93
222.669	51.88
222.887	45.74
223.105	-50.52
223.323	51.88
223.541	17.07
223.759	94.89
223.977	27.31
224.195	33.45
224.413	43.69
224.631	58.03
224.849	35.5
225.067	49.83
225.285	64.17
225.503	-13.65
225.721	-13.65
225.939	15.02
226.157	19.11
226.375	113.32
226.592	4.78
226.81	-11.61
227.028	80.55
227.246	68.27
227.464	33.45
227.682	103.08
227.9	121.51
228.117	51.88
228.335	-85.33
228.553	6.83
228.771	41.64
228.989	35.5
229.206	-7.51
229.424	4.78
229.642	-3.41
229.86	-13.65
230.077	19.11
230.295	35.5
230.513	96.94
230.731	103.08
230.948	-5.46
231.166	88.75
231.384	45.74
231.601	92.84
231.819	53.93
232.037	55.98
232.254	43.69
232.472	53.93
232.689	2.73
232.907	25.26
233.125	33.45
233.342	-9.56
233.56	2.73
233.777	72.36
233.995	8.87
234.213	47.79
234.43	55.98
234.648	15.02
234.865	27.31
235.083	10.92
235.3	41.64
235.518	76.46
235.735	35.5
235.953	78.51
236.17	43.69
236.388	51.88
236.605	-15.7
236.822	43.69
237.04	39.59
237.257	31.4
237.475	72.36
237.692	31.4
237.909	-15.7
238.127	10.92
238.344	43.69
238.562	27.31
238.779	-5.46
238.996	19.11
239.214	68.27
239.431	35.5
239.648	-75.09
239.865	80.55
240.083	84.65
240.3	37.55
240.517	-9.56
240.735	45.74
240.952	41.64
241.169	19.11
241.386	64.17
241.603	43.69
241.821	19.11
242.038	-17.75
242.255	37.55
242.472	-27.99
242.689	23.21
242.907	39.59
243.124	23.21
243.341	84.65
243.558	78.51
243.775	74.41
243.992	-15.7
244.209	37.55
244.426	68.27
244.643	141.99
244.86	-17.75
245.078	39.59
245.295	68.27
245.512	-7.51
245.729	10.92
245.946	29.35
246.163	-44.37
246.38	33.45
246.597	41.64
246.814	2.73
247.031	-13.65
247.248	-36.18
247.464	-17.75
247.681	2.73
247.898	37.55
248.115	51.88
248.332	-19.8
248.549	70.31
248.766	119.46
248.983	21.16
249.2	12.97
249.417	-27.99
249.633	-13.65
249.85	101.03
250.067	12.97
250.284	-9.56
250.501	76.46
250.717	78.51
250.934	35.5
251.151	60.07
251.368	23.21
251.585	31.4
251.801	31.4
252.018	-66.9
252.235	105.13
252.451	51.88
252.668	39.59
252.885	25.26
253.102	27.31
253.318	37.55
253.535	37.55
253.752	35.5
253.968	31.4
254.185	2.73
254.401	-13.65
254.618	92.84
254.835	41.64
255.051	23.21
255.268	19.11
255.484	-9.56
255.701	107.18
255.917	60.07
256.134	-32.08
256.351	-38.23
256.567	-38.23
256.784	72.36
257	0.68
257.217	31.4
257.433	84.65
257.65	68.27
257.866	70.31
258.082	86.7
258.299	-15.7
258.515	-5.46
258.732	37.55
258.948	-27.99
259.165	-54.61
259.381	109.23
259.597	55.98
259.814	27.31
260.03	17.07
260.246	-27.99
260.463	35.5
260.679	76.46
260.895	10.92
261.112	-25.94
261.328	12.97
261.544	10.92
261.761	21.16
261.977	117.42
262.193	53.93
262.409	60.07
262.626	-5.46
262.842	21.16
263.058	39.59
263.274	49.83
263.49	45.74
263.707	4.78
263.923	29.35
264.139	12.97
264.355	29.35
264.571	135.85
264.787	-13.65
265.004	51.88
265.22	19.11
265.436	51.88
265.652	2.73
265.868	19.11
266.084	25.26
266.3	113.32
266.516	-81.24
266.732	29.35
266.948	43.69
267.164	19.11
267.38	66.22
267.596	19.11
267.812	133.8
268.028	72.36
268.244	55.98
268.46	37.55
268.676	88.75
268.892	49.83
269.108	10.92
269.324	21.16
269.54	-36.18
269.756	35.5
269.972	-81.24
270.188	6.83
270.403	-17.75
270.619	-3.41
270.835	39.59
271.051	6.83
271.267	2.73
271.483	21.16
271.698	12.97
271.914	72.36
272.13	70.31
272.346	33.45
272.562	31.4
272.777	25.26
272.993	-7.51
273.209	62.12
273.425	60.07
273.64	-23.89
273.856	113.32
274.072	29.35
274.287	64.17
274.503	109.23
274.719	60.07
274.934	-38.23
275.15	12.97
275.366	29.35
275.581	15.02
275.797	21.16
276.012	-21.84
276.228	47.79
276.444	31.4
276.659	84.65
276.875	-21.84
277.09	27.31
277.306	55.98
277.521	43.69
277.737	29.35
277.952	55.98
278.168	37.55
278.383	21.16
278.599	10.92
278.814	15.02
279.03	60.07
279.245	27.31
279.461	6.83
279.676	55.98
279.892	53.93
280.107	43.69
280.322	17.07
280.538	101.03
280.753	2.73
280.969	82.6
281.184	66.22
281.399	68.27
281.615	31.4
281.83	-54.61
282.045	-9.56
282.26	92.84
282.476	10.92
282.691	53.93
282.906	21.16
283.122	51.88
283.337	-5.46
283.552	60.07
283.767	-36.18
283.983	31.4
284.198	64.17
284.413	19.11
284.628	-30.04
284.843	76.46
285.058	92.84
285.274	35.5
285.489	31.4
285.704	29.35
285.919	55.98
286.134	31.4
286.349	-38.23
286.564	10.92
286.779	37.55
286.995	60.07
287.21	-60.76
287.425	64.17
287.64	76.46
287.855	78.51
288.07	62.12
288.285	17.07
288.5	43.69
288.715	10.92
288.93	0.68
289.145	-7.51
289.36	19.11
289.575	-44.37
289.79	33.45
290.004	23.21
290.219	62.12
290.434	39.59
290.649	-68.95
290.864	27.31
291.079	-1.37
291.294	31.4
291.509	27.31
291.724	68.27
291.938	21.16
292.153	-11.61
292.368	68.27
292.583	84.65
292.798	96.94
293.012	76.46
293.227	125.61
293.442	-21.84
293.657	23.21
293.871	90.79
294.086	-3.41
294.301	47.79
294.516	31.4
294.73	12.97
294.945	-25.94
295.16	62.12
295.374	109.23
295.589	-30.04
295.804	90.79
296.018	4.78
296.233	76.46
296.447	31.4
296.662	-44.37
296.877	19.11
297.091	-1.37
297.306	12.97
297.52	35.5
297.735	49.83
297.949	-17.75
298.164	27.31
298.378	68.27
298.593	119.46
298.807	-21.84
299.022	72.36
299.236	101.03
299.451	51.88
299.665	103.08
299.88	47.79
300.094	51.88
300.309	39.59
300.523	53.93
300.737	33.45
300.952	27.31
301.166	103.08
301.381	8.87
301.595	68.27
301.809	-9.56
302.024	109.23
302.238	35.5
302.452	80.55
302.667	41.64
302.881	78.51
303.095	62.12
303.309	-13.65
303.524	58.03
303.738	-11.61
303.952	41.64
304.166	47.79
304.381	-5.46
304.595	27.31
304.809	-11.61
305.023	76.46
305.237	45.74
305.452	90.79
305.666	53.93
305.88	78.51
306.094	60.07
306.308	-52.56
306.522	125.61
306.736	31.4
306.95	27.31
307.164	35.5
307.379	27.31
307.593	88.75
307.807	37.55
308.021	4.78
308.235	98.99
308.449	29.35
308.663	33.45
308.877	-11.61
309.091	27.31
309.305	29.35
309.519	12.97
309.733	45.74
309.947	47.79
310.161	29.35
310.374	10.92
310.588	103.08
310.802	68.27
311.016	43.69
311.23	21.16
311.444	60.07
311.658	25.26
311.872	31.4
312.085	-13.65
312.299	62.12
312.513	51.88
312.727	10.92
312.941	70.31
313.154	43.69
313.368	37.55
313.582	15.02
313.796	60.07
314.009	-13.65
314.223	0.68
314.437	72.36
314.651	76.46
314.864	51.88
315.078	17.07
315.292	19.11
315.505	72.36
315.719	-13.65
315.933	15.02
316.146	35.5
316.36	-11.61
316.573	21.16
316.787	43.69
317.001	160.42
317.214	60.07
317.428	60.07
317.641	0.68
317.855	17.07
318.068	2.73
318.282	29.35
318.495	53.93
318.709	62.12
318.922	39.59
319.136	92.84
319.349	64.17
319.563	80.55
319.776	70.31
319.99	37.55
320.203	21.16
320.417	8.87
320.63	39.59
320.843	19.11
321.057	76.46
321.27	4.78
321.483	70.31
321.697	133.8
321.91	-19.8
322.124	90.79
322.337	29.35
322.55	62.12
322.763	21.16
322.977	80.55
323.19	31.4
323.403	43.69
323.617	6.83
323.83	23.21
324.043	-27.99
324.256	80.55
324.469	29.35
324.683	92.84
324.896	47.79
325.109	62.12
325.322	27.31
325.535	-5.46
325.748	21.16
325.962	19.11
326.175	-1.37
326.388	53.93
326.601	82.6
326.814	84.65
327.027	41.64
327.24	129.7
327.453	-5.46
327.666	45.74
327.879	55.98
328.092	103.08
328.305	2.73
328.518	60.07
328.731	-5.46
328.944	4.78
329.157	12.97
329.37	43.69
329.583	15.02
329.796	96.94
330.009	43.69
330.222	39.59
330.435	127.66
330.648	-5.46
330.861	49.83
331.073	23.21
331.286	45.74
331.499	133.8
331.712	31.4
331.925	-3.41
332.138	19.11
332.35	109.23
332.563	23.21
332.776	-3.41
332.989	19.11
333.202	70.31
333.414	29.35
333.627	29.35
333.84	-23.89
334.053	-85.33
334.265	53.93
334.478	21.16
334.691	86.7
334.903	72.36
335.116	-9.56
335.329	27.31
335.541	31.4
335.754	2.73
335.966	19.11
336.179	82.6
336.392	29.35
336.604	62.12
336.817	49.83
337.029	51.88
337.242	45.74
337.454	158.38
337.667	35.5
337.88	90.79
338.092	15.02
338.305	37.55
338.517	12.97
338.729	51.88
338.942	72.36
339.154	2.73
339.367	-25.94
339.579	21.16
339.792	-9.56
340.004	84.65
340.217	31.4
340.429	113.32
340.641	55.98
340.854	53.93
341.066	49.83
341.278	27.31
341.491	41.64
341.703	43.69
341.915	-9.56
342.128	37.55
342.34	19.11
342.552	53.93
342.764	12.97
342.977	64.17
343.189	70.31
343.401	2.73
343.613	-3.41
343.826	96.94
344.038	4.78
344.25	0.68
344.462	125.61
344.674	21.16
344.886	72.36
345.099	55.98
345.311	43.69
345.523	35.5
345.735	84.65
345.947	21.16
346.159	70.31
346.371	51.88
346.583	23.21
346.795	53.93
347.007	-42.32
347.219	27.31
347.431	-13.65
347.643	68.27
347.855	47.79
348.067	68.27
348.279	-79.19
348.491	115.37
348.703	60.07
348.915	12.97
349.127	27.31
349.339	68.27
349.551	60.07
349.763	96.94
349.975	15.02
350.187	68.27
350.399	35.5
350.61	12.97
350.822	-9.56
351.034	88.75
351.246	76.46
351.458	53.93
351.669	51.88
351.881	55.98
352.093	55.98
352.305	-5.46
352.517	96.94
352.728	49.83
352.94	-1.37
353.152	101.03
353.363	15.02
353.575	53.93
353.787	62.12
353.999	15.02
354.21	84.65
354.422	25.26
354.633	-15.7
354.845	55.98
355.057	23.21
355.268	0.68
355.48	107.18
355.692	103.08
355.903	31.4
356.115	39.59
356.326	-5.46
356.538	105.13
356.749	66.22
356.961	64.17
357.172	-34.13
357.384	0.68
357.595	35.5
357.807	12.97
358.018	84.65
358.23	60.07
358.441	139.94
358.653	70.31
358.864	33.45
359.075	105.13
359.287	35.5
359.498	10.92
359.709	64.17
359.921	49.83
360.132	66.22
360.344	12.97
360.555	-7.51
360.766	-9.56
360.977	96.94
361.189	43.69
361.4	21.16
361.611	72.36
361.823	70.31
362.034	68.27
362.245	-5.46
362.456	60.07
362.667	55.98
362.879	45.74
363.09	70.31
363.301	55.98
363.512	72.36
363.723	35.5
363.935	96.94
364.146	84.65
364.357	80.55
364.568	109.23
364.779	2.73
364.99	101.03
365.201	51.88
365.412	127.66
365.623	17.07
365.834	111.27
366.045	72.36
366.256	84.65
366.467	68.27
366.678	-3.41
366.889	41.64
367.1	64.17
367.311	150.18
367.522	47.79
367.733	80.55
367.944	127.66
368.155	35.5
368.366	86.7
368.577	94.89
368.788	31.4
368.999	-46.42
369.209	154.28
369.42	94.89
369.631	146.09
369.842	96.94
370.053	55.98
370.264	115.37
370.474	76.46
370.685	45.74
370.896	4.78
371.107	103.08
371.317	82.6
371.528	43.69
371.739	12.97
371.95	60.07
372.16	51.88
372.371	-1.37
372.582	68.27
372.792	2.73
373.003	88.75
373.214	4.78
373.424	92.84
373.635	80.55
373.846	144.04
374.056	12.97
374.267	94.89
374.477	74.41
374.688	76.46
374.898	133.8
375.109	88.75
375.319	70.31
375.53	92.84
375.74	43.69
375.951	2.73
376.161	55.98
376.372	6.83
376.582	-44.37
376.793	68.27
377.003	64.17
377.214	105.13
377.424	64.17
377.635	43.69
377.845	86.7
378.055	119.46
378.266	21.16
378.476	47.79
378.686	88.75
378.897	121.51
379.107	76.46
379.317	19.11
379.528	51.88
379.738	158.38
379.948	-1.37
380.158	-1.37
380.369	-21.84
380.579	86.7
380.789	-30.04
380.999	-36.18
381.21	76.46
381.42	94.89
381.63	84.65
381.84	15.02
382.05	113.32
382.261	96.94
382.471	72.36
382.681	12.97
382.891	37.55
383.101	51.88
383.311	60.07
383.521	-17.75
383.731	49.83
383.941	6.83
384.151	82.6
384.361	76.46
384.571	35.5
384.781	96.94
384.991	96.94
385.201	109.23
385.411	31.4
385.621	131.75
385.831	82.6
386.041	80.55
386.251	21.16
386.461	115.37
386.671	78.51
386.881	111.27
387.091	33.45
387.301	60.07
387.511	90.79
387.72	66.22
387.93	62.12
388.14	31.4
388.35	76.46
388.56	60.07
388.769	10.92
388.979	96.94
389.189	105.13
389.399	51.88
389.609	103.08
389.818	68.27
390.028	27.31
390.238	45.74
390.447	33.45
390.657	129.7
390.867	-3.41
391.076	43.69
391.286	62.12
391.496	15.02
391.705	88.75
391.915	111.27
392.125	66.22
392.334	70.31
392.544	141.99
392.753	35.5
392.963	103.08
393.172	98.99
393.382	37.55
393.591	199.34
393.801	101.03
394.01	187.05
394.22	117.42
394.429	101.03
394.639	60.07
394.848	103.08
395.058	68.27
395.267	98.99
395.477	84.65
395.686	92.84
395.895	182.95
396.105	127.66
396.314	76.46
396.524	117.42
396.733	141.99
396.942	176.81
397.152	125.61
397.361	76.46
397.57	146.09
397.78	101.03
397.989	105.13
398.198	133.8
398.407	146.09
398.617	111.27
398.826	160.42
399.035	78.51
399.244	133.8
399.453	86.7
399.663	133.8
399.872	133.8
400.081	131.75
400.29	166.57
400.499	127.66
400.708	131.75
400.917	129.7
401.127	121.51
401.336	133.8
401.545	180.9
401.754	103.08
401.963	137.9
402.172	109.23
402.381	86.7
402.59	127.66
402.799	168.62
403.008	160.42
403.217	133.8
403.426	178.86
403.635	182.95
403.844	199.34
404.053	144.04
404.262	141.99
404.471	217.77
404.68	109.23
404.888	166.57
405.097	193.19
405.306	133.8
405.515	246.44
405.724	182.95
405.933	191.14
406.142	234.15
406.35	207.53
406.559	242.34
406.768	209.58
406.977	262.82
407.185	221.86
407.394	281.25
407.603	135.85
407.812	303.78
408.02	283.3
408.229	232.1
408.438	289.45
408.646	264.87
408.855	215.72
409.064	266.92
409.272	336.55
409.481	357.03
409.69	328.36
409.898	342.69
410.107	453.28
410.315	381.6
410.524	340.65
410.733	389.8
410.941	395.94
411.15	572.07
411.358	479.91
411.567	463.52
411.775	416.42
411.984	441
412.192	535.2
412.401	498.34
412.609	498.34
412.818	594.59
413.026	488.1
413.234	580.26
413.443	615.07
413.651	660.13
413.86	668.32
414.068	711.33
414.276	744.1
414.485	719.52
414.693	723.62
414.901	772.77
415.11	823.97
415.318	821.92
415.526	899.74
415.734	961.18
415.943	932.51
416.151	1036.95
416.359	905.88
416.567	930.46
416.776	1133.21
416.984	1059.48
417.192	1184.41
417.4	1249.94
417.608	1055.39
417.817	1247.9
418.025	1264.28
418.233	1340.05
418.441	1432.21
418.649	1407.64
418.857	1530.52
419.065	1632.91
419.273	1649.3
419.481	1577.62
419.689	1641.11
419.897	1780.37
420.105	1831.57
420.313	1776.27
420.521	1960.59
420.729	2075.27
420.937	1974.92
421.145	2192.01
421.353	2189.96
421.561	2331.27
421.769	2280.07
421.977	2366.09
422.185	2370.18
422.393	2534.02
422.601	2767.49
422.809	2656.9
423.017	2689.67
423.224	2968.19
423.432	2914.94
423.64	2996.86
423.848	3238.52
424.056	3177.08
424.263	3336.82
424.471	3398.26
424.679	3531.38
424.887	3504.76
425.094	3717.75
425.302	3641.97
425.51	3928.69
425.718	4086.38
425.925	4121.2
426.133	4313.7
426.341	4381.29
426.548	4799.07
426.756	4692.58
426.964	4827.74
427.171	5032.54
427.379	5167.71
427.586	5210.72
427.794	5286.49
428.001	5517.91
428.209	5778
428.417	5876.31
428.624	6183.5
428.832	6156.88
429.039	6089.29
429.247	6083.15
429.454	6746.69
429.662	7195.2
429.869	6859.33
430.076	7166.53
430.284	7070.27
430.491	7287.36
430.699	7541.3
430.906	7655.99
431.114	7782.96
431.321	8165.93
431.528	8182.32
431.736	8806.95
431.943	9148.96
432.15	8788.52
432.358	9005.6
432.565	9402.91
432.772	9505.31
432.979	9976.34
433.187	10234.38
433.394	10230.29
433.601	10934.79
433.808	11078.15
434.016	10893.83
434.223	11026.95
434.43	11749.88
434.637	11837.94
434.844	12403.18
435.052	12851.69
435.259	12556.78
435.466	12653.03
435.673	12472.81
435.88	13593.05
436.087	13871.57
436.294	14262.74
436.501	13664.73
436.708	14023.12
436.915	14531.02
437.122	15292.87
437.329	15292.87
437.537	15821.24
437.743	15788.47
437.95	15946.17
438.157	16564.65
438.364	17060.26
438.571	17103.27
438.778	17064.36
438.985	18616.72
439.192	17971.61
439.399	18401.68
439.606	18059.67
439.813	19028.36
440.02	20314.48
440.227	19798.4
440.433	19675.52
440.64	20402.55
440.847	20427.12
441.054	20842.86
441.261	22012.25
441.467	22196.57
441.674	22206.81
441.881	22939.98
442.088	22796.62
442.294	23091.53
442.501	23617.86
442.708	24279.35
442.914	24994.09
443.121	25925.92
443.328	25450.79
443.534	27128.08
443.741	25946.4
443.948	25911.58
444.154	27562.25
444.361	27742.47
444.568	27539.72
444.774	27783.43
444.981	27795.71
445.187	28696.82
445.394	30136.54
445.6	29247.72
445.807	32481.47
446.013	31125.71
446.22	31535.31
446.426	32710.84
446.633	33149.1
446.839	34402.46
447.046	32755.89
447.252	34769.05
447.459	34529.44
447.665	34345.12
447.871	36014.21
448.078	37175.41
448.284	35461.26
448.491	36929.66
448.697	38070.37
448.903	38658.14
449.11	38905.94
449.316	38176.87
449.522	38733.92
449.728	39833.67
449.935	40054.86
450.141	39997.51
450.347	41171
450.553	39682.13
450.76	40136.77
450.966	41523.25
451.172	41189.43
451.378	42309.67
451.584	41220.15
451.791	42248.23
451.997	42096.68
452.203	43135
452.409	42971.16
452.615	42889.24
452.821	41480.24
453.027	40622.14
453.233	42709.02
453.44	41197.62
453.646	41863.21
453.852	41613.36
454.058	42309.67
454.264	41437.23
454.47	42446.88
454.676	40986.68
454.882	42237.99
455.088	38723.68
455.294	39106.65
455.5	40177.73
455.705	40828.99
455.911	38754.4
456.117	37879.91
456.323	37767.27
456.529	35551.37
456.735	37396.59
456.941	36180.1
457.147	35684.49
457.352	34957.46
457.558	34158.75
457.764	34373.79
457.97	34072.74
458.176	33202.35
458.381	33218.74
458.587	31185.1
458.793	31242.45
458.999	29925.6
459.204	31625.42
459.41	31070.42
459.616	28938.48
459.821	28975.34
460.027	28999.92
460.233	28279.04
460.438	27060.49
460.644	27392.26
460.85	26042.65
461.055	25514.28
461.261	25487.65
461.466	23750.98
461.672	22835.53
461.878	24559.92
462.083	22870.35
462.289	22649.17
462.494	22520.15
462.7	21696.86
462.905	21025.13
463.111	21682.53
463.316	21639.52
463.522	21393.76
463.727	21180.78
463.932	21152.1
464.138	20902.25
464.343	20885.87
464.549	20478.32
464.754	21016.94
464.959	20875.63
465.165	20427.12
465.37	19943.8
465.575	19433.86
465.781	20207.99
465.986	20279.67
466.191	19319.17
466.397	19218.82
466.602	18311.57
466.807	18919.82
467.012	18909.58
467.218	18827.66
467.423	18528.66
467.628	18651.53
467.833	19474.82
468.038	18514.32
468.244	18196.89
468.449	18846.09
468.654	18256.28
468.859	18205.08
469.064	18094.49
469.269	17365.41
469.474	17551.77
469.679	17783.2
469.885	17248.68
470.09	17478.05
470.295	17443.23
470.5	17088.93
470.705	17090.98
470.91	16902.57
471.115	16601.52
471.32	16691.63
471.525	16740.78
471.73	16187.83
471.935	16191.92
472.139	15743.42
472.344	15751.61
472.549	15716.79
472.754	15444.41
472.959	15450.56
473.164	14813.64
473.369	14684.62
473.574	15292.87
473.778	14844.36
473.983	14862.79
474.188	15083.97
474.393	14156.24
474.598	14578.12
474.802	14070.23
475.007	14174.67
475.212	14201.3
475.417	13695.45
475.621	13724.12
475.826	13765.08
476.031	13466.08
476.235	12968.42
476.44	13595.1
476.645	13068.77
476.849	13251.04
477.054	12884.45
477.259	12759.53
477.463	12653.03
477.668	12577.26
477.872	12650.99
478.077	12249.58
478.282	12061.17
478.486	12204.53
478.691	12128.75
478.895	12188.14
479.1	11856.37
479.304	12126.71
479.509	11633.15
479.713	11670.01
479.918	11479.55
480.122	11178.5
480.326	11491.84
480.531	11532.79
480.735	11387.39
480.94	11256.32
481.144	11581.95
481.348	10955.27
481.553	11383.29
481.757	10865.16
481.961	10926.6
482.166	11147.78
482.37	11006.47
482.574	10953.22
482.778	11106.82
482.983	11276.8
483.187	10856.96
483.391	10934.79
483.595	10932.74
483.8	10744.33
484.004	11074.05
484.208	11160.06
484.412	11000.32
484.616	11065.86
484.821	10979.84
485.025	10715.66
485.229	11178.5
485.433	11080.19
485.637	10906.12
485.841	10756.61
486.045	10922.5
486.249	11110.91
486.453	11041.28
486.657	10930.69
486.861	10820.1
487.065	10547.72
487.269	10856.96
487.473	10738.18
487.677	11061.76
487.881	11121.15
488.085	11045.38
488.289	10902.02
488.493	11047.43
488.697	11112.96
488.901	10924.55
489.105	11016.71
489.309	10867.2
489.512	10818.05
489.716	10967.56
489.92	11225.6
490.124	11069.95
490.328	11332.09
490.531	11133.44
490.735	11383.29
490.939	11358.72
491.143	11192.83
491.346	11033.09
491.55	11375.1
491.754	11188.74
491.958	11538.94
492.161	11334.14
492.365	11512.31
492.569	11497.98
492.772	11604.47
492.976	11702.78
493.18	11637.24
493.383	11829.75
493.587	11653.62
493.79	12052.98
493.994	11741.69
494.197	11999.73
494.401	12171.76
494.605	12214.77
494.808	12225.01
495.012	12308.97
495.215	12317.17
495.419	12610.03
495.622	12306.93
495.825	12689.9
496.029	12507.63
496.232	12755.43
496.436	13005.28
496.639	13062.63
496.843	12872.17
497.046	13439.45
497.249	13572.57
497.453	13570.52
497.656	13539.8
497.859	13832.66
498.063	13967.83
498.266	14105.04
498.469	13967.83
498.673	14221.78
498.876	14598.6
499.079	14803.4
499.282	14531.02
499.485	15077.83
499.689	15174.08
499.892	15040.97
500.095	15405.5
500.298	15858.1
500.501	15798.71
500.705	16083.38
500.908	16349.62
501.111	16308.66
501.314	16374.19
501.517	16396.72
501.72	16695.72
501.923	16877.99
502.126	17027.49
502.329	17336.74
502.532	17355.17
502.735	17529.25
502.938	17809.82
503.141	18196.89
503.344	17985.94
503.547	18168.21
503.75	18516.37
503.953	18741.64
504.156	18790.8
504.359	19016.07
504.562	19212.68
504.765	19435.91
504.968	19794.3
505.17	20244.85
505.373	19929.47
505.576	20230.52
505.779	20423.03
505.982	20900.2
506.185	21094.76
506.387	21350.76
506.59	21317.99
506.793	21668.19
506.996	21746.01
507.198	22237.53
507.401	21883.23
507.604	22438.23
507.807	22833.49
508.009	22729.04
508.212	23093.58
508.415	23464.26
508.617	23740.74
508.82	23839.04
509.022	23621.95
509.225	24348.98
509.428	24365.37
509.63	24570.16
509.833	24639.79
510.035	25520.42
510.238	25631.01
510.44	25700.64
510.643	26118.43
510.845	26335.51
511.048	26102.04
511.25	26767.63
511.453	26683.67
511.655	27621.64
511.858	27289.87
512.06	27384.07
512.262	27619.59
512.465	27687.17
512.667	28147.97
512.87	28559.61
513.072	28596.47
513.274	29235.44
513.477	29253.87
513.679	29272.3
513.881	29886.69
514.084	30204.13
514.286	29890.79
514.488	30271.71
514.69	31156.43
514.893	31224.01
515.095	31172.81
515.297	31426.76
515.499	31686.86
515.701	32350.4
515.904	32217.28
516.106	32725.18
516.308	32835.77
516.51	33497.26
516.712	33155.25
516.914	33708.2
517.116	34228.38
517.318	34502.81
517.52	34144.42
517.722	34531.48
517.925	34734.23
518.127	35508.36
518.329	35362.96
518.531	35422.35
518.733	36296.83
518.935	36438.14
519.136	36651.13
519.338	36518.01
519.54	37066.87
519.742	37419.12
519.944	37390.45
520.146	38027.37
520.348	37945.45
520.55	38281.31
520.752	38670.43
520.954	39112.79
521.155	38922.33
521.357	39477.33
521.559	39733.32
521.761	40001.61
521.963	40235.08
522.164	40511.55
522.366	40407.11
522.568	41111.61
522.77	40861.76
522.971	41971.75
523.173	41629.74
523.375	41760.81
523.576	41910.32
523.778	42033.19
523.98	42315.81
524.181	42631.2
524.383	42477.6
524.584	42846.24
524.786	43108.38
524.988	42909.72
525.189	43642.9
525.391	44060.68
525.592	43909.13
525.794	44011.53
525.995	44285.96
526.197	44552.19
526.398	44374.02
526.6	44537.86
526.801	45400.05
527.003	44695.55
527.204	44810.24
527.406	45537.27
527.607	45336.57
527.808	45719.54
528.01	44691.46
528.211	45408.25
528.412	46333.93
528.614	45869.04
528.815	45983.72
529.016	46528.48
529.218	45862.89
529.419	45987.82
529.62	45930.48
529.822	46082.03
530.023	46176.23
530.224	46434.28
530.425	46252.01
530.626	46209
530.828	46153.71
531.029	47220.7
531.23	46942.17
531.431	46518.24
531.632	46700.51
531.833	46878.69
532.035	47038.43
532.236	46667.75
532.437	47052.76
532.638	46569.44
532.839	47306.71
533.04	47384.54
533.241	46819.3
533.442	47751.12
533.643	47259.61
533.844	47519.7
534.045	47493.08
534.246	46585.83
534.447	47015.9
534.648	46723.04
534.849	47288.28
535.05	46659.55
535.251	47040.48
535.451	47325.14
535.652	47194.07
535.853	46735.33
536.054	47024.09
536.255	47177.69
536.456	46786.53
536.657	47257.56
536.857	46905.31
537.058	46788.58
537.259	47202.27
537.46	47112.16
537.66	46739.43
537.861	47058.91
538.062	46864.35
538.263	47302.62
538.463	46708.71
538.664	46897.12
538.865	47011.81
539.065	47224.79
539.266	46714.85
539.466	47169.5
539.667	46612.45
539.868	47271.9
540.068	46583.78
540.269	46852.06
540.469	47394.78
540.67	46847.97
540.87	46381.03
541.071	46661.6
541.271	46893.02
541.472	46669.79
541.672	46376.93
541.873	47054.81
542.073	46213.1
542.274	47056.86
542.474	46747.62
542.675	46200.81
542.875	47063
543.075	46612.45
543.276	45858.8
543.476	47099.87
543.676	46800.86
543.877	46911.45
544.077	46544.87
544.277	46661.6
544.478	46477.29
544.678	46696.42
544.878	46557.16
545.078	46612.45
545.279	45934.57
545.479	46819.3
545.679	46843.87
545.879	46749.67
546.079	46143.47
546.28	46421.99
546.48	46059.5
546.68	46864.35
546.88	46542.82
547.08	46213.1
547.28	46575.59
547.48	46018.54
547.68	46385.13
547.88	46194.67
548.081	46555.11
548.281	46268.39
548.481	46376.93
548.681	46657.51
548.881	46475.24
549.081	46133.23
549.28	46198.76
549.48	46209
549.68	45907.95
549.88	46528.48
550.08	46282.73
550.28	46438.37
550.48	46100.46
550.68	46634.98
550.88	45993.96
551.08	46254.06
551.279	46620.64
551.479	45793.26
551.679	46262.25
551.879	46163.95
552.079	46354.41
552.278	45965.29
552.478	46204.91
552.678	46331.88
552.878	46022.64
553.077	45932.53
553.277	45656.05
553.477	46712.8
553.676	46252.01
553.876	46012.4
554.076	45756.4
554.275	45858.8
554.475	45654
554.674	45922.29
554.874	45895.66
555.074	45875.18
555.273	45924.33
555.473	45838.32
555.672	45375.48
555.872	45488.12
556.071	45907.95
556.271	45854.7
556.47	45273.08
556.67	45455.35
556.869	44957.69
557.068	45852.65
557.268	45180.92
557.467	45524.98
557.667	45490.16
557.866	45799.41
558.065	45010.94
558.265	45166.59
558.464	45195.26
558.663	45580.28
558.863	45047.8
559.062	45496.31
559.261	44523.52
559.461	45242.36
559.66	44478.47
559.859	44607.49
560.058	44838.91
560.258	44732.42
560.457	44263.43
560.656	45053.95
560.855	44736.51
561.054	44888.06
561.253	44242.95
561.453	44554.24
561.652	44740.61
561.851	44838.91
562.05	44179.46
562.249	44109.83
562.448	44359.69
562.647	44400.65
562.846	44146.7
563.045	43956.24
563.244	43587.6
563.443	44128.27
563.642	43753.49
563.841	43649.04
564.04	43593.75
564.239	44226.57
564.438	43483.16
564.637	43589.65
564.836	43634.7
565.035	43204.63
565.234	43425.81
565.432	43165.72
565.631	43436.05
565.83	43040.79
566.029	43466.77
566.228	43046.94
566.427	43110.42
566.625	42965.02
566.824	42438.69
567.023	42870.81
567.222	42442.79
567.42	43040.79
567.619	42899.48
567.818	42272.81
568.016	42051.62
568.215	43024.41
568.414	42450.98
568.612	42913.82
568.811	42115.11
569.01	42174.5
569.208	41302.07
569.407	41676.85
569.605	41936.94
569.804	41895.98
570.002	41637.94
570.201	42121.26
570.4	41603.12
570.598	41228.34
570.797	41066.55
570.995	41721.9
571.193	40763.45
571.392	41848.88
571.59	41189.43
571.789	41019.45
571.987	41123.9
572.186	41025.59
572.384	40599.62
572.582	41044.02
572.781	40839.23
572.979	40360
573.177	40636.48
573.376	40699.97
573.574	39936.07
573.772	40323.14
573.971	40038.47
574.169	39903.31
574.367	39587.92
574.565	39972.94
574.763	39895.11
574.962	39852.11
575.16	39530.58
575.358	39630.93
575.556	39368.79
575.754	39704.65
575.952	39174.23
576.151	39811.15
576.349	38527.07
576.547	38824.03
576.745	39387.22
576.943	39276.63
577.141	38574.17
577.339	38957.14
577.537	38631.52
577.735	38600.8
577.933	38461.54
578.131	38367.33
578.329	38271.07
578.527	38246.5
578.725	38445.15
578.923	38234.21
579.121	37859.43
579.319	37517.42
579.516	38199.4
579.714	38144.1
579.912	37632.11
580.11	37875.82
580.308	37705.84
580.506	37484.65
580.704	37161.08
580.901	37353.58
581.099	37617.77
581.297	36892.79
581.495	37118.07
581.692	37048.44
581.89	36610.17
582.088	37021.81
582.285	36452.48
582.483	37382.26
582.681	36765.82
582.878	36366.46
583.076	35793.03
583.274	36634.75
583.471	35868.81
583.669	35833.99
583.866	35833.99
584.064	36081.8
584.262	35600.52
584.459	35709.07
584.657	35590.28
584.854	35960.97
585.052	35078.29
585.249	35776.65
585.447	35365.01
585.644	34902.17
585.841	35690.63
586.039	35365.01
586.236	34664.6
586.434	34826.39
586.631	34617.5
586.828	34826.39
587.026	34859.16
587.223	34478.24
587.42	34322.59
587.618	34390.17
587.815	33964.2
588.012	33853.61
588.21	34107.55
588.407	34242.72
588.604	34001.06
588.801	33538.22
588.999	33542.31
589.196	33552.55
589.393	33636.52
589.59	33585.32
589.787	33343.66
589.984	33251.5
590.182	33161.39
590.379	33482.92
590.576	32583.87
590.773	32876.72
590.97	32667.83
591.167	32757.94
591.364	32401.6
591.561	32739.51
591.758	32585.91
591.955	32442.56
592.152	32608.44
592.349	32184.51
592.546	32327.87
592.743	32450.75
592.94	31748.29
593.137	31973.57
593.334	32231.61
593.531	31477.96
593.727	31545.55
593.924	31637.7
594.121	31437
594.318	31934.66
594.515	31092.94
594.712	31729.86
594.908	31094.99
595.105	31027.41
595.302	30763.22
595.499	30828.76
595.696	30853.33
595.892	30365.92
596.089	30527.7
596.286	30519.51
596.482	30626.01
596.679	30333.15
596.876	30630.1
597.072	30345.44
597.269	30191.84
597.466	29878.5
597.662	29827.3
597.859	29905.12
598.055	29896.93
598.252	29853.92
598.448	29925.6
598.645	29384.94
598.841	29151.47
599.038	29270.25
599.234	29227.24
599.431	29147.37
599.627	28918
599.824	28995.82
600.02	29071.6
600.217	28956.91
600.413	28836.08
600.609	28743.92
600.806	28997.87
601.002	28848.37
601.198	28578.04
601.395	28399.87
601.591	28440.82
601.787	28113.15
601.984	28399.87
602.18	28117.25
602.376	27918.59
602.572	27857.15
602.769	27623.69
602.965	27646.21
603.161	27746.56
603.357	27693.32
603.553	27369.74
603.75	27625.73
603.946	27631.88
604.142	27486.47
604.338	26919.18
604.534	27214.09
604.73	26962.19
604.926	26796.31
605.122	26816.79
605.318	26882.32
605.514	26771.73
605.71	26552.6
605.906	26478.87
606.102	26528.02
606.298	26994.96
606.494	26689.81
606.69	26495.25
606.886	26585.37
607.082	25958.69
607.278	26372.38
607.474	25794.85
607.67	26091.8
607.866	26042.65
608.062	26155.29
608.257	25833.76
608.453	25823.52
608.649	25864.48
608.845	25635.11
609.041	25667.88
609.236	25596.2
609.432	25704.74
609.628	25420.07
609.824	25545
610.019	25663.78
610.215	25137.45
610.411	25815.33
610.606	25266.47
610.802	25635.11
610.998	25280.81
611.193	25276.71
611.389	25108.78
611.584	24975.66
611.78	24916.27
611.976	25252.14
612.171	25098.54
612.367	25176.36
612.562	24682.8
612.758	24570.16
612.953	24457.53
613.149	24709.43
613.344	24451.38
613.539	24916.27
613.735	24467.77
613.93	24734
614.126	24488.24
614.321	24391.99
614.517	24455.48
614.712	24514.87
614.907	24142.14
615.103	24504.63
615.298	23826.75
615.493	24281.4
615.688	23988.54
615.884	24602.93
616.079	23853.37
616.274	23923.01
616.47	24101.18
616.665	23968.06
616.86	23611.71
617.055	23939.39
617.25	23593.28
617.445	23781.7
617.641	23525.7
617.836	23685.44
618.031	23333.19
618.226	23773.5
618.421	23327.05
618.616	23390.53
618.811	23083.34
619.006	23251.27
619.201	22724.94
619.396	23054.67
619.591	22583.63
619.786	22962.51
619.981	22374.74
620.176	22626.64
620.371	22280.53
620.566	22579.54
620.761	22417.75
620.956	22403.41
621.151	21866.85
621.346	22305.11
621.541	21850.46
621.735	21971.29
621.93	21772.64
622.125	21717.34
622.32	21537.12
622.515	21963.1
622.709	21018.99
622.904	21109.1
623.099	20945.26
623.294	21340.52
623.488	20709.74
623.683	20904.3
623.878	20394.36
624.072	20537.71
624.267	20226.42
624.462	20347.25
624.656	20386.16
624.851	20334.96
625.046	19958.14
625.24	19970.43
625.435	19929.47
625.629	19698.05
625.824	19456.39
626.018	19646.85
626.213	19497.35
626.407	19460.48
626.602	19448.19
626.796	19028.36
626.991	19245.44
627.185	18956.68
627.38	18880.91
627.574	18727.31
627.768	18626.96
627.963	18428.31
628.157	18436.5
628.352	18522.51
628.546	18082.2
628.74	18332.05
628.935	18033.05
629.129	18125.21
629.323	17574.3
629.517	17901.98
629.712	17775
629.906	17830.3
630.1	17232.29
630.294	17590.69
630.489	17258.92
630.683	17652.13
630.877	17027.49
631.071	17088.93
631.265	17033.64
631.459	16802.22
631.653	16839.08
631.848	16777.64
632.042	16689.58
632.236	16601.52
632.43	16427.44
632.624	16161.2
632.818	16331.19
633.012	16294.32
633.206	16216.5
633.4	16159.16
633.594	15884.73
633.788	15798.71
633.982	15913.4
634.176	15792.57
634.369	15854.01
634.563	15450.56
634.757	15522.24
634.951	15518.14
635.145	15436.22
635.339	15395.26
635.533	15288.77
635.726	15198.66
635.92	14801.35
636.114	14907.85
636.308	14934.47
636.501	14715.34
636.695	14797.26
636.889	14688.71
637.083	14657.99
637.276	14614.99
637.47	14461.39
637.664	14502.35
637.857	14481.87
638.051	14256.59
638.244	14154.19
638.438	13900.25
638.632	13971.93
638.825	13806.04
639.019	13916.63
639.212	13844.95
639.406	13742.55
639.599	13722.07
639.793	13324.77
639.986	13564.38
640.18	13523.42
640.373	13316.58
640.567	13242.85
640.76	13117.92
640.954	13107.68
641.147	13072.87
641.34	13023.72
641.534	13097.44
641.727	12886.5
641.92	12814.82
642.114	12483.05
642.307	12677.61
642.5	12757.48
642.694	12468.72
642.887	12505.58
643.08	12734.95
643.273	12450.28
643.467	12491.24
643.66	12085.75
643.853	12055.03
644.046	12118.51
644.239	12077.55
644.432	12034.55
644.626	11799.03
644.819	11883
645.012	11803.13
645.205	12038.64
645.398	11850.23
645.591	11702.78
645.784	11469.31
645.977	11471.36
646.17	11500.03
646.363	11229.7
646.556	11317.76
646.749	11266.56
646.942	11340.29
647.135	11112.96
647.328	10992.13
647.521	11168.26
647.714	10996.23
647.907	11028.99
648.099	10836.49
648.292	10908.16
648.485	10871.3
648.678	10686.98
648.871	10611.21
649.064	10719.75
649.256	10568.2
649.449	10340.88
649.642	10574.35
649.835	10385.93
650.027	10469.9
650.22	10160.66
650.413	10174.99
650.605	10314.25
650.798	9990.67
650.991	10076.69
651.183	9972.24
651.376	9939.47
651.568	9941.52
651.761	9959.95
651.954	9828.88
652.146	9820.69
652.339	9718.29
652.531	9630.23
652.724	9454.11
652.916	9392.67
653.109	9312.8
653.301	9316.89
653.494	9413.15
653.686	9259.55
653.879	9441.82
654.071	9280.03
654.263	9151.01
654.456	9097.76
654.648	9032.22
654.84	9019.94
655.033	8968.74
655.225	8796.71
655.417	8847.91
655.61	8720.93
655.802	8907.3
655.994	8751.65
656.186	9071.14
656.379	8653.35
656.571	8669.73
656.763	8587.82
656.955	8466.99
657.148	8460.84
657.34	8526.38
657.532	8254
657.724	8282.67
657.916	8313.39
658.108	8251.95
658.3	8149.55
658.492	8131.12
658.684	8057.39
658.876	8008.24
659.068	8147.5
659.26	7807.54
659.452	7998
659.644	7987.76
659.836	7924.27
660.028	7975.47
660.22	7850.55
660.412	7846.45
660.604	7545.4
660.796	7637.56
660.988	7770.68
661.18	7619.13
661.372	7492.15
661.563	7481.91
661.755	7498.3
661.947	7449.14
662.139	7311.93
662.331	7318.07
662.522	7219.77
662.714	7416.38
662.906	7199.29
663.097	7150.14
663.289	7111.23
663.481	7180.86
663.673	7238.2
663.864	6994.5
664.056	6928.96
664.247	7025.22
664.439	6912.58
664.631	6881.86
664.822	6818.37
665.014	6953.54
665.205	6916.67
665.397	6564.42
665.588	6844.99
665.78	6656.58
665.971	6662.72
666.163	6613.57
666.354	6691.4
666.546	6548.04
666.737	6462.02
666.929	6525.51
667.12	6681.16
667.311	6531.65
667.503	6369.87
667.694	6568.52
667.885	6261.32
668.077	6365.77
668.268	6246.99
668.459	6111.82
668.651	6294.09
668.842	6232.65
669.033	6253.13
669.224	6197.84
669.416	6142.54
669.607	5990.99
669.798	5945.94
669.989	6179.4
670.18	5982.8
670.371	6007.38
670.563	5956.18
670.754	5982.8
670.945	5986.9
671.136	5876.31
671.327	5884.5
671.518	5767.76
671.709	5937.74
671.9	5761.62
672.091	5669.46
672.282	5679.7
672.473	5712.47
672.664	5728.85
672.855	5706.32
673.046	5626.45
673.237	5601.88
673.428	5732.95
673.619	5450.33
673.809	5507.67
674	5403.22
674.191	5558.87
674.382	5442.14
674.573	5438.04
674.764	5386.84
674.954	5411.42
675.145	5380.7
675.336	5302.87
675.527	5192.28
675.717	5376.6
675.908	5206.62
676.099	5245.53
676.289	5247.58
676.48	5266.01
676.671	5378.65
676.861	5173.85
677.052	5208.67
677.243	5165.66
677.433	5091.93
677.624	5100.12
677.814	4954.72
678.005	4973.15
678.195	5028.45
678.386	4907.62
678.576	5026.4
678.767	4907.62
678.957	5069.41
679.148	4913.76
679.338	4997.73
679.529	4897.38
679.719	4876.9
679.909	4821.6
680.1	4813.41
680.29	4864.61
680.481	4751.97
680.671	4856.42
680.861	4928.1
681.052	4835.94
681.242	4680.29
681.432	4878.94
681.622	4616.8
681.813	4825.7
682.003	4663.91
682.193	4680.29
682.383	4651.62
682.573	4885.09
682.764	4641.38
682.954	4581.99
683.144	4598.37
683.334	4534.89
683.524	4522.6
683.714	4561.51
683.904	4508.26
684.094	4459.11
684.284	4674.15
684.474	4553.32
684.664	4485.73
684.854	4487.78
685.044	4516.45
685.234	4303.47
685.424	4381.29
685.614	4350.57
685.804	4311.66
685.994	4211.31
686.184	4422.25
686.374	4389.48
686.564	4178.54
686.753	4299.37
686.943	4287.08
687.133	4235.88
687.323	4219.5
687.513	4280.94
687.702	4188.78
687.892	4102.76
688.082	4117.1
688.272	4104.81
688.461	4174.44
688.651	4147.82
688.841	4041.32
689.03	4086.38
689.22	4082.28
689.41	3906.16
689.599	3977.84
689.789	4127.34
689.979	3795.57
690.168	3926.64
690.358	3791.47
690.547	3934.83
690.737	3998.32
690.926	3971.69
691.116	3877.49
691.305	3945.07
691.495	3832.43
691.684	3723.89
691.874	3750.51
692.063	3893.87
692.252	3795.57
692.442	3764.85
692.631	3764.85
692.82	3689.07
693.01	3654.26
693.199	3633.78
693.388	3656.31
693.578	3670.64
693.767	3594.87
693.956	3666.55
694.146	3641.97
694.335	3588.72
694.524	3437.17
694.713	3486.33
694.902	3541.62
695.092	3560.05
695.281	3404.41
695.47	3529.33
695.659	3422.84
695.848	3476.09
696.037	3396.21
696.226	3369.59
696.415	3478.13
696.604	3603.06
696.793	3439.22
696.982	3471.99
697.171	3426.93
697.36	3476.09
697.549	3367.54
697.738	3392.12
697.927	3230.33
698.116	3345.02
698.305	3189.37
698.494	3377.78
698.683	3330.68
698.872	3279.48
699.061	3336.82
699.25	3181.18
699.438	3209.85
699.627	3256.95
699.816	3277.43
700.005	3160.7
700.193	3222.14
700.382	3256.95
700.571	3267.19
700.76	3172.99
700.948	3322.49
701.137	3109.5
701.326	3215.99
701.514	3070.59
701.703	3170.94
701.892	3177.08
702.08	3117.69
702.269	3175.03
702.457	3189.37
702.646	3058.3
702.834	3177.08
703.023	3191.42
703.212	3025.53
703.4	3160.7
703.589	3123.84
703.777	3074.68
703.965	2972.29
704.154	3119.74
704.342	2996.86
704.531	3170.94
704.719	3082.88
704.907	3041.92
705.096	3119.74
705.284	2974.33
705.472	3048.06
705.661	2968.19
705.849	3082.88
706.037	2960
706.226	3060.35
706.414	3123.84
706.602	3007.1
706.79	3068.54
706.979	2972.29
707.167	3003
707.355	2947.71
707.543	2884.22
707.731	2898.56
707.919	2884.22
708.107	2869.89
708.296	2939.52
708.484	2880.13
708.672	2957.95
708.86	2853.5
709.048	2845.31
709.236	2968.19
709.424	2941.57
709.612	2894.46
709.8	2882.17
709.988	2812.54
710.176	2843.26
710.364	2955.9
710.551	2869.89
710.739	2886.27
710.927	2904.7
711.115	2716.29
711.303	2828.93
711.491	2841.22
711.679	2747.01
711.866	2802.3
712.054	2886.27
712.242	2730.62
712.43	2914.94
712.617	2837.12
712.805	2833.02
712.993	2873.98
713.181	2712.19
713.368	2812.54
713.556	2673.28
713.744	2691.71
713.931	2851.46
714.119	2818.69
714.306	2751.1
714.494	2718.34
714.682	2591.36
714.869	2660.99
715.057	2626.18
715.244	2747.01
715.432	2724.48
715.619	2675.33
715.807	2763.39
715.994	2765.44
716.182	2751.1
716.369	2665.09
716.556	2697.86
716.744	2527.88
716.931	2673.28
717.119	2665.09
717.306	2652.8
717.493	2714.24
717.681	2640.51
717.868	2704
718.055	2611.84
718.242	2736.77
718.43	2624.13
718.617	2706.05
718.804	2667.14
718.991	2677.38
719.179	2667.14
719.366	2574.98
719.553	2617.99
719.74	2581.12
719.927	2558.6
720.114	2568.84
720.301	2525.83
720.488	2587.27
720.676	2486.92
720.863	2552.45
721.05	2591.36
721.237	2566.79
721.424	2525.83
721.611	2456.2
721.798	2419.33
721.985	2579.08
722.172	2544.26
722.358	2527.88
722.545	2542.21
722.732	2554.5
722.919	2511.49
723.106	2456.2
723.293	2509.44
723.48	2505.35
723.667	2478.72
723.853	2378.37
724.04	2583.17
724.227	2462.34
724.414	2566.79
724.6	2497.16
724.787	2407.05
724.974	2433.67
725.161	2415.24
725.347	2409.09
725.534	2505.35
725.72	2396.81
725.907	2462.34
726.094	2415.24
726.28	2423.43
726.467	2345.61
726.653	2378.37
726.84	2364.04
727.027	2484.87
727.213	2304.65
727.4	2456.2
727.586	2411.14
727.773	2353.8
727.959	2388.61
728.145	2280.07
728.332	2394.76
728.518	2407.05
728.705	2353.8
728.891	2527.88
729.077	2355.85
729.264	2380.42
729.45	2378.37
729.636	2341.51
729.823	2288.26
730.009	2398.85
730.195	2314.89
730.382	2321.03
730.568	2491.01
730.754	2392.71
730.94	2353.8
731.126	2370.18
731.313	2355.85
731.499	2312.84
731.685	2314.89
731.871	2304.65
732.057	2290.31
732.243	2384.52
732.429	2357.89
732.615	2300.55
732.801	2329.22
732.987	2212.49
733.173	2329.22
733.359	2239.11
733.545	2206.35
733.731	2341.51
733.917	2292.36
734.103	2288.26
734.289	2308.74
734.475	2159.24
734.661	2275.98
734.847	2255.5
735.033	2273.93
735.219	2194.06
735.404	2218.63
735.59	2210.44
735.776	2249.35
735.962	2224.78
736.148	2208.39
736.333	2142.86
736.519	2192.01
736.705	2181.77
736.89	2181.77
737.076	2247.3
737.262	2226.82
737.447	2149
737.633	2077.32
737.819	2185.87
738.004	2099.85
738.19	2159.24
738.375	2075.27
738.561	2149
738.747	2085.51
738.932	2108.04
739.118	2224.78
739.303	1993.36
739.489	2128.52
739.674	2050.7
739.859	2032.27
740.045	2067.08
740.23	2089.61
740.416	1960.59
740.601	2132.62
740.786	1968.78
740.972	2013.84
741.157	1952.4
741.342	2026.12
741.528	2007.69
741.713	2091.66
741.898	1929.87
742.084	1903.25
742.269	1995.4
742.454	1974.92
742.639	1974.92
742.824	1790.61
743.01	1964.68
743.195	1972.88
743.38	1991.31
743.565	1837.71
743.75	1976.97
743.935	1882.77
744.12	2026.12
744.305	1845.9
744.49	1811.09
744.675	1784.46
744.86	1903.25
745.045	1903.25
745.23	1921.68
745.415	1782.42
745.6	1825.42
745.785	1948.3
745.97	1790.61
746.155	1817.23
746.34	1735.31
746.525	1768.08
746.71	1870.48
746.895	1878.67
747.079	1698.45
747.264	1649.3
747.449	1696.4
747.634	1759.89
747.819	1671.83
748.003	1628.82
748.188	1663.63
748.373	1714.83
748.557	1706.64
748.742	1688.21
748.927	1571.47
749.111	1675.92
749.296	1604.24
749.481	1659.54
749.665	1651.35
749.85	1641.11
750.034	1645.2
750.219	1540.76
750.404	1567.38
750.588	1600.15
750.773	1551
750.957	1575.57
751.141	1571.47
751.326	1477.27
751.51	1366.68
751.695	1493.65
751.879	1510.04
752.064	1600.15
752.248	1530.52
752.432	1522.32
752.617	1499.8
752.801	1464.98
752.985	1415.83
753.17	1389.21
753.354	1370.77
753.538	1403.54
753.722	1411.73
753.907	1360.53
754.091	1282.71
754.275	1352.34
754.459	1374.87
754.643	1350.29
754.828	1411.73
755.012	1239.7
755.196	1268.38
755.38	1264.28
755.564	1305.24
755.748	1249.94
755.932	1381.01
756.116	1266.33
756.3	1208.98
756.484	1204.89
756.668	1243.8
756.852	1247.9
757.036	1249.94
757.22	1133.21
757.404	1165.98
757.588	1221.27
757.772	1260.18
757.956	1251.99
758.14	1231.51
758.323	1104.54
758.507	1141.4
758.691	1125.02
758.875	1143.45
759.059	1067.67
759.242	1112.73
759.426	1061.53
759.61	1100.44
759.794	1088.15
759.977	1118.87
760.161	1135.26
760.345	1041.05
760.528	1069.72
760.712	1110.68
760.895	1051.29
761.079	1045.15
761.263	975.52
761.446	1020.57
761.63	1028.76
761.813	1079.96
761.997	1010.33
762.18	1051.29
762.364	1002.14
762.547	1063.58
762.731	942.75
762.914	977.56
763.098	977.56
763.281	1047.19
763.464	955.04
763.648	971.42
763.831	991.9
764.015	912.03
764.198	952.99
764.381	955.04
764.564	887.45
764.748	946.84
764.931	996
765.114	871.07
765.297	946.84
765.481	930.46
765.664	887.45
765.847	912.03
766.03	1008.28
766.213	928.41
766.397	897.69
766.58	916.12
766.763	955.04
766.946	938.65
767.129	961.18
767.312	918.17
767.495	903.84
767.678	805.53
767.861	901.79
768.044	821.92
768.227	926.36
768.41	897.69
768.593	852.64
768.776	922.27
768.959	766.62
769.142	936.6
769.324	840.35
769.507	830.11
769.69	791.2
769.873	789.15
770.056	801.44
770.239	887.45
770.421	871.07
770.604	811.68
770.787	758.43
770.97	815.77
771.152	742.05
771.335	866.97
771.518	772.77
771.7	848.54
771.883	797.34
772.066	772.77
772.248	840.35
772.431	811.68
772.613	815.77
772.796	817.82
772.978	764.58
773.161	807.58
773.343	758.43
773.526	774.81
773.708	746.14
773.891	733.86
774.073	762.53
774.256	748.19
774.438	752.29
774.621	733.86
774.803	696.99
774.985	707.23
775.168	690.85
775.35	707.23
775.532	740
775.715	742.05
775.897	670.37
776.079	647.84
776.261	682.66
776.444	717.47
776.626	752.29
776.808	641.7
776.99	602.79
777.173	676.51
777.355	658.08
777.537	645.79
777.719	658.08
777.901	666.27
778.083	576.16
778.265	682.66
778.447	615.07
778.629	570.02
778.811	686.75
778.993	590.5
779.175	627.36
779.357	592.55
779.539	594.59
779.721	602.79
779.903	604.83
780.085	617.12
780.267	615.07
780.449	549.54
780.631	586.4
780.812	629.41
780.994	510.63
781.176	602.79
781.358	555.68
781.54	596.64
781.721	527.01
781.903	486.05
782.085	572.07
782.267	625.31
782.448	424.61
782.63	527.01
782.812	535.2
782.993	490.15
783.175	551.59
783.357	486.05
783.538	510.63
783.72	541.35
783.901	486.05
784.083	449.19
784.264	410.28
784.446	395.94
784.627	428.71
784.809	463.52
784.99	424.61
785.172	408.23
785.353	379.56
785.535	457.38
785.716	404.13
785.897	418.47
786.079	449.19
786.26	471.72
786.441	428.71
786.623	465.57
786.804	488.1
786.985	408.23
787.167	338.6
787.348	424.61
787.529	414.37
787.71	430.76
787.891	412.32
788.073	342.69
788.254	385.7
788.435	414.37
788.616	488.1
788.797	334.5
788.978	357.03
789.159	436.9
789.34	379.56
789.522	293.54
789.703	322.21
789.884	408.23
790.065	371.37
790.246	395.94
790.427	408.23
790.607	395.94
790.788	318.12
790.969	318.12
791.15	363.17
791.331	330.41
791.512	268.97
791.693	342.69
791.874	416.42
792.054	381.6
792.235	455.33
792.416	406.18
792.597	244.39
792.778	293.54
792.958	346.79
793.139	332.45
793.32	297.64
793.5	354.98
793.681	338.6
793.862	338.6
794.042	340.65
794.223	213.67
794.404	273.06
794.584	307.88
794.765	316.07
794.945	314.02
795.126	367.27
795.306	379.56
795.487	217.77
795.667	199.34
795.848	307.88
796.028	307.88
796.209	277.16
796.389	289.45
796.57	264.87
796.75	232.1
796.93	281.25
797.111	268.97
797.291	295.59
797.471	289.45
797.652	285.35
797.832	297.64
798.012	250.53
798.192	240.3
798.373	250.53
798.553	324.26
798.733	330.41
798.913	207.53
799.093	230.06
799.274	234.15
799.454	244.39
799.634	232.1
799.814	279.21
799.994	228.01
800.174	262.82
800.354	256.68
800.534	191.14
800.714	260.77
800.894	223.91
801.074	209.58
801.254	236.2
801.434	238.25
801.614	268.97
801.794	187.05
801.974	733.86
802.154	199.34
802.334	252.58
802.514	158.38
802.693	215.72
802.873	162.47
803.053	281.25
803.233	244.39
803.413	150.18
803.592	303.78
803.772	230.06
803.952	215.72
804.131	170.66
804.311	260.77
804.491	228.01
804.67	152.23
804.85	182.95
805.03	264.87
805.209	299.69
805.389	189.1
805.568	199.34
805.748	199.34
805.928	168.62
806.107	86.7
806.287	365.22
806.466	236.2
806.646	209.58
806.825	260.77
807.004	221.86
807.184	158.38
807.363	228.01
807.543	199.34
807.722	211.62
807.901	209.58
808.081	246.44
808.26	246.44
808.439	223.91
808.619	236.2
808.798	176.81
808.977	86.7
809.156	250.53
809.336	207.53
809.515	275.11
809.694	170.66
809.873	168.62
810.052	201.38
810.231	168.62
810.411	195.24
810.59	76.46
810.769	141.99
810.948	205.48
811.127	74.41
811.306	160.42
811.485	86.7
811.664	240.3
811.843	135.85
812.022	166.57
812.201	150.18
812.38	92.84
812.559	152.23
812.737	148.14
812.916	168.62
813.095	139.94
813.274	215.72
813.453	230.06
813.632	133.8
813.811	180.9
813.989	154.28
814.168	176.81
814.347	137.9
814.526	129.7
814.704	228.01
814.883	182.95
815.062	117.42
815.24	148.14
815.419	53.93
815.598	154.28
815.776	53.93
815.955	193.19
816.133	131.75
816.312	113.32
816.49	62.12
816.669	133.8
816.847	76.46
817.026	150.18
817.204	131.75
817.383	199.34
817.561	109.23
817.74	31.4
817.918	144.04
818.097	162.47
818.275	88.75
818.453	117.42
818.632	162.47
818.81	152.23
818.988	111.27
819.167	135.85
819.345	164.52
819.523	55.98
819.701	62.12
819.879	133.8
820.058	90.79
820.236	72.36
820.414	23.21
820.592	-1.37
820.77	62.12
820.948	182.95
821.127	117.42
821.305	113.32
821.483	74.41
821.661	111.27
821.839	84.65
822.017	86.7
822.195	76.46
822.373	182.95
822.551	60.07
822.729	137.9
822.907	43.69
823.085	90.79
823.262	113.32
823.44	125.61
823.618	92.84
823.796	74.41
823.974	101.03
824.152	127.66
824.329	129.7
824.507	80.55
824.685	92.84
824.863	43.69
825.04	117.42
825.218	146.09
825.396	119.46
825.574	162.47
825.751	78.51
825.929	53.93
826.107	84.65
826.284	98.99
826.462	72.36
826.639	133.8
826.817	33.45
826.994	131.75
827.172	146.09
827.349	178.86
827.527	82.6
827.704	103.08
827.882	76.46
828.059	103.08
828.237	103.08
828.414	78.51
828.591	43.69
828.769	123.56
828.946	78.51
829.124	109.23
829.301	94.89
829.478	80.55
829.655	60.07
829.833	166.57
830.01	84.65
830.187	101.03
830.364	47.79
830.542	119.46
830.719	101.03
830.896	76.46
831.073	105.13
831.25	55.98
831.427	86.7
831.604	88.75
831.782	53.93
831.959	60.07
832.136	123.56
832.313	82.6
832.49	129.7
832.667	10.92
832.844	35.5
833.021	62.12
833.198	86.7
833.374	74.41
833.551	92.84
833.728	25.26
833.905	101.03
834.082	15.02
834.259	105.13
834.436	37.55
834.612	8.87
834.789	92.84
834.966	47.79
835.143	141.99
835.319	2.73
835.496	107.18
835.673	29.35
835.85	51.88
836.026	60.07
836.203	141.99
836.38	70.31
836.556	123.56
836.733	31.4
836.909	127.66
837.086	86.7
837.262	-46.42
837.439	41.64
837.616	25.26
837.792	19.11
837.968	60.07
838.145	33.45
838.321	62.12
838.498	4.78
838.674	117.42
838.851	88.75
839.027	53.93
839.203	39.59
839.38	6.83
839.556	-21.84
839.732	70.31
839.909	68.27
840.085	60.07
840.261	117.42
840.437	76.46
840.614	96.94
840.79	62.12
840.966	84.65
841.142	92.84
841.318	58.03
841.494	76.46
841.671	80.55
841.847	19.11
842.023	62.12
842.199	144.04
842.375	62.12
842.551	10.92
842.727	10.92
842.903	92.84
843.079	86.7
843.255	98.99
843.431	31.4
843.607	92.84
843.783	-5.46
843.959	19.11
844.134	31.4
844.31	21.16
844.486	33.45
844.662	-23.89
844.838	109.23
845.013	29.35
845.189	12.97
845.365	64.17
845.541	98.99
845.716	84.65
845.892	103.08
846.068	33.45
846.244	2.73
846.419	53.93
846.595	-5.46
846.77	-17.75
846.946	176.81
847.122	-9.56
847.297	-11.61
847.473	23.21
847.648	12.97
847.824	68.27
847.999	31.4
848.175	51.88
848.35	39.59
848.526	105.13
848.701	31.4
848.876	84.65
849.052	25.26
849.227	101.03
849.403	-3.41
849.578	58.03
849.753	68.27
849.929	127.66
850.104	-1.37
850.279	64.17
850.454	62.12
850.63	119.46
850.805	51.88
850.98	76.46
851.155	82.6
851.33	10.92
851.505	-9.56
851.681	62.12
851.856	43.69
852.031	105.13
852.206	76.46
852.381	78.51
852.556	94.89
852.731	53.93
852.906	53.93
853.081	92.84
853.256	68.27
853.431	101.03
853.606	21.16
853.781	-7.51
853.956	-66.9
854.131	19.11
854.305	-27.99
854.48	-5.46
854.655	-13.65
854.83	43.69
855.005	47.79
855.18	47.79
855.354	39.59
855.529	6.83
855.704	2.73
855.879	23.21
856.053	25.26
856.228	-36.18
856.403	2.73
856.577	51.88
856.752	84.65
856.926	88.75
857.101	84.65
857.276	55.98
857.45	-30.04
857.625	96.94
857.799	76.46
857.974	29.35
858.148	-11.61
858.323	21.16
858.497	-66.9
858.672	23.21
858.846	-13.65
859.02	43.69
859.195	29.35
859.369	27.31
859.543	51.88
859.718	6.83
859.892	37.55
860.066	10.92
860.241	-5.46
860.415	45.74
860.589	-11.61
860.763	72.36
860.938	-21.84
861.112	66.22
861.286	-17.75
861.46	68.27
861.634	51.88
861.808	115.37
861.982	-30.04
862.157	49.83
862.331	37.55
862.505	37.55
862.679	0.68
862.853	53.93
863.027	-11.61
863.201	111.27
863.375	-1.37
863.549	92.84
863.722	-21.84
863.896	35.5
864.07	31.4
864.244	-13.65
864.418	47.79
864.592	23.21
864.766	41.64
864.939	-5.46
865.113	43.69
865.287	10.92
865.461	19.11
865.634	15.02
865.808	-1.37
865.982	47.79
866.156	12.97
866.329	6.83
866.503	68.27
866.676	58.03
866.85	41.64
867.024	0.68
867.197	17.07
867.371	23.21
867.544	-23.89
867.718	-62.8
867.891	-27.99
868.065	-1.37
868.238	19.11
868.412	76.46
868.585	31.4
868.759	-19.8
868.932	2.73
869.105	47.79
869.279	25.26
869.452	21.16
869.625	35.5
869.799	-30.04
869.972	29.35
870.145	-1.37
870.319	64.17
870.492	31.4
870.665	4.78
870.838	-27.99
871.011	-46.42
871.185	53.93
871.358	19.11
871.531	-5.46
871.704	4.78
871.877	19.11
872.05	37.55
872.223	-58.71
872.396	33.45
872.569	35.5
872.742	33.45
872.915	-30.04
873.088	-30.04
873.261	2.73
873.434	2.73
873.607	2.73
873.78	29.35
873.953	-36.18
874.126	-5.46
874.299	-5.46
874.471	55.98
874.644	31.4
874.817	51.88
874.99	-5.46
875.163	-1.37
875.335	-11.61
875.508	31.4
875.681	-44.37
875.853	6.83
876.026	51.88
876.199	15.02
876.371	37.55
876.544	-107.86
876.717	-34.13
876.889	0.68
877.062	37.55
877.234	-1.37
877.407	15.02
877.579	-21.84
877.752	19.11
877.924	25.26
878.097	8.87
878.269	-34.13
878.442	-13.65
878.614	76.46
878.786	-30.04
878.959	35.5
879.131	-54.61
879.303	-5.46
879.476	68.27
879.648	12.97
879.82	84.65
879.993	-27.99
880.165	66.22
880.337	8.87
880.509	31.4
880.681	-19.8
880.854	-46.42
881.026	29.35
881.198	101.03
881.37	4.78
881.542	-11.61
881.714	10.92
881.886	2.73
882.058	-7.51
882.23	8.87
882.402	45.74
882.574	51.88
882.746	45.74
882.918	27.31
883.09	45.74
883.262	-7.51
883.434	-1.37
883.606	-19.8
883.778	-38.23
883.95	76.46
884.122	64.17
884.293	39.59
884.465	68.27
884.637	23.21
884.809	-1.37
884.98	-7.51
885.152	49.83
885.324	43.69
885.496	6.83
885.667	37.55
885.839	45.74
886.011	113.32
886.182	8.87
886.354	17.07
886.525	47.79
886.697	64.17
886.869	35.5
887.04	-34.13
887.212	78.51
887.383	2.73
887.555	-5.46
887.726	29.35
887.897	-21.84
888.069	84.65
888.24	62.12
888.412	72.36
888.583	51.88
888.754	139.94
888.926	-5.46
889.097	-5.46
889.268	-5.46
889.44	-42.32
889.611	-46.42
889.782	-34.13
889.953	-132.44
890.125	62.12
890.296	-58.71
890.467	10.92
890.638	-52.56
890.809	-56.66
890.98	-1.37
891.151	8.87
891.323	41.64
891.494	12.97
891.665	-50.52
891.836	35.5
892.007	-40.28
892.178	4.78
892.349	19.11
892.52	-99.67
892.691	10.92
892.862	45.74
893.032	-34.13
893.203	58.03
893.374	43.69
893.545	10.92
893.716	2.73
893.887	12.97
894.057	-60.76
894.228	-34.13
894.399	-42.32
894.57	96.94
894.74	2.73
894.911	-11.61
895.082	35.5
895.253	-91.48
895.423	25.26
895.594	12.97
895.764	45.74
895.935	62.12
896.106	10.92
896.276	-7.51
896.447	-5.46
896.617	-54.61
896.788	21.16
896.958	21.16
897.129	-38.23
897.299	51.88
897.47	62.12
897.64	35.5
897.81	68.27
897.981	19.11
898.151	4.78
898.322	72.36
898.492	-9.56
898.662	23.21
898.832	-17.75
899.003	29.35
899.173	39.59
899.343	-11.61
899.513	-30.04
