Data from USB4F104151__69__14-17-19-534.txt Node

Date: Thu Mar 13 14:17:19 EDT 2025
User: louis
Spectrometer: USB4F10415
Trigger mode: 4
Integration Time (sec): 2.000000E-2
Scans to average: 1
Electric dark correction enabled: true
Nonlinearity correction enabled: false
Boxcar width: 0
XAxis mode: Wavelengths
Number of Pixels in Spectrum: 3648
>>>>>Begin Spectral Data<<<<<
178.204	-107.69
178.424	-107.69
178.644	-107.69
178.864	-87.21
179.084	-132.26
179.304	-25.77
179.524	-48.3
179.744	-11.43
179.964	39.76
180.184	-33.96
180.404	-9.39
180.624	84.82
180.844	64.34
181.064	-15.53
181.283	-33.96
181.503	-33.96
181.723	23.38
181.943	-1.19
182.163	33.62
182.383	52.05
182.602	82.77
182.822	45.91
183.042	50
183.262	31.57
183.482	99.16
183.701	47.96
183.921	39.76
184.141	35.67
184.361	93.01
184.58	-5.29
184.8	47.96
185.02	72.53
185.239	113.49
185.459	113.49
185.679	76.63
185.898	60.24
186.118	43.86
186.338	150.36
186.557	35.67
186.777	2.9
186.997	11.09
187.216	23.38
187.436	140.12
187.655	21.33
187.875	90.96
188.095	70.48
188.314	88.92
188.534	45.91
188.753	33.62
188.973	107.35
189.192	105.3
189.412	25.43
189.631	-9.39
189.851	19.29
190.07	43.86
190.29	7
190.509	27.48
190.729	54.1
190.948	80.72
191.168	121.68
191.387	125.78
191.607	50
191.826	119.64
192.045	47.96
192.265	68.44
192.484	-29.87
192.704	80.72
192.923	-19.63
193.142	56.15
193.362	123.73
193.581	121.68
193.8	41.81
194.02	56.15
194.239	-3.24
194.458	64.34
194.678	80.72
194.897	50
195.116	56.15
195.335	82.77
195.555	76.63
195.774	15.19
195.993	88.92
196.212	-23.72
196.432	43.86
196.651	86.87
196.87	11.09
197.089	113.49
197.308	15.19
197.528	76.63
197.747	54.1
197.966	80.72
198.185	50
198.404	35.67
198.623	127.83
198.842	84.82
199.062	29.52
199.281	121.68
199.5	27.48
199.719	76.63
199.938	119.64
200.157	13.14
200.376	101.2
200.595	125.78
200.814	58.2
201.033	-1.19
201.252	74.58
201.471	99.16
201.69	41.81
201.909	72.53
202.128	72.53
202.347	39.76
202.566	76.63
202.785	56.15
203.004	11.09
203.223	82.77
203.442	-11.43
203.661	64.34
203.879	-5.29
204.098	117.59
204.317	-21.67
204.536	97.11
204.755	117.59
204.974	25.43
205.193	58.2
205.411	121.68
205.63	41.81
205.849	0.85
206.068	-1.19
206.287	82.77
206.505	31.57
206.724	-56.49
206.943	72.53
207.162	101.2
207.381	7
207.599	47.96
207.818	68.44
208.037	95.06
208.255	52.05
208.474	123.73
208.693	93.01
208.911	0.85
209.13	37.72
209.349	88.92
209.567	47.96
209.786	72.53
210.005	109.4
210.223	101.2
210.442	52.05
210.661	39.76
210.879	109.4
211.098	27.48
211.316	136.02
211.535	31.57
211.753	19.29
211.972	39.76
212.191	23.38
212.409	-3.24
212.628	4.95
212.846	9.05
213.065	72.53
213.283	109.4
213.502	37.72
213.72	64.34
213.938	47.96
214.157	23.38
214.375	88.92
214.594	47.96
214.812	-23.72
215.031	111.44
215.249	101.2
215.467	17.24
215.686	-25.77
215.904	58.2
216.122	93.01
216.341	115.54
216.559	64.34
216.778	76.63
216.996	80.72
217.214	45.91
217.432	-1.19
217.651	11.09
217.869	50
218.087	129.88
218.306	58.2
218.524	97.11
218.742	66.39
218.96	78.68
219.179	125.78
219.397	56.15
219.615	144.21
219.833	97.11
220.051	-1.19
220.27	66.39
220.488	17.24
220.706	70.48
220.924	66.39
221.142	-9.39
221.36	47.96
221.578	35.67
221.796	103.25
222.015	37.72
222.233	76.63
222.451	64.34
222.669	97.11
222.887	74.58
223.105	68.44
223.323	105.3
223.541	58.2
223.759	121.68
223.977	27.48
224.195	41.81
224.413	23.38
224.631	119.64
224.849	70.48
225.067	88.92
225.285	78.68
225.503	-13.48
225.721	29.52
225.939	99.16
226.157	-33.96
226.375	138.07
226.592	-54.44
226.81	-5.29
227.028	56.15
227.246	74.58
227.464	47.96
227.682	68.44
227.9	41.81
228.117	37.72
228.335	97.11
228.553	43.86
228.771	64.34
228.989	129.88
229.206	27.48
229.424	25.43
229.642	23.38
229.86	95.06
230.077	101.2
230.295	47.96
230.513	35.67
230.731	131.92
230.948	72.53
231.166	146.26
231.384	-17.58
231.601	109.4
231.819	144.21
232.037	31.57
232.254	27.48
232.472	47.96
232.689	64.34
232.907	129.88
233.125	76.63
233.342	82.77
233.56	33.62
233.777	129.88
233.995	99.16
234.213	66.39
234.43	2.9
234.648	15.19
234.865	117.59
235.083	56.15
235.3	-36.01
235.518	90.96
235.735	82.77
235.953	64.34
236.17	19.29
236.388	33.62
236.605	29.52
236.822	158.55
237.04	-36.01
237.257	15.19
237.475	21.33
237.692	60.24
237.909	50
238.127	52.05
238.344	78.68
238.562	56.15
238.779	88.92
238.996	52.05
239.214	138.07
239.431	19.29
239.648	19.29
239.865	111.44
240.083	50
240.3	50
240.517	0.85
240.735	101.2
240.952	80.72
241.169	86.87
241.386	19.29
241.603	142.16
241.821	68.44
242.038	179.03
242.255	105.3
242.472	-58.54
242.689	154.45
242.907	88.92
243.124	95.06
243.341	101.2
243.558	60.24
243.775	27.48
243.992	27.48
244.209	0.85
244.426	109.4
244.643	68.44
244.86	74.58
245.078	88.92
245.295	78.68
245.512	80.72
245.729	0.85
245.946	47.96
246.163	64.34
246.38	60.24
246.597	56.15
246.814	72.53
247.031	80.72
247.248	88.92
247.464	99.16
247.681	-1.19
247.898	113.49
248.115	82.77
248.332	-1.19
248.549	121.68
248.766	39.76
248.983	82.77
249.2	47.96
249.417	105.3
249.633	80.72
249.85	74.58
250.067	72.53
250.284	123.73
250.501	90.96
250.717	125.78
250.934	84.82
251.151	82.77
251.368	101.2
251.585	60.24
251.801	-17.58
252.018	76.63
252.235	111.44
252.451	-9.39
252.668	33.62
252.885	41.81
253.102	78.68
253.318	95.06
253.535	-9.39
253.752	50
253.968	74.58
254.185	54.1
254.401	4.95
254.618	99.16
254.835	99.16
255.051	88.92
255.268	64.34
255.484	74.58
255.701	72.53
255.917	113.49
256.134	15.19
256.351	-9.39
256.567	25.43
256.784	72.53
257	58.2
257.217	129.88
257.433	99.16
257.65	86.87
257.866	64.34
258.082	64.34
258.299	43.86
258.515	66.39
258.732	80.72
258.948	-17.58
259.165	60.24
259.381	31.57
259.597	76.63
259.814	27.48
260.03	78.68
260.246	72.53
260.463	90.96
260.679	82.77
260.895	41.81
261.112	78.68
261.328	0.85
261.544	78.68
261.761	99.16
261.977	109.4
262.193	39.76
262.409	97.11
262.626	88.92
262.842	68.44
263.058	25.43
263.274	90.96
263.49	99.16
263.707	39.76
263.923	84.82
264.139	43.86
264.355	74.58
264.571	113.49
264.787	121.68
265.004	133.97
265.22	25.43
265.436	35.67
265.652	95.06
265.868	72.53
266.084	-1.19
266.3	50
266.516	17.24
266.732	146.26
266.948	62.29
267.164	15.19
267.38	45.91
267.596	80.72
267.812	64.34
268.028	80.72
268.244	70.48
268.46	47.96
268.676	62.29
268.892	131.92
269.108	43.86
269.324	33.62
269.54	39.76
269.756	68.44
269.972	84.82
270.188	105.3
270.403	2.9
270.619	105.3
270.835	17.24
271.051	74.58
271.267	72.53
271.483	15.19
271.698	105.3
271.914	90.96
272.13	66.39
272.346	37.72
272.562	88.92
272.777	86.87
272.993	99.16
273.209	50
273.425	-3.24
273.64	17.24
273.856	56.15
274.072	105.3
274.287	15.19
274.503	93.01
274.719	43.86
274.934	82.77
275.15	-17.58
275.366	58.2
275.581	39.76
275.797	54.1
276.012	-21.67
276.228	86.87
276.444	70.48
276.659	33.62
276.875	17.24
277.09	164.69
277.306	52.05
277.521	50
277.737	35.67
277.952	68.44
278.168	90.96
278.383	74.58
278.599	41.81
278.814	7
279.03	60.24
279.245	105.3
279.461	68.44
279.676	109.4
279.892	58.2
280.107	80.72
280.322	-44.2
280.538	88.92
280.753	62.29
280.969	129.88
281.184	95.06
281.399	74.58
281.615	56.15
281.83	93.01
282.045	7
282.26	99.16
282.476	164.69
282.691	56.15
282.906	82.77
283.122	78.68
283.337	31.57
283.552	43.86
283.767	90.96
283.983	82.77
284.198	7
284.413	2.9
284.628	23.38
284.843	99.16
285.058	41.81
285.274	52.05
285.489	2.9
285.704	123.73
285.919	27.48
286.134	56.15
286.349	56.15
286.564	72.53
286.779	148.31
286.995	47.96
287.21	23.38
287.425	23.38
287.64	39.76
287.855	95.06
288.07	76.63
288.285	158.55
288.5	-17.58
288.715	45.91
288.93	17.24
289.145	88.92
289.36	97.11
289.575	-9.39
289.79	111.44
290.004	121.68
290.219	82.77
290.434	105.3
290.649	58.2
290.864	78.68
291.079	76.63
291.294	64.34
291.509	138.07
291.724	88.92
291.938	2.9
292.153	41.81
292.368	97.11
292.583	39.76
292.798	33.62
293.012	113.49
293.227	88.92
293.442	60.24
293.657	74.58
293.871	84.82
294.086	117.59
294.301	160.59
294.516	76.63
294.73	78.68
294.945	19.29
295.16	56.15
295.374	93.01
295.589	23.38
295.804	19.29
296.018	131.92
296.233	80.72
296.447	138.07
296.662	60.24
296.877	56.15
297.091	82.77
297.306	99.16
297.52	76.63
297.735	66.39
297.949	64.34
298.164	93.01
298.378	47.96
298.593	99.16
298.807	54.1
299.022	64.34
299.236	88.92
299.451	31.57
299.665	-9.39
299.88	103.25
300.094	70.48
300.309	52.05
300.523	84.82
300.737	88.92
300.952	23.38
301.166	82.77
301.381	7
301.595	123.73
301.809	101.2
302.024	80.72
302.238	50
302.452	162.64
302.667	50
302.881	76.63
303.095	50
303.309	45.91
303.524	64.34
303.738	123.73
303.952	2.9
304.166	39.76
304.381	72.53
304.595	88.92
304.809	64.34
305.023	39.76
305.237	43.86
305.452	82.77
305.666	80.72
305.88	97.11
306.094	52.05
306.308	29.52
306.522	97.11
306.736	179.03
306.95	52.05
307.164	31.57
307.379	97.11
307.593	115.54
307.807	117.59
308.021	47.96
308.235	52.05
308.449	-1.19
308.663	62.29
308.877	107.35
309.091	19.29
309.305	0.85
309.519	47.96
309.733	148.31
309.947	23.38
310.161	90.96
310.374	88.92
310.588	76.63
310.802	72.53
311.016	64.34
311.23	129.88
311.444	43.86
311.658	101.2
311.872	88.92
312.085	74.58
312.299	78.68
312.513	105.3
312.727	31.57
312.941	27.48
313.154	66.39
313.368	60.24
313.582	47.96
313.796	35.67
314.009	125.78
314.223	80.72
314.437	54.1
314.651	72.53
314.864	64.34
315.078	68.44
315.292	29.52
315.505	56.15
315.719	72.53
315.933	72.53
316.146	80.72
316.36	70.48
316.573	72.53
316.787	140.12
317.001	80.72
317.214	95.06
317.428	41.81
317.641	93.01
317.855	129.88
318.068	37.72
318.282	72.53
318.495	56.15
318.709	123.73
318.922	39.76
319.136	109.4
319.349	109.4
319.563	76.63
319.776	80.72
319.99	50
320.203	80.72
320.417	47.96
320.63	47.96
320.843	138.07
321.057	66.39
321.27	64.34
321.483	66.39
321.697	101.2
321.91	23.38
322.124	56.15
322.337	86.87
322.55	72.53
322.763	113.49
322.977	39.76
323.19	17.24
323.403	66.39
323.617	80.72
323.83	4.95
324.043	0.85
324.256	43.86
324.469	31.57
324.683	113.49
324.896	90.96
325.109	50
325.322	25.43
325.535	115.54
325.748	35.67
325.962	93.01
326.175	64.34
326.388	93.01
326.601	39.76
326.814	66.39
327.027	23.38
327.24	107.35
327.453	-31.91
327.666	80.72
327.879	41.81
328.092	80.72
328.305	113.49
328.518	41.81
328.731	11.09
328.944	19.29
329.157	88.92
329.37	45.91
329.583	80.72
329.796	105.3
330.009	9.05
330.222	105.3
330.435	88.92
330.648	74.58
330.861	60.24
331.073	88.92
331.286	82.77
331.499	39.76
331.712	80.72
331.925	62.29
332.138	129.88
332.35	105.3
332.563	88.92
332.776	111.44
332.989	70.48
333.202	101.2
333.414	80.72
333.627	74.58
333.84	-1.19
334.053	74.58
334.265	60.24
334.478	90.96
334.691	43.86
334.903	117.59
335.116	115.54
335.329	146.26
335.541	60.24
335.754	195.41
335.966	101.2
336.179	170.83
336.392	56.15
336.604	15.19
336.817	27.48
337.029	23.38
337.242	68.44
337.454	88.92
337.667	78.68
337.88	68.44
338.092	66.39
338.305	88.92
338.517	74.58
338.729	60.24
338.942	142.16
339.154	68.44
339.367	66.39
339.579	140.12
339.792	117.59
340.004	72.53
340.217	15.19
340.429	2.9
340.641	121.68
340.854	88.92
341.066	54.1
341.278	35.67
341.491	150.36
341.703	60.24
341.915	-1.19
342.128	68.44
342.34	72.53
342.552	58.2
342.764	84.82
342.977	41.81
343.189	50
343.401	101.2
343.613	152.4
343.826	58.2
344.038	80.72
344.25	41.81
344.462	4.95
344.674	93.01
344.886	115.54
345.099	68.44
345.311	99.16
345.523	68.44
345.735	-25.77
345.947	146.26
346.159	101.2
346.371	76.63
346.583	11.09
346.795	166.74
347.007	140.12
347.219	99.16
347.431	39.76
347.643	29.52
347.855	-13.48
348.067	93.01
348.279	43.86
348.491	125.78
348.703	31.57
348.915	15.19
349.127	17.24
349.339	148.31
349.551	52.05
349.763	115.54
349.975	93.01
350.187	86.87
350.399	133.97
350.61	68.44
350.822	56.15
351.034	64.34
351.246	129.88
351.458	80.72
351.669	80.72
351.881	80.72
352.093	70.48
352.305	43.86
352.517	136.02
352.728	82.77
352.94	23.38
353.152	90.96
353.363	33.62
353.575	62.29
353.787	64.34
353.999	140.12
354.21	88.92
354.422	80.72
354.633	19.29
354.845	50
355.057	105.3
355.268	-13.48
355.48	56.15
355.692	-21.67
355.903	45.91
356.115	105.3
356.326	109.4
356.538	119.64
356.749	82.77
356.961	86.87
357.172	127.83
357.384	74.58
357.595	133.97
357.807	52.05
358.018	72.53
358.23	23.38
358.441	179.03
358.653	111.44
358.864	50
359.075	15.19
359.287	62.29
359.498	131.92
359.709	17.24
359.921	84.82
360.132	123.73
360.344	142.16
360.555	72.53
360.766	82.77
360.977	52.05
361.189	105.3
361.4	64.34
361.611	131.92
361.823	146.26
362.034	136.02
362.245	56.15
362.456	133.97
362.667	103.25
362.879	74.58
363.09	119.64
363.301	66.39
363.512	105.3
363.723	197.46
363.935	101.2
364.146	105.3
364.357	78.68
364.568	68.44
364.779	41.81
364.99	129.88
365.201	88.92
365.412	76.63
365.623	97.11
365.834	39.76
366.045	101.2
366.256	113.49
366.467	105.3
366.678	88.92
366.889	88.92
367.1	107.35
367.311	76.63
367.522	113.49
367.733	101.2
367.944	103.25
368.155	76.63
368.366	146.26
368.577	103.25
368.788	101.2
368.999	27.48
369.209	56.15
369.42	133.97
369.631	119.64
369.842	78.68
370.053	50
370.264	64.34
370.474	47.96
370.685	64.34
370.896	45.91
371.107	76.63
371.317	101.2
371.528	60.24
371.739	39.76
371.95	105.3
372.16	131.92
372.371	56.15
372.582	72.53
372.792	105.3
373.003	80.72
373.214	70.48
373.424	133.97
373.635	74.58
373.846	105.3
374.056	93.01
374.267	56.15
374.477	47.96
374.688	52.05
374.898	62.29
375.109	117.59
375.319	90.96
375.53	107.35
375.74	11.09
375.951	93.01
376.161	82.77
376.372	58.2
376.582	52.05
376.793	82.77
377.003	56.15
377.214	107.35
377.424	64.34
377.635	86.87
377.845	58.2
378.055	131.92
378.266	47.96
378.476	97.11
378.686	45.91
378.897	82.77
379.107	64.34
379.317	105.3
379.528	25.43
379.738	115.54
379.948	76.63
380.158	56.15
380.369	25.43
380.579	117.59
380.789	138.07
380.999	113.49
381.21	43.86
381.42	99.16
381.63	27.48
381.84	148.31
382.05	39.76
382.261	97.11
382.471	146.26
382.681	25.43
382.891	97.11
383.101	82.77
383.311	93.01
383.521	64.34
383.731	76.63
383.941	27.48
384.151	56.15
384.361	131.92
384.571	164.69
384.781	88.92
384.991	205.65
385.201	109.4
385.411	52.05
385.621	88.92
385.831	164.69
386.041	99.16
386.251	125.78
386.461	99.16
386.671	72.53
386.881	115.54
387.091	66.39
387.301	39.76
387.511	88.92
387.72	113.49
387.93	72.53
388.14	66.39
388.35	80.72
388.56	121.68
388.769	47.96
388.979	66.39
389.189	41.81
389.399	146.26
389.609	101.2
389.818	97.11
390.028	84.82
390.238	113.49
390.447	115.54
390.657	88.92
390.867	95.06
391.076	115.54
391.286	66.39
391.496	109.4
391.705	82.77
391.915	74.58
392.125	121.68
392.334	127.83
392.544	88.92
392.753	125.78
392.963	72.53
393.172	156.5
393.382	9.05
393.591	125.78
393.801	105.3
394.01	187.22
394.22	121.68
394.429	119.64
394.639	129.88
394.848	113.49
395.058	88.92
395.267	146.26
395.477	90.96
395.686	146.26
395.895	121.68
396.105	170.83
396.314	172.88
396.524	174.93
396.733	72.53
396.942	154.45
397.152	72.53
397.361	121.68
397.57	179.03
397.78	142.16
397.989	154.45
398.198	97.11
398.407	146.26
398.617	113.49
398.826	105.3
399.035	187.22
399.244	197.46
399.453	129.88
399.663	142.16
399.872	129.88
400.081	109.4
400.29	123.73
400.499	123.73
400.708	170.83
400.917	88.92
401.127	170.83
401.336	164.69
401.545	111.44
401.754	150.36
401.963	187.22
402.172	121.68
402.381	140.12
402.59	105.3
402.799	146.26
403.008	97.11
403.217	174.93
403.426	111.44
403.635	109.4
403.844	162.64
404.053	131.92
404.262	140.12
404.471	248.66
404.68	195.41
404.888	152.4
405.097	222.03
405.306	160.59
405.515	222.03
405.724	131.92
405.933	308.05
406.142	230.23
406.35	273.23
406.559	203.6
406.768	170.83
406.977	228.18
407.185	197.46
407.394	246.61
407.603	252.75
407.812	232.27
408.02	224.08
408.229	219.99
408.438	250.71
408.646	238.42
408.855	269.14
409.064	330.58
409.272	271.19
409.481	324.43
409.69	326.48
409.898	346.96
410.107	447.31
410.315	367.44
410.524	449.36
410.733	340.82
410.941	355.15
411.15	379.73
411.358	482.13
411.567	416.59
411.775	510.8
411.984	400.21
412.192	564.04
412.401	518.99
412.609	572.24
412.818	582.48
413.026	488.27
413.234	564.04
413.443	482.13
413.651	574.28
413.86	580.43
414.068	639.82
414.276	641.87
414.485	670.54
414.693	691.02
414.901	742.22
415.11	817.99
415.318	756.55
415.526	861
415.734	748.36
415.943	779.08
416.151	971.59
416.359	846.66
416.567	899.91
416.776	957.25
416.984	1014.6
417.192	975.69
417.4	914.25
417.608	944.97
417.817	1100.61
418.025	1110.85
418.233	1264.45
418.441	1180.48
418.649	1268.55
418.857	1383.23
419.065	1309.51
419.273	1399.62
419.481	1456.96
419.689	1411.9
419.897	1569.6
420.105	1506.11
420.313	1553.21
420.521	1690.43
420.729	1696.57
420.937	1743.67
421.145	1706.81
421.353	1882.94
421.561	1919.8
421.769	1960.76
421.977	2161.46
422.185	2093.88
422.393	2286.39
422.601	2272.05
422.809	2452.27
423.017	2321.2
423.224	2437.94
423.432	2523.95
423.64	2507.57
423.848	2738.99
424.056	2626.35
424.263	2820.91
424.471	3046.18
424.679	2923.3
424.887	3031.85
425.094	3238.69
425.302	3218.21
425.51	3326.75
425.718	3425.06
425.925	3463.97
426.133	3506.98
426.341	3824.41
426.548	3941.15
426.756	3918.62
426.964	4039.45
427.171	4281.11
427.379	4311.83
427.586	4426.51
427.794	4487.95
428.001	4725.52
428.209	5073.67
428.417	4815.63
428.624	5262.09
428.832	5237.51
429.039	5276.42
429.247	5153.54
429.454	5649.15
429.662	6028.03
429.869	5665.53
430.076	6042.36
430.284	5942.01
430.491	6253.3
430.699	6580.98
430.906	6468.34
431.114	6449.91
431.321	6822.64
431.528	6918.89
431.736	7367.4
431.943	7854.81
432.15	7668.45
432.358	7613.15
432.565	8047.32
432.772	8004.32
432.979	8549.07
433.187	8516.31
433.394	8665.81
433.601	9208.52
433.808	9181.9
434.016	9308.87
434.223	9603.78
434.43	10064.57
434.637	10123.96
434.844	10445.49
435.052	10746.55
435.259	10732.21
435.466	10773.17
435.673	10601.14
435.88	11492.01
436.087	11950.75
436.294	11999.9
436.501	11817.63
436.708	11811.49
436.915	12339.87
437.122	12831.38
437.329	12712.6
437.537	13193.87
437.743	13296.27
437.95	13261.45
438.157	14160.51
438.364	14574.2
438.571	14377.59
438.778	14527.1
438.985	15759.97
439.192	15334
439.399	15659.62
439.606	15084.14
439.813	16237.15
440.02	17228.37
440.227	16820.82
440.433	16759.38
440.64	17207.89
440.847	17056.34
441.054	17457.74
441.261	18653.75
441.467	18539.07
441.674	19169.84
441.881	19421.74
442.088	19503.66
442.294	19135.03
442.501	19683.88
442.708	20140.58
442.914	20867.61
443.121	21910.02
443.328	21367.31
443.534	22708.73
443.741	22383.1
443.948	22047.24
444.154	23316.98
444.361	23308.79
444.568	23208.44
444.774	23480.82
444.981	23456.24
445.187	24304.1
445.394	25479.63
445.6	25168.34
445.807	27666.86
446.013	26352.07
446.22	26597.82
446.426	27361.72
446.633	28381.6
446.839	28897.69
447.046	27822.51
447.252	29346.2
447.459	29385.11
447.665	29235.61
447.871	30171.53
448.078	31916.4
448.284	30347.65
448.491	31205.75
448.697	32483.69
448.903	32876.9
449.11	33081.69
449.316	32223.59
449.522	33003.87
449.728	33958.22
449.935	33972.56
450.141	33995.09
450.347	34771.27
450.553	33806.67
450.76	34275.66
450.966	35555.64
451.172	34697.54
451.378	35911.99
451.584	35096.89
451.791	36088.11
451.997	35817.78
452.203	36268.33
452.409	36727.08
452.615	36440.36
452.821	35297.59
453.027	34564.42
453.233	36598.05
453.44	35262.78
453.646	35481.91
453.852	35428.66
454.058	36254
454.264	35004.74
454.47	35723.57
454.676	35152.19
454.882	36297
455.088	33169.76
455.294	33417.56
455.5	33931.6
455.705	34400.58
455.911	33216.86
456.117	32446.82
456.323	31783.28
456.529	30349.7
456.735	31801.71
456.941	30767.49
457.147	30433.67
457.352	29694.35
457.558	29297.05
457.764	29489.56
457.97	28617.12
458.176	27933.1
458.381	27947.43
458.587	26814.91
458.793	26618.3
458.999	25360.85
459.204	27427.25
459.41	26339.78
459.616	24623.58
459.821	24498.66
460.027	24594.91
460.233	24322.53
460.438	23259.63
460.644	23417.33
460.85	22082.05
461.055	21725.71
461.261	21967.37
461.466	20060.71
461.672	19606.06
461.878	21086.74
462.083	19513.9
462.289	19169.84
462.494	19159.6
462.7	18090.56
462.905	17828.42
463.111	18393.66
463.316	18332.22
463.522	17918.53
463.727	18002.5
463.932	18233.92
464.138	17957.44
464.343	17848.9
464.549	17359.44
464.754	17918.53
464.959	18170.43
465.165	17435.21
465.37	17025.62
465.575	16450.14
465.781	17091.15
465.986	17386.06
466.191	16822.87
466.397	16218.72
466.602	15346.28
466.807	16130.66
467.012	16157.28
467.218	16073.31
467.423	15727.21
467.628	15866.47
467.833	16501.34
468.038	15987.3
468.244	15297.13
468.449	16198.24
468.654	15473.26
468.859	15368.81
469.064	15473.26
469.269	14932.59
469.474	14998.13
469.679	15217.26
469.885	14803.57
470.09	14852.72
470.295	14998.13
470.5	14492.28
470.705	14709.36
470.91	14201.47
471.115	14252.67
471.32	14443.13
471.525	14133.89
471.73	14037.63
471.935	13822.59
472.139	13154.96
472.344	13621.89
472.549	13408.9
472.754	13453.96
472.959	13240.97
473.164	12645.01
473.369	12579.48
473.574	13005.45
473.778	12819.09
473.983	12849.81
474.188	12835.47
474.393	12151.45
474.598	12286.62
474.802	12241.56
475.007	12008.09
475.212	12094.11
475.417	11752.1
475.621	11729.57
475.826	11733.67
476.031	11584.16
476.235	11541.16
476.44	11436.71
476.645	11195.05
476.849	11205.29
477.054	10947.25
477.259	10863.28
477.463	11023.02
477.668	10711.73
477.872	10681.01
478.077	10803.89
478.282	10162.87
478.486	10349.24
478.691	10164.92
478.895	10160.83
479.1	10367.67
479.304	10134.2
479.509	9921.21
479.713	9892.54
479.918	9796.29
480.122	9714.37
480.326	9884.35
480.531	9810.62
480.735	9652.93
480.94	9728.7
481.144	10070.72
481.348	9505.48
481.553	9847.49
481.757	9382.6
481.961	9501.38
482.166	9564.87
482.37	9568.96
482.574	9499.33
482.778	9542.34
482.983	9632.45
483.187	9562.82
483.391	9528
483.595	9257.67
483.8	9319.11
484.004	9464.52
484.208	9550.53
484.412	9470.66
484.616	9564.87
484.821	9456.33
485.025	9255.62
485.229	9362.12
485.433	9403.08
485.637	9429.7
485.841	9261.77
486.045	9212.62
486.249	9296.58
486.453	9046.73
486.657	9419.46
486.861	9489.09
487.065	9224.9
487.269	9398.98
487.473	9075.4
487.677	9593.54
487.881	9476.8
488.085	9398.98
488.289	9468.61
488.493	9380.55
488.697	9513.67
488.901	9394.89
489.105	9405.13
489.309	9427.65
489.512	9464.52
489.716	9368.26
489.92	9571.01
490.124	9439.94
490.328	9659.07
490.531	9757.38
490.735	9855.68
490.939	9714.37
491.143	9695.94
491.346	9620.16
491.55	9818.82
491.754	9859.77
491.958	9863.87
492.161	10044.09
492.365	9702.08
492.569	9943.74
492.772	9980.61
492.976	10169.02
493.18	10119.87
493.383	10222.27
493.587	10320.57
493.79	10197.69
493.994	10201.79
494.197	10601.14
494.401	10447.54
494.605	10547.89
494.808	10568.37
495.012	10554.04
495.215	10701.49
495.419	10875.57
495.622	10582.71
495.825	10842.8
496.029	11057.84
496.232	11223.72
496.436	11049.64
496.639	11377.32
496.843	11305.64
497.046	11520.68
497.249	11557.54
497.453	11590.31
497.656	12016.29
497.859	11846.3
498.063	11895.46
498.266	12321.43
498.469	12153.5
498.673	12581.53
498.876	12593.81
499.079	12671.64
499.282	12692.12
499.485	13048.46
499.689	12935.82
499.892	13240.97
500.095	13312.65
500.298	13681.28
500.501	13427.34
500.705	13800.07
500.908	13714.05
501.111	14301.82
501.314	14230.14
501.517	14508.66
501.72	14498.42
501.923	14453.37
502.126	14672.5
502.329	15024.75
502.532	15170.16
502.735	15352.43
502.938	15364.71
503.141	15534.7
503.344	15700.58
503.547	15794.79
503.75	16112.22
503.953	16265.82
504.156	16491.1
504.359	16691.8
504.562	16652.89
504.765	17085.01
504.968	17347.15
505.17	17363.53
505.373	17271.37
505.576	17656.39
505.779	18063.94
505.982	17889.86
506.185	18108.99
506.387	18479.68
506.59	18373.18
506.793	18987.57
506.996	18559.55
507.198	19687.98
507.401	19235.38
507.604	19659.31
507.807	20019.75
508.009	20056.61
508.212	19866.15
508.415	20181.54
508.617	20560.41
508.82	20666.91
509.022	20902.42
509.225	21326.35
509.428	21160.47
509.63	21600.78
509.833	21699.08
510.035	22176.26
510.238	22020.61
510.44	22241.79
510.643	22696.44
510.845	22811.13
511.048	22467.07
511.25	23331.31
511.453	23380.46
511.655	24420.83
511.858	24312.29
512.06	24095.21
512.262	24453.6
512.465	24742.36
512.667	24883.67
512.87	24887.77
513.072	24895.96
513.274	25481.68
513.477	25778.64
513.679	26087.88
513.881	26065.35
514.084	26266.05
514.286	26556.86
514.488	26718.65
514.69	27707.82
514.893	27414.96
515.095	27785.65
515.297	28305.83
515.499	28150.18
515.701	28365.22
515.904	28785.05
516.106	29030.81
516.308	28852.64
516.51	29589.91
516.712	29653.39
516.914	30138.76
517.116	30038.41
517.318	29954.44
517.52	30448
517.722	30605.7
517.925	31390.07
518.127	31332.73
518.329	31545.72
518.531	31467.89
518.733	32455.01
518.935	32616.8
519.136	32272.74
519.338	32950.62
519.54	33251.67
519.742	33577.3
519.944	33327.45
520.146	33945.94
520.348	34785.6
520.55	34191.69
520.752	34656.58
520.954	34931.01
521.155	34660.68
521.357	35488.06
521.559	35709.24
521.761	36274.48
521.963	35848.5
522.164	36163.89
522.366	36352.3
522.568	36849.96
522.77	36634.92
522.971	37781.78
523.173	37261.6
523.375	37527.83
523.576	37716.25
523.778	37691.67
523.98	38439.18
524.181	37849.36
524.383	38609.16
524.584	39264.51
524.786	39106.82
524.988	38816.01
525.189	39393.53
525.391	39887.09
525.592	39475.45
525.794	39719.16
525.995	39829.75
526.197	39954.68
526.398	40136.94
526.6	40644.84
526.801	40593.64
527.003	40931.56
527.204	40771.82
527.406	41234.66
527.607	41332.96
527.808	41427.17
528.01	40730.86
528.211	41502.94
528.412	41877.72
528.614	41865.43
528.815	42008.79
529.016	42254.54
529.218	41783.51
529.419	42010.84
529.62	41832.66
529.822	41822.42
530.023	42684.62
530.224	42281.17
530.425	42152.15
530.626	42442.96
530.828	42098.9
531.029	43249.86
531.23	42698.95
531.431	42692.81
531.632	42780.87
531.833	43172.03
532.035	43143.36
532.236	42793.16
532.437	43073.73
532.638	42782.92
532.839	43233.47
533.04	43362.5
533.241	42739.91
533.442	43710.65
533.643	43247.81
533.844	43184.32
534.045	43268.29
534.246	43241.67
534.447	43624.64
534.648	43270.34
534.849	43333.82
535.05	42782.92
535.251	43198.66
535.451	43067.59
535.652	43526.33
535.853	43147.46
536.054	43376.83
536.255	43710.65
536.456	43438.27
536.657	44001.46
536.857	43008.2
537.058	43026.63
537.259	43473.09
537.46	43479.23
537.66	43552.96
537.861	43395.26
538.062	43495.61
538.263	43237.57
538.463	43628.73
538.664	43305.15
538.865	43622.59
539.065	44036.28
539.266	43198.66
539.466	43702.46
539.667	43096.26
539.868	43540.67
540.068	43561.15
540.269	43454.65
540.469	43512
540.67	42971.33
540.87	43104.45
541.071	43411.65
541.271	43237.57
541.472	43405.5
541.672	43124.93
541.873	43372.74
542.073	42727.63
542.274	43598.01
542.474	43200.71
542.675	42719.43
542.875	43372.74
543.075	43192.51
543.276	42815.69
543.476	43296.96
543.676	43043.01
543.877	43303.1
544.077	43649.21
544.277	43274.43
544.478	43190.47
544.678	43262.15
544.878	43112.64
545.078	43079.88
545.279	42735.82
545.479	42959.05
545.679	43131.08
545.879	43395.26
546.079	42971.33
546.28	43024.58
546.48	42807.5
546.68	43278.53
546.88	43256
547.08	43110.6
547.28	42957
547.48	42854.6
547.68	42868.94
547.88	42485.97
548.081	43198.66
548.281	42938.57
548.481	42807.5
548.681	42799.3
548.881	42619.08
549.081	43030.72
549.28	42600.65
549.48	43509.95
549.68	42725.58
549.88	43612.35
550.08	42629.32
550.28	43317.44
550.48	42653.9
550.68	43100.36
550.88	42352.85
551.08	42770.63
551.279	43217.09
551.479	42395.85
551.679	42754.25
551.879	42733.77
552.079	42934.47
552.278	42563.79
552.478	42350.8
552.678	42774.73
552.878	42739.91
553.077	42125.52
553.277	42053.84
553.477	43053.25
553.676	42303.7
553.876	42807.5
554.076	42219.73
554.275	42268.88
554.475	41943.25
554.674	42741.96
554.874	42438.86
555.074	42064.08
555.273	42457.29
555.473	42193.11
555.672	41937.11
555.872	42457.29
556.071	42629.32
556.271	42367.18
556.47	41953.49
556.67	41423.07
556.869	41935.06
557.068	42526.92
557.268	41885.91
557.467	41879.77
557.667	41711.83
557.866	41971.92
558.065	41910.49
558.265	41631.96
558.464	41570.52
558.663	41773.27
558.863	41783.51
559.062	42045.65
559.261	41242.85
559.461	41795.8
559.66	41185.5
559.859	41296.1
560.058	41195.74
560.258	41515.23
560.457	41248.99
560.656	41527.52
560.855	40888.55
561.054	41398.49
561.253	41152.74
561.453	40767.72
561.652	40812.77
561.851	41326.81
562.05	40993
562.249	40673.51
562.448	40956.13
562.647	41228.51
562.846	40677.61
563.045	40845.54
563.244	40577.26
563.443	40564.97
563.642	40229.1
563.841	40347.89
564.04	40239.34
564.239	40700.14
564.438	40014.07
564.637	40077.55
564.836	40057.07
565.035	39942.39
565.234	39964.92
565.432	39723.26
565.631	39686.39
565.83	40030.45
566.029	39510.27
566.228	39411.96
566.427	39534.84
566.625	39385.34
566.824	38865.16
567.023	39190.78
567.222	38533.39
567.42	39178.5
567.619	38877.44
567.818	39108.86
568.016	38953.22
568.215	39395.58
568.414	38590.73
568.612	38971.65
568.811	38625.54
569.01	38545.67
569.208	37966.1
569.407	38580.49
569.605	38060.3
569.804	38459.66
570.002	38138.13
570.201	38512.91
570.4	37794.07
570.598	38088.98
570.797	37581.08
570.995	37511.45
571.193	37529.88
571.392	37474.59
571.59	37484.83
571.789	37746.97
571.987	37523.74
572.186	37259.55
572.384	37450.01
572.582	37626.14
572.781	37243.17
572.979	36811.04
573.177	37144.86
573.376	36876.58
573.574	36526.38
573.772	36739.36
573.971	36585.77
574.169	36487.46
574.367	36311.34
574.565	36596.01
574.763	36321.58
574.962	36167.98
575.16	35486.01
575.358	36182.32
575.556	35799.35
575.754	36155.69
575.952	35567.93
576.151	35862.83
576.349	35371.32
576.547	35443
576.745	35443
576.943	35279.16
577.141	35260.73
577.339	35359.03
577.537	35184.96
577.735	35100.99
577.933	34599.24
578.131	35187
578.329	34695.49
578.527	34693.44
578.725	34384.2
578.923	34574.66
579.121	34085.2
579.319	34212.17
579.516	34519.37
579.714	33974.61
579.912	34267.47
580.11	34152.78
580.308	34066.77
580.506	34085.2
580.704	33370.46
580.901	33843.54
581.099	34277.71
581.297	33411.42
581.495	33823.06
581.692	33339.74
581.89	32891.23
582.088	33511.77
582.285	33362.26
582.483	33659.22
582.681	33030.49
582.878	32919.9
583.076	32579.94
583.274	32823.65
583.471	32622.95
583.669	32625
583.866	32414.05
584.064	32934.24
584.262	32070
584.459	32729.44
584.657	32055.66
584.854	32584.04
585.052	31832.43
585.249	32031.08
585.447	32053.61
585.644	31897.97
585.841	31844.72
586.039	32037.23
586.236	31351.16
586.434	31443.32
586.631	31103.35
586.828	31494.52
587.026	31183.23
587.223	31222.14
587.42	31025.53
587.618	30943.61
587.815	30706.05
588.012	30986.62
588.21	30372.23
588.407	30869.89
588.604	30568.83
588.801	30349.7
588.999	30417.29
589.196	30511.49
589.393	30468.48
589.59	29985.16
589.787	29933.96
589.984	30200.2
590.182	29645.2
590.379	30308.74
590.576	29524.37
590.773	29712.78
590.97	29297.05
591.167	29755.79
591.364	29235.61
591.561	29280.66
591.758	28852.64
591.955	29202.84
592.152	29448.6
592.349	28789.15
592.546	28815.77
592.743	28840.35
592.94	28541.35
593.137	28817.82
593.334	28535.2
593.531	28365.22
593.727	28545.44
593.924	28365.22
594.121	28197.29
594.318	28557.73
594.515	27740.59
594.712	28189.1
594.908	27767.21
595.105	27982.25
595.302	27711.92
595.499	27969.96
595.696	27677.1
595.892	27273.65
596.089	27339.19
596.286	27670.96
596.482	27392.44
596.679	27130.3
596.876	27247.03
597.072	27249.08
597.269	27314.61
597.466	26644.93
597.662	27083.19
597.859	26816.96
598.055	26958.27
598.252	26464.71
598.448	26368.45
598.645	26720.7
598.841	26038.73
599.038	26563.01
599.234	26327.49
599.431	26061.26
599.627	25876.94
599.824	26448.32
600.02	26003.91
600.217	26239.43
600.413	26048.97
600.609	25582.03
600.806	25745.87
601.002	25838.03
601.198	25250.26
601.395	25477.58
601.591	25479.63
601.787	25479.63
601.984	25137.62
602.18	25385.43
602.376	25049.56
602.572	24855
602.769	24893.91
602.965	24670.68
603.161	24545.76
603.357	24615.39
603.553	24545.76
603.75	24670.68
603.946	24406.5
604.142	24678.88
604.338	24336.87
604.534	24283.62
604.73	24279.52
604.926	23876.07
605.122	24197.6
605.318	24209.89
605.514	23912.94
605.71	23943.66
605.906	23808.49
606.102	23583.21
606.298	23714.28
606.494	23757.29
606.69	23538.16
606.886	23613.93
607.082	23259.63
607.278	23507.44
607.474	23171.57
607.67	23529.97
607.866	23026.17
608.062	23370.22
608.257	23138.8
608.453	23026.17
608.649	23050.74
608.845	22940.15
609.041	22915.58
609.236	22944.25
609.432	22653.44
609.628	22923.77
609.824	22579.71
610.019	22616.57
610.215	22827.51
610.411	22864.38
610.606	22612.48
610.802	22581.76
610.998	22424.06
611.193	22528.51
611.389	22264.32
611.584	22307.33
611.78	22243.84
611.976	22274.56
612.171	22432.26
612.367	21975.56
612.562	22045.19
612.758	21957.13
612.953	21768.71
613.149	22004.23
613.344	21961.22
613.539	22041.09
613.735	21940.74
613.93	21834.25
614.126	21912.07
614.321	21955.08
614.517	21635.6
614.712	21617.16
614.907	21631.5
615.103	21608.97
615.298	21518.86
615.493	21832.2
615.688	21559.82
615.884	21824.01
616.079	21127.7
616.274	21477.9
616.47	21082.64
616.665	21365.26
616.86	21336.59
617.055	21053.97
617.25	20937.24
617.445	21187.09
617.641	20720.15
617.836	20863.51
618.031	20693.53
618.226	20867.61
618.421	20472.35
618.616	20853.27
618.811	20335.14
619.006	20582.94
619.201	20052.52
619.396	20656.67
619.591	20052.52
619.786	20482.59
619.981	19929.64
620.176	20163.11
620.371	19952.16
620.566	19534.38
620.761	19696.17
620.956	19810.86
621.151	19477.04
621.346	19786.28
621.541	19329.58
621.735	19409.45
621.93	19431.98
622.125	19130.93
622.32	18899.51
622.515	18971.19
622.709	18963
622.904	18913.84
623.099	18539.07
623.294	18588.22
623.488	18289.21
623.683	18338.37
623.878	18143.81
624.072	18285.12
624.267	18205.25
624.462	18170.43
624.656	17805.89
624.851	18035.27
625.046	17592.9
625.24	17879.62
625.435	17435.21
625.629	17513.03
625.824	17615.43
626.018	17537.61
626.213	16898.64
626.407	17420.88
626.602	16996.95
626.796	17013.33
626.991	17025.62
627.185	16765.53
627.38	16736.85
627.574	16538.2
627.768	16626.26
627.963	16296.54
628.157	16353.88
628.352	16261.73
628.546	16005.73
628.74	16251.49
628.935	15788.64
629.129	16271.97
629.323	15628.9
629.517	15964.77
629.712	15659.62
629.906	15743.59
630.1	15528.55
630.294	15794.79
630.489	15268.46
630.683	15176.3
630.877	14973.55
631.071	15194.73
631.265	15219.31
631.459	15032.94
631.653	15059.57
631.848	14989.94
632.042	14748.28
632.236	14908.02
632.43	14502.52
632.624	14678.65
632.818	14621.3
633.012	14187.13
633.206	14365.31
633.4	14430.84
633.594	14193.28
633.788	14156.41
633.982	14158.46
634.176	14193.28
634.369	13763.2
634.563	13755.01
634.757	13750.92
634.951	13771.4
635.145	13707.91
635.339	13636.23
635.533	13343.37
635.726	13679.24
635.92	13161.1
636.114	13220.49
636.308	13369.99
636.501	13101.71
636.695	13105.81
636.889	12921.49
637.083	12864.15
637.276	13130.38
637.47	12622.48
637.664	12849.81
637.857	12771.99
638.051	12884.62
638.244	12511.89
638.438	12438.17
638.632	12647.06
638.825	12155.55
639.019	12157.6
639.212	12130.97
639.406	11971.23
639.599	12012.19
639.793	12083.87
639.986	11704.99
640.18	12116.64
640.373	11934.37
640.567	11696.8
640.76	11977.37
640.954	11494.05
641.147	11594.4
641.34	11336.36
641.534	11508.39
641.727	11449
641.92	11287.21
642.114	11270.83
642.307	11279.02
642.5	11076.27
642.694	11102.89
642.887	11051.69
643.08	11281.07
643.273	10648.24
643.467	10894
643.66	10855.09
643.853	10748.59
644.046	10592.95
644.239	10724.02
644.432	10640.05
644.626	10408.63
644.819	10504.89
645.012	10494.65
645.205	10472.12
645.398	10330.81
645.591	10277.56
645.784	10060.48
645.977	10111.68
646.17	10130.11
646.363	10138.3
646.556	9855.68
646.749	10050.24
646.942	9992.89
647.135	9853.63
647.328	9802.43
647.521	9796.29
647.714	9501.38
647.907	9757.38
648.099	9804.48
648.292	9448.13
648.485	9556.68
648.678	9243.34
648.871	9335.49
649.064	9323.21
649.256	9329.35
649.449	9288.39
649.642	9153.23
649.835	9175.75
650.027	8911.57
650.22	8964.81
650.413	8868.56
650.605	8999.63
650.798	8762.06
650.991	8700.62
651.183	8858.32
651.376	8782.54
651.568	8919.76
651.761	8612.56
651.954	8688.34
652.146	8426.2
652.339	8628.95
652.531	8542.93
652.724	8542.93
652.916	8291.03
653.109	8338.13
653.301	8276.7
653.494	8383.19
653.686	8243.93
653.879	8211.16
654.071	8035.03
654.263	8078.04
654.456	8233.69
654.648	8301.27
654.84	7987.93
655.033	8010.46
655.225	7936.73
655.417	7717.6
655.61	7916.25
655.802	7926.49
655.994	7836.38
656.186	7664.35
656.379	7684.83
656.571	7723.74
656.763	7391.97
656.955	7578.34
657.148	7545.57
657.34	7533.28
657.532	7559.91
657.724	7371.49
657.916	7310.05
658.108	7402.21
658.3	7176.94
658.492	7178.98
658.684	7060.2
658.876	7203.56
659.068	7029.48
659.26	7156.46
659.452	7043.82
659.644	7135.98
659.836	7019.24
660.028	6929.13
660.22	6867.69
660.412	6869.74
660.604	6947.56
660.796	6914.8
660.988	6847.21
661.18	6656.75
661.372	6750.96
661.563	6839.02
661.755	6607.6
661.947	6748.91
662.139	6556.4
662.331	6611.7
662.522	6486.77
662.714	6443.76
662.906	6460.15
663.097	6347.51
663.289	6382.32
663.481	6327.03
663.673	6255.35
663.864	6228.73
664.056	6234.87
664.247	6292.21
664.439	6204.15
664.631	6116.09
664.822	6138.62
665.014	6097.66
665.205	6179.58
665.397	5962.49
665.588	5872.38
665.78	6036.22
665.971	5864.19
666.163	5847.8
666.354	5819.13
666.546	5815.04
666.737	5968.63
666.929	5694.21
667.12	5767.93
667.311	5612.29
667.503	5618.43
667.694	5597.95
667.885	5702.4
668.077	5683.97
668.268	5518.08
668.459	5665.53
668.651	5571.33
668.842	5563.14
669.033	5475.07
669.224	5561.09
669.416	5460.74
669.607	5329.67
669.798	5280.52
669.989	5313.28
670.18	5278.47
670.371	5346.05
670.563	5260.04
670.754	5260.04
670.945	5200.65
671.136	5198.6
671.327	5290.76
671.518	5255.94
671.709	5217.03
671.9	5360.39
672.091	5257.99
672.282	5102.34
672.473	4967.18
672.664	5118.73
672.855	5034.76
673.046	4829.96
673.237	5118.73
673.428	4893.45
673.619	5153.54
673.809	4807.44
674	4991.75
674.191	4799.24
674.382	4889.35
674.573	5137.16
674.764	5042.95
674.954	4807.44
675.145	4766.48
675.336	4897.55
675.527	4686.61
675.717	4782.86
675.908	4793.1
676.099	4809.48
676.289	4754.19
676.48	4774.67
676.671	4801.29
676.861	4758.28
677.052	4705.04
677.243	4580.11
677.433	4733.71
677.624	4741.9
677.814	4569.87
678.005	4545.3
678.195	4692.75
678.386	4713.23
678.576	4504.34
678.767	4602.64
678.957	4440.85
679.148	4573.97
679.338	4565.78
679.529	4477.71
679.719	4477.71
679.909	4420.37
680.1	4418.32
680.29	4414.23
680.481	4422.42
680.671	4350.74
680.861	4498.19
681.052	4418.32
681.242	4270.87
681.432	4264.72
681.622	4381.46
681.813	4158.23
682.003	4369.17
682.193	4389.65
682.383	4557.58
682.573	4236.05
682.764	4293.4
682.954	4254.48
683.144	4342.55
683.334	4221.72
683.524	4348.69
683.714	4166.42
683.904	4172.57
684.094	4234
684.284	4211.48
684.474	4313.88
684.664	4283.16
684.854	4096.79
685.044	4092.69
685.234	4191
685.424	4191
685.614	4092.69
685.804	4172.57
685.994	4086.55
686.184	4107.03
686.374	4127.51
686.564	3973.91
686.753	4045.59
686.943	3902.23
687.133	3816.22
687.323	3973.91
687.513	3963.67
687.702	3957.53
687.892	3920.67
688.082	3840.79
688.272	4031.26
688.461	3871.51
688.651	3914.52
688.841	3701.53
689.03	3894.04
689.22	3771.16
689.41	3746.59
689.599	3795.74
689.789	3881.75
689.979	3658.53
690.168	3633.95
690.358	3689.25
690.547	3689.25
690.737	3767.07
690.926	3697.44
691.116	3402.53
691.305	3654.43
691.495	3627.81
691.684	3650.33
691.874	3584.8
692.063	3541.79
692.252	3488.54
692.442	3623.71
692.631	3382.05
692.82	3541.79
693.01	3463.97
693.199	3420.96
693.388	3486.5
693.578	3511.07
693.767	3533.6
693.956	3474.21
694.146	3369.76
694.335	3420.96
694.524	3439.39
694.713	3347.23
694.902	3359.52
695.092	3414.82
695.281	3304.23
695.47	3324.71
695.659	3326.75
695.848	3332.9
696.037	3322.66
696.226	3455.78
696.415	3283.75
696.604	3304.23
696.793	3320.61
696.982	3259.17
697.171	3244.84
697.36	3212.07
697.549	3234.6
697.738	3287.84
697.927	3220.26
698.116	3240.74
698.305	3185.44
698.494	3132.2
698.683	3062.57
698.872	3269.41
699.061	3218.21
699.25	3238.69
699.438	3246.88
699.627	3091.24
699.816	3269.41
700.005	3109.67
700.193	3185.44
700.382	3154.73
700.571	3164.97
700.76	3093.29
700.948	3228.45
701.137	3169.06
701.326	3152.68
701.514	3078.95
701.703	3142.44
701.892	3083.05
702.08	3130.15
702.269	3167.01
702.457	3136.29
702.646	3201.83
702.834	3027.75
703.023	3162.92
703.212	3140.39
703.4	3054.37
703.589	3009.32
703.777	3017.51
703.965	2945.83
704.154	3138.34
704.342	2925.35
704.531	3023.66
704.719	3074.85
704.907	2974.5
705.096	2958.12
705.284	2847.53
705.472	2925.35
705.661	2988.84
705.849	3015.46
706.037	2939.69
706.226	3037.99
706.414	2943.78
706.602	2951.98
706.79	2984.74
706.979	2900.78
707.167	2777.9
707.355	2935.59
707.543	2921.26
707.731	2906.92
707.919	2923.3
708.107	2931.5
708.296	2884.39
708.484	2868.01
708.672	2851.63
708.86	2777.9
709.048	2786.09
709.236	2908.97
709.424	2859.82
709.612	2841.39
709.8	2820.91
709.988	2851.63
710.176	2988.84
710.364	2751.28
710.551	2906.92
710.739	2808.62
710.927	2734.89
711.115	2853.67
711.303	2794.28
711.491	2786.09
711.679	2671.4
711.866	2661.16
712.054	2718.51
712.242	2736.94
712.43	2833.19
712.617	2677.55
712.805	2917.16
712.993	2814.76
713.181	2614.06
713.368	2679.6
713.556	2669.36
713.744	2620.21
713.931	2718.51
714.119	2710.32
714.306	2671.4
714.494	2687.79
714.682	2718.51
714.869	2536.24
715.057	2665.26
715.244	2620.21
715.432	2679.6
715.619	2648.88
715.807	2632.49
715.994	2599.73
716.182	2532.14
716.369	2603.82
716.556	2759.47
716.744	2603.82
716.931	2667.31
717.119	2632.49
717.306	2698.03
717.493	2505.52
717.681	2513.71
717.868	2595.63
718.055	2618.16
718.242	2630.45
718.43	2620.21
718.617	2644.78
718.804	2485.04
718.991	2681.64
719.179	2472.75
719.366	2616.11
719.553	2544.43
719.74	2591.53
719.927	2575.15
720.114	2532.14
720.301	2546.48
720.488	2511.66
720.676	2605.87
720.863	2620.21
721.05	2638.64
721.237	2472.75
721.424	2507.57
721.611	2468.66
721.798	2538.29
721.985	2499.38
722.172	2478.9
722.358	2616.11
722.545	2380.59
722.732	2456.37
722.919	2554.67
723.106	2513.71
723.293	2276.15
723.48	2569.01
723.667	2392.88
723.853	2358.07
724.04	2390.83
724.227	2423.6
724.414	2345.78
724.6	2501.42
724.787	2431.79
724.974	2439.98
725.161	2370.35
725.347	2435.89
725.534	2337.59
725.72	2366.26
725.907	2366.26
726.094	2437.94
726.28	2333.49
726.467	2323.25
726.653	2374.45
726.84	2317.11
727.027	2448.18
727.213	2437.94
727.4	2370.35
727.586	2376.5
727.773	2327.35
727.959	2374.45
728.145	2435.89
728.332	2296.63
728.518	2317.11
728.705	2335.54
728.891	2274.1
729.077	2294.58
729.264	2231.09
729.45	2229.04
729.636	2339.63
729.823	2380.59
730.009	2376.5
730.195	2343.73
730.382	2272.05
730.568	2343.73
730.754	2313.01
730.94	2341.68
731.126	2286.39
731.313	2278.19
731.499	2249.52
731.685	2231.09
731.871	2245.43
732.057	2310.96
732.243	2284.34
732.429	2276.15
732.615	2253.62
732.801	2222.9
732.987	2276.15
733.173	2143.03
733.359	2341.68
733.545	2261.81
733.731	2325.3
733.917	2247.48
734.103	2327.35
734.289	2294.58
734.475	2294.58
734.661	2358.07
734.847	2192.18
735.033	2210.61
735.219	2229.04
735.404	2124.6
735.59	2183.99
735.776	2032.44
735.962	2243.38
736.148	2218.8
736.333	2220.85
736.519	2171.7
736.705	2151.22
736.89	2140.98
737.076	2171.7
737.262	2163.51
737.447	2108.21
737.633	2208.56
737.819	2157.36
738.004	2165.56
738.19	2020.15
738.375	2163.51
738.561	2057.01
738.747	2007.86
738.932	2081.59
739.118	2173.75
739.303	2061.11
739.489	1987.38
739.674	2038.58
739.859	2018.1
740.045	2042.68
740.23	2071.35
740.416	2054.97
740.601	2100.02
740.786	2009.91
740.972	2022.2
741.157	1954.62
741.342	2005.81
741.528	1850.17
741.713	2007.86
741.898	1913.66
742.084	1979.19
742.269	1968.95
742.454	2024.25
742.639	1839.93
742.824	1852.22
743.01	1950.52
743.195	1999.67
743.38	1895.22
743.565	1946.42
743.75	1844.03
743.935	1884.98
744.12	1858.36
744.305	1923.9
744.49	1792.83
744.675	1833.79
744.86	1829.69
745.045	1801.02
745.23	1932.09
745.415	1739.58
745.6	1925.94
745.785	1813.31
745.97	1903.42
746.155	1801.02
746.34	1764.15
746.525	1772.35
746.71	1930.04
746.895	1694.52
747.079	1682.24
747.264	1774.39
747.449	1809.21
747.634	1731.39
747.819	1760.06
748.003	1569.6
748.188	1620.8
748.373	1661.76
748.557	1639.23
748.742	1635.13
748.927	1680.19
749.111	1674.04
749.296	1647.42
749.481	1551.17
749.665	1620.8
749.85	1590.08
750.034	1565.5
750.219	1448.77
750.404	1514.3
750.588	1522.49
750.773	1475.39
750.957	1463.1
751.141	1506.11
751.326	1555.26
751.51	1502.01
751.695	1487.68
751.879	1469.25
752.064	1524.54
752.248	1491.77
752.432	1442.62
752.617	1362.75
752.801	1493.82
752.985	1424.19
753.17	1495.87
753.354	1403.71
753.538	1393.47
753.722	1295.17
753.907	1295.17
754.091	1286.98
754.275	1342.27
754.459	1254.21
754.643	1358.66
754.828	1356.61
755.012	1303.36
755.196	1225.54
755.38	1309.51
755.564	1241.92
755.748	1194.82
755.932	1397.57
756.116	1207.11
756.3	1221.44
756.484	1223.49
756.668	1280.83
756.852	1196.87
757.036	1164.1
757.22	1164.1
757.404	1125.19
757.588	1145.67
757.772	1160
757.956	1139.52
758.14	1178.44
758.323	1092.42
758.507	1178.44
758.691	1178.44
758.875	1157.96
759.059	1196.87
759.242	1143.62
759.426	1067.85
759.61	1098.56
759.794	1071.94
759.977	1145.67
760.161	1080.13
760.345	1127.24
760.528	1092.42
760.712	1024.84
760.895	1055.56
761.079	1127.24
761.263	1104.71
761.446	1024.84
761.63	1030.98
761.813	1028.93
761.997	1090.37
762.18	1026.89
762.364	918.34
762.547	883.53
762.731	899.91
762.914	981.83
763.098	979.78
763.281	959.3
763.464	867.14
763.648	1051.46
763.831	985.93
764.015	977.73
764.198	973.64
764.381	869.19
764.564	932.68
764.748	973.64
764.931	961.35
765.114	944.97
765.297	959.3
765.481	856.9
765.664	947.01
765.847	914.25
766.03	938.82
766.213	850.76
766.397	871.24
766.58	934.73
766.763	959.3
766.946	920.39
767.129	920.39
767.312	875.34
767.495	875.34
767.678	858.95
767.861	883.53
768.044	793.42
768.227	772.94
768.41	924.49
768.593	947.01
768.776	891.72
768.959	875.34
769.142	897.86
769.324	832.33
769.507	867.14
769.69	840.52
769.873	901.96
770.056	820.04
770.239	842.57
770.421	828.23
770.604	760.65
770.787	815.94
770.97	772.94
771.152	785.23
771.335	729.93
771.518	789.32
771.7	877.38
771.883	826.18
772.066	820.04
772.248	783.18
772.431	797.51
772.613	736.07
772.796	789.32
772.978	842.57
773.161	791.37
773.343	768.84
773.526	736.07
773.708	701.26
773.891	736.07
774.073	717.64
774.256	723.79
774.438	691.02
774.621	736.07
774.803	758.6
774.985	715.59
775.168	705.35
775.35	691.02
775.532	738.12
775.715	658.25
775.897	721.74
776.079	723.79
776.261	650.06
776.444	625.48
776.626	660.3
776.808	680.78
776.99	637.77
777.173	648.01
777.355	674.64
777.537	570.19
777.719	648.01
777.901	635.72
778.083	586.57
778.265	605
778.447	664.4
778.629	568.14
778.811	539.47
778.993	623.44
779.175	615.24
779.357	619.34
779.539	562
779.721	566.09
779.903	525.13
780.085	572.24
780.267	625.48
780.449	572.24
780.631	596.81
780.812	648.01
780.994	600.91
781.176	461.65
781.358	502.61
781.54	465.74
781.721	465.74
781.903	596.81
782.085	490.32
782.267	498.51
782.448	514.89
782.63	469.84
782.812	531.28
782.993	432.97
783.175	437.07
783.357	455.5
783.538	543.57
783.72	453.45
783.901	502.61
784.083	502.61
784.264	514.89
784.446	465.74
784.627	478.03
784.809	473.93
784.99	461.65
785.172	457.55
785.353	441.17
785.535	408.4
785.716	463.69
785.897	439.12
786.079	404.3
786.26	439.12
786.441	463.69
786.623	369.49
786.804	396.11
786.985	449.36
787.167	437.07
787.348	459.6
787.529	416.59
787.71	467.79
787.891	428.88
788.073	375.63
788.254	404.3
788.435	412.5
788.616	389.97
788.797	318.29
788.978	402.26
789.159	373.58
789.34	426.83
789.522	357.2
789.703	383.82
789.884	387.92
790.065	416.59
790.246	332.62
790.427	410.45
790.607	385.87
790.788	312.14
790.969	375.63
791.15	351.06
791.331	246.61
791.512	381.78
791.693	361.3
791.874	369.49
792.054	344.91
792.235	289.62
792.416	375.63
792.597	330.58
792.778	271.19
792.958	310.1
793.139	367.44
793.32	287.57
793.5	328.53
793.681	351.06
793.862	363.34
794.042	322.38
794.223	281.43
794.404	324.43
794.584	273.23
794.765	318.29
794.945	291.66
795.126	369.49
795.306	306
795.487	334.67
795.667	252.75
795.848	293.71
796.028	338.77
796.209	289.62
796.389	312.14
796.57	279.38
796.75	244.56
796.93	293.71
797.111	224.08
797.291	269.14
797.471	242.51
797.652	252.75
797.832	232.27
798.012	363.34
798.192	256.85
798.373	293.71
798.553	303.95
798.733	265.04
798.913	279.38
799.093	289.62
799.274	265.04
799.454	203.6
799.634	265.04
799.814	281.43
799.994	328.53
800.174	197.46
800.354	240.47
800.534	262.99
800.714	152.4
800.894	197.46
801.074	301.9
801.254	269.14
801.434	189.27
801.614	248.66
801.794	162.64
801.974	746.31
802.154	275.28
802.334	215.89
802.514	113.49
802.693	240.47
802.873	244.56
803.053	293.71
803.233	197.46
803.413	158.55
803.592	228.18
803.772	228.18
803.952	219.99
804.131	170.83
804.311	236.37
804.491	291.66
804.67	207.7
804.85	170.83
805.03	207.7
805.209	211.79
805.389	236.37
805.568	181.07
805.748	181.07
805.928	236.37
806.107	170.83
806.287	162.64
806.466	146.26
806.646	191.31
806.825	230.23
807.004	203.6
807.184	207.7
807.363	195.41
807.543	209.75
807.722	162.64
807.901	260.95
808.081	219.99
808.26	170.83
808.439	213.84
808.619	101.2
808.798	207.7
808.977	148.31
809.156	203.6
809.336	213.84
809.515	166.74
809.694	166.74
809.873	121.68
810.052	191.31
810.231	267.09
810.411	174.93
810.59	279.38
810.769	203.6
810.948	287.57
811.127	129.88
811.306	228.18
811.485	199.51
811.664	213.84
811.843	174.93
812.022	148.31
812.201	140.12
812.38	219.99
812.559	174.93
812.737	191.31
812.916	207.7
813.095	203.6
813.274	187.22
813.453	158.55
813.632	287.57
813.811	260.95
813.989	133.97
814.168	131.92
814.347	144.21
814.526	162.64
814.704	133.97
814.883	244.56
815.062	133.97
815.24	205.65
815.419	50
815.598	121.68
815.776	117.59
815.955	148.31
816.133	158.55
816.312	211.79
816.49	148.31
816.669	138.07
816.847	164.69
817.026	144.21
817.204	109.4
817.383	174.93
817.561	72.53
817.74	211.79
817.918	113.49
818.097	152.4
818.275	93.01
818.453	121.68
818.632	174.93
818.81	170.83
818.988	154.45
819.167	133.97
819.345	138.07
819.523	138.07
819.701	166.74
819.879	164.69
820.058	131.92
820.236	131.92
820.414	43.86
820.592	172.88
820.77	127.83
820.948	117.59
821.127	115.54
821.305	97.11
821.483	111.44
821.661	148.31
821.839	154.45
822.017	121.68
822.195	136.02
822.373	158.55
822.551	80.72
822.729	156.5
822.907	107.35
823.085	140.12
823.262	129.88
823.44	125.78
823.618	179.03
823.796	211.79
823.974	189.27
824.152	142.16
824.329	174.93
824.507	158.55
824.685	93.01
824.863	50
825.04	93.01
825.218	146.26
825.396	160.59
825.574	123.73
825.751	121.68
825.929	121.68
826.107	43.86
826.284	99.16
826.462	80.72
826.639	121.68
826.817	90.96
826.994	93.01
827.172	99.16
827.349	154.45
827.527	74.58
827.704	129.88
827.882	115.54
828.059	230.23
828.237	68.44
828.414	125.78
828.591	52.05
828.769	105.3
828.946	54.1
829.124	174.93
829.301	203.6
829.478	146.26
829.655	129.88
829.833	90.96
830.01	86.87
830.187	154.45
830.364	45.91
830.542	82.77
830.719	80.72
830.896	97.11
831.073	115.54
831.25	113.49
831.427	60.24
831.604	115.54
831.782	86.87
831.959	125.78
832.136	131.92
832.313	142.16
832.49	113.49
832.667	222.03
832.844	93.01
833.021	117.59
833.198	64.34
833.374	56.15
833.551	138.07
833.728	82.77
833.905	80.72
834.082	39.76
834.259	111.44
834.436	162.64
834.612	43.86
834.789	166.74
834.966	154.45
835.143	50
835.319	60.24
835.496	101.2
835.673	68.44
835.85	76.63
836.026	107.35
836.203	131.92
836.38	88.92
836.556	56.15
836.733	109.4
836.909	125.78
837.086	84.82
837.262	107.35
837.439	21.33
837.616	101.2
837.792	82.77
837.968	50
838.145	131.92
838.321	78.68
838.498	58.2
838.674	117.59
838.851	138.07
839.027	187.22
839.203	58.2
839.38	93.01
839.556	82.77
839.732	113.49
839.909	66.39
840.085	162.64
840.261	19.29
840.437	113.49
840.614	105.3
840.79	19.29
840.966	140.12
841.142	80.72
841.318	15.19
841.494	62.29
841.671	80.72
841.847	121.68
842.023	101.2
842.199	33.62
842.375	93.01
842.551	64.34
842.727	60.24
842.903	66.39
843.079	64.34
843.255	154.45
843.431	66.39
843.607	74.58
843.783	52.05
843.959	15.19
844.134	84.82
844.31	90.96
844.486	50
844.662	62.29
844.838	113.49
845.013	43.86
845.189	50
845.365	58.2
845.541	47.96
845.716	115.54
845.892	113.49
846.068	-7.34
846.244	33.62
846.419	113.49
846.595	35.67
846.77	133.97
846.946	105.3
847.122	54.1
847.297	66.39
847.473	84.82
847.648	62.29
847.824	80.72
847.999	97.11
848.175	68.44
848.35	115.54
848.526	113.49
848.701	117.59
848.876	84.82
849.052	39.76
849.227	64.34
849.403	68.44
849.578	25.43
849.753	93.01
849.929	90.96
850.104	58.2
850.279	113.49
850.454	97.11
850.63	123.73
850.805	138.07
850.98	-21.67
851.155	95.06
851.33	64.34
851.505	43.86
851.681	82.77
851.856	31.57
852.031	127.83
852.206	56.15
852.381	58.2
852.556	109.4
852.731	39.76
852.906	90.96
853.081	90.96
853.256	52.05
853.431	43.86
853.606	25.43
853.781	107.35
853.956	-9.39
854.131	47.96
854.305	52.05
854.48	50
854.655	56.15
854.83	31.57
855.005	52.05
855.18	56.15
855.354	39.76
855.529	82.77
855.704	27.48
855.879	64.34
856.053	50
856.228	47.96
856.403	17.24
856.577	33.62
856.752	4.95
856.926	-42.15
857.101	45.91
857.276	11.09
857.45	23.38
857.625	72.53
857.799	80.72
857.974	72.53
858.148	39.76
858.323	90.96
858.497	17.24
858.672	31.57
858.846	37.72
859.02	133.97
859.195	15.19
859.369	7
859.543	-21.67
859.718	11.09
859.892	-1.19
860.066	66.39
860.241	56.15
860.415	101.2
860.589	50
860.763	52.05
860.938	66.39
861.112	66.39
861.286	62.29
861.46	50
861.634	-3.24
861.808	95.06
861.982	72.53
862.157	33.62
862.331	35.67
862.505	-36.01
862.679	-25.77
862.853	74.58
863.027	35.67
863.201	31.57
863.375	41.81
863.549	33.62
863.722	9.05
863.896	-5.29
864.07	-25.77
864.244	23.38
864.418	58.2
864.592	31.57
864.766	31.57
864.939	13.14
865.113	58.2
865.287	52.05
865.461	35.67
865.634	31.57
865.808	97.11
865.982	25.43
866.156	11.09
866.329	15.19
866.503	56.15
866.676	27.48
866.85	-17.58
867.024	56.15
867.197	97.11
867.371	80.72
867.544	43.86
867.718	-13.48
867.891	33.62
868.065	-17.58
868.238	148.31
868.412	31.57
868.585	58.2
868.759	39.76
868.932	-29.87
869.105	56.15
869.279	11.09
869.452	-1.19
869.625	-15.53
869.799	50
869.972	64.34
870.145	52.05
870.319	90.96
870.492	39.76
870.665	2.9
870.838	31.57
871.011	-40.11
871.185	39.76
871.358	15.19
871.531	62.29
871.704	33.62
871.877	99.16
872.05	7
872.223	45.91
872.396	74.58
872.569	97.11
872.742	7
872.915	62.29
873.088	-1.19
873.261	-40.11
873.434	56.15
873.607	35.67
873.78	60.24
873.953	64.34
874.126	-17.58
874.299	27.48
874.471	115.54
874.644	-33.96
874.817	78.68
874.99	41.81
875.163	15.19
875.335	41.81
875.508	101.2
875.681	52.05
875.853	47.96
876.026	39.76
876.199	93.01
876.371	97.11
876.544	-31.91
876.717	15.19
876.889	64.34
877.062	23.38
877.234	47.96
877.407	31.57
877.579	72.53
877.752	121.68
877.924	121.68
878.097	97.11
878.269	56.15
878.442	31.57
878.614	-31.91
878.786	43.86
878.959	4.95
879.131	52.05
879.303	27.48
879.476	13.14
879.648	52.05
879.82	56.15
879.993	60.24
880.165	99.16
880.337	-17.58
880.509	74.58
880.681	-5.29
880.854	23.38
881.026	-13.48
881.198	181.07
881.37	23.38
881.542	31.57
881.714	56.15
881.886	74.58
882.058	-38.06
882.23	72.53
882.402	41.81
882.574	31.57
882.746	-9.39
882.918	17.24
883.09	50
883.262	90.96
883.434	72.53
883.606	76.63
883.778	-38.06
883.95	9.05
884.122	90.96
884.293	74.58
884.465	-38.06
884.637	39.76
884.809	64.34
884.98	64.34
885.152	64.34
885.324	68.44
885.496	37.72
885.667	15.19
885.839	41.81
886.011	84.82
886.182	84.82
886.354	9.05
886.525	27.48
886.697	56.15
886.869	31.57
887.04	31.57
887.212	142.16
887.383	95.06
887.555	-9.39
887.726	17.24
887.897	31.57
888.069	27.48
888.24	76.63
888.412	33.62
888.583	33.62
888.754	-9.39
888.926	-60.59
889.097	39.76
889.268	31.57
889.44	-38.06
889.611	-15.53
889.782	-9.39
889.953	19.29
890.125	11.09
890.296	23.38
890.467	78.68
890.638	33.62
890.809	-9.39
890.98	58.2
891.151	88.92
891.323	31.57
891.494	62.29
891.665	54.1
891.836	25.43
892.007	19.29
892.178	17.24
892.349	93.01
892.52	-19.63
892.691	72.53
892.862	15.19
893.032	33.62
893.203	90.96
893.374	64.34
893.545	-1.19
893.716	25.43
893.887	31.57
894.057	52.05
894.228	-13.48
894.399	-1.19
894.57	54.1
894.74	-31.91
894.911	-31.91
895.082	-27.82
895.253	25.43
895.423	50
895.594	72.53
895.764	43.86
895.935	-21.67
896.106	90.96
896.276	11.09
896.447	17.24
896.617	25.43
896.788	41.81
896.958	58.2
897.129	27.48
897.299	-1.19
897.47	15.19
897.64	64.34
897.81	-25.77
897.981	-9.39
898.151	-13.48
898.322	80.72
898.492	58.2
898.662	52.05
898.832	-42.15
899.003	29.52
899.173	66.39
899.343	66.39
899.513	72.53
