Data from USB4F104151__280__14-23-26-943.txt Node

Date: Thu Mar 13 14:23:26 EDT 2025
User: louis
Spectrometer: USB4F10415
Trigger mode: 4
Integration Time (sec): 2.000000E-2
Scans to average: 1
Electric dark correction enabled: true
Nonlinearity correction enabled: false
Boxcar width: 0
XAxis mode: Wavelengths
Number of Pixels in Spectrum: 3648
>>>>>Begin Spectral Data<<<<<
178.204	-52.56
178.424	-52.56
178.644	-52.56
178.864	-161.11
179.084	-107.86
179.304	25.26
179.524	-9.56
179.744	-1.37
179.964	154.28
180.184	-11.61
180.404	-46.42
180.624	-5.46
180.844	17.07
181.064	-48.47
181.283	-5.46
181.503	-60.76
181.723	-7.51
181.943	-1.37
182.163	74.41
182.383	31.4
182.602	60.07
182.822	33.45
183.042	10.92
183.262	19.11
183.482	41.64
183.701	23.21
183.921	39.59
184.141	31.4
184.361	23.21
184.58	45.74
184.8	137.9
185.02	2.73
185.239	74.41
185.459	96.94
185.679	39.59
185.898	-40.28
186.118	19.11
186.338	-13.65
186.557	-1.37
186.777	6.83
186.997	-1.37
187.216	33.45
187.436	139.94
187.655	41.64
187.875	156.33
188.095	45.74
188.314	90.79
188.534	131.75
188.753	-66.9
188.973	-17.75
189.192	90.79
189.412	-9.56
189.631	51.88
189.851	10.92
190.07	31.4
190.29	31.4
190.509	68.27
190.729	88.75
190.948	72.36
191.168	121.51
191.387	15.02
191.607	-15.7
191.826	72.36
192.045	-68.95
192.265	23.21
192.484	-13.65
192.704	19.11
192.923	0.68
193.142	105.13
193.362	96.94
193.581	66.22
193.8	25.26
194.02	47.79
194.239	-32.08
194.458	25.26
194.678	17.07
194.897	47.79
195.116	47.79
195.335	-25.94
195.555	55.98
195.774	23.21
195.993	86.7
196.212	35.5
196.432	27.31
196.651	49.83
196.87	47.79
197.089	-5.46
197.308	23.21
197.528	27.31
197.747	-42.32
197.966	55.98
198.185	29.35
198.404	0.68
198.623	47.79
198.842	21.16
199.062	76.46
199.281	19.11
199.5	37.55
199.719	49.83
199.938	76.46
200.157	55.98
200.376	47.79
200.595	101.03
200.814	76.46
201.033	76.46
201.252	51.88
201.471	31.4
201.69	12.97
201.909	19.11
202.128	88.75
202.347	-38.23
202.566	53.93
202.785	35.5
203.004	-40.28
203.223	154.28
203.442	33.45
203.661	80.55
203.879	-34.13
204.098	78.51
204.317	41.64
204.536	0.68
204.755	117.42
204.974	70.31
205.193	37.55
205.411	31.4
205.63	4.78
205.849	72.36
206.068	82.6
206.287	2.73
206.505	47.79
206.724	2.73
206.943	-25.94
207.162	10.92
207.381	39.59
207.599	19.11
207.818	-1.37
208.037	-34.13
208.255	17.07
208.474	35.5
208.693	8.87
208.911	51.88
209.13	31.4
209.349	98.99
209.567	15.02
209.786	154.28
210.005	55.98
210.223	25.26
210.442	43.69
210.661	84.65
210.879	-9.56
211.098	-13.65
211.316	-42.32
211.535	98.99
211.753	80.55
211.972	45.74
212.191	-23.89
212.409	55.98
212.628	-7.51
212.846	17.07
213.065	78.51
213.283	96.94
213.502	39.59
213.72	80.55
213.938	6.83
214.157	60.07
214.375	76.46
214.594	-15.7
214.812	19.11
215.031	84.65
215.249	25.26
215.467	64.17
215.686	105.13
215.904	15.02
216.122	-15.7
216.341	78.51
216.559	35.5
216.778	88.75
216.996	60.07
217.214	58.03
217.432	64.17
217.651	-50.52
217.869	-15.7
218.087	15.02
218.306	111.27
218.524	49.83
218.742	74.41
218.96	66.22
219.179	58.03
219.397	111.27
219.615	113.32
219.833	-17.75
220.051	55.98
220.27	154.28
220.488	96.94
220.706	115.37
220.924	51.88
221.142	39.59
221.36	-9.56
221.578	29.35
221.796	0.68
222.015	8.87
222.233	8.87
222.451	55.98
222.669	-46.42
222.887	6.83
223.105	33.45
223.323	23.21
223.541	-15.7
223.759	68.27
223.977	-23.89
224.195	133.8
224.413	2.73
224.631	41.64
224.849	-15.7
225.067	101.03
225.285	37.55
225.503	15.02
225.721	0.68
225.939	17.07
226.157	0.68
226.375	80.55
226.592	74.41
226.81	25.26
227.028	47.79
227.246	127.66
227.464	15.02
227.682	23.21
227.9	15.02
228.117	35.5
228.335	80.55
228.553	25.26
228.771	-25.94
228.989	-1.37
229.206	-7.51
229.424	43.69
229.642	70.31
229.86	-1.37
230.077	55.98
230.295	105.13
230.513	33.45
230.731	103.08
230.948	35.5
231.166	60.07
231.384	49.83
231.601	21.16
231.819	96.94
232.037	47.79
232.254	55.98
232.472	41.64
232.689	64.17
232.907	8.87
233.125	-46.42
233.342	-9.56
233.56	88.75
233.777	68.27
233.995	-7.51
234.213	98.99
234.43	41.64
234.648	101.03
234.865	55.98
235.083	92.84
235.3	15.02
235.518	31.4
235.735	148.14
235.953	68.27
236.17	39.59
236.388	60.07
236.605	55.98
236.822	35.5
237.04	27.31
237.257	41.64
237.475	-19.8
237.692	82.6
237.909	109.22
238.127	-23.89
238.344	8.87
238.562	88.75
238.779	37.55
238.996	0.68
239.214	29.35
239.431	64.17
239.648	84.65
239.865	39.59
240.083	74.41
240.3	43.69
240.517	15.02
240.735	15.02
240.952	45.74
241.169	72.36
241.386	66.22
241.603	39.59
241.821	-9.56
242.038	55.98
242.255	60.07
242.472	55.98
242.689	25.26
242.907	64.17
243.124	101.03
243.341	10.92
243.558	58.03
243.775	-1.37
243.992	15.02
244.209	68.27
244.426	152.23
244.643	109.22
244.86	8.87
245.078	84.65
245.295	0.68
245.512	47.79
245.729	60.07
245.946	37.55
246.163	58.03
246.38	-17.75
246.597	27.31
246.814	17.07
247.031	27.31
247.248	35.5
247.464	27.31
247.681	64.17
247.898	-1.37
248.115	15.02
248.332	8.87
248.549	35.5
248.766	107.18
248.983	19.11
249.2	39.59
249.417	21.16
249.633	12.97
249.85	43.69
250.067	107.18
250.284	23.21
250.501	15.02
250.717	23.21
250.934	-56.66
251.151	47.79
251.368	-17.75
251.585	33.45
251.801	8.87
252.018	-50.52
252.235	-7.51
252.451	0.68
252.668	80.55
252.885	90.79
253.102	121.51
253.318	55.98
253.535	39.59
253.752	19.11
253.968	33.45
254.185	53.93
254.401	23.21
254.618	86.7
254.835	76.46
255.051	88.75
255.268	23.21
255.484	29.35
255.701	47.79
255.917	31.4
256.134	-32.08
256.351	90.79
256.567	-36.18
256.784	-1.37
257	-30.04
257.217	25.26
257.433	51.88
257.65	37.55
257.866	25.26
258.082	-44.37
258.299	-13.65
258.515	101.03
258.732	-36.18
258.948	-25.94
259.165	-7.51
259.381	-1.37
259.597	78.51
259.814	15.02
260.03	19.11
260.246	-7.51
260.463	8.87
260.679	23.21
260.895	-1.37
261.112	76.46
261.328	2.73
261.544	74.41
261.761	39.59
261.977	58.03
262.193	43.69
262.409	15.02
262.626	43.69
262.842	15.02
263.058	-27.99
263.274	-5.46
263.49	43.69
263.707	72.36
263.923	72.36
264.139	-42.32
264.355	111.27
264.571	101.03
264.787	41.64
265.004	82.6
265.22	35.5
265.436	-25.94
265.652	41.64
265.868	39.59
266.084	17.07
266.3	8.87
266.516	0.68
266.732	31.4
266.948	17.07
267.164	15.02
267.38	80.55
267.596	17.07
267.812	49.83
268.028	4.78
268.244	-21.85
268.46	23.21
268.676	98.99
268.892	47.79
269.108	-1.37
269.324	-7.51
269.54	62.12
269.756	84.65
269.972	15.02
270.188	15.02
270.403	0.68
270.619	33.45
270.835	41.64
271.051	-42.32
271.267	21.16
271.483	146.09
271.698	96.94
271.914	113.32
272.13	-3.41
272.346	6.83
272.562	62.12
272.777	47.79
272.993	49.83
273.209	-38.23
273.425	0.68
273.64	88.75
273.856	84.65
274.072	6.83
274.287	154.28
274.503	80.55
274.719	58.03
274.934	80.55
275.15	-42.32
275.366	27.31
275.581	-15.7
275.797	27.31
276.012	0.68
276.228	68.27
276.444	76.46
276.659	19.11
276.875	0.68
277.09	19.11
277.306	15.02
277.521	19.11
277.737	-40.28
277.952	15.02
278.168	90.79
278.383	33.45
278.599	47.79
278.814	94.89
279.03	6.83
279.245	68.27
279.461	43.69
279.676	25.26
279.892	23.21
280.107	-46.42
280.322	25.26
280.538	68.27
280.753	31.4
280.969	74.41
281.184	101.03
281.399	58.03
281.615	66.22
281.83	51.88
282.045	23.21
282.26	58.03
282.476	105.13
282.691	107.18
282.906	6.83
283.122	72.36
283.337	74.41
283.552	2.73
283.767	6.83
283.983	58.03
284.198	21.16
284.413	64.17
284.628	43.69
284.843	-36.18
285.058	33.45
285.274	64.17
285.489	-1.37
285.704	74.41
285.919	35.5
286.134	-9.56
286.349	27.31
286.564	43.69
286.779	133.8
286.995	29.35
287.21	72.36
287.425	113.32
287.64	23.21
287.855	72.36
288.07	19.11
288.285	105.13
288.5	15.02
288.715	86.7
288.93	-7.51
289.145	35.5
289.36	76.46
289.575	66.22
289.79	41.64
290.004	8.87
290.219	64.17
290.434	0.68
290.649	-1.37
290.864	-1.37
291.079	51.88
291.294	6.83
291.509	-13.65
291.724	35.5
291.938	-5.46
292.153	47.79
292.368	-13.65
292.583	51.88
292.798	64.17
293.012	98.99
293.227	148.14
293.442	39.59
293.657	47.79
293.871	150.18
294.086	15.02
294.301	66.22
294.516	19.11
294.73	41.64
294.945	-30.04
295.16	-15.7
295.374	23.21
295.589	49.83
295.804	-15.7
296.018	-15.7
296.233	33.45
296.447	33.45
296.662	10.92
296.877	6.83
297.091	49.83
297.306	19.11
297.52	68.27
297.735	41.64
297.949	23.21
298.164	80.55
298.378	35.5
298.593	96.94
298.807	-17.75
299.022	25.26
299.236	49.83
299.451	17.07
299.665	90.79
299.88	23.21
300.094	17.07
300.309	68.27
300.523	45.74
300.737	88.75
300.952	-1.37
301.166	-34.13
301.381	55.98
301.595	35.5
301.809	47.79
302.024	64.17
302.238	39.59
302.452	121.51
302.667	80.55
302.881	84.65
303.095	43.69
303.309	60.07
303.524	-34.13
303.738	72.36
303.952	10.92
304.166	33.45
304.381	-66.9
304.595	107.18
304.809	19.11
305.023	25.26
305.237	4.78
305.452	35.5
305.666	19.11
305.88	88.75
306.094	4.78
306.308	17.07
306.522	25.26
306.736	2.73
306.95	96.94
307.164	82.6
307.379	41.64
307.593	60.07
307.807	82.6
308.021	-1.37
308.235	82.6
308.449	12.97
308.663	27.31
308.877	76.46
309.091	27.31
309.305	88.75
309.519	47.79
309.733	105.13
309.947	115.37
310.161	49.83
310.374	90.79
310.588	82.6
310.802	-25.94
311.016	72.36
311.23	105.13
311.444	15.02
311.658	25.26
311.872	96.94
312.085	82.6
312.299	-3.41
312.513	105.13
312.727	19.11
312.941	-9.56
313.154	43.69
313.368	-79.19
313.582	25.26
313.796	113.32
314.009	6.83
314.223	76.46
314.437	96.94
314.651	62.12
314.864	-34.13
315.078	78.51
315.292	64.17
315.505	119.46
315.719	55.98
315.933	76.46
316.146	76.46
316.36	0.68
316.573	53.93
316.787	12.97
317.001	90.79
317.214	-1.37
317.428	47.79
317.641	-13.65
317.855	74.41
318.068	-1.37
318.282	68.27
318.495	96.94
318.709	72.36
318.922	12.97
319.136	96.94
319.349	119.46
319.563	19.11
319.776	27.31
319.99	43.69
320.203	41.64
320.417	72.36
320.63	-17.75
320.843	111.27
321.057	12.97
321.27	49.83
321.483	8.87
321.697	66.22
321.91	19.11
322.124	76.46
322.337	19.11
322.55	64.17
322.763	-19.8
322.977	53.93
323.19	58.03
323.403	31.4
323.617	35.5
323.83	-11.61
324.043	125.61
324.256	70.31
324.469	17.07
324.683	23.21
324.896	74.41
325.109	-40.28
325.322	41.64
325.535	29.35
325.748	96.94
325.962	-25.94
326.175	49.83
326.388	49.83
326.601	68.27
326.814	-5.46
327.027	31.4
327.24	101.03
327.453	-11.61
327.666	105.13
327.879	23.21
328.092	6.83
328.305	10.92
328.518	15.02
328.731	33.45
328.944	74.41
329.157	41.64
329.37	80.55
329.583	92.84
329.796	103.08
330.009	12.97
330.222	8.87
330.435	101.03
330.648	47.79
330.861	23.21
331.073	8.87
331.286	29.35
331.499	-9.56
331.712	-40.28
331.925	-32.08
332.138	68.27
332.35	41.64
332.563	64.17
332.776	146.09
332.989	-9.56
333.202	60.07
333.414	-9.56
333.627	-13.65
333.84	66.22
334.053	0.68
334.265	35.5
334.478	10.92
334.691	39.59
334.903	94.89
335.116	4.78
335.329	-68.95
335.541	-13.65
335.754	74.41
335.966	2.73
336.179	88.75
336.392	43.69
336.604	-1.37
336.817	68.27
337.029	58.03
337.242	39.59
337.454	55.98
337.667	98.99
337.88	90.79
338.092	49.83
338.305	58.03
338.517	23.21
338.729	49.83
338.942	64.17
339.154	-9.56
339.367	6.83
339.579	82.6
339.792	37.55
340.004	12.97
340.217	8.87
340.429	60.07
340.641	31.4
340.854	23.21
341.066	-23.89
341.278	80.55
341.491	115.37
341.703	37.55
341.915	-52.56
342.128	53.93
342.34	49.83
342.552	49.83
342.764	6.83
342.977	31.4
343.189	74.41
343.401	47.79
343.613	19.11
343.826	58.03
344.038	-15.7
344.25	47.79
344.462	115.37
344.674	113.32
344.886	105.13
345.099	74.41
345.311	35.5
345.523	72.36
345.735	-34.13
345.947	31.4
346.159	70.31
346.371	0.68
346.583	-13.65
346.795	131.75
347.007	-9.56
347.219	133.8
347.431	90.79
347.643	23.21
347.855	60.07
348.067	31.4
348.279	27.31
348.491	55.98
348.703	-32.08
348.915	64.17
349.127	49.83
349.339	121.51
349.551	78.51
349.763	107.18
349.975	39.59
350.187	107.18
350.399	90.79
350.61	41.64
350.822	109.22
351.034	-23.89
351.246	-1.37
351.458	33.45
351.669	64.17
351.881	31.4
352.093	62.12
352.305	70.31
352.517	27.31
352.728	123.56
352.94	88.75
353.152	45.74
353.363	-17.75
353.575	39.59
353.787	31.4
353.999	47.79
354.21	113.32
354.422	-25.94
354.633	-7.51
354.845	-21.85
355.057	78.51
355.268	72.36
355.48	74.41
355.692	27.31
355.903	23.21
356.115	23.21
356.326	15.02
356.538	96.94
356.749	-1.37
356.961	115.37
357.172	74.41
357.384	39.59
357.595	68.27
357.807	62.12
358.018	29.35
358.23	43.69
358.441	105.13
358.653	96.94
358.864	-9.56
359.075	70.31
359.287	47.79
359.498	80.55
359.709	0.68
359.921	15.02
360.132	101.03
360.344	37.55
360.555	55.98
360.766	33.45
360.977	92.84
361.189	-17.75
361.4	37.55
361.611	80.55
361.823	-1.37
362.034	58.03
362.245	60.07
362.456	-1.37
362.667	21.16
362.879	35.5
363.09	33.45
363.301	94.89
363.512	117.42
363.723	45.74
363.935	31.4
364.146	72.36
364.357	62.12
364.568	70.31
364.779	80.55
364.99	70.31
365.201	-19.8
365.412	43.69
365.623	10.92
365.834	139.94
366.045	58.03
366.256	35.5
366.467	58.03
366.678	35.5
366.889	43.69
367.1	39.59
367.311	31.4
367.522	-1.37
367.733	105.13
367.944	72.36
368.155	23.21
368.366	60.07
368.577	101.03
368.788	64.17
368.999	82.6
369.209	45.74
369.42	156.33
369.631	166.57
369.842	-25.94
370.053	55.98
370.264	113.32
370.474	88.75
370.685	41.64
370.896	60.07
371.107	96.94
371.317	101.03
371.528	129.7
371.739	53.93
371.95	94.89
372.16	10.92
372.371	80.55
372.582	19.11
372.792	27.31
373.003	72.36
373.214	31.4
373.424	51.88
373.635	41.64
373.846	113.32
374.056	35.5
374.267	117.42
374.477	92.84
374.688	39.59
374.898	60.07
375.109	109.22
375.319	82.6
375.53	84.65
375.74	86.7
375.951	94.89
376.161	15.02
376.372	68.27
376.582	58.03
376.793	92.84
377.003	23.21
377.214	64.17
377.424	68.27
377.635	-25.94
377.845	74.41
378.055	55.98
378.266	98.99
378.476	55.98
378.686	105.13
378.897	105.13
379.107	41.64
379.317	64.17
379.528	39.59
379.738	96.94
379.948	-15.7
380.158	115.37
380.369	98.99
380.579	2.73
380.789	43.69
380.999	70.31
381.21	88.75
381.42	187.05
381.63	27.31
381.84	45.74
382.05	90.79
382.261	119.46
382.471	68.27
382.681	25.26
382.891	146.09
383.101	-1.37
383.311	60.07
383.521	60.07
383.731	72.36
383.941	27.31
384.151	19.11
384.361	74.41
384.571	90.79
384.781	123.56
384.991	98.99
385.201	90.79
385.411	53.93
385.621	109.22
385.831	80.55
386.041	139.94
386.251	123.56
386.461	49.83
386.671	121.51
386.881	101.03
387.091	51.88
387.301	90.79
387.511	51.88
387.72	96.94
387.93	117.42
388.14	31.4
388.35	47.79
388.56	33.45
388.769	125.61
388.979	55.98
389.189	15.02
389.399	121.51
389.609	94.89
389.818	51.88
390.028	68.27
390.238	35.5
390.447	49.83
390.657	47.79
390.867	64.17
391.076	113.32
391.286	80.55
391.496	-7.51
391.705	43.69
391.915	96.94
392.125	80.55
392.334	47.79
392.544	123.56
392.753	15.02
392.963	121.51
393.172	58.03
393.382	-13.65
393.591	185
393.801	158.38
394.01	125.61
394.22	78.51
394.429	121.51
394.639	39.59
394.848	107.18
395.058	135.85
395.267	66.22
395.477	105.13
395.686	92.84
395.895	137.9
396.105	146.09
396.314	72.36
396.524	84.65
396.733	96.94
396.942	146.09
397.152	-7.51
397.361	70.31
397.57	17.07
397.78	72.36
397.989	154.28
398.198	150.18
398.407	60.07
398.617	127.66
398.826	125.61
399.035	109.22
399.244	203.43
399.453	150.18
399.663	72.36
399.872	113.32
400.081	107.18
400.29	84.65
400.499	141.99
400.708	123.56
400.917	129.7
401.127	123.56
401.336	41.64
401.545	135.85
401.754	127.66
401.963	195.24
402.172	152.23
402.381	137.9
402.59	62.12
402.799	90.79
403.008	101.03
403.217	98.99
403.426	187.05
403.635	115.37
403.844	146.09
404.053	129.7
404.262	127.66
404.471	146.09
404.68	180.9
404.888	162.47
405.097	232.1
405.306	228.01
405.515	248.49
405.724	252.58
405.933	254.63
406.142	94.89
406.35	195.24
406.559	193.19
406.768	260.77
406.977	187.05
407.185	293.54
407.394	264.87
407.603	148.14
407.812	228.01
408.02	305.83
408.229	295.59
408.438	277.16
408.646	230.06
408.855	299.69
409.064	277.16
409.272	271.01
409.481	254.63
409.69	336.55
409.898	311.97
410.107	311.97
410.315	457.38
410.524	373.41
410.733	395.94
410.941	373.41
411.15	465.57
411.358	531.11
411.567	484
411.775	453.28
411.984	498.34
412.192	473.76
412.401	598.69
412.609	580.26
412.818	588.45
413.026	600.74
413.234	559.78
413.443	590.5
413.651	596.64
413.86	625.31
414.068	694.94
414.276	674.46
414.485	699.04
414.693	785.05
414.901	879.26
415.11	826.01
415.318	842.4
415.526	889.5
415.734	959.13
415.943	830.11
416.151	1018.52
416.359	899.74
416.567	1014.43
416.776	989.85
416.984	1106.59
417.192	1221.27
417.4	1133.21
417.608	1061.53
417.817	1194.65
418.025	1208.98
418.233	1442.45
418.441	1276.57
418.649	1452.69
418.857	1501.84
419.065	1505.94
419.273	1440.4
419.481	1534.61
419.689	1675.92
419.897	1723.02
420.105	1706.64
420.313	1784.46
420.521	1954.44
420.729	1923.73
420.937	1923.73
421.145	1976.97
421.353	2105.99
421.561	2089.61
421.769	2341.51
421.977	2454.15
422.185	2265.74
422.393	2476.68
422.601	2646.66
422.809	2620.03
423.017	2521.73
423.224	2779.78
423.432	2810.5
423.64	2841.22
423.848	3170.94
424.056	3021.44
424.263	3121.79
424.471	3228.28
424.679	3320.44
424.887	3476.09
425.094	3471.99
425.302	3566.2
425.51	3537.52
425.718	3791.47
425.925	3764.85
426.133	4082.28
426.341	4291.18
426.548	4366.95
426.756	4536.93
426.964	4594.28
427.171	4684.39
427.379	4842.08
427.586	5010.01
427.794	5077.6
428.001	5325.4
428.209	5522.01
428.417	5339.74
428.624	6052.43
428.832	5831.25
429.039	5683.8
429.247	5917.26
429.454	6298.19
429.662	6806.08
429.869	6302.28
430.076	6791.75
430.284	6462.02
430.491	6810.18
430.699	7184.96
430.906	7332.41
431.114	7498.3
431.321	7584.31
431.528	7780.92
431.736	8401.45
431.943	8757.8
432.15	8198.7
432.358	8624.68
432.565	8987.17
432.772	8950.31
432.979	9474.59
433.187	9693.72
433.394	9380.38
433.601	10320.4
433.808	10256.91
434.016	10140.18
434.223	10406.41
434.43	11452.92
434.637	11045.38
434.844	11756.02
435.052	11917.81
435.259	11864.57
435.466	11987.44
435.673	11919.86
435.88	12863.97
436.087	13079.01
436.294	13246.94
436.501	12954.08
436.708	13212.13
436.915	13588.96
437.122	14301.65
437.329	14092.76
437.537	14590.41
437.743	14725.58
437.95	14772.68
438.157	15598.01
438.364	15901.11
438.571	16120.24
438.778	16277.94
438.985	17748.38
439.192	17025.45
439.399	17451.42
439.606	17072.55
439.813	18114.97
440.02	19022.22
440.227	18872.71
440.433	18606.48
440.64	19143.05
440.847	19126.66
441.054	19526.02
441.261	20941.16
441.467	20433.27
441.674	20926.83
441.881	21780.83
442.088	21623.14
442.294	21606.75
442.501	22122.84
442.708	22694.22
442.914	23408.97
443.121	24469.81
443.328	23781.7
443.534	25164.07
443.741	24453.43
443.948	24193.34
444.154	25848.1
444.361	25944.35
444.568	25831.71
444.774	26095.9
444.981	26235.16
445.187	26816.79
445.394	28422.39
445.6	27666.69
445.807	30392.54
446.013	29067.5
446.22	29440.23
446.426	30413.02
446.633	30988.5
446.839	32329.92
447.046	30746.84
447.252	32608.44
447.459	32696.5
447.665	32407.74
447.871	33755.3
448.078	35195.03
448.284	33484.97
448.491	34345.12
448.697	36143.24
448.903	36253.83
449.11	36380.8
449.316	36026.5
449.522	36434.05
449.728	37757.03
449.935	38176.87
450.141	37849.19
450.347	38836.31
450.553	37306.48
450.76	38094.95
450.966	39299.15
451.172	38922.33
451.378	40177.73
451.584	38926.42
451.791	40003.66
451.997	39712.84
452.203	40523.84
452.409	40173.64
452.615	40116.29
452.821	38707.29
453.027	38260.83
453.233	40325.19
453.44	38834.27
453.646	39764.04
453.852	39952.46
454.058	40294.47
454.264	38920.28
454.47	40230.98
454.676	38639.71
454.882	40001.61
455.088	36241.54
455.294	37199.99
455.5	37836.91
455.705	38209.64
455.911	36710.52
456.117	36063.36
456.323	35596.43
456.529	33747.11
456.735	35553.42
456.941	34445.47
457.147	34050.21
457.352	32970.93
457.558	32438.46
457.764	32387.26
457.97	32057.54
458.176	31056.08
458.381	31338.7
458.587	29786.34
458.793	29741.28
458.999	28145.92
459.204	30511.32
459.41	29640.93
459.616	27443.46
459.821	27625.73
460.027	27898.11
460.233	27136.27
460.438	25600.29
460.644	25850.14
460.85	24707.38
461.055	24580.4
461.261	24217.91
461.466	22487.38
461.672	22055.26
461.878	23658.82
462.083	21844.32
462.289	21367.14
462.494	21252.45
462.7	20242.81
462.905	19808.64
463.111	20742.51
463.316	20511.09
463.522	19966.33
463.727	20146.55
463.932	20355.44
464.138	19677.57
464.343	20076.92
464.549	19159.43
464.754	20013.43
464.959	20087.16
465.165	19282.31
465.37	18878.86
465.575	18278.8
465.781	19030.41
465.986	19356.04
466.191	18438.55
466.397	17996.18
466.602	17265.06
466.807	17818.01
467.012	17883.55
467.218	17871.26
467.423	17680.8
467.628	17691.04
467.833	18655.63
468.038	17957.27
468.244	17375.65
468.449	18190.74
468.654	17381.79
468.859	17283.49
469.064	17144.23
469.269	16271.79
469.474	16681.39
469.679	17002.92
469.885	16329.14
470.09	16464.3
470.295	16515.5
470.5	16335.28
470.705	16067
470.91	16095.67
471.115	15643.07
471.32	15829.43
471.525	15833.53
471.73	15649.21
471.935	15532.48
472.139	14940.61
472.344	15092.16
472.549	15038.92
472.754	14746.06
472.959	14580.17
473.164	14238.16
473.369	14021.08
473.574	14719.43
473.778	14463.44
473.983	14430.67
474.188	14176.72
474.393	13636.06
474.598	13586.91
474.802	13445.6
475.007	13468.13
475.212	13353.44
475.417	12909.03
475.621	12966.37
475.826	13046.24
476.031	12964.32
476.235	12507.63
476.44	12616.17
476.645	12390.89
476.849	12483.05
477.054	12433.9
477.259	12177.9
477.463	12290.54
477.668	11799.03
477.872	12110.32
478.077	11704.82
478.282	11379.2
478.486	11540.99
478.691	11268.61
478.895	11430.4
479.1	11223.55
479.304	11270.65
479.509	11053.57
479.713	11084.29
479.918	10762.76
480.122	10545.67
480.326	10795.53
480.531	10951.17
480.735	10713.61
480.94	10695.18
481.144	10985.99
481.348	10461.71
481.553	10517
481.757	10494.47
481.961	10648.07
482.166	10754.57
482.37	10467.85
482.574	10560.01
482.778	10482.19
482.983	10811.91
483.187	10537.48
483.391	10568.2
483.595	10326.54
483.8	10285.58
484.004	10344.97
484.208	10617.35
484.412	10588.68
484.616	10373.64
484.821	10363.4
485.025	10320.4
485.229	10664.46
485.433	10338.83
485.637	10369.55
485.841	10439.18
486.045	10381.84
486.249	10424.84
486.453	10224.14
486.657	10402.32
486.861	10461.71
487.065	10287.63
487.269	10310.16
487.473	10265.1
487.677	10281.49
487.881	10822.15
488.085	10437.13
488.289	10463.75
488.493	10347.02
488.697	10717.7
488.901	10615.3
489.105	10484.23
489.309	10609.16
489.512	10463.75
489.716	10418.7
489.92	10441.23
490.124	10517
490.328	10713.61
490.531	10478.09
490.735	10574.35
490.939	10746.37
491.143	10519.05
491.346	10650.12
491.55	11024.9
491.754	10789.38
491.958	11262.46
492.161	10897.92
492.365	11123.2
492.569	10891.78
492.772	10922.5
492.976	11256.32
493.18	11137.54
493.383	11069.95
493.587	11549.18
493.79	11465.21
493.994	11356.67
494.197	11352.57
494.401	11457.02
494.605	11715.06
494.808	11821.56
495.012	11733.5
495.215	11762.17
495.419	11790.84
495.622	11848.18
495.825	12048.88
496.029	11901.43
496.232	12394.99
496.436	12280.3
496.639	12696.04
496.843	12478.96
497.046	12849.64
497.249	12734.95
497.453	13025.76
497.656	13314.53
497.859	12900.84
498.063	13220.32
498.266	13765.08
498.469	13380.06
498.673	13554.14
498.876	13625.82
499.079	14023.12
499.282	13951.45
499.485	14399.95
499.689	14336.46
499.892	14619.08
500.095	14547.4
500.298	14836.17
500.501	14918.09
500.705	15438.27
500.908	15503.81
501.111	15432.13
501.314	15667.64
501.517	15591.87
501.72	15987.13
501.923	15944.12
502.126	16486.83
502.329	16624.04
502.532	16550.32
502.735	16669.1
502.938	16964.01
503.141	17201.57
503.344	17443.23
503.547	17502.62
503.75	17736.09
503.953	17914.27
504.156	18024.86
504.359	18508.18
504.562	18381.2
504.765	18731.4
504.968	19128.71
505.17	19186.05
505.373	19179.91
505.576	19370.37
505.779	19585.41
505.982	19569.02
506.185	20431.22
506.387	20351.35
506.59	20539.76
506.793	20783.47
506.996	20797.81
507.198	21352.8
507.401	21029.23
507.604	21350.76
507.807	21829.98
508.009	21909.85
508.212	22260.05
508.415	22419.8
508.617	22624.59
508.82	22954.32
509.022	23152.97
509.225	23689.54
509.428	23562.56
509.63	23789.89
509.833	23806.27
510.035	24604.98
510.238	24461.62
510.44	24811.82
510.643	25106.73
510.845	25436.45
511.048	25237.8
511.25	25538.85
511.453	25841.95
511.655	26708.24
511.858	26284.31
512.06	26439.96
512.262	26867.98
512.465	26824.98
512.667	27361.55
512.87	27631.88
513.072	27748.61
513.274	28141.82
513.477	28348.67
513.679	29047.02
513.881	28805.36
514.084	29032.69
514.286	29069.55
514.488	29214.96
514.69	30187.74
514.893	30365.92
515.095	30013.66
515.297	30863.57
515.499	30976.21
515.701	31373.52
515.904	31819.97
516.106	32080.07
516.308	32075.97
516.51	32467.13
516.712	32641.21
516.914	32790.71
517.116	33521.84
517.318	33423.53
517.52	33579.18
517.722	33714.34
517.925	34230.43
518.127	34889.88
518.329	34932.89
518.531	34777.24
518.733	35594.38
518.935	35610.76
519.136	35790.98
519.338	36405.38
519.54	36356.22
519.742	36388.99
519.944	36759.67
520.146	37435.5
520.348	37828.71
520.55	37795.95
520.752	38086.76
520.954	38271.07
521.155	38373.47
521.357	38750.3
521.559	39503.95
521.761	39536.72
521.963	39481.42
522.164	39835.72
522.366	39968.84
522.568	40417.35
522.77	40529.98
522.971	41306.16
523.173	40849.47
523.375	41293.88
523.576	41125.94
523.778	41504.82
523.98	42160.17
524.181	42326.05
524.383	42321.96
524.584	42725.41
524.786	42727.45
524.988	42485.79
525.189	42684.45
525.391	43259.93
525.592	43292.69
525.794	43573.27
525.995	43814.93
526.197	43958.28
526.398	43819.02
526.6	44216.33
526.801	44648.45
527.003	44544
527.204	44390.41
527.406	44826.62
527.607	45182.97
527.808	45623.28
528.01	44208.14
528.211	44986.36
528.412	46071.79
528.614	45434.87
528.815	45608.95
529.016	46051.31
529.218	45307.9
529.419	45500.4
529.62	45436.92
529.822	45682.67
530.023	45821.94
530.224	46182.38
530.425	45821.94
530.626	45846.51
530.828	45615.09
531.029	46731.23
531.23	45971.44
531.431	46278.63
531.632	46368.74
531.833	46608.36
532.035	46292.97
532.236	46479.33
532.437	46409.7
532.638	46249.96
532.839	46743.52
533.04	46186.47
533.241	46358.5
533.442	47095.77
533.643	46360.55
533.844	46368.74
534.045	46573.54
534.246	46149.61
534.447	46862.3
534.648	46438.37
534.849	46407.65
535.05	46108.65
535.251	46313.45
535.451	46239.72
535.652	46526.44
535.853	46477.29
536.054	46424.04
536.255	46682.08
536.456	46264.3
536.657	47026.14
536.857	46278.63
537.058	46055.4
537.259	46485.48
537.46	46454.76
537.66	46174.19
537.861	46514.15
538.062	46079.98
538.263	46239.72
538.463	46264.3
538.664	46233.58
538.865	46567.4
539.065	46782.43
539.266	45891.57
539.466	46485.48
539.667	45520.88
539.868	46178.28
540.068	46041.07
540.269	45785.07
540.469	46202.86
540.67	45881.33
540.87	46280.68
541.071	45860.85
541.271	46227.43
541.472	45662.19
541.672	45715.44
541.873	45901.81
542.073	45576.18
542.274	46458.85
542.474	45529.08
542.675	45563.89
542.875	45844.46
543.075	46211.05
543.276	45293.56
543.476	45854.7
543.676	45375.48
543.877	45649.91
544.077	45606.9
544.277	45604.85
544.478	45565.94
544.678	45348.85
544.878	45527.03
545.078	45551.6
545.279	45428.73
545.479	45221.88
545.679	45617.14
545.879	45424.63
546.079	45330.42
546.28	45127.67
546.48	44826.62
546.68	45715.44
546.88	45617.14
547.08	45375.48
547.28	45395.96
547.48	44855.29
547.68	45201.4
547.88	45015.04
548.081	45457.4
548.281	45379.57
548.481	45301.75
548.681	45352.95
548.881	45481.97
549.081	45340.66
549.28	44953.6
549.48	45531.12
549.68	45125.63
549.88	45432.82
550.08	44877.82
550.28	45195.26
550.48	44759.04
550.68	45199.35
550.88	44976.12
551.08	44990.46
551.279	45469.68
551.479	44771.33
551.679	45264.89
551.879	44937.21
552.079	45158.39
552.278	44957.69
552.478	45219.83
552.678	45299.7
552.878	45377.53
553.077	45361.14
553.277	44642.31
553.477	45459.44
553.676	44750.85
553.876	44959.74
554.076	44877.82
554.275	44937.21
554.475	44562.43
554.674	45058.04
554.874	44814.33
555.074	44740.61
555.273	44732.42
555.473	44746.75
555.672	44697.6
555.872	44697.6
556.071	44683.26
556.271	44738.56
556.47	44787.71
556.67	44642.31
556.869	44361.73
557.068	44664.83
557.268	44576.77
557.467	44310.53
557.667	44544
557.866	44457.99
558.065	44371.97
558.265	44290.05
558.464	44154.89
558.663	44673.02
558.863	43673.62
559.062	44476.42
559.261	43726.86
559.461	44437.51
559.66	43825.17
559.859	44183.56
560.058	43776.01
560.258	44099.59
560.457	43859.98
560.656	43657.23
560.855	43472.92
561.054	43839.5
561.253	43534.35
561.453	43907.08
561.652	43780.11
561.851	43849.74
562.05	44087.31
562.249	43425.81
562.448	43677.71
562.647	43395.09
562.846	43477.01
563.045	43329.56
563.244	42795.04
563.443	43186.2
563.642	42790.94
563.841	43104.28
564.04	42610.72
564.239	43114.52
564.438	42696.74
564.637	42727.45
564.836	42962.97
565.035	42125.35
565.234	42420.26
565.432	42465.31
565.631	42467.36
565.83	42700.83
566.029	42237.99
566.228	42430.5
566.427	42049.58
566.625	41769.01
566.824	41615.41
567.023	42147.88
567.222	41379.89
567.42	42270.76
567.619	41957.42
567.818	41674.8
568.016	41330.74
568.215	41777.2
568.414	41543.73
568.612	41824.3
568.811	41115.7
569.01	41465.91
569.208	40702.01
569.407	41177.14
569.605	40822.84
569.804	41279.54
570.002	41005.11
570.201	40808.51
570.4	40501.31
570.598	40511.55
570.797	40177.73
570.995	40648.77
571.193	40185.93
571.392	40667.2
571.59	39995.46
571.789	40329.28
571.987	39712.84
572.186	40376.39
572.384	39759.95
572.582	40067.14
572.781	39919.69
572.979	39565.39
573.177	39536.72
573.376	39725.13
573.574	39207
573.772	39598.16
573.971	39170.13
574.169	38834.27
574.367	39217.24
574.565	39041.11
574.763	39004.25
574.962	38967.38
575.16	38318.18
575.358	38641.76
575.556	38400.1
575.754	39004.25
575.952	38109.29
576.151	38539.36
576.349	37689.45
576.547	38004.84
576.745	37996.65
576.943	37959.78
577.141	37693.55
577.339	37605.48
577.537	37605.48
577.735	37632.11
577.933	37083.25
578.131	37482.61
578.329	37161.08
578.527	36933.75
578.725	37167.22
578.923	37482.61
579.121	36982.9
579.319	36794.49
579.516	36755.58
579.714	36808.82
579.912	36454.53
580.11	36057.22
580.308	36636.8
580.506	36221.06
580.704	35930.25
580.901	36331.65
581.099	36370.56
581.297	35979.4
581.495	35950.73
581.692	35950.73
581.89	35453.07
582.088	35799.18
582.285	35809.42
582.483	35598.48
582.681	35391.63
582.878	35045.52
583.076	35229.84
583.274	35244.18
583.471	34918.55
583.669	34902.17
583.866	34746.52
584.064	34910.36
584.262	34502.81
584.459	34580.63
584.657	34371.74
584.854	34719.9
585.052	33949.86
585.249	34191.52
585.447	34267.3
585.644	33884.33
585.841	33906.85
586.039	34447.52
586.236	33841.32
586.434	33460.4
586.631	33484.97
586.828	33552.55
587.026	33345.71
587.223	33607.85
587.42	33450.16
587.618	33288.37
587.815	32905.4
588.012	33104.05
588.21	32948.4
588.407	33042.61
588.604	33048.75
588.801	32344.25
588.999	32401.6
589.196	32399.55
589.393	32315.58
589.59	32159.94
589.787	32356.54
589.984	32182.46
590.182	31799.49
590.379	32082.11
590.576	31834.31
590.773	31977.67
590.97	31535.31
591.167	31838.4
591.364	31238.35
591.561	31447.24
591.758	31289.55
591.955	31170.77
592.152	31555.79
592.349	31394
592.546	31133.9
592.743	31109.33
592.94	30525.66
593.137	30861.52
593.334	30769.37
593.531	30466.27
593.727	31113.42
593.924	30511.32
594.121	30515.42
594.318	30845.14
594.515	30081.25
594.712	30402.78
594.908	30105.82
595.105	30259.42
595.302	29903.07
595.499	30025.95
595.696	29862.11
595.892	29731.04
596.089	30042.34
596.286	29438.19
596.482	29841.64
596.679	29417.71
596.876	29423.85
597.072	29370.6
597.269	29331.69
597.466	28836.08
597.662	29147.37
597.859	29110.51
598.055	29028.59
598.252	28821.75
598.448	28791.03
598.645	28479.74
598.841	28545.27
599.038	28600.57
599.234	28444.92
599.431	27961.6
599.627	28160.25
599.824	28387.58
600.02	27910.4
600.217	28018.94
600.413	27730.18
600.609	27728.13
600.806	28006.66
601.002	27771.14
601.198	27664.64
601.395	27341.07
601.591	27519.24
601.787	27541.77
601.984	27287.82
602.18	27017.49
602.376	27257.1
602.572	26894.61
602.769	27046.16
602.965	26818.83
603.161	27099.41
603.357	26904.85
603.553	26880.27
603.75	26648.85
603.946	26378.52
604.142	26861.84
604.338	25952.54
604.534	26444.06
604.73	26392.86
604.926	25973.02
605.122	26128.67
605.318	26050.85
605.514	25942.3
605.71	26147.1
605.906	25934.11
606.102	25725.22
606.298	25930.01
606.494	25725.22
606.69	26030.37
606.886	25897.25
607.082	25194.79
607.278	25733.41
607.474	24985.9
607.67	25063.72
607.866	24787.25
608.062	25463.08
608.257	25137.45
608.453	25342.25
608.649	25186.6
608.845	25008.43
609.041	25157.93
609.236	25098.54
609.432	24936.75
609.628	24920.37
609.824	24547.64
610.019	24766.77
610.215	24666.42
610.411	24996.14
610.606	24371.51
610.802	24824.11
610.998	24410.42
611.193	24609.08
611.389	24445.24
611.584	24467.77
611.78	24131.9
611.976	24121.66
612.171	24260.92
612.367	24420.66
612.562	24211.77
612.758	23759.17
612.953	23642.43
613.149	23980.35
613.344	23963.96
613.539	23986.49
613.735	23888.19
613.93	23824.7
614.126	23509.32
614.321	24058.17
614.517	23822.66
614.712	23636.29
614.907	23300.42
615.103	23578.95
615.298	23449.92
615.493	23699.78
615.688	22962.51
615.884	23652.67
616.079	22868.3
616.274	23415.11
616.47	23347.53
616.665	23238.98
616.86	22880.59
617.055	23083.34
617.25	23320.9
617.445	23044.43
617.641	22886.73
617.836	22884.69
618.031	22597.97
618.226	22796.62
618.421	22501.72
618.616	22772.05
618.811	22315.35
619.006	22501.72
619.201	22026.59
619.396	22399.32
619.591	22042.97
619.786	22288.73
619.981	21946.72
620.176	22311.25
620.371	21913.95
620.566	21838.17
620.761	21469.54
620.956	21842.27
621.151	21479.78
621.346	21651.81
621.541	21307.75
621.735	21250.41
621.93	21018.99
622.125	21117.29
622.32	20709.74
622.515	20756.85
622.709	20447.6
622.904	20674.93
623.099	20357.49
623.294	20361.59
623.488	20062.58
623.683	20091.26
623.878	20060.54
624.072	19806.59
624.267	19978.62
624.462	19759.49
624.656	19515.78
624.851	19831.16
625.046	19577.22
625.24	19286.4
625.435	19339.65
625.629	19272.07
625.824	18839.95
626.018	19020.17
626.213	18332.05
626.407	18569.62
626.602	18653.58
626.796	18301.33
626.991	18407.83
627.185	18284.95
627.38	18129.3
627.574	18160.02
627.768	17818.01
627.963	17625.5
628.157	17668.51
628.352	17987.99
628.546	17553.82
628.74	17684.89
628.935	17451.42
629.129	17336.74
629.323	17103.27
629.517	17013.16
629.712	17410.46
629.906	17000.87
630.1	16728.49
630.294	16849.32
630.489	16624.04
630.683	16705.96
630.877	16468.4
631.071	16396.72
631.265	16484.78
631.459	16351.67
631.653	16220.6
631.848	16007.61
632.042	16054.71
632.236	15913.4
632.43	15763.9
632.624	15894.97
632.818	15686.08
633.012	15620.54
633.206	15767.99
633.4	15346.11
633.594	15024.58
633.788	15241.67
633.982	15268.29
634.176	15321.54
634.369	15083.97
634.563	15030.73
634.757	15131.08
634.951	14969.29
635.145	14852.55
635.339	14866.89
635.533	14727.63
635.726	14647.76
635.92	14324.18
636.114	14508.49
636.308	14416.33
636.501	14297.55
636.695	14180.82
636.889	14350.8
637.083	13867.48
637.276	13715.93
637.47	13844.95
637.664	13613.53
637.857	13754.84
638.051	13451.74
638.244	13500.89
638.438	13492.7
638.632	13369.82
638.825	13302.24
639.019	13081.06
639.212	13013.48
639.406	13056.48
639.599	12870.12
639.793	13009.38
639.986	12943.85
640.18	12847.59
640.373	12722.66
640.567	12638.7
640.76	12581.35
640.954	12556.78
641.147	12491.24
641.34	12456.43
641.534	12556.78
641.727	12126.71
641.92	12251.63
642.114	12241.39
642.307	12169.71
642.5	11977.2
642.694	11676.15
642.887	11657.72
643.08	11758.07
643.273	11837.94
643.467	11631.1
643.66	11643.39
643.853	11622.91
644.046	11377.15
644.239	11577.85
644.432	11293.18
644.626	11135.49
644.819	10992.13
645.012	11172.35
645.205	11182.59
645.398	11241.98
645.591	10969.6
645.784	10762.76
645.977	10785.29
646.17	10873.35
646.363	10582.54
646.556	10568.2
646.749	10680.84
646.942	10703.37
647.135	10514.95
647.328	10613.26
647.521	10369.55
647.714	10185.23
647.907	10162.7
648.099	10340.88
648.292	10324.49
648.485	10091.02
648.678	10017.3
648.871	10232.33
649.064	10099.22
649.256	10113.55
649.449	10019.35
649.642	9853.46
649.835	9626.14
650.027	9675.29
650.22	9622.04
650.413	9667.1
650.605	9484.83
650.798	9499.16
650.991	9304.6
651.183	9533.98
651.376	9275.93
651.568	9366.04
651.761	9302.56
651.954	9245.21
652.146	9280.03
652.339	9120.29
652.531	9036.32
652.724	8950.31
652.916	8829.48
653.109	8970.79
653.301	8837.67
653.494	8776.23
653.686	8651.3
653.879	8682.02
654.071	8526.38
654.263	8661.54
654.456	8682.02
654.648	8684.07
654.84	8438.31
655.033	8364.59
655.225	8428.07
655.417	8428.07
655.61	8313.39
655.802	8120.88
655.994	8229.42
656.186	8346.16
656.379	8206.89
656.571	8127.02
656.763	8145.45
656.955	7819.83
657.148	7977.52
657.34	8045.1
657.532	7938.61
657.724	7694.9
657.916	8026.67
658.108	7662.13
658.3	7739.96
658.492	7789.11
658.684	7752.24
658.876	7588.41
659.068	7621.17
659.26	7379.51
659.452	7586.36
659.644	7326.27
659.836	7373.37
660.028	7402.04
660.22	7213.63
660.412	7246.4
660.604	7291.45
660.796	7289.4
660.988	7184.96
661.18	7004.74
661.372	7025.22
661.563	7092.8
661.755	6986.3
661.947	6896.19
662.139	6804.03
662.331	6869.57
662.522	6883.91
662.714	6867.52
662.906	6758.98
663.097	6875.71
663.289	6703.68
663.481	6875.71
663.673	6593.09
663.864	6486.6
664.056	6537.8
664.247	6666.82
664.439	6568.52
664.631	6617.67
664.822	6666.82
665.014	6414.92
665.205	6431.3
665.397	6423.11
665.588	6318.67
665.78	6193.74
665.971	6341.19
666.163	6218.32
666.354	6316.62
666.546	6179.4
666.737	6285.9
666.929	6193.74
667.12	6203.98
667.311	6036.05
667.503	6011.47
667.694	5988.94
667.885	6007.37
668.077	6036.05
668.268	5976.66
668.459	5864.02
668.651	5812.82
668.842	5841.49
669.033	5925.46
669.224	5685.84
669.416	5741.14
669.607	5638.74
669.798	5677.65
669.989	5638.74
670.18	5655.12
670.371	5798.48
670.563	5407.32
670.754	5710.42
670.945	5571.16
671.136	5470.81
671.327	5487.19
671.518	5462.62
671.709	5491.29
671.9	5503.57
672.091	5470.81
672.282	5347.93
672.473	5503.57
672.664	5349.98
672.855	5409.37
673.046	5335.64
673.237	5528.15
673.428	5227.1
673.619	5409.37
673.809	5143.13
674	5194.33
674.191	5335.64
674.382	5114.46
674.573	5112.41
674.764	5159.52
674.954	5132.89
675.145	5083.74
675.336	5255.77
675.527	4997.73
675.717	5053.02
675.908	5096.03
676.099	4981.34
676.289	4995.68
676.48	4823.65
676.671	5061.21
676.861	5046.88
677.052	4883.04
677.243	4741.73
677.433	4905.57
677.624	4844.13
677.814	4831.84
678.005	5010.01
678.195	4835.94
678.386	4864.61
678.576	4848.22
678.767	4850.27
678.957	4815.46
679.148	4817.51
679.338	4835.94
679.529	4856.42
679.719	4672.1
679.909	4758.11
680.1	4668
680.29	4758.11
680.481	4612.71
680.671	4743.78
680.861	4731.49
681.052	4645.48
681.242	4475.49
681.432	4680.29
681.622	4696.67
681.813	4655.72
682.003	4530.79
682.193	4491.88
682.383	4495.97
682.573	4668
682.764	4635.24
682.954	4680.29
683.144	4426.34
683.334	4485.73
683.524	4668
683.714	4532.84
683.904	4512.36
684.094	4358.76
684.284	4465.25
684.474	4569.7
684.664	4479.59
684.854	4469.35
685.044	4381.29
685.234	4471.4
685.424	4334.18
685.614	4485.73
685.804	4379.24
685.994	4323.94
686.184	4344.42
686.374	4250.22
686.564	4250.22
686.753	4274.79
686.943	4162.16
687.133	4223.59
687.323	4211.31
687.513	4196.97
687.702	4293.23
687.892	4047.47
688.082	4151.92
688.272	4254.31
688.461	4172.39
688.651	4147.82
688.841	4074.09
689.03	4074.09
689.22	4133.48
689.41	3998.32
689.599	4014.7
689.789	4174.44
689.979	4033.13
690.168	3994.22
690.358	3988.08
690.547	3934.83
690.737	3965.55
690.926	4094.57
691.116	3768.95
691.305	4070
691.495	3816.05
691.684	3842.67
691.874	3885.68
692.063	3873.39
692.252	3934.83
692.442	3838.58
692.631	3787.38
692.82	3760.75
693.01	3854.96
693.199	3848.82
693.388	3807.86
693.578	3818.1
693.767	3832.43
693.956	3717.75
694.146	3816.05
694.335	3674.74
694.524	3656.31
694.713	3730.03
694.902	3852.91
695.092	3744.37
695.281	3621.49
695.47	3607.16
695.659	3717.75
695.848	3631.73
696.037	3777.14
696.226	3652.21
696.415	3613.3
696.604	3766.9
696.793	3684.98
696.982	3734.13
697.171	3775.09
697.36	3558
697.549	3566.2
697.738	3617.4
697.927	3558
698.116	3637.88
698.305	3584.63
698.494	3529.33
698.683	3619.44
698.872	3639.92
699.061	3533.43
699.25	3451.51
699.438	3578.48
699.627	3598.96
699.816	3592.82
700.005	3512.95
700.193	3367.54
700.382	3461.75
700.571	3529.33
700.76	3578.48
700.948	3342.97
701.137	3519.09
701.326	3504.76
701.514	3437.17
701.703	3474.04
701.892	3408.5
702.08	3531.38
702.269	3500.66
702.457	3308.15
702.646	3363.45
702.834	3451.51
703.023	3402.36
703.212	3492.47
703.4	3291.77
703.589	3226.23
703.777	3517.04
703.965	3383.93
704.154	3410.55
704.342	3363.45
704.531	3414.65
704.719	3357.3
704.907	3422.84
705.096	3234.43
705.284	3390.07
705.472	3226.23
705.661	3220.09
705.849	3226.23
706.037	3353.21
706.226	3224.19
706.414	3326.58
706.602	3367.54
706.79	3242.62
706.979	3308.15
707.167	3392.12
707.355	3351.16
707.543	3299.96
707.731	3275.38
707.919	3183.23
708.107	3199.61
708.296	3234.43
708.484	3226.23
708.672	3211.9
708.86	3140.22
709.048	3228.28
709.236	3183.23
709.424	3215.99
709.612	3177.08
709.8	3129.98
709.988	3037.82
710.176	3256.95
710.364	3037.82
710.551	3218.04
710.739	3007.1
710.927	3062.4
711.115	3185.27
711.303	3066.49
711.491	3177.08
711.679	3037.82
711.866	3029.63
712.054	3080.83
712.242	3035.77
712.43	3091.07
712.617	2957.95
712.805	3031.68
712.993	3064.44
713.181	2933.37
713.368	3005.05
713.556	2972.29
713.744	3019.39
713.931	3152.51
714.119	3041.92
714.306	3062.4
714.494	3080.83
714.682	3099.26
714.869	2968.19
715.057	3011.2
715.244	2826.88
715.432	2980.48
715.619	3039.87
715.807	2859.65
715.994	2916.99
716.182	2982.53
716.369	2794.11
716.556	3025.53
716.744	2845.31
716.931	2826.88
717.119	2914.94
717.306	2939.52
717.493	2980.48
717.681	2755.2
717.868	2908.8
718.055	2951.81
718.242	2859.65
718.43	2910.85
718.617	2873.98
718.804	2939.52
718.991	2833.02
719.179	2939.52
719.366	2794.11
719.553	2884.22
719.74	2687.62
719.927	2693.76
720.114	2785.92
720.301	2796.16
720.488	2656.9
720.676	2785.92
720.863	2718.34
721.05	2726.53
721.237	2722.43
721.424	2830.98
721.611	2683.52
721.798	2693.76
721.985	2704
722.172	2714.24
722.358	2728.58
722.545	2790.02
722.732	2669.19
722.919	2658.95
723.106	2628.23
723.293	2669.19
723.48	2615.94
723.667	2572.93
723.853	2597.51
724.04	2620.03
724.227	2546.31
724.414	2550.4
724.6	2593.41
724.787	2632.32
724.974	2714.24
725.161	2603.65
725.347	2521.73
725.534	2593.41
725.72	2546.31
725.907	2566.79
726.094	2587.27
726.28	2554.5
726.467	2521.73
726.653	2390.66
726.84	2525.83
727.027	2493.06
727.213	2497.16
727.4	2493.06
727.586	2527.88
727.773	2452.1
727.959	2443.91
728.145	2431.62
728.332	2474.63
728.518	2337.41
728.705	2529.92
728.891	2466.44
729.077	2499.2
729.264	2407.05
729.45	2644.61
729.636	2601.6
729.823	2448.01
730.009	2476.68
730.195	2382.47
730.382	2491.01
730.568	2527.88
730.754	2433.67
730.94	2372.23
731.126	2333.32
731.313	2407.05
731.499	2312.84
731.685	2394.76
731.871	2380.42
732.057	2431.62
732.243	2443.91
732.429	2337.41
732.615	2308.74
732.801	2353.8
732.987	2343.56
733.173	2398.85
733.359	2431.62
733.545	2370.18
733.731	2327.18
733.917	2464.39
734.103	2275.98
734.289	2321.03
734.475	2253.45
734.661	2325.13
734.847	2292.36
735.033	2220.68
735.219	2247.3
735.404	2321.03
735.59	2273.93
735.776	2286.22
735.962	2179.72
736.148	2245.26
736.333	2265.74
736.519	2128.52
736.705	2357.89
736.89	2349.7
737.076	2220.68
737.262	2198.15
737.447	2149
737.633	2146.95
737.819	2161.29
738.004	2173.58
738.19	2136.71
738.375	2222.73
738.561	2241.16
738.747	2062.99
738.932	2167.43
739.118	2261.64
739.303	2151.05
739.489	2163.34
739.674	2171.53
739.859	2105.99
740.045	2087.56
740.23	2138.76
740.416	2050.7
740.601	2069.13
740.786	2089.61
740.972	2032.27
741.157	2079.37
741.342	2005.64
741.528	2024.08
741.713	1956.49
741.898	2005.64
742.084	2042.51
742.269	2013.84
742.454	1927.82
742.639	2032.27
742.824	1970.83
743.01	1993.36
743.195	1966.73
743.38	1886.86
743.565	1974.92
743.75	1927.82
743.935	1948.3
744.12	1964.68
744.305	1976.97
744.49	1827.47
744.675	1835.66
744.86	1923.73
745.045	1770.13
745.23	1852.05
745.415	1811.09
745.6	1843.85
745.785	1862.29
745.97	1882.77
746.155	1817.23
746.34	1890.96
746.525	1759.89
746.71	1784.46
746.895	1788.56
747.079	1632.91
747.264	1759.89
747.449	1809.04
747.634	1776.27
747.819	1768.08
748.003	1600.15
748.188	1643.15
748.373	1751.7
748.557	1688.21
748.742	1536.66
748.927	1704.59
749.111	1624.72
749.296	1667.73
749.481	1616.53
749.665	1659.54
749.85	1573.52
750.034	1669.78
750.219	1518.23
750.404	1493.65
750.588	1489.56
750.773	1548.95
750.957	1573.52
751.141	1516.18
751.326	1460.88
751.51	1481.36
751.695	1538.71
751.879	1497.75
752.064	1456.79
752.248	1464.98
752.432	1526.42
752.617	1440.4
752.801	1557.14
752.985	1493.65
753.17	1456.79
753.354	1399.45
753.538	1356.44
753.722	1264.28
753.907	1378.97
754.091	1372.82
754.275	1393.3
754.459	1290.9
754.643	1297.05
754.828	1456.79
755.012	1301.14
755.196	1315.48
755.38	1323.67
755.564	1268.38
755.748	1264.28
755.932	1284.76
756.116	1295
756.3	1338.01
756.484	1223.32
756.668	1184.41
756.852	1206.94
757.036	1176.22
757.22	1112.73
757.404	1092.25
757.588	1157.78
757.772	1241.75
757.956	1174.17
758.14	1163.93
758.323	1114.78
758.507	1221.27
758.691	1098.39
758.875	1174.17
759.059	1069.72
759.242	1120.92
759.426	1086.11
759.61	1133.21
759.794	1094.3
759.977	1198.74
760.161	1170.07
760.345	1024.67
760.528	1108.63
760.712	1147.55
760.895	1151.64
761.079	989.85
761.263	1071.77
761.446	989.85
761.63	1055.39
761.813	1104.54
761.997	1028.76
762.18	1084.06
762.364	1090.2
762.547	1016.48
762.731	1024.67
762.914	973.47
763.098	969.37
763.281	918.17
763.464	975.52
763.648	1057.43
763.831	965.28
764.015	889.5
764.198	975.52
764.381	977.56
764.564	940.7
764.748	971.42
764.931	924.32
765.114	934.56
765.297	989.85
765.481	891.55
765.664	907.93
765.847	875.17
766.03	856.73
766.213	893.6
766.397	854.69
766.58	844.45
766.763	942.75
766.946	881.31
767.129	893.6
767.312	854.69
767.495	821.92
767.678	924.32
767.861	858.78
768.044	928.41
768.227	785.05
768.41	838.3
768.593	789.15
768.776	842.4
768.959	860.83
769.142	834.21
769.324	862.88
769.507	815.77
769.69	875.17
769.873	838.3
770.056	862.88
770.239	760.48
770.421	826.01
770.604	721.57
770.787	862.88
770.97	760.48
771.152	866.97
771.335	711.33
771.518	719.52
771.7	752.29
771.883	707.23
772.066	780.96
772.248	701.09
772.431	754.34
772.613	801.44
772.796	703.14
772.978	744.1
773.161	729.76
773.343	752.29
773.526	744.1
773.708	731.81
773.891	828.06
774.073	713.38
774.256	733.86
774.438	760.48
774.621	719.52
774.803	723.62
774.985	703.14
775.168	729.76
775.35	746.14
775.532	760.48
775.715	756.38
775.897	668.32
776.079	641.7
776.261	748.19
776.444	653.98
776.626	719.52
776.808	625.31
776.99	678.56
777.173	670.37
777.355	637.6
777.537	572.07
777.719	596.64
777.901	678.56
778.083	656.03
778.265	567.97
778.447	721.57
778.629	584.35
778.811	500.39
778.993	604.83
779.175	606.88
779.357	656.03
779.539	555.68
779.721	574.11
779.903	602.79
780.085	531.11
780.267	576.16
780.449	563.87
780.631	529.06
780.812	598.69
780.994	510.63
781.176	596.64
781.358	557.73
781.54	555.68
781.721	572.07
781.903	606.88
782.085	565.92
782.267	465.57
782.448	436.9
782.63	438.95
782.812	514.72
782.993	475.81
783.175	543.39
783.357	527.01
783.538	453.28
783.72	465.57
783.901	502.43
784.083	432.8
784.264	408.23
784.446	477.86
784.627	451.24
784.809	457.38
784.99	410.28
785.172	490.15
785.353	391.84
785.535	490.15
785.716	457.38
785.897	445.09
786.079	457.38
786.26	404.13
786.441	393.89
786.623	441
786.804	418.47
786.985	371.36
787.167	408.23
787.348	416.42
787.529	402.08
787.71	357.03
787.891	420.52
788.073	410.28
788.254	481.96
788.435	383.65
788.616	389.8
788.797	346.79
788.978	422.56
789.159	228.01
789.34	391.84
789.522	352.93
789.703	318.12
789.884	367.27
790.065	322.21
790.246	342.69
790.427	400.04
790.607	369.32
790.788	359.08
790.969	402.08
791.15	451.24
791.331	320.17
791.512	350.89
791.693	248.49
791.874	361.13
792.054	332.45
792.235	326.31
792.416	287.4
792.597	346.79
792.778	301.73
792.958	324.26
793.139	281.25
793.32	334.5
793.5	328.36
793.681	314.02
793.862	275.11
794.042	289.45
794.223	252.58
794.404	281.25
794.584	242.34
794.765	264.87
794.945	309.93
795.126	336.55
795.306	346.79
795.487	295.59
795.667	297.64
795.848	281.25
796.028	305.83
796.209	268.97
796.389	314.02
796.57	199.34
796.75	291.49
796.93	330.41
797.111	203.43
797.291	293.54
797.471	277.16
797.652	266.92
797.832	275.11
798.012	301.73
798.192	168.62
798.373	252.58
798.553	260.77
798.733	281.25
798.913	232.1
799.093	252.58
799.274	211.62
799.454	238.25
799.634	338.6
799.814	228.01
799.994	230.06
800.174	211.62
800.354	248.49
800.534	228.01
800.714	238.25
800.894	254.63
801.074	205.48
801.254	182.95
801.434	283.3
801.614	283.3
801.794	187.05
801.974	729.76
802.154	311.97
802.334	234.15
802.514	168.62
802.693	264.87
802.873	203.43
803.053	172.71
803.233	209.58
803.413	148.14
803.592	215.72
803.772	279.21
803.952	182.95
804.131	187.05
804.311	240.29
804.491	178.86
804.67	221.86
804.85	168.62
805.03	187.05
805.209	244.39
805.389	191.14
805.568	170.66
805.748	199.34
805.928	137.9
806.107	240.29
806.287	230.06
806.466	164.52
806.646	201.38
806.825	228.01
807.004	178.86
807.184	158.38
807.363	107.18
807.543	213.67
807.722	164.52
807.901	166.57
808.081	217.77
808.26	60.07
808.439	187.05
808.619	115.37
808.798	262.82
808.977	207.53
809.156	252.58
809.336	189.1
809.515	199.34
809.694	178.86
809.873	195.24
810.052	131.75
810.231	113.32
810.411	131.75
810.59	115.37
810.769	156.33
810.948	191.14
811.127	211.62
811.306	230.06
811.485	232.1
811.664	187.05
811.843	215.72
812.022	45.74
812.201	205.48
812.38	146.09
812.559	86.7
812.737	191.14
812.916	164.52
813.095	129.7
813.274	131.75
813.453	172.71
813.632	166.57
813.811	123.56
813.989	80.55
814.168	150.18
814.347	166.57
814.526	129.7
814.704	90.79
814.883	154.28
815.062	123.56
815.24	150.18
815.419	172.71
815.598	139.94
815.776	105.13
815.955	72.36
816.133	162.47
816.312	107.18
816.49	133.8
816.669	96.94
816.847	158.38
817.026	96.94
817.204	203.43
817.383	92.84
817.561	168.62
817.74	88.75
817.918	92.84
818.097	113.32
818.275	94.89
818.453	135.85
818.632	156.33
818.81	76.46
818.988	121.51
819.167	96.94
819.345	90.79
819.523	146.09
819.701	109.22
819.879	86.7
820.058	105.13
820.236	166.57
820.414	197.29
820.592	119.46
820.77	121.51
820.948	125.61
821.127	43.69
821.305	86.7
821.483	98.99
821.661	115.37
821.839	119.46
822.017	62.12
822.195	51.88
822.373	84.65
822.551	105.13
822.729	117.42
822.907	90.79
823.085	39.59
823.262	60.07
823.44	119.46
823.618	121.51
823.796	125.61
823.974	109.22
824.152	129.7
824.329	-1.37
824.507	113.32
824.685	146.09
824.863	146.09
825.04	47.79
825.218	98.99
825.396	115.37
825.574	125.61
825.751	96.94
825.929	180.9
826.107	119.46
826.284	96.94
826.462	66.22
826.639	133.8
826.817	80.55
826.994	58.03
827.172	125.61
827.349	60.07
827.527	66.22
827.704	117.42
827.882	64.17
828.059	90.79
828.237	37.55
828.414	107.18
828.591	-38.23
828.769	103.08
828.946	98.99
829.124	101.03
829.301	66.22
829.478	105.13
829.655	109.22
829.833	98.99
830.01	105.13
830.187	86.7
830.364	164.52
830.542	47.79
830.719	182.95
830.896	74.41
831.073	148.14
831.25	121.51
831.427	31.4
831.604	41.64
831.782	121.51
831.959	105.13
832.136	84.65
832.313	47.79
832.49	64.17
832.667	45.74
832.844	39.59
833.021	121.51
833.198	92.84
833.374	98.99
833.551	105.13
833.728	45.74
833.905	113.32
834.082	21.16
834.259	88.75
834.436	90.79
834.612	96.94
834.789	64.17
834.966	115.37
835.143	80.55
835.319	37.55
835.496	78.51
835.673	58.03
835.85	84.65
836.026	53.93
836.203	58.03
836.38	41.64
836.556	82.6
836.733	-58.71
836.909	-5.46
837.086	84.65
837.262	25.26
837.439	98.99
837.616	74.41
837.792	113.32
837.968	47.79
838.145	6.83
838.321	154.28
838.498	137.9
838.674	78.51
838.851	29.35
839.027	105.13
839.203	82.6
839.38	31.4
839.556	37.55
839.732	125.61
839.909	47.79
840.085	90.79
840.261	39.59
840.437	55.98
840.614	-13.65
840.79	72.36
840.966	74.41
841.142	64.17
841.318	94.89
841.494	58.03
841.671	21.16
841.847	-7.51
842.023	60.07
842.199	39.59
842.375	66.22
842.551	15.02
842.727	0.68
842.903	113.32
843.079	-1.37
843.255	35.5
843.431	88.75
843.607	113.32
843.783	19.11
843.959	31.4
844.134	49.83
844.31	101.03
844.486	23.21
844.662	49.83
844.838	49.83
845.013	0.68
845.189	27.31
845.365	107.18
845.541	90.79
845.716	105.13
845.892	125.61
846.068	6.83
846.244	27.31
846.419	15.02
846.595	-32.08
846.77	19.11
846.946	-13.65
847.122	76.46
847.297	37.55
847.473	68.27
847.648	15.02
847.824	29.35
847.999	27.31
848.175	113.32
848.35	72.36
848.526	43.69
848.701	64.17
848.876	121.51
849.052	68.27
849.227	-7.51
849.403	-5.46
849.578	41.64
849.753	92.84
849.929	60.07
850.104	-50.52
850.279	-17.75
850.454	31.4
850.63	60.07
850.805	-19.8
850.98	17.07
851.155	43.69
851.33	-9.56
851.505	137.9
851.681	55.98
851.856	-40.28
852.031	64.17
852.206	72.36
852.381	-5.46
852.556	6.83
852.731	47.79
852.906	0.68
853.081	101.03
853.256	96.94
853.431	19.11
853.606	41.64
853.781	25.26
853.956	-13.65
854.131	47.79
854.305	2.73
854.48	-19.8
854.655	-50.52
854.83	23.21
855.005	64.17
855.18	123.56
855.354	72.36
855.529	41.64
855.704	19.11
855.879	-1.37
856.053	-9.56
856.228	21.16
856.403	23.21
856.577	-32.08
856.752	-42.32
856.926	4.78
857.101	53.93
857.276	72.36
857.45	64.17
857.625	41.64
857.799	96.94
857.974	76.46
858.148	25.26
858.323	58.03
858.497	98.99
858.672	19.11
858.846	8.87
859.02	113.32
859.195	84.65
859.369	29.35
859.543	41.64
859.718	8.87
859.892	66.22
860.066	68.27
860.241	39.59
860.415	45.74
860.589	103.08
860.763	-25.94
860.938	6.83
861.112	37.55
861.286	-40.28
861.46	64.17
861.634	12.97
861.808	64.17
861.982	-19.8
862.157	51.88
862.331	17.07
862.505	-1.37
862.679	23.21
862.853	8.87
863.027	15.02
863.201	0.68
863.375	-21.85
863.549	80.55
863.722	8.87
863.896	37.55
864.07	-46.42
864.244	35.5
864.418	35.5
864.592	72.36
864.766	-9.56
864.939	74.41
865.113	39.59
865.287	92.84
865.461	-42.32
865.634	58.03
865.808	35.5
865.982	-1.37
866.156	-17.75
866.329	-44.37
866.503	23.21
866.676	33.45
866.85	55.98
867.024	-15.7
867.197	21.16
867.371	-3.41
867.544	-32.08
867.718	-30.04
867.891	66.22
868.065	-46.42
868.238	29.35
868.412	17.07
868.585	-81.24
868.759	15.02
868.932	8.87
869.105	25.26
869.279	15.02
869.452	43.69
869.625	96.94
869.799	-13.65
869.972	6.83
870.145	-7.51
870.319	-9.56
870.492	4.78
870.665	-7.51
870.838	-27.99
871.011	-50.52
871.185	-9.56
871.358	15.02
871.531	-9.56
871.704	96.94
871.877	12.97
872.05	-32.08
872.223	6.83
872.396	64.17
872.569	25.26
872.742	-17.75
872.915	39.59
873.088	-34.13
873.261	29.35
873.434	-19.8
873.607	21.16
873.78	47.79
873.953	37.55
874.126	35.5
874.299	39.59
874.471	-13.65
874.644	-42.32
874.817	66.22
874.99	98.99
875.163	-77.14
875.335	33.45
875.508	-17.75
875.681	31.4
875.853	17.07
876.026	-17.75
876.199	-40.28
876.371	8.87
876.544	23.21
876.717	-60.76
876.889	29.35
877.062	47.79
877.234	-21.85
877.407	21.16
877.579	8.87
877.752	31.4
877.924	58.03
878.097	70.31
878.269	25.26
878.442	76.46
878.614	-7.51
878.786	39.59
878.959	35.5
879.131	27.31
879.303	17.07
879.476	41.64
879.648	2.73
879.82	72.36
879.993	37.55
880.165	21.16
880.337	19.11
880.509	17.07
880.681	-17.75
880.854	15.02
881.026	43.69
881.198	25.26
881.37	41.64
881.542	-17.75
881.714	15.02
881.886	10.92
882.058	10.92
882.23	0.68
882.402	51.88
882.574	25.26
882.746	10.92
882.918	125.61
883.09	45.74
883.262	-38.23
883.434	2.73
883.606	41.64
883.778	15.02
883.95	64.17
884.122	-17.75
884.293	21.16
884.465	17.07
884.637	49.83
884.809	29.35
884.98	-13.65
885.152	-17.75
885.324	15.02
885.496	0.68
885.667	43.69
885.839	-54.61
886.011	31.4
886.182	-66.9
886.354	-40.28
886.525	27.31
886.697	35.5
886.869	-1.37
887.04	-30.04
887.212	96.94
887.383	25.26
887.555	6.83
887.726	-32.08
887.897	29.35
888.069	55.98
888.24	-7.51
888.412	21.16
888.583	4.78
888.754	39.59
888.926	-7.51
889.097	6.83
889.268	-38.23
889.44	-17.75
889.611	25.26
889.782	-1.37
889.953	27.31
890.125	47.79
890.296	-21.85
890.467	23.21
890.638	-79.19
890.809	8.87
890.98	8.87
891.151	19.11
891.323	29.35
891.494	-46.42
891.665	-23.89
891.836	-30.04
892.007	-36.18
892.178	2.73
892.349	19.11
892.52	-42.32
892.691	-1.37
892.862	6.83
893.032	-30.04
893.203	17.07
893.374	2.73
893.545	31.4
893.716	-7.51
893.887	96.94
894.057	-46.42
894.228	-25.94
894.399	-13.65
894.57	88.75
894.74	4.78
894.911	-46.42
895.082	33.45
895.253	-15.7
895.423	-15.7
895.594	60.07
895.764	74.41
895.935	-17.75
896.106	-23.89
896.276	-23.89
896.447	21.16
896.617	-5.46
896.788	-81.24
896.958	19.11
897.129	-79.19
897.299	-13.65
897.47	29.35
897.64	27.31
897.81	19.11
897.981	55.98
898.151	-5.46
898.322	-34.13
898.492	4.78
898.662	6.83
898.832	47.79
899.003	23.21
899.173	17.07
899.343	-25.94
899.513	-34.13
