Data from USB4F104151__266__14-22-49-776.txt Node

Date: Thu Mar 13 14:22:49 EDT 2025
User: louis
Spectrometer: USB4F10415
Trigger mode: 4
Integration Time (sec): 2.000000E-2
Scans to average: 1
Electric dark correction enabled: true
Nonlinearity correction enabled: false
Boxcar width: 0
XAxis mode: Wavelengths
Number of Pixels in Spectrum: 3648
>>>>>Begin Spectral Data<<<<<
178.204	-59.9
178.424	-59.9
178.644	-59.9
178.864	-53.76
179.084	-117.25
179.304	-55.81
179.524	-0.51
179.744	60.93
179.964	22.02
180.184	-59.9
180.404	22.02
180.624	-25.09
180.844	-18.94
181.064	30.21
181.283	58.88
181.503	-18.94
181.723	-14.85
181.943	-27.14
182.163	75.26
182.383	40.45
182.602	5.63
182.822	-4.61
183.042	112.13
183.262	-47.62
183.482	58.88
183.701	-2.56
183.921	36.35
184.141	-10.75
184.361	67.07
184.58	38.4
184.8	-25.09
185.02	-23.04
185.239	48.64
185.459	7.68
185.679	87.55
185.898	-66.05
186.118	159.23
186.338	11.78
186.557	9.73
186.777	30.21
186.997	5.63
187.216	17.92
187.436	79.36
187.655	32.26
187.875	1.54
188.095	-2.56
188.314	48.64
188.534	42.5
188.753	122.37
188.973	-0.51
189.192	103.93
189.412	22.02
189.631	34.3
189.851	42.5
190.07	46.59
190.29	-8.7
190.509	-16.9
190.729	30.21
190.948	-6.66
191.168	112.13
191.387	30.21
191.607	-10.75
191.826	-4.61
192.045	38.4
192.265	11.78
192.484	71.17
192.704	40.45
192.923	5.63
193.142	62.98
193.362	-64
193.581	91.65
193.8	38.4
194.02	30.21
194.239	9.73
194.458	1.54
194.678	19.97
194.897	22.02
195.116	26.11
195.335	-16.9
195.555	7.68
195.774	36.35
195.993	-10.75
196.212	83.45
196.432	-8.7
196.651	-23.04
196.87	-47.62
197.089	87.55
197.308	34.3
197.528	28.16
197.747	56.83
197.966	26.11
198.185	75.26
198.404	5.63
198.623	-0.51
198.842	-14.85
199.062	52.74
199.281	38.4
199.5	22.02
199.719	46.59
199.938	26.11
200.157	54.78
200.376	169.47
200.595	26.11
200.814	17.92
201.033	40.45
201.252	56.83
201.471	48.64
201.69	91.65
201.909	9.73
202.128	9.73
202.347	153.09
202.566	-16.9
202.785	-41.47
203.004	-23.04
203.223	58.88
203.442	-27.14
203.661	-25.09
203.879	24.06
204.098	24.06
204.317	112.13
204.536	91.65
204.755	56.83
204.974	13.82
205.193	91.65
205.411	-18.94
205.63	19.97
205.849	17.92
206.068	54.78
206.287	22.02
206.505	46.59
206.724	-8.7
206.943	-16.9
207.162	-27.14
207.381	-27.14
207.599	48.64
207.818	-8.7
208.037	30.21
208.255	44.54
208.474	5.63
208.693	69.12
208.911	-8.7
209.13	-74.24
209.349	65.02
209.567	13.82
209.786	-27.14
210.005	-2.56
210.223	38.4
210.442	-10.75
210.661	79.36
210.879	69.12
211.098	60.93
211.316	5.63
211.535	120.32
211.753	22.02
211.972	83.45
212.191	15.87
212.409	40.45
212.628	42.5
212.846	60.93
213.065	-10.75
213.283	95.74
213.502	17.92
213.72	22.02
213.938	24.06
214.157	-14.85
214.375	32.26
214.594	13.82
214.812	38.4
215.031	105.98
215.249	-74.24
215.467	105.98
215.686	-2.56
215.904	38.4
216.122	5.63
216.341	62.98
216.559	46.59
216.778	-18.94
216.996	56.83
217.214	19.97
217.432	5.63
217.651	-14.85
217.869	44.54
218.087	-12.8
218.306	-14.85
218.524	-43.52
218.742	-41.47
218.96	89.6
219.179	1.54
219.397	-18.94
219.615	87.55
219.833	38.4
220.051	-35.33
220.27	132.61
220.488	5.63
220.706	69.12
220.924	-70.14
221.142	9.73
221.36	83.45
221.578	30.21
221.796	38.4
222.015	22.02
222.233	-80.38
222.451	62.98
222.669	-18.94
222.887	24.06
223.105	15.87
223.323	3.58
223.541	56.83
223.759	32.26
223.977	30.21
224.195	103.93
224.413	34.3
224.631	42.5
224.849	-14.85
225.067	144.89
225.285	-8.7
225.503	56.83
225.721	54.78
225.939	83.45
226.157	30.21
226.375	81.41
226.592	28.16
226.81	-53.76
227.028	24.06
227.246	15.87
227.464	73.21
227.682	87.55
227.9	17.92
228.117	85.5
228.335	40.45
228.553	50.69
228.771	40.45
228.989	-2.56
229.206	132.61
229.424	58.88
229.642	-35.33
229.86	22.02
230.077	30.21
230.295	-43.52
230.513	42.5
230.731	22.02
230.948	62.98
231.166	116.22
231.384	40.45
231.601	40.45
231.819	103.93
232.037	9.73
232.254	-35.33
232.472	22.02
232.689	34.3
232.907	22.02
233.125	-43.52
233.342	7.68
233.56	-18.94
233.777	42.5
233.995	-25.09
234.213	87.55
234.43	-23.04
234.648	13.82
234.865	32.26
235.083	38.4
235.3	-6.66
235.518	71.17
235.735	-27.14
235.953	60.93
236.17	28.16
236.388	48.64
236.605	-18.94
236.822	56.83
237.04	24.06
237.257	-53.76
237.475	-41.47
237.692	62.98
237.909	71.17
238.127	-2.56
238.344	30.21
238.562	19.97
238.779	-16.9
238.996	15.87
239.214	-47.62
239.431	46.59
239.648	-49.66
239.865	42.5
240.083	22.02
240.3	32.26
240.517	-59.9
240.735	44.54
240.952	103.93
241.169	34.3
241.386	54.78
241.603	52.74
241.821	-55.81
242.038	36.35
242.255	9.73
242.472	-59.9
242.689	-14.85
242.907	71.17
243.124	-31.23
243.341	17.92
243.558	-39.42
243.775	26.11
243.992	-31.23
244.209	38.4
244.426	110.08
244.643	-8.7
244.86	-43.52
245.078	38.4
245.295	65.02
245.512	13.82
245.729	34.3
245.946	69.12
246.163	34.3
246.38	-16.9
246.597	-14.85
246.814	24.06
247.031	-16.9
247.248	42.5
247.464	73.21
247.681	1.54
247.898	-35.33
248.115	103.93
248.332	-6.66
248.549	75.26
248.766	112.13
248.983	-4.61
249.2	-2.56
249.417	87.55
249.633	30.21
249.85	19.97
250.067	19.97
250.284	-2.56
250.501	67.07
250.717	62.98
250.934	-18.94
251.151	62.98
251.368	36.35
251.585	15.87
251.801	89.6
252.018	13.82
252.235	46.59
252.451	15.87
252.668	-35.33
252.885	-8.7
253.102	-115.2
253.318	42.5
253.535	-14.85
253.752	13.82
253.968	-33.28
254.185	46.59
254.401	22.02
254.618	17.92
254.835	5.63
255.051	38.4
255.268	-18.94
255.484	-18.94
255.701	1.54
255.917	148.99
256.134	28.16
256.351	83.45
256.567	-20.99
256.784	22.02
257	-74.24
257.217	7.68
257.433	58.88
257.65	9.73
257.866	91.65
258.082	-35.33
258.299	19.97
258.515	30.21
258.732	13.82
258.948	-12.8
259.165	-10.75
259.381	132.61
259.597	65.02
259.814	-8.7
260.03	-35.33
260.246	50.69
260.463	54.78
260.679	-2.56
260.895	38.4
261.112	48.64
261.328	-68.09
261.544	7.68
261.761	128.51
261.977	54.78
262.193	-10.75
262.409	32.26
262.626	56.83
262.842	-39.42
263.058	22.02
263.274	26.11
263.49	-14.85
263.707	5.63
263.923	22.02
264.139	3.58
264.355	54.78
264.571	-8.7
264.787	42.5
265.004	46.59
265.22	17.92
265.436	42.5
265.652	7.68
265.868	26.11
266.084	46.59
266.3	-41.47
266.516	-10.75
266.732	34.3
266.948	81.41
267.164	85.5
267.38	32.26
267.596	73.21
267.812	30.21
268.028	79.36
268.244	87.55
268.46	42.5
268.676	1.54
268.892	62.98
269.108	-0.51
269.324	-8.7
269.54	1.54
269.756	44.54
269.972	5.63
270.188	15.87
270.403	11.78
270.619	11.78
270.835	-23.04
271.051	105.98
271.267	-2.56
271.483	24.06
271.698	62.98
271.914	56.83
272.13	9.73
272.346	-6.66
272.562	11.78
272.777	112.13
272.993	-4.61
273.209	13.82
273.425	-0.51
273.64	-57.86
273.856	65.02
274.072	-49.66
274.287	-45.57
274.503	22.02
274.719	44.54
274.934	81.41
275.15	-27.14
275.366	28.16
275.581	-51.71
275.797	62.98
276.012	19.97
276.228	-25.09
276.444	116.22
276.659	89.6
276.875	-14.85
277.09	85.5
277.306	-35.33
277.521	7.68
277.737	58.88
277.952	24.06
278.168	-6.66
278.383	50.69
278.599	42.5
278.814	-37.38
279.03	17.92
279.245	46.59
279.461	-4.61
279.676	40.45
279.892	9.73
280.107	22.02
280.322	-27.14
280.538	17.92
280.753	19.97
280.969	95.74
281.184	-14.85
281.399	62.98
281.615	13.82
281.83	83.45
282.045	-84.48
282.26	3.58
282.476	73.21
282.691	83.45
282.906	-6.66
283.122	-47.62
283.337	-0.51
283.552	75.26
283.767	26.11
283.983	9.73
284.198	-10.75
284.413	17.92
284.628	-14.85
284.843	97.79
285.058	22.02
285.274	79.36
285.489	-2.56
285.704	65.02
285.919	-2.56
286.134	36.35
286.349	-23.04
286.564	48.64
286.779	-14.85
286.995	-2.56
287.21	-6.66
287.425	40.45
287.64	5.63
287.855	19.97
288.07	77.31
288.285	50.69
288.5	95.74
288.715	36.35
288.93	-27.14
289.145	26.11
289.36	50.69
289.575	-8.7
289.79	116.22
290.004	112.13
290.219	34.3
290.434	34.3
290.649	40.45
290.864	9.73
291.079	44.54
291.294	62.98
291.509	17.92
291.724	-0.51
291.938	-41.47
292.153	56.83
292.368	32.26
292.583	5.63
292.798	48.64
293.012	-0.51
293.227	38.4
293.442	87.55
293.657	95.74
293.871	15.87
294.086	32.26
294.301	32.26
294.516	1.54
294.73	5.63
294.945	-2.56
295.16	-2.56
295.374	38.4
295.589	13.82
295.804	-23.04
296.018	-4.61
296.233	7.68
296.447	30.21
296.662	-10.75
296.877	54.78
297.091	7.68
297.306	87.55
297.52	-16.9
297.735	24.06
297.949	32.26
298.164	95.74
298.378	5.63
298.593	-41.47
298.807	13.82
299.022	136.7
299.236	60.93
299.451	-10.75
299.665	48.64
299.88	38.4
300.094	26.11
300.309	36.35
300.523	-31.23
300.737	52.74
300.952	122.37
301.166	-4.61
301.381	62.98
301.595	22.02
301.809	65.02
302.024	7.68
302.238	48.64
302.452	24.06
302.667	34.3
302.881	38.4
303.095	99.84
303.309	40.45
303.524	1.54
303.738	87.55
303.952	54.78
304.166	-0.51
304.381	-55.81
304.595	60.93
304.809	22.02
305.023	67.07
305.237	48.64
305.452	42.5
305.666	22.02
305.88	-8.7
306.094	65.02
306.308	89.6
306.522	3.58
306.736	22.02
306.95	40.45
307.164	60.93
307.379	5.63
307.593	22.02
307.807	9.73
308.021	75.26
308.235	34.3
308.449	-10.75
308.663	19.97
308.877	105.98
309.091	9.73
309.305	77.31
309.519	-27.14
309.733	118.27
309.947	-51.71
310.161	22.02
310.374	65.02
310.588	50.69
310.802	-33.28
311.016	26.11
311.23	67.07
311.444	5.63
311.658	65.02
311.872	-2.56
312.085	30.21
312.299	50.69
312.513	-2.56
312.727	28.16
312.941	5.63
313.154	71.17
313.368	36.35
313.582	46.59
313.796	22.02
314.009	5.63
314.223	54.78
314.437	3.58
314.651	34.3
314.864	17.92
315.078	17.92
315.292	-23.04
315.505	103.93
315.719	42.5
315.933	50.69
316.146	5.63
316.36	38.4
316.573	13.82
316.787	5.63
317.001	32.26
317.214	42.5
317.428	-2.56
317.641	50.69
317.855	75.26
318.068	-14.85
318.282	9.73
318.495	54.78
318.709	9.73
318.922	38.4
319.136	71.17
319.349	81.41
319.563	5.63
319.776	38.4
319.99	50.69
320.203	-6.66
320.417	-35.33
320.63	79.36
320.843	26.11
321.057	-14.85
321.27	85.5
321.483	60.93
321.697	32.26
321.91	62.98
322.124	87.55
322.337	48.64
322.55	-10.75
322.763	32.26
322.977	62.98
323.19	-31.23
323.403	50.69
323.617	38.4
323.83	114.17
324.043	17.92
324.256	13.82
324.469	-35.33
324.683	71.17
324.896	48.64
325.109	-6.66
325.322	-31.23
325.535	5.63
325.748	-2.56
325.962	22.02
326.175	77.31
326.388	56.83
326.601	71.17
326.814	32.26
327.027	56.83
327.24	40.45
327.453	-74.24
327.666	28.16
327.879	97.79
328.092	75.26
328.305	38.4
328.518	58.88
328.731	-27.14
328.944	136.7
329.157	42.5
329.37	22.02
329.583	34.3
329.796	99.84
330.009	-0.51
330.222	91.65
330.435	7.68
330.648	65.02
330.861	79.36
331.073	-92.67
331.286	36.35
331.499	3.58
331.712	13.82
331.925	38.4
332.138	17.92
332.35	17.92
332.563	-0.51
332.776	44.54
332.989	54.78
333.202	-8.7
333.414	42.5
333.627	9.73
333.84	1.54
334.053	91.65
334.265	-18.94
334.478	13.82
334.691	13.82
334.903	30.21
335.116	-64
335.329	-51.71
335.541	26.11
335.754	73.21
335.966	46.59
336.179	83.45
336.392	-4.61
336.604	13.82
336.817	75.26
337.029	79.36
337.242	1.54
337.454	77.31
337.667	9.73
337.88	-0.51
338.092	62.98
338.305	52.74
338.517	-10.75
338.729	-31.23
338.942	32.26
339.154	46.59
339.367	15.87
339.579	32.26
339.792	26.11
340.004	83.45
340.217	5.63
340.429	-20.99
340.641	-43.52
340.854	7.68
341.066	48.64
341.278	30.21
341.491	46.59
341.703	30.21
341.915	36.35
342.128	-2.56
342.34	-23.04
342.552	-10.75
342.764	56.83
342.977	40.45
343.189	-33.28
343.401	15.87
343.613	5.63
343.826	56.83
344.038	97.79
344.25	7.68
344.462	-14.85
344.674	19.97
344.886	54.78
345.099	-10.75
345.311	30.21
345.523	30.21
345.735	-47.62
345.947	1.54
346.159	60.93
346.371	15.87
346.583	69.12
346.795	148.99
347.007	75.26
347.219	26.11
347.431	71.17
347.643	71.17
347.855	5.63
348.067	103.93
348.279	-10.75
348.491	11.78
348.703	79.36
348.915	22.02
349.127	-55.81
349.339	81.41
349.551	99.84
349.763	-23.04
349.975	13.82
350.187	38.4
350.399	79.36
350.61	1.54
350.822	58.88
351.034	85.5
351.246	-4.61
351.458	62.98
351.669	9.73
351.881	56.83
352.093	24.06
352.305	71.17
352.517	-18.94
352.728	73.21
352.94	67.07
353.152	65.02
353.363	-45.57
353.575	65.02
353.787	83.45
353.999	34.3
354.21	5.63
354.422	13.82
354.633	28.16
354.845	30.21
355.057	-41.47
355.268	-8.7
355.48	56.83
355.692	-76.29
355.903	30.21
356.115	50.69
356.326	-39.42
356.538	83.45
356.749	71.17
356.961	38.4
357.172	46.59
357.384	22.02
357.595	83.45
357.807	38.4
358.018	77.31
358.23	34.3
358.441	69.12
358.653	46.59
358.864	1.54
359.075	73.21
359.287	17.92
359.498	81.41
359.709	24.06
359.921	42.5
360.132	38.4
360.344	77.31
360.555	62.98
360.766	73.21
360.977	48.64
361.189	48.64
361.4	65.02
361.611	71.17
361.823	87.55
362.034	17.92
362.245	32.26
362.456	-4.61
362.667	58.88
362.879	-16.9
363.09	40.45
363.301	7.68
363.512	-8.7
363.723	54.78
363.935	-2.56
364.146	81.41
364.357	5.63
364.568	-2.56
364.779	-25.09
364.99	81.41
365.201	-23.04
365.412	77.31
365.623	-27.14
365.834	46.59
366.045	30.21
366.256	73.21
366.467	40.45
366.678	40.45
366.889	30.21
367.1	128.51
367.311	38.4
367.522	126.46
367.733	85.5
367.944	-10.75
368.155	34.3
368.366	48.64
368.577	79.36
368.788	11.78
368.999	71.17
369.209	95.74
369.42	128.51
369.631	112.13
369.842	83.45
370.053	5.63
370.264	71.17
370.474	-68.09
370.685	58.88
370.896	13.82
371.107	79.36
371.317	9.73
371.528	17.92
371.739	58.88
371.95	34.3
372.16	38.4
372.371	50.69
372.582	32.26
372.792	69.12
373.003	-2.56
373.214	7.68
373.424	50.69
373.635	-14.85
373.846	73.21
374.056	54.78
374.267	75.26
374.477	48.64
374.688	15.87
374.898	46.59
375.109	46.59
375.319	13.82
375.53	56.83
375.74	112.13
375.951	42.5
376.161	120.32
376.372	99.84
376.582	42.5
376.793	81.41
377.003	22.02
377.214	30.21
377.424	71.17
377.635	19.97
377.845	-80.38
378.055	56.83
378.266	38.4
378.476	-31.23
378.686	46.59
378.897	46.59
379.107	-23.04
379.317	30.21
379.528	62.98
379.738	91.65
379.948	58.88
380.158	28.16
380.369	26.11
380.579	50.69
380.789	54.78
380.999	56.83
381.21	11.78
381.42	83.45
381.63	40.45
381.84	48.64
382.05	87.55
382.261	34.3
382.471	56.83
382.681	40.45
382.891	42.5
383.101	105.98
383.311	13.82
383.521	1.54
383.731	62.98
383.941	71.17
384.151	157.18
384.361	34.3
384.571	-10.75
384.781	79.36
384.991	79.36
385.201	95.74
385.411	-10.75
385.621	62.98
385.831	5.63
386.041	-2.56
386.251	36.35
386.461	99.84
386.671	-51.71
386.881	13.82
387.091	81.41
387.301	83.45
387.511	36.35
387.72	67.07
387.93	38.4
388.14	56.83
388.35	24.06
388.56	17.92
388.769	42.5
388.979	-6.66
389.189	79.36
389.399	34.3
389.609	11.78
389.818	71.17
390.028	50.69
390.238	97.79
390.447	26.11
390.657	13.82
390.867	36.35
391.076	26.11
391.286	34.3
391.496	67.07
391.705	17.92
391.915	89.6
392.125	30.21
392.334	7.68
392.544	42.5
392.753	105.98
392.963	85.5
393.172	67.07
393.382	5.63
393.591	118.27
393.801	58.88
394.01	73.21
394.22	58.88
394.429	71.17
394.639	54.78
394.848	87.55
395.058	22.02
395.267	73.21
395.477	50.69
395.686	34.3
395.895	83.45
396.105	91.65
396.314	93.69
396.524	48.64
396.733	93.69
396.942	132.61
397.152	50.69
397.361	120.32
397.57	36.35
397.78	54.78
397.989	-25.09
398.198	95.74
398.407	56.83
398.617	42.5
398.826	101.89
399.035	15.87
399.244	175.61
399.453	67.07
399.663	79.36
399.872	65.02
400.081	13.82
400.29	81.41
400.499	44.54
400.708	110.08
400.917	38.4
401.127	-10.75
401.336	-14.85
401.545	138.75
401.754	79.36
401.963	95.74
402.172	13.82
402.381	60.93
402.59	99.84
402.799	187.9
403.008	120.32
403.217	126.46
403.426	163.33
403.635	17.92
403.844	65.02
404.053	120.32
404.262	-2.56
404.471	105.98
404.68	140.8
404.888	-27.14
405.097	95.74
405.306	126.46
405.515	146.94
405.724	52.74
405.933	130.56
406.142	122.37
406.35	124.41
406.559	32.26
406.768	134.65
406.977	108.03
407.185	136.7
407.394	161.28
407.603	112.13
407.812	155.13
408.02	259.58
408.229	214.52
408.438	136.7
408.646	108.03
408.855	161.28
409.064	169.47
409.272	161.28
409.481	146.94
409.69	194.05
409.898	259.58
410.107	114.17
410.315	237.05
410.524	173.57
410.733	177.66
410.941	245.24
411.15	206.33
411.358	239.1
411.567	241.15
411.775	247.29
411.984	271.87
412.192	267.77
412.401	292.35
412.609	290.3
412.818	302.59
413.026	357.88
413.234	357.88
413.443	370.17
413.651	368.12
413.86	437.75
414.068	407.03
414.276	435.71
414.485	347.64
414.693	411.13
414.901	572.92
415.11	488.95
415.318	511.48
415.526	546.3
415.734	585.21
415.943	513.53
416.151	548.34
416.359	501.24
416.567	562.68
416.776	611.83
416.984	654.84
417.192	648.69
417.4	677.37
417.608	646.65
417.817	710.13
418.025	816.63
418.233	869.87
418.441	687.61
418.649	728.56
418.857	835.06
419.065	906.74
419.273	882.16
419.481	857.59
419.689	921.07
419.897	998.9
420.105	1109.49
420.313	976.37
420.521	1000.94
420.729	1168.88
420.937	1070.58
421.145	1185.26
421.353	1172.97
421.561	1277.42
421.769	1146.35
421.977	1357.29
422.185	1316.33
422.393	1455.59
422.601	1580.52
422.809	1496.55
423.017	1365.48
423.224	1574.38
423.432	1723.88
423.64	1633.77
423.848	1752.55
424.056	1689.06
424.263	1832.42
424.471	1820.13
424.679	1865.19
424.887	1916.39
425.094	2061.79
425.302	2225.63
425.51	2076.13
425.718	2192.86
425.925	2199.01
426.133	2268.64
426.341	2483.67
426.548	2618.84
426.756	2506.2
426.964	2545.11
427.171	2674.14
427.379	2846.16
427.586	2864.6
427.794	2940.37
428.001	3177.94
428.209	3278.29
428.417	3120.59
428.624	3470.8
428.832	3487.18
429.039	3352.01
429.247	3487.18
429.454	3706.31
429.662	3913.16
429.869	3773.89
430.076	3847.62
430.284	3929.54
430.491	4036.03
430.699	4115.91
430.906	4292.03
431.114	4199.87
431.321	4423.1
431.528	4410.81
431.736	4603.32
431.943	5047.73
432.15	4824.5
432.358	4996.53
432.565	5148.08
432.772	5057.97
432.979	5412.27
433.187	5584.3
433.394	5496.24
433.601	5877.16
433.808	5911.97
434.016	5936.55
434.223	6198.69
434.43	6561.18
434.637	6329.76
434.844	6784.41
435.052	6888.85
435.259	6829.46
435.466	6927.77
435.673	6917.53
435.88	7308.69
436.087	7529.87
436.294	7591.31
436.501	7521.68
436.708	7591.31
436.915	7961.99
437.122	8197.51
437.329	8279.43
437.537	8551.81
437.743	8576.38
437.95	8652.16
438.157	8942.97
438.364	9215.35
438.571	9057.65
438.778	9289.07
438.985	10132.84
439.192	9647.47
439.399	9934.18
439.606	9870.7
439.813	10368.35
440.02	11165.01
440.227	10798.43
440.433	10798.43
440.64	11228.5
440.847	10812.76
441.054	11273.56
441.261	12019.02
441.467	11973.96
441.674	12021.06
441.881	12535.1
442.088	12490.05
442.294	12465.47
442.501	12821.82
442.708	12866.88
442.914	13253.94
443.121	14251.3
443.328	13829.42
443.534	14857.5
443.741	14177.58
443.948	13931.82
444.154	15105.31
444.361	14863.65
444.568	14857.5
444.774	15187.22
444.981	15199.51
445.187	15713.55
445.394	16319.75
445.6	16002.32
445.807	17380.6
446.013	16495.88
446.22	17220.86
446.426	17589.49
446.633	17822.96
446.839	18271.47
447.046	17734.9
447.252	18861.28
447.459	18916.58
447.665	18908.38
447.871	19399.9
448.078	20409.54
448.284	19481.81
448.491	20055.25
448.697	20489.42
448.903	21134.53
449.11	21210.3
449.316	21103.81
449.522	21095.61
449.728	21843.12
449.935	21798.07
450.141	21843.12
450.347	22385.83
450.553	21818.55
450.76	22260.91
450.966	22693.03
451.172	22484.14
451.378	23067.81
451.584	22654.12
451.791	23022.75
451.997	22779.04
452.203	23401.63
452.409	23547.03
452.615	23413.91
452.821	22508.71
453.027	22156.46
453.233	23549.08
453.44	22742.18
453.646	23196.83
453.852	23190.69
454.058	23555.22
454.264	22537.38
454.47	23360.67
454.676	22475.95
454.882	23585.94
455.088	21664.95
455.294	21681.33
455.5	21912.75
455.705	22551.72
455.911	21374.14
456.117	21169.34
456.323	20915.39
456.529	19770.58
456.735	20421.83
456.941	20053.2
457.147	19711.19
457.352	19256.54
457.558	18982.11
457.764	18982.11
457.97	18564.32
458.176	18412.78
458.381	18668.77
458.587	17491.19
458.793	17607.92
458.999	16348.42
459.204	17831.15
459.41	17040.64
459.616	16096.52
459.821	16207.11
460.027	16028.94
460.233	15656.21
460.438	15215.9
460.644	14988.57
460.85	14492.96
461.055	14228.77
461.261	14259.49
461.466	13225.27
461.672	12744
461.878	13561.14
462.083	12893.5
462.289	12490.05
462.494	12485.95
462.7	11941.19
462.905	11351.38
463.111	12162.37
463.316	12055.88
463.522	11846.99
463.727	11687.25
463.932	11767.12
464.138	11584.85
464.343	11605.33
464.549	11146.58
464.754	11820.36
464.959	11373.91
465.165	11457.87
465.37	11126.1
465.575	10601.82
465.781	11081.05
465.986	11040.09
466.191	10823
466.397	10607.97
466.602	9930.09
466.807	10229.09
467.012	10394.98
467.218	10294.63
467.423	10155.37
467.628	10270.05
467.833	10702.17
468.038	10343.78
468.244	10190.18
468.449	10265.96
468.654	10118.5
468.859	9995.62
469.064	9915.75
469.269	9442.67
469.474	9438.58
469.679	9796.97
469.885	9500.02
470.09	9688.43
470.295	9725.29
470.5	9428.34
470.705	9500.02
470.91	9389.42
471.115	9182.58
471.32	9327.99
471.525	9389.42
471.73	9428.34
471.935	8885.62
472.139	8756.6
472.344	8912.25
472.549	8666.49
472.754	8484.22
472.959	8375.68
473.164	8369.54
473.369	8318.34
473.574	8582.53
473.778	8486.27
473.983	8308.1
474.188	8283.52
474.393	7839.11
474.598	7923.08
474.802	7839.11
475.007	7787.91
475.212	7939.46
475.417	7384.46
475.621	7665.04
475.826	7617.93
476.031	7591.31
476.235	7277.97
476.44	7417.23
476.645	7282.06
476.849	7363.98
477.054	7191.95
477.259	7304.59
477.463	7204.24
477.668	6923.67
477.872	6847.9
478.077	6755.74
478.282	6571.42
478.486	6673.82
478.691	6725.02
478.895	6493.6
479.1	6593.95
479.304	6411.68
479.509	6329.76
479.713	6444.45
479.918	6346.14
480.122	6245.79
480.326	6251.94
480.531	6299.04
480.735	6243.74
480.94	6292.9
481.144	6340
481.348	6268.32
481.553	6206.88
481.757	6141.35
481.961	6067.62
482.166	6178.21
482.37	6127.01
482.574	5969.32
482.778	6127.01
482.983	6419.87
483.187	6002.08
483.391	6012.32
483.595	5887.4
483.8	5997.99
484.004	6030.76
484.208	6210.98
484.412	6028.71
484.616	6067.62
484.821	5914.02
485.025	5944.74
485.229	6198.69
485.433	5868.97
485.637	6018.47
485.841	5993.89
486.045	5930.41
486.249	5977.51
486.453	6012.32
486.657	5993.89
486.861	5985.7
487.065	5858.73
487.269	5938.6
487.473	5901.73
487.677	6178.21
487.881	6352.29
488.085	6092.2
488.289	6208.93
488.493	5879.21
488.697	6251.94
488.901	6043.04
489.105	5963.17
489.309	6098.34
489.512	6055.33
489.716	6075.81
489.92	6104.48
490.124	6174.11
490.328	6102.43
490.531	6096.29
490.735	6202.79
490.939	6223.27
491.143	6075.81
491.346	6151.59
491.55	6366.62
491.754	6290.85
491.958	6389.15
492.161	6114.72
492.365	6395.29
492.569	6389.15
492.772	6536.6
492.976	6325.66
493.18	6389.15
493.383	6526.36
493.587	6485.41
493.79	6694.3
493.994	6389.15
494.197	6491.55
494.401	6790.55
494.605	6604.19
494.808	6780.31
495.012	6727.07
495.215	6690.2
495.419	6854.04
495.622	6962.58
495.825	6759.83
496.029	6845.85
496.232	7101.84
496.436	6995.35
496.639	7187.86
496.843	7128.47
497.046	7194
497.249	7525.77
497.453	7525.77
497.656	7431.57
497.859	7288.21
498.063	7562.64
498.266	7888.26
498.469	7622.03
498.673	7695.75
498.876	7890.31
499.079	7869.83
499.282	7892.36
499.485	8269.19
499.689	8019.33
499.892	8406.4
500.095	8242.56
500.298	8535.42
500.501	8492.41
500.705	8543.61
500.908	8736.12
501.111	8942.97
501.314	8959.35
501.517	9065.85
501.72	8899.96
501.923	9147.76
502.126	9387.38
502.329	9342.32
502.532	9491.82
502.735	9258.35
502.938	9706.86
503.141	9713
503.344	9942.38
503.547	10083.69
503.75	10112.36
503.953	10313.06
504.156	10167.65
504.359	10419.55
504.562	10681.69
504.765	10720.6
504.968	10888.54
505.17	10845.53
505.373	10859.87
505.576	10939.74
505.779	11095.38
505.982	11226.45
506.185	11408.72
506.387	11269.46
506.59	11535.7
506.793	11793.74
506.996	11881.8
507.198	12049.74
507.401	12092.74
507.604	12191.05
507.807	12344.64
508.009	12492.1
508.212	12498.24
508.415	12725.57
508.617	12780.86
508.82	12993.85
509.022	12891.45
509.225	13337.91
509.428	13178.17
509.63	13403.44
509.833	13534.51
510.035	13952.3
510.238	13782.32
510.44	13884.72
510.643	14054.7
510.845	14091.56
511.048	14302.5
511.25	14335.27
511.453	14488.87
511.655	14964
511.858	14955.8
512.06	15113.5
512.262	15430.93
512.465	15140.12
512.667	15371.54
512.87	15498.52
513.072	15457.56
513.274	15959.31
513.477	16008.46
513.679	16127.24
513.881	16078.09
514.084	16473.35
514.286	16352.52
514.488	16602.37
514.69	17239.29
514.893	17052.92
515.095	17165.56
515.297	17089.79
515.499	17521.91
515.701	17413.37
515.904	17792.24
516.106	17806.58
516.308	18121.96
516.51	18240.75
516.712	18435.3
516.914	18531.56
517.116	18674.92
517.318	18756.83
517.52	18773.22
517.722	19070.17
517.925	19365.08
518.127	19516.63
518.329	19434.71
518.531	19447
518.733	19815.63
518.935	20057.29
519.136	20059.34
519.338	20348.11
519.54	20522.18
519.742	20546.76
519.944	20765.89
520.146	21107.9
520.348	21103.81
520.55	21099.71
520.752	21449.91
520.954	21933.23
521.155	21314.75
521.357	21851.31
521.559	22004.91
521.761	22203.57
521.963	22518.95
522.164	22678.69
522.366	22363.31
522.568	22736.04
522.77	23020.7
522.971	23225.5
523.173	23102.62
523.375	23317.66
523.576	23307.42
523.778	23352.48
523.98	23710.87
524.181	23768.21
524.383	23907.48
524.584	24259.73
524.786	24142.99
524.988	24157.33
525.189	24349.84
525.391	24433.8
525.592	24398.99
525.794	24489.1
525.995	24693.9
526.197	24910.98
526.398	24945.8
526.6	25175.17
526.801	24945.8
527.003	25218.18
527.204	25425.02
527.406	25519.23
527.607	25474.17
527.808	25629.82
528.01	25126.02
528.211	25752.7
528.412	26360.94
528.614	25826.42
528.815	25816.18
529.016	26172.53
529.218	26010.74
529.419	26125.43
529.62	26233.97
529.822	26121.33
530.023	26463.34
530.224	26254.45
530.425	26217.58
530.626	26293.36
530.828	25721.98
531.029	26610.79
531.23	26225.78
531.431	26365.04
531.632	26326.13
531.833	26772.58
532.035	26360.94
532.236	26639.47
532.437	26455.15
532.638	26797.16
532.839	26827.88
533.04	26653.8
533.241	26616.94
533.442	27249.76
533.643	26725.48
533.844	26684.52
534.045	26745.96
534.246	26745.96
534.447	26909.8
534.648	26911.85
534.849	26582.12
535.05	26625.13
535.251	26862.69
535.451	26864.74
535.652	26977.38
535.853	26831.97
536.054	27081.83
536.255	26758.25
536.456	26444.91
536.657	27077.73
536.857	26768.49
537.058	26860.65
537.259	26879.08
537.46	26807.4
537.66	26797.16
537.861	26733.67
538.062	26514.54
538.263	26602.6
538.463	26817.64
538.664	26938.47
538.865	26731.62
539.065	26772.58
539.266	26684.52
539.466	26981.48
539.667	26420.33
539.868	26688.62
540.068	26750.06
540.269	26616.94
540.469	26934.37
540.67	26694.76
540.87	27032.68
541.071	26369.13
541.271	26868.84
541.472	26639.47
541.672	26367.09
541.873	26854.5
542.073	26365.04
542.274	26969.19
542.474	26592.36
542.675	26178.67
542.875	26840.17
543.075	26520.68
543.276	25961.59
543.476	26850.41
543.676	26432.62
543.877	26739.82
544.077	26123.38
544.277	26446.96
544.478	26793.06
544.678	26956.9
544.878	26344.56
545.078	26494.06
545.279	26309.74
545.479	26346.61
545.679	26399.85
545.879	26512.49
546.079	26459.24
546.28	26393.71
546.48	26059.89
546.68	26547.31
546.88	26489.96
547.08	26186.86
547.28	26471.53
547.48	26043.51
547.68	26518.64
547.88	26467.44
548.081	26328.17
548.281	26408.05
548.481	26150
548.681	26367.09
548.881	26197.1
549.081	26350.7
549.28	26342.51
549.48	26328.17
549.68	26072.18
549.88	26813.54
550.08	26070.13
550.28	26426.48
550.48	26002.55
550.68	26317.93
550.88	26143.86
551.08	26166.38
551.279	26045.55
551.479	25912.44
551.679	26025.07
551.879	25934.96
552.079	26457.2
552.278	26053.75
552.478	26262.64
552.678	26485.87
552.878	26313.84
553.077	25953.4
553.277	25922.68
553.477	26356.85
553.676	25812.09
553.876	25859.19
554.076	25861.24
554.275	26004.6
554.475	25717.88
554.674	25992.31
554.874	25926.77
555.074	25975.92
555.273	26096.75
555.473	25877.62
555.672	25779.32
555.872	25814.13
556.071	25695.35
556.271	25799.8
556.47	25595
556.67	25408.64
556.869	25832.57
557.068	25584.76
557.268	25551.99
557.467	25412.73
557.667	25760.89
557.866	25336.96
558.065	25357.44
558.265	24908.93
558.464	25521.27
558.663	25746.55
558.863	25324.67
559.062	25484.41
559.261	25392.25
559.461	25734.26
559.66	25212.03
559.859	25298.05
560.058	25310.33
560.258	25445.5
560.457	24972.42
560.656	25212.03
560.855	25289.85
561.054	25095.3
561.253	24769.67
561.453	25085.06
561.652	25179.26
561.851	25240.7
562.05	24999.04
562.249	24843.4
562.448	25158.78
562.647	24632.46
562.846	24724.61
563.045	24812.68
563.244	24675.46
563.443	24882.31
563.642	24290.45
563.841	24818.82
564.04	24722.57
564.239	24710.28
564.438	24210.57
564.637	24642.7
564.836	24448.14
565.035	24202.38
565.234	24384.65
565.432	24216.72
565.631	24206.48
565.83	24145.04
566.029	24179.86
566.228	23905.43
566.427	24020.11
566.625	23936.15
566.824	23798.93
567.023	23741.59
567.222	23665.81
567.42	23909.52
567.619	23858.32
567.818	23501.98
568.016	23590.04
568.215	23805.08
568.414	23469.21
568.612	23475.35
568.811	23272.6
569.01	23489.69
569.208	23182.49
569.407	23579.8
569.605	23131.3
569.804	23506.07
570.002	23043.23
570.201	23071.9
570.4	22971.55
570.598	22981.79
570.797	22918.31
570.995	23067.81
571.193	22670.5
571.392	23114.91
571.59	22797.48
571.789	22760.61
571.987	22766.76
572.186	22539.43
572.384	22103.21
572.582	22576.3
572.781	22701.22
572.979	22310.06
573.177	22365.35
573.376	22494.38
573.574	22281.39
573.772	22451.37
573.971	22396.07
574.169	22222
574.367	21914.8
574.565	21902.51
574.763	22017.2
574.962	21974.19
575.16	21492.92
575.358	21822.64
575.556	21587.13
575.754	21931.19
575.952	21439.67
576.151	21607.61
576.349	21609.65
576.547	21150.91
576.745	21466.3
576.943	21404.86
577.141	21353.66
577.339	21423.29
577.537	21224.64
577.735	21269.69
577.933	20999.36
578.131	21329.08
578.329	20993.22
578.527	20806.85
578.725	20845.76
578.923	21025.98
579.121	21017.79
579.319	20882.63
579.516	20683.97
579.714	20849.86
579.912	20630.73
580.11	20520.13
580.308	20432.07
580.506	20296.91
580.704	20182.22
580.901	20710.6
581.099	20749.51
581.297	20372.68
581.495	20212.94
581.692	20366.54
581.89	20133.07
582.088	20548.81
582.285	19672.28
582.483	19979.47
582.681	19981.52
582.878	19971.28
583.076	19774.67
583.274	19918.03
583.471	19737.81
583.669	19619.03
583.866	19700.95
584.064	19549.4
584.262	19336.41
584.459	19410.14
584.657	19567.83
584.854	19496.15
585.052	19215.58
585.249	19332.31
585.447	19172.57
585.644	19154.14
585.841	19168.48
586.039	19490.01
586.236	19203.29
586.434	19156.19
586.631	18887.9
586.828	18859.23
587.026	19119.32
587.223	18660.58
587.42	18623.72
587.618	18857.18
587.815	18631.91
588.012	18461.93
588.21	18509.03
588.407	18586.85
588.604	18429.16
588.801	18394.34
588.999	18492.65
589.196	18418.92
589.393	18363.62
589.59	18156.78
589.787	18226.41
589.984	18101.48
590.182	18042.09
590.379	17892.59
590.576	17972.46
590.773	18158.83
590.97	18087.15
591.167	17874.16
591.364	17882.35
591.561	17890.54
591.758	17655.03
591.955	17904.88
592.152	17503.48
592.349	17231.1
592.546	17669.36
592.743	17396.98
592.94	17204.47
593.137	17267.96
593.334	17372.41
593.531	16971.01
593.727	17114.36
593.924	17421.56
594.121	17177.85
594.318	17130.75
594.515	17179.9
594.712	17016.06
594.908	16712.96
595.105	16872.7
595.302	16700.67
595.499	16876.8
595.696	16831.74
595.892	16745.73
596.089	16680.19
596.286	16581.89
596.482	16516.36
596.679	16432.39
596.876	16653.57
597.072	16100.62
597.269	16356.61
597.466	16073.99
597.662	16127.24
597.859	16303.37
598.055	16188.68
598.252	15987.98
598.448	16125.19
598.645	16059.66
598.841	15811.85
599.038	16188.68
599.234	15889.68
599.431	15594.77
599.627	15783.18
599.824	15938.83
600.02	15594.77
600.217	15615.25
600.413	15813.9
600.609	15342.87
600.806	15383.83
601.002	15609.11
601.198	15381.78
601.395	15471.89
601.591	15355.16
601.787	15324.44
601.984	15121.69
602.18	15367.45
602.376	15078.68
602.572	15017.24
602.769	15164.7
602.965	14890.27
603.161	14802.21
603.357	15136.03
603.553	14955.8
603.75	14832.93
603.946	14656.8
604.142	14734.62
604.338	14624.03
604.534	14587.17
604.73	14427.43
604.926	14671.14
605.122	14607.65
605.318	14398.76
605.514	14531.87
605.71	14462.24
605.906	14308.65
606.102	14464.29
606.298	14607.65
606.494	14277.93
606.69	14208.3
606.886	14521.63
607.082	14128.42
607.278	14339.37
607.474	13819.18
607.67	14200.1
607.866	13956.4
608.062	14056.75
608.257	14267.69
608.453	14073.13
608.649	13915.44
608.845	13907.24
609.041	13860.14
609.236	13950.25
609.432	13952.3
609.628	13712.69
609.824	13727.02
610.019	13620.53
610.215	13657.39
610.411	13651.25
610.606	13575.47
610.802	13548.85
610.998	13511.99
611.193	13788.46
611.389	13385.01
611.584	13686.06
611.78	13382.96
611.976	13595.95
612.171	13583.66
612.367	13438.26
612.562	13245.75
612.758	13245.75
612.953	13239.61
613.149	13432.12
613.344	13215.03
613.539	13307.19
613.735	13219.13
613.93	13120.82
614.126	12905.79
614.321	13139.26
614.517	13227.32
614.712	13200.69
614.907	12862.78
615.103	13219.13
615.298	13055.29
615.493	13315.38
615.688	12967.23
615.884	13055.29
616.079	12920.12
616.274	12889.4
616.47	12973.37
616.665	12877.12
616.86	12938.55
617.055	12834.11
617.25	12760.38
617.445	12803.39
617.641	12584.26
617.836	12756.29
618.031	12535.1
618.226	12629.31
618.421	12571.97
618.616	12717.37
618.811	12516.67
619.006	12469.57
619.201	12225.86
619.396	12395.84
619.591	12313.92
619.786	12453.19
619.981	12080.46
620.176	12266.82
620.371	12164.42
620.566	12189
620.761	12021.06
620.956	11980.11
621.151	11830.6
621.346	11982.15
621.541	11887.95
621.735	11855.18
621.93	11666.77
622.125	11769.16
622.32	11636.05
622.515	11724.11
622.709	11545.94
622.904	11574.61
623.099	11384.15
623.294	11273.56
623.488	11130.2
623.683	11248.98
623.878	11042.14
624.072	11210.07
624.267	11035.99
624.462	10892.63
624.656	11097.43
624.851	10757.47
625.046	10909.02
625.24	10610.01
625.435	10720.6
625.629	10569.05
625.824	10679.65
626.018	10472.8
626.213	10331.49
626.407	10519.9
626.602	10196.32
626.796	10212.71
626.991	10122.6
627.185	9946.47
627.38	10032.49
627.574	9852.27
627.768	10155.37
627.963	10052.97
628.157	9823.59
628.352	9848.17
628.546	9639.28
628.74	9837.93
628.935	9741.68
629.129	9708.91
629.323	9579.89
629.517	9545.07
629.712	9457.01
629.906	9381.23
630.1	9409.9
630.294	9291.12
630.489	9264.5
630.683	9459.06
630.877	9078.13
631.071	8996.21
631.265	9205.11
631.459	9145.72
631.653	9037.17
631.848	9026.93
632.042	8881.53
632.236	8990.07
632.43	8856.95
632.624	8916.34
632.818	8697.21
633.012	8668.54
633.206	8607.1
633.4	8639.87
633.594	8578.43
633.788	8564.09
633.982	8648.06
634.176	8500.61
634.369	8320.39
634.563	8242.56
634.757	8316.29
634.951	8379.78
635.145	8473.98
635.339	8215.94
635.533	8154.5
635.726	8260.99
635.92	8066.44
636.114	8045.96
636.308	8013.19
636.501	7929.22
636.695	7794.06
636.889	7921.03
637.083	7816.58
637.276	7732.62
637.47	7894.41
637.664	7730.57
637.857	7773.58
638.051	7536.01
638.244	7671.18
638.438	7564.68
638.632	7497.1
638.825	7386.51
639.019	7406.99
639.212	7265.68
639.406	7443.85
639.599	7183.76
639.793	7320.98
639.986	7208.34
640.18	7087.51
640.373	7271.83
640.567	7118.23
640.76	7064.98
640.954	7177.62
641.147	7167.38
641.34	6792.6
641.534	6837.66
641.727	6903.19
641.92	6872.47
642.114	6890.9
642.307	6849.94
642.5	6827.42
642.694	6688.15
642.887	6622.62
643.08	6798.74
643.273	6618.52
643.467	6659.48
643.66	6530.46
643.853	6622.62
644.046	6512.03
644.239	6602.14
644.432	6251.94
644.626	6405.53
644.819	6278.56
645.012	6329.76
645.205	6102.43
645.398	6335.9
645.591	6301.09
645.784	6178.21
645.977	6124.96
646.17	6170.02
646.363	6133.15
646.556	5897.64
646.749	6004.13
646.942	6038.95
647.135	6131.11
647.328	6055.33
647.521	5920.17
647.714	6010.28
647.907	5735.85
648.099	5836.2
648.292	5727.66
648.485	5879.21
648.678	5641.64
648.871	5844.39
649.064	5676.46
649.256	5576.11
649.449	5766.57
649.642	5387.69
649.835	5574.06
650.027	5477.8
650.22	5367.21
650.413	5299.63
650.605	5334.45
650.798	5375.41
650.991	5389.74
651.183	5406.13
651.376	5387.69
651.568	5324.21
651.761	5207.47
651.954	5184.94
652.146	5146.03
652.339	5191.09
652.531	5221.81
652.724	5279.15
652.916	5072.31
653.109	4986.29
653.301	5088.69
653.494	5141.94
653.686	4953.52
653.879	4967.86
654.071	4898.23
654.263	4937.14
654.456	4863.41
654.648	4967.86
654.84	4900.28
655.033	4834.74
655.225	4873.65
655.417	4812.21
655.61	4801.97
655.802	4734.39
655.994	4576.7
656.186	4822.45
656.379	4462.01
656.571	4607.42
656.763	4478.4
656.955	4560.31
657.148	4638.14
657.34	4646.33
657.532	4423.1
657.724	4447.68
657.916	4507.07
658.108	4433.34
658.3	4470.2
658.492	4429.24
658.684	4355.52
658.876	4232.64
659.068	4421.05
659.26	4234.69
659.452	4236.74
659.644	4345.28
659.836	4181.44
660.028	4244.93
660.22	4203.97
660.412	4298.17
660.604	4240.83
660.796	4126.15
660.988	4230.59
661.18	4117.95
661.372	4150.72
661.563	4099.52
661.755	4103.62
661.947	3880.39
662.139	3847.62
662.331	4011.46
662.522	3771.85
662.714	4085.19
662.906	3937.73
663.097	4017.6
663.289	3818.95
663.481	3956.16
663.673	3837.38
663.864	3800.52
664.056	3835.33
664.247	3872.2
664.439	3767.75
664.631	3896.77
664.822	3888.58
665.014	3741.13
665.205	3751.37
665.397	3493.32
665.588	3644.87
665.78	3655.11
665.971	3595.72
666.163	3560.91
666.354	3642.82
666.546	3513.8
666.737	3614.15
666.929	3483.08
667.12	3315.15
667.311	3331.53
667.503	3503.56
667.694	3450.32
667.885	3440.08
668.077	3483.08
668.268	3354.06
668.459	3546.57
668.651	3347.92
668.842	3401.16
669.033	3413.45
669.224	3317.2
669.416	3462.6
669.607	3296.72
669.798	3317.2
669.989	3315.15
670.18	3298.77
670.371	3282.38
670.563	3323.34
670.754	3407.31
670.945	3343.82
671.136	3263.95
671.327	3210.7
671.518	3208.66
671.709	3216.85
671.9	3227.09
672.091	3266
672.282	3132.88
672.473	3175.89
672.664	3093.97
672.855	3120.59
673.046	3194.32
673.237	3171.79
673.428	3089.87
673.619	3016.15
673.809	3036.63
674	3188.18
674.191	3134.93
674.382	3063.25
674.573	3044.82
674.764	2942.42
674.954	3247.57
675.145	3005.91
675.336	2983.38
675.527	3081.68
675.717	2995.67
675.908	2981.33
676.099	3010
676.289	3024.34
676.48	3046.87
676.671	2979.28
676.861	2854.36
677.052	2921.94
677.243	2934.23
677.433	2962.9
677.624	2954.71
677.814	2776.53
678.005	2981.33
678.195	2940.37
678.386	2969.04
678.576	2860.5
678.767	2762.2
678.957	2799.06
679.148	2919.89
679.338	2954.71
679.529	2825.68
679.719	2762.2
679.909	2764.25
680.1	2725.33
680.29	2837.97
680.481	2846.16
680.671	2878.93
680.861	2923.99
681.052	2715.09
681.242	2762.2
681.432	2766.29
681.622	2831.83
681.813	2840.02
682.003	2833.88
682.193	2678.23
682.383	2786.77
682.573	2694.61
682.764	2764.25
682.954	2760.15
683.144	2780.63
683.334	2551.26
683.524	2799.06
683.714	2790.87
683.904	2688.47
684.094	2711
684.284	2723.29
684.474	2692.57
684.664	2743.77
684.854	2708.95
685.044	2700.76
685.234	2594.26
685.424	2766.29
685.614	2536.92
685.804	2700.76
685.994	2682.33
686.184	2651.61
686.374	2581.98
686.564	2667.99
686.753	2608.6
686.943	2342.36
687.133	2530.78
687.323	2598.36
687.513	2577.88
687.702	2512.35
687.892	2541.02
688.082	2561.5
688.272	2463.19
688.461	2512.35
688.651	2657.75
688.841	2467.29
689.03	2518.49
689.22	2536.92
689.41	2293.21
689.599	2405.85
689.789	2430.43
689.979	2412
690.168	2407.9
690.358	2395.61
690.547	2424.28
690.737	2401.76
690.926	2352.6
691.116	2287.07
691.305	2354.65
691.495	2428.38
691.684	2299.36
691.874	2319.84
692.063	2291.17
692.252	2192.86
692.442	2274.78
692.631	2268.64
692.82	2282.97
693.01	2303.45
693.199	2307.55
693.388	2151.9
693.578	2250.21
693.767	2135.52
693.956	2252.25
694.146	2272.73
694.335	2223.58
694.524	2242.01
694.713	2213.34
694.902	2186.72
695.092	2235.87
695.281	2074.08
695.47	2176.48
695.659	2188.77
695.848	2231.77
696.037	2065.89
696.226	2061.79
696.415	2078.18
696.604	2217.44
696.793	2031.07
696.982	2096.61
697.171	2094.56
697.36	2129.38
697.549	2180.57
697.738	2039.26
697.927	2006.5
698.116	2039.26
698.305	2115.04
698.494	2033.12
698.683	2047.46
698.872	2088.42
699.061	2074.08
699.25	2106.85
699.438	1961.44
699.627	2141.66
699.816	1867.24
700.005	2037.22
700.193	2029.03
700.382	2141.66
700.571	2002.4
700.76	1975.78
700.948	1988.07
701.137	2006.5
701.326	2110.94
701.514	1975.78
701.703	1998.31
701.892	2065.89
702.08	2004.45
702.269	1969.63
702.457	2002.4
702.646	2012.64
702.834	1996.26
703.023	1992.16
703.212	2020.83
703.4	2014.69
703.589	1945.06
703.777	1983.97
703.965	1967.59
704.154	2037.22
704.342	1949.15
704.531	1943.01
704.719	2000.35
704.907	1971.68
705.096	1949.15
705.284	2004.45
705.472	2039.26
705.661	1979.87
705.849	2004.45
706.037	2041.31
706.226	2045.41
706.414	1955.3
706.602	1889.76
706.79	1973.73
706.979	2080.22
707.167	1920.48
707.355	1891.81
707.543	1910.24
707.731	1924.58
707.919	2037.22
708.107	1988.07
708.296	2022.88
708.484	1918.43
708.672	1957.35
708.86	1930.72
709.048	1850.85
709.236	1945.06
709.424	2002.4
709.612	1965.54
709.8	1916.39
709.988	1947.11
710.176	1908.19
710.364	2061.79
710.551	1836.52
710.739	1908.19
710.927	2012.64
711.115	1928.67
711.303	1926.63
711.491	1943.01
711.679	2026.98
711.866	2000.35
712.054	1971.68
712.242	2018.79
712.43	1940.96
712.617	1928.67
712.805	1908.19
712.993	1879.52
713.181	1906.15
713.368	1955.3
713.556	1885.67
713.744	1934.82
713.931	2057.7
714.119	1990.11
714.306	1904.1
714.494	1914.34
714.682	1893.86
714.869	1918.43
715.057	1938.91
715.244	1963.49
715.432	1906.15
715.619	1949.15
715.807	1897.96
715.994	1881.57
716.182	1955.3
716.369	1988.07
716.556	1846.76
716.744	2010.59
716.931	1910.24
717.119	1988.07
717.306	1936.87
717.493	1822.18
717.681	1844.71
717.868	1996.26
718.055	1938.91
718.242	2012.64
718.43	1951.2
718.617	1930.72
718.804	1826.28
718.991	1986.02
719.179	1947.11
719.366	1859.04
719.553	1910.24
719.74	1938.91
719.927	1924.58
720.114	1922.53
720.301	1977.83
720.488	1926.63
720.676	1875.43
720.863	1955.3
721.05	1914.34
721.237	1906.15
721.424	1947.11
721.611	1883.62
721.798	1867.24
721.985	1785.32
722.172	1859.04
722.358	1891.81
722.545	1951.2
722.732	1979.87
722.919	1914.34
723.106	1770.98
723.293	1926.63
723.48	1852.9
723.667	1793.51
723.853	1887.72
724.04	1922.53
724.227	1859.04
724.414	1840.61
724.6	1869.28
724.787	1834.47
724.974	1844.71
725.161	1938.91
725.347	1934.82
725.534	1906.15
725.72	1840.61
725.907	1832.42
726.094	1932.77
726.28	1949.15
726.467	1883.62
726.653	1875.43
726.84	1906.15
727.027	1926.63
727.213	1900
727.4	1955.3
727.586	1922.53
727.773	1852.9
727.959	1795.56
728.145	1865.19
728.332	1793.51
728.518	1838.56
728.705	1914.34
728.891	1926.63
729.077	1877.48
729.264	1857
729.45	1881.57
729.636	1969.63
729.823	1930.72
730.009	1957.35
730.195	1791.46
730.382	1818.08
730.568	1857
730.754	1834.47
730.94	1889.76
731.126	1910.24
731.313	1924.58
731.499	1832.42
731.685	1928.67
731.871	1918.43
732.057	1914.34
732.243	1910.24
732.429	1971.68
732.615	1965.54
732.801	1861.09
732.987	1955.3
733.173	1873.38
733.359	1889.76
733.545	1842.66
733.731	1779.17
733.917	1848.8
734.103	1832.42
734.289	1844.71
734.475	1801.7
734.661	1951.2
734.847	1840.61
735.033	1857
735.219	1777.12
735.404	1943.01
735.59	1807.84
735.776	1816.04
735.962	1807.84
736.148	1809.89
736.333	1871.33
736.519	1867.24
736.705	1725.93
736.89	1773.03
737.076	1811.94
737.262	1758.69
737.447	1820.13
737.633	1885.67
737.819	1924.58
738.004	1848.8
738.19	1840.61
738.375	1861.09
738.561	1830.37
738.747	1826.28
738.932	1615.34
739.118	1902.05
739.303	1848.8
739.489	1916.39
739.674	1766.89
739.859	1859.04
740.045	1816.04
740.23	1746.41
740.416	1752.55
740.601	1766.89
740.786	1768.93
740.972	1760.74
741.157	1809.89
741.342	1709.54
741.528	1783.27
741.713	1799.65
741.898	1746.41
742.084	1615.34
742.269	1721.83
742.454	1678.82
742.639	1770.98
742.824	1656.29
743.01	1621.48
743.195	1603.05
743.38	1678.82
743.565	1588.71
743.75	1617.38
743.935	1629.67
744.12	1639.91
744.305	1623.53
744.49	1660.39
744.675	1629.67
744.86	1590.76
745.045	1617.38
745.23	1588.71
745.415	1525.22
745.6	1644.01
745.785	1613.29
745.97	1701.35
746.155	1572.33
746.34	1506.79
746.525	1562.09
746.71	1596.9
746.895	1547.75
747.079	1543.66
747.264	1510.89
747.449	1471.98
747.634	1572.33
747.819	1424.87
748.003	1480.17
748.188	1488.36
748.373	1353.2
748.557	1517.03
748.742	1433.07
748.927	1443.31
749.111	1369.58
749.296	1439.21
749.481	1435.11
749.665	1402.35
749.85	1388.01
750.034	1426.92
750.219	1420.78
750.404	1394.15
750.588	1383.91
750.773	1320.43
750.957	1357.29
751.141	1269.23
751.326	1308.14
751.51	1312.24
751.695	1310.19
751.879	1242.61
752.064	1330.67
752.248	1357.29
752.432	1340.91
752.617	1328.62
752.801	1185.26
752.985	1197.55
753.17	1220.08
753.354	1136.11
753.538	1242.61
753.722	1177.07
753.907	1254.89
754.091	1119.73
754.275	1152.49
754.459	1097.2
754.643	1160.69
754.828	1150.45
755.012	1201.65
755.196	1197.55
755.38	1140.21
755.564	1172.97
755.748	1213.93
755.932	1086.96
756.116	1070.58
756.3	1111.54
756.484	988.66
756.668	1097.2
756.852	1062.38
757.036	1084.91
757.22	1041.9
757.404	1062.38
757.588	972.27
757.772	939.51
757.956	1066.48
758.14	1035.76
758.323	1005.04
758.507	955.89
758.691	939.51
758.875	1066.48
759.059	1007.09
759.242	976.37
759.426	1017.33
759.61	937.46
759.794	990.7
759.977	925.17
760.161	947.7
760.345	1023.47
760.528	976.37
760.712	904.69
760.895	914.93
761.079	876.02
761.263	890.35
761.446	878.07
761.63	1066.48
761.813	857.59
761.997	859.63
762.18	884.21
762.364	841.2
762.547	835.06
762.731	914.93
762.914	873.97
763.098	859.63
763.281	853.49
763.464	830.96
763.648	900.59
763.831	753.14
764.015	841.2
764.198	808.44
764.381	853.49
764.564	880.11
764.748	873.97
764.931	886.26
765.114	720.37
765.297	777.72
765.481	794.1
765.664	769.52
765.847	794.1
766.03	720.37
766.213	734.71
766.397	787.96
766.58	693.75
766.763	882.16
766.946	699.89
767.129	742.9
767.312	783.86
767.495	859.63
767.678	753.14
767.861	753.14
768.044	663.03
768.227	763.38
768.41	658.93
768.593	802.29
768.776	761.33
768.959	701.94
769.142	716.28
769.324	671.22
769.507	677.37
769.69	740.85
769.873	695.8
770.056	689.65
770.239	736.76
770.421	742.9
770.604	777.72
770.787	630.26
770.97	652.79
771.152	620.02
771.335	759.28
771.518	669.17
771.7	636.41
771.883	706.04
772.066	722.42
772.248	652.79
772.431	701.94
772.613	630.26
772.796	656.89
772.978	630.26
773.161	648.69
773.343	646.65
773.526	681.46
773.708	564.73
773.891	652.79
774.073	603.64
774.256	515.58
774.438	630.26
774.621	562.68
774.803	603.64
774.985	568.82
775.168	538.1
775.35	572.92
775.532	620.02
775.715	556.54
775.897	509.43
776.079	566.78
776.261	538.1
776.444	562.68
776.626	507.38
776.808	570.87
776.99	534.01
777.173	570.87
777.355	603.64
777.537	546.3
777.719	574.97
777.901	507.38
778.083	507.38
778.265	456.19
778.447	542.2
778.629	472.57
778.811	517.62
778.993	456.19
779.175	579.06
779.357	497.14
779.539	450.04
779.721	450.04
779.903	505.34
780.085	450.04
780.267	554.49
780.449	447.99
780.631	509.43
780.812	464.38
780.994	398.84
781.176	431.61
781.358	427.51
781.54	402.94
781.721	368.12
781.903	431.61
782.085	382.46
782.267	392.7
782.448	415.23
782.63	472.57
782.812	433.66
782.993	472.57
783.175	376.31
783.357	296.44
783.538	425.47
783.72	386.55
783.901	368.12
784.083	386.55
784.264	382.46
784.446	400.89
784.627	427.51
784.809	417.27
784.99	394.75
785.172	382.46
785.353	386.55
785.535	431.61
785.716	349.69
785.897	302.59
786.079	394.75
786.26	372.22
786.441	327.16
786.623	284.16
786.804	316.92
786.985	302.59
787.167	349.69
787.348	304.64
787.529	263.68
787.71	361.98
787.891	278.01
788.073	300.54
788.254	284.16
788.435	386.55
788.616	337.4
788.797	206.33
788.978	370.17
789.159	251.39
789.34	306.68
789.522	312.83
789.703	353.79
789.884	331.26
790.065	280.06
790.246	349.69
790.427	288.25
790.607	359.93
790.788	284.16
790.969	261.63
791.15	251.39
791.331	267.77
791.512	239.1
791.693	245.24
791.874	329.21
792.054	321.02
792.235	296.44
792.416	253.44
792.597	267.77
792.778	278.01
792.958	280.06
793.139	235
793.32	251.39
793.5	226.81
793.681	196.09
793.862	251.39
794.042	288.25
794.223	251.39
794.404	263.68
794.584	210.43
794.765	210.43
794.945	175.61
795.126	278.01
795.306	235
795.487	226.81
795.667	214.52
795.848	187.9
796.028	126.46
796.209	179.71
796.389	204.28
796.57	226.81
796.75	157.18
796.93	222.72
797.111	212.48
797.291	230.91
797.471	230.91
797.652	185.85
797.832	218.62
798.012	226.81
798.192	271.87
798.373	235
798.553	155.13
798.733	214.52
798.913	165.37
799.093	173.57
799.274	114.17
799.454	222.72
799.634	261.63
799.814	216.57
799.994	161.28
800.174	271.87
800.354	183.81
800.534	290.3
800.714	230.91
800.894	183.81
801.074	153.09
801.254	282.11
801.434	177.66
801.614	171.52
801.794	140.8
801.974	726.52
802.154	169.47
802.334	196.09
802.514	144.89
802.693	202.24
802.873	173.57
803.053	235
803.233	157.18
803.413	136.7
803.592	228.86
803.772	95.74
803.952	204.28
804.131	138.75
804.311	185.85
804.491	198.14
804.67	140.8
804.85	114.17
805.03	198.14
805.209	187.9
805.389	155.13
805.568	122.37
805.748	144.89
805.928	112.13
806.107	103.93
806.287	196.09
806.466	169.47
806.646	187.9
806.825	163.33
807.004	157.18
807.184	204.28
807.363	128.51
807.543	171.52
807.722	169.47
807.901	198.14
808.081	175.61
808.26	105.98
808.439	153.09
808.619	181.76
808.798	95.74
808.977	189.95
809.156	128.51
809.336	179.71
809.515	189.95
809.694	157.18
809.873	177.66
810.052	194.05
810.231	136.7
810.411	153.09
810.59	99.84
810.769	7.68
810.948	144.89
811.127	138.75
811.306	54.78
811.485	122.37
811.664	120.32
811.843	181.76
812.022	128.51
812.201	89.6
812.38	220.67
812.559	138.75
812.737	122.37
812.916	114.17
813.095	46.59
813.274	214.52
813.453	140.8
813.632	89.6
813.811	165.37
813.989	46.59
814.168	105.98
814.347	103.93
814.526	105.98
814.704	116.22
814.883	204.28
815.062	65.02
815.24	114.17
815.419	146.94
815.598	124.41
815.776	75.26
815.955	95.74
816.133	99.84
816.312	75.26
816.49	112.13
816.669	151.04
816.847	17.92
817.026	50.69
817.204	116.22
817.383	105.98
817.561	169.47
817.74	146.94
817.918	58.88
818.097	112.13
818.275	95.74
818.453	65.02
818.632	46.59
818.81	83.45
818.988	38.4
819.167	87.55
819.345	136.7
819.523	89.6
819.701	44.54
819.879	36.35
820.058	116.22
820.236	103.93
820.414	126.46
820.592	83.45
820.77	153.09
820.948	46.59
821.127	65.02
821.305	103.93
821.483	54.78
821.661	108.03
821.839	52.74
822.017	140.8
822.195	87.55
822.373	120.32
822.551	95.74
822.729	116.22
822.907	120.32
823.085	87.55
823.262	17.92
823.44	73.21
823.618	60.93
823.796	101.89
823.974	38.4
824.152	105.98
824.329	50.69
824.507	71.17
824.685	116.22
824.863	81.41
825.04	120.32
825.218	60.93
825.396	89.6
825.574	42.5
825.751	65.02
825.929	38.4
826.107	50.69
826.284	52.74
826.462	77.31
826.639	67.07
826.817	9.73
826.994	28.16
827.172	48.64
827.349	120.32
827.527	62.98
827.704	69.12
827.882	1.54
828.059	40.45
828.237	5.63
828.414	105.98
828.591	99.84
828.769	69.12
828.946	28.16
829.124	52.74
829.301	9.73
829.478	87.55
829.655	67.07
829.833	146.94
830.01	30.21
830.187	120.32
830.364	-45.57
830.542	15.87
830.719	114.17
830.896	81.41
831.073	79.36
831.25	95.74
831.427	124.41
831.604	54.78
831.782	58.88
831.959	44.54
832.136	95.74
832.313	9.73
832.49	83.45
832.667	97.79
832.844	19.97
833.021	132.61
833.198	46.59
833.374	46.59
833.551	144.89
833.728	28.16
833.905	69.12
834.082	32.26
834.259	42.5
834.436	114.17
834.612	136.7
834.789	114.17
834.966	48.64
835.143	73.21
835.319	32.26
835.496	50.69
835.673	79.36
835.85	79.36
836.026	79.36
836.203	87.55
836.38	-23.04
836.556	32.26
836.733	71.17
836.909	146.94
837.086	-12.8
837.262	56.83
837.439	-6.66
837.616	-18.94
837.792	5.63
837.968	79.36
838.145	13.82
838.321	-0.51
838.498	126.46
838.674	54.78
838.851	103.93
839.027	15.87
839.203	11.78
839.38	85.5
839.556	79.36
839.732	89.6
839.909	87.55
840.085	9.73
840.261	-2.56
840.437	30.21
840.614	9.73
840.79	19.97
840.966	120.32
841.142	71.17
841.318	-2.56
841.494	99.84
841.671	58.88
841.847	30.21
842.023	7.68
842.199	-2.56
842.375	71.17
842.551	50.69
842.727	26.11
842.903	79.36
843.079	48.64
843.255	110.08
843.431	124.41
843.607	79.36
843.783	17.92
843.959	69.12
844.134	87.55
844.31	-6.66
844.486	11.78
844.662	15.87
844.838	54.78
845.013	5.63
845.189	11.78
845.365	30.21
845.541	56.83
845.716	56.83
845.892	7.68
846.068	-10.75
846.244	-14.85
846.419	67.07
846.595	-20.99
846.77	-14.85
846.946	58.88
847.122	-6.66
847.297	-33.28
847.473	79.36
847.648	15.87
847.824	126.46
847.999	48.64
848.175	13.82
848.35	46.59
848.526	83.45
848.701	46.59
848.876	79.36
849.052	93.69
849.227	7.68
849.403	22.02
849.578	48.64
849.753	13.82
849.929	54.78
850.104	19.97
850.279	-57.86
850.454	-8.7
850.63	58.88
850.805	65.02
850.98	48.64
851.155	38.4
851.33	54.78
851.505	-57.86
851.681	118.27
851.856	34.3
852.031	24.06
852.206	9.73
852.381	-18.94
852.556	85.5
852.731	126.46
852.906	7.68
853.081	71.17
853.256	42.5
853.431	48.64
853.606	46.59
853.781	-0.51
853.956	9.73
854.131	42.5
854.305	-8.7
854.48	34.3
854.655	40.45
854.83	7.68
855.005	-2.56
855.18	95.74
855.354	3.58
855.529	50.69
855.704	-64
855.879	-31.23
856.053	40.45
856.228	73.21
856.403	79.36
856.577	30.21
856.752	-27.14
856.926	-20.99
857.101	19.97
857.276	40.45
857.45	24.06
857.625	13.82
857.799	-20.99
857.974	22.02
858.148	13.82
858.323	30.21
858.497	-27.14
858.672	71.17
858.846	-51.71
859.02	130.56
859.195	-18.94
859.369	-10.75
859.543	22.02
859.718	5.63
859.892	7.68
860.066	26.11
860.241	17.92
860.415	9.73
860.589	-29.18
860.763	-31.23
860.938	1.54
861.112	22.02
861.286	99.84
861.46	62.98
861.634	30.21
861.808	103.93
861.982	-14.85
862.157	-8.7
862.331	-57.86
862.505	44.54
862.679	46.59
862.853	-0.51
863.027	-0.51
863.201	46.59
863.375	46.59
863.549	30.21
863.722	-43.52
863.896	30.21
864.07	26.11
864.244	19.97
864.418	38.4
864.592	116.22
864.766	1.54
864.939	13.82
865.113	-49.66
865.287	69.12
865.461	71.17
865.634	-0.51
865.808	5.63
865.982	79.36
866.156	-31.23
866.329	56.83
866.503	-23.04
866.676	9.73
866.85	36.35
867.024	11.78
867.197	-16.9
867.371	19.97
867.544	60.93
867.718	-57.86
867.891	-51.71
868.065	-72.19
868.238	-35.33
868.412	3.58
868.585	-29.18
868.759	71.17
868.932	-0.51
869.105	9.73
869.279	34.3
869.452	24.06
869.625	15.87
869.799	17.92
869.972	24.06
870.145	-29.18
870.319	-18.94
870.492	22.02
870.665	-43.52
870.838	46.59
871.011	34.3
871.185	79.36
871.358	46.59
871.531	95.74
871.704	9.73
871.877	38.4
872.05	-31.23
872.223	-12.8
872.396	1.54
872.569	58.88
872.742	-57.86
872.915	-2.56
873.088	9.73
873.261	-33.28
873.434	65.02
873.607	-47.62
873.78	71.17
873.953	22.02
874.126	62.98
874.299	30.21
874.471	97.79
874.644	-39.42
874.817	-35.33
874.99	40.45
875.163	38.4
875.335	48.64
875.508	38.4
875.681	9.73
875.853	-27.14
876.026	28.16
876.199	-33.28
876.371	5.63
876.544	-51.71
876.717	5.63
876.889	-57.86
877.062	32.26
877.234	-10.75
877.407	13.82
877.579	34.3
877.752	-12.8
877.924	-2.56
878.097	-6.66
878.269	11.78
878.442	36.35
878.614	-18.94
878.786	71.17
878.959	11.78
879.131	17.92
879.303	67.07
879.476	-8.7
879.648	54.78
879.82	13.82
879.993	-12.8
880.165	75.26
880.337	-55.81
880.509	-31.23
880.681	1.54
880.854	54.78
881.026	7.68
881.198	54.78
881.37	-20.99
881.542	-66.05
881.714	-6.66
881.886	-10.75
882.058	58.88
882.23	93.69
882.402	-51.71
882.574	83.45
882.746	79.36
882.918	28.16
883.09	-16.9
883.262	15.87
883.434	7.68
883.606	7.68
883.778	15.87
883.95	56.83
884.122	52.74
884.293	24.06
884.465	28.16
884.637	65.02
884.809	5.63
884.98	5.63
885.152	-14.85
885.324	54.78
885.496	-43.52
885.667	-0.51
885.839	-14.85
886.011	81.41
886.182	-25.09
886.354	17.92
886.525	-39.42
886.697	58.88
886.869	65.02
887.04	-41.47
887.212	-27.14
887.383	56.83
887.555	28.16
887.726	-61.95
887.897	-0.51
888.069	13.82
888.24	7.68
888.412	1.54
888.583	22.02
888.754	5.63
888.926	24.06
889.097	-78.33
889.268	-10.75
889.44	13.82
889.611	-33.28
889.782	11.78
889.953	-12.8
890.125	56.83
890.296	-0.51
890.467	-55.81
890.638	34.3
890.809	-8.7
890.98	-61.95
891.151	9.73
891.323	38.4
891.494	81.41
891.665	-33.28
891.836	15.87
892.007	5.63
892.178	40.45
892.349	17.92
892.52	-14.85
892.691	-25.09
892.862	7.68
893.032	26.11
893.203	1.54
893.374	-10.75
893.545	-18.94
893.716	54.78
893.887	34.3
894.057	38.4
894.228	-6.66
894.399	28.16
894.57	13.82
894.74	62.98
894.911	-6.66
895.082	-59.9
895.253	-84.48
895.423	24.06
895.594	103.93
895.764	26.11
895.935	19.97
896.106	26.11
896.276	-39.42
896.447	-45.57
896.617	-14.85
896.788	54.78
896.958	-41.47
897.129	7.68
897.299	40.45
897.47	-53.76
897.64	62.98
897.81	60.93
897.981	11.78
898.151	-14.85
898.322	-43.52
898.492	26.11
898.662	15.87
898.832	58.88
899.003	42.5
899.173	-53.76
899.343	-68.09
899.513	-137.73
