Data from USB4F104151__148__14-19-24-150.txt Node

Date: Thu Mar 13 14:19:24 EDT 2025
User: louis
Spectrometer: USB4F10415
Trigger mode: 4
Integration Time (sec): 2.000000E-2
Scans to average: 1
Electric dark correction enabled: true
Nonlinearity correction enabled: false
Boxcar width: 0
XAxis mode: Wavelengths
Number of Pixels in Spectrum: 3648
>>>>>Begin Spectral Data<<<<<
178.204	-118.44
178.424	-118.44
178.644	-118.44
178.864	-175.78
179.084	-95.91
179.304	-18.09
179.524	-9.9
179.744	-1.71
179.964	12.63
180.184	-30.38
180.404	55.64
180.624	-5.8
180.844	18.77
181.064	-134.82
181.283	29.01
181.503	24.92
181.723	59.73
181.943	-40.62
182.163	51.54
182.383	35.16
182.602	47.44
182.822	35.16
183.042	18.77
183.262	29.01
183.482	29.01
183.701	86.36
183.921	100.69
184.141	-13.99
184.361	41.3
184.58	82.26
184.8	-5.8
185.02	80.21
185.239	-5.8
185.459	63.83
185.679	35.16
185.898	-24.23
186.118	84.31
186.338	-42.67
186.557	76.12
186.777	29.01
186.997	43.35
187.216	69.97
187.436	78.16
187.655	76.12
187.875	59.73
188.095	26.96
188.314	55.64
188.534	133.46
188.753	20.82
188.973	31.06
189.192	69.97
189.412	92.5
189.631	59.73
189.851	67.92
190.07	139.6
190.29	2.39
190.509	92.5
190.729	37.2
190.948	94.55
191.168	145.75
191.387	63.83
191.607	26.96
191.826	78.16
192.045	10.58
192.265	55.64
192.484	18.77
192.704	43.35
192.923	-22.19
193.142	108.88
193.362	43.35
193.581	84.31
193.8	69.97
194.02	53.59
194.239	45.4
194.458	102.74
194.678	53.59
194.897	78.16
195.116	65.88
195.335	80.21
195.555	29.01
195.774	84.31
195.993	47.44
196.212	26.96
196.432	18.77
196.651	0.34
196.87	16.73
197.089	145.75
197.308	37.2
197.528	35.16
197.747	20.82
197.966	53.59
198.185	67.92
198.404	37.2
198.623	51.54
198.842	22.87
199.062	53.59
199.281	18.77
199.5	74.07
199.719	41.3
199.938	6.49
200.157	59.73
200.376	43.35
200.595	-13.99
200.814	-34.47
201.033	14.68
201.252	35.16
201.471	-13.99
201.69	104.79
201.909	53.59
202.128	76.12
202.347	104.79
202.566	-18.09
202.785	90.45
203.004	-44.71
203.223	31.06
203.442	76.12
203.661	61.78
203.879	39.25
204.098	127.32
204.317	-26.28
204.536	67.92
204.755	41.3
204.974	78.16
205.193	59.73
205.411	67.92
205.63	8.53
205.849	55.64
206.068	65.88
206.287	31.06
206.505	72.02
206.724	24.92
206.943	55.64
207.162	-3.75
207.381	76.12
207.599	-18.09
207.818	80.21
208.037	67.92
208.255	-3.75
208.474	31.06
208.693	92.5
208.911	59.73
209.13	-36.52
209.349	18.77
209.567	47.44
209.786	78.16
210.005	102.74
210.223	26.96
210.442	53.59
210.661	18.77
210.879	4.44
211.098	51.54
211.316	86.36
211.535	108.88
211.753	61.78
211.972	63.83
212.191	39.25
212.409	55.64
212.628	35.16
212.846	10.58
213.065	35.16
213.283	92.5
213.502	22.87
213.72	69.97
213.938	29.01
214.157	78.16
214.375	10.58
214.594	98.64
214.812	76.12
215.031	92.5
215.249	-30.38
215.467	39.25
215.686	67.92
215.904	22.87
216.122	143.7
216.341	18.77
216.559	14.68
216.778	80.21
216.996	39.25
217.214	37.2
217.432	80.21
217.651	43.35
217.869	61.78
218.087	100.69
218.306	141.65
218.524	47.44
218.742	-1.71
218.96	59.73
219.179	43.35
219.397	51.54
219.615	112.98
219.833	4.44
220.051	37.2
220.27	78.16
220.488	26.96
220.706	6.49
220.924	12.63
221.142	-5.8
221.36	20.82
221.578	104.79
221.796	59.73
222.015	94.55
222.233	45.4
222.451	47.44
222.669	37.2
222.887	35.16
223.105	-26.28
223.323	45.4
223.541	43.35
223.759	2.39
223.977	67.92
224.195	63.83
224.413	90.45
224.631	-3.75
224.849	12.63
225.067	67.92
225.285	-22.19
225.503	18.77
225.721	-38.57
225.939	90.45
226.157	69.97
226.375	72.02
226.592	29.01
226.81	53.59
227.028	33.11
227.246	-7.85
227.464	59.73
227.682	55.64
227.9	149.84
228.117	76.12
228.335	29.01
228.553	41.3
228.771	31.06
228.989	-5.8
229.206	35.16
229.424	51.54
229.642	-13.99
229.86	2.39
230.077	59.73
230.295	67.92
230.513	-13.99
230.731	67.92
230.948	104.79
231.166	84.31
231.384	35.16
231.601	100.69
231.819	39.25
232.037	4.44
232.254	-26.28
232.472	39.25
232.689	16.73
232.907	100.69
233.125	35.16
233.342	35.16
233.56	51.54
233.777	82.26
233.995	43.35
234.213	96.6
234.43	10.58
234.648	-20.14
234.865	10.58
235.083	86.36
235.3	22.87
235.518	78.16
235.735	59.73
235.953	117.08
236.17	80.21
236.388	82.26
236.605	31.06
236.822	33.11
237.04	29.01
237.257	37.2
237.475	-34.47
237.692	84.31
237.909	35.16
238.127	20.82
238.344	31.06
238.562	51.54
238.779	-48.81
238.996	88.4
239.214	2.39
239.431	72.02
239.648	59.73
239.865	41.3
240.083	131.41
240.3	2.39
240.517	59.73
240.735	55.64
240.952	112.98
241.169	133.46
241.386	59.73
241.603	10.58
241.821	33.11
242.038	102.74
242.255	24.92
242.472	18.77
242.689	125.27
242.907	2.39
243.124	24.92
243.341	26.96
243.558	59.73
243.775	-9.9
243.992	-54.95
244.209	57.68
244.426	86.36
244.643	78.16
244.86	-24.23
245.078	49.49
245.295	12.63
245.512	-7.85
245.729	74.07
245.946	92.5
246.163	65.88
246.38	29.01
246.597	24.92
246.814	49.49
247.031	53.59
247.248	78.16
247.464	45.4
247.681	-18.09
247.898	29.01
248.115	49.49
248.332	-1.71
248.549	55.64
248.766	76.12
248.983	26.96
249.2	49.49
249.417	63.83
249.633	51.54
249.85	69.97
250.067	31.06
250.284	31.06
250.501	39.25
250.717	51.54
250.934	2.39
251.151	22.87
251.368	72.02
251.585	39.25
251.801	-7.85
252.018	-22.19
252.235	2.39
252.451	26.96
252.668	16.73
252.885	69.97
253.102	117.08
253.318	26.96
253.535	45.4
253.752	-34.47
253.968	51.54
254.185	39.25
254.401	92.5
254.618	67.92
254.835	12.63
255.051	112.98
255.268	43.35
255.484	18.77
255.701	53.59
255.917	86.36
256.134	-5.8
256.351	59.73
256.567	-13.99
256.784	92.5
257	37.2
257.217	37.2
257.433	39.25
257.65	67.92
257.866	86.36
258.082	39.25
258.299	37.2
258.515	39.25
258.732	4.44
258.948	67.92
259.165	47.44
259.381	59.73
259.597	63.83
259.814	72.02
260.03	35.16
260.246	31.06
260.463	-5.8
260.679	39.25
260.895	51.54
261.112	69.97
261.328	-38.57
261.544	2.39
261.761	47.44
261.977	86.36
262.193	61.78
262.409	26.96
262.626	-5.8
262.842	92.5
263.058	-24.23
263.274	20.82
263.49	43.35
263.707	45.4
263.923	51.54
264.139	67.92
264.355	6.49
264.571	76.12
264.787	-26.28
265.004	76.12
265.22	100.69
265.436	20.82
265.652	31.06
265.868	14.68
266.084	0.34
266.3	-3.75
266.516	-38.57
266.732	63.83
266.948	-3.75
267.164	-1.71
267.38	100.69
267.596	98.64
267.812	80.21
268.028	61.78
268.244	0.34
268.46	78.16
268.676	37.2
268.892	61.78
269.108	-22.19
269.324	-9.9
269.54	41.3
269.756	26.96
269.972	41.3
270.188	37.2
270.403	-11.95
270.619	43.35
270.835	-3.75
271.051	29.01
271.267	6.49
271.483	67.92
271.698	-20.14
271.914	80.21
272.13	39.25
272.346	-3.75
272.562	-5.8
272.777	92.5
272.993	-40.62
273.209	41.3
273.425	6.49
273.64	45.4
273.856	67.92
274.072	88.4
274.287	49.49
274.503	78.16
274.719	123.22
274.934	63.83
275.15	2.39
275.366	45.4
275.581	104.79
275.797	74.07
276.012	51.54
276.228	10.58
276.444	26.96
276.659	125.27
276.875	39.25
277.09	67.92
277.306	18.77
277.521	84.31
277.737	69.97
277.952	67.92
278.168	72.02
278.383	18.77
278.599	-7.85
278.814	96.6
279.03	18.77
279.245	55.64
279.461	37.2
279.676	26.96
279.892	18.77
280.107	6.49
280.322	59.73
280.538	57.68
280.753	51.54
280.969	76.12
281.184	41.3
281.399	94.55
281.615	76.12
281.83	74.07
282.045	53.59
282.26	-52.91
282.476	18.77
282.691	76.12
282.906	67.92
283.122	67.92
283.337	39.25
283.552	6.49
283.767	51.54
283.983	55.64
284.198	-1.71
284.413	53.59
284.628	-22.19
284.843	53.59
285.058	55.64
285.274	67.92
285.489	-18.09
285.704	45.4
285.919	59.73
286.134	43.35
286.349	26.96
286.564	29.01
286.779	141.65
286.995	-18.09
287.21	39.25
287.425	90.45
287.64	51.54
287.855	4.44
288.07	29.01
288.285	112.98
288.5	20.82
288.715	18.77
288.93	12.63
289.145	10.58
289.36	0.34
289.575	55.64
289.79	2.39
290.004	10.58
290.219	84.31
290.434	-3.75
290.649	31.06
290.864	47.44
291.079	45.4
291.294	61.78
291.509	94.55
291.724	-26.28
291.938	39.25
292.153	33.11
292.368	16.73
292.583	76.12
292.798	4.44
293.012	-36.52
293.227	59.73
293.442	94.55
293.657	53.59
293.871	123.22
294.086	10.58
294.301	12.63
294.516	65.88
294.73	22.87
294.945	16.73
295.16	51.54
295.374	8.53
295.589	86.36
295.804	43.35
296.018	108.88
296.233	74.07
296.447	61.78
296.662	6.49
296.877	45.4
297.091	18.77
297.306	43.35
297.52	10.58
297.735	29.01
297.949	53.59
298.164	55.64
298.378	-18.09
298.593	20.82
298.807	104.79
299.022	26.96
299.236	63.83
299.451	88.4
299.665	-5.8
299.88	12.63
300.094	55.64
300.309	61.78
300.523	69.97
300.737	92.5
300.952	-40.62
301.166	92.5
301.381	6.49
301.595	61.78
301.809	78.16
302.024	35.16
302.238	14.68
302.452	53.59
302.667	94.55
302.881	53.59
303.095	20.82
303.309	4.44
303.524	67.92
303.738	88.4
303.952	29.01
304.166	76.12
304.381	18.77
304.595	78.16
304.809	41.3
305.023	69.97
305.237	59.73
305.452	2.39
305.666	72.02
305.88	94.55
306.094	55.64
306.308	119.12
306.522	45.4
306.736	65.88
306.95	133.46
307.164	35.16
307.379	61.78
307.593	61.78
307.807	63.83
308.021	35.16
308.235	-11.95
308.449	121.17
308.663	51.54
308.877	166.23
309.091	41.3
309.305	51.54
309.519	-5.8
309.733	55.64
309.947	53.59
310.161	67.92
310.374	45.4
310.588	16.73
310.802	33.11
311.016	80.21
311.23	57.68
311.444	47.44
311.658	-20.14
311.872	88.4
312.085	20.82
312.299	59.73
312.513	59.73
312.727	-26.28
312.941	29.01
313.154	84.31
313.368	82.26
313.582	-5.8
313.796	84.31
314.009	39.25
314.223	80.21
314.437	59.73
314.651	141.65
314.864	43.35
315.078	-1.71
315.292	59.73
315.505	108.88
315.719	92.5
315.933	-48.81
316.146	61.78
316.36	39.25
316.573	78.16
316.787	57.68
317.001	61.78
317.214	-38.57
317.428	43.35
317.641	53.59
317.855	67.92
318.068	59.73
318.282	100.69
318.495	88.4
318.709	86.36
318.922	26.96
319.136	92.5
319.349	158.03
319.563	92.5
319.776	-26.28
319.99	-1.71
320.203	31.06
320.417	-7.85
320.63	55.64
320.843	55.64
321.057	51.54
321.27	59.73
321.483	37.2
321.697	143.7
321.91	88.4
322.124	18.77
322.337	18.77
322.55	51.54
322.763	61.78
322.977	18.77
323.19	63.83
323.403	59.73
323.617	117.08
323.83	63.83
324.043	55.64
324.256	-3.75
324.469	33.11
324.683	123.22
324.896	53.59
325.109	29.01
325.322	12.63
325.535	125.27
325.748	104.79
325.962	20.82
326.175	121.17
326.388	67.92
326.601	67.92
326.814	76.12
327.027	12.63
327.24	115.03
327.453	29.01
327.666	100.69
327.879	100.69
328.092	67.92
328.305	20.82
328.518	31.06
328.731	80.21
328.944	80.21
329.157	98.64
329.37	-22.19
329.583	4.44
329.796	108.88
330.009	43.35
330.222	43.35
330.435	43.35
330.648	12.63
330.861	108.88
331.073	43.35
331.286	55.64
331.499	69.97
331.712	-3.75
331.925	51.54
332.138	55.64
332.35	2.39
332.563	35.16
332.776	80.21
332.989	57.68
333.202	31.06
333.414	43.35
333.627	33.11
333.84	102.74
334.053	59.73
334.265	10.58
334.478	143.7
334.691	84.31
334.903	110.93
335.116	16.73
335.329	84.31
335.541	69.97
335.754	78.16
335.966	-5.8
336.179	18.77
336.392	26.96
336.604	20.82
336.817	39.25
337.029	88.4
337.242	51.54
337.454	22.87
337.667	6.49
337.88	39.25
338.092	29.01
338.305	10.58
338.517	51.54
338.729	94.55
338.942	72.02
339.154	43.35
339.367	2.39
339.579	37.2
339.792	-1.71
340.004	55.64
340.217	94.55
340.429	88.4
340.641	33.11
340.854	18.77
341.066	-34.47
341.278	78.16
341.491	59.73
341.703	10.58
341.915	2.39
342.128	8.53
342.34	-5.8
342.552	-38.57
342.764	33.11
342.977	69.97
343.189	55.64
343.401	125.27
343.613	31.06
343.826	61.78
344.038	-22.19
344.25	26.96
344.462	35.16
344.674	55.64
344.886	72.02
345.099	92.5
345.311	84.31
345.523	26.96
345.735	16.73
345.947	49.49
346.159	2.39
346.371	61.78
346.583	51.54
346.795	72.02
347.007	16.73
347.219	18.77
347.431	59.73
347.643	108.88
347.855	33.11
348.067	94.55
348.279	-52.91
348.491	55.64
348.703	2.39
348.915	4.44
349.127	-34.47
349.339	-38.57
349.551	-7.85
349.763	84.31
349.975	67.92
350.187	100.69
350.399	63.83
350.61	59.73
350.822	26.96
351.034	24.92
351.246	141.65
351.458	16.73
351.669	61.78
351.881	51.54
352.093	47.44
352.305	59.73
352.517	121.17
352.728	110.93
352.94	51.54
353.152	35.16
353.363	49.49
353.575	14.68
353.787	84.31
353.999	35.16
354.21	86.36
354.422	72.02
354.633	98.64
354.845	61.78
355.057	106.84
355.268	117.08
355.48	39.25
355.692	26.96
355.903	-1.71
356.115	67.92
356.326	-16.04
356.538	94.55
356.749	100.69
356.961	76.12
357.172	72.02
357.384	69.97
357.595	121.17
357.807	6.49
358.018	112.98
358.23	53.59
358.441	106.84
358.653	39.25
358.864	53.59
359.075	100.69
359.287	26.96
359.498	67.92
359.709	39.25
359.921	102.74
360.132	106.84
360.344	14.68
360.555	76.12
360.766	18.77
360.977	100.69
361.189	110.93
361.4	63.83
361.611	92.5
361.823	137.56
362.034	84.31
362.245	8.53
362.456	78.16
362.667	94.55
362.879	51.54
363.09	170.32
363.301	74.07
363.512	47.44
363.723	76.12
363.935	92.5
364.146	102.74
364.357	18.77
364.568	51.54
364.779	31.06
364.99	67.92
365.201	2.39
365.412	37.2
365.623	67.92
365.834	-28.33
366.045	35.16
366.256	55.64
366.467	108.88
366.678	100.69
366.889	18.77
367.1	4.44
367.311	69.97
367.522	-1.71
367.733	51.54
367.944	55.64
368.155	4.44
368.366	129.36
368.577	80.21
368.788	20.82
368.999	14.68
369.209	18.77
369.42	115.03
369.631	135.51
369.842	59.73
370.053	59.73
370.264	-5.8
370.474	0.34
370.685	80.21
370.896	59.73
371.107	18.77
371.317	57.68
371.528	20.82
371.739	35.16
371.95	80.21
372.16	26.96
372.371	41.3
372.582	94.55
372.792	10.58
373.003	84.31
373.214	47.44
373.424	-7.85
373.635	26.96
373.846	102.74
374.056	45.4
374.267	20.82
374.477	47.44
374.688	76.12
374.898	94.55
375.109	78.16
375.319	84.31
375.53	20.82
375.74	92.5
375.951	72.02
376.161	33.11
376.372	-16.04
376.582	14.68
376.793	37.2
377.003	26.96
377.214	59.73
377.424	14.68
377.635	6.49
377.845	6.49
378.055	112.98
378.266	94.55
378.476	2.39
378.686	45.4
378.897	108.88
379.107	86.36
379.317	59.73
379.528	72.02
379.738	100.69
379.948	26.96
380.158	117.08
380.369	35.16
380.579	110.93
380.789	119.12
380.999	135.51
381.21	39.25
381.42	117.08
381.63	-16.04
381.84	92.5
382.05	96.6
382.261	86.36
382.471	76.12
382.681	51.54
382.891	112.98
383.101	53.59
383.311	92.5
383.521	51.54
383.731	149.84
383.941	125.27
384.151	110.93
384.361	67.92
384.571	100.69
384.781	94.55
384.991	80.21
385.201	127.32
385.411	4.44
385.621	141.65
385.831	41.3
386.041	67.92
386.251	121.17
386.461	102.74
386.671	43.35
386.881	59.73
387.091	74.07
387.301	16.73
387.511	92.5
387.72	37.2
387.93	80.21
388.14	43.35
388.35	74.07
388.56	84.31
388.769	137.56
388.979	55.64
389.189	67.92
389.399	129.36
389.609	98.64
389.818	86.36
390.028	94.55
390.238	61.78
390.447	12.63
390.657	133.46
390.867	112.98
391.076	98.64
391.286	51.54
391.496	104.79
391.705	22.87
391.915	78.16
392.125	86.36
392.334	61.78
392.544	119.12
392.753	35.16
392.963	29.01
393.172	69.97
393.382	55.64
393.591	55.64
393.801	143.7
394.01	149.84
394.22	74.07
394.429	4.44
394.639	72.02
394.848	135.51
395.058	127.32
395.267	55.64
395.477	84.31
395.686	149.84
395.895	61.78
396.105	145.75
396.314	22.87
396.524	149.84
396.733	86.36
396.942	96.6
397.152	139.6
397.361	129.36
397.57	108.88
397.78	166.23
397.989	125.27
398.198	196.95
398.407	117.08
398.617	67.92
398.826	143.7
399.035	123.22
399.244	100.69
399.453	76.12
399.663	182.61
399.872	108.88
400.081	86.36
400.29	149.84
400.499	108.88
400.708	139.6
400.917	59.73
401.127	168.27
401.336	61.78
401.545	141.65
401.754	137.56
401.963	143.7
402.172	117.08
402.381	151.89
402.59	153.94
402.799	84.31
403.008	182.61
403.217	127.32
403.426	137.56
403.635	153.94
403.844	133.46
404.053	182.61
404.262	141.65
404.471	231.76
404.68	201.04
404.888	117.08
405.097	166.23
405.306	227.67
405.515	174.42
405.724	149.84
405.933	190.8
406.142	133.46
406.35	289.1
406.559	182.61
406.768	174.42
406.977	184.66
407.185	170.32
407.394	160.08
407.603	174.42
407.812	213.33
408.02	239.95
408.229	256.34
408.438	182.61
408.646	215.38
408.855	217.43
409.064	246.1
409.272	315.73
409.481	244.05
409.69	285.01
409.898	317.78
410.107	321.87
410.315	338.26
410.524	411.98
410.733	346.45
410.941	264.53
411.15	385.36
411.358	393.55
411.567	381.26
411.775	397.65
411.984	454.99
412.192	409.94
412.401	348.5
412.609	575.82
412.818	483.66
413.026	577.87
413.234	495.95
413.443	616.78
413.651	526.67
413.86	538.96
414.068	592.2
414.276	624.97
414.485	655.69
414.693	674.12
414.901	692.55
415.11	733.51
415.318	764.23
415.526	629.07
415.734	813.38
415.943	764.23
416.151	829.77
416.359	856.39
416.567	915.78
416.776	962.89
416.984	979.27
417.192	1063.24
417.4	997.7
417.608	1050.95
417.817	997.7
418.025	1214.79
418.233	1132.87
418.441	1182.02
418.649	1231.17
418.857	1374.53
419.065	1288.51
419.273	1272.13
419.481	1368.38
419.689	1487.17
419.897	1507.65
420.105	1583.42
420.313	1577.28
420.521	1743.16
420.729	1751.35
420.937	1673.53
421.145	1761.59
421.353	1845.56
421.561	1993.01
421.769	1962.3
421.977	2148.66
422.185	2197.81
422.393	2257.2
422.601	2292.02
422.809	2335.03
423.017	2355.51
423.224	2431.28
423.432	2666.8
423.64	2623.79
423.848	2892.07
424.056	2806.06
424.263	2838.83
424.471	2949.42
424.679	2967.85
424.887	3160.36
425.094	3279.14
425.302	3283.24
425.51	3340.58
425.718	3391.78
425.925	3492.13
426.133	3674.4
426.341	3866.91
426.548	4100.37
426.756	3918.11
426.964	4186.39
427.171	4159.77
427.379	4366.61
427.586	4434.19
427.794	4638.99
428.001	4894.99
428.209	4983.05
428.417	5120.26
428.624	5234.95
428.832	5245.19
429.039	5345.54
429.247	5282.05
429.454	5773.57
429.662	6269.17
429.869	5847.29
430.076	6193.4
430.284	5888.25
430.491	6222.07
430.699	6519.03
430.906	6504.69
431.114	6701.3
431.321	6834.41
431.528	7035.11
431.736	7635.17
431.943	7825.63
432.15	7639.26
432.358	7706.85
432.565	7928.03
432.772	8079.58
432.979	8589.52
433.187	8665.3
433.394	8646.87
433.601	9341.13
433.808	9193.67
434.016	9433.29
434.223	9631.94
434.43	10174.65
434.637	9945.28
434.844	10737.84
435.052	10807.47
435.259	11014.32
435.466	10813.62
435.673	10694.83
435.88	11374.76
436.087	11892.9
436.294	11976.86
436.501	11600.04
436.708	11896.99
436.915	12322.97
437.122	13011.09
437.329	12636.31
437.537	13299.85
437.743	13387.91
437.95	13312.14
438.157	13910.15
438.364	14567.54
438.571	14592.12
438.778	14620.79
438.985	16089.18
439.192	15308.91
439.399	15874.15
439.606	15640.68
439.813	16271.45
440.02	17305.68
440.227	17012.82
440.433	16736.34
440.64	17399.88
440.847	17193.04
441.054	17295.44
441.261	18817.08
441.467	18589.75
441.674	18901.04
441.881	19367.98
442.088	19587.11
442.294	19408.94
442.501	19767.34
442.708	20342.81
442.914	21186.58
443.121	21712.91
443.328	21252.11
443.534	22763.51
443.741	21897.22
443.948	21837.83
444.154	23343.09
444.361	23396.34
444.568	23468.02
444.774	23472.11
444.981	23621.61
445.187	24397.79
445.394	25262.04
445.6	25024.47
445.807	27510.71
446.013	26374.08
446.22	26867.64
446.426	27652.02
446.633	28129.19
446.839	29077.4
447.046	27557.81
447.252	28964.76
447.459	29147.03
447.665	29298.58
447.871	30193.54
448.078	31666.03
448.284	30162.83
448.491	31147.9
448.697	32345.96
448.903	32642.92
449.11	32483.17
449.316	32206.7
449.522	32989.02
449.728	33840.98
449.935	34049.87
450.141	33883.98
450.347	35082.05
450.553	33929.04
450.76	34021.2
450.966	35202.88
451.172	34697.03
451.378	35610.42
451.584	34959.17
451.791	35635
451.997	35575.61
452.203	36517.67
452.409	36165.42
452.615	35936.05
452.821	34750.28
453.027	34164.56
453.233	36210.48
453.44	34481.99
453.646	35221.31
453.852	35782.45
454.058	36140.85
454.264	34852.67
454.47	35553.08
454.676	34934.59
454.882	35940.14
455.088	32671.59
455.294	33480.53
455.5	33863.5
455.705	34348.87
455.911	33070.94
456.117	32135.02
456.323	31610.74
456.529	29917.07
456.735	31618.93
456.941	30846.85
457.147	30211.98
457.352	29458.32
457.558	29087.64
457.764	29134.74
457.97	28420
458.176	28016.55
458.381	27910.06
458.587	26750.91
458.793	26525.63
458.999	25151.45
459.204	26755.01
459.41	26222.53
459.616	24522.72
459.821	24858.59
460.027	24565.73
460.233	23947.24
460.438	22624.25
460.644	23074.81
460.85	21946.37
461.055	21846.02
461.261	21583.88
461.466	19990.56
461.672	19314.73
461.878	20869.14
462.083	19331.12
462.289	19177.52
462.494	19023.92
462.7	18042.95
462.905	17745.99
463.111	18131.01
463.316	18311.23
463.522	17629.26
463.727	17616.97
463.932	17764.42
464.138	17637.45
464.343	17625.16
464.549	17199.18
464.754	17827.91
464.959	17475.66
465.165	17475.66
465.37	16822.36
465.575	16279.64
465.781	16719.96
465.986	17121.36
466.191	16242.78
466.397	15880.29
466.602	15550.57
466.807	15947.87
467.012	16019.55
467.218	15927.39
467.423	15685.73
467.628	15749.22
467.833	16480.35
468.038	15947.87
468.244	15167.6
468.449	15902.82
468.654	15339.63
468.859	15347.82
469.064	15175.79
469.269	14415.99
469.474	14741.62
469.679	14854.26
469.885	14448.76
470.09	14719.09
470.295	14571.64
470.5	14133.37
470.705	14209.15
470.91	14186.62
471.115	13863.04
471.32	14119.04
471.525	13897.86
471.73	13717.64
471.935	13695.11
472.139	13361.29
472.344	13201.55
472.549	13291.66
472.754	13113.49
472.959	12775.57
473.164	12470.42
473.369	12576.92
473.574	13093.01
473.778	12669.08
473.983	12499.09
474.188	12619.92
474.393	12052.64
474.598	12064.93
474.802	11745.44
475.007	12241.05
475.212	11860.13
475.417	11577.51
475.621	11608.23
475.826	11544.74
476.031	11288.75
476.235	10954.93
476.44	11315.37
476.645	10784.94
476.849	11053.23
477.054	10778.8
477.259	10750.13
477.463	10664.11
477.668	10606.77
477.872	10461.37
478.077	10361.02
478.282	10160.31
478.486	10193.08
478.691	10154.17
478.895	10084.54
479.1	9820.35
479.304	9881.79
479.509	9513.16
479.713	9695.43
479.918	9674.95
480.122	9357.51
480.326	9570.5
480.531	9570.5
480.735	9433.29
480.94	9490.63
481.144	9504.96
481.348	9234.63
481.553	9201.86
481.757	9021.64
481.961	9324.74
482.166	9398.47
482.37	9234.63
482.574	9040.08
482.778	9251.02
482.983	9158.86
483.187	9066.7
483.391	9330.89
483.595	9015.5
483.8	9031.88
484.004	9187.53
484.208	9091.27
484.412	8964.3
484.616	9314.5
484.821	9132.23
485.025	9093.32
485.229	9193.67
485.433	9031.88
485.637	9025.74
485.841	9081.03
486.045	8929.49
486.249	9224.39
486.453	9097.42
486.657	9121.99
486.861	9033.93
487.065	8786.13
487.269	9023.69
487.473	8900.81
487.677	9074.89
487.881	9183.43
488.085	9119.95
488.289	9111.75
488.493	9015.5
488.697	9177.29
488.901	9160.91
489.105	9177.29
489.309	9195.72
489.512	9218.25
489.716	8964.3
489.92	9093.32
490.124	9054.41
490.328	9488.58
490.531	9165
490.735	9113.8
490.939	9382.09
491.143	9242.82
491.346	9404.61
491.55	9539.78
491.754	9320.65
491.958	9500.87
492.161	9521.35
492.365	9416.9
492.569	9615.55
492.772	9648.32
492.976	9619.65
493.18	9724.1
493.383	9988.28
493.587	9922.75
493.79	9941.18
493.994	9752.77
494.197	9967.81
494.401	10039.48
494.605	9937.09
494.808	10164.41
495.012	10221.75
495.215	10098.88
495.419	10582.2
495.622	10512.56
495.825	10553.52
496.029	10594.48
496.232	10995.89
496.436	10729.65
496.639	10866.86
496.843	10780.85
497.046	11081.9
497.249	11081.9
497.453	11120.81
497.656	11225.26
497.859	11397.29
498.063	11462.82
498.266	11471.01
498.469	11571.36
498.673	11739.3
498.876	11827.36
499.079	12198.04
499.282	11856.03
499.485	12474.52
499.689	12413.08
499.892	12675.22
500.095	12683.41
500.298	13064.33
500.501	12693.65
500.705	13531.27
500.908	13224.08
501.111	13332.62
501.314	13394.06
501.517	13756.55
501.72	13885.57
501.923	13936.77
502.126	14086.27
502.329	14430.33
502.532	14223.48
502.735	14235.77
502.938	14633.08
503.141	14772.34
503.344	15231.08
503.547	14911.6
503.75	15147.12
503.953	15468.65
504.156	15669.35
504.359	15665.25
504.562	15814.76
504.765	15992.93
504.968	16199.77
505.17	16447.58
505.373	16756.82
505.576	16996.43
505.779	16975.95
505.982	17178.7
506.185	17373.26
506.387	17436.75
506.59	17553.48
506.793	18036.8
506.996	17885.25
507.198	18298.94
507.401	18153.54
507.604	18427.96
507.807	18802.74
508.009	18821.17
508.212	18999.35
508.415	19337.26
508.617	19429.42
508.82	19609.64
509.022	19572.78
509.225	20320.29
509.428	20281.38
509.63	20355.1
509.833	20484.12
510.035	21168.15
510.238	20893.72
510.44	21022.74
510.643	21401.61
510.845	21743.63
511.048	21596.17
511.25	21973
511.453	22245.38
511.655	22857.72
511.858	22544.38
512.06	22861.82
512.262	22841.34
512.465	22689.79
512.667	23508.97
512.87	23939.05
513.072	23533.55
513.274	23980.01
513.477	24496.1
513.679	24760.28
513.881	24831.96
514.084	24834.01
514.286	24981.46
514.488	25167.83
514.69	25823.18
514.893	25821.13
515.095	26062.79
515.297	26462.15
515.499	26345.41
515.701	26625.98
515.904	26734.53
516.106	27371.44
516.308	27508.66
516.51	27514.8
516.712	27682.73
516.914	27942.83
517.116	28233.64
517.318	28612.51
517.52	28575.65
517.722	28905.37
517.925	29083.55
518.127	29370.26
518.329	29603.73
518.531	29374.36
518.733	30154.63
518.935	30209.93
519.136	30529.41
519.338	30957.44
519.54	31176.57
519.742	31145.85
519.944	31498.1
520.146	31872.88
520.348	31924.08
520.55	32014.19
520.752	32139.11
520.954	32786.27
521.155	32583.52
521.357	33122.14
521.559	33445.72
521.761	33691.48
521.963	33902.42
522.164	33883.98
522.366	34248.52
522.568	34182.99
522.77	34688.84
522.971	35125.05
523.173	34955.07
523.375	35184.44
523.576	35053.37
523.778	35292.99
523.98	35598.13
524.181	35360.57
524.383	35911.47
524.584	36200.24
524.786	36333.35
524.988	36507.43
525.189	36546.34
525.391	37048.1
525.592	37388.06
525.794	37480.22
525.995	37562.14
526.197	37484.31
526.398	37345.05
526.6	38080.27
526.801	37900.05
527.003	38131.47
527.204	38090.51
527.406	38768.39
527.607	38110.99
527.808	38629.13
528.01	38350.6
528.211	38590.22
528.412	39413.5
528.614	38797.06
528.815	38692.61
529.016	39335.68
529.218	38946.56
529.419	39194.37
529.62	39112.45
529.822	39243.52
530.023	39122.69
530.224	39188.22
530.425	39096.06
530.626	38958.85
530.828	39300.86
531.029	39782.13
531.23	39476.99
531.431	39581.43
531.632	39782.13
531.833	39608.06
532.035	40130.29
532.236	39925.49
532.437	39993.08
532.638	39882.48
532.839	39888.63
533.04	40171.25
533.241	39956.21
533.442	40380.14
533.643	40220.4
533.844	40183.54
534.045	40189.68
534.246	39894.77
534.447	40165.1
534.648	40019.7
534.849	40244.98
535.05	39837.43
535.251	40111.86
535.451	39819
535.652	40134.38
535.853	40017.65
536.054	40199.92
536.255	40275.69
536.456	39827.19
536.657	40728.3
536.857	40181.49
537.058	39771.89
537.259	40488.68
537.46	40572.65
537.66	40109.81
537.861	39843.57
538.062	39796.47
538.263	39952.12
538.463	40021.75
538.664	40120.05
538.865	40062.71
539.065	40302.32
539.266	40118
539.466	40070.9
539.667	39649.02
539.868	40396.52
540.068	40099.57
540.269	39833.33
540.469	40402.67
540.67	39821.05
540.87	40175.34
541.071	39802.61
541.271	40115.95
541.472	39614.2
541.672	39659.26
541.873	39706.36
542.073	39255.81
542.274	40042.23
542.474	39423.74
542.675	39616.25
542.875	39894.77
543.075	39757.56
543.276	39739.13
543.476	40064.75
543.676	39917.3
543.877	39683.83
544.077	40044.27
544.277	39571.19
544.478	39909.11
544.678	40066.8
544.878	39671.54
545.078	39544.57
545.279	39448.32
545.479	39094.02
545.679	39677.69
545.879	39333.63
546.079	39591.67
546.28	39247.61
546.48	39132.93
546.68	39384.83
546.88	39655.16
547.08	39393.02
547.28	39020.29
547.48	39167.74
547.68	39317.25
547.88	39423.74
548.081	39714.55
548.281	39233.28
548.481	39155.46
548.681	39573.24
548.881	39743.22
549.081	39278.33
549.28	39294.72
549.48	39495.42
549.68	38930.18
549.88	39925.49
550.08	38852.36
550.28	39536.38
550.48	39407.36
550.68	39386.88
550.88	39237.37
551.08	39223.04
551.279	39585.53
551.479	39077.63
551.679	38997.76
551.879	39460.6
552.079	39333.63
552.278	38987.52
552.478	38838.02
552.678	38786.82
552.878	39304.96
553.077	39204.61
553.277	38878.98
553.477	39804.66
553.676	38745.86
553.876	38598.41
554.076	38876.93
554.275	38565.64
554.475	38348.56
554.674	38956.8
554.874	38741.77
555.074	38475.53
555.273	38670.09
555.473	38979.33
555.672	38121.23
555.872	38776.58
556.071	39010.05
556.271	38659.85
556.47	38518.54
556.67	38420.24
556.869	38516.49
557.068	38549.26
557.268	38172.43
557.467	38027.03
557.667	38334.22
557.866	38410
558.065	38092.56
558.265	38117.14
558.464	37795.6
558.663	38096.66
558.863	37687.06
559.062	38346.51
559.261	37631.77
559.461	38201.1
559.66	37672.73
559.859	37930.77
560.058	37375.77
560.258	37861.14
560.457	37480.22
560.656	37885.72
560.855	37234.46
561.054	37715.73
561.253	37256.99
561.453	37689.11
561.652	37826.32
561.851	37429.02
562.05	36806.44
562.249	36896.55
562.448	37291.8
562.647	37424.92
562.846	37414.68
563.045	36722.47
563.244	36933.41
563.443	37336.86
563.642	36804.39
563.841	36984.61
564.04	36751.14
564.239	36863.78
564.438	36683.56
564.637	36618.02
564.836	36622.12
565.035	36165.42
565.234	36210.48
565.432	36247.34
565.631	36271.92
565.83	36099.89
566.029	35723.06
566.228	35784.5
566.427	35678
566.625	36042.54
566.824	35399.48
567.023	35868.47
567.222	35147.58
567.42	35991.34
567.619	35581.75
567.818	35651.38
568.016	35376.95
568.215	35745.59
568.414	35444.54
568.612	35548.98
568.811	35018.56
569.01	34899.78
569.208	34965.31
569.407	35120.96
569.605	34807.62
569.804	35047.23
570.002	34891.58
570.201	34498.37
570.4	34553.67
570.598	34414.41
570.797	34246.47
570.995	34344.78
571.193	33951.57
571.392	34664.26
571.59	34189.13
571.789	34019.15
571.987	33802.07
572.186	33677.14
572.384	34037.58
572.582	33716.05
572.781	34127.69
572.979	33572.69
573.177	33580.88
573.376	33789.78
573.574	33275.74
573.772	33453.91
573.971	33285.98
574.169	32880.48
574.367	32771.94
574.565	33591.12
574.763	33072.99
574.962	32921.44
575.16	32241.51
575.358	32710.5
575.556	32120.68
575.754	32429.93
575.952	31917.93
576.151	32771.94
576.349	32188.27
576.547	32077.68
576.745	32108.4
576.943	32309.1
577.141	32087.92
577.339	31815.54
577.537	31917.93
577.735	31797.1
577.933	31713.14
578.131	31459.19
578.329	31383.41
578.527	31377.27
578.725	31111.03
578.923	31475.57
579.121	31362.93
579.319	31215.48
579.516	31293.3
579.714	31033.21
579.912	30617.47
580.11	30531.46
580.308	31059.84
580.506	30408.58
580.704	30326.66
580.901	30689.15
581.099	30654.34
581.297	30429.06
581.495	30211.98
581.692	30355.33
581.89	30015.37
582.088	30230.41
582.285	29847.44
582.483	30041.99
582.681	30052.23
582.878	29884.3
583.076	29566.87
583.274	29876.11
583.471	29347.73
583.669	29296.53
583.866	29415.32
584.064	29536.15
584.262	28831.65
584.459	29310.87
584.657	29097.88
584.854	29274.01
585.052	28628.9
585.249	29024.15
585.447	28944.28
585.644	28698.53
585.841	28577.7
586.039	28286.89
586.236	28387.24
586.434	28227.49
586.631	28458.92
586.828	28463.01
587.026	28460.96
587.223	28020.65
587.42	27955.11
587.618	27955.11
587.815	27770.8
588.012	27496.37
588.21	27897.77
588.407	27934.64
588.604	27609.01
588.801	27426.74
588.999	27414.45
589.196	27477.94
589.393	27297.72
589.59	27363.25
589.787	27056.06
589.984	27135.93
590.182	26920.89
590.379	27037.62
590.576	26656.7
590.773	27017.15
590.97	27021.24
591.167	26720.19
591.364	26167.24
591.561	26691.52
591.758	26394.56
591.955	26212.29
592.152	26564.54
592.349	26095.56
592.546	26240.96
592.743	26148.81
592.94	25868.23
593.137	26068.94
593.334	25929.67
593.531	25489.36
593.727	25620.43
593.924	25284.56
594.121	25290.71
594.318	25620.43
594.515	24971.22
594.712	25655.25
594.908	25327.57
595.105	25333.71
595.302	25020.38
595.499	25184.21
595.696	24834.01
595.892	24850.39
596.089	24860.63
596.286	24682.46
596.482	24844.25
596.679	24360.93
596.876	24608.73
597.072	24401.89
597.269	24547.29
597.466	24201.19
597.662	24299.49
597.859	24119.27
598.055	24270.82
598.252	23789.55
598.448	23730.16
598.645	24098.79
598.841	23644.14
599.038	23750.63
599.234	23746.54
599.431	23472.11
599.627	23410.67
599.824	23662.57
600.02	23513.07
600.217	23613.42
600.413	23087.09
600.609	23332.85
600.806	22861.82
601.002	23242.74
601.198	22999.03
601.395	23074.81
601.591	23105.52
601.787	22943.74
601.984	22620.16
602.18	22638.59
602.376	22630.4
602.572	22628.35
602.769	22560.77
602.965	22315.01
603.161	22681.6
603.357	22362.11
603.553	22216.71
603.75	22292.48
603.946	22065.16
604.142	22259.71
604.338	21786.63
604.534	22130.69
604.73	21800.97
604.926	21608.46
605.122	21530.64
605.318	21807.11
605.514	21432.33
605.71	21276.69
605.906	21377.04
606.102	21383.18
606.298	21356.56
606.494	21399.57
606.69	21370.9
606.886	21356.56
607.082	21084.18
607.278	21067.8
607.474	20836.38
607.67	21018.64
607.866	20781.08
608.062	21186.58
608.257	20992.02
608.453	20600.86
608.649	21018.64
608.845	20641.82
609.041	20394.01
609.236	20721.69
609.432	20625.43
609.628	20564
609.824	20611.1
610.019	20242.46
610.215	20041.76
610.411	20381.73
610.606	20260.9
610.802	20408.35
610.998	20224.03
611.193	20066.34
611.389	20209.7
611.584	20258.85
611.78	19916.84
611.976	20205.6
612.171	20242.46
612.367	20119.59
612.562	19845.16
612.758	19720.23
612.953	19492.91
613.149	20101.15
613.344	19679.27
613.539	19941.41
613.735	19673.13
613.93	19738.66
614.126	19470.38
614.321	19644.46
614.517	19408.94
614.712	19486.76
614.907	19261.49
615.103	19542.06
615.298	19447.85
615.493	19374.13
615.688	19083.31
615.884	19857.45
616.079	19173.42
616.274	19640.36
616.47	19228.72
616.665	19054.64
616.86	18718.78
617.055	18915.38
617.25	19136.56
617.445	19130.42
617.641	18985.01
617.836	18868.28
618.031	18456.64
618.226	18733.11
618.421	18311.23
618.616	18862.13
618.811	18487.36
619.006	18548.79
619.201	18464.83
619.396	18495.55
619.591	18008.13
619.786	18223.17
619.981	17854.53
620.176	18167.87
620.371	17913.92
620.566	17868.87
620.761	17848.39
620.956	17872.96
621.151	17356.88
621.346	17805.38
621.541	17248.33
621.735	17858.63
621.93	17158.22
622.125	17526.86
622.32	16988.24
622.515	16992.34
622.709	17147.98
622.904	16922.71
623.099	16707.67
623.294	16672.85
623.488	16642.14
623.683	16613.46
623.878	16230.49
624.072	16607.32
624.267	16298.08
624.462	16207.97
624.656	16177.25
624.851	16341.08
625.046	16105.57
625.24	15915.11
625.435	15786.08
625.629	16058.46
625.824	15554.66
626.018	15437.93
626.213	15165.55
626.407	15724.65
626.602	15411.31
626.796	15181.93
626.991	15280.24
627.185	15186.03
627.38	15030.38
627.574	14839.92
627.768	14878.83
627.963	14749.81
628.157	14362.75
628.352	14710.9
628.546	14153.85
628.74	14631.03
628.935	14510.2
629.129	14280.83
629.323	14039.17
629.517	14246.01
629.712	14291.07
629.906	13961.34
630.1	13961.34
630.294	13959.3
630.489	13811.84
630.683	13887.62
630.877	13469.83
631.071	13428.87
631.265	13666.44
631.459	13568.13
631.653	13166.73
631.848	13330.57
632.042	13207.69
632.236	13277.32
632.43	12949.65
632.624	13009.04
632.818	13039.76
633.012	12849.3
633.206	12865.68
633.4	12886.16
633.594	12656.79
633.788	12685.46
633.982	12523.67
634.176	12519.57
634.369	12322.97
634.563	12265.63
634.757	12230.81
634.951	12345.5
635.145	12105.88
635.339	12210.33
635.533	12124.32
635.726	11892.9
635.92	12060.83
636.114	11903.14
636.308	11718.82
636.501	11741.35
636.695	11815.07
636.889	11466.92
637.083	11542.69
637.276	11671.72
637.47	11360.42
637.664	11397.29
637.857	11231.4
638.051	11311.27
638.244	11104.43
638.438	11243.69
638.632	10938.54
638.825	10987.69
639.019	10832.05
639.212	10963.12
639.406	10713.27
639.599	10737.84
639.793	10791.09
639.986	10635.44
640.18	10580.15
640.373	10535.09
640.567	10500.28
640.76	10430.65
640.954	10340.54
641.147	10352.82
641.34	10135.74
641.534	10313.91
641.727	10123.45
641.92	10205.37
642.114	10098.88
642.307	10041.53
642.5	9959.61
642.694	9760.96
642.887	9816.26
643.08	9922.75
643.273	9760.96
643.467	9783.49
643.66	9734.34
643.853	9625.79
644.046	9470.15
644.239	9537.73
644.432	9296.07
644.626	9472.2
644.819	9349.32
645.012	9406.66
645.205	9248.97
645.398	9181.39
645.591	9029.84
645.784	9212.1
645.977	8966.35
646.17	8999.12
646.363	8933.58
646.556	8882.38
646.749	8915.15
646.942	8855.76
647.135	8712.4
647.328	8718.54
647.521	8612.05
647.714	8456.4
647.907	8763.6
648.099	8728.78
648.292	8564.95
648.485	8624.34
648.678	8194.26
648.871	8526.04
649.064	8175.83
649.256	8313.05
649.449	8124.63
649.642	8012
649.835	8079.58
650.027	8095.96
650.22	8132.83
650.413	7962.84
650.605	7985.37
650.798	8024.28
650.991	7901.4
651.183	8130.78
651.376	7751.9
651.568	7854.3
651.761	7614.69
651.954	7645.41
652.146	7563.49
652.339	7590.11
652.531	7502.05
652.724	7661.79
652.916	7362.79
653.109	7477.48
653.301	7547.11
653.494	7473.38
653.686	7299.3
653.879	7446.76
654.071	7088.36
654.263	7190.76
654.456	7074.03
654.648	7153.9
654.84	6998.25
655.033	7047.4
655.225	6932.72
655.417	7059.69
655.61	6906.09
655.802	6938.86
655.994	6940.91
656.186	6877.42
656.379	6787.31
656.571	6842.6
656.763	6646
656.955	6736.11
657.148	6596.85
657.34	6555.89
657.532	6500.59
657.724	6512.88
657.916	6635.76
658.108	6572.27
658.3	6514.93
658.492	6476.02
658.684	6312.18
658.876	6377.72
659.068	6275.32
659.26	6375.67
659.452	6385.91
659.644	6318.32
659.836	6205.69
660.028	6195.45
660.22	6101.24
660.412	6129.91
660.604	6019.32
660.796	5931.26
660.988	5900.54
661.18	5998.84
661.372	5875.96
661.563	5869.82
661.755	6004.99
661.947	5984.51
662.139	5888.25
662.331	5841.15
662.522	5679.36
662.714	5712.13
662.906	5630.21
663.097	5685.5
663.289	5648.64
663.481	5581.06
663.673	5640.45
663.864	5558.53
664.056	5542.14
664.247	5466.37
664.439	5374.21
664.631	5468.42
664.822	5622.02
665.014	5441.79
665.205	5355.78
665.397	5277.96
665.588	5402.88
665.78	5327.11
665.971	5396.74
666.163	5318.92
666.354	5259.53
666.546	5247.24
666.737	5191.94
666.929	5058.82
667.12	5196.04
667.311	5081.35
667.503	4964.62
667.694	5105.93
667.885	5058.82
668.077	5050.63
668.268	4956.43
668.459	5050.63
668.651	4925.71
668.842	4970.76
669.033	4974.86
669.224	4823.31
669.416	4970.76
669.607	4790.54
669.798	4905.23
669.989	4905.23
670.18	4745.48
670.371	4835.6
670.563	4755.72
670.754	4765.96
670.945	4641.04
671.136	4682
671.327	4557.07
671.518	4665.61
671.709	4645.13
671.9	4677.9
672.091	4579.6
672.282	4641.04
672.473	4417.81
672.664	4430.1
672.855	4536.59
673.046	4536.59
673.237	4565.26
673.428	4296.98
673.619	4524.3
673.809	4393.23
674	4327.7
674.191	4352.27
674.382	4327.7
674.573	4395.28
674.764	4258.07
674.954	4434.19
675.145	4200.73
675.336	4290.84
675.527	4327.7
675.717	4241.68
675.908	4346.13
676.099	4167.96
676.289	4358.42
676.48	4372.75
676.671	4215.06
676.861	4174.1
677.052	4188.44
677.243	4118.81
677.433	4196.63
677.624	4182.29
677.814	3969.3
678.005	4131.09
678.195	3979.54
678.386	3993.88
678.576	4032.79
678.767	3987.74
678.957	4008.22
679.148	4098.33
679.338	3975.45
679.529	4092.18
679.719	3997.98
679.909	4118.81
680.1	4200.73
680.29	4094.23
680.481	4028.7
680.671	3959.06
680.861	4028.7
681.052	4012.31
681.242	3928.35
681.432	3983.64
681.622	3936.54
681.813	3905.82
682.003	4077.85
682.193	3879.19
682.383	3860.76
682.573	3889.43
682.764	3934.49
682.954	3819.8
683.144	3893.53
683.334	3805.47
683.524	3793.18
683.714	3770.65
683.904	3805.47
684.094	3897.63
684.284	3756.32
684.474	3819.8
684.664	3746.08
684.854	3807.52
685.044	3928.35
685.234	3750.17
685.424	3741.98
685.614	3666.21
685.804	3647.77
685.994	3533.09
686.184	3680.54
686.374	3692.83
686.564	3565.85
686.753	3637.53
686.943	3524.9
687.133	3666.21
687.323	3520.8
687.513	3586.33
687.702	3533.09
687.892	3510.56
688.082	3516.7
688.272	3580.19
688.461	3496.22
688.651	3543.33
688.841	3471.65
689.03	3545.38
689.22	3469.6
689.41	3383.59
689.599	3485.98
689.789	3320.1
689.979	3414.31
690.168	3344.67
690.358	3365.15
690.547	3232.04
690.737	3305.76
690.926	3316
691.116	3213.6
691.305	3330.34
691.495	3295.52
691.684	3254.56
691.874	3326.24
692.063	3125.54
692.252	3164.45
692.442	3264.8
692.631	3221.8
692.82	3193.12
693.01	3115.3
693.199	3182.88
693.388	3184.93
693.578	3158.31
693.767	3057.96
693.956	3191.08
694.146	3127.59
694.335	3074.34
694.524	3053.86
694.713	3078.44
694.902	3062.05
695.092	2959.66
695.281	3053.86
695.47	3010.86
695.659	3023.14
695.848	2986.28
696.037	3060.01
696.226	2971.94
696.415	2992.42
696.604	3004.71
696.793	3019.05
696.982	3002.66
697.171	2976.04
697.36	2984.23
697.549	2973.99
697.738	2840.87
697.927	3029.29
698.116	3000.62
698.305	2838.83
698.494	2834.73
698.683	2853.16
698.872	2877.74
699.061	2783.53
699.25	2838.83
699.438	2912.55
699.627	2918.7
699.816	2865.45
700.005	2853.16
700.193	2861.35
700.382	2826.54
700.571	2775.34
700.76	2820.39
700.948	2877.74
701.137	2707.76
701.326	2820.39
701.514	2781.48
701.703	2791.72
701.892	2795.82
702.08	2679.08
702.269	2822.44
702.457	2847.02
702.646	2912.55
702.834	2576.69
703.023	2724.14
703.212	2814.25
703.4	2664.75
703.589	2724.14
703.777	2799.91
703.965	2640.17
704.154	2863.4
704.342	2744.62
704.531	2683.18
704.719	2642.22
704.907	2713.9
705.096	2705.71
705.284	2740.52
705.472	2636.08
705.661	2720.04
705.849	2642.22
706.037	2683.18
706.226	2722.09
706.414	2738.48
706.602	2558.25
706.79	2631.98
706.979	2711.85
707.167	2742.57
707.355	2656.56
707.543	2683.18
707.731	2603.31
707.919	2625.84
708.107	2701.61
708.296	2599.21
708.484	2568.49
708.672	2640.17
708.86	2591.02
709.048	2570.54
709.236	2535.73
709.424	2588.97
709.612	2619.69
709.8	2490.67
709.988	2521.39
710.176	2482.48
710.364	2578.73
710.551	2584.88
710.739	2511.15
710.927	2664.75
711.115	2619.69
711.303	2537.77
711.491	2527.53
711.679	2640.17
711.866	2474.29
712.054	2611.5
712.242	2455.86
712.43	2427.18
712.617	2455.86
712.805	2382.13
712.993	2498.86
713.181	2459.95
713.368	2511.15
713.556	2523.44
713.744	2468.14
713.931	2574.64
714.119	2601.26
714.306	2543.92
714.494	2410.8
714.682	2431.28
714.869	2369.84
715.057	2378.03
715.244	2443.57
715.432	2380.08
715.619	2474.29
715.807	2394.42
715.994	2476.34
716.182	2451.76
716.369	2449.71
716.556	2398.51
716.744	2353.46
716.931	2396.46
717.119	2457.9
717.306	2535.73
717.493	2375.99
717.681	2492.72
717.868	2312.5
718.055	2427.18
718.242	2361.65
718.43	2455.86
718.617	2369.84
718.804	2421.04
718.991	2435.38
719.179	2427.18
719.366	2355.51
719.553	2337.07
719.74	2296.11
719.927	2392.37
720.114	2445.62
720.301	2396.46
720.488	2289.97
720.676	2185.52
720.863	2435.38
721.05	2439.47
721.237	2375.99
721.424	2416.94
721.611	2435.38
721.798	2230.58
721.985	2308.4
722.172	2267.44
722.358	2369.84
722.545	2447.66
722.732	2314.55
722.919	2371.89
723.106	2265.39
723.293	2283.83
723.48	2312.5
723.667	2347.31
723.853	2328.88
724.04	2328.88
724.227	2263.35
724.414	2267.44
724.6	2253.11
724.787	2353.46
724.974	2279.73
725.161	2337.07
725.347	2224.44
725.534	2150.71
725.72	2216.24
725.907	2363.7
726.094	2335.03
726.28	2163
726.467	2214.2
726.653	2195.76
726.84	2353.46
727.027	2230.58
727.213	2257.2
727.4	2242.87
727.586	2273.59
727.773	2277.68
727.959	2249.01
728.145	2322.74
728.332	2390.32
728.518	2310.45
728.705	2226.48
728.891	2158.9
729.077	2216.24
729.264	2191.67
729.45	2189.62
729.636	2273.59
729.823	2201.91
730.009	2246.96
730.195	2249.01
730.382	2283.83
730.568	2222.39
730.754	2230.58
730.94	2275.63
731.126	2298.16
731.313	2206
731.499	2111.8
731.685	2234.68
731.871	2242.87
732.057	2314.55
732.243	2181.43
732.429	2218.29
732.615	2222.39
732.801	2165.04
732.987	2169.14
733.173	2230.58
733.359	2240.82
733.545	2181.43
733.731	2160.95
733.917	2173.24
734.103	2246.96
734.289	2214.2
734.475	2066.74
734.661	2273.59
734.847	2115.89
735.033	2238.77
735.219	2013.49
735.404	2228.53
735.59	2029.88
735.776	2062.65
735.962	2201.91
736.148	2169.14
736.333	2214.2
736.519	2109.75
736.705	2040.12
736.89	2058.55
737.076	2085.17
737.262	2021.69
737.447	2044.21
737.633	2158.9
737.819	2058.55
738.004	2142.52
738.19	2054.45
738.375	2113.85
738.561	2091.32
738.747	2074.93
738.932	2074.93
739.118	2152.76
739.303	2085.17
739.489	1970.49
739.674	2107.7
739.859	2021.69
740.045	2036.02
740.23	2027.83
740.416	1999.16
740.601	2050.36
740.786	2052.41
740.972	1931.58
741.157	2025.78
741.342	1943.86
741.528	1902.9
741.713	1933.62
741.898	1962.3
742.084	1976.63
742.269	1931.58
742.454	1972.54
742.639	1898.81
742.824	1978.68
743.01	1927.48
743.195	1935.67
743.38	1855.8
743.565	1925.43
743.75	1796.41
743.935	1962.3
744.12	1804.6
744.305	1859.9
744.49	1894.71
744.675	1837.37
744.86	1882.42
745.045	1962.3
745.23	1782.07
745.415	1716.54
745.6	1775.93
745.785	1755.45
745.97	1794.36
746.155	1722.68
746.34	1730.87
746.525	1837.37
746.71	1780.03
746.895	1712.44
747.079	1663.29
747.264	1683.77
747.449	1816.89
747.634	1667.39
747.819	1722.68
748.003	1638.72
748.188	1653.05
748.373	1655.1
748.557	1653.05
748.742	1603.9
748.927	1665.34
749.111	1605.95
749.296	1577.28
749.481	1648.96
749.665	1653.05
749.85	1616.19
750.034	1536.32
750.219	1632.57
750.404	1585.47
750.588	1564.99
750.773	1493.31
750.957	1454.4
751.141	1567.04
751.326	1458.5
751.51	1411.39
751.695	1544.51
751.879	1536.32
752.064	1517.89
752.248	1413.44
752.432	1380.67
752.617	1442.11
752.801	1411.39
752.985	1403.2
753.17	1374.53
753.354	1388.86
753.538	1444.16
753.722	1311.04
753.907	1362.24
754.091	1356.1
754.275	1397.06
754.459	1202.5
754.643	1241.41
754.828	1284.42
755.012	1274.18
755.196	1249.6
755.38	1329.47
755.564	1313.09
755.748	1235.27
755.932	1239.36
756.116	1194.31
756.3	1274.18
756.484	1216.83
756.668	1175.88
756.852	1204.55
757.036	1179.97
757.22	1214.79
757.404	1157.44
757.588	1175.88
757.772	1190.21
757.956	1104.2
758.14	1132.87
758.323	1124.68
758.507	1157.44
758.691	1153.35
758.875	1075.52
759.059	1139.01
759.242	1030.47
759.426	1093.96
759.61	1077.57
759.794	1116.48
759.977	1141.06
760.161	1214.79
760.345	1098.05
760.528	1050.95
760.712	1032.52
760.895	1071.43
761.079	1026.37
761.263	1001.8
761.446	1001.8
761.63	995.65
761.813	1016.13
761.997	962.89
762.18	1030.47
762.364	1034.57
762.547	966.98
762.731	997.7
762.914	946.5
763.098	993.61
763.281	928.07
763.464	977.22
763.648	942.41
763.831	1014.09
764.015	858.44
764.198	964.93
764.381	964.93
764.564	962.89
764.748	878.92
764.931	944.45
765.114	876.87
765.297	907.59
765.481	889.16
765.664	923.98
765.847	848.2
766.03	870.73
766.213	815.43
766.397	944.45
766.58	862.54
766.763	878.92
766.946	772.43
767.129	887.11
767.312	874.82
767.495	766.28
767.678	840.01
767.861	829.77
768.044	825.67
768.227	776.52
768.41	854.34
768.593	764.23
768.776	835.91
768.959	921.93
769.142	909.64
769.324	827.72
769.507	856.39
769.69	825.67
769.873	880.97
770.056	866.63
770.239	760.14
770.421	835.91
770.604	729.42
770.787	864.58
770.97	911.69
771.152	661.84
771.335	799.05
771.518	747.85
771.7	741.71
771.883	768.33
772.066	661.84
772.248	749.9
772.431	749.9
772.613	829.77
772.796	702.79
772.978	848.2
773.161	758.09
773.343	694.6
773.526	727.37
773.708	678.22
773.891	624.97
774.073	606.54
774.256	698.7
774.438	743.75
774.621	670.03
774.803	717.13
774.985	661.84
775.168	715.08
775.35	706.89
775.532	694.6
775.715	663.88
775.897	715.08
776.079	725.32
776.261	682.31
776.444	631.12
776.626	569.68
776.808	620.88
776.99	608.59
777.173	586.06
777.355	661.84
777.537	608.59
777.719	678.22
777.901	520.53
778.083	629.07
778.265	561.48
778.447	577.87
778.629	616.78
778.811	581.96
778.993	569.68
779.175	518.48
779.357	530.77
779.539	536.91
779.721	553.29
779.903	584.01
780.085	446.8
780.267	518.48
780.449	551.24
780.631	541.01
780.812	559.44
780.994	594.25
781.176	532.81
781.358	473.42
781.54	493.9
781.721	495.95
781.903	512.33
782.085	487.76
782.267	553.29
782.448	551.24
782.63	508.24
782.812	502.09
782.993	518.48
783.175	495.95
783.357	414.03
783.538	454.99
783.72	477.52
783.901	504.14
784.083	479.57
784.264	483.66
784.446	405.84
784.627	362.83
784.809	446.8
784.99	469.33
785.172	387.41
785.353	420.17
785.535	397.65
785.716	395.6
785.897	371.02
786.079	371.02
786.26	387.41
786.441	403.79
786.623	371.02
786.804	440.65
786.985	432.46
787.167	348.5
787.348	416.08
787.529	444.75
787.71	428.37
787.891	350.54
788.073	350.54
788.254	381.26
788.435	405.84
788.616	340.3
788.797	352.59
788.978	330.06
789.159	321.87
789.34	379.22
789.522	354.64
789.703	323.92
789.884	282.96
790.065	268.63
790.246	346.45
790.427	340.3
790.607	362.83
790.788	371.02
790.969	379.22
791.15	321.87
791.331	346.45
791.512	301.39
791.693	264.53
791.874	325.97
792.054	328.02
792.235	395.6
792.416	268.63
792.597	321.87
792.778	297.3
792.958	289.1
793.139	311.63
793.32	321.87
793.5	256.34
793.681	313.68
793.862	313.68
794.042	289.1
794.223	336.21
794.404	348.5
794.584	229.71
794.765	256.34
794.945	276.82
795.126	258.39
795.306	291.15
795.487	190.8
795.667	313.68
795.848	321.87
796.028	305.49
796.209	190.8
796.389	268.63
796.57	215.38
796.75	225.62
796.93	285.01
797.111	264.53
797.291	235.86
797.471	246.1
797.652	233.81
797.832	274.77
798.012	282.96
798.192	313.68
798.373	217.43
798.553	231.76
798.733	272.72
798.913	297.3
799.093	231.76
799.274	190.8
799.454	272.72
799.634	198.99
799.814	239.95
799.994	258.39
800.174	250.19
800.354	170.32
800.534	190.8
800.714	231.76
800.894	215.38
801.074	194.9
801.254	182.61
801.434	207.19
801.614	219.47
801.794	215.38
801.974	700.75
802.154	246.1
802.334	246.1
802.514	168.27
802.693	164.18
802.873	231.76
803.053	211.28
803.233	207.19
803.413	201.04
803.592	205.14
803.772	252.24
803.952	231.76
804.131	215.38
804.311	217.43
804.491	158.03
804.67	207.19
804.85	149.84
805.03	186.71
805.209	133.46
805.389	280.91
805.568	227.67
805.748	178.51
805.928	237.91
806.107	248.15
806.287	207.19
806.466	280.91
806.646	176.47
806.825	242
807.004	176.47
807.184	168.27
807.363	166.23
807.543	221.52
807.722	231.76
807.901	186.71
808.081	211.28
808.26	141.65
808.439	184.66
808.619	117.08
808.798	160.08
808.977	176.47
809.156	158.03
809.336	196.95
809.515	143.7
809.694	110.93
809.873	182.61
810.052	196.95
810.231	176.47
810.411	149.84
810.59	196.95
810.769	233.81
810.948	108.88
811.127	84.31
811.306	149.84
811.485	147.8
811.664	186.71
811.843	147.8
812.022	225.62
812.201	106.84
812.38	158.03
812.559	98.64
812.737	235.86
812.916	153.94
813.095	139.6
813.274	162.13
813.453	125.27
813.632	143.7
813.811	125.27
813.989	117.08
814.168	264.53
814.347	149.84
814.526	198.99
814.704	86.36
814.883	190.8
815.062	135.51
815.24	117.08
815.419	90.45
815.598	80.21
815.776	92.5
815.955	47.44
816.133	164.18
816.312	135.51
816.49	92.5
816.669	135.51
816.847	143.7
817.026	166.23
817.204	123.22
817.383	125.27
817.561	31.06
817.74	160.08
817.918	151.89
818.097	141.65
818.275	108.88
818.453	55.64
818.632	149.84
818.81	125.27
818.988	141.65
819.167	80.21
819.345	108.88
819.523	127.32
819.701	135.51
819.879	129.36
820.058	137.56
820.236	174.42
820.414	94.55
820.592	63.83
820.77	61.78
820.948	166.23
821.127	96.6
821.305	104.79
821.483	110.93
821.661	108.88
821.839	115.03
822.017	90.45
822.195	125.27
822.373	147.8
822.551	170.32
822.729	76.12
822.907	137.56
823.085	63.83
823.262	94.55
823.44	149.84
823.618	117.08
823.796	186.71
823.974	43.35
824.152	78.16
824.329	80.21
824.507	76.12
824.685	166.23
824.863	108.88
825.04	37.2
825.218	153.94
825.396	61.78
825.574	119.12
825.751	67.92
825.929	104.79
826.107	147.8
826.284	119.12
826.462	100.69
826.639	67.92
826.817	43.35
826.994	35.16
827.172	88.4
827.349	86.36
827.527	69.97
827.704	133.46
827.882	176.47
828.059	153.94
828.237	51.54
828.414	141.65
828.591	55.64
828.769	92.5
828.946	121.17
829.124	115.03
829.301	104.79
829.478	108.88
829.655	96.6
829.833	31.06
830.01	10.58
830.187	127.32
830.364	158.03
830.542	78.16
830.719	160.08
830.896	158.03
831.073	149.84
831.25	88.4
831.427	147.8
831.604	153.94
831.782	153.94
831.959	84.31
832.136	39.25
832.313	147.8
832.49	147.8
832.667	98.64
832.844	82.26
833.021	110.93
833.198	100.69
833.374	-1.71
833.551	117.08
833.728	37.2
833.905	110.93
834.082	63.83
834.259	31.06
834.436	92.5
834.612	96.6
834.789	84.31
834.966	45.4
835.143	86.36
835.319	143.7
835.496	55.64
835.673	112.98
835.85	88.4
836.026	76.12
836.203	94.55
836.38	-22.19
836.556	69.97
836.733	41.3
836.909	80.21
837.086	4.44
837.262	12.63
837.439	53.59
837.616	67.92
837.792	63.83
837.968	45.4
838.145	-13.99
838.321	129.36
838.498	137.56
838.674	53.59
838.851	22.87
839.027	18.77
839.203	76.12
839.38	35.16
839.556	59.73
839.732	65.88
839.909	47.44
840.085	61.78
840.261	35.16
840.437	14.68
840.614	10.58
840.79	61.78
840.966	115.03
841.142	100.69
841.318	96.6
841.494	127.32
841.671	115.03
841.847	78.16
842.023	35.16
842.199	104.79
842.375	35.16
842.551	47.44
842.727	26.96
842.903	86.36
843.079	100.69
843.255	168.27
843.431	141.65
843.607	121.17
843.783	-13.99
843.959	129.36
844.134	10.58
844.31	98.64
844.486	61.78
844.662	112.98
844.838	-9.9
845.013	-3.75
845.189	20.82
845.365	119.12
845.541	14.68
845.716	20.82
845.892	84.31
846.068	45.4
846.244	59.73
846.419	26.96
846.595	96.6
846.77	67.92
846.946	127.32
847.122	20.82
847.297	43.35
847.473	33.11
847.648	4.44
847.824	55.64
847.999	20.82
848.175	59.73
848.35	37.2
848.526	88.4
848.701	47.44
848.876	110.93
849.052	160.08
849.227	59.73
849.403	12.63
849.578	18.77
849.753	16.73
849.929	125.27
850.104	-13.99
850.279	76.12
850.454	94.55
850.63	67.92
850.805	-18.09
850.98	35.16
851.155	51.54
851.33	78.16
851.505	20.82
851.681	61.78
851.856	72.02
852.031	67.92
852.206	104.79
852.381	18.77
852.556	31.06
852.731	18.77
852.906	61.78
853.081	35.16
853.256	18.77
853.431	-9.9
853.606	80.21
853.781	-20.14
853.956	-5.8
854.131	35.16
854.305	-9.9
854.48	121.17
854.655	51.54
854.83	47.44
855.005	-9.9
855.18	43.35
855.354	59.73
855.529	57.68
855.704	61.78
855.879	29.01
856.053	59.73
856.228	84.31
856.403	96.6
856.577	29.01
856.752	22.87
856.926	-1.71
857.101	-5.8
857.276	59.73
857.45	61.78
857.625	76.12
857.799	78.16
857.974	39.25
858.148	84.31
858.323	102.74
858.497	76.12
858.672	59.73
858.846	80.21
859.02	69.97
859.195	12.63
859.369	4.44
859.543	35.16
859.718	-11.95
859.892	88.4
860.066	49.49
860.241	49.49
860.415	35.16
860.589	12.63
860.763	67.92
860.938	14.68
861.112	-40.62
861.286	76.12
861.46	45.4
861.634	67.92
861.808	74.07
861.982	10.58
862.157	-77.48
862.331	-20.14
862.505	10.58
862.679	-24.23
862.853	69.97
863.027	4.44
863.201	35.16
863.375	26.96
863.549	117.08
863.722	43.35
863.896	69.97
864.07	2.39
864.244	37.2
864.418	8.53
864.592	-28.33
864.766	4.44
864.939	67.92
865.113	-11.95
865.287	43.35
865.461	31.06
865.634	53.59
865.808	22.87
865.982	10.58
866.156	39.25
866.329	82.26
866.503	14.68
866.676	63.83
866.85	76.12
867.024	-38.57
867.197	-18.09
867.371	84.31
867.544	2.39
867.718	53.59
867.891	43.35
868.065	-5.8
868.238	84.31
868.412	35.16
868.585	-16.04
868.759	35.16
868.932	26.96
869.105	12.63
869.279	-20.14
869.452	-20.14
869.625	26.96
869.799	45.4
869.972	53.59
870.145	39.25
870.319	63.83
870.492	10.58
870.665	-1.71
870.838	-63.15
871.011	-11.95
871.185	-36.52
871.358	-46.76
871.531	20.82
871.704	-71.34
871.877	51.54
872.05	59.73
872.223	29.01
872.396	-20.14
872.569	6.49
872.742	4.44
872.915	33.11
873.088	-18.09
873.261	31.06
873.434	12.63
873.607	29.01
873.78	45.4
873.953	63.83
874.126	51.54
874.299	55.64
874.471	33.11
874.644	76.12
874.817	76.12
874.99	59.73
875.163	39.25
875.335	43.35
875.508	29.01
875.681	78.16
875.853	-5.8
876.026	67.92
876.199	-3.75
876.371	-22.19
876.544	14.68
876.717	84.31
876.889	-16.04
877.062	78.16
877.234	37.2
877.407	18.77
877.579	31.06
877.752	80.21
877.924	4.44
878.097	-13.99
878.269	33.11
878.442	59.73
878.614	-22.19
878.786	-22.19
878.959	0.34
879.131	-46.76
879.303	12.63
879.476	61.78
879.648	92.5
879.82	10.58
879.993	-24.23
880.165	35.16
880.337	10.58
880.509	-18.09
880.681	35.16
880.854	2.39
881.026	53.59
881.198	43.35
881.37	51.54
881.542	-24.23
881.714	59.73
881.886	14.68
882.058	-5.8
882.23	-28.33
882.402	51.54
882.574	119.12
882.746	-61.1
882.918	51.54
883.09	31.06
883.262	47.44
883.434	72.02
883.606	-5.8
883.778	53.59
883.95	80.21
884.122	35.16
884.293	67.92
884.465	-9.9
884.637	53.59
884.809	-13.99
884.98	106.84
885.152	43.35
885.324	61.78
885.496	24.92
885.667	35.16
885.839	39.25
886.011	67.92
886.182	72.02
886.354	-3.75
886.525	-28.33
886.697	82.26
886.869	18.77
887.04	43.35
887.212	41.3
887.383	16.73
887.555	8.53
887.726	67.92
887.897	6.49
888.069	53.59
888.24	63.83
888.412	78.16
888.583	-18.09
888.754	51.54
888.926	4.44
889.097	43.35
889.268	14.68
889.44	-11.95
889.611	6.49
889.782	-5.8
889.953	-65.19
890.125	59.73
890.296	-40.62
890.467	33.11
890.638	-46.76
890.809	94.55
890.98	69.97
891.151	-22.19
891.323	-9.9
891.494	12.63
891.665	-26.28
891.836	51.54
892.007	-54.95
892.178	51.54
892.349	-13.99
892.52	61.78
892.691	82.26
892.862	80.21
893.032	26.96
893.203	20.82
893.374	115.03
893.545	45.4
893.716	26.96
893.887	-3.75
894.057	-44.71
894.228	-9.9
894.399	-24.23
894.57	18.77
894.74	35.16
894.911	43.35
895.082	10.58
895.253	-36.52
895.423	2.39
895.594	-34.47
895.764	-61.1
895.935	67.92
896.106	31.06
896.276	29.01
896.447	-40.62
896.617	51.54
896.788	12.63
896.958	-46.76
897.129	-26.28
897.299	2.39
897.47	90.45
897.64	53.59
897.81	12.63
897.981	6.49
898.151	63.83
898.322	-30.38
898.492	37.2
898.662	-18.09
898.832	-18.09
899.003	74.07
899.173	22.87
899.343	-40.62
899.513	12.63
