Data from USB4F104151__269__14-23-13-828.txt Node

Date: Thu Mar 13 14:23:13 EDT 2025
User: louis
Spectrometer: USB4F10415
Trigger mode: 4
Integration Time (sec): 2.000000E-2
Scans to average: 1
Electric dark correction enabled: true
Nonlinearity correction enabled: false
Boxcar width: 0
XAxis mode: Wavelengths
Number of Pixels in Spectrum: 3648
>>>>>Begin Spectral Data<<<<<
178.204	-42.32
178.424	-42.32
178.644	-42.32
178.864	-118.1
179.084	-154.96
179.304	-56.66
179.524	-11.61
179.744	27.31
179.964	45.74
180.184	25.26
180.404	90.79
180.624	-23.89
180.844	64.17
181.064	6.83
181.283	-30.04
181.503	-101.72
181.723	-36.18
181.943	-81.24
182.163	37.55
182.383	15.02
182.602	8.87
182.822	78.51
183.042	53.93
183.262	-13.65
183.482	-17.75
183.701	-36.18
183.921	-1.37
184.141	12.97
184.361	39.59
184.58	29.35
184.8	-1.37
185.02	-34.13
185.239	-23.89
185.459	84.65
185.679	68.27
185.898	-44.37
186.118	62.12
186.338	-13.65
186.557	29.35
186.777	-52.56
186.997	21.16
187.216	72.36
187.436	82.6
187.655	-27.99
187.875	62.12
188.095	-15.7
188.314	60.07
188.534	-3.41
188.753	8.87
188.973	17.07
189.192	10.92
189.412	37.55
189.631	-32.08
189.851	49.83
190.07	55.98
190.29	-58.71
190.509	37.55
190.729	-89.43
190.948	37.55
191.168	121.51
191.387	68.27
191.607	86.7
191.826	17.07
192.045	6.83
192.265	-27.99
192.484	-1.37
192.704	12.97
192.923	25.26
193.142	88.75
193.362	-7.51
193.581	96.94
193.8	12.97
194.02	41.64
194.239	37.55
194.458	-17.75
194.678	37.55
194.897	-40.28
195.116	-58.71
195.335	-36.18
195.555	94.89
195.774	37.55
195.993	98.99
196.212	62.12
196.432	-21.85
196.651	35.5
196.87	4.78
197.089	62.12
197.308	78.51
197.528	4.78
197.747	12.97
197.966	4.78
198.185	78.51
198.404	-27.99
198.623	-68.95
198.842	80.55
199.062	58.03
199.281	4.78
199.5	-60.76
199.719	-7.51
199.938	-15.7
200.157	-36.18
200.376	49.83
200.595	53.93
200.814	-15.7
201.033	-21.85
201.252	17.07
201.471	21.16
201.69	27.31
201.909	25.26
202.128	23.21
202.347	-48.47
202.566	-38.23
202.785	-3.41
203.004	0.68
203.223	53.93
203.442	-11.61
203.661	-46.42
203.879	23.21
204.098	80.55
204.317	-27.99
204.536	10.92
204.755	4.78
204.974	6.83
205.193	-27.99
205.411	33.45
205.63	12.97
205.849	33.45
206.068	-9.56
206.287	-11.61
206.505	37.55
206.724	-77.14
206.943	-17.75
207.162	4.78
207.381	8.87
207.599	0.68
207.818	31.4
208.037	4.78
208.255	-19.8
208.474	41.64
208.693	84.65
208.911	72.36
209.13	-52.56
209.349	21.16
209.567	-19.8
209.786	78.51
210.005	41.64
210.223	31.4
210.442	-27.99
210.661	47.79
210.879	-9.56
211.098	21.16
211.316	-36.18
211.535	45.74
211.753	78.51
211.972	21.16
212.191	6.83
212.409	-81.24
212.628	23.21
212.846	-32.08
213.065	74.41
213.283	64.17
213.502	21.16
213.72	60.07
213.938	-17.75
214.157	-32.08
214.375	37.55
214.594	15.02
214.812	23.21
215.031	-19.8
215.249	-1.37
215.467	62.12
215.686	-17.75
215.904	88.75
216.122	-7.51
216.341	25.26
216.559	33.45
216.778	127.66
216.996	8.87
217.214	-19.8
217.432	23.21
217.651	-50.52
217.869	-58.71
218.087	90.79
218.306	55.98
218.524	113.32
218.742	74.41
218.96	49.83
219.179	-27.99
219.397	66.22
219.615	78.51
219.833	62.12
220.051	-3.41
220.27	-27.99
220.488	37.55
220.706	35.5
220.924	-9.56
221.142	-36.18
221.36	47.79
221.578	41.64
221.796	47.79
222.015	-7.51
222.233	47.79
222.451	25.26
222.669	37.55
222.887	74.41
223.105	-3.41
223.323	-64.85
223.541	-3.41
223.759	82.6
223.977	-58.71
224.195	76.46
224.413	6.83
224.631	27.31
224.849	-1.37
225.067	74.41
225.285	-50.52
225.503	-40.28
225.721	29.35
225.939	12.97
226.157	21.16
226.375	86.7
226.592	-30.04
226.81	37.55
227.028	-1.37
227.246	66.22
227.464	29.35
227.682	-11.61
227.9	4.78
228.117	17.07
228.335	-56.66
228.553	-36.18
228.771	45.74
228.989	21.16
229.206	21.16
229.424	60.07
229.642	-23.89
229.86	33.45
230.077	60.07
230.295	4.78
230.513	29.35
230.731	-1.37
230.948	86.7
231.166	111.27
231.384	66.22
231.601	-36.18
231.819	0.68
232.037	-9.56
232.254	-19.8
232.472	49.83
232.689	15.02
232.907	119.46
233.125	-60.76
233.342	25.26
233.56	-21.85
233.777	-40.28
233.995	103.08
234.213	19.11
234.43	21.16
234.648	6.83
234.865	41.64
235.083	21.16
235.3	-17.75
235.518	47.79
235.735	86.7
235.953	31.4
236.17	-36.18
236.388	37.55
236.605	-19.8
236.822	119.46
237.04	88.75
237.257	37.55
237.475	64.17
237.692	17.07
237.909	8.87
238.127	29.35
238.344	0.68
238.562	29.35
238.779	-13.65
238.996	-27.99
239.214	23.21
239.431	4.78
239.648	-11.61
239.865	-25.94
240.083	-3.41
240.3	39.59
240.517	21.16
240.735	12.97
240.952	25.26
241.169	21.16
241.386	-25.94
241.603	37.55
241.821	10.92
242.038	-3.41
242.255	21.16
242.472	-17.75
242.689	35.5
242.907	-11.61
243.124	23.21
243.341	-36.18
243.558	-3.41
243.775	-60.76
243.992	-11.61
244.209	78.51
244.426	4.78
244.643	23.21
244.86	6.83
245.078	70.31
245.295	19.11
245.512	21.16
245.729	53.93
245.946	21.16
246.163	82.6
246.38	41.64
246.597	0.68
246.814	4.78
247.031	0.68
247.248	47.79
247.464	-5.46
247.681	-1.37
247.898	33.45
248.115	37.55
248.332	74.41
248.549	43.69
248.766	72.36
248.983	107.18
249.2	58.03
249.417	60.07
249.633	21.16
249.85	6.83
250.067	17.07
250.284	78.51
250.501	98.99
250.717	94.89
250.934	-7.51
251.151	39.59
251.368	-7.51
251.585	62.12
251.801	12.97
252.018	-56.66
252.235	76.46
252.451	12.97
252.668	12.97
252.885	78.51
253.102	55.98
253.318	-7.51
253.535	58.03
253.752	-19.8
253.968	4.78
254.185	2.73
254.401	58.03
254.618	-42.32
254.835	-30.04
255.051	21.16
255.268	-44.37
255.484	21.16
255.701	-50.52
255.917	84.65
256.134	25.26
256.351	6.83
256.567	-1.37
256.784	-3.41
257	29.35
257.217	4.78
257.433	6.83
257.65	72.36
257.866	47.79
258.082	-60.76
258.299	-1.37
258.515	-17.75
258.732	41.64
258.948	21.16
259.165	55.98
259.381	-1.37
259.597	70.31
259.814	15.02
260.03	-11.61
260.246	-23.89
260.463	41.64
260.679	25.26
260.895	-13.65
261.112	29.35
261.328	27.31
261.544	12.97
261.761	62.12
261.977	33.45
262.193	49.83
262.409	29.35
262.626	-21.85
262.842	76.46
263.058	58.03
263.274	78.51
263.49	-11.61
263.707	80.55
263.923	15.02
264.139	-9.56
264.355	-68.95
264.571	43.69
264.787	49.83
265.004	-1.37
265.22	4.78
265.436	-52.56
265.652	17.07
265.868	31.4
266.084	-46.42
266.3	-27.99
266.516	8.87
266.732	39.59
266.948	23.21
267.164	80.55
267.38	17.07
267.596	53.93
267.812	119.46
268.028	29.35
268.244	27.31
268.46	31.4
268.676	90.79
268.892	-1.37
269.108	15.02
269.324	31.4
269.54	-23.89
269.756	-15.7
269.972	-13.65
270.188	4.78
270.403	-25.94
270.619	37.55
270.835	-5.46
271.051	19.11
271.267	12.97
271.483	-7.51
271.698	70.31
271.914	25.26
272.13	6.83
272.346	23.21
272.562	29.35
272.777	-42.32
272.993	70.31
273.209	-15.7
273.425	58.03
273.64	15.02
273.856	37.55
274.072	-15.7
274.287	23.21
274.503	-17.75
274.719	49.83
274.934	49.83
275.15	-1.37
275.366	-3.41
275.581	-25.94
275.797	4.78
276.012	31.4
276.228	-44.37
276.444	-34.13
276.659	15.02
276.875	-52.56
277.09	23.21
277.306	-56.66
277.521	78.51
277.737	-36.18
277.952	51.88
278.168	15.02
278.383	72.36
278.599	-17.75
278.814	41.64
279.03	12.97
279.245	111.27
279.461	8.87
279.676	84.65
279.892	6.83
280.107	-5.46
280.322	-85.33
280.538	-25.94
280.753	-17.75
280.969	74.41
281.184	-40.28
281.399	94.89
281.615	51.88
281.83	-36.18
282.045	-1.37
282.26	29.35
282.476	25.26
282.691	25.26
282.906	-7.51
283.122	66.22
283.337	33.45
283.552	4.78
283.767	29.35
283.983	-68.95
284.198	-11.61
284.413	62.12
284.628	-107.86
284.843	55.98
285.058	86.7
285.274	-56.66
285.489	-19.8
285.704	53.93
285.919	-19.8
286.134	45.74
286.349	0.68
286.564	58.03
286.779	15.02
286.995	-19.8
287.21	12.97
287.425	12.97
287.64	-40.28
287.855	31.4
288.07	-3.41
288.285	15.02
288.5	17.07
288.715	58.03
288.93	37.55
289.145	66.22
289.36	62.12
289.575	45.74
289.79	15.02
290.004	-58.71
290.219	-7.51
290.434	-3.41
290.649	-52.56
290.864	-11.61
291.079	31.4
291.294	64.17
291.509	-50.52
291.724	82.6
291.938	17.07
292.153	21.16
292.368	76.46
292.583	4.78
292.798	12.97
293.012	49.83
293.227	37.55
293.442	64.17
293.657	37.55
293.871	37.55
294.086	-27.99
294.301	74.41
294.516	21.16
294.73	29.35
294.945	-19.8
295.16	15.02
295.374	17.07
295.589	12.97
295.804	-68.95
296.018	-34.13
296.233	21.16
296.447	70.31
296.662	8.87
296.877	45.74
297.091	-15.7
297.306	49.83
297.52	17.07
297.735	-9.56
297.949	55.98
298.164	64.17
298.378	-9.56
298.593	0.68
298.807	29.35
299.022	4.78
299.236	74.41
299.451	-11.61
299.665	-3.41
299.88	39.59
300.094	37.55
300.309	82.6
300.523	41.64
300.737	4.78
300.952	31.4
301.166	-3.41
301.381	86.7
301.595	12.97
301.809	15.02
302.024	-60.76
302.238	45.74
302.452	37.55
302.667	47.79
302.881	88.75
303.095	29.35
303.309	10.92
303.524	10.92
303.738	8.87
303.952	53.93
304.166	15.02
304.381	-73.04
304.595	86.7
304.809	-15.7
305.023	-19.8
305.237	66.22
305.452	70.31
305.666	10.92
305.88	45.74
306.094	37.55
306.308	55.98
306.522	17.07
306.736	-23.89
306.95	51.88
307.164	12.97
307.379	68.27
307.593	-1.37
307.807	37.55
308.021	29.35
308.235	8.87
308.449	45.74
308.663	-17.75
308.877	45.74
309.091	-17.75
309.305	60.07
309.519	-42.32
309.733	111.27
309.947	-7.51
310.161	72.36
310.374	8.87
310.588	25.26
310.802	-3.41
311.016	80.55
311.23	29.35
311.444	39.59
311.658	31.4
311.872	45.74
312.085	62.12
312.299	51.88
312.513	47.79
312.727	-58.71
312.941	-23.89
313.154	-7.51
313.368	90.79
313.582	90.79
313.796	92.84
314.009	-19.8
314.223	25.26
314.437	12.97
314.651	29.35
314.864	6.83
315.078	-11.61
315.292	41.64
315.505	27.31
315.719	39.59
315.933	25.26
316.146	33.45
316.36	-44.37
316.573	68.27
316.787	58.03
317.001	-23.89
317.214	15.02
317.428	39.59
317.641	94.89
317.855	23.21
318.068	62.12
318.282	25.26
318.495	45.74
318.709	-1.37
318.922	78.51
319.136	58.03
319.349	47.79
319.563	2.73
319.776	53.93
319.99	15.02
320.203	55.98
320.417	37.55
320.63	21.16
320.843	41.64
321.057	-44.37
321.27	-15.7
321.483	86.7
321.697	-1.37
321.91	-17.75
322.124	17.07
322.337	33.45
322.55	-13.65
322.763	-17.75
322.977	-25.94
323.19	25.26
323.403	66.22
323.617	23.21
323.83	4.78
324.043	92.84
324.256	29.35
324.469	-3.41
324.683	8.87
324.896	86.7
325.109	49.83
325.322	-19.8
325.535	137.9
325.748	62.12
325.962	45.74
326.175	37.55
326.388	53.93
326.601	-11.61
326.814	12.97
327.027	17.07
327.24	88.75
327.453	6.83
327.666	12.97
327.879	101.03
328.092	66.22
328.305	66.22
328.518	-66.9
328.731	29.35
328.944	25.26
329.157	53.93
329.37	37.55
329.583	111.27
329.796	25.26
330.009	19.11
330.222	0.68
330.435	0.68
330.648	35.5
330.861	33.45
331.073	90.79
331.286	37.55
331.499	23.21
331.712	0.68
331.925	-13.65
332.138	55.98
332.35	58.03
332.563	60.07
332.776	35.5
332.989	15.02
333.202	86.7
333.414	66.22
333.627	62.12
333.84	55.98
334.053	80.55
334.265	21.16
334.478	4.78
334.691	-11.61
334.903	31.4
335.116	62.12
335.329	-34.13
335.541	53.93
335.754	66.22
335.966	37.55
336.179	45.74
336.392	-19.8
336.604	4.78
336.817	53.93
337.029	41.64
337.242	25.26
337.454	-7.51
337.667	78.51
337.88	6.83
338.092	47.79
338.305	51.88
338.517	4.78
338.729	43.69
338.942	131.75
339.154	45.74
339.367	43.69
339.579	144.04
339.792	-27.99
340.004	47.79
340.217	-1.37
340.429	41.64
340.641	8.87
340.854	-3.41
341.066	55.98
341.278	146.09
341.491	164.52
341.703	-34.13
341.915	-7.51
342.128	27.31
342.34	2.73
342.552	-34.13
342.764	0.68
342.977	31.4
343.189	-11.61
343.401	4.78
343.613	6.83
343.826	29.35
344.038	31.4
344.25	15.02
344.462	2.73
344.674	90.79
344.886	-1.37
345.099	12.97
345.311	70.31
345.523	-3.41
345.735	-73.04
345.947	2.73
346.159	45.74
346.371	33.45
346.583	25.26
346.795	39.59
347.007	21.16
347.219	58.03
347.431	-27.99
347.643	80.55
347.855	8.87
348.067	64.17
348.279	27.31
348.491	88.75
348.703	115.37
348.915	-25.94
349.127	31.4
349.339	10.92
349.551	-19.8
349.763	64.17
349.975	-7.51
350.187	-7.51
350.399	-9.56
350.61	94.89
350.822	21.16
351.034	37.55
351.246	23.21
351.458	86.7
351.669	-11.61
351.881	90.79
352.093	64.17
352.305	-21.85
352.517	-15.7
352.728	62.12
352.94	86.7
353.152	53.93
353.363	15.02
353.575	31.4
353.787	49.83
353.999	96.94
354.21	90.79
354.422	-36.18
354.633	-95.57
354.845	70.31
355.057	60.07
355.268	47.79
355.48	53.93
355.692	-15.7
355.903	19.11
356.115	58.03
356.326	-23.89
356.538	45.74
356.749	25.26
356.961	17.07
357.172	21.16
357.384	12.97
357.595	41.64
357.807	6.83
358.018	15.02
358.23	33.45
358.441	33.45
358.653	123.56
358.864	8.87
359.075	-52.56
359.287	103.08
359.498	19.11
359.709	45.74
359.921	-7.51
360.132	37.55
360.344	23.21
360.555	25.26
360.766	41.64
360.977	60.07
361.189	-30.04
361.4	2.73
361.611	53.93
361.823	19.11
362.034	62.12
362.245	-1.37
362.456	64.17
362.667	25.26
362.879	39.59
363.09	37.55
363.301	33.45
363.512	21.16
363.723	51.88
363.935	41.64
364.146	78.51
364.357	-3.41
364.568	37.55
364.779	15.02
364.99	137.9
365.201	-3.41
365.412	47.79
365.623	29.35
365.834	92.84
366.045	37.55
366.256	53.93
366.467	35.5
366.678	12.97
366.889	-19.8
367.1	-5.46
367.311	23.21
367.522	-1.37
367.733	6.83
367.944	103.08
368.155	64.17
368.366	129.7
368.577	12.97
368.788	12.97
368.999	37.55
369.209	45.74
369.42	74.41
369.631	105.13
369.842	12.97
370.053	-11.61
370.264	90.79
370.474	43.69
370.685	23.21
370.896	-19.8
371.107	66.22
371.317	129.7
371.528	45.74
371.739	41.64
371.95	53.93
372.16	62.12
372.371	10.92
372.582	-36.18
372.792	53.93
373.003	113.32
373.214	55.98
373.424	-7.51
373.635	10.92
373.846	70.31
374.056	39.59
374.267	162.47
374.477	92.84
374.688	-11.61
374.898	51.88
375.109	19.11
375.319	53.93
375.53	80.55
375.74	27.31
375.951	78.51
376.161	49.83
376.372	37.55
376.582	15.02
376.793	29.35
377.003	-21.85
377.214	62.12
377.424	-13.65
377.635	55.98
377.845	49.83
378.055	4.78
378.266	68.27
378.476	82.6
378.686	111.27
378.897	94.89
379.107	98.99
379.317	86.7
379.528	53.93
379.738	66.22
379.948	-34.13
380.158	53.93
380.369	21.16
380.579	25.26
380.789	80.55
380.999	25.26
381.21	-11.61
381.42	111.27
381.63	27.31
381.84	60.07
382.05	12.97
382.261	60.07
382.471	66.22
382.681	4.78
382.891	88.75
383.101	45.74
383.311	53.93
383.521	-48.47
383.731	19.11
383.941	-17.75
384.151	-19.8
384.361	-52.56
384.571	58.03
384.781	98.99
384.991	45.74
385.201	152.23
385.411	62.12
385.621	41.64
385.831	31.4
386.041	-50.52
386.251	-11.61
386.461	66.22
386.671	0.68
386.881	60.07
387.091	60.07
387.301	58.03
387.511	86.7
387.72	4.78
387.93	94.89
388.14	88.75
388.35	60.07
388.56	111.27
388.769	41.64
388.979	23.21
389.189	17.07
389.399	53.93
389.609	49.83
389.818	111.27
390.028	60.07
390.238	53.93
390.447	17.07
390.657	37.55
390.867	-27.99
391.076	-58.71
391.286	58.03
391.496	29.35
391.705	39.59
391.915	55.98
392.125	4.78
392.334	-7.51
392.544	12.97
392.753	41.64
392.963	70.31
393.172	49.83
393.382	86.7
393.591	78.51
393.801	19.11
394.01	49.83
394.22	113.32
394.429	21.16
394.639	10.92
394.848	80.55
395.058	27.31
395.267	94.89
395.477	117.42
395.686	141.99
395.895	58.03
396.105	78.51
396.314	62.12
396.524	55.98
396.733	92.84
396.942	82.6
397.152	98.99
397.361	92.84
397.57	133.8
397.78	101.03
397.989	70.31
398.198	115.37
398.407	62.12
398.617	82.6
398.826	80.55
399.035	66.22
399.244	137.9
399.453	72.36
399.663	58.03
399.872	62.12
400.081	78.51
400.29	176.81
400.499	144.04
400.708	72.36
400.917	150.18
401.127	107.18
401.336	119.46
401.545	137.9
401.754	168.62
401.963	78.51
402.172	98.99
402.381	66.22
402.59	62.12
402.799	94.89
403.008	121.51
403.217	141.99
403.426	160.42
403.635	119.46
403.844	123.56
404.053	53.93
404.262	127.66
404.471	152.23
404.68	170.66
404.888	58.03
405.097	135.85
405.306	137.9
405.515	135.85
405.724	135.85
405.933	129.7
406.142	191.14
406.35	197.29
406.559	133.8
406.768	121.51
406.977	189.1
407.185	191.14
407.394	254.63
407.603	217.77
407.812	234.15
408.02	307.88
408.229	250.53
408.438	178.86
408.646	195.24
408.855	260.77
409.064	211.62
409.272	252.58
409.481	299.69
409.69	277.16
409.898	213.67
410.107	242.34
410.315	334.5
410.524	316.07
410.733	283.3
410.941	375.46
411.15	430.76
411.358	373.41
411.567	373.41
411.775	377.51
411.984	441
412.192	385.7
412.401	484
412.609	484
412.818	416.42
413.026	494.24
413.234	473.76
413.443	492.2
413.651	471.72
413.86	508.58
414.068	576.16
414.276	625.31
414.485	594.59
414.693	602.79
414.901	686.75
415.11	584.35
415.318	719.52
415.526	684.7
415.734	653.98
415.943	787.1
416.151	844.45
416.359	793.25
416.567	836.25
416.776	813.73
416.984	860.83
417.192	998.04
417.4	922.27
417.608	918.17
417.817	922.27
418.025	1022.62
418.233	1110.68
418.441	1094.3
418.649	1092.25
418.857	1266.33
419.065	1213.08
419.273	1241.75
419.481	1149.59
419.689	1331.86
419.897	1401.49
420.105	1311.38
420.313	1512.08
420.521	1485.46
420.729	1520.28
420.937	1542.8
421.145	1569.43
421.353	1712.78
421.561	1864.33
421.769	1888.91
421.977	1907.34
422.185	1899.15
422.393	2167.43
422.601	2095.75
422.809	2177.67
423.017	2149
423.224	2159.24
423.432	2341.51
423.64	2253.45
423.848	2593.41
424.056	2470.53
424.263	2667.14
424.471	2603.65
424.679	2765.44
424.887	2906.75
425.094	2888.32
425.302	3005.05
425.51	3062.4
425.718	3207.8
425.925	3181.18
426.133	3232.38
426.341	3560.05
426.548	3721.84
426.756	3543.67
426.964	3768.95
427.171	3986.03
427.379	4037.23
427.586	4119.15
427.794	4135.53
428.001	4412.01
428.209	4602.47
428.417	4461.16
428.624	4924
428.832	4911.71
429.039	4764.26
429.247	4864.61
429.454	5349.98
429.662	5698.13
429.869	5257.82
430.076	5751.38
430.284	5339.74
430.491	5628.5
430.699	6060.62
430.906	6101.58
431.114	6181.45
431.321	6361.67
431.528	6345.29
431.736	6754.88
431.943	7250.49
432.15	6883.91
432.358	7076.41
432.565	7402.04
432.772	7324.22
432.979	7670.33
433.187	8000.05
433.394	7813.68
433.601	8499.75
433.808	8581.67
434.016	8208.94
434.223	8745.51
434.43	9331.23
434.637	9179.68
434.844	9636.38
435.052	9726.49
435.259	9822.74
435.466	9959.95
435.673	9810.45
435.88	10383.88
436.087	10957.32
436.294	11002.37
436.501	10627.59
436.708	10940.93
436.915	11198.98
437.122	11880.95
437.329	11690.49
437.537	12186.1
437.743	12528.11
437.95	12431.85
438.157	12962.28
438.364	13308.38
438.571	13361.63
438.778	13201.89
438.985	14619.08
439.192	14105.04
439.399	14502.35
439.606	14113.24
439.813	15198.66
440.02	16159.16
440.227	15561.15
440.433	15593.92
440.64	15966.65
440.847	15786.43
441.054	16363.95
441.261	17240.48
441.467	17246.63
441.674	17564.06
441.881	18063.77
442.088	18370.96
442.294	18002.33
442.501	18149.78
442.708	18614.67
442.914	19034.5
443.121	19911.03
443.328	19536.26
443.534	21006.7
443.741	20363.64
443.948	20093.3
444.154	21510.5
444.361	21420.39
444.568	21516.64
444.774	21602.66
444.981	21684.58
445.187	22561.11
445.394	23501.12
445.6	23195.98
445.807	25487.65
446.013	24187.19
446.22	24772.91
446.426	25741.6
446.633	25739.55
446.839	26798.35
447.046	25405.74
447.252	27146.51
447.459	26999.05
447.665	26921.23
447.871	28176.64
448.078	29462.76
448.284	27719.94
448.491	28717.3
448.697	29655.27
448.903	30253.28
449.11	30552.28
449.316	29769.96
449.522	30568.66
449.728	31117.52
449.935	31396.04
450.141	31469.77
450.347	31705.29
450.553	30888.15
450.76	31535.31
450.966	32534.71
451.172	32639.16
451.378	33085.62
451.584	32503.99
451.791	33048.75
451.997	33081.52
452.203	33718.44
452.409	33421.48
452.615	33380.53
452.821	32090.3
453.027	31912.13
453.233	33783.98
453.44	32592.06
453.646	32491.71
453.852	32866.49
454.058	33114.29
454.264	32643.26
454.47	33292.46
454.676	32266.43
454.882	33427.63
455.088	30773.46
455.294	30746.84
455.5	31611.08
455.705	31336.65
455.911	30314.72
456.117	29831.4
456.323	29729
456.529	28156.16
456.735	29442.28
456.941	28639.48
457.147	27977.98
457.352	27121.93
457.558	26902.8
457.764	26980.62
457.97	26351.9
458.176	25987.36
458.381	26056.99
458.587	24391.99
458.793	24594.74
458.999	23181.64
459.204	25235.75
459.41	24260.92
459.616	22847.82
459.821	22835.53
460.027	22507.86
460.233	22215
460.438	21367.14
460.644	21700.96
460.85	20613.49
461.055	20519.28
461.261	20105.59
461.466	18895.24
461.672	17914.27
461.878	19579.26
462.083	18194.84
462.289	17889.69
462.494	17535.39
462.7	16761.26
462.905	16615.85
463.111	17285.54
463.316	17041.83
463.522	16937.38
463.727	16724.4
463.932	16753.07
464.138	16413.1
464.343	16787.88
464.549	16028.09
464.754	16513.45
464.959	16218.55
465.165	16306.61
465.37	15825.34
465.575	15217.09
465.781	15980.98
465.986	16261.55
466.191	15317.44
466.397	15206.85
466.602	14197.2
466.807	14940.61
467.012	14948.81
467.218	14787.02
467.423	14631.37
467.628	14547.4
467.833	15462.85
468.038	14719.43
468.244	14539.21
468.449	14799.3
468.654	14619.08
468.859	14379.47
469.064	14299.6
469.269	13636.06
469.474	13818.33
469.679	14141.91
469.885	13763.03
470.09	13853.14
470.295	13791.7
470.5	13332.96
470.705	13623.77
470.91	13255.14
471.115	13111.78
471.32	13390.3
471.525	13402.59
471.73	13029.86
471.935	12806.63
472.139	12587.5
472.344	12771.82
472.549	12456.43
472.754	12218.86
472.959	12253.68
473.164	11913.72
473.369	11766.26
473.574	12253.68
473.778	12055.03
473.983	12057.07
474.188	11735.54
474.393	11371.01
474.598	11325.95
474.802	11272.7
475.007	11207.17
475.212	11088.39
475.417	10842.63
475.621	11043.33
475.826	10904.07
476.031	10537.48
476.235	10287.63
476.44	10588.68
476.645	10297.87
476.849	10576.39
477.054	10314.25
477.259	10160.66
477.463	10295.82
477.668	9941.52
477.872	9890.32
478.077	9900.56
478.282	9796.12
478.486	9648.66
478.691	9337.37
478.895	9460.25
479.1	9327.13
479.304	9501.21
479.509	9079.33
479.713	9368.09
479.918	9097.76
480.122	9034.27
480.326	9042.46
480.531	9175.58
480.735	9081.38
480.94	8983.07
481.144	9222.69
481.348	8729.13
481.553	8960.55
481.757	8739.37
481.961	8729.13
482.166	9011.75
482.37	8751.65
482.574	8925.73
482.778	8802.85
482.983	8880.68
483.187	8901.15
483.391	8966.69
483.595	8770.08
483.8	8671.78
484.004	8802.85
484.208	8792.61
484.412	8747.56
484.616	8770.08
484.821	8591.91
485.025	8532.52
485.229	8862.24
485.433	8753.7
485.637	8778.28
485.841	8577.58
486.045	8667.69
486.249	8659.49
486.453	8581.67
486.657	8819.24
486.861	8608.3
487.065	8602.15
487.269	8710.69
487.473	8503.85
487.677	8925.73
487.881	8911.39
488.085	8516.14
488.289	8675.88
488.493	8839.72
488.697	8718.89
488.901	8823.33
489.105	8782.37
489.309	8819.24
489.512	8935.97
489.716	8874.53
489.92	8837.67
490.124	8673.83
490.328	8874.53
490.531	9081.38
490.735	8966.69
490.939	9081.38
491.143	8925.73
491.346	8802.85
491.55	9021.99
491.754	9185.82
491.958	9191.97
492.161	9165.34
492.365	9226.78
492.569	9171.49
492.772	9097.76
492.976	9402.91
493.18	9357.85
493.383	9290.27
493.587	9411.1
493.79	9570.84
493.994	9423.39
494.197	9720.34
494.401	9730.58
494.605	9794.07
494.808	9953.81
495.012	9996.82
495.215	10064.4
495.419	10211.85
495.622	10084.88
495.825	10191.38
496.029	9992.72
496.232	10478.09
496.436	10418.7
496.639	10600.97
496.843	10703.37
497.046	10875.4
497.249	10785.29
497.453	11014.66
497.656	10844.68
497.859	11082.24
498.063	11233.79
498.266	11336.19
498.469	11430.4
498.673	11553.27
498.876	11448.83
499.079	11604.47
499.282	11561.47
499.485	12149.23
499.689	12050.93
499.892	12302.83
500.095	12194.29
500.298	12607.98
500.501	12392.94
500.705	12800.49
500.908	12872.17
501.111	12878.31
501.314	13165.03
501.517	13261.28
501.72	13439.45
501.923	13292
502.126	13697.5
502.329	14137.81
502.532	13957.59
502.735	14094.8
502.938	14399.95
503.141	14221.78
503.344	14606.8
503.547	14727.63
503.75	14842.31
503.953	14832.07
504.156	15237.57
504.359	15387.07
504.562	15612.35
504.765	15749.56
504.968	15937.98
505.17	16261.55
505.373	16177.59
505.576	16445.87
505.779	16406.96
505.982	16693.68
506.185	17093.03
506.387	16798.12
506.59	17158.56
506.793	17580.45
506.996	17463.71
507.198	17861.02
507.401	17936.79
507.604	18186.65
507.807	18731.4
508.009	18649.49
508.212	18741.64
508.415	18721.17
508.617	19413.38
508.82	19405.19
509.022	19229.06
509.225	19720.57
509.428	19851.64
509.63	19988.86
509.833	20173.17
510.035	20658.54
510.238	20584.82
510.44	20560.24
510.643	21195.11
510.845	21012.84
511.048	21361
511.25	21465.44
511.453	21674.34
511.655	22475.09
511.858	22251.86
512.06	22550.87
512.262	22839.63
512.465	22899.02
512.667	23267.66
512.87	23427.4
513.072	23466.31
513.274	23898.43
513.477	24103.23
513.679	24336.7
513.881	24553.78
514.084	24729.91
514.286	24922.41
514.488	24895.79
514.69	25854.24
514.893	25522.47
515.095	25938.21
515.297	26091.8
515.499	26229.02
515.701	26644.76
515.904	26683.67
516.106	26894.61
516.308	27291.91
516.51	27543.81
516.712	27648.26
516.914	27664.64
517.116	28180.73
517.318	28424.44
517.52	28619
517.722	28788.98
517.925	29122.8
518.127	29202.67
518.329	29962.47
518.531	29565.16
518.733	30138.59
518.935	30202.08
519.136	30382.3
519.338	30640.34
519.54	31082.7
519.742	31555.79
519.944	31545.55
520.146	32198.85
520.348	32215.23
520.55	32245.95
520.752	32352.44
520.954	33067.19
521.155	32635.06
521.357	32932.02
521.559	33523.88
521.761	33763.5
521.963	33743.02
522.164	34173.09
522.366	33902.76
522.568	34605.21
522.77	34445.47
522.971	35141.78
523.173	34605.21
523.375	35444.88
523.576	35215.51
523.778	34853.01
523.98	35545.23
524.181	35723.4
524.383	36249.73
524.584	36450.43
524.786	36548.73
524.988	36436.09
525.189	37013.62
525.391	36847.74
525.592	37064.82
525.794	37281.91
525.995	37644.4
526.197	37222.51
526.398	37589.1
526.6	37685.36
526.801	37978.22
527.003	38238.31
527.204	38119.52
527.406	38531.17
527.607	38236.26
527.808	39020.63
528.01	38180.96
528.211	38363.23
528.412	39323.73
528.614	38811.74
528.815	38764.64
529.016	39288.92
529.218	38905.94
529.419	39325.78
529.62	39280.72
529.822	38971.48
530.023	39264.34
530.224	39538.77
530.425	39368.79
530.626	39047.25
530.828	38973.53
531.029	39911.5
531.23	39559.25
531.431	39438.42
531.632	39897.16
531.833	39747.66
532.035	39397.46
532.236	39766.09
532.437	39845.96
532.638	39592.01
532.839	39733.32
533.04	40353.86
533.241	39532.62
533.442	40212.55
533.643	40095.81
533.844	39868.49
534.045	39831.63
534.246	39567.44
534.447	40110.15
534.648	39862.35
534.849	40181.83
535.05	39782.48
535.251	40071.24
535.451	39866.44
535.652	39802.96
535.853	39688.27
536.054	39815.24
536.255	40003.66
536.456	39518.29
536.657	40411.2
536.857	39366.74
537.058	39895.11
537.259	39985.22
537.46	40046.66
537.66	39673.93
537.861	39977.03
538.062	40030.28
538.263	40269.89
538.463	39723.08
538.664	39383.12
538.865	39651.41
539.065	39946.31
539.266	39600.21
539.466	40177.73
539.667	39405.65
539.868	39913.55
540.068	39528.53
540.269	39516.24
540.469	39682.13
540.67	39207
540.87	39557.2
541.071	39434.32
541.271	39290.96
541.472	39354.45
541.672	39151.7
541.873	38799.45
542.073	39065.69
542.274	39604.3
542.474	39295.06
542.675	39016.54
542.875	39446.61
543.075	39239.76
543.276	38930.52
543.476	39544.91
543.676	39147.61
543.877	39436.37
544.077	39493.71
544.277	39086.17
544.478	39295.06
544.678	39213.14
544.878	38887.51
545.078	39366.74
545.279	38856.79
545.479	38740.06
545.679	39282.77
545.879	39385.17
546.079	39176.28
546.28	39129.17
546.48	39080.02
546.68	39026.78
546.88	39006.3
547.08	39209.04
547.28	39104.6
547.48	38991.96
547.68	38994.01
547.88	38568.03
548.081	38903.9
548.281	39053.4
548.481	38686.81
548.681	39170.13
548.881	38864.99
549.081	38766.68
549.28	38850.65
549.48	39565.39
549.68	39438.42
549.88	39258.2
550.08	38991.96
550.28	38803.55
550.48	38805.59
550.68	39088.21
550.88	38582.37
551.08	38887.51
551.279	39135.32
551.479	38717.53
551.679	38811.74
551.879	39166.04
552.079	39114.84
552.278	38578.27
552.478	39061.59
552.678	38879.32
552.878	39473.23
553.077	39004.25
553.277	38717.53
553.477	39360.59
553.676	38914.14
553.876	38871.13
554.076	38699.1
554.275	38983.77
554.475	38363.23
554.674	38709.34
554.874	38951
555.074	38639.71
555.273	38635.61
555.473	39055.45
555.672	38516.83
555.872	38715.48
556.071	38604.89
556.271	39034.97
556.47	38469.73
556.67	38105.19
556.869	38633.57
557.068	38457.44
557.268	38111.33
557.467	38514.78
557.667	38324.32
557.866	38285.41
558.065	38291.55
558.265	37914.73
558.464	37861.48
558.663	38426.72
558.863	38082.66
559.062	38266.98
559.261	38035.56
559.461	38488.16
559.66	37675.12
559.859	38176.87
560.058	37965.93
560.258	37855.34
560.457	37959.78
560.656	38420.58
560.855	37931.11
561.054	37955.69
561.253	37400.69
561.453	37570.67
561.652	37863.53
561.851	37711.98
562.05	37548.14
562.249	37349.49
562.448	37820.52
562.647	37449.84
562.846	37537.9
563.045	37417.07
563.244	37333.1
563.443	37648.49
563.642	36978.81
563.841	37255.28
564.04	37027.96
564.239	37242.99
564.438	36460.67
564.637	37134.45
564.836	37152.88
565.035	36438.14
565.234	36726.91
565.432	36735.1
565.631	36458.62
565.83	36421.76
566.029	36190.34
566.228	36294.78
566.427	36681.85
566.625	35926.15
566.824	35844.23
567.023	36354.18
567.222	35496.08
567.42	36098.18
567.619	35915.91
567.818	35737.74
568.016	35743.88
568.215	36022.4
568.414	35416.21
568.612	35414.16
568.811	35147.92
569.01	35696.78
569.208	34896.02
569.407	35209.36
569.605	34803.86
569.804	35639.43
570.002	34883.73
570.201	35365.01
570.4	34697.37
570.598	34769.05
570.797	34304.16
570.995	34400.41
571.193	34400.41
571.392	34394.27
571.59	34205.86
571.789	34410.65
571.987	34107.55
572.186	33726.63
572.384	34132.13
572.582	33968.29
572.781	34119.84
572.979	33509.55
573.177	34183.33
573.376	33722.54
573.574	33413.29
573.772	33843.37
573.971	33456.3
574.169	33112.24
574.367	33401
574.565	33165.49
574.763	33163.44
574.962	33085.62
575.16	32555.19
575.358	32569.53
575.556	32442.56
575.754	33145.01
575.952	32336.06
576.151	32299.2
576.349	32014.53
576.547	32305.34
576.745	32100.54
576.943	32108.74
577.141	31963.33
577.339	32053.44
577.537	31983.81
577.735	32022.72
577.933	31652.04
578.131	31731.91
578.329	31412.43
578.527	31072.46
578.725	31613.13
578.923	31488.2
579.121	31344.84
579.319	31244.49
579.516	31420.62
579.714	31224.01
579.912	30957.78
580.11	30662.87
580.308	31213.77
580.506	30744.79
580.704	30118.11
580.901	30281.95
581.099	30718.17
581.297	30109.92
581.495	30795.99
581.692	30353.63
581.89	29802.72
582.088	30220.51
582.285	29958.37
582.483	30095.58
582.681	30017.76
582.878	29837.54
583.076	29552.87
583.274	29772
583.471	29544.68
583.669	29169.9
583.866	29391.08
584.064	29530.34
584.262	28834.03
584.459	29030.64
584.657	28850.42
584.854	29073.65
585.052	28623.09
585.249	29151.47
585.447	28518.65
585.644	28625.14
585.841	28682.49
586.039	28868.85
586.236	28313.85
586.434	28156.16
586.631	28188.92
586.828	28471.54
587.026	28281.08
587.223	27742.47
587.42	27844.87
587.618	28119.29
587.815	27568.39
588.012	27705.6
588.21	27640.07
588.407	27531.53
588.604	27560.2
588.801	27103.5
588.999	27308.3
589.196	27201.8
589.393	27271.43
589.59	26849.55
589.787	26976.53
589.984	26718.48
590.182	26790.16
590.379	26878.22
590.576	26929.42
590.773	26685.72
590.97	26468.63
591.167	26650.9
591.364	26446.1
591.561	26296.6
591.758	26050.85
591.955	26212.63
592.152	26306.84
592.349	25915.68
592.546	26267.93
592.743	26050.85
592.94	25409.83
593.137	25921.82
593.334	26116.38
593.531	25393.45
593.727	25631.01
593.924	25305.38
594.121	25202.99
594.318	25080.11
594.515	24934.7
594.712	25604.39
594.908	25155.88
595.105	24899.89
595.302	24824.11
595.499	25063.72
595.696	24736.05
595.892	24783.15
596.089	24891.69
596.286	25100.59
596.482	24713.52
596.679	24564.02
596.876	24727.86
597.072	24271.16
597.269	24643.89
597.466	24324.41
597.662	24305.98
597.859	24029.5
598.055	24219.96
598.252	23925.05
598.448	24043.84
598.645	23906.62
598.841	23695.68
599.038	23871.81
599.234	23677.25
599.431	23576.9
599.627	23425.35
599.824	23593.28
600.02	23470.4
600.217	23687.49
600.413	23425.35
600.609	22970.7
600.806	23189.83
601.002	23392.58
601.198	23161.16
601.395	22935.88
601.591	22819.15
601.787	22923.6
601.984	22724.94
602.18	22966.6
602.376	22747.47
602.572	22761.81
602.769	22548.82
602.965	22237.53
603.161	22280.53
603.357	22298.97
603.553	22282.58
603.75	22317.4
603.946	22040.92
604.142	22384.98
604.338	21823.84
604.534	21795.17
604.73	21797.21
604.926	21676.38
605.122	21799.26
605.318	21731.68
605.514	21504.35
605.71	21539.17
605.906	21258.6
606.102	21444.96
606.298	21363.04
606.494	21367.14
606.69	21317.99
606.886	21442.92
607.082	21078.38
607.278	21172.58
607.474	20896.11
607.67	20990.31
607.866	20846.96
608.062	21422.44
608.257	21012.84
608.453	21012.84
608.649	21006.7
608.845	20844.91
609.041	20752.75
609.236	21285.22
609.432	20808.05
609.628	20631.92
609.824	20558.19
610.019	20644.21
610.215	20259.19
610.411	20642.16
610.606	20334.96
610.802	20484.47
610.998	20404.6
611.193	20435.31
611.389	19937.66
611.584	20310.39
611.78	20164.98
611.976	20300.15
612.171	20128.12
612.367	20310.39
612.562	19898.75
612.758	19624.32
612.953	19659.13
613.149	20027.77
613.344	19874.17
613.539	19865.98
613.735	19779.96
613.93	19843.45
614.126	19661.18
614.321	19878.27
614.517	19771.77
614.712	19362.18
614.907	19425.67
615.103	19689.85
615.298	19607.94
615.493	19825.02
615.688	19116.42
615.884	19720.57
616.079	19036.55
616.274	19444.1
616.47	19360.13
616.665	19315.08
616.86	19067.27
617.055	19145.09
617.25	19190.15
617.445	19505.54
617.641	18768.27
617.836	18928.01
618.031	18604.43
618.226	18895.24
618.421	18723.21
618.616	18932.11
618.811	18510.22
619.006	18819.47
619.201	18637.2
619.396	18557.33
619.591	18289.04
619.786	18620.81
619.981	18231.7
620.176	18235.8
620.371	18059.67
620.566	18309.52
620.761	18125.21
620.956	17838.49
621.151	17879.45
621.346	17795.48
621.541	17467.81
621.735	17854.87
621.93	17265.06
622.125	17562.01
622.32	17099.17
622.515	17334.69
622.709	17230.24
622.904	17215.91
623.099	16847.27
623.294	16929.19
623.488	16783.79
623.683	16935.34
623.878	16630.19
624.072	16503.21
624.267	16251.31
624.462	16560.56
624.656	16134.58
624.851	16427.44
625.046	15952.31
625.24	16036.28
625.435	15888.82
625.629	15849.91
625.824	15792.57
626.018	15770.04
626.213	15567.29
626.407	15686.08
626.602	15356.35
626.796	15512
626.991	15389.12
627.185	15307.2
627.38	15270.34
627.574	15157.7
627.768	15110.6
627.963	14836.17
628.157	14717.39
628.352	14909.9
628.546	14657.99
628.74	14688.71
628.935	14447.05
629.129	14504.4
629.323	14320.08
629.517	14430.67
629.712	14111.19
629.906	14309.84
630.1	13945.3
630.294	14125.52
630.489	13881.81
630.683	14264.78
630.877	13312.48
631.071	13750.74
631.265	13795.8
631.459	13437.41
631.653	13367.77
631.848	13808.09
632.042	13390.3
632.236	13470.17
632.43	13152.74
632.624	13238.75
632.818	13103.59
633.012	13058.53
633.206	12882.41
633.4	12700.14
633.594	12788.2
633.788	12954.08
633.982	12704.23
634.176	12575.21
634.369	12554.73
634.563	12431.85
634.757	12388.85
634.951	12472.81
635.145	12337.65
635.339	12380.65
635.533	12210.67
635.726	12225.01
635.92	11899.38
636.114	12046.83
636.308	12022.26
636.501	12124.66
636.695	12087.79
636.889	11637.24
637.083	11596.28
637.276	11526.65
637.47	11565.56
637.664	11432.44
637.857	11371.01
638.051	11371.01
638.244	11129.34
638.438	11317.76
638.632	11356.67
638.825	11223.55
639.019	10936.84
639.212	10920.45
639.406	10918.4
639.599	10969.6
639.793	10940.93
639.986	10801.67
640.18	10762.76
640.373	10621.45
640.567	10582.54
640.76	10277.39
640.954	10375.69
641.147	10328.59
641.34	10353.16
641.534	10451.47
641.727	10301.97
641.92	10258.96
642.114	10162.7
642.307	10156.56
642.5	10148.37
642.694	9939.47
642.887	9755.16
643.08	10031.63
643.273	9808.4
643.467	9548.31
643.66	9695.77
643.853	9619.99
644.046	9599.51
644.239	9622.04
644.432	9597.46
644.626	9529.88
644.819	9323.04
645.012	9480.73
645.205	9351.71
645.398	9304.6
645.591	9052.7
645.784	9187.87
645.977	9153.06
646.17	9138.72
646.363	8761.89
646.556	8784.42
646.749	8915.49
646.942	9060.9
647.135	8874.53
647.328	8688.17
647.521	8555.05
647.714	8540.71
647.907	8567.34
648.099	8596.01
648.292	8528.42
648.485	8475.18
648.678	8395.31
648.871	8290.86
649.064	8178.22
649.256	8274.48
649.449	8143.41
649.642	8155.69
649.835	8174.13
650.027	8206.89
650.22	7979.57
650.413	7963.19
650.605	7909.94
650.798	7963.19
650.991	7860.79
651.183	7897.65
651.376	7752.24
651.568	7713.33
651.761	7666.23
651.954	7574.07
652.146	7694.9
652.339	7731.76
652.531	7676.47
652.724	7604.79
652.916	7426.62
653.109	7318.07
653.301	7293.5
653.494	7418.43
653.686	7270.97
653.879	7336.51
654.071	7303.74
654.263	7098.94
654.456	7195.2
654.648	7334.46
654.84	7051.84
655.033	7201.34
655.225	7209.53
655.417	6853.19
655.61	7068.22
655.802	6902.34
655.994	6789.7
656.186	6902.34
656.379	6857.28
656.571	6734.4
656.763	6734.4
656.955	6763.08
657.148	6666.82
657.34	6558.28
657.532	6566.47
657.724	6480.46
657.916	6623.81
658.108	6713.92
658.3	6474.31
658.492	6378.06
658.684	6326.86
658.876	6408.78
659.068	6222.41
659.26	6230.6
659.452	6369.87
659.644	6412.87
659.836	6201.93
660.028	6126.16
660.22	6124.11
660.412	5993.04
660.604	5972.56
660.796	6158.92
660.988	6046.29
661.18	5947.98
661.372	5837.39
661.563	5759.57
661.755	5821.01
661.947	5700.18
662.139	5845.59
662.331	5620.31
662.522	5675.6
662.714	5681.75
662.906	5579.35
663.097	5653.08
663.289	5571.16
663.481	5495.38
663.673	5536.34
663.864	5640.79
664.056	5530.2
664.247	5452.38
664.439	5395.03
664.631	5319.26
664.822	5331.55
665.014	5251.67
665.205	5423.7
665.397	5304.92
665.588	5300.83
665.78	5266.01
665.971	5306.97
666.163	5296.73
666.354	5229.15
666.546	5136.99
666.737	5141.08
666.929	5044.83
667.12	5165.66
667.311	5050.97
667.503	5108.32
667.694	5026.4
667.885	4954.72
668.077	4919.9
668.268	4897.38
668.459	4862.56
668.651	5026.4
668.842	5028.45
669.033	4903.52
669.224	4840.03
669.416	4934.24
669.607	4924
669.798	4721.25
669.989	4921.95
670.18	4754.02
670.371	4797.03
670.563	4575.84
670.754	4717.15
670.945	4723.3
671.136	4878.94
671.327	4602.47
671.518	4616.8
671.709	4602.47
671.9	4711.01
672.091	4522.6
672.282	4469.35
672.473	4473.45
672.664	4551.27
672.855	4463.21
673.046	4407.91
673.237	4379.24
673.428	4403.82
673.619	4561.51
673.809	4219.5
674	4389.48
674.191	4481.64
674.382	4289.13
674.573	4340.33
674.764	4321.9
674.954	4403.82
675.145	4293.23
675.336	4395.62
675.527	4420.2
675.717	4321.9
675.908	4196.97
676.099	4225.64
676.289	4166.25
676.48	4258.41
676.671	4174.44
676.861	4166.25
677.052	4192.87
677.243	4215.4
677.433	4162.16
677.624	4194.92
677.814	4145.77
678.005	4237.93
678.195	4280.94
678.386	4209.26
678.576	4061.8
678.767	4258.41
678.957	4096.62
679.148	4252.27
679.338	3936.88
679.529	4049.52
679.719	3914.35
679.909	3996.27
680.1	4024.94
680.29	4086.38
680.481	3869.3
680.671	3969.65
680.861	3967.6
681.052	4053.61
681.242	4020.85
681.432	3973.74
681.622	3828.34
681.813	3992.17
682.003	3887.73
682.193	3797.62
682.383	4022.89
682.573	3897.97
682.764	3969.65
682.954	4026.99
683.144	3900.02
683.334	3953.26
683.524	3881.58
683.714	3908.21
683.904	4000.37
684.094	3877.49
684.284	3822.19
684.474	3922.54
684.664	3945.07
684.854	3834.48
685.044	3945.07
685.234	3725.94
685.424	3752.56
685.614	3789.42
685.804	3814
685.994	3842.67
686.184	3682.93
686.374	3646.07
686.564	3842.67
686.753	3863.15
686.943	3609.2
687.133	3648.11
687.323	3793.52
687.513	3734.13
687.702	3691.12
687.892	3617.4
688.082	3619.44
688.272	3736.18
688.461	3691.12
688.651	3695.22
688.841	3453.56
689.03	3496.57
689.22	3375.74
689.41	3433.08
689.599	3408.5
689.789	3453.56
689.979	3521.14
690.168	3527.28
690.358	3555.96
690.547	3402.36
690.737	3426.93
690.926	3494.52
691.116	3308.15
691.305	3377.78
691.495	3375.74
691.684	3480.18
691.874	3383.93
692.063	3396.21
692.252	3474.04
692.442	3488.37
692.631	3299.96
692.82	3299.96
693.01	3267.19
693.199	3316.34
693.388	3349.11
693.578	3322.49
693.767	3324.54
693.956	3379.83
694.146	3228.28
694.335	3302.01
694.524	3408.5
694.713	3232.38
694.902	3371.64
695.092	3215.99
695.281	3248.76
695.47	3269.24
695.659	3168.89
695.848	3228.28
696.037	3289.72
696.226	3248.76
696.415	3043.96
696.604	3345.02
696.793	3199.61
696.982	3125.88
697.171	3416.69
697.36	3211.9
697.549	3080.83
697.738	3058.3
697.927	3091.07
698.116	3207.8
698.305	3234.43
698.494	3017.34
698.683	3207.8
698.872	3240.57
699.061	3031.68
699.25	3097.21
699.438	3093.12
699.627	3148.41
699.816	3136.12
700.005	2929.28
700.193	3072.64
700.382	3117.69
700.571	3183.23
700.76	3148.41
700.948	3121.79
701.137	3000.96
701.326	3011.2
701.514	3064.44
701.703	3056.25
701.892	3074.68
702.08	3056.25
702.269	3113.6
702.457	2960
702.646	2990.72
702.834	2896.51
703.023	2974.33
703.212	3099.26
703.4	3035.77
703.589	3052.16
703.777	2955.9
703.965	3027.58
704.154	3134.07
704.342	2945.66
704.531	2966.14
704.719	3003
704.907	2914.94
705.096	2904.7
705.284	3093.12
705.472	2966.14
705.661	2994.81
705.849	3056.25
706.037	3009.15
706.226	2923.13
706.414	2876.03
706.602	2996.86
706.79	2859.65
706.979	2978.43
707.167	2873.98
707.355	2933.37
707.543	2830.98
707.731	2937.47
707.919	2845.31
708.107	2802.3
708.296	2855.55
708.484	2593.41
708.672	2798.21
708.86	2896.51
709.048	2812.54
709.236	2873.98
709.424	2806.4
709.612	2884.22
709.8	2843.26
709.988	2759.3
710.176	2777.73
710.364	2822.78
710.551	2718.34
710.739	2734.72
710.927	2871.93
711.115	2736.77
711.303	2790.02
711.491	2714.24
711.679	2781.82
711.866	2804.35
712.054	2732.67
712.242	2720.39
712.43	2718.34
712.617	2646.66
712.805	2622.08
712.993	2691.71
713.181	2650.75
713.368	2714.24
713.556	2615.94
713.744	2630.27
713.931	2830.98
714.119	2650.75
714.306	2781.82
714.494	2673.28
714.682	2632.32
714.869	2677.38
715.057	2687.62
715.244	2527.88
715.432	2669.19
715.619	2630.27
715.807	2681.47
715.994	2646.66
716.182	2495.11
716.369	2622.08
716.556	2642.56
716.744	2540.16
716.931	2550.4
717.119	2579.08
717.306	2652.8
717.493	2579.08
717.681	2630.27
717.868	2538.12
718.055	2486.92
718.242	2701.95
718.43	2464.39
718.617	2552.45
718.804	2409.09
718.991	2570.88
719.179	2536.07
719.366	2505.35
719.553	2433.67
719.74	2368.13
719.927	2583.17
720.114	2445.96
720.301	2542.21
720.488	2499.2
720.676	2495.11
720.863	2431.62
721.05	2507.4
721.237	2402.95
721.424	2470.53
721.611	2390.66
721.798	2386.57
721.985	2425.48
722.172	2329.22
722.358	2417.29
722.545	2431.62
722.732	2323.08
722.919	2480.77
723.106	2445.96
723.293	2452.1
723.48	2364.04
723.667	2318.98
723.853	2347.65
724.04	2431.62
724.227	2417.29
724.414	2282.12
724.6	2402.95
724.787	2349.7
724.974	2355.85
725.161	2331.27
725.347	2286.22
725.534	2353.8
725.72	2421.38
725.907	2318.98
726.094	2288.26
726.28	2298.5
726.467	2327.18
726.653	2259.59
726.84	2192.01
727.027	2261.64
727.213	2124.43
727.4	2407.05
727.586	2282.12
727.773	2282.12
727.959	2265.74
728.145	2366.09
728.332	2275.98
728.518	2144.91
728.705	2331.27
728.891	2251.4
729.077	2232.97
729.264	2138.76
729.45	2249.35
729.636	2226.82
729.823	2144.91
730.009	2298.5
730.195	2138.76
730.382	2128.52
730.568	2146.95
730.754	2265.74
730.94	2144.91
731.126	2130.57
731.313	2208.39
731.499	2204.3
731.685	2112.14
731.871	2069.13
732.057	2200.2
732.243	2167.43
732.429	2130.57
732.615	2167.43
732.801	2228.87
732.987	2144.91
733.173	2142.86
733.359	2081.42
733.545	2167.43
733.731	2192.01
733.917	2083.47
734.103	2151.05
734.289	2028.17
734.475	2175.63
734.661	2126.47
734.847	2183.82
735.033	2075.28
735.219	2101.9
735.404	1972.88
735.59	2005.64
735.776	2024.08
735.962	2050.7
736.148	2097.8
736.333	2019.98
736.519	1950.35
736.705	2085.51
736.89	2032.27
737.076	2046.6
737.262	1866.38
737.447	1979.02
737.633	1938.06
737.819	1858.19
738.004	2011.79
738.19	1942.16
738.375	1870.48
738.561	1946.25
738.747	1909.39
738.932	1890.96
739.118	2060.94
739.303	1890.96
739.489	1999.5
739.674	1815.18
739.859	1880.72
740.045	1972.88
740.23	1933.97
740.416	1929.87
740.601	1950.35
740.786	1958.54
740.972	1790.61
741.157	1933.97
741.342	1827.47
741.528	1809.04
741.713	1823.37
741.898	1839.76
742.084	1798.8
742.269	1850
742.454	1827.47
742.639	1778.32
742.824	1802.9
743.01	1827.47
743.195	1854.09
743.38	1815.18
743.565	1739.41
743.75	1714.83
743.935	1716.88
744.12	1819.28
744.305	1663.63
744.49	1743.5
744.675	1743.5
744.86	1741.46
745.045	1571.47
745.23	1643.15
745.415	1704.59
745.6	1594
745.785	1729.17
745.97	1702.54
746.155	1665.68
746.34	1626.77
746.525	1612.43
746.71	1663.63
746.895	1637.01
747.079	1563.28
747.264	1651.35
747.449	1471.12
747.634	1700.5
747.819	1534.61
748.003	1481.36
748.188	1579.67
748.373	1401.49
748.557	1493.65
748.742	1553.04
748.927	1534.61
749.111	1540.76
749.296	1499.8
749.481	1389.21
749.665	1479.32
749.85	1481.36
750.034	1344.15
750.219	1421.97
750.404	1409.69
750.588	1405.59
750.773	1348.25
750.957	1405.59
751.141	1454.74
751.326	1393.3
751.51	1405.59
751.695	1372.82
751.879	1333.91
752.064	1331.86
752.248	1399.45
752.432	1358.49
752.617	1251.99
752.801	1372.82
752.985	1278.62
753.17	1249.94
753.354	1260.18
753.538	1438.36
753.722	1204.89
753.907	1260.18
754.091	1208.98
754.275	1237.66
754.459	1188.5
754.643	1208.98
754.828	1176.22
755.012	1208.98
755.196	1120.92
755.38	1208.98
755.564	1178.26
755.748	1151.64
755.932	1237.66
756.116	1168.02
756.3	1192.6
756.484	1110.68
756.668	1127.07
756.852	1055.39
757.036	1028.76
757.22	1071.77
757.404	1077.91
757.588	1120.92
757.772	1063.58
757.956	1061.53
758.14	1028.76
758.323	1061.53
758.507	1077.91
758.691	1053.34
758.875	1092.25
759.059	1045.15
759.242	1014.43
759.426	1010.33
759.61	1071.77
759.794	924.32
759.977	971.42
760.161	1041.05
760.345	1002.14
760.528	996
760.712	1002.14
760.895	993.95
761.079	873.12
761.263	946.84
761.446	957.08
761.63	924.32
761.813	938.65
761.997	983.71
762.18	938.65
762.364	926.36
762.547	873.12
762.731	893.6
762.914	909.98
763.098	893.6
763.281	877.21
763.464	930.46
763.648	844.45
763.831	866.97
764.015	877.21
764.198	856.73
764.381	834.21
764.564	856.73
764.748	879.26
764.931	881.31
765.114	909.98
765.297	877.21
765.481	787.1
765.664	723.62
765.847	727.71
766.03	805.53
766.213	766.62
766.397	813.73
766.58	744.1
766.763	776.86
766.946	799.39
767.129	815.77
767.312	883.36
767.495	807.58
767.678	735.9
767.861	815.77
768.044	744.1
768.227	795.29
768.41	740
768.593	762.53
768.776	684.7
768.959	725.66
769.142	688.8
769.324	696.99
769.507	889.5
769.69	823.97
769.873	770.72
770.056	783.01
770.239	758.43
770.421	815.77
770.604	703.14
770.787	746.14
770.97	725.66
771.152	778.91
771.335	696.99
771.518	709.28
771.7	717.47
771.883	791.2
772.066	733.86
772.248	686.75
772.431	711.33
772.613	703.14
772.796	651.94
772.978	709.28
773.161	725.66
773.343	682.66
773.526	795.29
773.708	602.79
773.891	658.08
774.073	598.69
774.256	658.08
774.438	578.21
774.621	643.74
774.803	647.84
774.985	551.59
775.168	674.46
775.35	602.79
775.532	666.27
775.715	524.96
775.897	615.07
776.079	543.39
776.261	586.4
776.444	565.92
776.626	623.27
776.808	531.11
776.99	561.83
777.173	613.03
777.355	553.63
777.537	527.01
777.719	570.02
777.901	533.15
778.083	500.39
778.265	635.55
778.447	475.81
778.629	561.83
778.811	623.27
778.993	594.59
779.175	588.45
779.357	494.24
779.539	531.11
779.721	490.15
779.903	504.48
780.085	551.59
780.267	492.2
780.449	508.58
780.631	502.43
780.812	498.34
780.994	549.54
781.176	471.72
781.358	504.48
781.54	488.1
781.721	465.57
781.903	463.52
782.085	557.73
782.267	510.63
782.448	385.7
782.63	424.61
782.812	531.11
782.993	422.56
783.175	422.56
783.357	408.23
783.538	365.22
783.72	295.59
783.901	377.51
784.083	451.24
784.264	400.04
784.446	381.6
784.627	451.24
784.809	473.76
784.99	397.99
785.172	367.27
785.353	369.32
785.535	365.22
785.716	367.27
785.897	309.93
786.079	334.5
786.26	371.37
786.441	449.19
786.623	318.12
786.804	332.45
786.985	303.78
787.167	414.37
787.348	293.54
787.529	266.92
787.71	373.41
787.891	350.89
788.073	324.26
788.254	268.97
788.435	383.65
788.616	381.6
788.797	342.69
788.978	373.41
789.159	275.11
789.34	352.93
789.522	287.4
789.703	242.34
789.884	395.94
790.065	334.5
790.246	373.41
790.427	242.34
790.607	287.4
790.788	363.17
790.969	293.54
791.15	293.54
791.331	314.02
791.512	326.31
791.693	336.55
791.874	299.69
792.054	377.51
792.235	320.17
792.416	279.21
792.597	283.3
792.778	258.73
792.958	361.13
793.139	307.88
793.32	275.11
793.5	279.21
793.681	236.2
793.862	307.88
794.042	252.58
794.223	262.82
794.404	273.06
794.584	266.92
794.765	217.77
794.945	242.34
795.126	238.25
795.306	354.98
795.487	250.53
795.667	211.62
795.848	293.54
796.028	234.15
796.209	316.07
796.389	305.83
796.57	285.35
796.75	264.87
796.93	232.1
797.111	86.7
797.291	328.36
797.471	291.49
797.652	211.62
797.832	244.39
798.012	322.21
798.192	178.86
798.373	166.57
798.553	148.14
798.733	258.73
798.913	141.99
799.093	234.15
799.274	209.58
799.454	242.34
799.634	236.2
799.814	328.36
799.994	191.14
800.174	185
800.354	230.06
800.534	158.38
800.714	187.05
800.894	242.34
801.074	178.86
801.254	246.44
801.434	168.62
801.614	203.43
801.794	262.82
801.974	742.05
802.154	201.38
802.334	203.43
802.514	176.81
802.693	185
802.873	156.33
803.053	195.24
803.233	244.39
803.413	111.27
803.592	107.18
803.772	135.85
803.952	146.09
804.131	170.66
804.311	211.62
804.491	238.25
804.67	170.66
804.85	234.15
805.03	154.28
805.209	168.62
805.389	174.76
805.568	193.19
805.748	185
805.928	156.33
806.107	152.23
806.287	213.67
806.466	135.85
806.646	135.85
806.825	133.8
807.004	174.76
807.184	154.28
807.363	146.09
807.543	221.86
807.722	178.86
807.901	111.27
808.081	174.76
808.26	94.89
808.439	152.23
808.619	176.81
808.798	111.27
808.977	195.24
809.156	185
809.336	135.85
809.515	152.23
809.694	127.66
809.873	98.99
810.052	80.55
810.231	180.9
810.411	111.27
810.59	180.9
810.769	189.1
810.948	170.66
811.127	80.55
811.306	162.47
811.485	135.85
811.664	58.03
811.843	156.33
812.022	72.36
812.201	98.99
812.38	90.79
812.559	156.33
812.737	146.09
812.916	17.07
813.095	135.85
813.274	148.14
813.453	119.46
813.632	119.46
813.811	154.28
813.989	109.22
814.168	146.09
814.347	119.46
814.526	150.18
814.704	213.67
814.883	168.62
815.062	90.79
815.24	187.05
815.419	123.56
815.598	185
815.776	41.64
815.955	121.51
816.133	146.09
816.312	121.51
816.49	119.46
816.669	144.04
816.847	133.8
817.026	129.7
817.204	33.45
817.383	139.94
817.561	76.46
817.74	160.42
817.918	53.93
818.097	162.47
818.275	156.33
818.453	189.1
818.632	123.56
818.81	129.7
818.988	15.02
819.167	82.6
819.345	121.51
819.523	127.66
819.701	103.08
819.879	170.66
820.058	121.51
820.236	156.33
820.414	64.17
820.592	146.09
820.77	86.7
820.948	62.12
821.127	37.55
821.305	39.59
821.483	123.56
821.661	111.27
821.839	94.89
822.017	70.31
822.195	74.41
822.373	86.7
822.551	78.51
822.729	141.99
822.907	96.94
823.085	121.51
823.262	96.94
823.44	33.45
823.618	47.79
823.796	70.31
823.974	139.94
824.152	55.98
824.329	35.5
824.507	53.93
824.685	78.51
824.863	74.41
825.04	55.98
825.218	70.31
825.396	103.08
825.574	123.56
825.751	55.98
825.929	101.03
826.107	62.12
826.284	94.89
826.462	94.89
826.639	74.41
826.817	90.79
826.994	111.27
827.172	119.46
827.349	152.23
827.527	64.17
827.704	45.74
827.882	82.6
828.059	43.69
828.237	29.35
828.414	94.89
828.591	62.12
828.769	78.51
828.946	45.74
829.124	121.51
829.301	43.69
829.478	78.51
829.655	156.33
829.833	94.89
830.01	12.97
830.187	25.26
830.364	4.78
830.542	62.12
830.719	178.86
830.896	25.26
831.073	103.08
831.25	115.37
831.427	29.35
831.604	80.55
831.782	27.31
831.959	49.83
832.136	39.59
832.313	53.93
832.49	94.89
832.667	58.03
832.844	101.03
833.021	152.23
833.198	62.12
833.374	94.89
833.551	74.41
833.728	12.97
833.905	156.33
834.082	45.74
834.259	17.07
834.436	96.94
834.612	35.5
834.789	70.31
834.966	37.55
835.143	64.17
835.319	47.79
835.496	86.7
835.673	96.94
835.85	58.03
836.026	62.12
836.203	62.12
836.38	111.27
836.556	113.32
836.733	111.27
836.909	64.17
837.086	-3.41
837.262	6.83
837.439	19.11
837.616	45.74
837.792	70.31
837.968	6.83
838.145	33.45
838.321	53.93
838.498	53.93
838.674	127.66
838.851	37.55
839.027	-9.56
839.203	49.83
839.38	-1.37
839.556	-30.04
839.732	49.83
839.909	64.17
840.085	78.51
840.261	96.94
840.437	62.12
840.614	12.97
840.79	25.26
840.966	47.79
841.142	21.16
841.318	58.03
841.494	72.36
841.671	53.93
841.847	21.16
842.023	25.26
842.199	23.21
842.375	33.45
842.551	74.41
842.727	43.69
842.903	0.68
843.079	-17.75
843.255	90.79
843.431	66.22
843.607	53.93
843.783	19.11
843.959	47.79
844.134	12.97
844.31	8.87
844.486	12.97
844.662	-17.75
844.838	12.97
845.013	119.46
845.189	49.83
845.365	-32.08
845.541	68.27
845.716	72.36
845.892	105.13
846.068	-9.56
846.244	-19.8
846.419	29.35
846.595	-19.8
846.77	-3.41
846.946	72.36
847.122	39.59
847.297	25.26
847.473	78.51
847.648	-60.76
847.824	17.07
847.999	-23.89
848.175	8.87
848.35	-3.41
848.526	66.22
848.701	37.55
848.876	17.07
849.052	23.21
849.227	8.87
849.403	64.17
849.578	-17.75
849.753	4.78
849.929	19.11
850.104	-27.99
850.279	-1.37
850.454	47.79
850.63	58.03
850.805	96.94
850.98	94.89
851.155	-9.56
851.33	80.55
851.505	-42.32
851.681	107.18
851.856	-5.46
852.031	23.21
852.206	-1.37
852.381	-1.37
852.556	-13.65
852.731	72.36
852.906	82.6
853.081	47.79
853.256	82.6
853.431	35.5
853.606	62.12
853.781	78.51
853.956	-3.41
854.131	15.02
854.305	-38.23
854.48	31.4
854.655	21.16
854.83	-3.41
855.005	-32.08
855.18	-36.18
855.354	-9.56
855.529	125.61
855.704	88.75
855.879	33.45
856.053	25.26
856.228	-11.61
856.403	-27.99
856.577	-64.85
856.752	-23.89
856.926	25.26
857.101	39.59
857.276	8.87
857.45	-23.89
857.625	84.65
857.799	2.73
857.974	47.79
858.148	-11.61
858.323	39.59
858.497	25.26
858.672	43.69
858.846	35.5
859.02	72.36
859.195	33.45
859.369	12.97
859.543	33.45
859.718	45.74
859.892	-5.46
860.066	29.35
860.241	19.11
860.415	103.08
860.589	64.17
860.763	-11.61
860.938	29.35
861.112	-34.13
861.286	17.07
861.46	-3.41
861.634	8.87
861.808	121.51
861.982	62.12
862.157	27.31
862.331	45.74
862.505	31.4
862.679	-91.48
862.853	2.73
863.027	6.83
863.201	66.22
863.375	-56.66
863.549	-58.71
863.722	33.45
863.896	70.31
864.07	-34.13
864.244	-17.75
864.418	-9.56
864.592	-7.51
864.766	-13.65
864.939	31.4
865.113	-95.57
865.287	55.98
865.461	-34.13
865.634	37.55
865.808	45.74
865.982	-36.18
866.156	15.02
866.329	15.02
866.503	41.64
866.676	12.97
866.85	86.7
867.024	21.16
867.197	19.11
867.371	82.6
867.544	82.6
867.718	-7.51
867.891	19.11
868.065	-17.75
868.238	41.64
868.412	17.07
868.585	-21.85
868.759	70.31
868.932	66.22
869.105	4.78
869.279	-15.7
869.452	-60.76
869.625	-68.95
869.799	45.74
869.972	0.68
870.145	-11.61
870.319	31.4
870.492	64.17
870.665	-40.28
870.838	-36.18
871.011	12.97
871.185	-25.94
871.358	-11.61
871.531	0.68
871.704	0.68
871.877	0.68
872.05	29.35
872.223	-27.99
872.396	19.11
872.569	27.31
872.742	-34.13
872.915	92.84
873.088	-11.61
873.261	10.92
873.434	68.27
873.607	-36.18
873.78	37.55
873.953	-3.41
874.126	4.78
874.299	74.41
874.471	70.31
874.644	-3.41
874.817	29.35
874.99	98.99
875.163	-1.37
875.335	25.26
875.508	21.16
875.681	103.08
875.853	-25.94
876.026	88.75
876.199	88.75
876.371	45.74
876.544	-7.51
876.717	12.97
876.889	-40.28
877.062	-25.94
877.234	47.79
877.407	12.97
877.579	-44.37
877.752	12.97
877.924	8.87
878.097	29.35
878.269	12.97
878.442	-1.37
878.614	-27.99
878.786	-9.56
878.959	-3.41
879.131	17.07
879.303	-9.56
879.476	-25.94
879.648	64.17
879.82	15.02
879.993	-15.7
880.165	33.45
880.337	64.17
880.509	12.97
880.681	-75.09
880.854	-19.8
881.026	78.51
881.198	21.16
881.37	-36.18
881.542	-42.32
881.714	-30.04
881.886	-36.18
882.058	17.07
882.23	-44.37
882.402	68.27
882.574	41.64
882.746	-68.95
882.918	55.98
883.09	12.97
883.262	12.97
883.434	39.59
883.606	-23.89
883.778	53.93
883.95	4.78
884.122	-9.56
884.293	25.26
884.465	-44.37
884.637	94.89
884.809	-52.56
884.98	-3.41
885.152	29.35
885.324	66.22
885.496	-27.99
885.667	41.64
885.839	41.64
886.011	33.45
886.182	2.73
886.354	33.45
886.525	-17.75
886.697	4.78
886.869	-17.75
887.04	-52.56
887.212	39.59
887.383	37.55
887.555	41.64
887.726	39.59
887.897	-15.7
888.069	-19.8
888.24	10.92
888.412	8.87
888.583	4.78
888.754	-9.56
888.926	-38.23
889.097	-17.75
889.268	23.21
889.44	25.26
889.611	-93.52
889.782	-62.8
889.953	15.02
890.125	-27.99
890.296	-85.33
890.467	-19.8
890.638	-44.37
890.809	6.83
890.98	-9.56
891.151	-11.61
891.323	6.83
891.494	21.16
891.665	-34.13
891.836	43.69
892.007	10.92
892.178	41.64
892.349	-40.28
892.52	96.94
892.691	33.45
892.862	-124.24
893.032	17.07
893.203	29.35
893.374	-32.08
893.545	37.55
893.716	-21.85
893.887	96.94
894.057	-36.18
894.228	64.17
894.399	66.22
894.57	-21.85
894.74	51.88
894.911	31.4
895.082	-68.95
895.253	21.16
895.423	-19.8
895.594	64.17
895.764	23.21
895.935	47.79
896.106	37.55
896.276	-66.9
896.447	-1.37
896.617	-50.52
896.788	-52.56
896.958	-38.23
897.129	10.92
897.299	27.31
897.47	-42.32
897.64	33.45
897.81	-36.18
897.981	-9.56
898.151	-56.66
898.322	-11.61
898.492	12.97
898.662	-19.8
898.832	-23.89
899.003	-66.9
899.173	21.16
899.343	-27.99
899.513	-23.89
