Data from USB4F104151__220__14-21-20-988.txt Node

Date: Thu Mar 13 14:21:20 EDT 2025
User: louis
Spectrometer: USB4F10415
Trigger mode: 4
Integration Time (sec): 2.000000E-2
Scans to average: 1
Electric dark correction enabled: true
Nonlinearity correction enabled: false
Boxcar width: 0
XAxis mode: Wavelengths
Number of Pixels in Spectrum: 3648
>>>>>Begin Spectral Data<<<<<
178.204	-44.37
178.424	-44.37
178.644	-44.37
178.864	-81.24
179.084	-64.85
179.304	-50.52
179.524	-15.7
179.744	-42.32
179.964	39.59
180.184	21.16
180.404	12.97
180.624	-7.51
180.844	2.73
181.064	-30.04
181.283	-15.7
181.503	72.36
181.723	12.97
181.943	-58.71
182.163	51.88
182.383	103.08
182.602	68.27
182.822	47.79
183.042	2.73
183.262	-11.61
183.482	-15.7
183.701	90.79
183.921	0.68
184.141	58.03
184.361	25.26
184.58	8.87
184.8	35.5
185.02	-23.89
185.239	29.35
185.459	41.64
185.679	53.93
185.898	68.27
186.118	51.88
186.338	23.21
186.557	74.41
186.777	-1.37
186.997	25.26
187.216	31.4
187.436	94.89
187.655	-5.46
187.875	82.6
188.095	17.07
188.314	119.46
188.534	43.69
188.753	-7.51
188.973	-3.41
189.192	49.83
189.412	51.88
189.631	39.59
189.851	33.45
190.07	25.26
190.29	-15.7
190.509	-3.41
190.729	-36.18
190.948	-30.04
191.168	139.94
191.387	98.99
191.607	10.92
191.826	-5.46
192.045	82.6
192.265	66.22
192.484	31.4
192.704	49.83
192.923	-9.56
193.142	144.04
193.362	68.27
193.581	8.87
193.8	25.26
194.02	4.78
194.239	92.84
194.458	6.83
194.678	49.83
194.897	33.45
195.116	-7.51
195.335	8.87
195.555	-19.8
195.774	53.93
195.993	51.88
196.212	10.92
196.432	-40.28
196.651	84.65
196.87	39.59
197.089	119.46
197.308	103.08
197.528	125.61
197.747	-23.89
197.966	4.78
198.185	166.57
198.404	17.07
198.623	33.45
198.842	55.98
199.062	35.5
199.281	76.46
199.5	98.99
199.719	0.68
199.938	58.03
200.157	35.5
200.376	45.74
200.595	10.92
200.814	68.27
201.033	6.83
201.252	55.98
201.471	51.88
201.69	103.08
201.909	84.65
202.128	82.6
202.347	17.07
202.566	-7.51
202.785	-58.71
203.004	-13.65
203.223	98.99
203.442	23.21
203.661	0.68
203.879	72.36
204.098	58.03
204.317	43.69
204.536	90.79
204.755	64.17
204.974	47.79
205.193	25.26
205.411	41.64
205.63	29.35
205.849	84.65
206.068	115.37
206.287	-11.61
206.505	103.08
206.724	-58.71
206.943	58.03
207.162	90.79
207.381	115.37
207.599	-5.46
207.818	45.74
208.037	90.79
208.255	41.64
208.474	-5.46
208.693	51.88
208.911	66.22
209.13	27.31
209.349	94.89
209.567	51.88
209.786	101.03
210.005	49.83
210.223	49.83
210.442	-15.7
210.661	82.6
210.879	25.26
211.098	17.07
211.316	53.93
211.535	68.27
211.753	43.69
211.972	76.46
212.191	33.45
212.409	53.93
212.628	41.64
212.846	8.87
213.065	51.88
213.283	80.55
213.502	-19.8
213.72	76.46
213.938	-15.7
214.157	23.21
214.375	-11.61
214.594	41.64
214.812	55.98
215.031	-23.89
215.249	58.03
215.467	33.45
215.686	96.94
215.904	33.45
216.122	43.69
216.341	41.64
216.559	4.78
216.778	117.42
216.996	107.18
217.214	49.83
217.432	33.45
217.651	17.07
217.869	58.03
218.087	43.69
218.306	84.65
218.524	-15.7
218.742	27.31
218.96	47.79
219.179	25.26
219.397	82.6
219.615	66.22
219.833	8.87
220.051	-19.8
220.27	29.35
220.488	17.07
220.706	70.31
220.924	10.92
221.142	21.16
221.36	103.08
221.578	49.83
221.796	76.46
222.015	51.88
222.233	10.92
222.451	17.07
222.669	-34.13
222.887	47.79
223.105	8.87
223.323	33.45
223.541	8.87
223.759	86.7
223.977	94.89
224.195	31.4
224.413	-17.75
224.631	25.26
224.849	41.64
225.067	92.84
225.285	37.55
225.503	8.87
225.721	12.97
225.939	-9.56
226.157	17.07
226.375	131.75
226.592	70.31
226.81	33.45
227.028	17.07
227.246	148.14
227.464	-17.75
227.682	41.64
227.9	33.45
228.117	53.93
228.335	68.27
228.553	66.22
228.771	47.79
228.989	25.26
229.206	43.69
229.424	78.51
229.642	-105.81
229.86	0.68
230.077	19.11
230.295	74.41
230.513	-3.41
230.731	101.03
230.948	29.35
231.166	25.26
231.384	39.59
231.601	25.26
231.819	37.55
232.037	41.64
232.254	70.31
232.472	58.03
232.689	12.97
232.907	86.7
233.125	58.03
233.342	-15.7
233.56	111.27
233.777	-3.41
233.995	43.69
234.213	92.84
234.43	23.21
234.648	2.73
234.865	33.45
235.083	107.18
235.3	-5.46
235.518	29.35
235.735	86.7
235.953	37.55
236.17	78.51
236.388	27.31
236.605	43.69
236.822	41.64
237.04	-38.23
237.257	25.26
237.475	33.45
237.692	-32.08
237.909	66.22
238.127	-11.61
238.344	62.12
238.562	58.03
238.779	25.26
238.996	8.87
239.214	41.64
239.431	55.98
239.648	74.41
239.865	17.07
240.083	49.83
240.3	41.64
240.517	51.88
240.735	25.26
240.952	68.27
241.169	76.46
241.386	45.74
241.603	62.12
241.821	8.87
242.038	66.22
242.255	115.37
242.472	17.07
242.689	4.78
242.907	141.99
243.124	68.27
243.341	60.07
243.558	78.51
243.775	41.64
243.992	33.45
244.209	68.27
244.426	51.88
244.643	68.27
244.86	-32.08
245.078	123.56
245.295	43.69
245.512	103.08
245.729	60.07
245.946	72.36
246.163	53.93
246.38	-15.7
246.597	0.68
246.814	51.88
247.031	-50.52
247.248	78.51
247.464	45.74
247.681	98.99
247.898	66.22
248.115	53.93
248.332	25.26
248.549	101.03
248.766	37.55
248.983	12.97
249.2	80.55
249.417	-7.51
249.633	21.16
249.85	17.07
250.067	66.22
250.284	17.07
250.501	35.5
250.717	8.87
250.934	-62.8
251.151	-15.7
251.368	90.79
251.585	21.16
251.801	66.22
252.018	70.31
252.235	70.31
252.451	10.92
252.668	62.12
252.885	158.38
253.102	27.31
253.318	29.35
253.535	115.37
253.752	82.6
253.968	19.11
254.185	60.07
254.401	92.84
254.618	2.73
254.835	0.68
255.051	62.12
255.268	78.51
255.484	115.37
255.701	60.07
255.917	94.89
256.134	2.73
256.351	125.61
256.567	41.64
256.784	-5.46
257	-73.04
257.217	17.07
257.433	86.7
257.65	23.21
257.866	49.83
258.082	41.64
258.299	-11.61
258.515	17.07
258.732	33.45
258.948	90.79
259.165	70.31
259.381	53.93
259.597	82.6
259.814	29.35
260.03	60.07
260.246	39.59
260.463	80.55
260.679	90.79
260.895	49.83
261.112	25.26
261.328	90.79
261.544	29.35
261.761	33.45
261.977	-5.46
262.193	-17.75
262.409	-5.46
262.626	47.79
262.842	35.5
263.058	-1.37
263.274	33.45
263.49	4.78
263.707	33.45
263.923	25.26
264.139	-81.24
264.355	27.31
264.571	107.18
264.787	25.26
265.004	125.61
265.22	15.02
265.436	43.69
265.652	17.07
265.868	-11.61
266.084	45.74
266.3	0.68
266.516	-11.61
266.732	2.73
266.948	90.79
267.164	17.07
267.38	88.75
267.596	107.18
267.812	0.68
268.028	-7.51
268.244	31.4
268.46	19.11
268.676	84.65
268.892	60.07
269.108	21.16
269.324	156.33
269.54	8.87
269.756	164.52
269.972	-15.7
270.188	62.12
270.403	21.16
270.619	0.68
270.835	33.45
271.051	60.07
271.267	-27.99
271.483	25.26
271.698	-27.99
271.914	35.5
272.13	90.79
272.346	25.26
272.562	35.5
272.777	78.51
272.993	25.26
273.209	2.73
273.425	62.12
273.64	49.83
273.856	51.88
274.072	51.88
274.287	101.03
274.503	76.46
274.719	62.12
274.934	37.55
275.15	-52.56
275.366	-13.65
275.581	88.75
275.797	39.59
276.012	43.69
276.228	43.69
276.444	19.11
276.659	92.84
276.875	76.46
277.09	139.94
277.306	-21.85
277.521	-7.51
277.737	51.88
277.952	113.32
278.168	72.36
278.383	27.31
278.599	10.92
278.814	41.64
279.03	68.27
279.245	58.03
279.461	29.35
279.676	101.03
279.892	19.11
280.107	55.98
280.322	105.13
280.538	35.5
280.753	66.22
280.969	84.65
281.184	62.12
281.399	62.12
281.615	6.83
281.83	-5.46
282.045	17.07
282.26	31.4
282.476	125.61
282.691	45.74
282.906	66.22
283.122	21.16
283.337	-11.61
283.552	76.46
283.767	29.35
283.983	68.27
284.198	66.22
284.413	82.6
284.628	0.68
284.843	-21.85
285.058	94.89
285.274	25.26
285.489	10.92
285.704	27.31
285.919	0.68
286.134	37.55
286.349	0.68
286.564	66.22
286.779	17.07
286.995	15.02
287.21	47.79
287.425	41.64
287.64	49.83
287.855	123.56
288.07	8.87
288.285	80.55
288.5	74.41
288.715	33.45
288.93	35.5
289.145	-7.51
289.36	49.83
289.575	25.26
289.79	92.84
290.004	41.64
290.219	68.27
290.434	33.45
290.649	37.55
290.864	21.16
291.079	133.8
291.294	76.46
291.509	2.73
291.724	58.03
291.938	90.79
292.153	123.56
292.368	-40.28
292.583	35.5
292.798	35.5
293.012	49.83
293.227	8.87
293.442	25.26
293.657	107.18
293.871	19.11
294.086	70.31
294.301	107.18
294.516	72.36
294.73	35.5
294.945	76.46
295.16	27.31
295.374	123.56
295.589	125.61
295.804	-32.08
296.018	-38.23
296.233	0.68
296.447	21.16
296.662	2.73
296.877	111.27
297.091	-52.56
297.306	27.31
297.52	37.55
297.735	51.88
297.949	2.73
298.164	53.93
298.378	78.51
298.593	41.64
298.807	33.45
299.022	43.69
299.236	45.74
299.451	66.22
299.665	10.92
299.88	-46.42
300.094	55.98
300.309	72.36
300.523	107.18
300.737	8.87
300.952	58.03
301.166	58.03
301.381	84.65
301.595	-38.23
301.809	6.83
302.024	53.93
302.238	55.98
302.452	60.07
302.667	41.64
302.881	-13.65
303.095	43.69
303.309	88.75
303.524	29.35
303.738	72.36
303.952	-21.85
304.166	74.41
304.381	2.73
304.595	137.9
304.809	68.27
305.023	90.79
305.237	-19.8
305.452	82.6
305.666	117.42
305.88	137.9
306.094	19.11
306.308	58.03
306.522	58.03
306.736	115.37
306.95	90.79
307.164	21.16
307.379	6.83
307.593	51.88
307.807	29.35
308.021	58.03
308.235	-48.47
308.449	45.74
308.663	80.55
308.877	98.99
309.091	51.88
309.305	74.41
309.519	60.07
309.733	90.79
309.947	25.26
310.161	58.03
310.374	66.22
310.588	84.65
310.802	8.87
311.016	19.11
311.23	39.59
311.444	37.55
311.658	39.59
311.872	21.16
312.085	76.46
312.299	64.17
312.513	103.08
312.727	27.31
312.941	4.78
313.154	68.27
313.368	66.22
313.582	-40.28
313.796	33.45
314.009	17.07
314.223	29.35
314.437	92.84
314.651	25.26
314.864	68.27
315.078	82.6
315.292	55.98
315.505	19.11
315.719	111.27
315.933	58.03
316.146	21.16
316.36	-32.08
316.573	90.79
316.787	74.41
317.001	86.7
317.214	98.99
317.428	17.07
317.641	23.21
317.855	49.83
318.068	94.89
318.282	53.93
318.495	133.8
318.709	66.22
318.922	76.46
319.136	74.41
319.349	66.22
319.563	33.45
319.776	-21.85
319.99	90.79
320.203	62.12
320.417	76.46
320.63	90.79
320.843	64.17
321.057	139.94
321.27	86.7
321.483	74.41
321.697	125.61
321.91	53.93
322.124	49.83
322.337	78.51
322.55	64.17
322.763	41.64
322.977	92.84
323.19	51.88
323.403	8.87
323.617	68.27
323.83	17.07
324.043	10.92
324.256	29.35
324.469	4.78
324.683	117.42
324.896	15.02
325.109	131.75
325.322	31.4
325.535	74.41
325.748	92.84
325.962	80.55
326.175	4.78
326.388	68.27
326.601	51.88
326.814	8.87
327.027	51.88
327.24	148.14
327.453	19.11
327.666	82.6
327.879	82.6
328.092	115.37
328.305	12.97
328.518	33.45
328.731	74.41
328.944	103.08
329.157	53.93
329.37	41.64
329.583	125.61
329.796	94.89
330.009	53.93
330.222	55.98
330.435	4.78
330.648	90.79
330.861	43.69
331.073	82.6
331.286	64.17
331.499	17.07
331.712	35.5
331.925	-19.8
332.138	90.79
332.35	49.83
332.563	10.92
332.776	72.36
332.989	94.89
333.202	27.31
333.414	-19.8
333.627	33.45
333.84	21.16
334.053	66.22
334.265	92.84
334.478	0.68
334.691	84.65
334.903	64.17
335.116	43.69
335.329	51.88
335.541	49.83
335.754	58.03
335.966	25.26
336.179	98.99
336.392	86.7
336.604	74.41
336.817	17.07
337.029	92.84
337.242	84.65
337.454	35.5
337.667	53.93
337.88	109.22
338.092	209.58
338.305	70.31
338.517	76.46
338.729	41.64
338.942	82.6
339.154	90.79
339.367	-13.65
339.579	68.27
339.792	45.74
340.004	60.07
340.217	60.07
340.429	62.12
340.641	-13.65
340.854	58.03
341.066	78.51
341.278	78.51
341.491	82.6
341.703	27.31
341.915	94.89
342.128	17.07
342.34	25.26
342.552	45.74
342.764	51.88
342.977	53.93
343.189	113.32
343.401	115.37
343.613	86.7
343.826	8.87
344.038	8.87
344.25	70.31
344.462	17.07
344.674	68.27
344.886	-15.7
345.099	123.56
345.311	33.45
345.523	78.51
345.735	72.36
345.947	90.79
346.159	29.35
346.371	74.41
346.583	12.97
346.795	68.27
347.007	33.45
347.219	101.03
347.431	84.65
347.643	84.65
347.855	27.31
348.067	66.22
348.279	60.07
348.491	35.5
348.703	45.74
348.915	8.87
349.127	68.27
349.339	21.16
349.551	53.93
349.763	144.04
349.975	51.88
350.187	25.26
350.399	84.65
350.61	76.46
350.822	-7.51
351.034	66.22
351.246	10.92
351.458	107.18
351.669	60.07
351.881	92.84
352.093	33.45
352.305	148.14
352.517	62.12
352.728	158.38
352.94	133.8
353.152	92.84
353.363	33.45
353.575	33.45
353.787	0.68
353.999	133.8
354.21	107.18
354.422	53.93
354.633	111.27
354.845	47.79
355.057	80.55
355.268	-7.51
355.48	82.6
355.692	6.83
355.903	43.69
356.115	86.7
356.326	33.45
356.538	60.07
356.749	119.46
356.961	133.8
357.172	19.11
357.384	27.31
357.595	148.14
357.807	-1.37
358.018	47.79
358.23	127.66
358.441	84.65
358.653	33.45
358.864	162.47
359.075	43.69
359.287	-7.51
359.498	35.5
359.709	37.55
359.921	58.03
360.132	94.89
360.344	2.73
360.555	66.22
360.766	37.55
360.977	82.6
361.189	82.6
361.4	0.68
361.611	21.16
361.823	156.33
362.034	117.42
362.245	-3.41
362.456	107.18
362.667	-9.56
362.879	41.64
363.09	78.51
363.301	41.64
363.512	82.6
363.723	62.12
363.935	-38.23
364.146	90.79
364.357	51.88
364.568	58.03
364.779	41.64
364.99	64.17
365.201	-3.41
365.412	45.74
365.623	80.55
365.834	98.99
366.045	4.78
366.256	82.6
366.467	10.92
366.678	19.11
366.889	70.31
367.1	133.8
367.311	51.88
367.522	66.22
367.733	94.89
367.944	107.18
368.155	55.98
368.366	139.94
368.577	74.41
368.788	105.13
368.999	27.31
369.209	68.27
369.42	31.4
369.631	133.8
369.842	115.37
370.053	10.92
370.264	62.12
370.474	141.99
370.685	25.26
370.896	29.35
371.107	107.18
371.317	103.08
371.528	82.6
371.739	133.8
371.95	94.89
372.16	33.45
372.371	86.7
372.582	76.46
372.792	152.23
373.003	55.98
373.214	111.27
373.424	64.17
373.635	41.64
373.846	15.02
374.056	58.03
374.267	53.93
374.477	109.22
374.688	41.64
374.898	55.98
375.109	84.65
375.319	164.52
375.53	84.65
375.74	146.09
375.951	68.27
376.161	94.89
376.372	144.04
376.582	58.03
376.793	92.84
377.003	2.73
377.214	70.31
377.424	72.36
377.635	115.37
377.845	47.79
378.055	98.99
378.266	70.31
378.476	66.22
378.686	41.64
378.897	107.18
379.107	92.84
379.317	58.03
379.528	123.56
379.738	131.75
379.948	-32.08
380.158	127.66
380.369	49.83
380.579	141.99
380.789	10.92
380.999	60.07
381.21	49.83
381.42	146.09
381.63	6.83
381.84	66.22
382.05	60.07
382.261	49.83
382.471	0.68
382.681	55.98
382.891	96.94
383.101	90.79
383.311	2.73
383.521	49.83
383.731	189.1
383.941	105.13
384.151	168.62
384.361	74.41
384.571	70.31
384.781	41.64
384.991	127.66
385.201	144.04
385.411	58.03
385.621	123.56
385.831	17.07
386.041	98.99
386.251	27.31
386.461	154.28
386.671	41.64
386.881	76.46
387.091	72.36
387.301	172.71
387.511	49.83
387.72	62.12
387.93	64.17
388.14	60.07
388.35	172.71
388.56	86.7
388.769	94.89
388.979	103.08
389.189	90.79
389.399	76.46
389.609	68.27
389.818	123.56
390.028	80.55
390.238	107.18
390.447	127.66
390.657	94.89
390.867	25.26
391.076	19.11
391.286	98.99
391.496	88.75
391.705	2.73
391.915	74.41
392.125	70.31
392.334	80.55
392.544	123.56
392.753	58.03
392.963	58.03
393.172	139.94
393.382	76.46
393.591	166.57
393.801	33.45
394.01	103.08
394.22	47.79
394.429	148.14
394.639	86.7
394.848	60.07
395.058	129.7
395.267	141.99
395.477	90.79
395.686	164.52
395.895	72.36
396.105	168.62
396.314	152.23
396.524	98.99
396.733	119.46
396.942	139.94
397.152	195.24
397.361	195.24
397.57	164.52
397.78	45.74
397.989	92.84
398.198	197.29
398.407	115.37
398.617	158.38
398.826	189.1
399.035	150.18
399.244	115.37
399.453	166.57
399.663	160.42
399.872	164.52
400.081	76.46
400.29	164.52
400.499	82.6
400.708	162.47
400.917	182.95
401.127	205.48
401.336	215.72
401.545	225.96
401.754	189.1
401.963	207.53
402.172	144.04
402.381	182.95
402.59	178.86
402.799	166.57
403.008	139.94
403.217	123.56
403.426	141.99
403.635	174.76
403.844	123.56
404.053	111.27
404.262	98.99
404.471	258.73
404.68	187.05
404.888	148.14
405.097	178.86
405.306	172.71
405.515	193.19
405.724	232.1
405.933	271.01
406.142	156.33
406.35	197.29
406.559	201.38
406.768	131.75
406.977	279.21
407.185	258.73
407.394	209.58
407.603	236.2
407.812	207.53
408.02	250.53
408.229	361.13
408.438	322.21
408.646	326.31
408.855	279.21
409.064	385.7
409.272	357.03
409.481	328.36
409.69	322.21
409.898	369.32
410.107	350.89
410.315	426.66
410.524	434.85
410.733	383.65
410.941	381.6
411.15	430.76
411.358	510.63
411.567	524.96
411.775	418.47
411.984	508.58
412.192	574.11
412.401	565.92
412.609	584.35
412.818	576.16
413.026	604.83
413.234	576.16
413.443	647.84
413.651	680.61
413.86	694.94
414.068	766.62
414.276	744.1
414.485	780.96
414.693	811.68
414.901	795.29
415.11	873.12
415.318	950.94
415.526	869.02
415.734	979.61
415.943	852.64
416.151	1010.33
416.359	971.42
416.567	1077.91
416.776	1014.43
416.984	1200.79
417.192	1204.89
417.4	1196.7
417.608	1153.69
417.817	1254.04
418.025	1340.05
418.233	1446.55
418.441	1329.81
418.649	1415.83
418.857	1577.62
419.065	1546.9
419.273	1614.48
419.481	1548.95
419.689	1729.17
419.897	1827.47
420.105	1821.33
420.313	1890.96
420.521	2028.17
420.729	2036.36
420.937	1970.83
421.145	2099.85
421.353	2286.22
421.561	2298.5
421.769	2419.33
421.977	2458.25
422.185	2499.2
422.393	2683.52
422.601	2761.34
422.809	2720.39
423.017	2781.82
423.224	2837.12
423.432	3003
423.64	3070.59
423.848	3261.05
424.056	3158.65
424.263	3412.6
424.471	3492.47
424.679	3564.15
424.887	3822.19
425.094	3920.49
425.302	3826.29
425.51	4055.66
425.718	3959.41
425.925	4123.24
426.133	4303.47
426.341	4596.32
426.548	4663.91
426.756	4754.02
426.964	4788.83
427.171	5128.8
427.379	5139.04
427.586	5247.58
427.794	5450.33
428.001	5735
428.209	5882.45
428.417	5749.33
428.624	6148.68
428.832	6091.34
429.039	6251.08
429.247	6185.55
429.454	6679.11
429.662	7156.29
429.869	6695.49
430.076	7127.61
430.284	7123.52
430.491	7365.18
430.699	7696.95
430.906	7815.73
431.114	7922.23
431.321	7995.95
431.528	8401.45
431.736	8727.08
431.943	9136.67
432.15	8868.39
432.358	9028.13
432.565	9468.44
432.772	9587.22
432.979	9861.65
433.187	10068.5
433.394	10349.07
433.601	10865.16
433.808	10955.27
434.016	10850.82
434.223	11293.18
434.43	11839.99
434.637	11788.79
434.844	12724.71
435.052	12485.1
435.259	12677.61
435.466	12804.58
435.673	12567.02
435.88	13541.85
436.087	14105.04
436.294	14010.84
436.501	13898.2
436.708	14143.95
436.915	14498.25
437.122	15354.3
437.329	15088.07
437.537	15598.01
437.743	15983.03
437.95	15534.53
438.157	16634.28
438.364	17142.18
438.571	17203.62
438.778	17068.45
438.985	18864.52
439.192	17795.48
439.399	18530.7
439.606	18131.35
439.813	19292.55
440.02	20408.69
440.227	20138.36
440.433	19644.8
440.64	20568.43
440.847	20369.78
441.054	20793.71
441.261	22167.9
441.467	22020.44
441.674	22270.29
441.881	22722.9
442.088	22937.93
442.294	22962.51
442.501	23478.6
442.708	23998.78
442.914	25000.24
443.121	25952.54
443.328	24949.04
443.534	27150.6
443.741	26040.61
443.948	25751.84
444.154	27535.62
444.361	27599.11
444.568	27883.78
444.774	27721.99
444.981	27658.5
445.187	28780.79
445.394	30011.62
445.6	29692.13
445.807	32395.45
446.013	30793.94
446.22	31754.44
446.426	32663.74
446.633	33257.65
446.839	34263.2
447.046	32827.57
447.252	34429.09
447.459	34723.99
447.665	34592.92
447.871	35715.21
448.078	37453.94
448.284	35870.86
448.491	36886.65
448.697	38060.13
448.903	38479.97
449.11	39041.11
449.316	38250.6
449.522	38848.6
449.728	39807.05
449.935	39981.13
450.141	39936.07
450.347	41474.1
450.553	39848.01
450.76	40136.77
450.966	41730.09
451.172	41363.51
451.378	42082.34
451.584	41592.88
451.791	42237.99
451.997	42274.85
452.203	42879
452.409	42698.78
452.615	42706.97
452.821	40984.63
453.027	40392.77
453.233	43276.31
453.44	41314.36
453.646	41467.95
453.852	42121.26
454.058	42504.23
454.264	41218.1
454.47	42119.21
454.676	41068.6
454.882	42790.94
455.088	38946.9
455.294	39391.31
455.5	40271.94
455.705	40595.52
455.911	38643.81
456.117	38197.35
456.323	37787.75
456.529	35565.71
456.735	37136.5
456.941	36444.29
457.147	35735.69
457.352	34949.27
457.558	34289.82
457.764	34447.52
457.97	33700.01
458.176	33185.97
458.381	33169.58
458.587	31279.31
458.793	31459.53
458.999	29974.75
459.204	31660.23
459.41	30646.49
459.616	28889.33
459.821	29229.29
460.027	29108.46
460.233	28477.69
460.438	27283.72
460.644	27578.63
460.85	26388.76
461.055	25760.03
461.261	25631.01
461.466	24006.97
461.672	23216.46
461.878	24654.13
462.083	23210.31
462.289	22712.66
462.494	22661.46
462.7	21449.06
462.905	20793.71
463.111	21723.49
463.316	21766.49
463.522	21303.65
463.727	21270.89
463.932	21295.46
464.138	21082.47
464.343	21139.82
464.549	20590.96
464.754	21121.38
464.959	21076.33
465.165	20988.27
465.37	19661.18
465.575	19466.63
465.781	20214.13
465.986	20416.88
466.191	19415.43
466.397	19208.58
466.602	18131.35
466.807	19052.94
467.012	19069.32
467.218	18993.54
467.423	18682.25
467.628	18925.96
467.833	19659.13
468.038	18819.47
468.244	18356.63
468.449	18829.71
468.654	18250.13
468.859	18313.62
469.064	18112.92
469.269	17543.58
469.474	17893.79
469.679	18166.17
469.885	17471.9
470.09	17891.74
470.295	17445.28
470.5	17199.52
470.705	17480.1
470.91	17078.69
471.115	16710.06
471.32	16978.34
471.525	16671.15
471.73	16505.26
471.935	16038.33
472.139	15978.93
472.344	15976.89
472.549	15907.26
472.754	15802.81
472.959	15307.2
473.164	15047.11
473.369	14948.81
473.574	15475.13
473.778	15403.46
473.983	15149.51
474.188	15040.97
474.393	14422.48
474.598	14449.1
474.802	14442.96
475.007	14193.11
475.212	14219.73
475.417	13793.75
475.621	13912.53
475.826	13937.11
476.031	13611.48
476.235	13339.1
476.44	13548
476.645	13316.58
476.849	13427.17
477.054	13140.45
477.259	12702.18
477.463	13103.59
477.668	12810.73
477.872	12861.93
478.077	12464.62
478.282	12362.22
478.486	12317.17
478.691	12134.9
478.895	12042.74
479.1	12190.19
479.304	12124.66
479.509	11905.52
479.713	12007.92
479.918	11637.24
480.122	11383.29
480.326	11463.16
480.531	11784.69
480.735	11407.87
480.94	11567.61
481.144	11600.38
481.348	11223.55
481.553	11231.74
481.757	10990.08
481.961	11442.68
482.166	11387.39
482.37	11215.36
482.574	11045.38
482.778	11158.02
482.983	11395.58
483.187	11168.26
483.391	11198.98
483.595	11217.41
483.8	10836.49
484.004	11162.11
484.208	11176.45
484.412	11119.1
484.616	11297.28
484.821	11080.19
485.025	10938.88
485.229	11219.46
485.433	11092.48
485.637	11203.07
485.841	10912.26
486.045	11151.87
486.249	11141.63
486.453	11123.2
486.657	11155.97
486.861	11043.33
487.065	10871.3
487.269	11072
487.473	10945.03
487.677	11239.94
487.881	11129.34
488.085	10965.51
488.289	11293.18
488.493	11123.2
488.697	11350.53
488.901	11041.28
489.105	10893.83
489.309	11362.81
489.512	11307.52
489.716	11401.72
489.92	11119.1
490.124	11336.19
490.328	11416.06
490.531	11360.77
490.735	11483.64
490.939	11436.54
491.143	11446.78
491.346	11446.78
491.55	11692.54
491.754	11692.54
491.958	11737.59
492.161	11725.3
492.365	12001.78
492.569	11708.92
492.772	11842.04
492.976	11987.44
493.18	11684.34
493.383	12235.25
493.587	12085.75
493.79	12407.28
493.994	11991.54
494.197	12241.39
494.401	12509.68
494.605	12333.55
494.808	12681.71
495.012	12589.55
495.215	12575.21
495.419	12546.54
495.622	12638.7
495.825	12708.33
496.029	13050.34
496.232	13281.76
496.436	13142.5
496.639	13464.03
496.843	13277.66
497.046	13812.18
497.249	13713.88
497.453	13572.57
497.656	14057.94
497.859	14092.76
498.063	14387.66
498.266	14539.21
498.469	14537.16
498.673	14657.99
498.876	14756.3
499.079	15124.93
499.282	14823.88
499.485	15436.22
499.689	15215.04
499.892	15671.74
500.095	15444.42
500.298	15929.78
500.501	15825.34
500.705	16314.8
500.908	16495.02
501.111	16564.65
501.314	16718.25
501.517	16951.72
501.72	17090.98
501.923	17056.17
502.126	17611.17
502.329	17633.69
502.532	17885.59
502.735	17734.04
502.938	18145.69
503.141	18108.82
503.344	18641.29
503.547	18708.88
503.75	18852.24
503.953	19272.07
504.156	19296.64
504.359	19388.8
504.562	19448.19
504.765	20033.91
504.968	20195.7
505.17	20459.89
505.373	20443.51
505.576	20506.99
505.779	20926.83
505.982	20990.31
506.185	21664.1
506.387	21365.09
506.59	21911.9
506.793	22370.65
506.996	22200.66
507.198	22901.07
507.401	22419.8
507.604	22950.22
507.807	23445.83
508.009	23400.77
508.212	23605.57
508.415	23935.29
508.617	24314.17
508.82	24514.87
509.022	24334.65
509.225	24852.78
509.428	25094.44
509.63	25567.52
509.833	25428.26
510.035	25774.37
510.238	25989.41
510.44	26143
510.643	26263.83
510.845	26542.36
511.048	26861.84
511.25	27076.88
511.453	26706.2
511.655	28219.64
511.858	28016.9
512.06	28094.72
512.262	28410.11
512.465	28412.15
512.667	28637.43
512.87	29614.31
513.072	29450.47
513.274	29632.74
513.477	29833.44
513.679	30140.64
513.881	30445.79
514.084	30728.41
514.286	30916.82
514.488	31211.73
514.69	31781.06
514.893	31899.84
515.095	32098.5
515.297	32362.68
515.499	32200.9
515.701	32778.42
515.904	33073.33
516.106	33175.73
516.308	33667.24
516.51	34099.36
516.712	34349.21
516.914	34619.55
517.116	34861.21
517.318	34865.3
517.52	35211.41
517.722	35584.14
517.925	35680.39
518.127	36356.22
518.329	36096.13
518.531	35987.59
518.733	37070.96
518.935	37097.59
519.136	37384.3
519.338	37642.35
519.54	37927.02
519.742	38115.43
519.944	38563.93
520.146	38809.69
520.348	39047.25
520.55	39131.22
520.752	39360.59
520.954	40464.45
521.155	40073.29
521.357	40190.02
521.559	40736.83
521.761	41060.41
521.963	41064.5
522.164	41539.63
522.366	41330.74
522.568	42070.06
522.77	42207.27
522.971	42815.52
523.173	42563.62
523.375	42987.55
523.576	42764.32
523.778	42815.52
523.98	43454.48
524.181	43659.28
524.383	43696.14
524.584	44273.67
524.786	43892.75
524.988	44113.93
525.189	44652.55
525.391	44955.64
525.592	44775.42
525.794	45551.6
525.995	45324.28
526.197	45238.26
526.398	45295.61
526.6	45619.19
526.801	45959.15
527.003	46071.79
527.204	46309.35
527.406	46546.92
527.607	46501.86
527.808	46692.32
528.01	45684.72
528.211	46548.96
528.412	47396.82
528.614	47020
528.815	46761.95
529.016	47339.48
529.218	47114.2
529.419	47425.49
529.62	47271.9
529.822	47417.3
530.023	47228.89
530.224	47632.34
530.425	47917.01
530.626	47269.85
530.828	47355.86
531.029	48355.27
531.23	47634.39
531.431	47773.65
531.632	48109.52
531.833	48293.83
532.035	47896.53
532.236	48115.66
532.437	48429
532.638	48000.97
532.839	48332.75
533.04	48521.16
533.241	48025.55
533.442	49240
533.643	48490.44
533.844	48666.56
534.045	48408.52
534.246	48383.94
534.447	48687.04
534.648	48240.59
534.849	49008.57
535.05	48295.88
535.251	48250.83
535.451	48222.15
535.652	48852.93
535.853	48545.73
536.054	48283.59
536.255	48451.53
536.456	48617.41
536.657	48936.9
536.857	48424.9
537.058	48289.74
537.259	48811.97
537.46	48502.73
537.66	48502.73
537.861	48410.57
538.062	48035.79
538.263	48803.78
538.463	48218.06
538.664	48455.62
538.865	48689.09
539.065	49092.54
539.266	48547.78
539.466	48885.7
539.667	48379.85
539.868	48863.17
540.068	48396.23
540.269	48539.59
540.469	48678.85
540.67	48023.5
540.87	48621.51
541.071	48578.5
541.271	48388.04
541.472	48263.11
541.672	48295.88
541.873	48373.7
542.073	47935.44
542.274	48359.37
542.474	48570.31
542.675	47984.59
542.875	48773.06
543.075	48142.28
543.276	47871.95
543.476	48625.6
543.676	47880.14
543.877	48422.86
544.077	48506.82
544.277	48148.43
544.478	48385.99
544.678	48078.8
544.878	48207.82
545.078	48132.04
545.279	47962.06
545.479	47953.87
545.679	48433.1
545.879	48439.24
546.079	48170.96
546.28	47806.42
546.48	47888.34
546.68	48213.96
546.88	48316.36
547.08	48402.38
547.28	47943.63
547.48	47515.61
547.68	47886.29
547.88	47982.54
548.081	48324.55
548.281	47906.77
548.481	47712.21
548.681	48201.68
548.881	47812.56
549.081	48050.13
549.28	47712.21
549.48	48148.43
549.68	47650.77
549.88	48093.13
550.08	47638.48
550.28	48230.35
550.48	47986.64
550.68	47849.42
550.88	47456.21
551.08	47765.46
551.279	47767.51
551.479	46940.13
551.679	47570.9
551.879	47357.91
552.079	48351.18
552.278	47394.78
552.478	47548.37
552.678	47771.6
552.878	47902.67
553.077	47845.33
553.277	47134.68
553.477	47955.92
553.676	47306.71
553.876	47708.11
554.076	47378.39
554.275	47362.01
554.475	46985.18
554.674	47228.89
554.874	47611.86
555.074	46915.55
555.273	47609.81
555.473	47632.34
555.672	46802.91
555.872	46905.31
556.071	47237.08
556.271	47435.73
556.47	46786.53
556.67	46284.78
556.869	46542.82
557.068	46954.46
557.268	46692.32
557.467	46999.52
557.667	46594.02
557.866	47009.76
558.065	46649.31
558.265	46481.38
558.464	46378.98
558.663	46950.37
558.863	46012.4
559.062	47124.44
559.261	46075.88
559.461	46890.98
559.66	46075.88
559.859	46221.29
560.058	45830.13
560.258	46061.55
560.457	45834.22
560.656	46241.77
560.855	46008.3
561.054	46376.93
561.253	46139.37
561.453	45953.01
561.652	45946.86
561.851	45746.16
562.05	45740.02
562.249	45221.88
562.448	45801.46
562.647	45856.75
562.846	45711.35
563.045	45432.82
563.244	45129.72
563.443	45592.56
563.642	45084.67
563.841	45135.87
564.04	45058.04
564.239	45285.37
564.438	44615.68
564.637	45043.71
564.836	45164.54
565.035	44619.78
565.234	45008.89
565.432	44498.95
565.631	44126.22
565.83	45084.67
566.029	44568.58
566.228	43970.57
566.427	44331.01
566.625	44222.47
566.824	43712.53
567.023	43886.6
567.222	43624.46
567.42	43905.04
567.619	44369.93
567.818	44042.25
568.016	43968.52
568.215	44044.3
568.414	43571.22
568.612	44007.44
568.811	43644.94
569.01	43542.55
569.208	43016.22
569.407	43276.31
569.605	42893.34
569.804	43450.39
570.002	42917.92
570.201	42932.25
570.4	42713.12
570.598	42721.31
570.797	42768.41
570.995	42758.17
571.193	42266.66
571.392	42727.45
571.59	42487.84
571.789	42274.85
571.987	42111.02
572.186	42278.95
572.384	42096.68
572.582	41750.57
572.781	42012.71
572.979	41551.92
573.177	41791.53
573.376	42256.42
573.574	41277.49
573.772	42039.34
573.971	41508.91
574.169	41478.19
574.367	41062.46
574.565	41406.51
574.763	40927.29
574.962	40970.3
575.16	40263.75
575.358	40730.69
575.556	40317
575.754	41056.31
575.952	40421.44
576.151	40652.86
576.349	40194.12
576.547	40155.21
576.745	40226.88
576.943	40431.68
577.141	40056.9
577.339	39960.65
577.537	39520.34
577.735	39850.06
577.933	39278.68
578.131	39370.83
578.329	39692.36
578.527	39272.53
578.725	39245.91
578.923	39782.48
579.121	39155.8
579.319	39219.28
579.516	39293.01
579.714	39233.62
579.912	38815.83
580.11	38621.28
580.308	38803.55
580.506	38686.81
580.704	38289.51
580.901	38553.69
581.099	38529.12
581.297	37959.78
581.495	38131.81
581.692	38396
581.89	38142.05
582.088	38482.02
582.285	37853.29
582.483	37933.16
582.681	37628.01
582.878	37484.65
583.076	37060.73
583.274	37585.01
583.471	37169.27
583.669	37185.65
583.866	36841.59
584.064	37331.06
584.262	36497.53
584.459	36837.5
584.657	36726.91
584.854	36950.13
585.052	36133
585.249	36583.55
585.447	36753.53
585.644	36167.81
585.841	36391.04
586.039	36796.54
586.236	35848.33
586.434	35711.11
586.631	35827.85
586.828	35905.67
587.026	36053.12
587.223	35670.15
587.42	35448.97
587.618	35643.53
587.815	34994.32
588.012	35387.53
588.21	35240.08
588.407	35434.64
588.604	35465.36
588.801	34822.3
588.999	34584.73
589.196	34472.09
589.393	35090.58
589.59	34291.87
589.787	34326.69
589.984	34326.69
590.182	33847.46
590.379	34076.83
590.576	34019.49
590.773	34343.07
590.97	34099.36
591.167	34095.27
591.364	33413.29
591.561	33740.97
591.758	33435.82
591.955	33652.91
592.152	33718.44
592.349	33157.3
592.546	33423.53
592.743	33396.91
592.94	33005.75
593.137	32725.18
593.334	32831.67
593.531	32610.49
593.727	32823.48
593.924	32684.22
594.121	32223.42
594.318	32442.56
594.515	32053.44
594.712	32336.06
594.908	32301.25
595.105	32159.94
595.302	32020.67
595.499	32325.82
595.696	31637.7
595.892	31500.49
596.089	31600.84
596.286	31729.86
596.482	31537.35
596.679	31207.63
596.876	31260.88
597.072	30957.78
597.269	31408.33
597.466	30531.8
597.662	30787.8
597.859	30865.62
598.055	30818.52
598.252	30834.9
598.448	30628.06
598.645	30216.41
598.841	30316.76
599.038	30453.98
599.234	30197.98
599.431	29884.64
599.627	30071.01
599.824	30456.03
600.02	29602.02
600.217	29849.83
600.413	29708.52
600.609	29378.79
600.806	29653.22
601.002	29335.79
601.198	29399.27
601.395	28926.19
601.591	29174
601.787	29108.46
601.984	28883.19
602.18	29085.93
602.376	28819.7
602.572	28848.37
602.769	29012.21
602.965	28678.39
603.161	28956.91
603.357	28383.48
603.553	28338.43
603.75	28367.1
603.946	28268.8
604.142	27980.03
604.338	27699.46
604.534	28090.62
604.73	27549.96
604.926	27791.62
605.122	27730.18
605.318	27816.19
605.514	27279.63
605.71	27543.81
605.906	27451.66
606.102	27709.7
606.298	27699.46
606.494	27304.2
606.69	27377.93
606.886	27412.74
607.082	26775.83
607.278	27367.69
607.474	26480.92
607.67	26945.81
607.866	26568.98
608.062	27185.42
608.257	27011.34
608.453	27113.74
608.649	26454.29
608.845	26515.73
609.041	26464.53
609.236	26511.64
609.432	26272.03
609.628	26704.15
609.824	25917.73
610.019	25852.19
610.215	26147.1
610.411	26351.9
610.606	25887.01
610.802	26020.13
610.998	26224.92
611.193	26095.9
611.389	25659.68
611.584	25882.91
611.78	25542.95
611.976	26085.66
612.171	25739.55
612.367	25659.68
612.562	25469.22
612.758	25289
612.953	25379.11
613.149	25469.22
613.344	25157.93
613.539	25602.34
613.735	25377.06
613.93	25219.37
614.126	25053.48
614.321	25194.79
614.517	25325.86
614.712	25059.63
614.907	25112.88
615.103	25104.68
615.298	24772.91
615.493	25170.22
615.688	24729.91
615.884	25090.35
616.079	24609.08
616.274	25030.96
616.47	24557.88
616.665	24803.63
616.86	24619.31
617.055	24242.49
617.25	24670.51
617.445	24492.34
617.641	23871.81
617.836	24387.89
618.031	24324.41
618.226	24097.08
618.421	24013.12
618.616	24422.71
618.811	23726.4
619.006	24041.79
619.201	23568.71
619.396	23599.43
619.591	23243.08
619.786	23800.13
619.981	23171.4
620.176	23490.88
620.371	23159.11
620.566	22960.46
620.761	22993.23
620.956	23112.01
621.151	22692.18
621.346	22960.46
621.541	22481.24
621.735	22913.36
621.93	22409.56
622.125	22495.57
622.32	22061.4
622.515	22075.74
622.709	21971.29
622.904	22053.21
623.099	21799.26
623.294	21821.79
623.488	21717.34
623.683	21457.25
623.878	21061.99
624.072	21391.72
624.267	21610.85
624.462	21246.31
624.656	20926.83
624.851	20947.31
625.046	20879.72
625.24	20590.96
625.435	20357.49
625.629	20463.99
625.824	20517.23
626.018	20142.46
626.213	19644.8
626.407	20074.87
626.602	19497.35
626.796	19700.09
626.991	19644.8
627.185	19489.15
627.38	19341.7
627.574	19462.53
627.768	19169.67
627.963	19143.05
628.157	18940.3
628.352	19034.5
628.546	18620.81
628.74	18897.29
628.935	18659.73
629.129	18778.51
629.323	18213.27
629.517	18268.56
629.712	18506.13
629.906	18233.75
630.1	17928.6
630.294	18147.73
630.489	17867.16
630.683	18090.39
630.877	17815.96
631.071	17568.16
631.265	17684.89
631.459	17273.25
631.653	17525.15
631.848	17375.65
632.042	17209.76
632.236	17136.04
632.43	16851.37
632.624	16824.75
632.818	16912.81
633.012	16589.23
633.206	16716.2
633.4	16736.68
633.594	16331.19
633.788	16490.93
633.982	16331.19
634.176	16169.4
634.369	16249.27
634.563	16044.47
634.757	16226.74
634.951	16226.74
635.145	15968.69
635.339	15651.26
635.533	15688.12
635.726	15608.25
635.92	15493.57
636.114	15530.43
636.308	15512
636.501	15348.16
636.695	15389.12
636.889	15233.47
637.083	15223.23
637.276	14860.74
637.47	15161.8
637.664	14600.65
637.857	15086.02
638.051	14836.17
638.244	14715.34
638.438	14500.3
638.632	14533.07
638.825	14344.66
639.019	14215.63
639.212	14156.24
639.406	14201.3
639.599	14268.88
639.793	14098.9
639.986	13795.8
640.18	13814.23
640.373	13814.23
640.567	13529.56
640.76	13771.22
640.954	13568.48
641.147	13488.6
641.34	13470.17
641.534	13269.47
641.727	13324.77
641.92	13345.25
642.114	13140.45
642.307	13083.11
642.5	12933.61
642.694	12730.86
642.887	12820.97
643.08	12782.06
643.273	12904.93
643.467	12755.43
643.66	12564.97
643.853	12468.72
644.046	12614.12
644.239	12595.69
644.432	12448.24
644.626	12374.51
644.819	12182
645.012	12229.1
645.205	12313.07
645.398	12214.77
645.591	12104.18
645.784	11764.22
645.977	12136.95
646.17	11774.45
646.363	11698.68
646.556	11536.89
646.749	11702.78
646.942	11602.43
647.135	11463.16
647.328	11506.17
647.521	11332.09
647.714	11088.39
647.907	11250.17
648.099	11143.68
648.292	11350.53
648.485	11061.76
648.678	10947.08
648.871	11080.19
649.064	10840.58
649.256	10719.75
649.449	10652.17
649.642	10646.02
649.835	10633.74
650.027	10633.74
650.22	10291.73
650.413	10301.97
650.605	10428.94
650.798	10226.19
650.991	10312.21
651.183	10316.3
651.376	10125.84
651.568	10160.66
651.761	10002.96
651.954	10177.04
652.146	10232.33
652.339	10043.92
652.531	9847.32
652.724	9962
652.916	9587.22
653.109	9820.69
653.301	9656.86
653.494	9435.67
653.686	9380.38
653.879	9667.1
654.071	9593.37
654.263	9480.73
654.456	9482.78
654.648	9437.72
654.84	9237.02
655.033	9208.35
655.225	9257.5
655.417	9144.86
655.61	9132.58
655.802	9138.72
655.994	9089.57
656.186	8983.07
656.379	8974.88
656.571	8927.78
656.763	8725.03
656.955	8854.05
657.148	8677.93
657.34	8798.76
657.532	8600.1
657.724	8604.2
657.916	8585.77
658.108	8520.23
658.3	8516.14
658.492	8421.93
658.684	8241.71
658.876	8366.64
659.068	8127.02
659.26	8317.48
659.452	8278.57
659.644	8114.73
659.836	8061.49
660.028	8174.13
660.22	7916.08
660.412	8155.69
660.604	7940.66
660.796	8088.11
660.988	7752.24
661.18	7707.19
661.372	7881.27
661.563	7957.04
661.755	7778.87
661.947	7768.63
662.139	7629.37
662.331	7719.48
662.522	7531.06
662.714	7539.26
662.906	7359.03
663.097	7424.57
663.289	7432.76
663.481	7295.55
663.673	7373.37
663.864	7250.49
664.056	7283.26
664.247	7328.31
664.439	7184.96
664.631	7205.44
664.822	6988.35
665.014	7094.85
665.205	7164.48
665.397	6922.82
665.588	7037.5
665.78	6857.28
665.971	7023.17
666.163	6963.78
666.354	6754.88
666.546	6832.71
666.737	6709.83
666.929	6722.12
667.12	6513.22
667.311	6632.01
667.503	6556.23
667.694	6636.1
667.885	6541.89
668.077	6644.29
668.268	6416.97
668.459	6480.46
668.651	6455.88
668.842	6400.59
669.033	6179.4
669.224	6320.71
669.416	6218.32
669.607	6259.28
669.798	6144.59
669.989	6283.85
670.18	6261.32
670.371	6077.01
670.563	6060.62
670.754	6126.16
670.945	5911.12
671.136	6058.57
671.327	5913.17
671.518	6009.42
671.709	6003.28
671.9	6056.53
672.091	5864.02
672.282	5753.43
672.473	5825.11
672.664	5915.22
672.855	5765.71
673.046	5808.72
673.237	5761.62
673.428	5923.41
673.619	5851.73
673.809	5726.8
674	5835.35
674.191	5677.65
674.382	5597.78
674.573	5603.93
674.764	5818.96
674.954	5548.63
675.145	5444.18
675.336	5399.13
675.527	5542.49
675.717	5597.78
675.908	5362.26
676.099	5370.46
676.289	5497.43
676.48	5319.26
676.671	5456.47
676.861	5448.28
677.052	5139.04
677.243	5182.04
677.433	5352.02
677.624	5259.87
677.814	5001.82
678.005	5104.22
678.195	5147.23
678.386	5116.51
678.576	5184.09
678.767	5046.88
678.957	5112.41
679.148	5079.65
679.338	4981.34
679.529	5106.27
679.719	4887.14
679.909	5120.6
680.1	5005.92
680.29	4825.7
680.481	4885.09
680.671	4956.77
680.861	4919.9
681.052	4993.63
681.242	4880.99
681.432	4852.32
681.622	4932.19
681.813	4854.37
682.003	4813.41
682.193	4809.31
682.383	4940.38
682.573	4792.93
682.764	4915.81
682.954	4772.45
683.144	4772.45
683.334	4751.97
683.524	4567.65
683.714	4702.82
683.904	4649.57
684.094	4680.29
684.284	4649.57
684.474	4538.98
684.664	4516.45
684.854	4479.59
685.044	4491.88
685.234	4610.66
685.424	4424.3
685.614	4573.8
685.804	4448.87
685.994	4428.39
686.184	4379.24
686.374	4301.42
686.564	4262.51
686.753	4342.38
686.943	4231.79
687.133	4225.64
687.323	4192.87
687.513	4328.04
687.702	4282.99
687.892	4137.58
688.082	4227.69
688.272	4229.74
688.461	4219.5
688.651	4268.65
688.841	4024.94
689.03	4096.62
689.22	4141.68
689.41	3996.27
689.599	4016.75
689.789	4147.82
689.979	4000.37
690.168	3916.4
690.358	3940.97
690.547	4045.42
690.737	3938.93
690.926	4063.85
691.116	3881.58
691.305	4049.52
691.495	3781.23
691.684	3902.06
691.874	3644.02
692.063	3746.42
692.252	3820.14
692.442	3836.53
692.631	3715.7
692.82	3687.03
693.01	3662.45
693.199	3779.19
693.388	3584.63
693.578	3695.22
693.767	3715.7
693.956	3676.79
694.146	3656.31
694.335	3527.28
694.524	3564.15
694.713	3639.92
694.902	3512.95
695.092	3512.95
695.281	3519.09
695.47	3469.94
695.659	3451.51
695.848	3648.11
696.037	3476.09
696.226	3572.34
696.415	3449.46
696.604	3529.33
696.793	3293.82
696.982	3478.13
697.171	3459.7
697.36	3424.89
697.549	3359.35
697.738	3396.21
697.927	3435.13
698.116	3383.93
698.305	3476.09
698.494	3228.28
698.683	3375.74
698.872	3332.73
699.061	3322.49
699.25	3383.93
699.438	3283.58
699.627	3269.24
699.816	3320.44
700.005	3310.2
700.193	3269.24
700.382	3283.58
700.571	3314.3
700.76	3256.95
700.948	3396.21
701.137	3156.6
701.326	3273.34
701.514	3326.58
701.703	3189.37
701.892	3093.12
702.08	3242.62
702.269	3261.05
702.457	2978.43
702.646	3095.16
702.834	2974.33
703.023	3156.6
703.212	3189.37
703.4	3281.53
703.589	3146.36
703.777	3099.26
703.965	3072.64
704.154	3187.32
704.342	3031.68
704.531	3134.07
704.719	2978.43
704.907	3052.16
705.096	3101.31
705.284	2947.71
705.472	3056.25
705.661	3056.25
705.849	3119.74
706.037	3076.73
706.226	2978.43
706.414	2916.99
706.602	3039.87
706.79	3003
706.979	3099.26
707.167	2941.57
707.355	2919.04
707.543	2992.77
707.731	2935.42
707.919	2982.53
708.107	2931.33
708.296	2951.81
708.484	2953.85
708.672	2953.85
708.86	2984.57
709.048	2747.01
709.236	2816.64
709.424	2871.93
709.612	2826.88
709.8	2796.16
709.988	2830.98
710.176	2716.29
710.364	2941.57
710.551	2841.22
710.739	2738.82
710.927	2771.58
711.115	2880.13
711.303	2828.93
711.491	2835.07
711.679	2835.07
711.866	2663.04
712.054	2845.31
712.242	2753.15
712.43	2873.98
712.617	2738.82
712.805	2830.98
712.993	2687.62
713.181	2730.62
713.368	2693.76
713.556	2665.09
713.744	2824.83
713.931	2777.73
714.119	2673.28
714.306	2708.1
714.494	2765.44
714.682	2634.37
714.869	2622.08
715.057	2744.96
715.244	2699.91
715.432	2706.05
715.619	2665.09
715.807	2654.85
715.994	2689.67
716.182	2656.9
716.369	2687.62
716.556	2501.25
716.744	2663.04
716.931	2525.83
717.119	2720.39
717.306	2611.84
717.493	2597.51
717.681	2511.49
717.868	2589.32
718.055	2550.4
718.242	2646.66
718.43	2546.31
718.617	2663.04
718.804	2566.79
718.991	2552.45
719.179	2607.75
719.366	2531.97
719.553	2474.63
719.74	2534.02
719.927	2523.78
720.114	2402.95
720.301	2552.45
720.488	2517.64
720.676	2589.32
720.863	2642.56
721.05	2589.32
721.237	2536.07
721.424	2411.14
721.611	2507.4
721.798	2474.63
721.985	2392.71
722.172	2476.68
722.358	2466.44
722.545	2488.96
722.732	2392.71
722.919	2538.12
723.106	2361.99
723.293	2327.18
723.48	2282.12
723.667	2491.01
723.853	2402.95
724.04	2376.33
724.227	2466.44
724.414	2335.37
724.6	2431.62
724.787	2411.14
724.974	2425.48
725.161	2359.94
725.347	2386.57
725.534	2306.7
725.72	2304.65
725.907	2337.41
726.094	2304.65
726.28	2353.8
726.467	2310.79
726.653	2327.18
726.84	2380.42
727.027	2355.85
727.213	2347.65
727.4	2290.31
727.586	2394.76
727.773	2278.02
727.959	2343.56
728.145	2337.41
728.332	2327.18
728.518	2247.3
728.705	2312.84
728.891	2192.01
729.077	2359.94
729.264	2202.25
729.45	2187.91
729.636	2359.94
729.823	2294.41
730.009	2294.41
730.195	2222.73
730.382	2359.94
730.568	2204.3
730.754	2304.65
730.94	2245.26
731.126	2165.39
731.313	2245.26
731.499	2333.32
731.685	2253.45
731.871	2239.11
732.057	2302.6
732.243	2282.12
732.429	2136.71
732.615	2273.93
732.801	2097.8
732.987	2179.72
733.173	2128.52
733.359	2261.64
733.545	2163.34
733.731	2175.63
733.917	2146.95
734.103	2187.91
734.289	2245.26
734.475	2237.06
734.661	2212.49
734.847	2155.15
735.033	2124.43
735.219	2208.39
735.404	2052.75
735.59	2208.39
735.776	2157.19
735.962	2075.27
736.148	2093.71
736.333	2065.04
736.519	2130.57
736.705	2044.56
736.89	2122.38
737.076	2163.34
737.262	2085.51
737.447	2075.27
737.633	2130.57
737.819	2062.99
738.004	2015.88
738.19	2040.46
738.375	2052.75
738.561	1968.78
738.747	2024.08
738.932	2007.69
739.118	2071.18
739.303	1968.78
739.489	2108.04
739.674	1911.44
739.859	2034.32
740.045	1993.36
740.23	1968.78
740.416	1919.63
740.601	1917.58
740.786	1911.44
740.972	1956.49
741.157	1958.54
741.342	1888.91
741.528	1917.58
741.713	1956.49
741.898	1972.88
742.084	1868.43
742.269	1923.73
742.454	1985.16
742.639	1825.42
742.824	1802.9
743.01	1864.33
743.195	1913.49
743.38	1804.94
743.565	1827.47
743.75	1843.85
743.935	1823.37
744.12	1884.81
744.305	1780.37
744.49	1827.47
744.675	1772.18
744.86	1778.32
745.045	1847.95
745.23	1745.55
745.415	1731.22
745.6	1729.17
745.785	1673.87
745.97	1712.78
746.155	1657.49
746.34	1745.55
746.525	1598.1
746.71	1720.98
746.895	1747.6
747.079	1618.58
747.264	1710.74
747.449	1608.34
747.634	1778.32
747.819	1653.39
748.003	1680.02
748.188	1579.67
748.373	1565.33
748.557	1557.14
748.742	1540.76
748.927	1569.43
749.111	1561.23
749.296	1639.06
749.481	1507.99
749.665	1600.15
749.85	1540.76
750.034	1530.52
750.219	1573.52
750.404	1518.23
750.588	1487.51
750.773	1399.45
750.957	1446.55
751.141	1450.64
751.326	1401.49
751.51	1403.54
751.695	1376.92
751.879	1421.97
752.064	1458.84
752.248	1286.81
752.432	1409.69
752.617	1413.78
752.801	1288.85
752.985	1428.12
753.17	1378.97
753.354	1405.59
753.538	1348.25
753.722	1297.05
753.907	1350.29
754.091	1188.5
754.275	1376.92
754.459	1344.15
754.643	1307.29
754.828	1256.09
755.012	1219.22
755.196	1362.58
755.38	1229.46
755.564	1182.36
755.748	1264.28
755.932	1188.5
756.116	1204.89
756.3	1221.27
756.484	1090.2
756.668	1165.98
756.852	1200.79
757.036	1247.9
757.22	1180.31
757.404	1102.49
757.588	1106.59
757.772	1215.13
757.956	1149.59
758.14	1090.2
758.323	1106.59
758.507	1131.16
758.691	1079.96
758.875	1147.55
759.059	1020.57
759.242	1024.67
759.426	1131.16
759.61	1071.77
759.794	952.99
759.977	1061.53
760.161	1100.44
760.345	1090.2
760.528	1028.76
760.712	1100.44
760.895	1053.34
761.079	1010.33
761.263	1016.48
761.446	1061.53
761.63	983.71
761.813	905.88
761.997	1024.67
762.18	1014.43
762.364	1016.48
762.547	977.56
762.731	922.27
762.914	991.9
763.098	991.9
763.281	983.71
763.464	860.83
763.648	1014.43
763.831	977.56
764.015	907.93
764.198	926.36
764.381	877.21
764.564	836.25
764.748	895.64
764.931	926.36
765.114	862.88
765.297	928.41
765.481	899.74
765.664	893.6
765.847	901.79
766.03	965.28
766.213	787.1
766.397	901.79
766.58	809.63
766.763	907.93
766.946	998.04
767.129	842.4
767.312	875.17
767.495	838.3
767.678	936.6
767.861	887.45
768.044	889.5
768.227	731.81
768.41	905.88
768.593	901.79
768.776	832.16
768.959	848.54
769.142	877.21
769.324	783.01
769.507	860.83
769.69	805.53
769.873	787.1
770.056	844.45
770.239	823.97
770.421	754.34
770.604	838.3
770.787	797.34
770.97	823.97
771.152	795.29
771.335	819.87
771.518	756.38
771.7	844.45
771.883	733.86
772.066	731.81
772.248	754.34
772.431	797.34
772.613	789.15
772.796	707.23
772.978	813.73
773.161	737.95
773.343	746.14
773.526	750.24
773.708	729.76
773.891	721.57
774.073	746.14
774.256	672.42
774.438	780.96
774.621	688.8
774.803	727.71
774.985	688.8
775.168	801.44
775.35	705.18
775.532	713.38
775.715	584.35
775.897	684.7
776.079	670.37
776.261	604.83
776.444	676.51
776.626	696.99
776.808	774.81
776.99	688.8
777.173	619.17
777.355	649.89
777.537	635.55
777.719	631.46
777.901	570.02
778.083	664.22
778.265	604.83
778.447	584.35
778.629	567.97
778.811	586.4
778.993	576.16
779.175	651.94
779.357	567.97
779.539	520.87
779.721	615.07
779.903	621.22
780.085	535.2
780.267	561.83
780.449	508.58
780.631	670.37
780.812	506.53
780.994	492.2
781.176	506.53
781.358	434.85
781.54	434.85
781.721	492.2
781.903	574.11
782.085	600.74
782.267	510.63
782.448	500.39
782.63	477.86
782.812	524.96
782.993	496.29
783.175	535.2
783.357	451.24
783.538	533.15
783.72	469.67
783.901	479.91
784.083	518.82
784.264	438.95
784.446	443.04
784.627	410.28
784.809	408.23
784.99	389.8
785.172	422.56
785.353	445.09
785.535	451.24
785.716	443.04
785.897	508.58
786.079	451.24
786.26	352.93
786.441	461.48
786.623	336.55
786.804	397.99
786.985	455.33
787.167	387.75
787.348	430.76
787.529	402.08
787.71	428.71
787.891	422.56
788.073	434.85
788.254	397.99
788.435	369.32
788.616	418.47
788.797	299.69
788.978	369.32
789.159	402.08
789.34	344.74
789.522	350.89
789.703	281.25
789.884	402.08
790.065	373.41
790.246	320.17
790.427	410.28
790.607	377.51
790.788	344.74
790.969	365.22
791.15	387.75
791.331	305.83
791.512	393.89
791.693	283.3
791.874	418.47
792.054	438.95
792.235	309.93
792.416	252.58
792.597	307.88
792.778	340.65
792.958	303.78
793.139	316.07
793.32	404.13
793.5	213.67
793.681	342.69
793.862	271.01
794.042	336.55
794.223	240.3
794.404	322.21
794.584	377.51
794.765	307.88
794.945	354.98
795.126	316.07
795.306	307.88
795.487	303.78
795.667	301.73
795.848	258.73
796.028	299.69
796.209	352.93
796.389	256.68
796.57	256.68
796.75	289.45
796.93	248.49
797.111	238.25
797.291	314.02
797.471	336.55
797.652	262.82
797.832	287.4
798.012	271.01
798.192	287.4
798.373	271.01
798.553	271.01
798.733	301.73
798.913	207.53
799.093	244.39
799.274	250.53
799.454	262.82
799.634	307.88
799.814	250.53
799.994	258.73
800.174	258.73
800.354	213.67
800.534	139.94
800.714	271.01
800.894	215.72
801.074	141.99
801.254	193.19
801.434	258.73
801.614	238.25
801.794	240.3
801.974	815.77
802.154	307.88
802.334	258.73
802.514	238.25
802.693	195.24
802.873	215.72
803.053	281.25
803.233	230.06
803.413	260.77
803.592	205.48
803.772	230.06
803.952	217.77
804.131	174.76
804.311	144.04
804.491	225.96
804.67	180.9
804.85	223.91
805.03	197.29
805.209	207.53
805.389	158.38
805.568	246.44
805.748	189.1
805.928	189.1
806.107	174.76
806.287	162.47
806.466	180.9
806.646	197.29
806.825	193.19
807.004	223.91
807.184	215.72
807.363	299.69
807.543	242.34
807.722	156.33
807.901	189.1
808.081	273.06
808.26	111.27
808.439	146.09
808.619	238.25
808.798	193.19
808.977	172.71
809.156	238.25
809.336	182.95
809.515	168.62
809.694	109.22
809.873	141.99
810.052	266.92
810.231	213.67
810.411	174.76
810.59	131.75
810.769	80.55
810.948	240.3
811.127	121.51
811.306	148.14
811.485	125.61
811.664	242.34
811.843	115.37
812.022	160.42
812.201	103.08
812.38	144.04
812.559	127.66
812.737	148.14
812.916	144.04
813.095	127.66
813.274	146.09
813.453	174.76
813.632	201.38
813.811	203.43
813.989	88.75
814.168	230.06
814.347	168.62
814.526	131.75
814.704	133.8
814.883	156.33
815.062	109.22
815.24	174.76
815.419	205.48
815.598	133.8
815.776	105.13
815.955	98.99
816.133	96.94
816.312	185
816.49	172.71
816.669	185
816.847	117.42
817.026	166.57
817.204	90.79
817.383	164.52
817.561	117.42
817.74	107.18
817.918	156.33
818.097	141.99
818.275	164.52
818.453	111.27
818.632	150.18
818.81	201.38
818.988	174.76
819.167	103.08
819.345	137.9
819.523	58.03
819.701	158.38
819.879	180.9
820.058	109.22
820.236	45.74
820.414	92.84
820.592	125.61
820.77	45.74
820.948	113.32
821.127	74.41
821.305	131.75
821.483	94.89
821.661	98.99
821.839	139.94
822.017	92.84
822.195	117.42
822.373	133.8
822.551	90.79
822.729	150.18
822.907	180.9
823.085	60.07
823.262	101.03
823.44	131.75
823.618	92.84
823.796	180.9
823.974	92.84
824.152	37.55
824.329	49.83
824.507	84.65
824.685	135.85
824.863	31.4
825.04	133.8
825.218	174.76
825.396	62.12
825.574	107.18
825.751	207.53
825.929	78.51
826.107	70.31
826.284	45.74
826.462	94.89
826.639	82.6
826.817	45.74
826.994	139.94
827.172	90.79
827.349	133.8
827.527	47.79
827.704	96.94
827.882	131.75
828.059	166.57
828.237	86.7
828.414	121.51
828.591	80.55
828.769	115.37
828.946	148.14
829.124	123.56
829.301	127.66
829.478	148.14
829.655	115.37
829.833	80.55
830.01	125.61
830.187	92.84
830.364	107.18
830.542	113.32
830.719	72.36
830.896	96.94
831.073	131.75
831.25	115.37
831.427	41.64
831.604	53.93
831.782	125.61
831.959	70.31
832.136	152.23
832.313	207.53
832.49	127.66
832.667	47.79
832.844	74.41
833.021	185
833.198	109.22
833.374	90.79
833.551	86.7
833.728	131.75
833.905	168.62
834.082	78.51
834.259	125.61
834.436	131.75
834.612	66.22
834.789	123.56
834.966	68.27
835.143	131.75
835.319	27.31
835.496	53.93
835.673	88.75
835.85	125.61
836.026	29.35
836.203	129.7
836.38	41.64
836.556	41.64
836.733	27.31
836.909	127.66
837.086	45.74
837.262	92.84
837.439	37.55
837.616	109.22
837.792	78.51
837.968	137.9
838.145	27.31
838.321	55.98
838.498	53.93
838.674	92.84
838.851	117.42
839.027	25.26
839.203	117.42
839.38	90.79
839.556	27.31
839.732	98.99
839.909	51.88
840.085	74.41
840.261	-25.94
840.437	141.99
840.614	131.75
840.79	82.6
840.966	35.5
841.142	72.36
841.318	58.03
841.494	17.07
841.671	82.6
841.847	15.02
842.023	49.83
842.199	49.83
842.375	103.08
842.551	21.16
842.727	-7.51
842.903	150.18
843.079	43.69
843.255	158.38
843.431	43.69
843.607	133.8
843.783	-36.18
843.959	74.41
844.134	33.45
844.31	92.84
844.486	33.45
844.662	123.56
844.838	27.31
845.013	49.83
845.189	64.17
845.365	74.41
845.541	-9.56
845.716	-3.41
845.892	41.64
846.068	68.27
846.244	62.12
846.419	160.42
846.595	53.93
846.77	58.03
846.946	90.79
847.122	125.61
847.297	43.69
847.473	82.6
847.648	27.31
847.824	37.55
847.999	31.4
848.175	12.97
848.35	68.27
848.526	131.75
848.701	105.13
848.876	82.6
849.052	86.7
849.227	35.5
849.403	-3.41
849.578	92.84
849.753	94.89
849.929	41.64
850.104	2.73
850.279	-21.85
850.454	39.59
850.63	33.45
850.805	78.51
850.98	60.07
851.155	33.45
851.33	21.16
851.505	8.87
851.681	80.55
851.856	86.7
852.031	70.31
852.206	49.83
852.381	76.46
852.556	19.11
852.731	66.22
852.906	68.27
853.081	55.98
853.256	62.12
853.431	58.03
853.606	49.83
853.781	17.07
853.956	10.92
854.131	33.45
854.305	37.55
854.48	27.31
854.655	2.73
854.83	-34.13
855.005	86.7
855.18	101.03
855.354	-40.28
855.529	29.35
855.704	25.26
855.879	55.98
856.053	-9.56
856.228	64.17
856.403	-32.08
856.577	76.46
856.752	-32.08
856.926	12.97
857.101	62.12
857.276	17.07
857.45	115.37
857.625	55.98
857.799	78.51
857.974	27.31
858.148	31.4
858.323	17.07
858.497	47.79
858.672	64.17
858.846	-19.8
859.02	82.6
859.195	64.17
859.369	17.07
859.543	17.07
859.718	-5.46
859.892	-15.7
860.066	60.07
860.241	-9.56
860.415	-27.99
860.589	29.35
860.763	17.07
860.938	55.98
861.112	58.03
861.286	0.68
861.46	74.41
861.634	76.46
861.808	68.27
861.982	8.87
862.157	27.31
862.331	-7.51
862.505	-15.7
862.679	-32.08
862.853	-13.65
863.027	17.07
863.201	58.03
863.375	-3.41
863.549	6.83
863.722	39.59
863.896	55.98
864.07	60.07
864.244	35.5
864.418	27.31
864.592	-15.7
864.766	51.88
864.939	92.84
865.113	84.65
865.287	51.88
865.461	-27.99
865.634	-19.8
865.808	35.5
865.982	101.03
866.156	25.26
866.329	8.87
866.503	-7.51
866.676	27.31
866.85	-23.89
867.024	68.27
867.197	33.45
867.371	53.93
867.544	17.07
867.718	39.59
867.891	60.07
868.065	-48.47
868.238	-23.89
868.412	25.26
868.585	62.12
868.759	66.22
868.932	60.07
869.105	43.69
869.279	17.07
869.452	-5.46
869.625	90.79
869.799	4.78
869.972	-128.34
870.145	-7.51
870.319	8.87
870.492	33.45
870.665	-13.65
870.838	-15.7
871.011	-19.8
871.185	-7.51
871.358	41.64
871.531	19.11
871.704	27.31
871.877	0.68
872.05	19.11
872.223	-15.7
872.396	76.46
872.569	49.83
872.742	-13.65
872.915	35.5
873.088	-21.85
873.261	-13.65
873.434	60.07
873.607	41.64
873.78	35.5
873.953	-19.8
874.126	80.55
874.299	21.16
874.471	-27.99
874.644	19.11
874.817	58.03
874.99	60.07
875.163	-13.65
875.335	2.73
875.508	17.07
875.681	70.31
875.853	25.26
876.026	2.73
876.199	74.41
876.371	107.18
876.544	19.11
876.717	78.51
876.889	-3.41
877.062	58.03
877.234	0.68
877.407	0.68
877.579	0.68
877.752	12.97
877.924	4.78
878.097	-32.08
878.269	-11.61
878.442	41.64
878.614	-3.41
878.786	39.59
878.959	68.27
879.131	70.31
879.303	-15.7
879.476	21.16
879.648	-38.23
879.82	62.12
879.993	0.68
880.165	-17.75
880.337	-30.04
880.509	-21.85
880.681	-52.56
880.854	68.27
881.026	-32.08
881.198	62.12
881.37	-79.19
881.542	17.07
881.714	-27.99
881.886	17.07
882.058	-32.08
882.23	10.92
882.402	62.12
882.574	6.83
882.746	49.83
882.918	-23.89
883.09	0.68
883.262	45.74
883.434	43.69
883.606	-36.18
883.778	23.21
883.95	82.6
884.122	41.64
884.293	-3.41
884.465	33.45
884.637	-3.41
884.809	-5.46
884.98	0.68
885.152	37.55
885.324	94.89
885.496	25.26
885.667	58.03
885.839	-21.85
886.011	68.27
886.182	70.31
886.354	-7.51
886.525	8.87
886.697	23.21
886.869	-50.52
887.04	49.83
887.212	-1.37
887.383	84.65
887.555	29.35
887.726	66.22
887.897	74.41
888.069	58.03
888.24	-32.08
888.412	29.35
888.583	41.64
888.754	35.5
888.926	-25.94
889.097	25.26
889.268	-3.41
889.44	82.6
889.611	-5.46
889.782	-23.89
889.953	-97.62
890.125	60.07
890.296	12.97
890.467	-34.13
890.638	43.69
890.809	35.5
890.98	-3.41
891.151	49.83
891.323	51.88
891.494	21.16
891.665	-15.7
891.836	15.02
892.007	10.92
892.178	21.16
892.349	55.98
892.52	-42.32
892.691	76.46
892.862	-13.65
893.032	8.87
893.203	29.35
893.374	-46.42
893.545	68.27
893.716	-44.37
893.887	31.4
894.057	35.5
894.228	41.64
894.399	37.55
894.57	80.55
894.74	-38.23
894.911	0.68
895.082	25.26
895.253	-13.65
895.423	4.78
895.594	27.31
895.764	25.26
895.935	66.22
896.106	60.07
896.276	-109.91
896.447	2.73
896.617	-1.37
896.788	-11.61
896.958	-32.08
897.129	25.26
897.299	45.74
897.47	60.07
897.64	4.78
897.81	-27.99
897.981	58.03
898.151	-48.47
898.322	-5.46
898.492	2.73
898.662	35.5
898.832	33.45
899.003	-42.32
899.173	107.18
899.343	-7.51
899.513	19.11
