Data from USB4F104151__109__14-18-14-295.txt Node

Date: Thu Mar 13 14:18:14 EDT 2025
User: louis
Spectrometer: USB4F10415
Trigger mode: 4
Integration Time (sec): 2.000000E-2
Scans to average: 1
Electric dark correction enabled: true
Nonlinearity correction enabled: false
Boxcar width: 0
XAxis mode: Wavelengths
Number of Pixels in Spectrum: 3648
>>>>>Begin Spectral Data<<<<<
178.204	-65.54
178.424	-65.54
178.644	-65.54
178.864	-114.69
179.084	-71.68
179.304	49.15
179.524	32.77
179.744	-16.38
179.964	63.49
180.184	-30.72
180.404	0
180.624	-45.06
180.844	-32.77
181.064	-49.15
181.283	-20.48
181.503	-8.19
181.723	57.34
181.943	0
182.163	79.87
182.383	65.53
182.602	73.73
182.822	94.21
183.042	-6.14
183.262	-26.62
183.482	98.3
183.701	6.14
183.921	8.19
184.141	43.01
184.361	20.48
184.58	-16.38
184.8	45.06
185.02	-16.38
185.239	57.34
185.459	16.38
185.679	-16.38
185.898	-49.15
186.118	83.97
186.338	22.53
186.557	16.38
186.777	-28.67
186.997	26.62
187.216	53.25
187.436	40.96
187.655	4.1
187.875	63.49
188.095	-40.96
188.314	20.48
188.534	139.26
188.753	51.2
188.973	92.16
189.192	129.02
189.412	34.82
189.631	49.15
189.851	-16.38
190.07	77.82
190.29	0
190.509	4.1
190.729	24.58
190.948	14.34
191.168	102.4
191.387	10.24
191.607	61.44
191.826	-6.14
192.045	57.34
192.265	18.43
192.484	28.67
192.704	59.39
192.923	-8.19
193.142	73.73
193.362	30.72
193.581	122.88
193.8	102.4
194.02	73.73
194.239	24.58
194.458	43.01
194.678	133.12
194.897	24.58
195.116	71.68
195.335	8.19
195.555	98.3
195.774	22.53
195.993	12.29
196.212	8.19
196.432	34.82
196.651	65.53
196.87	-8.19
197.089	90.11
197.308	98.3
197.528	32.77
197.747	98.3
197.966	110.59
198.185	108.54
198.404	6.14
198.623	20.48
198.842	8.19
199.062	75.77
199.281	124.93
199.5	102.4
199.719	92.16
199.938	155.65
200.157	26.62
200.376	61.44
200.595	43.01
200.814	59.39
201.033	75.77
201.252	-16.38
201.471	69.63
201.69	65.53
201.909	73.73
202.128	61.44
202.347	36.86
202.566	51.2
202.785	59.39
203.004	47.1
203.223	34.82
203.442	83.97
203.661	57.34
203.879	-18.43
204.098	77.82
204.317	92.16
204.536	69.63
204.755	26.62
204.974	40.96
205.193	-40.96
205.411	57.34
205.63	4.1
205.849	165.89
206.068	57.34
206.287	16.38
206.505	63.49
206.724	-45.06
206.943	-2.05
207.162	26.62
207.381	51.2
207.599	57.34
207.818	118.78
208.037	-8.19
208.255	57.34
208.474	69.63
208.693	51.2
208.911	65.53
209.13	-8.19
209.349	40.96
209.567	-4.1
209.786	100.35
210.005	77.82
210.223	2.05
210.442	2.05
210.661	-16.38
210.879	79.87
211.098	-8.19
211.316	24.58
211.535	57.34
211.753	-4.1
211.972	75.77
212.191	0
212.409	-12.29
212.628	90.11
212.846	22.53
213.065	110.59
213.283	151.55
213.502	4.1
213.72	-6.14
213.938	18.43
214.157	92.16
214.375	-49.15
214.594	45.06
214.812	45.06
215.031	24.58
215.249	-22.53
215.467	53.25
215.686	104.45
215.904	67.58
216.122	102.4
216.341	18.43
216.559	65.53
216.778	-30.72
216.996	77.82
217.214	57.34
217.432	-38.91
217.651	51.2
217.869	55.3
218.087	2.05
218.306	90.11
218.524	28.67
218.742	73.73
218.96	51.2
219.179	-12.29
219.397	4.1
219.615	86.01
219.833	0
220.051	73.73
220.27	73.73
220.488	-32.77
220.706	10.24
220.924	49.15
221.142	-32.77
221.36	26.62
221.578	16.38
221.796	24.58
222.015	81.92
222.233	36.86
222.451	65.53
222.669	28.67
222.887	120.83
223.105	16.38
223.323	40.96
223.541	34.82
223.759	-2.05
223.977	43.01
224.195	28.67
224.413	73.73
224.631	36.86
224.849	24.58
225.067	108.54
225.285	-57.34
225.503	83.97
225.721	28.67
225.939	43.01
226.157	32.77
226.375	145.41
226.592	49.15
226.81	16.38
227.028	114.69
227.246	149.5
227.464	0
227.682	45.06
227.9	100.35
228.117	20.48
228.335	12.29
228.553	59.39
228.771	20.48
228.989	61.44
229.206	-30.72
229.424	143.36
229.642	0
229.86	-57.34
230.077	124.93
230.295	71.68
230.513	79.87
230.731	86.01
230.948	94.21
231.166	36.86
231.384	6.14
231.601	-40.96
231.819	73.73
232.037	73.73
232.254	-6.14
232.472	75.77
232.689	8.19
232.907	129.02
233.125	92.16
233.342	8.19
233.56	24.58
233.777	43.01
233.995	65.53
234.213	49.15
234.43	12.29
234.648	32.77
234.865	18.43
235.083	75.77
235.3	4.1
235.518	81.92
235.735	102.4
235.953	45.06
236.17	143.36
236.388	43.01
236.605	-2.05
236.822	40.96
237.04	32.77
237.257	65.53
237.475	32.77
237.692	88.06
237.909	36.86
238.127	100.35
238.344	51.2
238.562	43.01
238.779	-28.67
238.996	16.38
239.214	73.73
239.431	100.35
239.648	8.19
239.865	-2.05
240.083	32.77
240.3	-49.15
240.517	36.86
240.735	8.19
240.952	75.77
241.169	94.21
241.386	34.82
241.603	-14.34
241.821	24.58
242.038	149.5
242.255	81.92
242.472	24.58
242.689	110.59
242.907	59.39
243.124	49.15
243.341	77.82
243.558	83.97
243.775	8.19
243.992	24.58
244.209	28.67
244.426	53.25
244.643	77.82
244.86	-16.38
245.078	57.34
245.295	34.82
245.512	-24.58
245.729	32.77
245.946	28.67
246.163	108.54
246.38	26.62
246.597	-24.58
246.814	34.82
247.031	81.92
247.248	77.82
247.464	34.82
247.681	63.49
247.898	122.88
248.115	38.91
248.332	24.58
248.549	77.82
248.766	108.54
248.983	92.16
249.2	55.3
249.417	2.05
249.633	36.86
249.85	38.91
250.067	24.58
250.284	6.14
250.501	-6.14
250.717	114.69
250.934	-18.43
251.151	8.19
251.368	81.92
251.585	90.11
251.801	-22.53
252.018	34.82
252.235	43.01
252.451	59.39
252.668	18.43
252.885	4.1
253.102	10.24
253.318	-24.58
253.535	0
253.752	73.73
253.968	18.43
254.185	0
254.401	55.3
254.618	59.39
254.835	24.58
255.051	67.58
255.268	81.92
255.484	-22.53
255.701	-16.38
255.917	92.16
256.134	6.14
256.351	69.63
256.567	8.19
256.784	24.58
257	75.77
257.217	67.58
257.433	34.82
257.65	16.38
257.866	90.11
258.082	34.82
258.299	88.06
258.515	40.96
258.732	26.62
258.948	90.11
259.165	43.01
259.381	98.3
259.597	79.87
259.814	36.86
260.03	53.25
260.246	81.92
260.463	67.58
260.679	83.97
260.895	32.77
261.112	36.86
261.328	32.77
261.544	-86.01
261.761	-6.14
261.977	-24.58
262.193	38.91
262.409	65.53
262.626	114.69
262.842	106.49
263.058	63.49
263.274	55.3
263.49	36.86
263.707	57.34
263.923	32.77
264.139	-16.38
264.355	-6.14
264.571	8.19
264.787	40.96
265.004	59.39
265.22	43.01
265.436	32.77
265.652	10.24
265.868	-34.82
266.084	90.11
266.3	-8.19
266.516	4.1
266.732	81.92
266.948	6.14
267.164	63.49
267.38	-2.05
267.596	86.01
267.812	-47.1
268.028	51.2
268.244	8.19
268.46	32.77
268.676	32.77
268.892	18.43
269.108	57.34
269.324	59.39
269.54	-4.1
269.756	-24.58
269.972	-16.38
270.188	81.92
270.403	-30.72
270.619	26.62
270.835	-8.19
271.051	59.39
271.267	26.62
271.483	12.29
271.698	55.3
271.914	77.82
272.13	16.38
272.346	-4.1
272.562	57.34
272.777	73.73
272.993	40.96
273.209	24.58
273.425	36.86
273.64	-8.19
273.856	40.96
274.072	83.97
274.287	0
274.503	86.01
274.719	59.39
274.934	32.77
275.15	-30.72
275.366	4.1
275.581	-8.19
275.797	4.1
276.012	65.53
276.228	26.62
276.444	28.67
276.659	36.86
276.875	32.77
277.09	67.58
277.306	-12.29
277.521	30.72
277.737	38.91
277.952	110.59
278.168	26.62
278.383	57.34
278.599	-4.1
278.814	16.38
279.03	49.15
279.245	57.34
279.461	81.92
279.676	131.07
279.892	47.1
280.107	-24.58
280.322	-24.58
280.538	36.86
280.753	32.77
280.969	81.92
281.184	57.34
281.399	110.59
281.615	49.15
281.83	32.77
282.045	-28.67
282.26	49.15
282.476	106.49
282.691	65.53
282.906	-8.19
283.122	73.73
283.337	-30.72
283.552	-12.29
283.767	61.44
283.983	65.53
284.198	-10.24
284.413	73.73
284.628	-10.24
284.843	0
285.058	69.63
285.274	75.77
285.489	16.38
285.704	77.82
285.919	-8.19
286.134	16.38
286.349	0
286.564	61.44
286.779	71.68
286.995	59.39
287.21	51.2
287.425	92.16
287.64	-22.53
287.855	-12.29
288.07	47.1
288.285	159.74
288.5	129.02
288.715	77.82
288.93	83.97
289.145	-12.29
289.36	81.92
289.575	77.82
289.79	65.53
290.004	-8.19
290.219	83.97
290.434	12.29
290.649	45.06
290.864	-16.38
291.079	14.34
291.294	65.53
291.509	81.92
291.724	40.96
291.938	4.1
292.153	28.67
292.368	18.43
292.583	34.82
292.798	73.73
293.012	51.2
293.227	79.87
293.442	65.53
293.657	90.11
293.871	114.69
294.086	53.25
294.301	116.73
294.516	18.43
294.73	24.58
294.945	0
295.16	151.55
295.374	75.77
295.589	73.73
295.804	63.49
296.018	2.05
296.233	100.35
296.447	96.25
296.662	118.78
296.877	69.63
297.091	139.26
297.306	32.77
297.52	-12.29
297.735	43.01
297.949	81.92
298.164	81.92
298.378	67.58
298.593	114.69
298.807	-10.24
299.022	26.62
299.236	126.97
299.451	16.38
299.665	36.86
299.88	26.62
300.094	12.29
300.309	40.96
300.523	81.92
300.737	40.96
300.952	86.01
301.166	102.4
301.381	69.63
301.595	-45.06
301.809	10.24
302.024	16.38
302.238	51.2
302.452	65.53
302.667	53.25
302.881	69.63
303.095	51.2
303.309	131.07
303.524	49.15
303.738	75.77
303.952	-6.14
304.166	81.92
304.381	4.1
304.595	69.63
304.809	53.25
305.023	45.06
305.237	-22.53
305.452	-8.19
305.666	106.49
305.88	67.58
306.094	61.44
306.308	90.11
306.522	77.82
306.736	65.53
306.95	40.96
307.164	122.88
307.379	-14.34
307.593	100.35
307.807	65.53
308.021	120.83
308.235	24.58
308.449	94.21
308.663	88.06
308.877	118.78
309.091	94.21
309.305	16.38
309.519	51.2
309.733	94.21
309.947	-6.14
310.161	126.97
310.374	10.24
310.588	90.11
310.802	-45.06
311.016	45.06
311.23	-6.14
311.444	73.73
311.658	92.16
311.872	114.69
312.085	-26.62
312.299	90.11
312.513	114.69
312.727	77.82
312.941	51.2
313.154	71.68
313.368	61.44
313.582	34.82
313.796	61.44
314.009	100.35
314.223	38.91
314.437	106.49
314.651	108.54
314.864	53.25
315.078	32.77
315.292	114.69
315.505	28.67
315.719	51.2
315.933	53.25
316.146	98.3
316.36	36.86
316.573	18.43
316.787	4.1
317.001	73.73
317.214	45.06
317.428	34.82
317.641	32.77
317.855	-30.72
318.068	65.53
318.282	38.91
318.495	86.01
318.709	73.73
318.922	73.73
319.136	65.53
319.349	114.69
319.563	-6.14
319.776	98.3
319.99	90.11
320.203	73.73
320.417	67.58
320.63	18.43
320.843	114.69
321.057	83.97
321.27	18.43
321.483	4.1
321.697	86.01
321.91	67.58
322.124	73.73
322.337	94.21
322.55	151.55
322.763	-28.67
322.977	38.91
323.19	16.38
323.403	24.58
323.617	90.11
323.83	106.49
324.043	16.38
324.256	86.01
324.469	26.62
324.683	86.01
324.896	81.92
325.109	67.58
325.322	22.53
325.535	94.21
325.748	106.49
325.962	100.35
326.175	69.63
326.388	49.15
326.601	90.11
326.814	24.58
327.027	28.67
327.24	151.55
327.453	-20.48
327.666	24.58
327.879	116.73
328.092	65.53
328.305	22.53
328.518	75.77
328.731	0
328.944	106.49
329.157	94.21
329.37	26.62
329.583	83.97
329.796	34.82
330.009	51.2
330.222	163.84
330.435	57.34
330.648	92.16
330.861	59.39
331.073	57.34
331.286	40.96
331.499	57.34
331.712	24.58
331.925	86.01
332.138	116.73
332.35	122.88
332.563	143.36
332.776	55.3
332.989	102.4
333.202	61.44
333.414	110.59
333.627	67.58
333.84	51.2
334.053	-94.21
334.265	65.53
334.478	69.63
334.691	77.82
334.903	-16.38
335.116	-10.24
335.329	65.53
335.541	53.25
335.754	122.88
335.966	10.24
336.179	47.1
336.392	-10.24
336.604	34.82
336.817	-32.77
337.029	65.53
337.242	65.53
337.454	104.45
337.667	75.77
337.88	108.54
338.092	81.92
338.305	26.62
338.517	67.58
338.729	26.62
338.942	96.25
339.154	77.82
339.367	32.77
339.579	163.84
339.792	71.68
340.004	51.2
340.217	-30.72
340.429	96.25
340.641	24.58
340.854	0
341.066	28.67
341.278	69.63
341.491	98.3
341.703	69.63
341.915	45.06
342.128	45.06
342.34	75.77
342.552	51.2
342.764	-14.34
342.977	26.62
343.189	-6.14
343.401	6.14
343.613	-4.1
343.826	133.12
344.038	18.43
344.25	40.96
344.462	116.73
344.674	49.15
344.886	90.11
345.099	133.12
345.311	22.53
345.523	28.67
345.735	0
345.947	135.17
346.159	61.44
346.371	67.58
346.583	-63.49
346.795	116.73
347.007	20.48
347.219	139.26
347.431	106.49
347.643	135.17
347.855	90.11
348.067	32.77
348.279	75.77
348.491	65.53
348.703	102.4
348.915	-20.48
349.127	24.58
349.339	2.05
349.551	49.15
349.763	61.44
349.975	-12.29
350.187	65.53
350.399	67.58
350.61	65.53
350.822	63.49
351.034	57.34
351.246	-12.29
351.458	57.34
351.669	100.35
351.881	116.73
352.093	65.53
352.305	53.25
352.517	36.86
352.728	118.78
352.94	81.92
353.152	92.16
353.363	22.53
353.575	94.21
353.787	104.45
353.999	57.34
354.21	133.12
354.422	75.77
354.633	26.62
354.845	102.4
355.057	122.88
355.268	90.11
355.48	43.01
355.692	22.53
355.903	18.43
356.115	59.39
356.326	4.1
356.538	149.5
356.749	59.39
356.961	110.59
357.172	40.96
357.384	69.63
357.595	110.59
357.807	73.73
358.018	65.53
358.23	102.4
358.441	43.01
358.653	129.02
358.864	77.82
359.075	67.58
359.287	26.62
359.498	157.69
359.709	57.34
359.921	-12.29
360.132	69.63
360.344	26.62
360.555	32.77
360.766	110.59
360.977	43.01
361.189	40.96
361.4	69.63
361.611	57.34
361.823	69.63
362.034	10.24
362.245	4.1
362.456	43.01
362.667	63.49
362.879	81.92
363.09	129.02
363.301	55.3
363.512	86.01
363.723	79.87
363.935	-18.43
364.146	73.73
364.357	40.96
364.568	81.92
364.779	112.64
364.99	147.45
365.201	75.77
365.412	114.69
365.623	-8.19
365.834	90.11
366.045	67.58
366.256	65.53
366.467	108.54
366.678	24.58
366.889	126.97
367.1	40.96
367.311	36.86
367.522	0
367.733	141.31
367.944	104.45
368.155	129.02
368.366	141.31
368.577	102.4
368.788	131.07
368.999	69.63
369.209	75.77
369.42	86.01
369.631	215.04
369.842	79.87
370.053	40.96
370.264	75.77
370.474	57.34
370.685	40.96
370.896	88.06
371.107	75.77
371.317	67.58
371.528	57.34
371.739	116.73
371.95	57.34
372.16	114.69
372.371	75.77
372.582	96.25
372.792	63.49
373.003	73.73
373.214	139.26
373.424	57.34
373.635	45.06
373.846	90.11
374.056	59.39
374.267	98.3
374.477	137.21
374.688	40.96
374.898	79.87
375.109	90.11
375.319	65.53
375.53	165.89
375.74	98.3
375.951	67.58
376.161	67.58
376.372	169.98
376.582	24.58
376.793	16.38
377.003	12.29
377.214	71.68
377.424	67.58
377.635	81.92
377.845	86.01
378.055	135.17
378.266	71.68
378.476	116.73
378.686	112.64
378.897	-26.62
379.107	98.3
379.317	63.49
379.528	139.26
379.738	51.2
379.948	4.1
380.158	122.88
380.369	73.73
380.579	73.73
380.789	63.49
380.999	53.25
381.21	98.3
381.42	126.97
381.63	94.21
381.84	69.63
382.05	71.68
382.261	192.51
382.471	161.79
382.681	153.6
382.891	83.97
383.101	49.15
383.311	139.26
383.521	79.87
383.731	102.4
383.941	122.88
384.151	59.39
384.361	36.86
384.571	-28.67
384.781	151.55
384.991	45.06
385.201	98.3
385.411	110.59
385.621	129.02
385.831	106.49
386.041	102.4
386.251	57.34
386.461	94.21
386.671	65.53
386.881	81.92
387.091	135.17
387.301	90.11
387.511	139.26
387.72	86.01
387.93	120.83
388.14	114.69
388.35	180.22
388.56	151.55
388.769	167.93
388.979	67.58
389.189	34.82
389.399	98.3
389.609	81.92
389.818	131.07
390.028	112.64
390.238	63.49
390.447	57.34
390.657	90.11
390.867	139.26
391.076	43.01
391.286	155.65
391.496	77.82
391.705	159.74
391.915	172.03
392.125	114.69
392.334	143.36
392.544	133.12
392.753	75.77
392.963	124.93
393.172	59.39
393.382	75.77
393.591	131.07
393.801	94.21
394.01	143.36
394.22	133.12
394.429	131.07
394.639	73.73
394.848	118.78
395.058	139.26
395.267	174.08
395.477	92.16
395.686	153.6
395.895	139.26
396.105	157.69
396.314	145.41
396.524	155.65
396.733	141.31
396.942	116.73
397.152	147.45
397.361	163.84
397.57	104.45
397.78	161.79
397.989	114.69
398.198	172.03
398.407	165.89
398.617	172.03
398.826	133.12
399.035	122.88
399.244	153.6
399.453	118.78
399.663	200.7
399.872	155.65
400.081	131.07
400.29	165.89
400.499	143.36
400.708	182.27
400.917	141.31
401.127	172.03
401.336	161.79
401.545	206.84
401.754	155.65
401.963	212.99
402.172	174.08
402.381	141.31
402.59	192.51
402.799	204.8
403.008	169.98
403.217	294.91
403.426	157.69
403.635	141.31
403.844	163.84
404.053	241.66
404.262	204.8
404.471	225.28
404.68	270.33
404.888	204.8
405.097	198.65
405.306	237.56
405.515	190.46
405.724	237.56
405.933	198.65
406.142	303.1
406.35	233.47
406.559	280.57
406.768	268.28
406.977	288.76
407.185	253.95
407.394	448.51
407.603	301.05
407.812	301.05
408.02	376.83
408.229	376.83
408.438	323.58
408.646	305.15
408.855	278.52
409.064	460.79
409.272	364.54
409.481	344.06
409.69	364.54
409.898	425.98
410.107	395.26
410.315	507.9
410.524	442.36
410.733	483.32
410.941	571.38
411.15	536.57
411.358	509.94
411.567	614.39
411.775	520.18
411.984	606.2
412.192	655.35
412.401	622.58
412.609	663.54
412.818	698.36
413.026	665.59
413.234	677.88
413.443	784.37
413.651	774.13
413.86	765.94
414.068	888.82
414.276	937.97
414.485	843.76
414.693	942.07
414.901	950.26
415.11	1009.65
415.318	1058.8
415.526	1056.75
415.734	1091.57
415.943	1023.98
416.151	1128.43
416.359	1269.74
416.567	1286.12
416.776	1257.45
416.984	1339.37
417.192	1388.52
417.4	1320.94
417.608	1341.42
417.817	1497.07
418.025	1507.31
418.233	1732.58
418.441	1642.47
418.649	1671.14
418.857	1828.84
419.065	1941.47
419.273	1785.83
419.481	1974.24
419.689	1978.34
419.897	2088.93
420.105	2058.21
420.313	2205.66
420.521	2314.2
420.729	2351.07
420.937	2369.5
421.145	2484.19
421.353	2631.64
421.561	2752.47
421.769	2686.93
421.977	2916.31
422.185	2891.73
422.393	2983.89
422.601	3260.37
422.809	3137.49
423.017	3207.12
423.224	3479.5
423.432	3532.75
423.64	3604.42
423.848	3844.04
424.056	3661.77
424.263	4014.02
424.471	4079.55
424.679	4026.31
424.887	4302.78
425.094	4364.22
425.302	4743.1
425.51	4667.32
425.718	4882.36
425.925	4872.12
426.133	5095.35
426.341	5244.85
426.548	5515.18
426.756	5648.3
426.964	5613.48
427.171	5816.23
427.379	6299.55
427.586	6356.89
427.794	6475.68
428.001	6723.48
428.209	6903.7
428.417	6696.86
428.624	7444.37
428.832	7243.67
429.039	7245.71
429.247	7282.58
429.454	8167.3
429.662	8505.21
429.869	7888.78
430.076	8658.81
430.284	8181.64
430.491	8681.34
430.699	9267.06
430.906	9080.69
431.114	9265.01
431.321	9707.37
431.528	9867.11
431.736	10157.92
431.943	10841.95
432.15	10555.23
432.358	10721.12
432.565	11284.31
432.772	11124.57
432.979	11892.55
433.187	11878.22
433.394	11894.6
433.601	12912.44
433.808	12771.13
434.016	12896.06
434.223	13176.63
434.43	14081.83
434.637	13932.33
434.844	14536.48
435.052	14982.94
435.259	14825.25
435.466	15032.09
435.673	14991.13
435.88	15720.21
436.087	16680.71
436.294	16652.03
436.501	16162.57
436.708	16500.48
436.915	17209.08
437.122	17807.09
437.329	17874.67
437.537	18351.85
437.743	18953.95
437.95	18538.21
438.157	19171.04
438.364	20147.92
438.571	20227.79
438.778	20324.04
438.985	22048.43
439.192	21462.71
439.399	21776.05
439.606	21487.29
439.813	22662.82
440.02	24200.85
440.227	23645.85
440.433	23367.32
440.64	24127.12
440.847	23950.99
441.054	24874.63
441.261	26009.2
441.467	25894.52
441.674	26037.87
441.881	26994.28
442.088	27364.96
442.294	26887.78
442.501	27455.07
442.708	28106.32
442.914	29220.42
443.121	30553.65
443.328	29589.05
443.534	31372.83
443.741	30793.26
443.948	30414.38
444.154	32669.2
444.361	32458.26
444.568	32718.35
444.774	32710.16
444.981	32763.4
445.187	33627.65
445.394	35251.69
445.6	35028.46
445.807	38204.86
446.013	36392.4
446.22	36754.9
446.426	38526.39
446.633	39118.25
446.839	40146.33
447.046	38426.04
447.252	40482.2
447.459	40394.14
447.665	40535.45
447.871	41973.12
448.078	43840.87
448.284	41848.19
448.491	43226.48
448.697	44481.88
448.903	45536.59
449.11	45497.67
449.316	44287.32
449.522	45430.09
449.728	46976.31
449.935	47197.49
450.141	47199.54
450.347	48094.5
450.553	46280
450.76	47375.66
450.966	49181.97
451.172	48074.02
451.378	49419.53
451.584	48176.42
451.791	49870.09
451.997	49245.46
452.203	49915.14
452.409	50453.76
452.615	49913.09
452.821	47977.76
453.027	47652.14
453.233	49739.02
453.44	48252.19
453.646	48418.08
453.852	48968.98
454.058	49734.92
454.264	48395.55
454.47	49540.36
454.676	47836.45
454.882	49829.13
455.088	45280.59
455.294	46269.76
455.5	46644.54
455.705	47289.65
455.911	45559.11
456.117	44320.09
456.323	44232.03
456.529	41907.58
456.735	43693.41
456.941	42845.55
457.147	41876.86
457.352	40631.7
457.558	40301.98
457.764	40441.24
457.97	39904.67
458.176	38796.72
458.381	38798.77
458.587	36939.21
458.793	36609.49
458.999	34948.59
459.204	37561.79
459.41	36994.51
459.616	34213.37
459.821	34264.57
460.027	34532.85
460.233	33635.84
460.438	31745.56
460.644	32441.87
460.85	30893.61
461.055	30144.05
461.261	30092.85
461.466	27745.88
461.672	27434.59
461.878	29122.12
462.083	27297.38
462.289	26738.28
462.494	26543.72
462.7	25425.53
462.905	24434.32
463.111	25665.14
463.316	25345.66
463.522	25089.67
463.727	24882.82
463.932	25423.48
464.138	24757.89
464.343	24854.15
464.549	24170.13
464.754	24821.38
464.959	24604.3
465.165	24354.44
465.37	23318.17
465.575	23070.37
465.781	23793.3
465.986	23551.64
466.191	22873.76
466.397	22601.38
466.602	21315.26
466.807	22394.54
467.012	22490.79
467.218	21870.26
467.423	21683.89
467.628	21872.31
467.833	23166.62
468.038	21964.46
468.244	21259.96
468.449	22122.16
468.654	21475
468.859	21284.54
469.064	21173.95
469.269	20434.63
469.474	20567.75
469.679	21147.33
469.885	20348.62
470.09	20860.61
470.295	20537.03
470.5	19644.12
470.705	20211.4
470.91	19660.5
471.115	19486.42
471.32	20195.02
471.525	19881.68
471.73	19314.39
471.935	19146.46
472.139	18431.72
472.344	18816.74
472.549	18609.89
472.754	18523.88
472.959	18040.56
473.164	17936.11
473.369	17417.97
473.574	18126.57
473.778	17946.35
473.983	17796.85
474.188	17694.45
474.393	16817.92
474.598	17104.64
474.802	16740.1
475.007	16740.1
475.212	16748.29
475.417	16158.47
475.621	16301.83
475.826	16146.19
476.031	15834.89
476.235	15613.71
476.44	15755.02
476.645	15388.44
476.849	15689.49
477.054	15101.72
477.259	14956.32
477.463	14657.31
477.668	14380.84
477.872	14886.68
478.077	14626.59
478.282	14133.03
478.486	14171.94
478.691	14063.4
478.895	14108.46
479.1	14173.99
479.304	14049.07
479.509	13555.51
479.713	13858.6
479.918	13344.56
480.122	13530.93
480.326	13582.13
480.531	13528.88
480.735	13346.61
480.94	13240.12
481.144	13739.82
481.348	12994.36
481.553	13168.44
481.757	13115.19
481.961	13076.28
482.166	13172.53
482.37	13215.54
482.574	12869.44
482.778	12869.44
482.983	13227.83
483.187	13152.06
483.391	13123.38
483.595	12918.59
483.8	12953.4
484.004	12838.72
484.208	13219.64
484.412	12996.41
484.616	12912.44
484.821	13037.37
485.025	12717.89
485.229	13111.1
485.433	12719.93
485.637	12740.41
485.841	12701.5
486.045	12877.63
486.249	13078.33
486.453	13076.28
486.657	12988.22
486.861	12980.03
487.065	12570.43
487.269	12844.86
487.473	12578.62
487.677	12830.52
487.881	13008.7
488.085	13004.6
488.289	12934.97
488.493	12830.52
488.697	12820.28
488.901	13018.94
489.105	12996.41
489.309	13217.59
489.512	13025.08
489.716	12957.5
489.92	13123.38
490.124	13291.32
490.328	13551.41
490.531	13000.51
490.735	13154.1
490.939	13336.37
491.143	13164.34
491.346	13076.28
491.55	13453.11
491.754	13164.34
491.958	13553.46
492.161	13520.69
492.365	13698.86
492.569	13606.7
492.772	13369.14
492.976	13690.67
493.18	13705.01
493.383	14090.02
493.587	14034.73
493.79	14210.86
493.994	14075.69
494.197	14204.71
494.401	14309.16
494.605	14270.25
494.808	14655.26
495.012	14573.35
495.215	14401.32
495.419	14894.88
495.622	14571.3
495.825	14851.87
496.029	14825.25
496.232	15200.02
496.436	14810.91
496.639	15376.15
496.843	15464.21
497.046	15869.71
497.249	16017.16
497.453	15953.68
497.656	16090.89
497.859	15898.38
498.063	16342.79
498.266	16779.01
498.469	16633.6
498.673	16758.53
498.876	17227.51
499.079	17145.59
499.282	16725.76
499.485	17923.82
499.689	17606.39
499.892	18097.9
500.095	17923.82
500.298	18433.77
500.501	18104.04
500.705	18716.39
500.908	18958.05
501.111	19343.06
501.314	19224.28
501.517	19306.2
501.72	19531.48
501.923	19746.51
502.126	20022.99
502.329	20356.81
502.532	20469.45
502.735	20534.98
502.938	20993.73
503.141	20848.32
503.344	21253.82
503.547	21348.03
503.75	21538.49
503.953	22060.72
504.156	22558.38
504.359	22314.67
504.562	22636.2
504.765	23023.26
504.968	23262.88
505.17	23295.64
505.373	23279.26
505.576	23750.29
505.779	24145.55
505.982	24239.76
506.185	24624.78
506.387	24614.54
506.59	25011.84
506.793	25337.47
506.996	25415.29
507.198	26013.3
507.401	25720.44
507.604	26224.24
507.807	26801.77
508.009	26879.59
508.212	27237.98
508.415	27348.57
508.617	27928.15
508.82	27735.64
509.022	27725.4
509.225	28485.2
509.428	28630.6
509.63	29017.67
509.833	29087.3
510.035	29746.75
510.238	29611.58
510.44	30082.61
510.643	30631.47
510.845	30686.76
511.048	30539.31
511.25	31020.58
511.453	31317.54
511.655	32452.11
511.858	31688.22
512.06	31919.64
512.262	32318.99
512.465	32505.36
512.667	33195.53
512.87	33254.92
513.072	33504.77
513.274	34270.71
513.477	34393.59
513.679	34582
513.881	35354.08
514.084	35003.88
514.286	35057.13
514.488	35499.49
514.69	36691.41
514.893	36507.09
515.095	36675.02
515.297	36992.46
515.499	37101
515.701	37670.34
515.904	37975.48
516.106	38090.17
516.308	38741.42
516.51	38948.27
516.712	39108.01
516.914	39038.38
517.116	39751.07
517.318	40127.9
517.52	40529.3
517.722	40629.65
517.925	41127.31
518.127	41590.15
518.329	41817.47
518.531	41713.03
518.733	42358.14
518.935	42481.02
519.136	42382.71
519.338	43066.73
519.54	43070.83
519.742	43677.03
519.944	43928.93
520.146	44752.21
520.348	45059.41
520.55	44987.73
520.752	45155.66
520.954	45591.88
521.155	45608.26
521.357	46048.58
521.559	46206.27
521.761	46566.71
521.963	46943.54
522.164	47385.9
522.366	47428.91
522.568	47824.17
522.77	48033.06
522.971	48598.3
523.173	48452.89
523.375	49032.47
523.576	49014.04
523.778	48956.69
523.98	49478.92
524.181	49952.01
524.383	49669.39
524.584	50488.57
524.786	50099.46
524.988	50181.38
525.189	50971.89
525.391	51021.05
525.592	51244.27
525.794	51426.54
525.995	51709.16
526.197	51999.97
526.398	51700.97
526.6	52358.37
526.801	52176.1
527.003	52348.13
527.204	52417.76
527.406	52802.78
527.607	52829.4
527.808	53107.93
528.01	52210.92
528.211	52878.55
528.412	53697.74
528.614	53476.56
528.815	54015.18
529.016	54090.95
529.218	53826.76
529.419	53927.11
529.62	54203.59
529.822	54080.71
530.023	54125.77
530.224	54453.44
530.425	54097.09
530.626	54260.93
530.828	53890.25
531.029	55372.98
531.23	54375.62
531.431	54512.83
531.632	54379.71
531.833	54736.06
532.035	54924.47
532.236	54668.48
532.437	54987.96
532.638	54676.67
532.839	54985.91
533.04	55033.02
533.241	54521.02
533.442	55692.46
533.643	55198.9
533.844	54893.75
534.045	55555.25
534.246	54844.6
534.447	55241.91
534.648	55166.13
534.849	55252.15
535.05	54949.05
535.251	55153.85
535.451	54985.91
535.652	55069.88
535.853	55078.07
536.054	55153.85
536.255	55663.79
536.456	54889.66
536.657	56126.63
536.857	54973.63
537.058	55057.59
537.259	55174.33
537.46	55235.77
537.66	55309.49
537.861	55221.43
538.062	55463.09
538.263	55121.08
538.463	55149.75
538.664	55454.9
538.865	55264.44
539.065	55743.66
539.266	54867.13
539.466	55266.48
539.667	54707.39
539.868	55211.19
540.068	55221.43
540.269	55268.53
540.469	55047.35
540.67	54719.68
540.87	54973.63
541.071	55166.13
541.271	55157.94
541.472	55129.27
541.672	54762.68
541.873	54725.82
542.073	54052.04
542.274	55618.74
542.474	54660.29
542.675	54486.21
542.875	54840.51
543.075	55045.3
543.276	54095.05
543.476	55119.03
543.676	54850.75
543.877	55286.96
544.077	54459.58
544.277	54791.36
544.478	54545.6
544.678	55055.54
544.878	54701.25
545.078	55022.78
545.279	54529.22
545.479	54807.74
545.679	55139.51
545.879	54785.21
546.079	54398.15
546.28	54062.28
546.48	53933.26
546.68	54498.5
546.88	54627.52
547.08	54736.06
547.28	54525.12
547.48	54136.01
547.68	54521.02
547.88	53963.98
548.081	54719.68
548.281	54469.82
548.481	54725.82
548.681	54580.42
548.881	54453.44
549.081	54195.4
549.28	54015.18
549.48	54815.93
549.68	53966.02
549.88	54555.84
550.08	54627.52
550.28	54523.07
550.48	53994.7
550.68	54506.69
550.88	54093
551.08	53927.11
551.279	54426.82
551.479	53472.46
551.679	54535.36
551.879	53841.1
552.079	53959.88
552.278	53863.63
552.478	53877.96
552.678	53966.02
552.878	53900.49
553.077	53923.02
553.277	53865.67
553.477	54457.54
553.676	53890.25
553.876	54035.66
554.076	53675.21
554.275	53925.07
554.475	53185.75
554.674	53806.28
554.874	53912.78
555.074	53587.15
555.273	53538
555.473	54129.86
555.672	53335.25
555.872	53150.93
556.071	53337.3
556.271	54166.73
556.47	53343.44
556.67	52860.12
556.869	53142.74
557.068	53279.95
557.268	53124.31
557.467	53335.25
557.667	52974.81
557.866	53357.78
558.065	53101.78
558.265	53046.49
558.464	52921.56
558.663	53116.12
558.863	52335.84
559.062	53531.86
559.261	52331.75
559.461	53277.91
559.66	52038.89
559.859	52743.39
560.058	52409.57
560.258	52702.43
560.457	51864.81
560.656	52438.24
560.855	52251.87
561.054	52135.14
561.253	52311.27
561.453	52370.66
561.652	52497.63
561.851	52307.17
562.05	51565.81
562.249	51743.98
562.448	52153.57
562.647	51832.04
562.846	51905.77
563.045	51580.14
563.244	51680.49
563.443	52174.05
563.642	50982.13
563.841	51477.74
564.04	51033.33
564.239	51852.52
564.438	51174.64
564.637	51057.91
564.836	51426.54
565.035	51125.49
565.234	50789.62
565.432	50865.4
565.631	50402.56
565.83	50828.54
566.029	50709.75
566.228	50547.96
566.427	50474.24
566.625	50134.27
566.824	49788.17
567.023	50478.33
567.222	49657.1
567.42	50464
567.619	50115.84
567.818	49710.35
568.016	49947.91
568.215	50011.4
568.414	49579.28
568.612	49831.18
568.811	49538.32
569.01	49612.04
569.208	48780.57
569.407	49569.04
569.605	48956.69
569.804	49321.23
570.002	49040.66
570.201	49302.8
570.4	48516.38
570.598	48788.76
570.797	48309.53
570.995	48618.78
571.193	48114.98
571.392	48792.86
571.59	47588.65
571.789	48391.45
571.987	47936.8
572.186	47926.56
572.384	47600.94
572.582	47977.76
572.781	47961.38
572.979	47160.62
573.177	47496.49
573.376	47615.27
573.574	47181.1
573.772	47648.04
573.971	47187.25
574.169	46984.5
574.367	46673.21
574.565	47398.19
574.763	46941.49
574.962	47052.08
575.16	46478.65
575.358	46216.51
575.556	46191.94
575.754	46800.18
575.952	45937.99
576.151	46273.85
576.349	45964.61
576.547	45794.63
576.745	46159.17
576.943	45964.61
577.141	45432.14
577.339	46206.27
577.537	45536.59
577.735	45301.07
577.933	44889.43
578.131	45286.73
578.329	44907.86
578.527	44858.71
578.725	44805.46
578.923	45290.83
579.121	44549.46
579.319	44598.62
579.516	44731.73
579.714	44551.51
579.912	44404.06
580.11	44309.85
580.308	43853.15
580.506	44256.6
580.704	43582.82
580.901	44082.53
581.099	44170.59
581.297	43652.45
581.495	43371.88
581.692	43695.46
581.89	43150.7
582.088	43734.37
582.285	43242.86
582.483	43337.07
582.681	43349.35
582.878	43132.27
583.076	42710.39
583.274	42679.67
583.471	42159.48
583.669	42415.48
583.866	42270.07
584.064	42759.54
584.262	41840
584.459	42536.31
584.657	42042.75
584.854	42245.5
585.052	41213.32
585.249	42157.44
585.447	42016.13
585.644	41137.55
585.841	41561.48
586.039	41682.31
586.236	40801.68
586.434	40959.37
586.631	41022.86
586.828	40684.95
587.026	40746.39
587.223	40732.05
587.42	40615.32
587.618	40574.36
587.815	40035.74
588.012	40269.21
588.21	40080.8
588.407	40347.03
588.604	39683.49
588.801	39361.96
588.999	39701.92
589.196	39564.71
589.393	39585.19
589.59	39458.21
589.787	39359.91
589.984	39407.01
590.182	38798.77
590.379	39349.67
590.576	38806.96
590.773	38899.12
590.97	38940.08
591.167	38682.03
591.364	37965.24
591.561	38493.62
591.758	38331.83
591.955	38174.14
592.152	38428.09
592.349	37928.38
592.546	38057.4
592.743	38157.75
592.94	37469.64
593.137	37537.22
593.334	37680.58
593.531	36998.6
593.727	37311.94
593.924	37193.16
594.121	36990.41
594.318	36947.4
594.515	36765.13
594.712	37420.48
594.908	36828.62
595.105	36896.2
595.302	36425.17
595.499	36187.61
595.696	36529.62
595.892	36154.84
596.089	36154.84
596.286	36320.73
596.482	35769.82
596.679	35782.11
596.876	35585.5
597.072	35671.52
597.269	35771.87
597.466	35274.21
597.662	35319.27
597.859	35020.27
598.055	35388.9
598.252	35161.58
598.448	34848.24
598.645	34723.31
598.841	34565.62
599.038	34874.86
599.234	34676.21
599.431	34340.34
599.627	34260.47
599.824	34553.33
600.02	34104.82
600.217	34385.4
600.413	33787.39
600.609	34051.58
600.806	34004.47
601.002	33871.36
601.198	33682.94
601.395	33445.38
601.591	33406.47
601.787	33355.27
601.984	33052.17
602.18	33512.96
602.376	32800.27
602.572	32765.45
602.769	33039.88
602.965	32544.27
603.161	32796.17
603.357	32247.32
603.553	32767.5
603.75	32345.62
603.946	31823.39
604.142	32359.95
604.338	31915.55
604.534	32042.52
604.73	31895.07
604.926	31548.96
605.122	32038.42
605.318	31284.77
605.514	31215.14
605.71	31434.27
605.906	31395.36
606.102	31413.79
606.298	31342.11
606.494	31112.74
606.69	30891.56
606.886	31106.6
607.082	31022.63
607.278	30993.96
607.474	30187.06
607.67	31129.12
607.866	30320.18
608.062	30891.56
608.257	30436.91
608.453	30557.74
608.649	30492.21
608.845	30133.81
609.041	30404.14
609.236	30500.4
609.432	30008.89
609.628	30381.62
609.824	30400.05
610.019	30010.93
610.215	30084.66
610.411	29828.66
610.606	29859.38
610.802	29574.72
610.998	29771.32
611.193	29410.88
611.389	29562.43
611.584	29572.67
611.78	29285.95
611.976	29474.37
612.171	29457.98
612.367	29261.38
612.562	29300.29
612.758	28808.78
612.953	28976.71
613.149	29183.55
613.344	29042.24
613.539	29148.74
613.735	28974.66
613.93	29122.12
614.126	28780.1
614.321	28935.75
614.517	28915.27
614.712	28638.79
614.907	28501.58
615.103	28724.81
615.298	28358.22
615.493	28892.74
615.688	28399.18
615.884	28628.56
616.079	28028.5
616.274	27940.44
616.47	28210.77
616.665	28356.18
616.86	28366.42
617.055	27934.29
617.25	27838.04
617.445	27915.86
617.641	27534.94
617.836	27577.95
618.031	27104.87
618.226	27928.15
618.421	27135.59
618.616	27741.78
618.811	27319.9
619.006	27129.44
619.201	27090.53
619.396	27328.1
619.591	26629.74
619.786	27055.72
619.981	26316.4
620.176	26549.87
620.371	26340.97
620.566	26498.67
620.761	26361.45
620.956	26332.78
621.151	25847.41
621.346	26316.4
621.541	25382.52
621.735	25898.61
621.93	25280.13
622.125	25360
622.32	25071.23
622.515	25159.3
622.709	25304.7
622.904	25124.48
623.099	25075.33
623.294	24833.67
623.488	24518.28
623.683	24575.62
623.878	24176.27
624.072	24561.29
624.267	24426.12
624.462	24059.54
624.656	23830.16
624.851	23592.6
625.046	23910.04
625.24	23617.18
625.435	23465.63
625.629	23262.88
625.824	23074.46
626.018	23148.19
626.213	22580.9
626.407	22660.77
626.602	22705.83
626.796	22754.98
626.991	22689.45
627.185	22462.12
627.38	22113.97
627.574	22247.08
627.768	21978.8
627.963	21837.49
628.157	21667.51
628.352	21620.41
628.546	21282.49
628.74	21448.38
628.935	21284.54
629.129	21395.13
629.323	20821.7
629.517	21018.3
629.712	20678.34
629.906	20979.39
630.1	20387.53
630.294	20549.32
630.489	20100.81
630.683	20463.3
630.877	20035.28
631.071	20059.85
631.265	20029.13
631.459	19910.35
631.653	20070.09
631.848	19744.47
632.042	19492.57
632.236	19824.34
632.43	19279.58
632.624	19427.03
632.818	19273.43
633.012	18949.85
633.206	18999.01
633.4	19074.78
633.594	18624.23
633.788	18626.28
633.982	18751.2
634.176	18851.55
634.369	18448.1
634.563	18509.54
634.757	18155.24
634.951	18265.83
635.145	18292.46
635.339	18357.99
635.533	17940.21
635.726	18056.94
635.92	17569.52
636.114	17866.48
636.308	17557.24
636.501	17614.58
636.695	17581.81
636.889	17288.95
637.083	17221.37
637.276	16924.41
637.47	17161.98
637.664	17194.75
637.857	16838.4
638.051	16807.68
638.244	16629.51
638.438	16598.79
638.632	16488.2
638.825	16615.17
639.019	16455.43
639.212	16205.58
639.406	16647.94
639.599	16039.69
639.793	16080.65
639.986	15968.01
640.18	15939.34
640.373	16113.42
640.567	15456.02
640.76	15671.06
640.954	15570.71
641.147	15603.47
641.34	15400.73
641.534	15501.08
641.727	15216.41
641.92	15372.05
642.114	15114.01
642.307	15204.12
642.5	15052.57
642.694	14634.78
642.887	14651.17
643.08	14757.66
643.273	14714.66
643.467	14614.3
643.66	14372.64
643.853	14499.62
644.046	14053.16
644.239	14370.6
644.432	14126.89
644.626	13905.71
644.819	13733.68
645.012	13983.53
645.205	14100.26
645.398	13889.32
645.591	13745.97
645.784	13442.87
645.977	13317.94
646.17	13659.95
646.363	13657.9
646.556	13246.26
646.749	13264.69
646.942	13363
647.135	13317.94
647.328	13084.47
647.521	12834.62
647.714	12830.52
647.907	12824.38
648.099	12934.97
648.292	12877.63
648.485	12721.98
648.678	12357.44
648.871	12379.97
649.064	12373.83
649.256	12541.76
649.449	12277.57
649.642	12144.45
649.835	12349.25
650.027	12238.66
650.22	12238.66
650.413	11925.32
650.605	12099.4
650.798	12197.7
650.991	11698
651.183	11921.23
651.376	11835.21
651.568	11767.63
651.761	11630.41
651.954	11558.74
652.146	11546.45
652.339	11677.52
652.531	11415.38
652.724	11374.42
652.916	11188.05
653.109	11198.29
653.301	11063.13
653.494	11056.98
653.686	10876.76
653.879	11179.86
654.071	11173.72
654.263	10725.21
654.456	10745.69
654.648	10927.96
654.84	10741.6
655.033	10667.87
655.225	10641.25
655.417	10479.46
655.61	10641.25
655.802	10415.97
655.994	10266.47
656.186	10438.5
656.379	10219.36
656.571	10370.91
656.763	10209.12
656.955	10172.26
657.148	10190.69
657.34	10039.14
657.532	9842.54
657.724	10004.33
657.916	9961.32
658.108	9799.53
658.3	9682.8
658.492	9690.99
658.684	9592.69
658.876	9398.13
659.068	9740.14
659.26	9727.85
659.452	9457.52
659.644	9430.9
659.836	9400.18
660.028	9484.14
660.22	9412.46
660.412	9254.77
660.604	9215.86
660.796	9113.46
660.988	9097.08
661.18	9002.87
661.372	9052.02
661.563	9064.31
661.755	8896.38
661.947	8654.72
662.139	8726.39
662.331	8810.36
662.522	8695.68
662.714	8734.59
662.906	8570.75
663.097	8587.13
663.289	8298.37
663.481	8742.78
663.673	8591.23
663.864	8521.6
664.056	8398.72
664.247	8378.24
664.439	8306.56
664.631	8259.46
664.822	8267.65
665.014	8230.79
665.205	8157.06
665.397	8134.53
665.588	8118.15
665.78	8118.15
665.971	8073.09
666.163	7817.1
666.354	7823.24
666.546	7950.21
666.737	7690.12
666.929	7870.34
667.12	7698.31
667.311	7647.12
667.503	7587.72
667.694	7790.47
667.885	7546.76
668.077	7675.79
668.268	7546.76
668.459	7417.74
668.651	7430.03
668.842	7585.68
669.033	7346.06
669.224	7450.51
669.416	7434.13
669.607	7323.54
669.798	7225.23
669.989	7438.22
670.18	7223.19
670.371	7085.97
670.563	7090.07
670.754	7030.68
670.945	7090.07
671.136	7071.64
671.327	6901.65
671.518	6959
671.709	6832.02
671.9	7006.1
672.091	6905.75
672.282	6836.12
672.473	6723.48
672.664	6950.81
672.855	6629.27
673.046	6854.55
673.237	6920.09
673.428	6700.95
673.619	6670.23
673.809	6725.53
674	6596.51
674.191	6625.18
674.382	6442.91
674.573	6651.8
674.764	6555.55
674.954	6737.82
675.145	6543.26
675.336	6342.56
675.527	6584.22
675.717	6471.58
675.908	6432.67
676.099	6545.31
676.289	6516.64
676.48	6424.48
676.671	6268.83
676.861	6287.26
677.052	6242.21
677.243	6283.17
677.433	5992.36
677.624	6305.7
677.814	6188.96
678.005	6131.62
678.195	6086.56
678.386	6213.54
678.576	6033.32
678.767	6070.18
678.957	6061.99
679.148	6064.04
679.338	5918.63
679.529	5994.4
679.719	5996.45
679.909	5992.36
680.1	5902.25
680.29	6031.27
680.481	5930.92
680.671	5892.01
680.861	5855.14
681.052	5851.05
681.242	5717.93
681.432	5832.61
681.622	5824.42
681.813	5902.25
682.003	5822.38
682.193	5664.68
682.383	5871.53
682.573	5740.46
682.764	5679.02
682.954	5627.82
683.144	5752.74
683.334	5599.15
683.524	5631.91
683.714	5668.78
683.904	5449.64
684.094	5537.71
684.284	5609.39
684.474	5648.3
684.664	5652.39
684.854	5375.92
685.044	5427.12
685.234	5449.64
685.424	5351.34
685.614	5533.61
685.804	5482.41
685.994	5361.58
686.184	5337.01
686.374	5394.35
686.564	5349.29
686.753	5443.5
686.943	5238.7
687.133	5242.8
687.323	5201.84
687.513	5109.68
687.702	5246.9
687.892	5105.59
688.082	5244.85
688.272	5158.83
688.461	4949.94
688.651	5021.62
688.841	5003.19
689.03	5066.67
689.22	4966.32
689.41	5033.91
689.599	4868.02
689.789	5015.48
689.979	4829.11
690.168	4972.47
690.358	4911.03
690.547	4784.05
690.737	4872.12
690.926	4833.21
691.116	4818.87
691.305	4835.25
691.495	4751.29
691.684	4808.63
691.874	4716.47
692.063	4652.98
692.252	4784.05
692.442	4759.48
692.631	4624.31
692.82	4548.54
693.01	4493.24
693.199	4741.05
693.388	4519.87
693.578	4298.69
693.767	4595.64
693.956	4704.18
694.146	4554.68
694.335	4345.79
694.524	4386.75
694.713	4394.94
694.902	4376.51
695.092	4294.59
695.281	4562.87
695.47	4372.41
695.659	4335.55
695.848	4480.96
696.037	4317.12
696.226	4423.61
696.415	4231.1
696.604	4274.11
696.793	4222.91
696.982	4212.67
697.171	4347.84
697.36	4190.14
697.549	4212.67
697.738	4188.1
697.927	4116.42
698.116	4124.61
698.305	4186.05
698.494	4270.01
698.683	4206.53
698.872	4280.25
699.061	4145.09
699.25	4022.21
699.438	4024.26
699.627	4104.13
699.816	4116.42
700.005	4059.07
700.193	4057.03
700.382	4050.88
700.571	4124.61
700.76	4114.37
700.948	4018.11
701.137	4040.64
701.326	3899.33
701.514	3966.92
701.703	4048.83
701.892	4044.74
702.08	3878.85
702.269	3979.2
702.457	3964.87
702.646	3999.68
702.834	3911.62
703.023	3835.85
703.212	3825.61
703.4	3919.81
703.589	3903.43
703.777	3907.52
703.965	3831.75
704.154	3821.51
704.342	3784.65
704.531	3669.96
704.719	3680.2
704.907	3837.89
705.096	3860.42
705.284	3936.2
705.472	3735.49
705.661	3751.88
705.849	3876.8
706.037	3852.23
706.226	3760.07
706.414	3751.88
706.602	3616.71
706.79	3753.93
706.979	3780.55
707.167	3598.28
707.355	3721.16
707.543	3686.34
707.731	3674.06
707.919	3725.26
708.107	3598.28
708.296	3723.21
708.484	3637.19
708.672	3659.72
708.86	3563.47
709.048	3661.77
709.236	3598.28
709.424	3655.62
709.612	3465.16
709.8	3547.08
709.988	3542.99
710.176	3461.07
710.364	3573.71
710.551	3577.8
710.739	3450.83
710.927	3524.55
711.115	3495.88
711.303	3538.89
711.491	3459.02
711.679	3459.02
711.866	3493.83
712.054	3418.06
712.242	3393.48
712.43	3499.98
712.617	3549.13
712.805	3491.79
712.993	3428.3
713.181	3442.64
713.368	3256.27
713.556	3330
713.744	3379.15
713.931	3375.05
714.119	3409.87
714.306	3465.16
714.494	3332.05
714.682	3223.5
714.869	3260.37
715.057	3522.51
715.244	3256.27
715.432	3299.28
715.619	3309.52
715.807	3227.6
715.994	3284.94
716.182	3366.86
716.369	3489.74
716.556	3250.13
716.744	3321.81
716.931	3305.42
717.119	3260.37
717.306	3114.96
717.493	3223.5
717.681	3219.41
717.868	3200.98
718.055	3348.43
718.242	3350.48
718.43	3223.5
718.617	3182.54
718.804	3194.83
718.991	3178.45
719.179	3114.96
719.366	3221.45
719.553	3170.26
719.74	3131.34
719.927	3229.65
720.114	3112.91
720.301	3080.14
720.488	3117.01
720.676	3088.34
720.863	3190.74
721.05	3102.67
721.237	3024.85
721.424	3102.67
721.611	3108.82
721.798	3008.47
721.985	3084.24
722.172	3035.09
722.358	2926.55
722.545	2957.27
722.732	3024.85
722.919	3131.34
723.106	3063.76
723.293	2965.46
723.48	2998.23
723.667	3006.42
723.853	2963.41
724.04	3014.61
724.227	3057.62
724.414	2883.54
724.6	2985.94
724.787	2990.03
724.974	2957.27
725.161	3033.04
725.347	3024.85
725.534	3006.42
725.72	3047.38
725.907	2949.07
726.094	2973.65
726.28	2891.73
726.467	2940.88
726.653	2879.44
726.84	2967.51
727.027	2998.23
727.213	2822.1
727.4	2815.96
727.586	2910.16
727.773	2930.64
727.959	2826.2
728.145	3074
728.332	2875.35
728.518	2844.63
728.705	2818
728.891	2910.16
729.077	2811.86
729.264	2875.35
729.45	2830.29
729.636	2951.12
729.823	2789.33
730.009	2949.07
730.195	2852.82
730.382	2779.09
730.568	2768.85
730.754	2744.28
730.94	2895.83
731.126	2895.83
731.313	2867.16
731.499	2797.53
731.685	2885.59
731.871	2781.14
732.057	2744.28
732.243	2852.82
732.429	2809.81
732.615	2789.33
732.801	2795.48
732.987	2705.37
733.173	2826.2
733.359	2758.61
733.545	2641.88
733.731	2662.36
733.917	2748.37
734.103	2680.79
734.289	2699.22
734.475	2881.49
734.661	2824.15
734.847	2738.13
735.033	2670.55
735.219	2660.31
735.404	2713.56
735.59	2621.4
735.776	2670.55
735.962	2770.9
736.148	2691.03
736.333	2637.78
736.519	2686.93
736.705	2719.7
736.89	2674.65
737.076	2588.63
737.262	2674.65
737.447	2580.44
737.633	2678.74
737.819	2680.79
738.004	2549.72
738.19	2617.3
738.375	2551.77
738.561	2670.55
738.747	2709.46
738.932	2506.71
739.118	2600.92
739.303	2576.34
739.489	2553.82
739.674	2539.48
739.859	2510.81
740.045	2473.95
740.23	2557.91
740.416	2457.56
740.601	2326.49
740.786	2516.95
740.972	2293.72
741.157	2516.95
741.342	2387.93
741.528	2480.09
741.713	2334.68
741.898	2416.6
742.084	2498.52
742.269	2478.04
742.454	2400.22
742.639	2418.65
742.824	2312.16
743.01	2400.22
743.195	2398.17
743.38	2289.63
743.565	2381.79
743.75	2353.12
743.935	2328.54
744.12	2310.11
744.305	2361.31
744.49	2244.57
744.675	2170.85
744.86	2195.42
745.045	2328.54
745.23	2101.22
745.415	2187.23
745.6	2295.77
745.785	2158.56
745.97	2244.57
746.155	2183.13
746.34	2107.36
746.525	2207.71
746.71	2152.42
746.895	2086.88
747.079	2129.89
747.264	2232.29
747.449	2129.89
747.634	2164.7
747.819	2041.82
748.003	2074.59
748.188	1974.24
748.373	2025.44
748.557	1976.29
748.742	2043.87
748.927	2015.2
749.111	2015.2
749.296	2004.96
749.481	1998.82
749.665	1900.51
749.85	1910.75
750.034	1937.38
750.219	1894.37
750.404	1941.47
750.588	1820.64
750.773	1837.03
750.957	1877.99
751.141	1869.8
751.326	1877.99
751.51	1865.7
751.695	1777.64
751.879	1753.06
752.064	1877.99
752.248	1802.21
752.432	1822.69
752.617	1794.02
752.801	1716.2
752.985	1724.39
753.17	1681.38
753.354	1712.1
753.538	1650.66
753.722	1712.1
753.907	1566.7
754.091	1568.74
754.275	1660.9
754.459	1591.27
754.643	1544.17
754.828	1593.32
755.012	1605.61
755.196	1462.25
755.38	1613.8
755.564	1581.03
755.748	1662.95
755.932	1540.07
756.116	1544.17
756.3	1499.11
756.484	1449.96
756.668	1443.82
756.852	1443.82
757.036	1482.73
757.22	1368.04
757.404	1327.08
757.588	1335.28
757.772	1396.71
757.956	1439.72
758.14	1394.67
758.323	1470.44
758.507	1484.78
758.691	1347.56
758.875	1400.81
759.059	1376.23
759.242	1376.23
759.426	1277.93
759.61	1355.76
759.794	1437.67
759.977	1310.7
760.161	1368.04
760.345	1314.8
760.528	1361.9
760.712	1273.84
760.895	1271.79
761.079	1226.73
761.263	1245.16
761.446	1132.53
761.63	1359.85
761.813	1322.99
761.997	1277.93
762.18	1241.07
762.364	1333.23
762.547	1202.16
762.731	1263.6
762.914	1261.55
763.098	1153.01
763.281	1071.09
763.464	1073.14
763.648	1269.74
763.831	1064.94
764.015	991.22
764.198	1204.21
764.381	1183.73
764.564	1236.97
764.748	1216.49
764.931	1167.34
765.114	1118.19
765.297	1110
765.481	1183.73
765.664	1075.18
765.847	1075.18
766.03	1138.67
766.213	1181.68
766.397	1134.57
766.58	1081.33
766.763	1023.98
766.946	1079.28
767.129	1097.71
767.312	952.31
767.495	1085.42
767.678	1052.66
767.861	1052.66
768.044	1042.42
768.227	1017.84
768.41	1007.6
768.593	966.64
768.776	1028.08
768.959	1056.75
769.142	1003.5
769.324	968.69
769.507	978.93
769.69	1048.56
769.873	987.12
770.056	1026.03
770.239	978.93
770.421	958.45
770.604	968.69
770.787	937.97
770.97	909.3
771.152	985.07
771.335	966.64
771.518	933.87
771.7	974.83
771.883	999.41
772.066	1003.5
772.248	876.53
772.431	1030.13
772.613	890.87
772.796	876.53
772.978	987.12
773.161	876.53
773.343	983.02
773.526	876.53
773.708	868.34
773.891	817.14
774.073	890.87
774.256	884.72
774.438	937.97
774.621	774.13
774.803	921.59
774.985	841.72
775.168	903.15
775.35	821.24
775.532	878.58
775.715	862.19
775.897	765.94
776.079	753.65
776.261	786.42
776.444	772.08
776.626	712.69
776.808	808.95
776.99	743.41
777.173	720.88
777.355	741.36
777.537	737.27
777.719	737.27
777.901	776.18
778.083	749.56
778.265	688.12
778.447	757.75
778.629	704.5
778.811	729.08
778.993	753.65
779.175	796.66
779.357	753.65
779.539	608.25
779.721	757.75
779.903	727.03
780.085	692.21
780.267	663.54
780.449	638.97
780.631	716.79
780.812	626.68
780.994	679.93
781.176	624.63
781.358	673.78
781.54	479.22
781.721	655.35
781.903	612.34
782.085	634.87
782.267	606.2
782.448	595.96
782.63	622.58
782.812	610.29
782.993	511.99
783.175	552.95
783.357	542.71
783.538	610.29
783.72	583.67
783.901	509.94
784.083	546.81
784.264	579.58
784.446	524.28
784.627	489.46
784.809	544.76
784.99	575.48
785.172	466.94
785.353	466.94
785.535	534.52
785.716	622.58
785.897	466.94
786.079	518.14
786.26	493.56
786.441	485.37
786.623	485.37
786.804	487.42
786.985	505.85
787.167	530.42
787.348	475.13
787.529	516.09
787.71	446.46
787.891	483.32
788.073	393.21
788.254	477.18
788.435	454.65
788.616	442.36
788.797	430.07
788.978	448.51
789.159	450.55
789.34	534.52
789.522	479.22
789.703	436.22
789.884	501.75
790.065	372.73
790.246	440.31
790.427	413.69
790.607	454.65
790.788	442.36
790.969	399.35
791.15	327.67
791.331	440.31
791.512	409.59
791.693	329.72
791.874	413.69
792.054	368.63
792.235	393.21
792.416	413.69
792.597	407.55
792.778	376.83
792.958	296.96
793.139	368.63
793.32	352.25
793.5	360.44
793.681	393.21
793.862	450.55
794.042	270.33
794.223	311.29
794.404	323.58
794.584	321.53
794.765	335.87
794.945	288.76
795.126	354.3
795.306	352.25
795.487	376.83
795.667	305.15
795.848	339.96
796.028	362.49
796.209	315.39
796.389	315.39
796.57	299
796.75	305.15
796.93	311.29
797.111	311.29
797.291	346.11
797.471	405.5
797.652	323.58
797.832	313.34
798.012	327.67
798.192	231.42
798.373	282.62
798.553	274.43
798.733	329.72
798.913	262.14
799.093	245.76
799.274	280.57
799.454	362.49
799.634	387.07
799.814	335.87
799.994	327.67
800.174	288.76
800.354	280.57
800.534	235.52
800.714	337.91
800.894	278.52
801.074	266.24
801.254	292.86
801.434	327.67
801.614	307.2
801.794	233.47
801.974	872.43
802.154	198.65
802.334	346.11
802.514	249.85
802.693	239.61
802.873	282.62
803.053	270.33
803.233	307.2
803.413	231.42
803.592	206.84
803.772	327.67
803.952	145.41
804.131	276.48
804.311	280.57
804.491	272.38
804.67	237.56
804.85	239.61
805.03	315.39
805.209	305.15
805.389	237.56
805.568	294.91
805.748	247.8
805.928	245.76
806.107	239.61
806.287	223.23
806.466	260.09
806.646	206.84
806.825	247.8
807.004	200.7
807.184	239.61
807.363	253.95
807.543	204.8
807.722	161.79
807.901	276.48
808.081	346.11
808.26	149.5
808.439	260.09
808.619	264.19
808.798	215.04
808.977	241.66
809.156	262.14
809.336	172.03
809.515	204.8
809.694	239.61
809.873	163.84
810.052	190.46
810.231	227.32
810.411	174.08
810.59	188.41
810.769	143.36
810.948	256
811.127	180.22
811.306	194.56
811.485	221.18
811.664	305.15
811.843	141.31
812.022	172.03
812.201	198.65
812.38	204.8
812.559	172.03
812.737	182.27
812.916	149.5
813.095	178.17
813.274	274.43
813.453	241.66
813.632	251.9
813.811	208.89
813.989	100.35
814.168	212.99
814.347	147.45
814.526	161.79
814.704	182.27
814.883	221.18
815.062	163.84
815.24	151.55
815.419	110.59
815.598	157.69
815.776	212.99
815.955	114.69
816.133	55.3
816.312	210.94
816.49	133.12
816.669	149.5
816.847	94.21
817.026	198.65
817.204	180.22
817.383	161.79
817.561	108.54
817.74	262.14
817.918	161.79
818.097	161.79
818.275	249.85
818.453	253.95
818.632	94.21
818.81	133.12
818.988	208.89
819.167	114.69
819.345	155.65
819.523	90.11
819.701	90.11
819.879	176.13
820.058	190.46
820.236	159.74
820.414	55.3
820.592	98.3
820.77	131.07
820.948	178.17
821.127	92.16
821.305	133.12
821.483	172.03
821.661	176.13
821.839	163.84
822.017	122.88
822.195	133.12
822.373	188.41
822.551	155.65
822.729	143.36
822.907	133.12
823.085	147.45
823.262	88.06
823.44	133.12
823.618	133.12
823.796	81.92
823.974	131.07
824.152	151.55
824.329	73.73
824.507	120.83
824.685	196.61
824.863	59.39
825.04	69.63
825.218	180.22
825.396	34.82
825.574	112.64
825.751	143.36
825.929	79.87
826.107	94.21
826.284	65.53
826.462	163.84
826.639	92.16
826.817	92.16
826.994	161.79
827.172	47.1
827.349	73.73
827.527	40.96
827.704	118.78
827.882	139.26
828.059	114.69
828.237	131.07
828.414	102.4
828.591	61.44
828.769	114.69
828.946	122.88
829.124	135.17
829.301	108.54
829.478	176.13
829.655	102.4
829.833	114.69
830.01	81.92
830.187	174.08
830.364	73.73
830.542	40.96
830.719	167.93
830.896	122.88
831.073	77.82
831.25	120.83
831.427	90.11
831.604	59.39
831.782	83.97
831.959	165.89
832.136	-4.1
832.313	122.88
832.49	77.82
832.667	106.49
832.844	59.39
833.021	108.54
833.198	69.63
833.374	110.59
833.551	145.41
833.728	63.49
833.905	92.16
834.082	81.92
834.259	116.73
834.436	200.7
834.612	38.91
834.789	165.89
834.966	135.17
835.143	110.59
835.319	122.88
835.496	98.3
835.673	40.96
835.85	151.55
836.026	81.92
836.203	114.69
836.38	53.25
836.556	32.77
836.733	81.92
836.909	92.16
837.086	98.3
837.262	57.34
837.439	53.25
837.616	100.35
837.792	10.24
837.968	141.31
838.145	14.34
838.321	90.11
838.498	67.58
838.674	131.07
838.851	49.15
839.027	81.92
839.203	77.82
839.38	114.69
839.556	16.38
839.732	83.97
839.909	129.02
840.085	135.17
840.261	47.1
840.437	65.53
840.614	81.92
840.79	108.54
840.966	90.11
841.142	86.01
841.318	-24.58
841.494	51.2
841.671	92.16
841.847	114.69
842.023	69.63
842.199	92.16
842.375	217.08
842.551	24.58
842.727	98.3
842.903	65.53
843.079	98.3
843.255	133.12
843.431	90.11
843.607	32.77
843.783	81.92
843.959	65.53
844.134	12.29
844.31	12.29
844.486	47.1
844.662	30.72
844.838	98.3
845.013	100.35
845.189	81.92
845.365	81.92
845.541	59.39
845.716	65.53
845.892	106.49
846.068	94.21
846.244	6.14
846.419	18.43
846.595	69.63
846.77	59.39
846.946	65.53
847.122	63.49
847.297	77.82
847.473	147.45
847.648	30.72
847.824	77.82
847.999	61.44
848.175	32.77
848.35	61.44
848.526	143.36
848.701	118.78
848.876	81.92
849.052	65.53
849.227	-10.24
849.403	16.38
849.578	32.77
849.753	61.44
849.929	65.53
850.104	-18.43
850.279	65.53
850.454	32.77
850.63	40.96
850.805	116.73
850.98	40.96
851.155	53.25
851.33	6.14
851.505	0
851.681	133.12
851.856	-8.19
852.031	26.62
852.206	28.67
852.381	47.1
852.556	79.87
852.731	81.92
852.906	102.4
853.081	61.44
853.256	34.82
853.431	-10.24
853.606	32.77
853.781	51.2
853.956	2.05
854.131	67.58
854.305	73.73
854.48	32.77
854.655	57.34
854.83	51.2
855.005	104.45
855.18	98.3
855.354	98.3
855.529	43.01
855.704	63.49
855.879	53.25
856.053	24.58
856.228	47.1
856.403	40.96
856.577	-12.29
856.752	24.58
856.926	-12.29
857.101	32.77
857.276	59.39
857.45	-6.14
857.625	57.34
857.799	14.34
857.974	51.2
858.148	-6.14
858.323	94.21
858.497	36.86
858.672	86.01
858.846	49.15
859.02	32.77
859.195	-4.1
859.369	-6.14
859.543	59.39
859.718	75.77
859.892	49.15
860.066	-6.14
860.241	-47.1
860.415	6.14
860.589	49.15
860.763	61.44
860.938	-59.39
861.112	30.72
861.286	6.14
861.46	34.82
861.634	104.45
861.808	6.14
861.982	83.97
862.157	57.34
862.331	49.15
862.505	24.58
862.679	61.44
862.853	-8.19
863.027	-26.62
863.201	24.58
863.375	-20.48
863.549	24.58
863.722	34.82
863.896	92.16
864.07	-81.92
864.244	-6.14
864.418	69.63
864.592	110.59
864.766	16.38
864.939	96.25
865.113	-2.05
865.287	26.62
865.461	30.72
865.634	0
865.808	32.77
865.982	30.72
866.156	40.96
866.329	-49.15
866.503	63.49
866.676	61.44
866.85	51.2
867.024	67.58
867.197	75.77
867.371	34.82
867.544	-18.43
867.718	32.77
867.891	61.44
868.065	20.48
868.238	40.96
868.412	90.11
868.585	53.25
868.759	-36.86
868.932	28.67
869.105	53.25
869.279	47.1
869.452	-30.72
869.625	28.67
869.799	67.58
869.972	-2.05
870.145	4.1
870.319	102.4
870.492	26.62
870.665	-8.19
870.838	-16.38
871.011	2.05
871.185	57.34
871.358	65.53
871.531	43.01
871.704	18.43
871.877	43.01
872.05	-2.05
872.223	51.2
872.396	-22.53
872.569	57.34
872.742	-57.34
872.915	34.82
873.088	59.39
873.261	0
873.434	40.96
873.607	20.48
873.78	6.14
873.953	28.67
874.126	10.24
874.299	61.44
874.471	8.19
874.644	106.49
874.817	10.24
874.99	34.82
875.163	34.82
875.335	67.58
875.508	0
875.681	34.82
875.853	100.35
876.026	102.4
876.199	-12.29
876.371	40.96
876.544	67.58
876.717	49.15
876.889	12.29
877.062	59.39
877.234	12.29
877.407	8.19
877.579	8.19
877.752	49.15
877.924	63.49
878.097	40.96
878.269	98.3
878.442	94.21
878.614	18.43
878.786	32.77
878.959	16.38
879.131	65.53
879.303	-47.1
879.476	26.62
879.648	65.53
879.82	57.34
879.993	-20.48
880.165	77.82
880.337	-36.86
880.509	18.43
880.681	57.34
880.854	45.06
881.026	10.24
881.198	112.64
881.37	-6.14
881.542	26.62
881.714	96.25
881.886	-30.72
882.058	-4.1
882.23	-38.91
882.402	-32.77
882.574	2.05
882.746	20.48
882.918	-14.34
883.09	18.43
883.262	77.82
883.434	8.19
883.606	30.72
883.778	8.19
883.95	61.44
884.122	71.68
884.293	155.65
884.465	-10.24
884.637	10.24
884.809	12.29
884.98	-14.34
885.152	71.68
885.324	18.43
885.496	-57.34
885.667	32.77
885.839	-12.29
886.011	26.62
886.182	-14.34
886.354	49.15
886.525	0
886.697	75.77
886.869	83.97
887.04	-28.67
887.212	26.62
887.383	124.93
887.555	12.29
887.726	69.63
887.897	4.1
888.069	-40.96
888.24	90.11
888.412	-14.34
888.583	12.29
888.754	4.1
888.926	-32.77
889.097	-40.96
889.268	-12.29
889.44	73.73
889.611	40.96
889.782	-12.29
889.953	-12.29
890.125	86.01
890.296	-40.96
890.467	24.58
890.638	-16.38
890.809	30.72
890.98	8.19
891.151	-53.25
891.323	106.49
891.494	32.77
891.665	14.34
891.836	63.49
892.007	-36.86
892.178	18.43
892.349	57.34
892.52	53.25
892.691	86.01
892.862	49.15
893.032	10.24
893.203	-30.72
893.374	75.77
893.545	8.19
893.716	-88.06
893.887	30.72
894.057	-6.14
894.228	59.39
894.399	8.19
894.57	10.24
894.74	-6.14
894.911	45.06
895.082	-14.34
895.253	2.05
895.423	-24.58
895.594	55.3
895.764	16.38
895.935	18.43
896.106	-10.24
896.276	43.01
896.447	34.82
896.617	12.29
896.788	-4.1
896.958	-8.19
897.129	90.11
897.299	-22.53
897.47	16.38
897.64	12.29
897.81	-34.82
897.981	55.3
898.151	-38.91
898.322	73.73
898.492	20.48
898.662	-86.01
898.832	-12.29
899.003	69.63
899.173	10.24
899.343	-8.19
899.513	-10.24
