Data from USB4F104151__264__14-22-48-817.txt Node

Date: Thu Mar 13 14:22:48 EDT 2025
User: louis
Spectrometer: USB4F10415
Trigger mode: 4
Integration Time (sec): 2.000000E-2
Scans to average: 1
Electric dark correction enabled: true
Nonlinearity correction enabled: false
Boxcar width: 0
XAxis mode: Wavelengths
Number of Pixels in Spectrum: 3648
>>>>>Begin Spectral Data<<<<<
178.204	-113.32
178.424	-113.32
178.644	-113.32
178.864	-94.89
179.084	-58.03
179.304	-23.21
179.524	-53.93
179.744	85.33
179.964	21.84
180.184	-21.16
180.404	34.13
180.624	-4.78
180.844	-15.02
181.064	-31.4
181.283	-39.59
181.503	-6.83
181.723	54.61
181.943	17.75
182.163	27.99
182.383	-58.03
182.602	42.32
182.822	81.24
183.042	34.13
183.262	75.09
183.482	13.65
183.701	-6.83
183.921	71
184.141	-76.46
184.361	17.75
184.58	-27.31
184.8	9.56
185.02	25.94
185.239	-6.83
185.459	-37.55
185.679	-21.16
185.898	-6.83
186.118	-37.55
186.338	-29.35
186.557	1.37
186.777	13.65
186.997	42.32
187.216	-39.59
187.436	42.32
187.655	-39.59
187.875	17.75
188.095	-6.83
188.314	91.48
188.534	54.61
188.753	27.99
188.973	3.41
189.192	93.52
189.412	-31.4
189.631	13.65
189.851	-6.83
190.07	62.8
190.29	54.61
190.509	42.32
190.729	-121.51
190.948	42.32
191.168	103.76
191.387	44.37
191.607	-25.26
191.826	-12.97
192.045	40.28
192.265	-47.79
192.484	-4.78
192.704	11.61
192.923	-47.79
193.142	11.61
193.362	5.46
193.581	-17.07
193.8	13.65
194.02	15.7
194.239	-43.69
194.458	109.91
194.678	-88.75
194.897	-31.4
195.116	-0.68
195.335	50.52
195.555	19.8
195.774	-19.11
195.993	-8.87
196.212	52.56
196.432	11.61
196.651	-12.97
196.87	-111.27
197.089	25.94
197.308	-23.21
197.528	9.56
197.747	-29.35
197.966	11.61
198.185	68.95
198.404	-47.79
198.623	36.18
198.842	-43.69
199.062	-72.36
199.281	-19.11
199.5	3.41
199.719	44.37
199.938	27.99
200.157	21.84
200.376	30.04
200.595	25.94
200.814	11.61
201.033	36.18
201.252	99.67
201.471	30.04
201.69	21.84
201.909	62.8
202.128	-15.02
202.347	1.37
202.566	-15.02
202.785	19.8
203.004	66.9
203.223	85.33
203.442	21.84
203.661	36.18
203.879	1.37
204.098	9.56
204.317	1.37
204.536	87.38
204.755	87.38
204.974	11.61
205.193	38.23
205.411	44.37
205.63	-0.68
205.849	-15.02
206.068	11.61
206.287	1.37
206.505	19.8
206.724	-15.02
206.943	-80.55
207.162	23.89
207.381	-27.31
207.599	9.56
207.818	46.42
208.037	-25.26
208.255	9.56
208.474	-6.83
208.693	17.75
208.911	38.23
209.13	-60.07
209.349	42.32
209.567	9.56
209.786	68.95
210.005	42.32
210.223	128.34
210.442	-19.11
210.661	25.94
210.879	9.56
211.098	23.89
211.316	21.84
211.535	36.18
211.753	38.23
211.972	27.99
212.191	-21.16
212.409	75.09
212.628	25.94
212.846	1.37
213.065	46.42
213.283	34.13
213.502	-96.94
213.72	66.9
213.938	19.8
214.157	19.8
214.375	1.37
214.594	-12.97
214.812	25.94
215.031	9.56
215.249	7.51
215.467	1.37
215.686	-45.74
215.904	7.51
216.122	46.42
216.341	71
216.559	36.18
216.778	25.94
216.996	21.84
217.214	52.56
217.432	-27.31
217.651	9.56
217.869	-23.21
218.087	101.72
218.306	-47.79
218.524	-27.31
218.742	-19.11
218.96	-21.16
219.179	68.95
219.397	42.32
219.615	120.15
219.833	60.76
220.051	-62.12
220.27	60.76
220.488	-19.11
220.706	50.52
220.924	21.84
221.142	13.65
221.36	3.41
221.578	52.56
221.796	-15.02
222.015	-76.46
222.233	19.8
222.451	50.52
222.669	7.51
222.887	9.56
223.105	27.99
223.323	1.37
223.541	50.52
223.759	11.61
223.977	27.99
224.195	60.76
224.413	-72.36
224.631	30.04
224.849	-76.46
225.067	116.05
225.285	-21.16
225.503	62.8
225.721	25.94
225.939	66.9
226.157	-8.87
226.375	101.72
226.592	-55.98
226.81	83.28
227.028	46.42
227.246	50.52
227.464	25.94
227.682	9.56
227.9	-6.83
228.117	42.32
228.335	-62.12
228.553	-45.74
228.771	17.75
228.989	21.84
229.206	-23.21
229.424	3.41
229.642	-6.83
229.86	-21.16
230.077	23.89
230.295	-29.35
230.513	58.71
230.731	13.65
230.948	36.18
231.166	-2.73
231.384	-23.21
231.601	17.75
231.819	71
232.037	62.8
232.254	-47.79
232.472	30.04
232.689	42.32
232.907	50.52
233.125	9.56
233.342	-27.31
233.56	-105.13
233.777	-19.11
233.995	-37.55
234.213	13.65
234.43	34.13
234.648	42.32
234.865	-49.83
235.083	-29.35
235.3	-10.92
235.518	46.42
235.735	19.8
235.953	-21.16
236.17	-35.5
236.388	64.85
236.605	40.28
236.822	19.8
237.04	13.65
237.257	-37.55
237.475	-0.68
237.692	42.32
237.909	-60.07
238.127	105.81
238.344	27.99
238.562	103.76
238.779	34.13
238.996	23.89
239.214	-23.21
239.431	34.13
239.648	23.89
239.865	-15.02
240.083	60.76
240.3	-4.78
240.517	7.51
240.735	-47.79
240.952	30.04
241.169	25.94
241.386	-12.97
241.603	-23.21
241.821	27.99
242.038	66.9
242.255	-15.02
242.472	-12.97
242.689	-10.92
242.907	-12.97
243.124	48.47
243.341	-0.68
243.558	-62.12
243.775	19.8
243.992	19.8
244.209	25.94
244.426	75.09
244.643	13.65
244.86	-37.55
245.078	56.66
245.295	30.04
245.512	-12.97
245.729	1.37
245.946	30.04
246.163	46.42
246.38	-10.92
246.597	25.94
246.814	109.91
247.031	1.37
247.248	-2.73
247.464	25.94
247.681	25.94
247.898	42.32
248.115	17.75
248.332	27.99
248.549	79.19
248.766	5.46
248.983	9.56
249.2	50.52
249.417	105.81
249.633	-39.59
249.85	19.8
250.067	-21.16
250.284	36.18
250.501	50.52
250.717	101.72
250.934	-15.02
251.151	34.13
251.368	25.94
251.585	-12.97
251.801	19.8
252.018	56.66
252.235	40.28
252.451	1.37
252.668	-55.98
252.885	66.9
253.102	38.23
253.318	-10.92
253.535	132.44
253.752	15.7
253.968	-47.79
254.185	-43.69
254.401	23.89
254.618	13.65
254.835	52.56
255.051	87.38
255.268	17.75
255.484	-12.97
255.701	-19.11
255.917	64.85
256.134	-64.17
256.351	34.13
256.567	-23.21
256.784	25.94
257	-37.55
257.217	7.51
257.433	44.37
257.65	25.94
257.866	-15.02
258.082	27.99
258.299	-27.31
258.515	60.76
258.732	7.51
258.948	5.46
259.165	50.52
259.381	-66.22
259.597	50.52
259.814	25.94
260.03	23.89
260.246	-31.4
260.463	46.42
260.679	19.8
260.895	7.51
261.112	-15.02
261.328	1.37
261.544	44.37
261.761	91.48
261.977	-4.78
262.193	5.46
262.409	9.56
262.626	25.94
262.842	30.04
263.058	-92.84
263.274	23.89
263.49	38.23
263.707	68.95
263.923	-47.79
264.139	-19.11
264.355	46.42
264.571	60.76
264.787	21.84
265.004	-4.78
265.22	54.61
265.436	-0.68
265.652	-35.5
265.868	15.7
266.084	-23.21
266.3	36.18
266.516	-41.64
266.732	66.9
266.948	-25.26
267.164	5.46
267.38	19.8
267.596	44.37
267.812	38.23
268.028	50.52
268.244	9.56
268.46	79.19
268.676	66.9
268.892	-6.83
269.108	-84.65
269.324	-72.36
269.54	-37.55
269.756	42.32
269.972	-31.4
270.188	17.75
270.403	-10.92
270.619	58.71
270.835	44.37
271.051	-21.16
271.267	-10.92
271.483	-33.45
271.698	-2.73
271.914	15.7
272.13	30.04
272.346	1.37
272.562	77.14
272.777	25.94
272.993	-51.88
273.209	-55.98
273.425	-60.07
273.64	-47.79
273.856	-45.74
274.072	13.65
274.287	-25.26
274.503	36.18
274.719	-27.31
274.934	-47.79
275.15	-39.59
275.366	38.23
275.581	91.48
275.797	58.71
276.012	11.61
276.228	40.28
276.444	-41.64
276.659	5.46
276.875	60.76
277.09	17.75
277.306	17.75
277.521	85.33
277.737	-0.68
277.952	17.75
278.168	50.52
278.383	-15.02
278.599	-72.36
278.814	3.41
279.03	62.8
279.245	34.13
279.461	-53.93
279.676	75.09
279.892	-39.59
280.107	-2.73
280.322	-55.98
280.538	50.52
280.753	-21.16
280.969	75.09
281.184	-15.02
281.399	52.56
281.615	11.61
281.83	40.28
282.045	15.7
282.26	-37.55
282.476	-17.07
282.691	1.37
282.906	66.9
283.122	60.76
283.337	68.95
283.552	-6.83
283.767	50.52
283.983	85.33
284.198	36.18
284.413	3.41
284.628	9.56
284.843	118.1
285.058	-60.07
285.274	-111.27
285.489	17.75
285.704	60.76
285.919	-0.68
286.134	17.75
286.349	13.65
286.564	56.66
286.779	83.28
286.995	58.71
287.21	5.46
287.425	-64.17
287.64	-60.07
287.855	11.61
288.07	-70.31
288.285	107.86
288.5	103.76
288.715	50.52
288.93	21.84
289.145	42.32
289.36	75.09
289.575	27.99
289.79	27.99
290.004	9.56
290.219	66.9
290.434	-39.59
290.649	64.85
290.864	-23.21
291.079	-33.45
291.294	21.84
291.509	52.56
291.724	-47.79
291.938	7.51
292.153	34.13
292.368	-2.73
292.583	17.75
292.798	62.8
293.012	38.23
293.227	50.52
293.442	38.23
293.657	17.75
293.871	19.8
294.086	-8.87
294.301	44.37
294.516	34.13
294.73	-6.83
294.945	-21.16
295.16	34.13
295.374	122.2
295.589	44.37
295.804	-12.97
296.018	46.42
296.233	34.13
296.447	36.18
296.662	-27.31
296.877	21.84
297.091	48.47
297.306	17.75
297.52	-53.93
297.735	101.72
297.949	-31.4
298.164	19.8
298.378	68.95
298.593	-15.02
298.807	79.19
299.022	9.56
299.236	-60.07
299.451	-29.35
299.665	-31.4
299.88	3.41
300.094	48.47
300.309	21.84
300.523	60.76
300.737	-21.16
300.952	-45.74
301.166	27.99
301.381	17.75
301.595	-12.97
301.809	11.61
302.024	-15.02
302.238	25.94
302.452	13.65
302.667	-23.21
302.881	-4.78
303.095	-6.83
303.309	99.67
303.524	38.23
303.738	-15.02
303.952	36.18
304.166	83.28
304.381	-53.93
304.595	62.8
304.809	27.99
305.023	1.37
305.237	-23.21
305.452	27.99
305.666	19.8
305.88	73.04
306.094	5.46
306.308	-21.16
306.522	9.56
306.736	-23.21
306.95	15.7
307.164	27.99
307.379	-19.11
307.593	17.75
307.807	-0.68
308.021	25.94
308.235	48.47
308.449	-2.73
308.663	30.04
308.877	91.48
309.091	56.66
309.305	27.99
309.519	-55.98
309.733	1.37
309.947	-47.79
310.161	54.61
310.374	83.28
310.588	3.41
310.802	-15.02
311.016	13.65
311.23	34.13
311.444	5.46
311.658	99.67
311.872	21.84
312.085	83.28
312.299	15.7
312.513	9.56
312.727	11.61
312.941	34.13
313.154	1.37
313.368	-49.83
313.582	21.84
313.796	34.13
314.009	50.52
314.223	34.13
314.437	1.37
314.651	32.08
314.864	42.32
315.078	-21.16
315.292	54.61
315.505	-4.78
315.719	-27.31
315.933	5.46
316.146	13.65
316.36	-4.78
316.573	-31.4
316.787	42.32
317.001	116.05
317.214	-15.02
317.428	68.95
317.641	42.32
317.855	17.75
318.068	93.52
318.282	58.71
318.495	27.99
318.709	42.32
318.922	68.95
319.136	30.04
319.349	3.41
319.563	-27.31
319.776	-8.87
319.99	-62.12
320.203	-15.02
320.417	5.46
320.63	23.89
320.843	87.38
321.057	32.08
321.27	-62.12
321.483	58.71
321.697	-29.35
321.91	25.94
322.124	-19.11
322.337	21.84
322.55	56.66
322.763	-23.21
322.977	-51.88
323.19	-12.97
323.403	-25.26
323.617	73.04
323.83	101.72
324.043	-0.68
324.256	38.23
324.469	13.65
324.683	60.76
324.896	-64.17
325.109	23.89
325.322	-12.97
325.535	44.37
325.748	52.56
325.962	-19.11
326.175	66.9
326.388	46.42
326.601	42.32
326.814	-4.78
327.027	-45.74
327.24	138.58
327.453	34.13
327.666	58.71
327.879	73.04
328.092	52.56
328.305	25.94
328.518	-31.4
328.731	-23.21
328.944	34.13
329.157	17.75
329.37	-41.64
329.583	60.76
329.796	36.18
330.009	-55.98
330.222	1.37
330.435	-15.02
330.648	89.43
330.861	38.23
331.073	19.8
331.286	50.52
331.499	-31.4
331.712	9.56
331.925	25.94
332.138	-55.98
332.35	-6.83
332.563	-15.02
332.776	-2.73
332.989	-31.4
333.202	-4.78
333.414	21.84
333.627	17.75
333.84	42.32
334.053	-4.78
334.265	25.94
334.478	54.61
334.691	40.28
334.903	54.61
335.116	5.46
335.329	17.75
335.541	-15.02
335.754	36.18
335.966	9.56
336.179	21.84
336.392	58.71
336.604	66.9
336.817	25.94
337.029	68.95
337.242	5.46
337.454	38.23
337.667	3.41
337.88	109.91
338.092	9.56
338.305	79.19
338.517	68.95
338.729	62.8
338.942	13.65
339.154	-39.59
339.367	3.41
339.579	58.71
339.792	-10.92
340.004	44.37
340.217	40.28
340.429	-70.31
340.641	-47.79
340.854	17.75
341.066	-12.97
341.278	-6.83
341.491	66.9
341.703	21.84
341.915	-43.69
342.128	58.71
342.34	19.8
342.552	19.8
342.764	64.85
342.977	19.8
343.189	-86.7
343.401	27.99
343.613	5.46
343.826	15.7
344.038	30.04
344.25	-39.59
344.462	25.94
344.674	25.94
344.886	-29.35
345.099	25.94
345.311	56.66
345.523	-27.31
345.735	42.32
345.947	1.37
346.159	27.99
346.371	40.28
346.583	34.13
346.795	116.05
347.007	17.75
347.219	-6.83
347.431	-25.26
347.643	60.76
347.855	-17.07
348.067	101.72
348.279	-64.17
348.491	-17.07
348.703	44.37
348.915	-12.97
349.127	19.8
349.339	-74.41
349.551	13.65
349.763	71
349.975	50.52
350.187	-2.73
350.399	-4.78
350.61	-29.35
350.822	27.99
351.034	83.28
351.246	62.8
351.458	17.75
351.669	-37.55
351.881	34.13
352.093	60.76
352.305	-51.88
352.517	38.23
352.728	79.19
352.94	5.46
353.152	21.84
353.363	-4.78
353.575	-29.35
353.787	9.56
353.999	9.56
354.21	52.56
354.422	-39.59
354.633	25.94
354.845	17.75
355.057	-0.68
355.268	34.13
355.48	-17.07
355.692	-15.02
355.903	-21.16
356.115	3.41
356.326	-62.12
356.538	91.48
356.749	46.42
356.961	52.56
357.172	-35.5
357.384	1.37
357.595	56.66
357.807	91.48
358.018	-29.35
358.23	-15.02
358.441	91.48
358.653	25.94
358.864	85.33
359.075	5.46
359.287	-4.78
359.498	17.75
359.709	50.52
359.921	27.99
360.132	3.41
360.344	42.32
360.555	-29.35
360.766	17.75
360.977	1.37
361.189	42.32
361.4	-27.31
361.611	-6.83
361.823	91.48
362.034	13.65
362.245	-23.21
362.456	52.56
362.667	71
362.879	44.37
363.09	42.32
363.301	34.13
363.512	34.13
363.723	-6.83
363.935	1.37
364.146	21.84
364.357	-23.21
364.568	13.65
364.779	9.56
364.99	17.75
365.201	17.75
365.412	87.38
365.623	-12.97
365.834	50.52
366.045	34.13
366.256	-55.98
366.467	27.99
366.678	32.08
366.889	-23.21
367.1	58.71
367.311	42.32
367.522	17.75
367.733	44.37
367.944	7.51
368.155	44.37
368.366	99.67
368.577	-41.64
368.788	54.61
368.999	-17.07
369.209	60.76
369.42	-8.87
369.631	91.48
369.842	93.52
370.053	11.61
370.264	7.51
370.474	-2.73
370.685	34.13
370.896	21.84
371.107	66.9
371.317	50.52
371.528	1.37
371.739	-21.16
371.95	83.28
372.16	73.04
372.371	-21.16
372.582	-12.97
372.792	-64.17
373.003	54.61
373.214	7.51
373.424	42.32
373.635	42.32
373.846	52.56
374.056	-88.75
374.267	25.94
374.477	-6.83
374.688	83.28
374.898	52.56
375.109	17.75
375.319	58.71
375.53	38.23
375.74	66.9
375.951	-19.11
376.161	-35.5
376.372	75.09
376.582	-17.07
376.793	42.32
377.003	3.41
377.214	-74.41
377.424	27.99
377.635	-31.4
377.845	42.32
378.055	75.09
378.266	17.75
378.476	32.08
378.686	19.8
378.897	-27.31
379.107	21.84
379.317	38.23
379.528	23.89
379.738	-35.5
379.948	58.71
380.158	46.42
380.369	11.61
380.579	36.18
380.789	68.95
380.999	-2.73
381.21	50.52
381.42	109.91
381.63	36.18
381.84	-25.26
382.05	-51.88
382.261	11.61
382.471	30.04
382.681	52.56
382.891	-6.83
383.101	34.13
383.311	-31.4
383.521	71
383.731	7.51
383.941	-6.83
384.151	52.56
384.361	17.75
384.571	9.56
384.781	42.32
384.991	44.37
385.201	83.28
385.411	27.99
385.621	25.94
385.831	-23.21
386.041	107.86
386.251	75.09
386.461	7.51
386.671	-35.5
386.881	83.28
387.091	50.52
387.301	83.28
387.511	42.32
387.72	99.67
387.93	56.66
388.14	9.56
388.35	36.18
388.56	23.89
388.769	91.48
388.979	1.37
389.189	-21.16
389.399	34.13
389.609	15.7
389.818	75.09
390.028	30.04
390.238	-2.73
390.447	34.13
390.657	21.84
390.867	-4.78
391.076	52.56
391.286	48.47
391.496	36.18
391.705	-25.26
391.915	21.84
392.125	62.8
392.334	17.75
392.544	58.71
392.753	46.42
392.963	-19.11
393.172	91.48
393.382	25.94
393.591	114
393.801	48.47
394.01	34.13
394.22	34.13
394.429	54.61
394.639	32.08
394.848	38.23
395.058	73.04
395.267	58.71
395.477	152.91
395.686	42.32
395.895	132.44
396.105	34.13
396.314	42.32
396.524	58.71
396.733	23.89
396.942	93.52
397.152	38.23
397.361	50.52
397.57	42.32
397.78	154.96
397.989	42.32
398.198	103.76
398.407	25.94
398.617	54.61
398.826	58.71
399.035	58.71
399.244	19.8
399.453	77.14
399.663	34.13
399.872	62.8
400.081	95.57
400.29	89.43
400.499	42.32
400.708	142.68
400.917	60.76
401.127	58.71
401.336	32.08
401.545	120.15
401.754	91.48
401.963	99.67
402.172	107.86
402.381	103.76
402.59	42.32
402.799	107.86
403.008	27.99
403.217	144.72
403.426	75.09
403.635	27.99
403.844	93.52
404.053	68.95
404.262	142.68
404.471	126.29
404.68	38.23
404.888	128.34
405.097	148.82
405.306	126.29
405.515	148.82
405.724	48.47
405.933	132.44
406.142	116.05
406.35	58.71
406.559	140.63
406.768	107.86
406.977	134.48
407.185	73.04
407.394	165.2
407.603	107.86
407.812	191.83
408.02	185.68
408.229	152.91
408.438	152.91
408.646	107.86
408.855	171.35
409.064	259.41
409.272	105.81
409.481	128.34
409.69	116.05
409.898	148.82
410.107	230.74
410.315	189.78
410.524	148.82
410.733	197.97
410.941	249.17
411.15	277.84
411.358	222.55
411.567	286.03
411.775	232.79
411.984	304.46
412.192	281.94
412.401	419.15
412.609	345.42
412.818	310.61
413.026	388.43
413.234	367.95
413.443	372.05
413.651	363.86
413.86	312.66
414.068	435.53
414.276	370
414.485	517.45
414.693	468.3
414.901	410.96
415.11	513.36
415.318	492.88
415.526	507.21
415.734	503.12
415.943	587.08
416.151	460.11
416.359	550.22
416.567	640.33
416.776	531.79
416.984	595.28
417.192	666.96
417.4	664.91
417.608	699.72
417.817	648.52
418.025	785.74
418.233	808.26
418.441	714.06
418.649	838.98
418.857	841.03
419.065	742.73
419.273	836.94
419.481	945.48
419.689	912.71
419.897	1031.49
420.105	1013.06
420.313	994.63
420.521	1021.25
420.729	1062.21
420.937	1238.34
421.145	1148.23
421.353	1232.19
421.561	1291.59
421.769	1322.31
421.977	1385.79
422.185	1336.64
422.393	1484.09
422.601	1584.45
422.809	1566.01
423.017	1467.71
423.224	1572.16
423.432	1570.11
423.64	1680.7
423.848	1793.34
424.056	1715.52
424.263	1912.12
424.471	1811.77
424.679	1934.65
424.887	2065.72
425.094	1975.61
425.302	2067.77
425.51	2133.3
425.718	2184.5
425.925	2260.27
426.133	2405.68
426.341	2475.31
426.548	2592.05
426.756	2555.18
426.964	2606.38
427.171	2762.03
427.379	2741.55
427.586	2856.23
427.794	2878.76
428.001	3140.9
428.209	3173.67
428.417	3204.39
428.624	3427.62
428.832	3472.67
429.039	3384.61
429.247	3386.66
429.454	3726.62
429.662	4070.68
429.869	3712.28
430.076	4078.87
430.284	3837.21
430.491	3929.37
430.699	4263.19
430.906	4365.59
431.114	4416.79
431.321	4590.86
431.528	4515.09
431.736	4723.98
431.943	5025.03
432.15	4805.9
432.358	4939.02
432.565	5270.79
432.772	5127.43
432.979	5534.98
433.187	5582.08
433.394	5491.97
433.601	6145.27
433.808	6147.32
434.016	6001.91
434.223	6294.77
434.43	6507.76
434.637	6450.42
434.844	6931.69
435.052	7019.75
435.259	7113.96
435.466	6956.27
435.673	6948.08
435.88	7329
436.087	7740.64
436.294	7646.43
436.501	7529.7
436.708	7752.93
436.915	8105.18
437.122	8258.78
437.329	8350.93
437.537	8613.07
437.743	9002.19
437.95	8518.87
438.157	9276.62
438.364	9413.83
438.571	9512.13
438.778	9344.2
438.985	10407.09
439.192	9964.73
439.399	10362.04
439.606	10011.84
439.813	10585.27
440.02	11435.17
440.227	10962.09
440.433	10812.59
440.64	11263.15
440.847	11293.86
441.054	11472.04
441.261	12309.66
441.467	12031.13
441.674	12381.34
441.881	12706.96
442.088	12614.8
442.294	12739.73
442.501	12782.74
442.708	13169.8
442.914	13749.38
443.121	14263.42
443.328	14015.62
443.534	14759.03
443.741	14320.76
443.948	14263.42
444.154	15357.03
444.361	15103.09
444.568	15144.05
444.774	15160.43
444.981	15531.11
445.187	15860.84
445.394	16538.71
445.6	16016.48
445.807	17896.52
446.013	17351.76
446.22	17286.22
446.426	18183.23
446.633	18261.05
446.839	18760.76
447.046	18074.69
447.252	19123.25
447.459	19041.33
447.665	19133.49
447.871	19770.41
448.078	20581.4
448.284	19981.35
448.491	20476.96
448.697	21146.64
448.903	21410.83
449.11	21771.27
449.316	21343.25
449.522	21566.48
449.728	22449.15
449.935	22203.39
450.141	22246.4
450.347	22950.9
450.553	21982.21
450.76	22270.98
450.966	23249.91
451.172	23047.16
451.378	23452.66
451.584	22868.98
451.791	23634.92
451.997	23649.26
452.203	23960.55
452.409	24079.33
452.615	23890.92
452.821	22955
453.027	22625.28
453.233	24003.56
453.44	22899.7
453.646	23221.24
453.852	23409.65
454.058	23729.13
454.264	23145.46
454.47	23745.51
454.676	22950.9
454.882	23722.99
455.088	21597.2
455.294	22408.19
455.5	22524.93
455.705	22553.6
455.911	21793.8
456.117	21453.84
456.323	20999.19
456.529	19993.64
456.735	21046.29
456.941	20091.94
457.147	19932.2
457.352	19581.99
457.558	19266.61
457.764	19438.64
457.97	19172.4
458.176	18635.83
458.381	18541.63
458.587	17558.6
458.793	17822.79
458.999	16884.82
459.204	18244.67
459.41	17177.68
459.616	16440.41
459.821	16612.44
460.027	16530.52
460.233	16125.02
460.438	15027.31
460.644	15576.17
460.85	14744.69
461.055	14447.74
461.261	14634.1
461.466	13233.29
461.672	13094.03
461.878	13960.32
462.083	13044.88
462.289	12848.27
462.494	12600.47
462.7	12020.89
462.905	11654.31
463.111	12297.37
463.316	12061.85
463.522	11838.62
463.727	11986.08
463.932	11848.86
464.138	11842.72
464.343	11758.75
464.549	11343.02
464.754	11730.08
464.959	11510.95
465.165	11713.7
465.37	11318.44
465.575	11130.03
465.781	11242.67
465.986	11340.97
466.191	10937.52
466.397	10646.71
466.602	10372.28
466.807	10593.46
467.012	10724.53
467.218	10693.81
467.423	10376.38
467.628	10679.47
467.833	10822.83
468.038	10429.62
468.244	10024.12
468.449	10501.3
468.654	10292.41
468.859	10046.65
469.064	10171.58
469.269	9827.52
469.474	10020.03
469.679	10003.64
469.885	9635.01
470.09	9927.87
470.295	9798.85
470.5	9462.98
470.705	9340.1
470.91	9233.61
471.115	9354.44
471.32	9456.84
471.525	9372.87
471.73	9252.04
471.935	9385.16
472.139	8791.25
472.344	9143.5
472.549	8971.47
472.754	8905.93
472.959	8606.93
473.164	8477.91
473.369	8463.57
473.574	8676.56
473.778	8557.78
473.983	8416.47
474.188	8266.97
474.393	8045.79
474.598	8119.51
474.802	8107.23
475.007	7898.33
475.212	7976.16
475.417	7714.02
475.621	7775.45
475.826	7744.74
476.031	7394.53
476.235	7544.03
476.44	7541.99
476.645	7486.69
476.849	7259.37
477.054	7365.86
477.259	7042.28
477.463	7320.81
477.668	7181.54
477.872	6993.13
478.077	6997.23
478.282	6882.54
478.486	6810.86
478.691	6810.86
478.895	6759.66
479.1	6761.71
479.304	6728.94
479.509	6448.37
479.713	6708.46
479.918	6450.42
480.122	6507.76
480.326	6434.04
480.531	6530.29
480.735	6335.73
480.94	6255.86
481.144	6540.53
481.348	6354.16
481.553	6143.22
481.757	5952.76
481.961	6175.99
482.166	6253.81
482.37	6143.22
482.574	6096.12
482.778	6141.18
482.983	6063.35
483.187	6194.42
483.391	6243.57
483.595	6057.21
483.8	6161.66
484.004	6165.75
484.208	6106.36
484.412	6155.51
484.616	6042.87
484.821	6044.92
485.025	6137.08
485.229	6384.88
485.433	6245.62
485.637	6094.07
485.841	6104.31
486.045	6178.04
486.249	6251.77
486.453	6089.98
486.657	6018.3
486.861	6059.26
487.065	5965.05
487.269	6194.42
487.473	6044.92
487.677	6266.1
487.881	6206.71
488.085	6153.46
488.289	6253.81
488.493	6087.93
488.697	6259.96
488.901	6161.66
489.105	6102.26
489.309	6065.4
489.512	6173.94
489.716	5965.05
489.92	5948.67
490.124	6208.76
490.328	6339.83
490.531	5872.89
490.735	6278.39
490.939	6159.61
491.143	6194.42
491.346	6321.4
491.55	6440.18
491.754	6501.62
491.958	6425.84
492.161	6444.27
492.365	6479.09
492.569	6497.52
492.772	6440.18
492.976	6434.04
493.18	6481.14
493.383	6599.92
493.587	6507.76
493.79	6685.94
493.994	6622.45
494.197	6726.89
494.401	6866.16
494.605	6821.1
494.808	6780.14
495.012	6917.36
495.215	6849.77
495.419	6978.79
495.622	6931.69
495.825	7017.71
496.029	7105.77
496.232	7382.24
496.436	7136.49
496.639	7285.99
496.843	7369.96
497.046	7554.27
497.249	7415.01
497.453	7521.51
497.656	7634.14
497.859	7458.02
498.063	7662.82
498.266	8039.64
498.469	7793.89
498.673	8021.21
498.876	8258.78
499.079	8041.69
499.282	8049.88
499.485	8215.77
499.689	8307.93
499.892	8395.99
500.095	8531.16
500.298	8785.1
500.501	8740.05
500.705	8948.94
500.908	8873.17
501.111	8852.69
501.314	9094.35
501.517	9145.55
501.72	9346.25
501.923	9202.89
502.126	9612.48
502.329	9718.98
502.532	9737.41
502.735	9725.12
502.938	9872.57
503.141	9802.94
503.344	10024.12
503.547	10194.11
503.75	10323.13
503.953	10532.02
504.156	10527.92
504.359	10550.45
504.562	10564.79
504.765	10939.57
504.968	11144.36
505.17	11173.03
505.373	11017.39
505.576	11257
505.779	11363.5
505.982	11328.68
506.185	11664.55
506.387	11664.55
506.59	11691.17
506.793	11961.5
506.996	11977.89
507.198	12516.5
507.401	12256.41
507.604	12268.7
507.807	12555.41
508.009	12756.11
508.212	12852.37
508.415	13096.08
508.617	13083.79
508.82	13366.41
509.022	13116.56
509.225	13786.24
509.428	13374.6
509.63	13503.62
509.833	13622.41
510.035	14179.45
510.238	13927.55
510.44	14214.27
510.643	14453.88
510.845	14611.57
511.048	14451.83
511.25	14736.5
511.453	14707.83
511.655	15291.5
511.858	15258.73
512.06	15221.87
512.262	15541.35
512.465	15408.23
512.667	15690.85
512.87	15785.06
513.072	15942.75
513.274	16161.89
513.477	16313.44
513.679	16274.52
513.881	16534.62
514.084	16626.78
514.286	16690.26
514.488	16733.27
514.69	17265.74
514.893	17470.54
515.095	17411.15
515.297	17572.94
515.499	17724.49
515.701	17998.91
515.904	18148.42
516.106	18385.98
516.308	18283.58
516.51	18650.17
516.712	18750.52
516.914	18674.74
517.116	19018.8
517.318	19039.28
517.52	19334.19
517.722	19493.93
517.925	19434.54
518.127	19891.24
518.329	20024.36
518.531	19653.67
518.733	20165.67
518.935	20501.53
519.136	20304.93
519.338	20626.46
519.54	20964.37
519.742	21007.38
519.944	21085.2
520.146	21492.75
520.348	21677.07
520.55	21820.42
520.752	21754.89
520.954	21865.48
521.155	22008.84
521.357	22621.18
521.559	22316.03
521.761	22823.93
521.963	22776.83
522.164	22504.45
522.366	22899.7
522.568	23057.4
522.77	23241.71
522.971	23634.92
523.173	23331.83
523.375	23618.54
523.576	23796.71
523.778	23981.03
523.98	24378.34
524.181	24060.9
524.383	24151.01
524.584	24548.32
524.786	24419.3
524.988	24327.14
525.189	24943.58
525.391	24986.58
525.592	25062.36
525.794	25095.13
525.995	25263.06
526.197	25150.42
526.398	25568.21
526.6	25179.09
526.801	25697.23
527.003	25793.48
527.204	25959.37
527.406	25947.08
527.607	26035.14
527.808	26471.36
528.01	25742.28
528.211	25922.51
528.412	26555.33
528.614	26366.92
528.815	26020.81
529.016	26645.44
529.218	26870.72
529.419	26579.9
529.62	26426.31
529.822	26854.33
530.023	26899.39
530.224	26727.36
530.425	26938.3
530.626	26471.36
530.828	26678.21
531.029	27485.11
531.23	26749.89
531.431	26844.09
531.632	27009.98
531.833	26966.97
532.035	27055.03
532.236	27014.07
532.437	27128.76
532.638	26985.4
532.839	27268.02
533.04	27550.64
533.241	26946.49
533.442	27405.24
533.643	27319.22
533.844	27210.68
534.045	27274.17
534.246	26856.38
534.447	27263.93
534.648	27313.08
534.849	27653.04
535.05	27276.21
535.251	27259.83
535.451	27208.63
535.652	27206.58
535.853	27063.22
536.054	27106.23
536.255	27395
536.456	27016.12
536.657	27829.16
536.857	26915.77
537.058	27186.1
537.259	27700.14
537.46	26999.74
537.66	27235.25
537.861	27243.45
538.062	27306.93
538.263	27401.14
538.463	27151.29
538.664	27323.32
538.865	27208.63
539.065	27298.74
539.266	27036.6
539.466	27239.35
539.667	27153.33
539.868	27429.81
540.068	27147.19
540.269	27177.91
540.469	27360.18
540.67	27048.89
540.87	27143.1
541.071	27024.31
541.271	27337.65
541.472	27098.04
541.672	26780.6
541.873	27024.31
542.073	26743.74
542.274	27216.82
542.474	27380.66
542.675	26747.84
542.875	26975.16
543.075	26926.01
543.276	26432.45
543.476	27476.91
543.676	26778.56
543.877	26950.59
544.077	26811.32
544.277	27005.88
544.478	26926.01
544.678	26977.21
544.878	26948.54
545.078	26749.89
545.279	26749.89
545.479	26733.5
545.679	27028.41
545.879	27126.71
546.079	27020.22
546.28	26641.34
546.48	26575.81
546.68	27040.7
546.88	26704.83
547.08	26602.43
547.28	26581.95
547.48	26254.28
547.68	26522.56
547.88	26739.65
548.081	26893.24
548.281	26774.46
548.481	26936.25
548.681	26891.19
548.881	26962.87
549.081	26776.51
549.28	26622.91
549.48	27100.09
549.68	26608.58
549.88	26713.02
550.08	26420.16
550.28	26692.54
550.48	26622.91
550.68	26993.59
550.88	26530.75
551.08	26672.06
551.279	26516.42
551.479	26485.7
551.679	26567.62
551.879	26375.11
552.079	26665.92
552.278	26710.97
552.478	26745.79
552.678	26471.36
552.878	26633.15
553.077	26405.83
553.277	26196.93
553.477	26641.34
553.676	26508.22
553.876	26391.49
554.076	26418.11
554.275	26221.51
554.475	25994.18
554.674	26319.81
554.874	26651.58
555.074	26135.49
555.273	26491.84
555.473	26491.84
555.672	26278.85
555.872	26444.74
556.071	26211.27
556.271	26348.48
556.47	26373.06
556.67	25969.61
556.869	26340.29
557.068	26557.38
557.268	25959.37
557.467	26368.96
557.667	26043.34
557.866	26024.9
558.065	26018.76
558.265	25703.37
558.464	25820.11
558.663	25889.74
558.863	25371.6
559.062	25924.55
559.261	25351.12
559.461	25879.5
559.66	25758.67
559.859	25760.72
560.058	25754.57
560.258	25654.22
560.457	25607.12
560.656	25748.43
560.855	25478.1
561.054	25643.98
561.253	25484.24
561.453	25295.83
561.652	25541.58
561.851	25744.33
562.05	25420.75
562.249	25287.64
562.448	25623.5
562.647	25209.81
562.846	25318.35
563.045	25232.34
563.244	24863.71
563.443	25013.21
563.642	24734.68
563.841	25215.96
564.04	24900.57
564.239	25256.92
564.438	24566.75
564.637	24976.34
564.836	25088.98
565.035	24591.33
565.234	24835.03
565.432	24523.74
565.631	24458.21
565.83	24708.06
566.029	24706.01
566.228	24552.41
566.427	24697.82
566.625	24208.36
566.824	23999.46
567.023	24433.63
567.222	23694.32
567.42	24116.2
567.619	24038.37
567.818	24101.86
568.016	24081.38
568.215	24396.77
568.414	23815.15
568.612	24312.8
568.811	24081.38
569.01	23544.81
569.208	23512.05
569.407	23825.39
569.605	23565.29
569.804	23620.59
570.002	23550.96
570.201	23796.71
570.4	23251.95
570.598	23438.32
570.797	23229.43
570.995	23481.33
571.193	23202.8
571.392	23438.32
571.59	22701.05
571.789	22989.81
571.987	23237.62
572.186	22995.96
572.384	22955
572.582	22965.24
572.781	23018.49
572.979	22615.04
573.177	22854.65
573.376	22860.79
573.574	22789.11
573.772	22629.37
573.971	22389.76
574.169	22340.61
574.367	22430.72
574.565	22424.58
574.763	22330.37
574.962	22440.96
575.16	22197.25
575.358	22191.11
575.556	22184.96
575.754	22141.96
575.952	21789.7
576.151	22195.2
576.349	21656.59
576.547	21828.62
576.745	21965.83
576.943	21752.84
577.141	22057.99
577.339	21603.34
577.537	21664.78
577.735	21541.9
577.933	21582.86
578.131	21433.36
578.329	21251.09
578.527	21199.89
578.725	21550.09
578.923	21441.55
579.121	21042.2
579.319	21183.51
579.516	21400.59
579.714	21113.88
579.912	21185.55
580.11	20964.37
580.308	21056.53
580.506	21025.81
580.704	20646.94
580.901	20939.8
581.099	20890.65
581.297	20933.65
581.495	20526.11
581.692	20605.98
581.89	20468.76
582.088	20294.69
582.285	20163.62
582.483	20534.3
582.681	20323.36
582.878	20440.09
583.076	19940.39
583.274	20198.43
583.471	20175.91
583.669	20067.36
583.866	20083.75
584.064	20161.57
584.262	19645.48
584.459	19926.05
584.657	19729.45
584.854	19592.23
585.052	19399.73
585.249	19819.56
585.447	19833.89
585.644	19194.93
585.841	19598.38
586.039	19692.58
586.236	19614.76
586.434	19588.14
586.631	19049.52
586.828	19358.77
587.026	19508.27
587.223	19074.1
587.42	18838.58
587.618	19188.78
587.815	18986.04
588.012	18910.26
588.21	18965.56
588.407	19182.64
588.604	19094.58
588.801	19006.52
588.999	18766.9
589.196	18574.39
589.393	18609.21
589.59	18656.31
589.787	18545.72
589.984	18361.41
590.182	18183.23
590.379	18439.23
590.576	18281.53
590.773	18347.07
590.97	18488.38
591.167	18244.67
591.364	17929.28
591.561	18183.23
591.758	18183.23
591.955	17990.72
592.152	18259.01
592.349	17960
592.546	17691.72
592.743	17722.44
592.94	17427.53
593.137	17607.75
593.334	17710.15
593.531	17638.47
593.727	17728.58
593.924	17405
594.121	17353.8
594.318	17196.11
594.515	17149.01
594.712	17329.23
594.908	17208.4
595.105	17263.69
595.302	17046.61
595.499	17103.95
595.696	17253.45
595.892	17155.15
596.089	17165.39
596.286	16829.52
596.482	16839.76
596.679	16786.52
596.876	16938.07
597.072	16696.41
597.269	16761.94
597.466	16612.44
597.662	16510.04
597.859	16393.31
598.055	16489.56
598.252	16387.16
598.448	16282.72
598.645	16358.49
598.841	16215.13
599.038	16260.19
599.234	16424.03
599.431	16047.2
599.627	16065.63
599.824	16145.5
600.02	15756.39
600.217	16116.83
600.413	15778.92
600.609	15713.38
600.806	15748.2
601.002	15834.21
601.198	15608.94
601.395	15553.64
601.591	15613.03
601.787	15594.6
601.984	15498.34
602.18	15930.47
602.376	15498.34
602.572	15354.99
602.769	15217.77
602.965	15330.41
603.161	15387.75
603.357	15019.12
603.553	15262.83
603.75	15301.74
603.946	15225.96
604.142	15199.34
604.338	15008.88
604.534	14992.5
604.73	14771.32
604.926	14931.06
605.122	14976.11
605.318	14535.8
605.514	14640.25
605.71	14838.9
605.906	14750.84
606.102	14650.49
606.298	14574.71
606.494	14619.77
606.69	14513.27
606.886	14519.42
607.082	14574.71
607.278	14675.06
607.474	14126.21
607.67	14300.28
607.866	13974.66
608.062	14400.63
608.257	14185.6
608.453	14118.01
608.649	14189.69
608.845	14173.31
609.041	14138.49
609.236	14003.33
609.432	14171.26
609.628	14378.11
609.824	14111.87
610.019	14032
610.215	14052.48
610.411	14191.74
610.606	13950.08
610.802	14052.48
610.998	13945.98
611.193	13810.82
611.389	13974.66
611.584	13898.88
611.78	13702.28
611.976	13886.59
612.171	13794.43
612.367	13872.26
612.562	13743.24
612.758	13456.52
612.953	13610.12
613.149	13765.76
613.344	13444.23
613.539	13567.11
613.735	13618.31
613.93	13423.75
614.126	13302.92
614.321	13477
614.517	13403.27
614.712	13227.15
614.907	13329.55
615.103	13403.27
615.298	13241.48
615.493	13446.28
615.688	13122.7
615.884	13616.26
616.079	13196.43
616.274	13124.75
616.47	13282.44
616.665	13161.61
616.86	12975.25
617.055	13003.92
617.25	12985.49
617.445	13055.12
617.641	12717.2
617.836	12995.73
618.031	12696.72
618.226	12993.68
618.421	12903.57
618.616	12831.89
618.811	12795.03
619.006	12586.13
619.201	12645.52
619.396	12797.07
619.591	12584.09
619.786	12774.55
619.981	12668.05
620.176	12727.44
620.371	12340.38
620.566	12348.57
620.761	12381.34
620.956	12330.14
621.151	11984.03
621.346	12283.03
621.541	12164.25
621.735	12014.75
621.93	11793.57
622.125	11973.79
622.32	11789.47
622.515	11768.99
622.709	11799.71
622.904	11666.6
623.099	11480.23
623.294	11605.16
623.488	11568.29
623.683	11484.33
623.878	11291.82
624.072	11379.88
624.267	11359.4
624.462	11308.2
624.656	10974.38
624.851	10990.77
625.046	11011.25
625.24	10865.84
625.435	10736.82
625.629	10874.03
625.824	10781.87
626.018	10753.2
626.213	10775.73
626.407	10581.17
626.602	10476.73
626.796	10425.53
626.991	10446.01
627.185	10228.92
627.38	10353.85
627.574	10101.95
627.768	10048.7
627.963	10118.33
628.157	10083.52
628.352	10009.79
628.546	9895.1
628.74	9901.25
628.935	9659.59
629.129	9999.55
629.323	9716.93
629.517	9700.55
629.712	9454.79
629.906	9770.18
630.1	9417.93
630.294	9561.28
630.489	9407.69
630.683	9381.06
630.877	9415.88
631.071	9295.05
631.265	9249.99
631.459	9153.74
631.653	9159.88
631.848	9153.74
632.042	9047.24
632.236	9120.97
632.43	9000.14
632.624	9123.02
632.818	8856.78
633.012	9090.25
633.206	8719.57
633.4	8729.81
633.594	8703.18
633.788	8539.35
633.982	8785.1
634.176	8774.86
634.369	8365.27
634.563	8559.83
634.757	8467.67
634.951	8393.94
635.145	8375.51
635.339	8303.83
635.533	8281.3
635.726	8291.54
635.92	8004.83
636.114	8330.45
636.308	8160.47
636.501	8162.52
636.695	8228.06
636.889	7750.88
637.083	7783.65
637.276	7857.37
637.47	7810.27
637.664	7974.11
637.857	7734.5
638.051	7705.82
638.244	7654.62
638.438	7763.17
638.632	7654.62
638.825	7415.01
639.019	7574.75
639.212	7476.45
639.406	7466.21
639.599	7537.89
639.793	7521.51
639.986	7218.41
640.18	7271.65
640.373	7339.24
640.567	7218.41
640.76	7103.72
640.954	7261.41
641.147	7095.53
641.34	7095.53
641.534	6939.88
641.727	6991.08
641.92	6948.08
642.114	6970.6
642.307	6882.54
642.5	6913.26
642.694	6685.94
642.887	6935.79
643.08	6845.68
643.273	6718.7
643.467	6681.84
643.66	6513.91
643.853	6528.24
644.046	6479.09
644.239	6522.1
644.432	6417.65
644.626	6421.75
644.819	6425.84
645.012	6456.56
645.205	6481.14
645.398	6292.73
645.591	6317.3
645.784	6431.99
645.977	6065.4
646.17	6208.76
646.363	6114.55
646.556	6022.39
646.749	6149.37
646.942	6128.89
647.135	5895.42
647.328	5989.63
647.521	6055.16
647.714	5948.67
647.907	5827.84
648.099	5815.55
648.292	5979.39
648.485	5780.73
648.678	5879.04
648.871	5715.2
649.064	5704.96
649.256	5811.45
649.449	5797.12
649.642	5510.4
649.835	5432.58
650.027	5608.7
650.22	5567.74
650.413	5498.11
650.605	5463.3
650.798	5524.74
650.991	5623.04
651.183	5498.11
651.376	5340.42
651.568	5270.79
651.761	5203.21
651.954	5293.32
652.146	5289.22
652.339	5422.34
652.531	5278.98
652.724	5115.14
652.916	5141.77
653.109	5065.99
653.301	5164.29
653.494	5125.38
653.686	4850.96
653.879	5276.93
654.071	5129.48
654.263	4973.83
654.456	4994.31
654.648	4877.58
654.84	4875.53
655.033	4975.88
655.225	4982.03
655.417	4824.33
655.61	4836.62
655.802	4982.03
655.994	4742.41
656.186	4672.78
656.379	4805.9
656.571	4795.66
656.763	4637.97
656.955	4662.54
657.148	4748.56
657.34	4535.57
657.532	4580.62
657.724	4549.9
657.916	4551.95
658.108	4506.9
658.3	4558.1
658.492	4424.98
658.684	4361.49
658.876	4461.84
659.068	4375.83
659.26	4287.76
659.452	4316.44
659.644	4343.06
659.836	4361.49
660.028	4429.07
660.22	4394.26
660.412	4214.04
660.604	4230.42
660.796	4089.11
660.988	4185.37
661.18	4156.69
661.372	4009.24
661.563	4023.58
661.755	4072.73
661.947	4064.54
662.139	4072.73
662.331	4025.62
662.522	3912.99
662.714	4056.34
662.906	3966.23
663.097	4046.1
663.289	3869.98
663.481	3949.85
663.673	3994.9
663.864	4001.05
664.056	3816.73
664.247	3843.35
664.439	3747.1
664.631	3818.78
664.822	3943.71
665.014	3812.64
665.205	3802.4
665.397	3773.72
665.588	3712.28
665.78	3695.9
665.971	3603.74
666.163	3673.37
666.354	3607.84
666.546	3665.18
666.737	3599.65
666.929	3667.23
667.12	3476.77
667.311	3507.49
667.503	3390.75
667.694	3566.88
667.885	3474.72
668.077	3378.47
668.268	3452.19
668.459	3368.23
668.651	3405.09
668.842	3462.43
669.033	3372.32
669.224	3343.65
669.416	3552.54
669.607	3384.61
669.798	3425.57
669.989	3509.54
670.18	3286.31
670.371	3335.46
670.563	3212.58
670.754	3310.88
670.945	3302.69
671.136	3249.44
671.327	3165.48
671.518	3155.24
671.709	3368.23
671.9	3241.25
672.091	3261.73
672.282	3151.14
672.473	3188
672.664	3122.47
672.855	3247.4
673.046	3089.7
673.237	3167.52
673.428	3097.89
673.619	3185.96
673.809	3110.18
674	3134.76
674.191	3065.13
674.382	3142.95
674.573	3050.79
674.764	3089.7
674.954	3120.42
675.145	2993.45
675.336	3026.22
675.527	3065.13
675.717	3056.93
675.908	3052.84
676.099	3138.85
676.289	3085.61
676.48	3048.74
676.671	2901.29
676.861	3011.88
677.052	2907.43
677.243	3011.88
677.433	2925.86
677.624	3007.78
677.814	2991.4
678.005	2950.44
678.195	2970.92
678.386	2901.29
678.576	2835.75
678.767	2827.56
678.957	2909.48
679.148	2782.51
679.338	2872.62
679.529	2790.7
679.719	2884.91
679.909	2960.68
680.1	2921.77
680.29	2835.75
680.481	2835.75
680.671	2848.04
680.861	2680.11
681.052	2850.09
681.242	2956.58
681.432	2794.79
681.622	2884.91
681.813	2770.22
682.003	2878.76
682.193	2692.4
682.383	2800.94
682.573	2833.71
682.764	2837.8
682.954	2768.17
683.144	2825.51
683.334	2798.89
683.524	2772.27
683.714	2817.32
683.904	2786.6
684.094	2843.95
684.284	2751.79
684.474	2770.22
684.664	2811.18
684.854	2768.17
685.044	2706.73
685.234	2649.39
685.424	2755.88
685.614	2633.01
685.804	2682.16
685.994	2706.73
686.184	2626.86
686.374	2716.97
686.564	2532.65
686.753	2641.2
686.943	2495.79
687.133	2653.48
687.323	2567.47
687.513	2602.29
687.702	2463.02
687.892	2573.61
688.082	2561.33
688.272	2532.65
688.461	2430.26
688.651	2577.71
688.841	2491.7
689.03	2393.39
689.22	2413.87
689.41	2444.59
689.599	2338.1
689.789	2489.65
689.979	2403.63
690.168	2426.16
690.358	2557.23
690.547	2393.39
690.737	2387.25
690.926	2483.5
691.116	2229.56
691.305	2448.69
691.495	2268.47
691.684	2254.13
691.874	2256.18
692.063	2223.41
692.252	2192.69
692.442	2311.47
692.631	2280.75
692.82	2262.32
693.01	2321.71
693.199	2272.56
693.388	2411.82
693.578	2190.64
693.767	2241.84
693.956	2278.71
694.146	2184.5
694.335	2284.85
694.524	2133.3
694.713	2207.03
694.902	2192.69
695.092	2176.31
695.281	2264.37
695.47	2172.21
695.659	2272.56
695.848	2118.96
696.037	2139.44
696.226	2213.17
696.415	2100.53
696.604	2157.88
696.793	2149.68
696.982	2137.4
697.171	2073.91
697.36	2057.53
697.549	2086.2
697.738	2106.68
697.927	2180.4
698.116	2157.88
698.305	1987.89
698.494	1994.04
698.683	2041.14
698.872	2069.81
699.061	2090.29
699.25	2045.24
699.438	2108.73
699.627	1957.18
699.816	2032.95
700.005	2059.57
700.193	1989.94
700.382	1994.04
700.571	2004.28
700.76	2004.28
700.948	2067.77
701.137	2053.43
701.326	2104.63
701.514	2020.66
701.703	1973.56
701.892	2045.24
702.08	2147.64
702.269	2041.14
702.457	2069.81
702.646	2094.39
702.834	1951.03
703.023	1938.74
703.212	2078.01
703.4	2008.37
703.589	2000.18
703.777	2032.95
703.965	2026.81
704.154	2116.92
704.342	1963.32
704.531	2000.18
704.719	1848.63
704.907	2112.82
705.096	2053.43
705.284	2045.24
705.472	1942.84
705.661	1987.89
705.849	2020.66
706.037	2032.95
706.226	1973.56
706.414	2067.77
706.602	2100.53
706.79	2032.95
706.979	1936.7
707.167	2116.92
707.355	1912.12
707.543	2051.38
707.731	1987.89
707.919	2032.95
708.107	1860.92
708.296	1959.22
708.484	2035
708.672	1848.63
708.86	1985.85
709.048	2049.33
709.236	1922.36
709.424	1873.21
709.612	1955.13
709.8	1926.46
709.988	1887.54
710.176	2004.28
710.364	2000.18
710.551	1963.32
710.739	1922.36
710.927	1940.79
711.115	1975.61
711.303	1967.42
711.491	1922.36
711.679	1969.46
711.866	1942.84
712.054	1918.26
712.242	1893.69
712.43	1895.74
712.617	1979.7
712.805	1942.84
712.993	1967.42
713.181	1926.46
713.368	2000.18
713.556	1869.11
713.744	1893.69
713.931	2000.18
714.119	1899.83
714.306	1926.46
714.494	1893.69
714.682	1873.21
714.869	1875.26
715.057	1877.3
715.244	1840.44
715.432	1895.74
715.619	1967.42
715.807	1881.4
715.994	1862.97
716.182	1748.28
716.369	1897.78
716.556	1848.63
716.744	2004.28
716.931	1953.08
717.119	1862.97
717.306	1998.13
717.493	1875.26
717.681	1940.79
717.868	1918.26
718.055	1979.7
718.242	1991.99
718.43	1934.65
718.617	1967.42
718.804	1897.78
718.991	1971.51
719.179	1897.78
719.366	1891.64
719.553	1893.69
719.74	2016.57
719.927	1860.92
720.114	1824.06
720.301	1838.39
720.488	1754.43
720.676	1918.26
720.863	1926.46
721.05	1975.61
721.237	1869.11
721.424	1930.55
721.611	2037.05
721.798	1873.21
721.985	1865.02
722.172	1819.96
722.358	1897.78
722.545	1926.46
722.732	1828.15
722.919	1838.39
723.106	1946.94
723.293	1803.58
723.48	1910.07
723.667	1856.82
723.853	1774.91
724.04	1826.11
724.227	1889.59
724.414	1879.35
724.6	1893.69
724.787	1912.12
724.974	1926.46
725.161	1922.36
725.347	1811.77
725.534	1873.21
725.72	1910.07
725.907	1944.89
726.094	1856.82
726.28	1965.37
726.467	1766.71
726.653	1875.26
726.84	1862.97
727.027	1942.84
727.213	1828.15
727.4	1926.46
727.586	1912.12
727.773	1770.81
727.959	1844.54
728.145	1930.55
728.332	1811.77
728.518	1848.63
728.705	1811.77
728.891	1852.73
729.077	1746.23
729.264	1830.2
729.45	1877.3
729.636	1893.69
729.823	1711.42
730.009	1852.73
730.195	1991.99
730.382	1889.59
730.568	1805.63
730.754	1805.63
730.94	1817.91
731.126	1885.5
731.313	1862.97
731.499	1819.96
731.685	1846.59
731.871	1889.59
732.057	1789.24
732.243	1828.15
732.429	1842.49
732.615	1819.96
732.801	1869.11
732.987	1858.87
733.173	1834.3
733.359	1817.91
733.545	1795.39
733.731	1860.92
733.917	1803.58
734.103	1879.35
734.289	1725.75
734.475	1846.59
734.661	1903.93
734.847	1811.77
735.033	1852.73
735.219	1770.81
735.404	1828.15
735.59	1766.71
735.776	1754.43
735.962	1844.54
736.148	1846.59
736.333	1856.82
736.519	1826.11
736.705	1838.39
736.89	1774.91
737.076	1797.43
737.262	1817.91
737.447	1723.71
737.633	1772.86
737.819	1795.39
738.004	1854.78
738.19	1772.86
738.375	1805.63
738.561	1811.77
738.747	1822.01
738.932	1709.37
739.118	1787.19
739.303	1697.08
739.489	1705.28
739.674	1721.66
739.859	1639.74
740.045	1754.43
740.23	1574.21
740.416	1713.47
740.601	1707.32
740.786	1672.51
740.972	1674.56
741.157	1779
741.342	1619.26
741.528	1654.08
741.713	1705.28
741.898	1715.52
742.084	1713.47
742.269	1697.08
742.454	1725.75
742.639	1684.8
742.824	1615.16
743.01	1631.55
743.195	1633.6
743.38	1652.03
743.565	1729.85
743.75	1602.88
743.935	1676.6
744.12	1617.21
744.305	1594.68
744.49	1588.54
744.675	1553.73
744.86	1527.1
745.045	1586.49
745.23	1553.73
745.415	1609.02
745.6	1688.89
745.785	1459.52
745.97	1606.97
746.155	1508.67
746.34	1549.63
746.525	1465.66
746.71	1545.53
746.895	1572.16
747.079	1494.33
747.264	1459.52
747.449	1496.38
747.634	1418.56
747.819	1559.87
748.003	1445.18
748.188	1484.09
748.373	1443.14
748.557	1445.18
748.742	1385.79
748.927	1445.18
749.111	1420.61
749.296	1369.41
749.481	1418.56
749.665	1418.56
749.85	1393.98
750.034	1393.98
750.219	1369.41
750.404	1365.31
750.588	1244.48
750.773	1213.76
750.957	1314.11
751.141	1303.87
751.326	1316.16
751.51	1254.72
751.695	1295.68
751.879	1256.77
752.064	1221.95
752.248	1228.1
752.432	1295.68
752.617	1226.05
752.801	1201.47
752.985	1238.34
753.17	1221.95
753.354	1144.13
753.538	1160.52
753.722	1158.47
753.907	1105.22
754.091	1150.28
754.275	1189.19
754.459	1115.46
754.643	1234.24
754.828	1099.08
755.012	1119.56
755.196	1164.61
755.38	1125.7
755.564	1115.46
755.748	1164.61
755.932	1111.36
756.116	1207.62
756.3	1074.5
756.484	1117.51
756.668	1008.97
756.852	1033.54
757.036	1109.32
757.22	1064.26
757.404	1019.21
757.588	1041.73
757.772	1049.93
757.956	1011.01
758.14	1025.35
758.323	943.43
758.507	937.29
758.691	1041.73
758.875	1062.21
759.059	947.53
759.242	943.43
759.426	943.43
759.61	879.94
759.794	841.03
759.977	994.63
760.161	951.62
760.345	910.66
760.528	988.49
760.712	886.09
760.895	953.67
761.079	861.51
761.263	963.91
761.446	730.44
761.63	894.28
761.813	941.38
761.997	927.05
762.18	845.13
762.364	798.03
762.547	740.68
762.731	847.18
762.914	798.03
763.098	855.37
763.281	748.87
763.464	812.36
763.648	836.94
763.831	740.68
764.015	871.75
764.198	836.94
764.381	859.46
764.564	783.69
764.748	812.36
764.931	838.98
765.114	781.64
765.297	798.03
765.481	785.74
765.664	816.46
765.847	810.31
766.03	781.64
766.213	730.44
766.397	826.7
766.58	763.21
766.763	771.4
766.946	693.58
767.129	771.4
767.312	742.73
767.495	757.07
767.678	691.53
767.861	750.92
768.044	734.54
768.227	709.96
768.41	742.73
768.593	787.79
768.776	740.68
768.959	726.35
769.142	755.02
769.324	732.49
769.507	746.83
769.69	714.06
769.873	740.68
770.056	699.72
770.239	746.83
770.421	750.92
770.604	716.11
770.787	652.62
770.97	669
771.152	603.47
771.335	623.95
771.518	558.41
771.7	640.33
771.883	681.29
772.066	621.9
772.248	617.8
772.431	679.24
772.613	607.56
772.796	666.96
772.978	673.1
773.161	623.95
773.343	533.84
773.526	599.37
773.708	515.41
773.891	542.03
774.073	615.76
774.256	544.08
774.438	644.43
774.621	607.56
774.803	560.46
774.985	611.66
775.168	562.51
775.35	494.93
775.532	501.07
775.715	544.08
775.897	605.52
776.079	521.55
776.261	445.77
776.444	607.56
776.626	492.88
776.808	499.02
776.99	470.35
777.173	558.41
777.355	535.89
777.537	501.07
777.719	496.97
777.901	470.35
778.083	570.7
778.265	462.16
778.447	486.73
778.629	519.5
778.811	513.36
778.993	490.83
779.175	494.93
779.357	394.58
779.539	462.16
779.721	468.3
779.903	468.3
780.085	503.12
780.267	509.26
780.449	394.58
780.631	468.3
780.812	429.39
780.994	439.63
781.176	468.3
781.358	507.21
781.54	427.34
781.721	370
781.903	435.53
782.085	484.69
782.267	443.73
782.448	396.62
782.63	380.24
782.812	337.23
782.993	429.39
783.175	378.19
783.357	298.32
783.538	421.2
783.72	394.58
783.901	427.34
784.083	468.3
784.264	370
784.446	314.7
784.627	333.14
784.809	388.43
784.99	363.86
785.172	398.67
785.353	337.23
785.535	374.1
785.716	296.27
785.897	353.62
786.079	361.81
786.26	308.56
786.441	365.9
786.623	236.88
786.804	312.66
786.985	240.98
787.167	370
787.348	365.9
787.529	337.23
787.71	396.62
787.891	376.14
788.073	249.17
788.254	365.9
788.435	304.46
788.616	337.23
788.797	271.7
788.978	273.75
789.159	324.94
789.34	329.04
789.522	255.31
789.703	238.93
789.884	333.14
790.065	314.7
790.246	337.23
790.427	271.7
790.607	240.98
790.788	347.47
790.969	265.55
791.15	251.22
791.331	279.89
791.512	265.55
791.693	300.37
791.874	191.83
792.054	286.03
792.235	281.94
792.416	206.16
792.597	224.59
792.778	267.6
792.958	240.98
793.139	212.31
793.32	232.79
793.5	273.75
793.681	259.41
793.862	238.93
794.042	320.85
794.223	259.41
794.404	273.75
794.584	206.16
794.765	163.15
794.945	212.31
795.126	253.27
795.306	337.23
795.487	132.44
795.667	118.1
795.848	232.79
796.028	275.79
796.209	159.06
796.389	173.39
796.57	255.31
796.75	177.49
796.93	249.17
797.111	216.4
797.291	171.35
797.471	247.12
797.652	240.98
797.832	197.97
798.012	247.12
798.192	120.15
798.373	165.2
798.553	220.5
798.733	263.51
798.913	202.07
799.093	132.44
799.274	124.24
799.454	197.97
799.634	169.3
799.814	226.64
799.994	240.98
800.174	191.83
800.354	212.31
800.534	191.83
800.714	136.53
800.894	150.87
801.074	222.55
801.254	222.55
801.434	118.1
801.614	197.97
801.794	148.82
801.974	685.39
802.154	111.96
802.334	214.35
802.514	66.9
802.693	91.48
802.873	175.44
803.053	204.11
803.233	120.15
803.413	181.59
803.592	171.35
803.772	150.87
803.952	208.21
804.131	157.01
804.311	185.68
804.491	243.03
804.67	71
804.85	144.72
805.03	132.44
805.209	197.97
805.389	101.72
805.568	107.86
805.748	116.05
805.928	132.44
806.107	142.68
806.287	124.24
806.466	181.59
806.646	132.44
806.825	101.72
807.004	138.58
807.184	142.68
807.363	83.28
807.543	62.8
807.722	79.19
807.901	120.15
808.081	118.1
808.26	116.05
808.439	126.29
808.619	167.25
808.798	83.28
808.977	163.15
809.156	193.87
809.336	142.68
809.515	148.82
809.694	64.85
809.873	144.72
810.052	148.82
810.231	124.24
810.411	146.77
810.59	157.01
810.769	124.24
810.948	109.91
811.127	-6.83
811.306	83.28
811.485	128.34
811.664	134.48
811.843	93.52
812.022	181.59
812.201	124.24
812.38	103.76
812.559	118.1
812.737	191.83
812.916	159.06
813.095	124.24
813.274	71
813.453	32.08
813.632	134.48
813.811	75.09
813.989	56.66
814.168	91.48
814.347	99.67
814.526	148.82
814.704	64.85
814.883	118.1
815.062	105.81
815.24	99.67
815.419	79.19
815.598	75.09
815.776	66.9
815.955	111.96
816.133	107.86
816.312	150.87
816.49	103.76
816.669	75.09
816.847	99.67
817.026	58.71
817.204	42.32
817.383	105.81
817.561	99.67
817.74	118.1
817.918	107.86
818.097	93.52
818.275	36.18
818.453	175.44
818.632	91.48
818.81	27.99
818.988	93.52
819.167	75.09
819.345	85.33
819.523	66.9
819.701	56.66
819.879	116.05
820.058	73.04
820.236	62.8
820.414	120.15
820.592	38.23
820.77	132.44
820.948	105.81
821.127	91.48
821.305	99.67
821.483	34.13
821.661	126.29
821.839	91.48
822.017	101.72
822.195	50.52
822.373	136.53
822.551	91.48
822.729	95.57
822.907	50.52
823.085	87.38
823.262	109.91
823.44	58.71
823.618	87.38
823.796	46.42
823.974	9.56
824.152	83.28
824.329	52.56
824.507	132.44
824.685	58.71
824.863	116.05
825.04	95.57
825.218	87.38
825.396	85.33
825.574	34.13
825.751	58.71
825.929	144.72
826.107	42.32
826.284	62.8
826.462	46.42
826.639	77.14
826.817	-49.83
826.994	56.66
827.172	9.56
827.349	148.82
827.527	93.52
827.704	44.37
827.882	1.37
828.059	118.1
828.237	-4.78
828.414	60.76
828.591	17.75
828.769	64.85
828.946	50.52
829.124	27.99
829.301	77.14
829.478	66.9
829.655	-15.02
829.833	36.18
830.01	77.14
830.187	128.34
830.364	27.99
830.542	132.44
830.719	23.89
830.896	52.56
831.073	54.61
831.25	50.52
831.427	120.15
831.604	60.76
831.782	34.13
831.959	114
832.136	34.13
832.313	62.8
832.49	34.13
832.667	30.04
832.844	60.76
833.021	91.48
833.198	17.75
833.374	21.84
833.551	118.1
833.728	46.42
833.905	144.72
834.082	-27.31
834.259	44.37
834.436	42.32
834.612	13.65
834.789	75.09
834.966	17.75
835.143	25.94
835.319	30.04
835.496	58.71
835.673	75.09
835.85	50.52
836.026	150.87
836.203	105.81
836.38	3.41
836.556	46.42
836.733	-6.83
836.909	77.14
837.086	58.71
837.262	25.94
837.439	95.57
837.616	17.75
837.792	27.99
837.968	75.09
838.145	13.65
838.321	-15.02
838.498	54.61
838.674	-6.83
838.851	-2.73
839.027	-19.11
839.203	19.8
839.38	91.48
839.556	21.84
839.732	52.56
839.909	42.32
840.085	107.86
840.261	42.32
840.437	25.94
840.614	27.99
840.79	34.13
840.966	58.71
841.142	71
841.318	21.84
841.494	66.9
841.671	50.52
841.847	50.52
842.023	-23.21
842.199	93.52
842.375	64.85
842.551	19.8
842.727	42.32
842.903	132.44
843.079	11.61
843.255	38.23
843.431	34.13
843.607	60.76
843.783	9.56
843.959	134.48
844.134	75.09
844.31	38.23
844.486	-4.78
844.662	38.23
844.838	5.46
845.013	17.75
845.189	71
845.365	50.52
845.541	17.75
845.716	-25.26
845.892	66.9
846.068	1.37
846.244	52.56
846.419	11.61
846.595	3.41
846.77	46.42
846.946	9.56
847.122	-21.16
847.297	58.71
847.473	36.18
847.648	-2.73
847.824	-15.02
847.999	-41.64
848.175	66.9
848.35	3.41
848.526	58.71
848.701	9.56
848.876	44.37
849.052	83.28
849.227	42.32
849.403	-6.83
849.578	25.94
849.753	75.09
849.929	-4.78
850.104	40.28
850.279	5.46
850.454	25.94
850.63	50.52
850.805	-39.59
850.98	-37.55
851.155	13.65
851.33	-15.02
851.505	-21.16
851.681	68.95
851.856	1.37
852.031	25.94
852.206	50.52
852.381	17.75
852.556	13.65
852.731	62.8
852.906	60.76
853.081	19.8
853.256	42.32
853.431	21.84
853.606	5.46
853.781	38.23
853.956	-86.7
854.131	79.19
854.305	-31.4
854.48	-29.35
854.655	25.94
854.83	-29.35
855.005	-4.78
855.18	50.52
855.354	9.56
855.529	9.56
855.704	1.37
855.879	62.8
856.053	-10.92
856.228	27.99
856.403	-45.74
856.577	13.65
856.752	-70.31
856.926	1.37
857.101	-64.17
857.276	-31.4
857.45	-39.59
857.625	27.99
857.799	34.13
857.974	-4.78
858.148	-4.78
858.323	-6.83
858.497	-35.5
858.672	-12.97
858.846	1.37
859.02	-35.5
859.195	36.18
859.369	-2.73
859.543	3.41
859.718	36.18
859.892	-6.83
860.066	66.9
860.241	34.13
860.415	44.37
860.589	-72.36
860.763	42.32
860.938	-55.98
861.112	11.61
861.286	-74.41
861.46	9.56
861.634	5.46
861.808	17.75
861.982	25.94
862.157	-64.17
862.331	-21.16
862.505	-55.98
862.679	-37.55
862.853	25.94
863.027	7.51
863.201	42.32
863.375	32.08
863.549	1.37
863.722	-43.69
863.896	103.76
864.07	-53.93
864.244	1.37
864.418	27.99
864.592	25.94
864.766	21.84
864.939	-4.78
865.113	-23.21
865.287	36.18
865.461	-4.78
865.634	17.75
865.808	-39.59
865.982	-6.83
866.156	9.56
866.329	-55.98
866.503	1.37
866.676	9.56
866.85	48.47
867.024	40.28
867.197	-39.59
867.371	52.56
867.544	32.08
867.718	-25.26
867.891	-2.73
868.065	-74.41
868.238	7.51
868.412	62.8
868.585	-31.4
868.759	17.75
868.932	-60.07
869.105	-29.35
869.279	-70.31
869.452	-144.04
869.625	5.46
869.799	58.71
869.972	-2.73
870.145	-31.4
870.319	34.13
870.492	-23.21
870.665	-12.97
870.838	7.51
871.011	13.65
871.185	-23.21
871.358	-35.5
871.531	-15.02
871.704	-4.78
871.877	-23.21
872.05	3.41
872.223	-19.11
872.396	54.61
872.569	-27.31
872.742	-41.64
872.915	60.76
873.088	46.42
873.261	1.37
873.434	5.46
873.607	44.37
873.78	38.23
873.953	19.8
874.126	-39.59
874.299	66.9
874.471	56.66
874.644	52.56
874.817	5.46
874.99	-6.83
875.163	-39.59
875.335	44.37
875.508	13.65
875.681	-4.78
875.853	-27.31
876.026	68.95
876.199	42.32
876.371	30.04
876.544	-70.31
876.717	79.19
876.889	-62.12
877.062	1.37
877.234	-43.69
877.407	17.75
877.579	42.32
877.752	44.37
877.924	25.94
878.097	-47.79
878.269	-39.59
878.442	-55.98
878.614	38.23
878.786	-29.35
878.959	-12.97
879.131	46.42
879.303	17.75
879.476	23.89
879.648	1.37
879.82	-4.78
879.993	-62.12
880.165	17.75
880.337	-31.4
880.509	25.94
880.681	-12.97
880.854	27.99
881.026	44.37
881.198	66.9
881.37	-37.55
881.542	-53.93
881.714	79.19
881.886	-10.92
882.058	-23.21
882.23	81.24
882.402	23.89
882.574	-12.97
882.746	-17.07
882.918	34.13
883.09	42.32
883.262	-23.21
883.434	54.61
883.606	42.32
883.778	-23.21
883.95	27.99
884.122	-51.88
884.293	-6.83
884.465	-23.21
884.637	83.28
884.809	-2.73
884.98	-45.74
885.152	-2.73
885.324	1.37
885.496	-21.16
885.667	-43.69
885.839	-41.64
886.011	25.94
886.182	5.46
886.354	-15.02
886.525	-55.98
886.697	83.28
886.869	-119.46
887.04	-0.68
887.212	30.04
887.383	34.13
887.555	-6.83
887.726	-47.79
887.897	-4.78
888.069	-80.55
888.24	-41.64
888.412	-12.97
888.583	1.37
888.754	3.41
888.926	-33.45
889.097	25.94
889.268	23.89
889.44	11.61
889.611	-23.21
889.782	-27.31
889.953	-39.59
890.125	21.84
890.296	-19.11
890.467	-29.35
890.638	-19.11
890.809	34.13
890.98	-4.78
891.151	50.52
891.323	58.71
891.494	34.13
891.665	46.42
891.836	-12.97
892.007	-21.16
892.178	48.47
892.349	-55.98
892.52	3.41
892.691	-39.59
892.862	5.46
893.032	-31.4
893.203	30.04
893.374	-29.35
893.545	60.76
893.716	27.99
893.887	-33.45
894.057	15.7
894.228	-6.83
894.399	-55.98
894.57	91.48
894.74	-2.73
894.911	13.65
895.082	75.09
895.253	-96.94
895.423	13.65
895.594	13.65
895.764	75.09
895.935	-23.21
896.106	-19.11
896.276	38.23
896.447	-6.83
896.617	-19.11
896.788	36.18
896.958	-4.78
897.129	-80.55
897.299	9.56
897.47	-31.4
897.64	17.75
897.81	-4.78
897.981	-39.59
898.151	-12.97
898.322	-53.93
898.492	-15.02
898.662	23.89
898.832	5.46
899.003	25.94
899.173	-31.4
899.343	-29.35
899.513	-80.55
