Data from USB4F104151__49__14-16-50-005.txt Node

Date: Thu Mar 13 14:16:50 EDT 2025
User: louis
Spectrometer: USB4F10415
Trigger mode: 4
Integration Time (sec): 2.000000E-2
Scans to average: 1
Electric dark correction enabled: true
Nonlinearity correction enabled: false
Boxcar width: 0
XAxis mode: Wavelengths
Number of Pixels in Spectrum: 3648
>>>>>Begin Spectral Data<<<<<
178.204	-82.26
178.424	-82.26
178.644	-82.26
178.864	-65.88
179.084	-61.78
179.304	-31.06
179.524	34.47
179.744	7.85
179.964	-2.39
180.184	7.85
180.404	11.95
180.624	40.62
180.844	-12.63
181.064	-41.3
181.283	-22.87
181.503	-4.44
181.723	11.95
181.943	-49.49
182.163	-24.92
182.383	63.15
182.602	89.77
182.822	50.86
183.042	34.47
183.262	30.38
183.482	79.53
183.701	73.39
183.921	48.81
184.141	13.99
184.361	48.81
184.58	-12.63
184.8	52.91
185.02	1.71
185.239	57
185.459	3.75
185.679	-16.73
185.898	24.23
186.118	-0.34
186.338	-29.01
186.557	28.33
186.777	-12.63
186.997	-33.11
187.216	7.85
187.436	75.43
187.655	40.62
187.875	57
188.095	-37.2
188.314	46.76
188.534	89.77
188.753	-16.73
188.973	44.71
189.192	57
189.412	42.67
189.631	50.86
189.851	69.29
190.07	65.19
190.29	-4.44
190.509	36.52
190.729	-45.4
190.948	73.39
191.168	75.43
191.387	57
191.607	1.71
191.826	59.05
192.045	28.33
192.265	52.91
192.484	50.86
192.704	89.77
192.923	24.23
193.142	7.85
193.362	77.48
193.581	97.96
193.8	11.95
194.02	42.67
194.239	24.23
194.458	24.23
194.678	-90.45
194.897	20.14
195.116	48.81
195.335	-14.68
195.555	-4.44
195.774	67.24
195.993	59.05
196.212	40.62
196.432	52.91
196.651	38.57
196.87	9.9
197.089	50.86
197.308	75.43
197.528	-2.39
197.747	-35.16
197.966	77.48
198.185	67.24
198.404	5.8
198.623	-29.01
198.842	83.63
199.062	59.05
199.281	11.95
199.5	73.39
199.719	61.1
199.938	48.81
200.157	24.23
200.376	34.47
200.595	20.14
200.814	11.95
201.033	-16.73
201.252	16.04
201.471	-0.34
201.69	85.67
201.909	40.62
202.128	50.86
202.347	34.47
202.566	-4.44
202.785	89.77
203.004	57
203.223	67.24
203.442	-33.11
203.661	-74.07
203.879	-31.06
204.098	104.11
204.317	-72.02
204.536	-6.49
204.755	67.24
204.974	91.82
205.193	59.05
205.411	116.39
205.63	83.63
205.849	48.81
206.068	-4.44
206.287	36.52
206.505	106.15
206.724	-49.49
206.943	11.95
207.162	-6.49
207.381	34.47
207.599	102.06
207.818	24.23
208.037	18.09
208.255	-69.97
208.474	54.95
208.693	24.23
208.911	-6.49
209.13	59.05
209.349	-8.53
209.567	28.33
209.786	69.29
210.005	22.19
210.223	61.1
210.442	-82.26
210.661	34.47
210.879	-96.6
211.098	11.95
211.316	65.19
211.535	34.47
211.753	81.58
211.972	20.14
212.191	50.86
212.409	36.52
212.628	42.67
212.846	-29.01
213.065	-6.49
213.283	65.19
213.502	16.04
213.72	28.33
213.938	-24.92
214.157	-4.44
214.375	-0.34
214.594	28.33
214.812	-0.34
215.031	36.52
215.249	54.95
215.467	89.77
215.686	1.71
215.904	13.99
216.122	77.48
216.341	24.23
216.559	32.43
216.778	118.44
216.996	24.23
217.214	44.71
217.432	108.2
217.651	-74.07
217.869	65.19
218.087	54.95
218.306	-0.34
218.524	16.04
218.742	-31.06
218.96	22.19
219.179	48.81
219.397	-20.82
219.615	73.39
219.833	30.38
220.051	40.62
220.27	16.04
220.488	5.8
220.706	26.28
220.924	59.05
221.142	46.76
221.36	7.85
221.578	-10.58
221.796	20.14
222.015	67.24
222.233	16.04
222.451	77.48
222.669	-20.82
222.887	32.43
223.105	36.52
223.323	-33.11
223.541	52.91
223.759	71.34
223.977	3.75
224.195	40.62
224.413	30.38
224.631	52.91
224.849	24.23
225.067	65.19
225.285	-24.92
225.503	5.8
225.721	-78.16
225.939	16.04
226.157	38.57
226.375	44.71
226.592	73.39
226.81	42.67
227.028	73.39
227.246	149.16
227.464	77.48
227.682	-12.63
227.9	-12.63
228.117	97.96
228.335	-12.63
228.553	16.04
228.771	52.91
228.989	93.87
229.206	-0.34
229.424	42.67
229.642	54.95
229.86	32.43
230.077	75.43
230.295	-33.11
230.513	81.58
230.731	67.24
230.948	36.52
231.166	42.67
231.384	46.76
231.601	-8.53
231.819	63.15
232.037	24.23
232.254	16.04
232.472	100.01
232.689	-12.63
232.907	104.11
233.125	102.06
233.342	-14.68
233.56	57
233.777	93.87
233.995	50.86
234.213	59.05
234.43	36.52
234.648	7.85
234.865	22.19
235.083	67.24
235.3	34.47
235.518	18.09
235.735	40.62
235.953	89.77
236.17	42.67
236.388	26.28
236.605	-10.58
236.822	108.2
237.04	-0.34
237.257	46.76
237.475	16.04
237.692	77.48
237.909	-0.34
238.127	-8.53
238.344	61.1
238.562	28.33
238.779	38.57
238.996	9.9
239.214	-43.35
239.431	24.23
239.648	24.23
239.865	48.81
240.083	54.95
240.3	32.43
240.517	-39.25
240.735	16.04
240.952	73.39
241.169	7.85
241.386	42.67
241.603	34.47
241.821	13.99
242.038	59.05
242.255	48.81
242.472	-10.58
242.689	-43.35
242.907	40.62
243.124	59.05
243.341	-14.68
243.558	65.19
243.775	9.9
243.992	-24.92
244.209	26.28
244.426	138.92
244.643	75.43
244.86	20.14
245.078	24.23
245.295	81.58
245.512	-29.01
245.729	-41.3
245.946	91.82
246.163	34.47
246.38	28.33
246.597	-16.73
246.814	40.62
247.031	24.23
247.248	1.71
247.464	63.15
247.681	42.67
247.898	48.81
248.115	57
248.332	48.81
248.549	81.58
248.766	44.71
248.983	40.62
249.2	13.99
249.417	61.1
249.633	11.95
249.85	-12.63
250.067	18.09
250.284	50.86
250.501	36.52
250.717	91.82
250.934	-49.49
251.151	44.71
251.368	61.1
251.585	122.54
251.801	22.19
252.018	11.95
252.235	28.33
252.451	52.91
252.668	61.1
252.885	48.81
253.102	50.86
253.318	22.19
253.535	9.9
253.752	22.19
253.968	100.01
254.185	11.95
254.401	81.58
254.618	40.62
254.835	20.14
255.051	97.96
255.268	9.9
255.484	36.52
255.701	59.05
255.917	63.15
256.134	42.67
256.351	91.82
256.567	-20.82
256.784	-20.82
257	-31.06
257.217	73.39
257.433	3.75
257.65	24.23
257.866	9.9
258.082	-4.44
258.299	20.14
258.515	81.58
258.732	36.52
258.948	61.1
259.165	34.47
259.381	26.28
259.597	67.24
259.814	-12.63
260.03	7.85
260.246	57
260.463	65.19
260.679	34.47
260.895	59.05
261.112	7.85
261.328	28.33
261.544	40.62
261.761	-0.34
261.977	48.81
262.193	-8.53
262.409	24.23
262.626	50.86
262.842	24.23
263.058	-41.3
263.274	9.9
263.49	3.75
263.707	18.09
263.923	-8.53
264.139	40.62
264.355	20.14
264.571	110.25
264.787	40.62
265.004	67.24
265.22	50.86
265.436	24.23
265.652	-22.87
265.868	9.9
266.084	-35.16
266.3	57
266.516	-61.78
266.732	16.04
266.948	42.67
267.164	24.23
267.38	83.63
267.596	50.86
267.812	124.58
268.028	93.87
268.244	-12.63
268.46	48.81
268.676	-14.68
268.892	22.19
269.108	24.23
269.324	-57.68
269.54	-57.68
269.756	44.71
269.972	-39.25
270.188	40.62
270.403	-37.2
270.619	79.53
270.835	24.23
271.051	50.86
271.267	-4.44
271.483	1.71
271.698	5.8
271.914	89.77
272.13	-0.34
272.346	85.67
272.562	57
272.777	34.47
272.993	104.11
273.209	138.92
273.425	36.52
273.64	34.47
273.856	40.62
274.072	18.09
274.287	57
274.503	67.24
274.719	134.82
274.934	7.85
275.15	34.47
275.366	22.19
275.581	52.91
275.797	50.86
276.012	-6.49
276.228	-20.82
276.444	48.81
276.659	116.39
276.875	40.62
277.09	147.11
277.306	40.62
277.521	91.82
277.737	77.48
277.952	34.47
278.168	-80.21
278.383	-0.34
278.599	71.34
278.814	57
279.03	-12.63
279.245	52.91
279.461	24.23
279.676	89.77
279.892	16.04
280.107	44.71
280.322	9.9
280.538	69.29
280.753	-2.39
280.969	77.48
281.184	-55.64
281.399	48.81
281.615	30.38
281.83	20.14
282.045	32.43
282.26	18.09
282.476	-33.11
282.691	38.57
282.906	7.85
283.122	59.05
283.337	18.09
283.552	67.24
283.767	-18.77
283.983	-4.44
284.198	57
284.413	-53.59
284.628	-24.92
284.843	42.67
285.058	7.85
285.274	9.9
285.489	30.38
285.704	65.19
285.919	-37.2
286.134	-12.63
286.349	102.06
286.564	11.95
286.779	97.96
286.995	50.86
287.21	-69.97
287.425	24.23
287.64	1.71
287.855	-49.49
288.07	-29.01
288.285	-0.34
288.5	95.91
288.715	32.43
288.93	9.9
289.145	61.1
289.36	30.38
289.575	59.05
289.79	122.54
290.004	-22.87
290.219	26.28
290.434	34.47
290.649	-0.34
290.864	16.04
291.079	-16.73
291.294	-22.87
291.509	108.2
291.724	11.95
291.938	26.28
292.153	16.04
292.368	-2.39
292.583	71.34
292.798	36.52
293.012	130.73
293.227	73.39
293.442	116.39
293.657	48.81
293.871	71.34
294.086	-16.73
294.301	138.92
294.516	-8.53
294.73	83.63
294.945	18.09
295.16	-12.63
295.374	102.06
295.589	11.95
295.804	59.05
296.018	-61.78
296.233	-6.49
296.447	13.99
296.662	9.9
296.877	40.62
297.091	44.71
297.306	61.1
297.52	-8.53
297.735	89.77
297.949	97.96
298.164	65.19
298.378	32.43
298.593	-24.92
298.807	61.1
299.022	97.96
299.236	65.19
299.451	-16.73
299.665	65.19
299.88	42.67
300.094	57
300.309	-0.34
300.523	32.43
300.737	57
300.952	-20.82
301.166	34.47
301.381	-35.16
301.595	44.71
301.809	20.14
302.024	24.23
302.238	-31.06
302.452	40.62
302.667	11.95
302.881	122.54
303.095	48.81
303.309	69.29
303.524	40.62
303.738	44.71
303.952	57
304.166	61.1
304.381	38.57
304.595	95.91
304.809	-4.44
305.023	-0.34
305.237	3.75
305.452	18.09
305.666	32.43
305.88	73.39
306.094	73.39
306.308	-2.39
306.522	52.91
306.736	16.04
306.95	24.23
307.164	102.06
307.379	89.77
307.593	57
307.807	30.38
308.021	106.15
308.235	11.95
308.449	69.29
308.663	97.96
308.877	102.06
309.091	18.09
309.305	9.9
309.519	57
309.733	26.28
309.947	-78.16
310.161	20.14
310.374	69.29
310.588	9.9
310.802	32.43
311.016	32.43
311.23	9.9
311.444	-6.49
311.658	42.67
311.872	97.96
312.085	63.15
312.299	13.99
312.513	67.24
312.727	48.81
312.941	-51.54
313.154	-2.39
313.368	85.67
313.582	73.39
313.796	100.01
314.009	-4.44
314.223	11.95
314.437	79.53
314.651	1.71
314.864	89.77
315.078	13.99
315.292	-80.21
315.505	65.19
315.719	69.29
315.933	106.15
316.146	48.81
316.36	30.38
316.573	46.76
316.787	36.52
317.001	93.87
317.214	57
317.428	1.71
317.641	-16.73
317.855	65.19
318.068	24.23
318.282	-4.44
318.495	120.49
318.709	48.81
318.922	73.39
319.136	85.67
319.349	97.96
319.563	48.81
319.776	-2.39
319.99	67.24
320.203	42.67
320.417	-10.58
320.63	-8.53
320.843	136.87
321.057	-0.34
321.27	93.87
321.483	40.62
321.697	97.96
321.91	57
322.124	100.01
322.337	24.23
322.55	-41.3
322.763	9.9
322.977	48.81
323.19	-14.68
323.403	50.86
323.617	65.19
323.83	26.28
324.043	3.75
324.256	20.14
324.469	-4.44
324.683	77.48
324.896	-29.01
325.109	57
325.322	-20.82
325.535	52.91
325.748	48.81
325.962	40.62
326.175	40.62
326.388	11.95
326.601	102.06
326.814	34.47
327.027	34.47
327.24	69.29
327.453	-6.49
327.666	106.15
327.879	57
328.092	59.05
328.305	20.14
328.518	65.19
328.731	-20.82
328.944	42.67
329.157	3.75
329.37	59.05
329.583	59.05
329.796	97.96
330.009	40.62
330.222	73.39
330.435	24.23
330.648	26.28
330.861	-72.02
331.073	71.34
331.286	126.63
331.499	18.09
331.712	-2.39
331.925	59.05
332.138	57
332.35	67.24
332.563	30.38
332.776	73.39
332.989	116.39
333.202	97.96
333.414	-4.44
333.627	50.86
333.84	87.72
334.053	69.29
334.265	-41.3
334.478	40.62
334.691	44.71
334.903	26.28
335.116	3.75
335.329	79.53
335.541	50.86
335.754	126.63
335.966	59.05
336.179	102.06
336.392	40.62
336.604	106.15
336.817	81.58
337.029	18.09
337.242	77.48
337.454	89.77
337.667	59.05
337.88	75.43
338.092	34.47
338.305	36.52
338.517	34.47
338.729	30.38
338.942	91.82
339.154	-16.73
339.367	1.71
339.579	159.4
339.792	34.47
340.004	-12.63
340.217	-14.68
340.429	126.63
340.641	-16.73
340.854	28.33
341.066	5.8
341.278	89.77
341.491	52.91
341.703	52.91
341.915	18.09
342.128	7.85
342.34	75.43
342.552	77.48
342.764	100.01
342.977	-33.11
343.189	69.29
343.401	40.62
343.613	-37.2
343.826	65.19
344.038	30.38
344.25	18.09
344.462	73.39
344.674	24.23
344.886	3.75
345.099	97.96
345.311	48.81
345.523	81.58
345.735	18.09
345.947	42.67
346.159	106.15
346.371	89.77
346.583	61.1
346.795	134.82
347.007	1.71
347.219	7.85
347.431	40.62
347.643	11.95
347.855	73.39
348.067	106.15
348.279	-0.34
348.491	-4.44
348.703	28.33
348.915	-26.96
349.127	-2.39
349.339	63.15
349.551	44.71
349.763	75.43
349.975	24.23
350.187	71.34
350.399	114.34
350.61	104.11
350.822	-41.3
351.034	32.43
351.246	-22.87
351.458	30.38
351.669	108.2
351.881	54.95
352.093	32.43
352.305	122.54
352.517	26.28
352.728	89.77
352.94	-22.87
353.152	143.02
353.363	52.91
353.575	7.85
353.787	118.44
353.999	73.39
354.21	104.11
354.422	-33.11
354.633	-20.82
354.845	114.34
355.057	108.2
355.268	36.52
355.48	-35.16
355.692	85.67
355.903	134.82
356.115	5.8
356.326	9.9
356.538	73.39
356.749	48.81
356.961	114.34
357.172	-6.49
357.384	-6.49
357.595	93.87
357.807	42.67
358.018	7.85
358.23	73.39
358.441	138.92
358.653	3.75
358.864	61.1
359.075	91.82
359.287	57
359.498	9.9
359.709	22.19
359.921	18.09
360.132	44.71
360.344	-6.49
360.555	81.58
360.766	36.52
360.977	50.86
361.189	67.24
361.4	-10.58
361.611	124.58
361.823	32.43
362.034	87.72
362.245	42.67
362.456	114.34
362.667	32.43
362.879	36.52
363.09	18.09
363.301	36.52
363.512	65.19
363.723	73.39
363.935	63.15
364.146	63.15
364.357	24.23
364.568	36.52
364.779	3.75
364.99	89.77
365.201	73.39
365.412	65.19
365.623	50.86
365.834	18.09
366.045	67.24
366.256	42.67
366.467	87.72
366.678	71.34
366.889	61.1
367.1	3.75
367.311	46.76
367.522	83.63
367.733	69.29
367.944	77.48
368.155	44.71
368.366	34.47
368.577	57
368.788	126.63
368.999	-20.82
369.209	75.43
369.42	93.87
369.631	124.58
369.842	89.77
370.053	20.14
370.264	85.67
370.474	75.43
370.685	48.81
370.896	-37.2
371.107	155.3
371.317	63.15
371.528	44.71
371.739	112.3
371.95	89.77
372.16	42.67
372.371	-35.16
372.582	108.2
372.792	110.25
373.003	106.15
373.214	13.99
373.424	134.82
373.635	100.01
373.846	140.97
374.056	3.75
374.267	59.05
374.477	50.86
374.688	26.28
374.898	26.28
375.109	73.39
375.319	67.24
375.53	126.63
375.74	61.1
375.951	16.04
376.161	18.09
376.372	59.05
376.582	-0.34
376.793	54.95
377.003	48.81
377.214	44.71
377.424	95.91
377.635	1.71
377.845	61.1
378.055	73.39
378.266	40.62
378.476	34.47
378.686	73.39
378.897	91.82
379.107	61.1
379.317	89.77
379.528	-29.01
379.738	77.48
379.948	57
380.158	91.82
380.369	32.43
380.579	57
380.789	-4.44
380.999	181.93
381.21	52.91
381.42	42.67
381.63	30.38
381.84	83.63
382.05	81.58
382.261	130.73
382.471	126.63
382.681	9.9
382.891	81.58
383.101	81.58
383.311	67.24
383.521	67.24
383.731	57
383.941	116.39
384.151	83.63
384.361	73.39
384.571	97.96
384.781	69.29
384.991	89.77
385.201	61.1
385.411	57
385.621	59.05
385.831	65.19
386.041	65.19
386.251	77.48
386.461	52.91
386.671	44.71
386.881	61.1
387.091	54.95
387.301	59.05
387.511	75.43
387.72	120.49
387.93	67.24
388.14	75.43
388.35	118.44
388.56	102.06
388.769	61.1
388.979	122.54
389.189	22.19
389.399	116.39
389.609	34.47
389.818	52.91
390.028	75.43
390.238	-4.44
390.447	20.14
390.657	106.15
390.867	79.53
391.076	77.48
391.286	42.67
391.496	24.23
391.705	24.23
391.915	73.39
392.125	50.86
392.334	16.04
392.544	83.63
392.753	30.38
392.963	50.86
393.172	132.78
393.382	32.43
393.591	75.43
393.801	73.39
394.01	181.93
394.22	145.06
394.429	116.39
394.639	61.1
394.848	97.96
395.058	71.34
395.267	61.1
395.477	122.54
395.686	128.68
395.895	145.06
396.105	138.92
396.314	85.67
396.524	106.15
396.733	50.86
396.942	106.15
397.152	79.53
397.361	122.54
397.57	42.67
397.78	130.73
397.989	91.82
398.198	194.22
398.407	108.2
398.617	122.54
398.826	97.96
399.035	46.76
399.244	24.23
399.453	102.06
399.663	50.86
399.872	159.4
400.081	85.67
400.29	136.87
400.499	165.54
400.708	130.73
400.917	140.97
401.127	190.12
401.336	95.91
401.545	235.18
401.754	110.25
401.963	155.3
402.172	153.26
402.381	124.58
402.59	136.87
402.799	114.34
403.008	171.69
403.217	181.93
403.426	104.11
403.635	171.69
403.844	122.54
404.053	134.82
404.262	138.92
404.471	214.7
404.68	192.17
404.888	229.03
405.097	138.92
405.306	190.12
405.515	171.69
405.724	171.69
405.933	204.46
406.142	190.12
406.35	249.51
406.559	288.42
406.768	194.22
406.977	302.76
407.185	226.98
407.394	241.32
407.603	198.31
407.812	286.37
408.02	378.53
408.229	278.18
408.438	261.8
408.646	298.66
408.855	263.85
409.064	323.24
409.272	325.29
409.481	280.23
409.69	274.09
409.898	353.96
410.107	349.86
410.315	376.48
410.524	415.4
410.733	423.59
410.941	417.44
411.15	552.61
411.358	386.72
411.567	517.79
411.775	495.27
411.984	517.79
412.192	519.84
412.401	614.05
412.609	597.67
412.818	618.15
413.026	585.38
413.234	691.87
413.443	552.61
413.651	622.24
413.86	706.21
414.068	755.36
414.276	771.74
414.485	702.11
414.693	683.68
414.901	861.85
415.11	882.33
415.318	851.61
415.526	859.81
415.734	902.81
415.943	1009.31
416.151	1080.99
416.359	1023.64
416.567	1134.23
416.776	1136.28
416.984	1183.38
417.192	1203.86
417.4	1156.76
417.608	1212.06
417.817	1207.96
418.025	1269.4
418.233	1468.05
418.441	1402.52
418.649	1511.06
418.857	1545.88
419.065	1609.36
419.273	1562.26
419.481	1687.18
419.689	1846.93
419.897	1765.01
420.105	1844.88
420.313	1834.64
420.521	1984.14
420.729	2049.68
420.937	2055.82
421.145	2289.29
421.353	2238.09
421.561	2352.77
421.769	2442.89
421.977	2547.33
422.185	2524.8
422.393	2666.11
422.601	2786.94
422.809	2780.8
423.017	2868.86
423.224	2926.21
423.432	3137.15
423.64	3049.08
423.848	3343.99
424.056	3303.03
424.263	3321.46
424.471	3597.94
424.679	3559.03
424.887	3794.54
425.094	3759.73
425.302	3956.33
425.51	4007.53
425.718	4277.87
425.925	4187.75
426.133	4374.12
426.341	4585.06
426.548	4851.3
426.756	4728.42
426.964	4918.88
427.171	5086.81
427.379	5398.1
427.586	5115.48
427.794	5465.69
428.001	5850.71
428.209	6090.32
428.417	5893.71
428.624	6442.57
428.832	6250.06
429.039	6250.06
429.247	6254.16
429.454	6921.79
429.662	7274.04
429.869	6901.31
430.076	7272
430.284	7130.69
430.491	7372.35
430.699	7863.86
430.906	7953.97
431.114	8042.03
431.321	8257.07
431.528	8478.25
431.736	9018.91
431.943	9426.46
432.15	9100.83
432.358	9154.08
432.565	9805.33
432.772	9651.74
432.979	10249.74
433.187	10266.13
433.394	10225.17
433.601	11089.41
433.808	11197.95
434.016	10862.08
434.223	11558.39
434.43	12242.42
434.637	11922.93
434.844	12838.37
435.052	13075.94
435.259	12727.78
435.466	13039.08
435.673	12854.76
435.88	13665.75
436.087	14390.74
436.294	14351.82
436.501	13913.56
436.708	14392.78
436.915	14992.84
437.122	15500.73
437.329	15556.03
437.537	15855.03
437.743	16031.16
437.95	15996.34
438.157	16928.17
438.364	17470.88
438.571	17278.37
438.778	17517.98
438.985	19062.15
439.192	18283.92
439.399	19264.9
439.606	18699.66
439.813	19496.32
440.02	20983.15
440.227	20407.67
440.433	20256.12
440.64	20788.59
440.847	20811.12
441.054	21364.07
441.261	22680.91
441.467	22699.34
441.674	22637.91
441.881	23686.47
442.088	23530.82
442.294	23383.37
442.501	24063.29
442.708	24732.98
442.914	24982.83
443.121	26309.91
443.328	25752.87
443.534	27579.65
443.741	26658.07
443.948	25953.57
444.154	28116.22
444.361	27921.66
444.568	28484.86
444.774	28046.59
444.981	28646.65
445.187	29287.66
445.394	30598.36
445.6	30192.86
445.807	32933.04
446.013	31874.24
446.22	32355.52
446.426	33352.88
446.633	33608.87
446.839	34870.42
447.046	33397.93
447.252	35146.9
447.459	35300.5
447.665	34983.06
447.871	36738.17
448.078	37796.97
448.284	36607.1
448.491	37688.43
448.697	38859.87
448.903	39648.33
449.11	39824.46
449.316	39222.36
449.522	39928.91
449.728	40516.67
449.935	40852.54
450.141	41124.92
450.347	42005.55
450.553	40465.47
450.76	41368.63
450.966	42634.27
451.172	41962.54
451.378	43269.14
451.584	42208.29
451.791	42798.11
451.997	42888.22
452.203	43768.85
452.409	43619.35
452.615	43041.82
452.821	41544.75
453.027	41702.45
453.233	43551.76
453.44	42153
453.646	42310.69
453.852	42535.97
454.058	43518.99
454.264	41808.94
454.47	42888.22
454.676	41772.08
454.882	43199.51
455.088	39552.08
455.294	40379.46
455.5	40518.72
455.705	41100.34
455.911	39035.99
456.117	38552.67
456.323	38458.46
456.529	36226.18
456.735	38175.84
456.941	37022.84
457.147	36516.99
457.352	35161.23
457.558	34819.22
457.764	34991.25
457.97	34354.33
458.176	33748.14
458.381	33674.41
458.587	31894.72
458.793	31663.3
458.999	30000.35
459.204	32597.18
459.41	31630.54
459.616	29529.32
459.821	29719.78
460.027	29844.71
460.233	29064.43
460.438	27456.78
460.644	27960.58
460.85	26627.35
461.055	25928.99
461.261	26164.51
461.466	24438.07
461.672	23360.84
461.878	25292.07
462.083	23500.1
462.289	23262.54
462.494	22648.15
462.7	21697.89
462.905	21208.42
463.111	22093.15
463.316	21769.57
463.522	21525.86
463.727	21441.89
463.932	21443.94
464.138	21099.88
464.343	21488.99
464.549	20456.82
464.754	21448.04
464.959	21067.11
465.165	20944.24
465.37	20098.42
465.575	19398.02
465.781	20245.88
465.986	20415.86
466.191	19527.04
466.397	19395.97
466.602	18529.68
466.807	19479.94
467.012	19144.07
467.218	19021.19
467.423	18863.5
467.628	18896.27
467.833	19656.06
468.038	18881.93
468.244	18263.44
468.449	18920.84
468.654	18697.61
468.859	18224.53
469.064	18447.76
469.269	17921.43
469.474	17796.51
469.679	18152.85
469.885	17624.48
470.09	17649.05
470.295	17595.81
470.5	17247.65
470.705	17384.87
470.91	17178.02
471.115	16934.31
471.32	17069.48
471.525	16805.29
471.73	16522.67
471.935	16481.71
472.139	16031.16
472.344	16149.94
472.549	15840.7
472.754	15918.52
472.959	15461.82
473.164	15324.61
473.369	14919.11
473.574	15353.28
473.778	15498.69
473.983	15416.77
474.188	15371.71
474.393	14540.24
474.598	14558.67
474.802	14433.74
475.007	14308.82
475.212	14329.3
475.417	13819.35
475.621	13917.65
475.826	14046.68
476.031	13620.7
476.235	13346.27
476.44	13649.37
476.645	13358.56
476.849	13348.32
477.054	13202.91
477.259	12991.97
477.463	12934.63
477.668	12549.61
477.872	12865
478.077	12561.9
478.282	12332.53
478.486	12246.51
478.691	12299.76
478.895	12121.59
479.1	11963.89
479.304	12021.24
479.509	11681.27
479.713	11836.92
479.918	11683.32
480.122	11386.36
480.326	11644.41
480.531	11681.27
480.735	11558.39
480.94	11288.06
481.144	11701.75
481.348	11161.09
481.553	11322.88
481.757	11036.16
481.961	11220.48
482.166	11351.55
482.37	11419.13
482.574	10995.2
482.778	11116.03
482.983	11136.51
483.187	11142.66
483.391	11410.94
483.595	11263.49
483.8	10776.07
484.004	11349.5
484.208	11132.42
484.412	10843.65
484.616	11120.13
484.821	11214.34
485.025	10950.15
485.229	11283.97
485.433	10980.87
485.637	10968.58
485.841	10718.73
486.045	11062.79
486.249	11132.42
486.453	11025.92
486.657	10937.86
486.861	11214.34
487.065	10833.41
487.269	11048.45
487.473	10937.86
487.677	11048.45
487.881	11363.84
488.085	11040.26
488.289	11021.83
488.493	11036.16
488.697	11148.8
488.901	11210.24
489.105	11058.69
489.309	11210.24
489.512	11255.29
489.716	11165.18
489.92	11169.28
490.124	11191.81
490.328	11462.14
490.531	11116.03
490.735	11367.93
490.939	11267.58
491.143	11292.16
491.346	11273.73
491.55	11636.22
491.754	11664.89
491.958	11632.12
492.161	11484.67
492.365	11718.14
492.569	11787.77
492.772	11650.55
492.976	11814.39
493.18	11775.48
493.383	12068.34
493.587	11877.88
493.79	12117.49
493.994	11916.79
494.197	12234.22
494.401	12357.1
494.605	12359.15
494.808	12344.81
495.012	12484.08
495.215	12592.62
495.419	12733.93
495.622	12600.81
495.825	12692.97
496.029	12740.07
496.232	13006.31
496.436	12926.44
496.639	13069.8
496.843	13176.29
497.046	13696.47
497.249	13737.43
497.453	13829.59
497.656	13915.61
497.859	13864.41
498.063	13970.9
498.266	14394.83
498.469	14261.71
498.673	14296.53
498.876	14798.28
499.079	14964.17
499.282	14638.54
499.485	15031.75
499.689	15191.49
499.892	15373.76
500.095	15408.58
500.298	15916.47
500.501	15467.97
500.705	16106.93
500.908	16229.81
501.111	16459.18
501.314	16508.33
501.517	16715.18
501.72	16975.27
501.923	16760.23
502.126	17165.73
502.329	17657.25
502.532	17522.08
502.735	17745.31
502.938	18146.71
503.141	18167.19
503.344	18355.6
503.547	18355.6
503.75	18582.93
503.953	19060.1
504.156	19254.66
504.359	19359.11
504.562	19518.85
504.765	20106.62
504.968	20125.05
505.17	20211.06
505.373	20483.44
505.576	20626.8
505.779	20804.97
505.982	21015.91
506.185	21495.14
506.387	21597.54
506.59	21546.34
506.793	22023.51
506.996	21833.05
507.198	22768.98
507.401	22668.62
507.604	22838.61
507.807	23201.1
508.009	23381.32
508.212	23604.55
508.415	23637.31
508.617	24173.88
508.82	24145.21
509.022	24231.22
509.225	24894.77
509.428	24948.01
509.63	25373.99
509.833	25306.41
510.035	25832.74
510.238	25419.05
510.44	26404.12
510.643	26717.46
510.845	26567.96
511.048	26768.66
511.25	27340.04
511.453	27550.98
511.655	28396.79
511.858	27847.94
512.06	28355.83
512.262	28255.48
512.465	28464.38
512.667	29058.29
512.87	29275.37
513.072	29388.01
513.274	30344.41
513.477	30227.68
513.679	30416.09
513.881	30745.81
514.084	31005.91
514.286	30921.94
514.488	31038.67
514.69	32345.28
514.893	32294.08
515.095	32175.3
515.297	32998.58
515.499	33148.08
515.701	33223.86
515.904	33633.45
516.106	33567.91
516.308	34184.35
516.51	34213.02
516.712	34491.55
516.914	34823.32
517.116	35683.47
517.318	35273.87
517.52	35560.59
517.722	35855.5
517.925	36058.24
518.127	36605.05
518.329	36863.1
518.531	36494.46
518.733	37842.03
518.935	37852.27
519.136	37784.68
519.338	38540.38
519.54	38669.4
519.742	38843.48
519.944	38888.54
520.146	39560.27
520.348	39691.34
520.55	39853.13
520.752	39980.1
520.954	41043
521.155	40580.16
521.357	41059.38
521.559	41104.44
521.761	42204.2
521.963	41899.05
522.164	42292.26
522.366	42208.29
522.568	42906.65
522.77	42748.96
522.971	43371.54
523.173	43078.68
523.375	43387.92
523.576	43699.22
523.778	43846.67
523.98	44561.41
524.181	44712.96
524.383	44755.97
524.584	45296.63
524.786	45124.6
524.988	44805.12
525.189	45702.13
525.391	45665.27
525.592	45964.27
525.794	46040.04
525.995	46437.35
526.197	45919.21
526.398	46560.23
526.6	46853.09
526.801	46646.24
527.003	47023.07
527.204	47176.67
527.406	47008.73
527.607	47494.1
527.808	47559.64
528.01	46830.56
528.211	47526.87
528.412	48462.79
528.614	48038.86
528.815	47995.85
529.016	48499.65
529.218	47887.31
529.419	48212.94
529.62	48241.61
529.822	48249.8
530.023	48337.87
530.224	48665.54
530.425	48489.41
530.626	48114.64
530.828	48384.97
531.029	49433.53
531.23	48616.39
531.431	48712.64
531.632	48653.25
531.833	49310.65
532.035	49320.89
532.236	49376.19
532.437	49236.92
532.638	48640.96
532.839	48964.54
533.04	49206.2
533.241	48944.06
533.442	49492.92
533.643	49066.94
533.844	49128.38
534.045	48837.57
534.246	48755.65
534.447	49298.36
534.648	48575.43
534.849	49187.77
535.05	48882.62
535.251	49241.02
535.451	49142.72
535.652	49159.1
535.853	49159.1
536.054	49220.54
536.255	49406.9
536.456	48896.96
536.657	49572.79
536.857	49001.41
537.058	48749.51
537.259	49165.24
537.46	49062.85
537.66	49148.86
537.861	49312.7
538.062	48767.94
538.263	49146.81
538.463	48645.06
538.664	48831.43
538.865	49304.51
539.065	49220.54
539.266	48393.16
539.466	49374.14
539.667	48563.14
539.868	49152.96
540.068	49030.08
540.269	49126.33
540.469	49175.48
540.67	49173.44
540.87	48688.07
541.071	48466.89
541.271	48956.35
541.472	48618.44
541.672	48083.92
541.873	48526.28
542.073	48098.25
542.274	49054.65
542.474	48202.7
542.675	48593.86
542.875	48927.68
543.075	48735.17
543.276	48296.91
543.476	48808.9
543.676	48264.14
543.877	48548.81
544.077	48317.39
544.277	48485.32
544.478	48270.28
544.678	48845.76
544.878	48452.55
545.078	48587.72
545.279	48321.48
545.479	48157.64
545.679	48411.59
545.879	47956.94
546.079	48413.64
546.28	48317.39
546.48	48079.82
546.68	48575.43
546.88	48751.55
547.08	48346.06
547.28	48661.44
547.48	47877.07
547.68	48391.11
547.88	47991.76
548.081	48442.31
548.281	48337.87
548.481	48169.93
548.681	48309.19
548.881	48014.29
549.081	48008.14
549.28	47795.15
549.48	48630.72
549.68	48116.68
549.88	48825.28
550.08	47913.94
550.28	48423.88
550.48	47891.41
550.68	48225.23
550.88	47772.63
551.08	47926.22
551.279	47715.28
551.479	47670.23
551.679	48131.02
551.879	48090.06
552.079	48018.38
552.278	47993.81
552.478	48100.3
552.678	48114.64
552.878	48540.61
553.077	47997.9
553.277	47649.75
553.477	48096.2
553.676	47674.32
553.876	47866.83
554.076	47500.25
554.275	47631.32
554.475	47317.98
554.674	47795.15
554.874	47963.09
555.074	48071.63
555.273	48153.55
555.473	48149.45
555.672	47573.97
555.872	47436.76
556.071	47547.35
556.271	47776.72
556.47	47131.61
556.67	46986.21
556.869	47680.47
557.068	47713.23
557.268	46885.86
557.467	47250.39
557.667	47186.91
557.866	47180.76
558.065	47418.33
558.265	46900.19
558.464	46969.82
558.663	47444.95
558.863	46494.69
559.062	47629.27
559.261	46525.41
559.461	47629.27
559.66	46814.18
559.859	46797.79
560.058	46455.78
560.258	46754.79
560.457	46676.96
560.656	47068.12
560.855	46394.34
561.054	46650.34
561.253	46314.47
561.453	46545.89
561.652	46531.56
561.851	46732.26
562.05	46375.91
562.249	46230.51
562.448	46801.89
562.647	46371.82
562.846	46183.4
563.045	46148.59
563.244	45558.77
563.443	46808.03
563.642	45738.99
563.841	46246.89
564.04	46132.2
564.239	45874.16
564.438	45880.3
564.637	45941.74
564.836	45657.07
565.035	45356.02
565.234	45722.61
565.432	45493.24
565.631	45116.41
565.83	45237.24
566.029	45218.81
566.228	45450.23
566.427	45052.92
566.625	44876.8
566.824	44547.07
567.023	45079.55
567.222	44319.75
567.42	44944.38
567.619	44934.14
567.818	44413.96
568.016	44672
568.215	44534.79
568.414	44166.15
568.612	44620.8
568.811	44071.95
569.01	44301.32
569.208	43824.14
569.407	44282.89
569.605	43420.69
569.804	44311.56
570.002	43537.43
570.201	43779.09
570.4	43379.73
570.598	43580.43
570.797	43324.44
570.995	43551.76
571.193	42869.79
571.392	43559.95
571.59	42736.67
571.789	43183.13
571.987	42638.37
572.186	42726.43
572.384	42656.8
572.582	42892.32
572.781	42566.69
572.979	42066.98
573.177	42286.12
573.376	42398.76
573.574	42273.83
573.772	41888.81
573.971	41886.76
574.169	41589.81
574.367	41720.88
574.565	41980.97
574.763	41667.63
574.962	41286.71
575.16	41323.57
575.358	41395.25
575.556	40918.07
575.754	41546.8
575.952	40725.57
576.151	41342
576.349	40852.54
576.547	40664.13
576.745	41036.86
576.943	40965.18
577.141	40338.5
577.339	40782.91
577.537	40637.5
577.735	40385.6
577.933	39726.16
578.131	40340.55
578.329	39504.98
578.527	39736.4
578.725	39877.71
578.923	39898.19
579.121	39318.61
579.319	39498.83
579.516	39945.29
579.714	39570.51
579.912	39056.47
580.11	39128.15
580.308	39146.58
580.506	38898.78
580.704	38229.09
580.901	38966.36
581.099	38974.55
581.297	38661.21
581.495	38493.28
581.692	38853.72
581.89	38431.84
582.088	38464.61
582.285	38177.89
582.483	38007.91
582.681	38216.8
582.878	37921.9
583.076	37950.57
583.274	38198.37
583.471	37418.1
583.669	37330.03
583.866	37391.47
584.064	37074.04
584.262	36912.25
584.459	37205.11
584.657	36727.93
584.854	37010.55
585.052	36304
585.249	36891.77
585.447	36758.65
585.644	36338.82
585.841	36222.08
586.039	36613.24
586.236	36232.32
586.434	36310.14
586.631	35970.18
586.828	36267.14
587.026	35847.3
587.223	35239.06
587.42	36009.09
587.618	35751.05
587.815	35327.12
588.012	35114.13
588.21	35107.99
588.407	35462.29
588.604	35316.88
588.801	35255.44
588.999	35017.88
589.196	34821.27
589.393	35007.64
589.59	34716.82
589.787	34475.16
589.984	34454.68
590.182	34391.2
590.379	34409.63
590.576	34411.68
590.773	34600.09
590.97	33883.3
591.167	34344.09
591.364	33565.87
591.561	33916.07
591.758	33592.49
591.955	33449.13
592.152	33836.2
592.349	33154.22
592.546	33309.87
592.743	33096.88
592.94	33096.88
593.137	33340.59
593.334	33107.12
593.531	33004.72
593.727	32816.31
593.924	32758.97
594.121	32455.87
594.318	32402.62
594.515	32226.49
594.712	32656.57
594.908	32003.27
595.105	32343.23
595.302	31837.38
595.499	31880.39
595.696	31925.44
595.892	32056.51
596.089	32128.19
596.286	31999.17
596.482	31831.24
596.679	31845.57
596.876	31378.64
597.072	31509.71
597.269	31014.1
597.466	31397.07
597.662	31028.43
597.859	31227.09
598.055	31001.81
598.252	31106.26
598.448	30639.32
598.645	30907.6
598.841	30563.54
599.038	30395.61
599.234	30698.71
599.431	29752.55
599.627	29842.66
599.824	30436.57
600.02	30168.29
600.217	30362.84
600.413	29787.36
600.609	29367.53
600.806	29521.13
601.002	29875.43
601.198	29406.44
601.395	29320.43
601.591	29439.21
601.787	29297.9
601.984	29201.65
602.18	29449.45
602.376	29039.86
602.572	29021.42
602.769	28859.63
602.965	28433.66
603.161	28656.89
603.357	28638.45
603.553	28589.3
603.75	28339.45
603.946	28294.39
604.142	28353.79
604.338	27968.77
604.534	28181.76
604.73	28011.78
604.926	27843.84
605.122	27958.53
605.318	27919.62
605.514	27677.96
605.71	27598.09
605.906	27780.35
606.102	27415.82
606.298	27428.1
606.494	27667.72
606.69	27471.11
606.886	27251.98
607.082	26809.62
607.278	27411.72
607.474	26823.95
607.67	27383.05
607.866	26379.54
608.062	27026.7
608.257	26723.6
608.453	26514.71
608.649	27333.9
608.845	26746.13
609.041	26770.71
609.236	26717.46
609.432	26676.5
609.628	26641.68
609.824	26328.34
610.019	26461.46
610.215	26113.31
610.411	26309.91
610.606	26025.25
610.802	26367.26
610.998	26008.86
611.193	25814.3
611.389	25906.46
611.584	25883.94
611.78	25523.49
611.976	25890.08
612.171	25732.39
612.367	25963.81
612.562	25716
612.758	25021.74
612.953	25328.94
613.149	25584.93
613.344	25548.07
613.539	25720.1
613.735	25294.12
613.93	25355.56
614.126	25064.75
614.321	25378.09
614.517	25320.74
614.712	25183.53
614.907	25005.36
615.103	25429.29
615.298	24780.08
615.493	25011.5
615.688	24847.66
615.884	25199.91
616.079	24649.01
616.274	24913.2
616.47	24657.2
616.665	24673.59
616.86	24448.31
617.055	24333.62
617.25	24622.39
617.445	24771.89
617.641	24157.5
617.836	24382.77
618.031	24245.56
618.226	24159.55
618.421	23987.52
618.616	24220.99
618.811	23833.92
619.006	24188.22
619.201	23280.97
619.396	23813.44
619.591	23508.29
619.786	23774.53
619.981	23031.12
620.176	23493.96
620.371	23291.21
620.566	23240.01
620.761	22947.15
620.956	22891.85
621.151	22828.37
621.346	22750.54
621.541	22660.43
621.735	22469.97
621.93	22095.19
622.125	22469.97
622.32	22084.95
622.515	22322.52
622.709	22048.09
622.904	21878.11
623.099	21693.79
623.294	21882.2
623.488	21556.58
623.683	21673.31
623.878	21378.4
624.072	21161.32
624.267	21226.85
624.462	21079.4
624.656	20874.6
624.851	20962.67
625.046	20682.1
625.24	20577.65
625.435	20333.94
625.629	20331.89
625.824	20067.7
626.018	20391.28
626.213	19957.11
626.407	20077.94
626.602	19662.21
626.796	19817.85
626.991	19684.73
627.185	19578.24
627.38	19484.03
627.574	19570.05
627.768	19111.3
627.963	19015.05
628.157	19004.81
628.352	19111.3
628.546	18591.12
628.74	19090.82
628.935	18570.64
629.129	18769.29
629.323	18003.35
629.517	18390.42
629.712	18171.29
629.906	18220.44
630.1	17993.11
630.294	18169.24
630.489	17984.92
630.683	17798.56
630.877	17726.88
631.071	17745.31
631.265	17571.23
631.459	17640.86
631.653	17423.78
631.848	17341.86
632.042	17317.28
632.236	17186.21
632.43	16829.87
632.624	17235.36
632.818	16833.96
633.012	16711.08
633.206	16565.68
633.4	16528.81
633.594	16360.88
633.788	16260.53
633.982	16518.57
634.176	16229.81
634.369	15877.56
634.563	16362.93
634.757	15830.46
634.951	15926.71
635.145	15912.38
635.339	15801.79
635.533	15666.62
635.726	15621.56
635.92	15361.47
636.114	15439.3
636.308	15304.13
636.501	15418.82
636.695	15416.77
636.889	15085
637.083	15205.83
637.276	14915.02
637.47	14943.69
637.664	14831.05
637.857	14742.99
638.051	14562.76
638.244	14415.31
638.438	14550.48
638.632	14368.21
638.825	14601.68
639.019	14484.94
639.212	14081.49
639.406	14261.71
639.599	14159.31
639.793	14206.42
639.986	13753.82
640.18	13757.91
640.373	13749.72
640.567	13682.14
640.76	13968.85
640.954	13647.32
641.147	13524.44
641.34	13485.53
641.534	13323.74
641.727	13268.45
641.92	13114.85
642.114	13088.23
642.307	13157.86
642.5	12785.13
642.694	12572.14
642.887	12791.27
643.08	12609
643.273	12791.27
643.467	12572.14
643.66	12467.69
643.853	12273.14
644.046	12271.09
644.239	12283.38
644.432	12209.65
644.626	12060.15
644.819	12056.05
645.012	12023.28
645.205	12006.9
645.398	12029.43
645.591	11806.2
645.784	11714.04
645.977	11714.04
646.17	11564.54
646.363	11677.18
646.556	11275.77
646.749	11648.5
646.942	11611.64
647.135	11474.43
647.328	11324.93
647.521	11210.24
647.714	11113.99
647.907	11324.93
648.099	11064.83
648.292	10915.33
648.485	10970.63
648.678	10812.93
648.871	11062.79
649.064	10628.62
649.256	10833.41
649.449	10706.44
649.642	10593.8
649.835	10290.7
650.027	10860.04
650.22	10317.33
650.413	10280.46
650.605	10456.59
650.798	10266.13
650.991	10208.78
651.183	10274.32
651.376	10212.88
651.568	10137.1
651.761	10055.19
651.954	10040.85
652.146	9920.02
652.339	9979.41
652.531	9862.68
652.724	9651.74
652.916	9592.34
653.109	9877.01
653.301	9395.74
653.494	9629.21
653.686	9477.66
653.879	9453.08
654.071	9512.47
654.263	9268.77
654.456	9422.36
654.648	9340.44
654.84	9133.6
655.033	9012.77
655.225	9166.37
655.417	9000.48
655.61	9004.58
655.802	9057.82
655.994	8742.44
656.186	8762.92
656.379	8887.84
656.571	8787.49
656.763	8728.1
656.955	8607.27
657.148	8654.37
657.34	8511.02
657.532	8447.53
657.724	8547.88
657.916	8621.61
658.108	8576.55
658.3	8226.35
658.492	8318.51
658.684	8281.64
658.876	8169.01
659.068	8185.39
659.26	8121.9
659.452	8076.85
659.644	8109.61
659.836	8060.46
660.028	8039.98
660.22	7872.05
660.412	7872.05
660.604	7806.52
660.796	7824.95
660.988	7663.16
661.18	7712.31
661.372	7618.1
661.563	7716.4
661.755	7478.84
661.947	7661.11
662.139	7677.49
662.331	7609.91
662.522	7419.45
662.714	7626.29
662.906	7370.3
663.097	7298.62
663.289	7327.29
663.481	7323.19
663.673	7286.33
663.864	7263.8
664.056	7210.56
664.247	7118.4
664.439	7040.58
664.631	7083.58
664.822	6929.98
665.014	7061.05
665.205	6934.08
665.397	7038.53
665.588	6925.89
665.78	6860.35
665.971	6872.64
666.163	6719.04
666.354	6587.97
666.546	6788.68
666.737	6653.51
666.929	6637.13
667.12	6559.3
667.311	6340.17
667.503	6561.35
667.694	6491.72
667.885	6536.77
668.077	6434.38
668.268	6409.8
668.459	6319.69
668.651	6415.94
668.842	6252.11
669.033	6413.9
669.224	6278.73
669.416	6340.17
669.607	6170.19
669.798	6397.51
669.989	6170.19
670.18	6057.55
670.371	6069.84
670.563	6209.1
670.754	6159.95
670.945	6014.54
671.136	5938.77
671.327	5981.78
671.518	6028.88
671.709	5928.53
671.9	5946.96
672.091	5949.01
672.282	5938.77
672.473	5785.17
672.664	5987.92
672.855	5916.24
673.046	5723.73
673.237	5811.79
673.428	5733.97
673.619	5746.26
673.809	5586.52
674	5721.68
674.191	5660.24
674.382	5492.31
674.573	5611.09
674.764	5588.57
674.954	5594.71
675.145	5512.79
675.336	5647.96
675.527	5459.54
675.717	5447.26
675.908	5437.02
676.099	5480.02
676.289	5457.5
676.48	5348.95
676.671	5353.05
676.861	5230.17
677.052	5375.58
677.243	5346.91
677.433	5187.16
677.624	5283.42
677.814	5105.24
678.005	5197.4
678.195	5402.2
678.386	5246.55
678.576	5064.29
678.767	5254.75
678.957	5113.44
679.148	5162.59
679.338	5099.1
679.529	5209.69
679.719	5129.82
679.909	5148.25
680.1	5039.71
680.29	5156.44
680.481	5013.09
680.671	5004.89
680.861	4931.17
681.052	5072.48
681.242	5078.62
681.432	5086.81
681.622	5129.82
681.813	5039.71
682.003	4898.4
682.193	4867.68
682.383	4939.36
682.573	5021.28
682.764	4916.83
682.954	4988.51
683.144	4824.67
683.334	4806.24
683.524	4808.29
683.714	4873.82
683.904	4703.84
684.094	4916.83
684.284	4873.82
684.474	4656.74
684.664	4685.41
684.854	4695.65
685.044	4617.83
685.234	4529.77
685.424	4834.91
685.614	4656.74
685.804	4619.88
685.994	4658.79
686.184	4712.03
686.374	4636.26
686.564	4451.94
686.753	4654.69
686.943	4474.47
687.133	4503.14
687.323	4269.67
687.513	4472.42
687.702	4456.04
687.892	4447.85
688.082	4394.6
688.272	4468.33
688.461	4335.21
688.651	4630.12
688.841	4425.32
689.03	4329.06
689.22	4238.95
689.41	4320.87
689.599	4286.06
689.789	4277.87
689.979	4210.28
690.168	4374.12
690.358	4429.42
690.547	4279.91
690.737	4185.71
690.926	4267.63
691.116	4114.03
691.305	4177.51
691.495	4107.88
691.684	4206.19
691.874	4144.75
692.063	4193.9
692.252	4165.23
692.442	3942
692.631	4034.16
692.82	4017.77
693.01	4015.73
693.199	3954.29
693.388	3931.76
693.578	3964.53
693.767	3997.29
693.956	3729.01
694.146	3972.72
694.335	3989.1
694.524	3894.9
694.713	3835.5
694.902	3921.52
695.092	3751.54
695.281	3835.5
695.47	3876.46
695.659	3882.61
695.848	3755.63
696.037	3823.22
696.226	3804.78
696.415	3767.92
696.604	3833.46
696.793	3647.09
696.982	3849.84
697.171	3761.78
697.36	3778.16
697.549	3808.88
697.738	3683.95
697.927	3626.61
698.116	3616.37
698.305	3741.3
698.494	3765.87
698.683	3643
698.872	3735.15
699.061	3630.71
699.25	3599.99
699.438	3575.41
699.627	3743.35
699.816	3655.28
700.005	3581.56
700.193	3665.52
700.382	3548.79
700.571	3628.66
700.76	3497.59
700.948	3694.19
701.137	3597.94
701.326	3612.28
701.514	3546.74
701.703	3532.4
701.892	3595.89
702.08	3616.37
702.269	3546.74
702.457	3440.25
702.646	3491.45
702.834	3341.94
703.023	3438.2
703.212	3516.02
703.4	3270.26
703.589	3473.01
703.777	3368.57
703.965	3501.69
704.154	3399.29
704.342	3266.17
704.531	3341.94
704.719	3343.99
704.907	3286.65
705.096	3257.98
705.284	3403.38
705.472	3309.18
705.661	3352.18
705.849	3530.36
706.037	3413.62
706.226	3327.61
706.414	3276.41
706.602	3337.85
706.79	3366.52
706.979	3190.39
707.167	3245.69
707.355	3280.5
707.543	3311.22
707.731	3235.45
707.919	3298.94
708.107	3294.84
708.296	3149.43
708.484	3176.06
708.672	3196.54
708.86	3212.92
709.048	3165.82
709.236	3169.91
709.424	3202.68
709.612	3049.08
709.8	3120.76
709.988	2993.79
710.176	3112.57
710.364	3090.04
710.551	3194.49
710.739	3088
710.927	2999.93
711.115	3090.04
711.303	3245.69
711.491	3118.72
711.679	3090.04
711.866	3030.65
712.054	2883.2
712.242	2983.55
712.43	3163.77
712.617	3057.28
712.805	3042.94
712.993	2973.31
713.181	2915.97
713.368	2836.1
713.556	2887.29
713.744	2895.49
713.931	3098.24
714.119	2885.25
714.306	2821.76
714.494	2932.35
714.682	2899.58
714.869	2797.18
715.057	2963.07
715.244	2825.86
715.432	2997.88
715.619	2981.5
715.807	2909.82
715.994	2913.92
716.182	2803.33
716.369	2821.76
716.556	2842.24
716.744	2756.22
716.931	2907.77
717.119	2737.79
717.306	2924.16
717.493	2741.89
717.681	2784.9
717.868	2723.46
718.055	2698.88
718.242	2807.42
718.43	2721.41
718.617	2711.17
718.804	2711.17
718.991	2674.31
719.179	2651.78
719.366	2702.98
719.553	2709.12
719.74	2727.55
719.927	2745.98
720.114	2596.48
720.301	2727.55
720.488	2610.82
720.676	2582.15
720.863	2614.91
721.05	2637.44
721.237	2610.82
721.424	2754.18
721.611	2596.48
721.798	2629.25
721.985	2563.72
722.172	2559.62
722.358	2541.19
722.545	2690.69
722.732	2530.95
722.919	2524.8
723.106	2573.96
723.293	2551.43
723.48	2473.6
723.667	2414.21
723.853	2363.01
724.04	2512.52
724.227	2492.04
724.414	2530.95
724.6	2516.61
724.787	2489.99
724.974	2553.48
725.161	2440.84
725.347	2416.26
725.534	2436.74
725.72	2539.14
725.907	2516.61
726.094	2467.46
726.28	2352.77
726.467	2502.28
726.653	2416.26
726.84	2403.97
727.027	2469.51
727.213	2285.19
727.4	2465.41
727.586	2401.93
727.773	2406.02
727.959	2334.34
728.145	2414.21
728.332	2223.75
728.518	2289.29
728.705	2449.03
728.891	2387.59
729.077	2393.73
729.264	2270.86
729.45	2391.69
729.636	2403.97
729.823	2326.15
730.009	2231.94
730.195	2309.77
730.382	2326.15
730.568	2199.18
730.754	2172.55
730.94	2207.37
731.126	2344.58
731.313	2211.46
731.499	2256.52
731.685	2180.75
731.871	2225.8
732.057	2268.81
732.243	2311.82
732.429	2178.7
732.615	2381.45
732.801	2231.94
732.987	2201.23
733.173	2213.51
733.359	2221.7
733.545	2172.55
733.731	2154.12
733.917	2242.18
734.103	2098.83
734.289	2145.93
734.475	2150.03
734.661	2123.4
734.847	2236.04
735.033	2141.83
735.219	2086.54
735.404	2170.51
735.59	2100.87
735.776	2023.05
735.962	2250.38
736.148	2221.7
736.333	2121.35
736.519	2162.31
736.705	2064.01
736.89	2039.44
737.076	2145.93
737.262	1992.33
737.447	2025.1
737.633	2016.91
737.819	2033.29
738.004	2076.3
738.19	2043.53
738.375	2072.2
738.561	2141.83
738.747	2033.29
738.932	2068.11
739.118	2053.77
739.303	2031.24
739.489	1918.61
739.674	1984.14
739.859	1955.47
740.045	2008.72
740.23	1945.23
740.416	1916.56
740.601	1963.66
740.786	2027.15
740.972	1848.97
741.157	2031.24
741.342	1793.68
741.528	1957.52
741.713	1904.27
741.898	1994.38
742.084	1883.79
742.269	1859.21
742.454	1941.13
742.639	1828.49
742.824	1957.52
743.01	1887.89
743.195	1889.93
743.38	1867.41
743.565	1873.55
743.75	1697.42
743.935	1853.07
744.12	1736.34
744.305	1791.63
744.49	1687.18
744.675	1664.66
744.86	1791.63
745.045	1728.14
745.23	1683.09
745.415	1742.48
745.6	1709.71
745.785	1576.59
745.97	1748.62
746.155	1695.38
746.34	1754.77
746.525	1711.76
746.71	1642.13
746.895	1621.65
747.079	1615.51
747.264	1609.36
747.449	1574.55
747.634	1691.28
747.819	1672.85
748.003	1597.07
748.188	1513.11
748.373	1617.55
748.557	1613.46
748.742	1572.5
748.927	1490.58
749.111	1443.48
749.296	1439.38
749.481	1457.81
749.665	1535.64
749.85	1509.01
750.034	1463.96
750.219	1396.37
750.404	1347.22
750.588	1398.42
750.773	1412.76
750.957	1420.95
751.141	1377.94
751.326	1441.43
751.51	1382.04
751.695	1375.89
751.879	1367.7
752.064	1386.13
752.248	1324.69
752.432	1379.99
752.617	1285.78
752.801	1328.79
752.985	1384.09
753.17	1361.56
753.354	1287.83
753.538	1359.51
753.722	1334.93
753.907	1293.97
754.091	1300.12
754.275	1298.07
754.459	1212.06
754.643	1146.52
754.828	1220.25
755.012	1259.16
755.196	1150.62
755.38	1173.14
755.564	1212.06
755.748	1148.57
755.932	1109.66
756.116	1201.82
756.3	1158.81
756.484	1154.71
756.668	1130.14
756.852	1109.66
757.036	1150.62
757.22	1160.86
757.404	1117.85
757.588	1072.79
757.772	1074.84
757.956	1101.47
758.14	1072.79
758.323	1140.38
758.507	1109.66
758.691	1097.37
758.875	1001.12
759.059	1048.22
759.242	1035.93
759.426	999.07
759.61	1025.69
759.794	1011.36
759.977	1113.75
760.161	1130.14
760.345	1031.83
760.528	978.59
760.712	976.54
760.895	1058.46
761.079	925.34
761.263	935.58
761.446	921.24
761.63	960.16
761.813	962.2
761.997	999.07
762.18	954.01
762.364	886.43
762.547	829.09
762.731	835.23
762.914	1044.12
763.098	847.52
763.281	966.3
763.464	900.76
763.648	890.53
763.831	868
764.015	894.62
764.198	925.34
764.381	908.96
764.564	917.15
764.748	927.39
764.931	927.39
765.114	824.99
765.297	962.2
765.481	843.42
765.664	870.05
765.847	851.61
766.03	861.85
766.213	853.66
766.397	837.28
766.58	788.13
766.763	794.27
766.946	843.42
767.129	837.28
767.312	779.93
767.495	835.23
767.678	751.26
767.861	753.31
768.044	736.93
768.227	794.27
768.41	698.02
768.593	757.41
768.776	908.96
768.959	724.64
769.142	802.46
769.324	786.08
769.507	771.74
769.69	802.46
769.873	734.88
770.056	827.04
770.239	695.97
770.421	759.46
770.604	720.54
770.787	736.93
770.97	689.82
771.152	736.93
771.335	757.41
771.518	700.06
771.7	755.36
771.883	741.02
772.066	716.45
772.248	679.58
772.431	718.5
772.613	663.2
772.796	706.21
772.978	698.02
773.161	683.68
773.343	655.01
773.526	708.26
773.708	679.58
773.891	614.05
774.073	671.39
774.256	657.06
774.438	712.35
774.621	695.97
774.803	679.58
774.985	657.06
775.168	677.54
775.35	614.05
775.532	638.62
775.715	640.67
775.897	663.2
776.079	562.85
776.261	618.15
776.444	581.28
776.626	614.05
776.808	585.38
776.99	607.91
777.173	612
777.355	566.95
777.537	575.14
777.719	556.71
777.901	511.65
778.083	605.86
778.265	540.32
778.447	603.81
778.629	450.21
778.811	562.85
778.993	583.33
779.175	673.44
779.357	466.6
779.539	519.84
779.721	495.27
779.903	624.29
780.085	525.99
780.267	523.94
780.449	540.32
780.631	542.37
780.812	497.32
780.994	507.55
781.176	534.18
781.358	585.38
781.54	509.6
781.721	501.41
781.903	491.17
782.085	442.02
782.267	435.88
782.448	485.03
782.63	487.08
782.812	462.5
782.993	394.92
783.175	394.92
783.357	487.08
783.538	382.63
783.72	409.25
783.901	429.73
784.083	485.03
784.264	446.12
784.446	452.26
784.627	411.3
784.809	442.02
784.99	413.35
785.172	388.77
785.353	388.77
785.535	435.88
785.716	425.64
785.897	343.72
786.079	372.39
786.26	366.25
786.441	360.1
786.623	347.81
786.804	329.38
786.985	401.06
787.167	403.11
787.348	345.77
787.529	331.43
787.71	399.01
787.891	298.66
788.073	339.62
788.254	331.43
788.435	343.72
788.616	345.77
788.797	341.67
788.978	339.62
789.159	394.92
789.34	386.72
789.522	364.2
789.703	294.57
789.884	351.91
790.065	458.4
790.246	333.48
790.427	319.14
790.607	329.38
790.788	329.38
790.969	360.1
791.15	364.2
791.331	280.23
791.512	302.76
791.693	327.33
791.874	300.71
792.054	300.71
792.235	280.23
792.416	282.28
792.597	329.38
792.778	296.61
792.958	315.05
793.139	302.76
793.32	241.32
793.5	253.61
793.681	356.01
793.862	298.66
794.042	245.41
794.223	204.46
794.404	327.33
794.584	272.04
794.765	333.48
794.945	284.33
795.126	327.33
795.306	237.22
795.487	237.22
795.667	278.18
795.848	321.19
796.028	265.89
796.209	202.41
796.389	222.89
796.57	231.08
796.75	257.7
796.93	220.84
797.111	159.4
797.291	296.61
797.471	282.28
797.652	304.81
797.832	210.6
798.012	251.56
798.192	229.03
798.373	212.65
798.553	237.22
798.733	286.37
798.913	241.32
799.093	261.8
799.274	179.88
799.454	179.88
799.634	233.13
799.814	247.46
799.994	276.13
800.174	188.07
800.354	233.13
800.534	196.26
800.714	204.46
800.894	116.39
801.074	196.26
801.254	155.3
801.434	188.07
801.614	190.12
801.794	67.24
801.974	802.46
802.154	190.12
802.334	278.18
802.514	204.46
802.693	118.44
802.873	188.07
803.053	222.89
803.233	212.65
803.413	175.78
803.592	224.94
803.772	194.22
803.952	163.5
804.131	122.54
804.311	188.07
804.491	171.69
804.67	177.83
804.85	159.4
805.03	165.54
805.209	134.82
805.389	192.17
805.568	212.65
805.748	192.17
805.928	204.46
806.107	257.7
806.287	269.99
806.466	155.3
806.646	163.5
806.825	130.73
807.004	159.4
807.184	147.11
807.363	190.12
807.543	249.51
807.722	147.11
807.901	192.17
808.081	132.78
808.26	124.58
808.439	75.43
808.619	151.21
808.798	110.25
808.977	204.46
809.156	140.97
809.336	153.26
809.515	175.78
809.694	118.44
809.873	181.93
810.052	194.22
810.231	157.35
810.411	224.94
810.59	175.78
810.769	124.58
810.948	186.02
811.127	196.26
811.306	173.74
811.485	118.44
811.664	186.02
811.843	124.58
812.022	163.5
812.201	108.2
812.38	192.17
812.559	77.48
812.737	147.11
812.916	87.72
813.095	143.02
813.274	114.34
813.453	130.73
813.632	87.72
813.811	147.11
813.989	159.4
814.168	124.58
814.347	89.77
814.526	165.54
814.704	122.54
814.883	188.07
815.062	83.63
815.24	128.68
815.419	112.3
815.598	130.73
815.776	134.82
815.955	147.11
816.133	114.34
816.312	97.96
816.49	147.11
816.669	110.25
816.847	114.34
817.026	95.91
817.204	100.01
817.383	192.17
817.561	75.43
817.74	83.63
817.918	149.16
818.097	65.19
818.275	106.15
818.453	130.73
818.632	61.1
818.81	91.82
818.988	83.63
819.167	91.82
819.345	63.15
819.523	91.82
819.701	83.63
819.879	100.01
820.058	130.73
820.236	126.63
820.414	63.15
820.592	81.58
820.77	126.63
820.948	104.11
821.127	138.92
821.305	81.58
821.483	126.63
821.661	122.54
821.839	95.91
822.017	79.53
822.195	83.63
822.373	140.97
822.551	171.69
822.729	85.67
822.907	163.5
823.085	173.74
823.262	61.1
823.44	1.71
823.618	48.81
823.796	122.54
823.974	69.29
824.152	149.16
824.329	83.63
824.507	124.58
824.685	57
824.863	50.86
825.04	65.19
825.218	67.24
825.396	126.63
825.574	67.24
825.751	65.19
825.929	116.39
826.107	63.15
826.284	69.29
826.462	89.77
826.639	34.47
826.817	57
826.994	93.87
827.172	67.24
827.349	151.21
827.527	100.01
827.704	52.91
827.882	11.95
828.059	65.19
828.237	16.04
828.414	147.11
828.591	40.62
828.769	155.3
828.946	75.43
829.124	122.54
829.301	130.73
829.478	124.58
829.655	89.77
829.833	16.04
830.01	-24.92
830.187	34.47
830.364	-0.34
830.542	42.67
830.719	102.06
830.896	42.67
831.073	40.62
831.25	52.91
831.427	91.82
831.604	104.11
831.782	-2.39
831.959	71.34
832.136	28.33
832.313	89.77
832.49	83.63
832.667	106.15
832.844	57
833.021	138.92
833.198	32.43
833.374	106.15
833.551	81.58
833.728	85.67
833.905	130.73
834.082	40.62
834.259	91.82
834.436	116.39
834.612	81.58
834.789	40.62
834.966	32.43
835.143	79.53
835.319	75.43
835.496	97.96
835.673	102.06
835.85	114.34
836.026	87.72
836.203	65.19
836.38	128.68
836.556	52.91
836.733	32.43
836.909	145.06
837.086	48.81
837.262	38.57
837.439	-16.73
837.616	73.39
837.792	24.23
837.968	40.62
838.145	48.81
838.321	73.39
838.498	54.95
838.674	-0.34
838.851	69.29
839.027	65.19
839.203	44.71
839.38	87.72
839.556	7.85
839.732	73.39
839.909	114.34
840.085	63.15
840.261	69.29
840.437	42.67
840.614	7.85
840.79	81.58
840.966	112.3
841.142	44.71
841.318	42.67
841.494	81.58
841.671	26.28
841.847	48.81
842.023	102.06
842.199	102.06
842.375	122.54
842.551	20.14
842.727	32.43
842.903	85.67
843.079	42.67
843.255	26.28
843.431	48.81
843.607	67.24
843.783	24.23
843.959	38.57
844.134	-90.45
844.31	100.01
844.486	36.52
844.662	-0.34
844.838	83.63
845.013	34.47
845.189	59.05
845.365	93.87
845.541	44.71
845.716	65.19
845.892	91.82
846.068	85.67
846.244	24.23
846.419	91.82
846.595	81.58
846.77	-0.34
846.946	155.3
847.122	26.28
847.297	48.81
847.473	50.86
847.648	26.28
847.824	24.23
847.999	-12.63
848.175	44.71
848.35	61.1
848.526	28.33
848.701	3.75
848.876	59.05
849.052	63.15
849.227	-33.11
849.403	36.52
849.578	73.39
849.753	54.95
849.929	57
850.104	48.81
850.279	26.28
850.454	104.11
850.63	112.3
850.805	24.23
850.98	9.9
851.155	67.24
851.33	52.91
851.505	-31.06
851.681	40.62
851.856	-39.25
852.031	50.86
852.206	65.19
852.381	-37.2
852.556	32.43
852.731	3.75
852.906	20.14
853.081	28.33
853.256	59.05
853.431	5.8
853.606	-6.49
853.781	32.43
853.956	-16.73
854.131	104.11
854.305	59.05
854.48	18.09
854.655	-8.53
854.83	57
855.005	-55.64
855.18	48.81
855.354	-0.34
855.529	-16.73
855.704	11.95
855.879	-2.39
856.053	3.75
856.228	48.81
856.403	13.99
856.577	54.95
856.752	44.71
856.926	61.1
857.101	28.33
857.276	28.33
857.45	48.81
857.625	24.23
857.799	48.81
857.974	28.33
858.148	-24.92
858.323	24.23
858.497	-14.68
858.672	16.04
858.846	18.09
859.02	26.28
859.195	36.52
859.369	-24.92
859.543	-0.34
859.718	36.52
859.892	-43.35
860.066	65.19
860.241	65.19
860.415	-0.34
860.589	7.85
860.763	89.77
860.938	-18.77
861.112	73.39
861.286	-80.21
861.46	65.19
861.634	11.95
861.808	38.57
861.982	-39.25
862.157	-69.97
862.331	32.43
862.505	26.28
862.679	3.75
862.853	-0.34
863.027	-16.73
863.201	134.82
863.375	-4.44
863.549	112.3
863.722	-2.39
863.896	48.81
864.07	-45.4
864.244	-4.44
864.418	65.19
864.592	42.67
864.766	32.43
864.939	5.8
865.113	-41.3
865.287	97.96
865.461	-24.92
865.634	16.04
865.808	16.04
865.982	69.29
866.156	32.43
866.329	-33.11
866.503	44.71
866.676	32.43
866.85	32.43
867.024	-10.58
867.197	63.15
867.371	-84.31
867.544	9.9
867.718	65.19
867.891	22.19
868.065	46.76
868.238	7.85
868.412	-8.53
868.585	36.52
868.759	-57.68
868.932	18.09
869.105	-0.34
869.279	11.95
869.452	42.67
869.625	59.05
869.799	-51.54
869.972	-18.77
870.145	-51.54
870.319	9.9
870.492	-72.02
870.665	-16.73
870.838	34.47
871.011	3.75
871.185	-0.34
871.358	-37.2
871.531	-8.53
871.704	-55.64
871.877	7.85
872.05	52.91
872.223	-39.25
872.396	-0.34
872.569	-18.77
872.742	-35.16
872.915	-0.34
873.088	11.95
873.261	32.43
873.434	20.14
873.607	36.52
873.78	-33.11
873.953	-6.49
874.126	20.14
874.299	-47.44
874.471	48.81
874.644	40.62
874.817	-41.3
874.99	73.39
875.163	18.09
875.335	-51.54
875.508	16.04
875.681	18.09
875.853	63.15
876.026	7.85
876.199	-2.39
876.371	-8.53
876.544	-67.92
876.717	24.23
876.889	-10.58
877.062	9.9
877.234	-0.34
877.407	-10.58
877.579	-8.53
877.752	48.81
877.924	-0.34
878.097	48.81
878.269	-49.49
878.442	28.33
878.614	-29.01
878.786	24.23
878.959	-14.68
879.131	24.23
879.303	38.57
879.476	-0.34
879.648	38.57
879.82	-0.34
879.993	-57.68
880.165	9.9
880.337	-4.44
880.509	-47.44
880.681	-20.82
880.854	-33.11
881.026	-0.34
881.198	50.86
881.37	-14.68
881.542	75.43
881.714	-24.92
881.886	-51.54
882.058	-35.16
882.23	18.09
882.402	-6.49
882.574	-16.73
882.746	16.04
882.918	24.23
883.09	16.04
883.262	16.04
883.434	16.04
883.606	-0.34
883.778	-61.78
883.95	73.39
884.122	20.14
884.293	22.19
884.465	7.85
884.637	18.09
884.809	-18.77
884.98	16.04
885.152	-37.2
885.324	-24.92
885.496	-31.06
885.667	-8.53
885.839	40.62
886.011	18.09
886.182	11.95
886.354	50.86
886.525	9.9
886.697	40.62
886.869	28.33
887.04	-41.3
887.212	77.48
887.383	28.33
887.555	-12.63
887.726	-43.35
887.897	-65.88
888.069	-24.92
888.24	106.15
888.412	-18.77
888.583	7.85
888.754	59.05
888.926	-61.78
889.097	-49.49
889.268	-22.87
889.44	-18.77
889.611	-14.68
889.782	16.04
889.953	-22.87
890.125	24.23
890.296	-29.01
890.467	-14.68
890.638	-16.73
890.809	67.24
890.98	18.09
891.151	9.9
891.323	18.09
891.494	34.47
891.665	20.14
891.836	73.39
892.007	7.85
892.178	-16.73
892.349	32.43
892.52	42.67
892.691	3.75
892.862	-33.11
893.032	16.04
893.203	-14.68
893.374	-16.73
893.545	32.43
893.716	-4.44
893.887	65.19
894.057	-86.36
894.228	24.23
894.399	-0.34
894.57	-20.82
894.74	9.9
894.911	22.19
895.082	-8.53
895.253	5.8
895.423	-33.11
895.594	57
895.764	26.28
895.935	-108.88
896.106	24.23
896.276	18.09
896.447	-69.97
896.617	-0.34
896.788	87.72
896.958	44.71
897.129	24.23
897.299	-0.34
897.47	9.9
897.64	97.96
897.81	34.47
897.981	-4.44
898.151	-31.06
898.322	-20.82
898.492	-41.3
898.662	-16.73
898.832	-12.63
899.003	67.24
899.173	20.14
899.343	3.75
899.513	-20.82
