Data from USB4F104151__103__14-18-07-717.txt Node

Date: Thu Mar 13 14:18:07 EDT 2025
User: louis
Spectrometer: USB4F10415
Trigger mode: 4
Integration Time (sec): 2.000000E-2
Scans to average: 1
Electric dark correction enabled: true
Nonlinearity correction enabled: false
Boxcar width: 0
XAxis mode: Wavelengths
Number of Pixels in Spectrum: 3648
>>>>>Begin Spectral Data<<<<<
178.204	-133.12
178.424	-133.12
178.644	-133.12
178.864	-77.82
179.084	-51.2
179.304	20.48
179.524	10.24
179.744	45.06
179.964	0
180.184	-2.05
180.404	-65.54
180.624	34.82
180.844	-110.59
181.064	34.82
181.283	-4.1
181.503	-2.05
181.723	38.91
181.943	34.82
182.163	112.64
182.383	-8.19
182.602	73.73
182.822	69.63
183.042	118.78
183.262	-45.06
183.482	38.91
183.701	28.67
183.921	53.25
184.141	-36.86
184.361	63.49
184.58	71.68
184.8	18.43
185.02	32.77
185.239	135.17
185.459	-12.29
185.679	38.91
185.898	-20.48
186.118	86.01
186.338	57.34
186.557	34.82
186.777	-2.05
186.997	12.29
187.216	24.58
187.436	110.59
187.655	14.34
187.875	53.25
188.095	-2.05
188.314	45.06
188.534	12.29
188.753	8.19
188.973	30.72
189.192	36.86
189.412	28.67
189.631	53.25
189.851	77.82
190.07	53.25
190.29	8.19
190.509	65.53
190.729	-38.91
190.948	92.16
191.168	65.53
191.387	28.67
191.607	40.96
191.826	71.68
192.045	-2.05
192.265	20.48
192.484	28.67
192.704	32.77
192.923	-43.01
193.142	106.49
193.362	43.01
193.581	94.21
193.8	49.15
194.02	126.97
194.239	112.64
194.458	12.29
194.678	32.77
194.897	18.43
195.116	22.53
195.335	-6.14
195.555	40.96
195.774	45.06
195.993	65.53
196.212	53.25
196.432	40.96
196.651	-22.53
196.87	28.67
197.089	65.53
197.308	83.97
197.528	24.58
197.747	28.67
197.966	102.4
198.185	83.97
198.404	69.63
198.623	73.73
198.842	38.91
199.062	104.45
199.281	96.25
199.5	40.96
199.719	63.49
199.938	45.06
200.157	79.87
200.376	38.91
200.595	108.54
200.814	86.01
201.033	28.67
201.252	-10.24
201.471	63.49
201.69	18.43
201.909	73.73
202.128	49.15
202.347	40.96
202.566	106.49
202.785	-20.48
203.004	4.1
203.223	108.54
203.442	53.25
203.661	24.58
203.879	30.72
204.098	-8.19
204.317	2.05
204.536	71.68
204.755	102.4
204.974	57.34
205.193	135.17
205.411	40.96
205.63	28.67
205.849	18.43
206.068	20.48
206.287	126.97
206.505	73.73
206.724	0
206.943	59.39
207.162	28.67
207.381	-12.29
207.599	-18.43
207.818	36.86
208.037	63.49
208.255	49.15
208.474	53.25
208.693	-14.34
208.911	90.11
209.13	79.87
209.349	30.72
209.567	65.53
209.786	49.15
210.005	4.1
210.223	18.43
210.442	73.73
210.661	69.63
210.879	20.48
211.098	-43.01
211.316	22.53
211.535	28.67
211.753	36.86
211.972	-2.05
212.191	51.2
212.409	-32.77
212.628	-12.29
212.846	-12.29
213.065	16.38
213.283	69.63
213.502	36.86
213.72	4.1
213.938	10.24
214.157	47.1
214.375	36.86
214.594	20.48
214.812	53.25
215.031	12.29
215.249	47.1
215.467	-10.24
215.686	38.91
215.904	92.16
216.122	0
216.341	104.45
216.559	57.34
216.778	86.01
216.996	86.01
217.214	-26.62
217.432	45.06
217.651	34.82
217.869	14.34
218.087	94.21
218.306	57.34
218.524	36.86
218.742	14.34
218.96	69.63
219.179	30.72
219.397	59.39
219.615	112.64
219.833	57.34
220.051	-20.48
220.27	86.01
220.488	45.06
220.706	94.21
220.924	12.29
221.142	-6.14
221.36	-2.05
221.578	38.91
221.796	110.59
222.015	49.15
222.233	24.58
222.451	86.01
222.669	47.1
222.887	53.25
223.105	61.44
223.323	36.86
223.541	-45.06
223.759	59.39
223.977	96.25
224.195	98.3
224.413	12.29
224.631	77.82
224.849	14.34
225.067	102.4
225.285	34.82
225.503	57.34
225.721	-4.1
225.939	36.86
226.157	69.63
226.375	100.35
226.592	24.58
226.81	-20.48
227.028	22.53
227.246	112.64
227.464	30.72
227.682	61.44
227.9	65.53
228.117	110.59
228.335	14.34
228.553	-34.82
228.771	20.48
228.989	104.45
229.206	18.43
229.424	24.58
229.642	-12.29
229.86	-4.1
230.077	51.2
230.295	-4.1
230.513	57.34
230.731	73.73
230.948	57.34
231.166	59.39
231.384	32.77
231.601	45.06
231.819	126.97
232.037	90.11
232.254	18.43
232.472	38.91
232.689	94.21
232.907	51.2
233.125	38.91
233.342	73.73
233.56	12.29
233.777	45.06
233.995	61.44
234.213	106.49
234.43	112.64
234.648	8.19
234.865	12.29
235.083	-2.05
235.3	61.44
235.518	86.01
235.735	86.01
235.953	73.73
236.17	63.49
236.388	65.53
236.605	40.96
236.822	100.35
237.04	-43.01
237.257	47.1
237.475	8.19
237.692	102.4
237.909	49.15
238.127	28.67
238.344	38.91
238.562	34.82
238.779	-28.67
238.996	51.2
239.214	20.48
239.431	100.35
239.648	81.92
239.865	57.34
240.083	30.72
240.3	40.96
240.517	12.29
240.735	96.25
240.952	-4.1
241.169	88.06
241.386	63.49
241.603	122.88
241.821	36.86
242.038	88.06
242.255	94.21
242.472	12.29
242.689	32.77
242.907	-12.29
243.124	4.1
243.341	0
243.558	36.86
243.775	57.34
243.992	-16.38
244.209	63.49
244.426	63.49
244.643	61.44
244.86	-36.86
245.078	32.77
245.295	49.15
245.512	36.86
245.729	-2.05
245.946	104.45
246.163	47.1
246.38	92.16
246.597	45.06
246.814	45.06
247.031	32.77
247.248	73.73
247.464	18.43
247.681	63.49
247.898	69.63
248.115	122.88
248.332	12.29
248.549	45.06
248.766	90.11
248.983	45.06
249.2	79.87
249.417	81.92
249.633	24.58
249.85	73.73
250.067	32.77
250.284	49.15
250.501	90.11
250.717	69.63
250.934	30.72
251.151	88.06
251.368	36.86
251.585	49.15
251.801	77.82
252.018	26.62
252.235	47.1
252.451	4.1
252.668	12.29
252.885	110.59
253.102	32.77
253.318	34.82
253.535	16.38
253.752	51.2
253.968	45.06
254.185	-4.1
254.401	12.29
254.618	86.01
254.835	36.86
255.051	73.73
255.268	4.1
255.484	45.06
255.701	47.1
255.917	137.21
256.134	10.24
256.351	106.49
256.567	45.06
256.784	26.62
257	-26.62
257.217	36.86
257.433	53.25
257.65	106.49
257.866	69.63
258.082	14.34
258.299	83.97
258.515	-4.1
258.732	-30.72
258.948	26.62
259.165	22.53
259.381	-55.3
259.597	28.67
259.814	53.25
260.03	12.29
260.246	4.1
260.463	110.59
260.679	86.01
260.895	-47.1
261.112	100.35
261.328	12.29
261.544	71.68
261.761	120.83
261.977	47.1
262.193	8.19
262.409	49.15
262.626	36.86
262.842	30.72
263.058	120.83
263.274	90.11
263.49	34.82
263.707	73.73
263.923	104.45
264.139	40.96
264.355	12.29
264.571	112.64
264.787	61.44
265.004	77.82
265.22	47.1
265.436	-6.14
265.652	32.77
265.868	-6.14
266.084	-36.86
266.3	61.44
266.516	55.3
266.732	-18.43
266.948	53.25
267.164	12.29
267.38	81.92
267.596	104.45
267.812	69.63
268.028	61.44
268.244	47.1
268.46	57.34
268.676	-4.1
268.892	38.91
269.108	-4.1
269.324	10.24
269.54	-20.48
269.756	94.21
269.972	55.3
270.188	24.58
270.403	73.73
270.619	53.25
270.835	63.49
271.051	63.49
271.267	12.29
271.483	-12.29
271.698	-81.92
271.914	118.78
272.13	45.06
272.346	73.73
272.562	77.82
272.777	34.82
272.993	36.86
273.209	98.3
273.425	145.41
273.64	-34.82
273.856	69.63
274.072	28.67
274.287	34.82
274.503	83.97
274.719	77.82
274.934	122.88
275.15	8.19
275.366	90.11
275.581	12.29
275.797	96.25
276.012	47.1
276.228	36.86
276.444	8.19
276.659	110.59
276.875	143.36
277.09	0
277.306	14.34
277.521	96.25
277.737	61.44
277.952	110.59
278.168	90.11
278.383	45.06
278.599	81.92
278.814	73.73
279.03	55.3
279.245	94.21
279.461	38.91
279.676	53.25
279.892	47.1
280.107	47.1
280.322	20.48
280.538	14.34
280.753	18.43
280.969	77.82
281.184	51.2
281.399	51.2
281.615	77.82
281.83	28.67
282.045	-12.29
282.26	-14.34
282.476	16.38
282.691	73.73
282.906	94.21
283.122	53.25
283.337	61.44
283.552	16.38
283.767	0
283.983	40.96
284.198	22.53
284.413	69.63
284.628	-47.1
284.843	92.16
285.058	18.43
285.274	4.1
285.489	-20.48
285.704	94.21
285.919	16.38
286.134	30.72
286.349	94.21
286.564	4.1
286.779	90.11
286.995	79.87
287.21	30.72
287.425	49.15
287.64	47.1
287.855	45.06
288.07	34.82
288.285	77.82
288.5	122.88
288.715	59.39
288.93	28.67
289.145	118.78
289.36	137.21
289.575	-34.82
289.79	155.65
290.004	12.29
290.219	75.77
290.434	77.82
290.649	28.67
290.864	-12.29
291.079	22.53
291.294	77.82
291.509	-45.06
291.724	53.25
291.938	73.73
292.153	53.25
292.368	77.82
292.583	40.96
292.798	61.44
293.012	34.82
293.227	79.87
293.442	55.3
293.657	65.53
293.871	43.01
294.086	34.82
294.301	90.11
294.516	96.25
294.73	4.1
294.945	-2.05
295.16	118.78
295.374	8.19
295.589	104.45
295.804	18.43
296.018	59.39
296.233	120.83
296.447	61.44
296.662	92.16
296.877	12.29
297.091	65.53
297.306	36.86
297.52	18.43
297.735	61.44
297.949	-16.38
298.164	28.67
298.378	-14.34
298.593	36.86
298.807	-28.67
299.022	100.35
299.236	6.14
299.451	135.17
299.665	-24.58
299.88	-4.1
300.094	137.21
300.309	38.91
300.523	28.67
300.737	57.34
300.952	18.43
301.166	47.1
301.381	79.87
301.595	45.06
301.809	55.3
302.024	69.63
302.238	61.44
302.452	75.77
302.667	102.4
302.881	69.63
303.095	83.97
303.309	28.67
303.524	6.14
303.738	28.67
303.952	49.15
304.166	86.01
304.381	22.53
304.595	94.21
304.809	69.63
305.023	77.82
305.237	16.38
305.452	26.62
305.666	38.91
305.88	69.63
306.094	53.25
306.308	104.45
306.522	43.01
306.736	141.31
306.95	45.06
307.164	120.83
307.379	143.36
307.593	26.62
307.807	47.1
308.021	20.48
308.235	73.73
308.449	8.19
308.663	-16.38
308.877	43.01
309.091	88.06
309.305	92.16
309.519	20.48
309.733	14.34
309.947	16.38
310.161	79.87
310.374	49.15
310.588	122.88
310.802	51.2
311.016	106.49
311.23	57.34
311.444	55.3
311.658	-4.1
311.872	47.1
312.085	36.86
312.299	57.34
312.513	88.06
312.727	45.06
312.941	-14.34
313.154	73.73
313.368	94.21
313.582	75.77
313.796	38.91
314.009	-6.14
314.223	59.39
314.437	118.78
314.651	71.68
314.864	20.48
315.078	61.44
315.292	-2.05
315.505	16.38
315.719	86.01
315.933	53.25
316.146	2.05
316.36	147.45
316.573	106.49
316.787	90.11
317.001	53.25
317.214	18.43
317.428	75.77
317.641	0
317.855	96.25
318.068	12.29
318.282	43.01
318.495	53.25
318.709	71.68
318.922	4.1
319.136	12.29
319.349	26.62
319.563	2.05
319.776	71.68
319.99	-12.29
320.203	96.25
320.417	45.06
320.63	10.24
320.843	45.06
321.057	61.44
321.27	61.44
321.483	53.25
321.697	20.48
321.91	36.86
322.124	77.82
322.337	36.86
322.55	69.63
322.763	28.67
322.977	73.73
323.19	-8.19
323.403	77.82
323.617	47.1
323.83	106.49
324.043	45.06
324.256	114.69
324.469	40.96
324.683	143.36
324.896	69.63
325.109	57.34
325.322	20.48
325.535	120.83
325.748	108.54
325.962	36.86
326.175	4.1
326.388	96.25
326.601	45.06
326.814	106.49
327.027	71.68
327.24	86.01
327.453	71.68
327.666	-4.1
327.879	2.05
328.092	100.35
328.305	94.21
328.518	77.82
328.731	129.02
328.944	77.82
329.157	22.53
329.37	71.68
329.583	69.63
329.796	129.02
330.009	8.19
330.222	26.62
330.435	61.44
330.648	102.4
330.861	106.49
331.073	6.14
331.286	30.72
331.499	110.59
331.712	79.87
331.925	26.62
332.138	86.01
332.35	120.83
332.563	28.67
332.776	28.67
332.989	-36.86
333.202	81.92
333.414	55.3
333.627	75.77
333.84	98.3
334.053	57.34
334.265	94.21
334.478	63.49
334.691	30.72
334.903	102.4
335.116	45.06
335.329	0
335.541	131.07
335.754	102.4
335.966	122.88
336.179	53.25
336.392	45.06
336.604	102.4
336.817	20.48
337.029	24.58
337.242	61.44
337.454	79.87
337.667	47.1
337.88	57.34
338.092	45.06
338.305	94.21
338.517	36.86
338.729	104.45
338.942	94.21
339.154	55.3
339.367	51.2
339.579	28.67
339.792	14.34
340.004	114.69
340.217	81.92
340.429	53.25
340.641	12.29
340.854	-6.14
341.066	30.72
341.278	26.62
341.491	120.83
341.703	110.59
341.915	-45.06
342.128	71.68
342.34	88.06
342.552	30.72
342.764	77.82
342.977	20.48
343.189	12.29
343.401	45.06
343.613	71.68
343.826	102.4
344.038	30.72
344.25	34.82
344.462	86.01
344.674	94.21
344.886	94.21
345.099	67.58
345.311	30.72
345.523	71.68
345.735	10.24
345.947	118.78
346.159	-16.38
346.371	36.86
346.583	22.53
346.795	110.59
347.007	77.82
347.219	45.06
347.431	16.38
347.643	126.97
347.855	4.1
348.067	69.63
348.279	55.3
348.491	90.11
348.703	77.82
348.915	114.69
349.127	36.86
349.339	98.3
349.551	6.14
349.763	53.25
349.975	43.01
350.187	36.86
350.399	96.25
350.61	61.44
350.822	20.48
351.034	16.38
351.246	65.53
351.458	102.4
351.669	96.25
351.881	94.21
352.093	61.44
352.305	137.21
352.517	86.01
352.728	73.73
352.94	79.87
353.152	77.82
353.363	-51.2
353.575	73.73
353.787	73.73
353.999	22.53
354.21	40.96
354.422	133.12
354.633	98.3
354.845	14.34
355.057	36.86
355.268	61.44
355.48	120.83
355.692	126.97
355.903	51.2
356.115	43.01
356.326	47.1
356.538	38.91
356.749	137.21
356.961	40.96
357.172	77.82
357.384	67.58
357.595	118.78
357.807	8.19
358.018	30.72
358.23	61.44
358.441	184.32
358.653	77.82
358.864	30.72
359.075	8.19
359.287	69.63
359.498	159.74
359.709	96.25
359.921	24.58
360.132	65.53
360.344	102.4
360.555	81.92
360.766	38.91
360.977	45.06
361.189	143.36
361.4	53.25
361.611	106.49
361.823	40.96
362.034	96.25
362.245	102.4
362.456	40.96
362.667	77.82
362.879	88.06
363.09	16.38
363.301	110.59
363.512	77.82
363.723	30.72
363.935	22.53
364.146	55.3
364.357	53.25
364.568	45.06
364.779	28.67
364.99	77.82
365.201	98.3
365.412	178.17
365.623	94.21
365.834	71.68
366.045	122.88
366.256	30.72
366.467	69.63
366.678	20.48
366.889	94.21
367.1	57.34
367.311	65.53
367.522	45.06
367.733	40.96
367.944	94.21
368.155	-12.29
368.366	53.25
368.577	59.39
368.788	69.63
368.999	43.01
369.209	73.73
369.42	65.53
369.631	112.64
369.842	104.45
370.053	131.07
370.264	26.62
370.474	45.06
370.685	110.59
370.896	126.97
371.107	24.58
371.317	36.86
371.528	51.2
371.739	53.25
371.95	61.44
372.16	137.21
372.371	28.67
372.582	63.49
372.792	94.21
373.003	83.97
373.214	77.82
373.424	10.24
373.635	45.06
373.846	81.92
374.056	96.25
374.267	36.86
374.477	12.29
374.688	51.2
374.898	53.25
375.109	32.77
375.319	69.63
375.53	36.86
375.74	135.17
375.951	-51.2
376.161	-45.06
376.372	40.96
376.582	30.72
376.793	57.34
377.003	108.54
377.214	79.87
377.424	104.45
377.635	30.72
377.845	73.73
378.055	90.11
378.266	59.39
378.476	63.49
378.686	43.01
378.897	63.49
379.107	69.63
379.317	77.82
379.528	55.3
379.738	40.96
379.948	47.1
380.158	102.4
380.369	143.36
380.579	36.86
380.789	79.87
380.999	145.41
381.21	112.64
381.42	122.88
381.63	110.59
381.84	102.4
382.05	73.73
382.261	30.72
382.471	81.92
382.681	126.97
382.891	40.96
383.101	131.07
383.311	61.44
383.521	106.49
383.731	83.97
383.941	88.06
384.151	81.92
384.361	61.44
384.571	0
384.781	108.54
384.991	106.49
385.201	153.6
385.411	131.07
385.621	57.34
385.831	22.53
386.041	92.16
386.251	118.78
386.461	77.82
386.671	81.92
386.881	63.49
387.091	32.77
387.301	153.6
387.511	86.01
387.72	96.25
387.93	69.63
388.14	120.83
388.35	137.21
388.56	122.88
388.769	20.48
388.979	0
389.189	28.67
389.399	77.82
389.609	-32.77
389.818	118.78
390.028	88.06
390.238	88.06
390.447	28.67
390.657	22.53
390.867	53.25
391.076	57.34
391.286	102.4
391.496	77.82
391.705	73.73
391.915	202.75
392.125	110.59
392.334	143.36
392.544	96.25
392.753	77.82
392.963	43.01
393.172	47.1
393.382	77.82
393.591	155.65
393.801	8.19
394.01	94.21
394.22	77.82
394.429	49.15
394.639	135.17
394.848	53.25
395.058	61.44
395.267	77.82
395.477	61.44
395.686	143.36
395.895	151.55
396.105	147.45
396.314	69.63
396.524	145.41
396.733	102.4
396.942	147.45
397.152	176.13
397.361	176.13
397.57	151.55
397.78	86.01
397.989	63.49
398.198	169.98
398.407	153.6
398.617	102.4
398.826	65.53
399.035	79.87
399.244	102.4
399.453	92.16
399.663	143.36
399.872	104.45
400.081	135.17
400.29	114.69
400.499	94.21
400.708	131.07
400.917	161.79
401.127	126.97
401.336	122.88
401.545	129.02
401.754	204.8
401.963	155.65
402.172	102.4
402.381	106.49
402.59	139.26
402.799	147.45
403.008	102.4
403.217	208.89
403.426	147.45
403.635	163.84
403.844	245.76
404.053	198.65
404.262	157.69
404.471	172.03
404.68	167.93
404.888	186.37
405.097	169.98
405.306	233.47
405.515	212.99
405.724	198.65
405.933	190.46
406.142	253.95
406.35	190.46
406.559	233.47
406.768	206.84
406.977	292.86
407.185	196.61
407.394	235.52
407.603	278.52
407.812	305.15
408.02	286.72
408.229	274.43
408.438	253.95
408.646	292.86
408.855	272.38
409.064	290.81
409.272	280.57
409.481	307.2
409.69	317.44
409.898	290.81
410.107	333.82
410.315	450.55
410.524	423.93
410.733	421.88
410.941	344.06
411.15	466.94
411.358	385.02
411.567	511.99
411.775	493.56
411.984	419.83
412.192	487.42
412.401	397.31
412.609	557.05
412.818	585.72
413.026	511.99
413.234	622.58
413.443	618.49
413.651	620.53
413.86	651.25
414.068	606.2
414.276	825.33
414.485	808.95
414.693	813.04
414.901	747.51
415.11	778.23
415.318	784.37
415.526	819.19
415.734	866.29
415.943	894.96
416.151	937.97
416.359	1048.56
416.567	907.25
416.776	962.55
416.984	1095.66
417.192	1128.43
417.4	1105.9
417.608	1079.28
417.817	1144.81
418.025	1204.21
418.233	1349.61
418.441	1314.8
418.649	1374.19
418.857	1474.54
419.065	1472.49
419.273	1406.95
419.481	1488.87
419.689	1638.38
419.897	1732.58
420.105	1703.91
420.313	1753.06
420.521	1759.21
420.729	1849.32
420.937	2009.06
421.145	2007.01
421.353	2162.65
421.561	2240.48
421.769	2240.48
421.977	2207.71
422.185	2344.92
422.393	2445.27
422.601	2502.62
422.809	2594.78
423.017	2574.3
423.224	2766.81
423.432	2676.7
423.64	2705.37
423.848	3045.33
424.056	2908.12
424.263	3141.58
424.471	3243.98
424.679	3260.37
424.887	3409.87
425.094	3516.36
425.302	3469.26
425.51	3706.82
425.718	3813.32
425.925	3954.63
426.133	3911.62
426.341	4321.21
426.548	4407.23
426.756	4341.69
426.964	4509.63
427.171	4706.23
427.379	4657.08
427.586	4796.34
427.794	5121.97
428.001	5242.8
428.209	5414.83
428.417	5404.59
428.624	5859.24
428.832	5830.57
429.039	5879.72
429.247	5642.15
429.454	6303.65
429.662	6705.05
429.869	6289.31
430.076	6803.35
430.284	6616.99
430.491	6866.84
430.699	7198.61
430.906	7253.91
431.114	7274.39
431.321	7415.69
431.528	7729.03
431.736	8069
431.943	8669.05
432.15	8308.61
432.358	8642.43
432.565	8884.09
432.772	8998.77
432.979	9375.6
433.187	9312.11
433.394	9432.94
433.601	10084.2
433.808	10237.8
434.016	10211.17
434.223	10588
434.43	11071.32
434.637	10864.47
434.844	11341.65
435.052	11835.21
435.259	11796.3
435.466	11945.8
435.673	11734.86
435.88	12564.29
436.087	13082.42
436.294	13231.93
436.501	12920.63
436.708	13317.94
436.915	13612.85
437.122	13965.1
437.329	14223.14
437.537	14565.15
437.743	14892.83
437.95	14700.32
438.157	15445.78
438.364	16027.4
438.571	16103.18
438.778	15900.43
438.985	17870.58
439.192	16666.37
439.399	17397.49
439.606	16959.23
439.813	17872.62
440.02	18849.5
440.227	18939.61
440.433	18534.12
440.64	18783.97
440.847	18908.9
441.054	19527.38
441.261	20715.2
441.467	20301.51
441.674	20799.17
441.881	21698.23
442.088	21386.94
442.294	21399.23
442.501	21671.61
442.708	22398.63
442.914	23035.55
443.121	24045.2
443.328	23707.29
443.534	25112.19
443.741	24360.59
443.948	24272.53
444.154	25910.9
444.361	25710.2
444.568	25812.6
444.774	25937.52
444.981	26263.15
445.187	26924.65
445.394	28014.16
445.6	27465.31
445.807	30418.48
446.013	29400.64
446.22	29650.49
446.426	30742.06
446.633	31069.73
446.839	32052.76
447.046	30477.87
447.252	32421.39
447.459	32511.5
447.665	32261.65
447.871	33734.14
448.078	35098.09
448.284	33177.09
448.491	34178.55
448.697	35569.12
448.903	36292.05
449.11	36427.22
449.316	36031.96
449.522	36404.69
449.728	37432.77
449.935	37508.55
450.141	37873.09
450.347	38649.27
450.553	37137.87
450.76	37944.76
450.966	39036.33
451.172	38952.37
451.378	39792.03
451.584	38786.48
451.791	39533.99
451.997	39259.56
452.203	40099.23
452.409	40211.87
452.615	39896.48
452.821	38372.79
453.027	38292.92
453.233	40189.34
453.44	38546.87
453.646	39075.24
453.852	39015.85
454.058	39792.03
454.264	38626.74
454.47	39718.31
454.676	38571.44
454.882	40080.8
455.088	36949.45
455.294	36961.74
455.5	37471.68
455.705	37899.71
455.911	36517.33
456.117	35864.03
456.323	35124.71
456.529	33349.12
456.735	35003.88
456.941	34176.5
457.147	33420.8
457.352	33037.83
457.558	32042.52
457.764	32194.07
457.97	31815.19
458.176	30682.67
458.381	30733.87
458.587	29625.92
458.793	29519.42
458.999	27879
459.204	30080.56
459.41	29214.27
459.616	27248.22
459.821	27487.84
460.027	27194.98
460.233	26809.96
460.438	25587.32
460.644	26009.2
460.85	24551.05
461.055	23983.76
461.261	23953.04
461.466	22288.04
461.672	21522.1
461.878	23269.02
462.083	21651.13
462.289	21223.1
462.494	20786.88
462.7	20049.61
462.905	19754.71
463.111	20244.17
463.316	20434.63
463.522	19640.02
463.727	19885.78
463.932	19902.16
464.138	19640.02
464.343	19805.91
464.549	19152.6
464.754	19599.06
464.959	19543.77
465.165	19287.77
465.37	18818.78
465.575	18185.96
465.781	18642.66
465.986	19097.31
466.191	18298.6
466.397	17833.71
466.602	17258.23
466.807	17792.75
467.012	17815.28
467.218	17723.12
467.423	17108.73
467.628	17592.05
467.833	18224.87
468.038	17434.36
468.244	17194.75
468.449	17915.63
468.654	17121.02
468.859	17059.58
469.064	16924.41
469.269	16297.74
469.474	16793.34
469.679	17065.72
469.885	16332.55
470.09	16625.41
470.295	16293.64
470.5	16232.2
470.705	16273.16
470.91	15697.68
471.115	15611.67
471.32	15836.94
471.525	15861.52
471.73	15490.84
471.935	15253.27
472.139	14888.73
472.344	15193.88
472.549	14915.36
472.754	14790.43
472.959	14352.16
473.164	14135.08
473.369	13834.03
473.574	14421.8
473.778	14192.42
473.983	14292.77
474.188	14151.46
474.393	13522.74
474.598	13569.84
474.802	13604.66
475.007	13207.35
475.212	13575.98
475.417	12926.78
475.621	12949.31
475.826	13004.6
476.031	12726.08
476.235	12490.56
476.44	12580.67
476.645	12318.53
476.849	12527.42
477.054	12334.92
477.259	11960.14
477.463	12164.93
477.668	11673.42
477.872	11890.51
478.077	11685.71
478.282	11323.22
478.486	11394.9
478.691	11448.15
478.895	11259.73
479.1	11110.23
479.304	11255.64
479.509	11048.79
479.713	10970.97
479.918	10979.16
480.122	10653.53
480.326	10772.32
480.531	10891.1
480.735	10702.68
480.94	10651.49
481.144	10862.43
481.348	10477.41
481.553	10579.81
481.757	10440.54
481.961	10319.71
482.166	10821.47
482.37	10366.82
482.574	10268.52
482.778	10254.18
482.983	10633.05
483.187	10358.63
483.391	10471.26
483.595	10375.01
483.8	10295.14
484.004	10465.12
484.208	10485.6
484.412	10504.03
484.616	10557.28
484.821	10223.46
485.025	10362.72
485.229	10559.33
485.433	10284.9
485.637	10401.63
485.841	10157.92
486.045	10422.11
486.249	10325.86
486.453	10280.8
486.657	10508.13
486.861	10499.94
487.065	10065.77
487.269	10387.3
487.473	10172.26
487.677	10354.53
487.881	10631.01
488.085	10268.52
488.289	10385.25
488.493	10362.72
488.697	10622.81
488.901	10454.88
489.105	10493.79
489.309	10428.26
489.512	10487.65
489.716	10354.53
489.92	10657.63
490.124	10485.6
490.328	10667.87
490.531	10633.05
490.735	10876.76
490.939	10659.68
491.143	10631.01
491.346	10461.02
491.55	10717.02
491.754	10770.27
491.958	10823.51
492.161	10809.18
492.365	10813.27
492.569	10964.82
492.772	11038.55
492.976	11024.22
493.18	10921.82
493.383	11220.82
493.587	11525.97
493.79	11310.93
493.994	11310.93
494.197	11464.53
494.401	11677.52
494.605	11280.21
494.808	11818.83
495.012	11665.23
495.215	11786.06
495.419	11788.11
495.622	11988.81
495.825	11931.47
496.029	11906.89
496.232	12304.2
496.436	12271.43
496.639	12547.9
496.843	12463.94
497.046	12814.14
497.249	12865.34
497.453	13078.33
497.656	13014.84
497.859	13193.01
498.063	13203.25
498.266	13831.98
498.469	13545.27
498.673	13563.7
498.876	13651.76
499.079	13807.41
499.282	13827.88
499.485	14040.87
499.689	14348.07
499.892	14290.73
500.095	14274.34
500.298	14749.47
500.501	14739.23
500.705	15208.22
500.908	15314.71
501.111	15140.63
501.314	15666.96
501.517	15591.19
501.72	16008.97
501.923	15851.28
502.126	16353.03
502.329	16414.47
502.532	16586.5
502.735	16955.13
502.938	16801.54
503.141	16987.9
503.344	17407.73
503.547	17366.77
503.75	17587.96
503.953	17678.07
504.156	17964.78
504.359	18265.83
504.562	18149.1
504.765	18581.22
504.968	18738.91
505.17	19142.36
505.373	19222.23
505.576	19289.82
505.779	19594.97
505.982	19680.98
506.185	19967.7
506.387	19875.54
506.59	20627.14
506.793	20768.45
506.996	20647.62
507.198	21147.33
507.401	20952.77
507.604	21431.99
507.807	21763.76
508.009	21976.75
508.212	21919.41
508.415	22509.22
508.617	22539.94
508.82	22492.84
509.022	22310.57
509.225	23189.15
509.428	23017.12
509.63	23619.22
509.833	23527.06
510.035	24397.45
510.238	24178.32
510.44	24428.17
510.643	24694.41
510.845	24831.62
511.048	24675.98
511.25	25433.72
511.453	25599.61
511.655	26283.63
511.858	25632.38
512.06	26453.61
512.262	26642.03
512.465	26670.7
512.667	26996.32
512.87	27201.12
513.072	27100.77
513.274	27887.19
513.477	28202.58
513.679	28192.34
513.881	28681.8
514.084	28919.37
514.286	29070.92
514.488	29255.23
514.69	30121.52
514.893	29683.26
515.095	29879.86
515.297	30492.21
515.499	30535.21
515.701	30914.09
515.904	31108.65
516.106	31153.7
516.308	31411.74
516.51	31723.04
516.712	31759.9
516.914	32531.98
517.116	32859.66
517.318	32767.5
517.52	33117.7
517.722	33216.01
517.925	33723.9
518.127	34254.33
518.329	34182.65
518.531	34266.61
518.733	34833.9
518.935	35552.74
519.136	35610.08
519.338	35452.39
519.54	35679.71
519.742	35995.1
519.944	36154.84
520.146	36826.57
520.348	36971.98
520.55	37107.15
520.752	37201.35
520.954	37825.98
521.155	37787.07
521.357	37785.02
521.559	38602.16
521.761	39075.24
521.963	38612.4
522.164	38940.08
522.366	39452.07
522.568	39609.76
522.77	39685.54
522.971	40254.87
523.173	40533.4
523.375	40549.78
523.576	40502.68
523.778	40584.6
523.98	41143.69
524.181	41612.68
524.383	41549.19
524.584	42083.71
524.786	41807.23
524.988	41842.05
525.189	42067.33
525.391	42579.32
525.592	43097.45
525.794	42880.37
525.995	43314.54
526.197	43187.56
526.398	43130.22
526.6	43246.96
526.801	43545.96
527.003	43531.62
527.204	43904.35
527.406	43986.27
527.607	44365.15
527.808	44520.79
528.01	43709.8
528.211	44512.6
528.412	45376.84
528.614	44571.99
528.815	44672.34
529.016	44952.91
529.218	44897.62
529.419	45047.12
529.62	45182.29
529.822	45274.45
530.023	45208.91
530.224	45217.1
530.425	45632.84
530.626	45153.61
530.828	45450.57
531.029	46034.24
531.23	45249.87
531.431	45604.17
531.632	45935.94
531.833	46228.8
532.035	45784.39
532.236	45833.54
532.437	46058.82
532.638	45778.25
532.839	46462.27
533.04	46433.6
533.241	45622.6
533.442	46992.69
533.643	45950.27
533.844	45882.69
534.045	46437.69
534.246	45888.84
534.447	46277.95
534.648	46456.12
534.849	46470.46
535.05	45514.06
535.251	46579
535.451	45808.96
535.652	46120.26
535.853	46316.86
536.054	46398.78
536.255	46462.27
536.456	45821.25
536.657	46724.41
536.857	46183.74
537.058	45958.47
537.259	46816.57
537.46	46748.98
537.66	46138.69
537.861	46552.38
538.062	46089.54
538.263	46458.17
538.463	46347.58
538.664	46210.37
538.865	46564.67
539.065	46304.57
539.266	45890.88
539.466	46689.59
539.667	45571.4
539.868	46808.37
540.068	46327.1
540.269	45880.64
540.469	46964.02
540.67	46024
540.87	46073.15
541.071	46228.8
541.271	46415.16
541.472	46159.17
541.672	46210.37
541.873	46366.01
542.073	45894.98
542.274	46400.83
542.474	45966.66
542.675	45735.24
542.875	46208.32
543.075	46056.77
543.276	45571.4
543.476	46622.01
543.676	45692.23
543.877	45972.8
544.077	46062.91
544.277	46310.72
544.478	45940.03
544.678	46036.29
544.878	45778.25
545.078	45866.31
545.279	45610.31
545.479	45589.83
545.679	46337.34
545.879	45763.91
546.079	45589.83
546.28	46236.99
546.48	45614.41
546.68	46097.73
546.88	45700.42
547.08	45923.65
547.28	45917.51
547.48	45542.73
547.68	46056.77
547.88	45546.82
548.081	46263.61
548.281	45708.61
548.481	45669.7
548.681	46263.61
548.881	45759.81
549.081	45735.24
549.28	45077.84
549.48	45784.39
549.68	45276.49
549.88	45903.17
550.08	45522.25
550.28	45702.47
550.48	45223.25
550.68	45489.48
550.88	45393.23
551.08	45210.96
551.279	45645.13
551.479	45335.88
551.679	45839.68
551.879	45450.57
552.079	45710.66
552.278	45358.41
552.478	45294.92
552.678	45552.97
552.878	45630.79
553.077	45061.46
553.277	44920.15
553.477	45638.98
553.676	45450.57
553.876	45356.36
554.076	45262.16
554.275	45032.78
554.475	44541.27
554.674	44981.59
554.874	45040.98
555.074	44903.76
555.273	45323.6
555.473	44989.78
555.672	44866.9
555.872	45024.59
556.071	45329.74
556.271	45040.98
556.47	44735.83
556.67	44227.93
556.869	44655.96
557.068	44696.92
557.268	44422.49
557.467	44651.86
557.667	44713.3
557.866	44574.04
558.065	44754.26
558.265	44465.5
558.464	44500.31
558.663	44526.94
558.863	44256.6
559.062	44926.29
559.261	44350.81
559.461	44873.04
559.66	43939.17
559.859	44514.65
560.058	43775.33
560.258	44361.05
560.457	44053.86
560.656	43844.96
560.855	43814.24
561.054	44227.93
561.253	43451.75
561.453	44033.38
561.652	43900.26
561.851	43580.77
562.05	43814.24
562.249	43515.24
562.448	43812.2
562.647	43445.61
562.846	43255.15
563.045	43443.56
563.244	42954.1
563.443	44074.34
563.642	43025.78
563.841	43322.73
564.04	42943.86
564.239	43740.52
564.438	43025.78
564.637	43185.52
564.836	43064.69
565.035	42818.93
565.234	42769.78
565.432	42866.03
565.631	42493.3
565.83	42898.8
566.029	42577.27
566.228	42763.64
566.427	42284.41
566.625	41962.88
566.824	41708.93
567.023	42515.83
567.222	41614.72
567.42	42321.27
567.619	41629.06
567.818	41848.19
568.016	41960.83
568.215	42388.86
568.414	41684.36
568.612	41817.47
568.811	41784.71
569.01	41553.29
569.208	41074.06
569.407	41508.23
569.605	40924.56
569.804	41076.11
570.002	40627.6
570.201	41010.57
570.4	40596.88
570.598	40437.14
570.797	40498.58
570.995	40656.28
571.193	40218.01
571.392	41045.39
571.59	40005.02
571.789	40336.79
571.987	40195.48
572.186	40312.22
572.384	40082.84
572.582	40193.43
572.781	39871.9
572.979	39269.8
573.177	40134.04
573.376	39861.66
573.574	39519.65
573.772	39589.28
573.971	39378.34
574.169	39271.85
574.367	38919.6
574.565	39216.55
574.763	39038.38
574.962	39234.99
575.16	39083.44
575.358	38872.49
575.556	38385.08
575.754	38811.06
575.952	38532.53
576.151	38790.58
576.349	37955
576.547	38043.07
576.745	38475.19
576.943	38094.27
577.141	37922.24
577.339	38272.44
577.537	38098.36
577.735	37905.85
577.933	37737.92
578.131	37338.57
578.329	37713.34
578.527	37055.95
578.725	37404.1
578.923	37432.77
579.121	37565.89
579.319	37139.91
579.516	37492.16
579.714	36863.44
579.912	36851.15
580.11	36707.79
580.308	36488.66
580.506	36621.78
580.704	36060.63
580.901	36279.77
581.099	36290.01
581.297	36019.67
581.495	35941.85
581.692	36398.55
581.89	36019.67
582.088	35913.18
582.285	36240.85
582.483	35896.8
582.681	36023.77
582.878	35595.74
583.076	35177.96
583.274	35866.08
583.471	35042.79
583.669	35368.42
583.866	34854.38
584.064	35302.89
584.262	34883.05
584.459	35298.79
584.657	34764.27
584.854	35085.8
585.052	34342.39
585.249	34778.61
585.447	34844.14
585.644	34483.7
585.841	34577.9
586.039	34749.93
586.236	33914.36
586.434	34053.62
586.631	33840.64
586.828	33914.36
587.026	33875.45
587.223	34102.78
587.42	33736.19
587.618	33994.23
587.815	33582.59
588.012	33316.36
588.21	33371.65
588.407	33517.06
588.604	32851.47
588.801	33189.38
588.999	32986.63
589.196	32787.98
589.393	32968.2
589.59	32622.09
589.787	32437.78
589.984	32232.98
590.182	32343.57
590.379	32298.52
590.576	32015.9
590.773	32208.4
590.97	32075.29
591.167	31960.6
591.364	31800.86
591.561	32263.7
591.758	31544.86
591.955	31759.9
592.152	31610.4
592.349	31430.18
592.546	31522.33
592.743	31546.91
592.94	31039.01
593.137	31034.92
593.334	31116.84
593.531	30797.35
593.727	31063.59
593.924	30991.91
594.121	30758.44
594.318	31026.73
594.515	30348.85
594.712	30750.25
594.908	30363.18
595.105	30625.32
595.302	29974.07
595.499	30484.01
595.696	30103.09
595.892	30023.22
596.089	29771.32
596.286	29861.43
596.482	29726.27
596.679	29648.44
596.876	29675.07
597.072	29466.17
597.269	29296.19
597.466	29453.89
597.662	29259.33
597.859	29079.11
598.055	29046.34
598.252	28616.27
598.448	28837.45
598.645	28507.72
598.841	28784.2
599.038	28667.47
599.234	28581.45
599.431	28440.14
599.627	28638.79
599.824	28407.37
600.02	28366.42
600.217	28229.2
600.413	28241.49
600.609	27868.76
600.806	27934.29
601.002	27860.57
601.198	27922.01
601.395	27709.02
601.591	27401.82
601.787	27682.39
601.984	27625.05
602.18	27610.71
602.376	27258.46
602.572	26996.32
602.769	27399.77
602.965	27065.95
603.161	26900.07
603.357	26932.84
603.553	26924.65
603.75	27084.39
603.946	26553.96
604.142	26674.79
604.338	26449.52
604.534	26390.13
604.73	26269.3
604.926	26353.26
605.122	26476.14
605.318	25859.7
605.514	26265.2
605.71	25806.45
605.906	26046.07
606.102	25720.44
606.298	26023.54
606.494	25581.18
606.69	25489.02
606.886	25796.21
607.082	25280.13
607.278	25652.86
607.474	25091.71
607.67	25296.51
607.866	25005.7
608.062	25777.78
608.257	25138.82
608.453	25007.75
608.649	25226.88
608.845	25028.23
609.041	25040.51
609.236	25106.05
609.432	24723.08
609.628	24839.81
609.824	24915.59
610.019	24542.86
610.215	24794.76
610.411	24923.78
610.606	24868.48
610.802	24692.36
610.998	24534.67
611.193	24583.82
611.389	24159.89
611.584	24104.59
611.78	24313.48
611.976	24325.77
612.171	23987.86
612.367	24231.57
612.562	24000.15
612.758	23985.81
612.953	23910.04
613.149	24221.33
613.344	23627.42
613.539	24073.87
613.735	23807.64
613.93	23889.56
614.126	23649.94
614.321	23918.23
614.517	23690.9
614.712	23678.61
614.907	23461.53
615.103	23891.6
615.298	23553.69
615.493	23547.54
615.688	23129.76
615.884	23625.37
616.079	23023.26
616.274	23418.52
616.47	23307.93
616.665	23178.91
616.86	23113.38
617.055	22959.78
617.25	22943.39
617.445	23025.31
617.641	22750.88
617.836	23142.05
618.031	22476.46
618.226	22832.8
618.421	22302.38
618.616	22726.31
618.811	22298.28
619.006	22525.61
619.201	21974.7
619.396	22449.83
619.591	21823.15
619.786	22331.05
619.981	21737.14
620.176	22095.53
620.371	21634.74
620.566	21565.11
620.761	21692.08
620.956	21653.17
621.151	21237.44
621.346	21212.86
621.541	21268.16
621.735	21196.48
621.93	21198.52
622.125	21124.8
622.32	20633.29
622.515	20872.9
622.709	20569.8
622.904	20424.39
623.099	20522.69
623.294	20512.45
623.488	20059.85
623.683	20225.74
623.878	19783.38
624.072	19820.24
624.267	20049.61
624.462	19758.8
624.656	19588.82
624.851	19535.57
625.046	19171.04
625.24	19558.1
625.435	19046.11
625.629	19255
625.824	19039.97
626.018	19093.21
626.213	18667.24
626.407	18634.47
626.602	18427.62
626.796	18527.97
626.991	18536.17
627.185	18382.57
627.38	18558.69
627.574	18337.51
627.768	18140.91
627.963	18142.96
628.157	17669.87
628.352	17671.92
628.546	17403.64
628.74	17751.79
628.935	17444.6
629.129	17676.02
629.323	17178.36
629.517	17184.51
629.712	17348.34
629.906	17270.52
630.1	16881.41
630.294	16758.53
630.489	16914.17
630.683	16641.79
630.877	16561.92
631.071	16652.03
631.265	16557.83
631.459	16314.12
631.653	16443.14
631.848	16199.43
632.042	15929.1
632.236	16060.17
632.43	15957.77
632.624	16107.27
632.818	15671.06
633.012	15691.54
633.206	15503.12
633.4	15585.04
633.594	15408.92
633.788	15597.33
633.982	15335.19
634.176	15128.35
634.369	15204.12
634.563	15011.61
634.757	15097.63
634.951	15142.68
635.145	14843.68
635.339	14802.72
635.533	14651.17
635.726	14874.4
635.92	14485.28
636.114	14667.55
636.308	14610.21
636.501	14319.4
636.695	14303.01
636.889	14155.56
637.083	14307.11
637.276	13872.94
637.47	13784.88
637.664	13862.7
637.857	13807.41
638.051	13807.41
638.244	13455.15
638.438	13430.58
638.632	13440.82
638.825	13451.06
639.019	13459.25
639.212	13336.37
639.406	13381.43
639.599	13035.32
639.793	13082.42
639.986	13033.27
640.18	12971.83
640.373	12732.22
640.567	12816.19
640.76	12830.52
640.954	12713.79
641.147	12638.02
641.34	12547.9
641.534	12592.96
641.727	12410.69
641.92	12406.59
642.114	12197.7
642.307	12318.53
642.5	12304.2
642.694	12074.82
642.887	11925.32
643.08	12015.43
643.273	11947.85
643.467	11726.67
643.66	11575.12
643.853	11718.48
644.046	11482.96
644.239	11599.69
644.432	11652.94
644.626	11562.83
644.819	11382.61
645.012	11345.75
645.205	11491.15
645.398	11212.63
645.591	11218.77
645.784	11145.05
645.977	10923.87
646.17	11083.61
646.363	10948.44
646.556	10817.37
646.749	10915.67
646.942	10768.22
647.135	10948.44
647.328	10633.05
647.521	10637.15
647.714	10526.56
647.907	10489.7
648.099	10313.57
648.292	10551.14
648.485	10233.7
648.678	10168.16
648.871	10096.49
649.064	9910.12
649.256	10284.9
649.449	10024.81
649.642	10106.73
649.835	9949.03
650.027	9785.19
650.22	9850.73
650.413	9695.08
650.605	9811.82
650.798	9742.19
650.991	9404.27
651.183	9721.71
651.376	9324.4
651.568	9633.64
651.761	9525.1
651.954	9338.74
652.146	9748.33
652.339	9342.83
652.531	9305.97
652.724	9162.61
652.916	8970.1
653.109	9086.84
653.301	9111.41
653.494	9109.36
653.686	8937.34
653.879	8990.58
654.071	8796.03
654.263	8724.35
654.456	8916.86
654.648	8906.62
654.84	8527.74
655.033	8462.21
655.225	8554.37
655.417	8460.16
655.61	8466.3
655.802	8468.35
655.994	8368
656.186	8314.75
656.379	8275.84
656.571	8103.81
656.763	8116.1
656.955	8175.49
657.148	8155.01
657.34	8236.93
657.532	8015.75
657.724	8099.72
657.916	8077.19
658.108	7827.34
658.3	7786.38
658.492	7925.64
658.684	7870.34
658.876	7823.24
659.068	7831.43
659.26	7530.38
659.452	7860.1
659.644	7559.05
659.836	7649.16
660.028	7749.51
660.22	7339.92
660.412	7614.35
660.604	7280.53
660.796	7503.76
660.988	7405.45
661.18	7221.14
661.372	7223.19
661.563	7276.43
661.755	7061.4
661.947	7229.33
662.139	7069.59
662.331	6920.09
662.522	6942.61
662.714	6961.05
662.906	7196.56
663.097	6840.22
663.289	6866.84
663.481	6774.68
663.673	6795.16
663.864	6883.22
664.056	6813.59
664.247	6688.67
664.439	6598.56
664.631	6715.29
664.822	6709.15
665.014	6621.08
665.205	6619.03
665.397	6537.12
665.588	6565.79
665.78	6516.64
665.971	6451.1
666.163	6588.32
666.354	6436.77
666.546	6391.71
666.737	6320.03
666.929	6236.06
667.12	6434.72
667.311	6289.31
667.503	6160.29
667.694	6217.63
667.885	6219.68
668.077	6078.37
668.268	6074.28
668.459	6172.58
668.651	6115.23
668.842	5971.88
669.033	5879.72
669.224	5894.05
669.416	5986.21
669.607	5912.49
669.798	5889.96
669.989	5912.49
670.18	5918.63
670.371	5750.7
670.563	5676.97
670.754	5785.51
670.945	5693.35
671.136	5746.6
671.327	5478.32
671.518	5803.94
671.709	5597.1
671.9	5672.87
672.091	5615.53
672.282	5429.17
672.473	5582.76
672.664	5617.58
672.855	5461.93
673.046	5607.34
673.237	5509.04
673.428	5517.23
673.619	5443.5
673.809	5349.29
674	5308.34
674.191	5443.5
674.382	5369.77
674.573	5300.14
674.764	5386.16
674.954	5339.05
675.145	5205.94
675.336	5214.13
675.527	5140.4
675.717	5132.21
675.908	5126.07
676.099	5205.94
676.289	5142.45
676.48	5074.87
676.671	5062.58
676.861	5023.67
677.052	5042.1
677.243	5033.91
677.433	4896.69
677.624	5158.83
677.814	4988.85
678.005	5134.26
678.195	4999.09
678.386	5062.58
678.576	5015.48
678.767	4908.98
678.957	4927.41
679.148	4851.64
679.338	4808.63
679.529	4894.65
679.719	4882.36
679.909	4943.8
680.1	4863.93
680.29	4906.93
680.481	5038
680.671	4880.31
680.861	4726.71
681.052	4698.04
681.242	4741.05
681.432	4845.49
681.622	4736.95
681.813	4714.42
682.003	4763.58
682.193	4876.21
682.383	4650.94
682.573	4728.76
682.764	4675.51
682.954	4726.71
683.144	4523.96
683.334	4652.98
683.524	4683.7
683.714	4612.03
683.904	4476.86
684.094	4526.01
684.284	4597.69
684.474	4685.75
684.664	4534.2
684.854	4390.84
685.044	4403.13
685.234	4489.15
685.424	4364.22
685.614	4511.68
685.804	4487.1
685.994	4411.32
686.184	4249.54
686.374	4372.41
686.564	4411.32
686.753	4251.58
686.943	4337.6
687.133	4396.99
687.323	4433.85
687.513	4259.77
687.702	4286.4
687.892	4280.25
688.082	4128.7
688.272	4184
688.461	4251.58
688.651	4319.17
688.841	4259.77
689.03	4151.23
689.22	4124.61
689.41	4159.42
689.599	4218.82
689.789	4132.8
689.979	4091.84
690.168	4116.42
690.358	3977.16
690.547	4057.03
690.737	4061.12
690.926	4110.27
691.116	4014.02
691.305	4032.45
691.495	4059.07
691.684	3891.14
691.874	3938.24
692.063	3932.1
692.252	3995.59
692.442	3956.68
692.631	3903.43
692.82	3878.85
693.01	3839.94
693.199	3725.26
693.388	3731.4
693.578	3790.79
693.767	3860.42
693.956	3665.86
694.146	3833.8
694.335	3753.93
694.524	3788.74
694.713	3684.3
694.902	3760.07
695.092	3741.64
695.281	3635.14
695.47	3710.92
695.659	3559.37
695.848	3475.4
696.037	3610.57
696.226	3626.95
696.415	3629
696.604	3604.42
696.793	3551.18
696.982	3555.27
697.171	3573.71
697.36	3551.18
697.549	3465.16
697.738	3354.57
697.927	3395.53
698.116	3600.33
698.305	3559.37
698.494	3553.23
698.683	3403.72
698.872	3635.14
699.061	3416.01
699.25	3465.16
699.438	3510.22
699.627	3319.76
699.816	3389.39
700.005	3446.73
700.193	3358.67
700.382	3342.28
700.571	3387.34
700.76	3481.55
700.948	3428.3
701.137	3454.92
701.326	3330
701.514	3262.41
701.703	3403.72
701.892	3401.68
702.08	3452.88
702.269	3413.96
702.457	3205.07
702.646	3246.03
702.834	3330
703.023	3231.69
703.212	3274.7
703.4	3346.38
703.589	3188.69
703.777	3280.85
703.965	3286.99
704.154	3248.08
704.342	3143.63
704.531	3272.65
704.719	3219.41
704.907	3207.12
705.096	3086.29
705.284	3100.62
705.472	3203.02
705.661	3135.44
705.849	3280.85
706.037	3272.65
706.226	3239.89
706.414	3219.41
706.602	3235.79
706.79	3235.79
706.979	3203.02
707.167	3207.12
707.355	3061.71
707.543	3157.97
707.731	3180.5
707.919	3088.34
708.107	3043.28
708.296	3065.81
708.484	3059.67
708.672	2975.7
708.86	3139.54
709.048	3143.63
709.236	3127.25
709.424	3061.71
709.612	3022.8
709.8	3114.96
709.988	3018.71
710.176	3020.75
710.364	3178.45
710.551	3004.37
710.739	3051.47
710.927	3006.42
711.115	2887.64
711.303	2979.79
711.491	2953.17
711.679	2920.4
711.866	2912.21
712.054	2920.4
712.242	2930.64
712.43	2867.16
712.617	3043.28
712.805	3043.28
712.993	3076.05
713.181	2985.94
713.368	2858.96
713.556	2977.75
713.744	2949.07
713.931	3043.28
714.119	2887.64
714.306	2799.57
714.494	2813.91
714.682	2916.31
714.869	2805.72
715.057	2973.65
715.244	2781.14
715.432	2824.15
715.619	2863.06
715.807	2781.14
715.994	2838.48
716.182	2834.39
716.369	2897.88
716.556	2723.8
716.744	2682.84
716.931	2799.57
717.119	2709.46
717.306	2785.24
717.493	2721.75
717.681	2748.37
717.868	2758.61
718.055	2793.43
718.242	2789.33
718.43	2772.95
718.617	2775
718.804	2697.17
718.991	2609.11
719.179	2850.77
719.366	2791.38
719.553	2750.42
719.74	2670.55
719.927	2666.46
720.114	2695.13
720.301	2748.37
720.488	2629.59
720.676	2688.98
720.863	2658.26
721.05	2670.55
721.237	2570.2
721.424	2619.35
721.611	2641.88
721.798	2623.45
721.985	2574.3
722.172	2594.78
722.358	2559.96
722.545	2643.93
722.732	2486.23
722.919	2682.84
723.106	2602.97
723.293	2678.74
723.48	2607.06
723.667	2547.67
723.853	2541.53
724.04	2453.47
724.227	2516.95
724.414	2498.52
724.6	2512.86
724.787	2510.81
724.974	2666.46
725.161	2535.39
725.347	2428.89
725.534	2480.09
725.72	2682.84
725.907	2621.4
726.094	2588.63
726.28	2613.21
726.467	2508.76
726.653	2408.41
726.84	2529.24
727.027	2650.07
727.213	2496.47
727.4	2578.39
727.586	2545.63
727.773	2494.43
727.959	2389.98
728.145	2570.2
728.332	2527.19
728.518	2467.8
728.705	2506.71
728.891	2330.59
729.077	2441.18
729.264	2453.47
729.45	2420.7
729.636	2570.2
729.823	2416.6
730.009	2486.23
730.195	2420.7
730.382	2414.56
730.568	2406.36
730.754	2392.03
730.94	2357.21
731.126	2379.74
731.313	2469.85
731.499	2437.08
731.685	2396.12
731.871	2412.51
732.057	2256.86
732.243	2519
732.429	2379.74
732.615	2543.58
732.801	2381.79
732.987	2297.82
733.173	2383.84
733.359	2375.64
733.545	2420.7
733.731	2250.72
733.917	2273.25
734.103	2355.16
734.289	2303.96
734.475	2367.45
734.661	2373.6
734.847	2217.95
735.033	2322.4
735.219	2359.26
735.404	2291.68
735.59	2256.86
735.776	2226.14
735.962	2346.97
736.148	2265.05
736.333	2138.08
736.519	2189.28
736.705	2224.09
736.89	2314.2
737.076	2330.59
737.262	2226.14
737.447	2144.22
737.633	2113.5
737.819	2211.81
738.004	2234.33
738.19	2314.2
738.375	2246.62
738.561	2318.3
738.747	2287.58
738.932	2222.05
739.118	2191.33
739.303	2234.33
739.489	2172.89
739.674	2117.6
739.859	2146.27
740.045	2273.25
740.23	2158.56
740.416	2185.18
740.601	2164.7
740.786	2166.75
740.972	2090.98
741.157	2142.18
741.342	1982.43
741.528	2084.83
741.713	2111.46
741.898	2054.11
742.084	2119.65
742.269	2027.49
742.454	2052.06
742.639	1978.34
742.824	2107.36
743.01	2086.88
743.195	2084.83
743.38	2007.01
743.565	1988.58
743.75	1966.05
743.935	2002.91
744.12	1941.47
744.305	1978.34
744.49	1906.66
744.675	1949.67
744.86	1867.75
745.045	1826.79
745.23	1992.67
745.415	1843.17
745.6	1914.85
745.785	1880.04
745.97	2007.01
746.155	1814.5
746.34	1937.38
746.525	1839.08
746.71	1851.36
746.895	1748.97
747.079	1802.21
747.264	1748.97
747.449	1863.65
747.634	1814.5
747.819	1732.58
748.003	1757.16
748.188	1660.9
748.373	1753.06
748.557	1718.25
748.742	1726.44
748.927	1736.68
749.111	1593.32
749.296	1748.97
749.481	1701.86
749.665	1652.71
749.85	1650.66
750.034	1757.16
750.219	1683.43
750.404	1642.47
750.588	1626.09
750.773	1650.66
750.957	1552.36
751.141	1603.56
751.326	1546.22
751.51	1435.63
751.695	1511.4
751.879	1548.26
752.064	1476.59
752.248	1480.68
752.432	1484.78
752.617	1470.44
752.801	1509.35
752.985	1521.64
753.17	1499.11
753.354	1406.95
753.538	1542.12
753.722	1462.25
753.907	1347.56
754.091	1372.14
754.275	1454.06
754.459	1380.33
754.643	1376.23
754.828	1355.76
755.012	1390.57
755.196	1347.56
755.38	1396.71
755.564	1343.47
755.748	1318.89
755.932	1351.66
756.116	1249.26
756.3	1294.32
756.484	1273.84
756.668	1265.64
756.852	1265.64
757.036	1265.64
757.22	1171.44
757.404	1251.31
757.588	1132.53
757.772	1261.55
757.956	1163.25
758.14	1224.69
758.323	1200.11
758.507	1183.73
758.691	1150.96
758.875	1204.21
759.059	1155.05
759.242	1165.29
759.426	1079.28
759.61	1128.43
759.794	1134.57
759.977	1196.01
760.161	1175.53
760.345	1265.64
760.528	1153.01
760.712	1110
760.895	1085.42
761.079	1122.29
761.263	1046.51
761.446	1110
761.63	1040.37
761.813	1095.66
761.997	1038.32
762.18	1056.75
762.364	1013.74
762.547	1023.98
762.731	1056.75
762.914	985.07
763.098	1060.85
763.281	950.26
763.464	999.41
763.648	985.07
763.831	1021.94
764.015	974.83
764.198	993.26
764.381	878.58
764.564	899.06
764.748	954.35
764.931	987.12
765.114	1009.65
765.297	944.11
765.481	946.16
765.664	899.06
765.847	948.21
766.03	927.73
766.213	923.63
766.397	958.45
766.58	950.26
766.763	989.17
766.946	899.06
767.129	933.87
767.312	890.87
767.495	901.11
767.678	897.01
767.861	913.39
768.044	931.83
768.227	872.43
768.41	901.11
768.593	911.35
768.776	942.07
768.959	882.67
769.142	892.91
769.324	833.52
769.507	882.67
769.69	866.29
769.873	829.43
770.056	923.63
770.239	831.48
770.421	815.09
770.604	800.76
770.787	825.33
770.97	811
771.152	864.24
771.335	854
771.518	819.19
771.7	845.81
771.883	864.24
772.066	761.84
772.248	735.22
772.431	829.43
772.613	745.46
772.796	751.6
772.978	757.75
773.161	757.75
773.343	716.79
773.526	815.09
773.708	702.45
773.891	767.99
774.073	735.22
774.256	708.6
774.438	692.21
774.621	667.64
774.803	710.65
774.985	720.88
775.168	708.6
775.35	706.55
775.532	688.12
775.715	704.5
775.897	700.41
776.079	663.54
776.261	659.45
776.444	698.36
776.626	737.27
776.808	684.02
776.99	704.5
777.173	661.49
777.355	620.53
777.537	743.41
777.719	653.3
777.901	659.45
778.083	606.2
778.265	577.53
778.447	612.34
778.629	602.1
778.811	606.2
778.993	727.03
779.175	536.57
779.357	598.01
779.539	589.82
779.721	598.01
779.903	681.97
780.085	489.46
780.267	614.39
780.449	585.72
780.631	552.95
780.812	598.01
780.994	569.34
781.176	585.72
781.358	569.34
781.54	546.81
781.721	577.53
781.903	569.34
782.085	534.52
782.267	569.34
782.448	487.42
782.63	458.74
782.812	530.42
782.993	563.19
783.175	495.61
783.357	528.38
783.538	505.85
783.72	481.27
783.901	475.13
784.083	542.71
784.264	511.99
784.446	520.18
784.627	456.7
784.809	561.14
784.99	417.79
785.172	450.55
785.353	462.84
785.535	464.89
785.716	499.7
785.897	432.12
786.079	450.55
786.26	407.55
786.441	475.13
786.623	413.69
786.804	311.29
786.985	376.83
787.167	399.35
787.348	423.93
787.529	389.11
787.71	397.31
787.891	366.59
788.073	397.31
788.254	374.78
788.435	456.7
788.616	421.88
788.797	440.31
788.978	337.91
789.159	360.44
789.34	417.79
789.522	417.79
789.703	393.21
789.884	391.16
790.065	407.55
790.246	430.07
790.427	356.35
790.607	389.11
790.788	323.58
790.969	315.39
791.15	454.65
791.331	319.48
791.512	346.11
791.693	301.05
791.874	374.78
792.054	382.97
792.235	290.81
792.416	372.73
792.597	319.48
792.778	389.11
792.958	348.15
793.139	339.96
793.32	290.81
793.5	270.33
793.681	305.15
793.862	335.87
794.042	325.63
794.223	315.39
794.404	360.44
794.584	260.09
794.765	225.28
794.945	331.77
795.126	339.96
795.306	348.15
795.487	317.44
795.667	274.43
795.848	311.29
796.028	288.76
796.209	258.04
796.389	315.39
796.57	266.24
796.75	217.08
796.93	143.36
797.111	299
797.291	292.86
797.471	299
797.652	233.47
797.832	274.43
798.012	311.29
798.192	346.11
798.373	249.85
798.553	196.61
798.733	360.44
798.913	280.57
799.093	321.53
799.274	219.13
799.454	311.29
799.634	344.06
799.814	184.32
799.994	278.52
800.174	299
800.354	241.66
800.534	270.33
800.714	243.71
800.894	176.13
801.074	192.51
801.254	301.05
801.434	270.33
801.614	266.24
801.794	172.03
801.974	733.17
802.154	178.17
802.334	227.32
802.514	212.99
802.693	245.76
802.873	212.99
803.053	241.66
803.233	270.33
803.413	233.47
803.592	190.46
803.772	217.08
803.952	249.85
804.131	260.09
804.311	237.56
804.491	233.47
804.67	217.08
804.85	221.18
805.03	247.8
805.209	307.2
805.389	212.99
805.568	251.9
805.748	210.94
805.928	186.37
806.107	258.04
806.287	217.08
806.466	204.8
806.646	159.74
806.825	233.47
807.004	237.56
807.184	223.23
807.363	270.33
807.543	266.24
807.722	243.71
807.901	245.76
808.081	172.03
808.26	174.08
808.439	227.32
808.619	204.8
808.798	204.8
808.977	243.71
809.156	172.03
809.336	223.23
809.515	143.36
809.694	192.51
809.873	159.74
810.052	151.55
810.231	198.65
810.411	282.62
810.59	237.56
810.769	180.22
810.948	172.03
811.127	178.17
811.306	219.13
811.485	143.36
811.664	239.61
811.843	169.98
812.022	112.64
812.201	210.94
812.38	159.74
812.559	208.89
812.737	188.41
812.916	53.25
813.095	106.49
813.274	131.07
813.453	139.26
813.632	163.84
813.811	147.45
813.989	192.51
814.168	196.61
814.347	210.94
814.526	190.46
814.704	116.73
814.883	169.98
815.062	102.4
815.24	186.37
815.419	100.35
815.598	212.99
815.776	139.26
815.955	243.71
816.133	86.01
816.312	108.54
816.49	114.69
816.669	200.7
816.847	147.45
817.026	145.41
817.204	184.32
817.383	106.49
817.561	180.22
817.74	126.97
817.918	188.41
818.097	98.3
818.275	153.6
818.453	145.41
818.632	139.26
818.81	194.56
818.988	63.49
819.167	151.55
819.345	194.56
819.523	151.55
819.701	227.32
819.879	126.97
820.058	145.41
820.236	167.93
820.414	161.79
820.592	137.21
820.77	135.17
820.948	88.06
821.127	69.63
821.305	81.92
821.483	90.11
821.661	151.55
821.839	208.89
822.017	229.37
822.195	159.74
822.373	143.36
822.551	141.31
822.729	126.97
822.907	81.92
823.085	169.98
823.262	61.44
823.44	135.17
823.618	98.3
823.796	102.4
823.974	94.21
824.152	153.6
824.329	45.06
824.507	110.59
824.685	163.84
824.863	94.21
825.04	151.55
825.218	161.79
825.396	108.54
825.574	137.21
825.751	49.15
825.929	186.37
826.107	120.83
826.284	22.53
826.462	133.12
826.639	118.78
826.817	122.88
826.994	32.77
827.172	139.26
827.349	192.51
827.527	57.34
827.704	124.93
827.882	145.41
828.059	159.74
828.237	104.45
828.414	169.98
828.591	94.21
828.769	86.01
828.946	133.12
829.124	139.26
829.301	157.69
829.478	86.01
829.655	145.41
829.833	155.65
830.01	55.3
830.187	143.36
830.364	55.3
830.542	69.63
830.719	129.02
830.896	114.69
831.073	38.91
831.25	118.78
831.427	36.86
831.604	110.59
831.782	30.72
831.959	77.82
832.136	63.49
832.313	167.93
832.49	38.91
832.667	45.06
832.844	118.78
833.021	86.01
833.198	118.78
833.374	124.93
833.551	86.01
833.728	81.92
833.905	102.4
834.082	69.63
834.259	12.29
834.436	176.13
834.612	106.49
834.789	118.78
834.966	133.12
835.143	86.01
835.319	57.34
835.496	40.96
835.673	106.49
835.85	122.88
836.026	79.87
836.203	61.44
836.38	114.69
836.556	28.67
836.733	83.97
836.909	141.31
837.086	71.68
837.262	-2.05
837.439	135.17
837.616	12.29
837.792	28.67
837.968	77.82
838.145	53.25
838.321	53.25
838.498	71.68
838.674	71.68
838.851	104.45
839.027	81.92
839.203	36.86
839.38	116.73
839.556	12.29
839.732	67.58
839.909	112.64
840.085	110.59
840.261	116.73
840.437	36.86
840.614	22.53
840.79	77.82
840.966	61.44
841.142	32.77
841.318	69.63
841.494	92.16
841.671	63.49
841.847	79.87
842.023	36.86
842.199	14.34
842.375	161.79
842.551	57.34
842.727	-18.43
842.903	77.82
843.079	59.39
843.255	65.53
843.431	30.72
843.607	69.63
843.783	36.86
843.959	149.5
844.134	69.63
844.31	96.25
844.486	61.44
844.662	26.62
844.838	94.21
845.013	47.1
845.189	-2.05
845.365	22.53
845.541	-8.19
845.716	16.38
845.892	153.6
846.068	49.15
846.244	40.96
846.419	79.87
846.595	20.48
846.77	12.29
846.946	38.91
847.122	38.91
847.297	86.01
847.473	36.86
847.648	96.25
847.824	75.77
847.999	-18.43
848.175	26.62
848.35	57.34
848.526	69.63
848.701	45.06
848.876	47.1
849.052	61.44
849.227	55.3
849.403	67.58
849.578	86.01
849.753	100.35
849.929	77.82
850.104	-10.24
850.279	92.16
850.454	86.01
850.63	77.82
850.805	86.01
850.98	32.77
851.155	73.73
851.33	57.34
851.505	-32.77
851.681	63.49
851.856	36.86
852.031	16.38
852.206	126.97
852.381	-16.38
852.556	-20.48
852.731	38.91
852.906	69.63
853.081	88.06
853.256	77.82
853.431	2.05
853.606	4.1
853.781	-18.43
853.956	-16.38
854.131	86.01
854.305	45.06
854.48	-4.1
854.655	-8.19
854.83	36.86
855.005	106.49
855.18	110.59
855.354	24.58
855.529	88.06
855.704	40.96
855.879	55.3
856.053	-8.19
856.228	24.58
856.403	32.77
856.577	77.82
856.752	92.16
856.926	-45.06
857.101	-28.67
857.276	38.91
857.45	-10.24
857.625	79.87
857.799	81.92
857.974	28.67
858.148	-4.1
858.323	75.77
858.497	96.25
858.672	-8.19
858.846	12.29
859.02	69.63
859.195	-20.48
859.369	81.92
859.543	57.34
859.718	69.63
859.892	96.25
860.066	55.3
860.241	20.48
860.415	0
860.589	6.14
860.763	20.48
860.938	-45.06
861.112	32.77
861.286	28.67
861.46	26.62
861.634	22.53
861.808	79.87
861.982	24.58
862.157	61.44
862.331	-30.72
862.505	-4.1
862.679	36.86
862.853	-6.14
863.027	2.05
863.201	120.83
863.375	-16.38
863.549	53.25
863.722	14.34
863.896	65.53
864.07	-26.62
864.244	12.29
864.418	32.77
864.592	28.67
864.766	55.3
864.939	4.1
865.113	40.96
865.287	16.38
865.461	-36.86
865.634	47.1
865.808	49.15
865.982	-14.34
866.156	26.62
866.329	-14.34
866.503	51.2
866.676	26.62
866.85	69.63
867.024	12.29
867.197	40.96
867.371	86.01
867.544	-45.06
867.718	69.63
867.891	32.77
868.065	-24.58
868.238	6.14
868.412	24.58
868.585	-2.05
868.759	40.96
868.932	102.4
869.105	12.29
869.279	90.11
869.452	20.48
869.625	77.82
869.799	34.82
869.972	-24.58
870.145	45.06
870.319	34.82
870.492	122.88
870.665	28.67
870.838	30.72
871.011	-65.54
871.185	67.58
871.358	-53.25
871.531	-26.62
871.704	40.96
871.877	77.82
872.05	-36.86
872.223	47.1
872.396	24.58
872.569	77.82
872.742	45.06
872.915	77.82
873.088	18.43
873.261	49.15
873.434	12.29
873.607	28.67
873.78	-2.05
873.953	36.86
874.126	65.53
874.299	57.34
874.471	-4.1
874.644	-10.24
874.817	-61.44
874.99	124.93
875.163	8.19
875.335	61.44
875.508	53.25
875.681	96.25
875.853	10.24
876.026	86.01
876.199	28.67
876.371	63.49
876.544	14.34
876.717	-36.86
876.889	-53.25
877.062	24.58
877.234	-45.06
877.407	24.58
877.579	22.53
877.752	-4.1
877.924	69.63
878.097	53.25
878.269	28.67
878.442	77.82
878.614	4.1
878.786	38.91
878.959	14.34
879.131	-2.05
879.303	-36.86
879.476	49.15
879.648	20.48
879.82	-4.1
879.993	16.38
880.165	10.24
880.337	-51.2
880.509	114.69
880.681	-53.25
880.854	69.63
881.026	2.05
881.198	57.34
881.37	-22.53
881.542	94.21
881.714	12.29
881.886	16.38
882.058	-16.38
882.23	16.38
882.402	4.1
882.574	-4.1
882.746	-20.48
882.918	129.02
883.09	73.73
883.262	34.82
883.434	-10.24
883.606	14.34
883.778	-16.38
883.95	32.77
884.122	8.19
884.293	38.91
884.465	-65.54
884.637	30.72
884.809	-20.48
884.98	24.58
885.152	30.72
885.324	24.58
885.496	-32.77
885.667	45.06
885.839	-4.1
886.011	102.4
886.182	67.58
886.354	40.96
886.525	108.54
886.697	71.68
886.869	-12.29
887.04	-4.1
887.212	12.29
887.383	73.73
887.555	18.43
887.726	94.21
887.897	45.06
888.069	6.14
888.24	45.06
888.412	45.06
888.583	-24.58
888.754	12.29
888.926	57.34
889.097	12.29
889.268	-16.38
889.44	-2.05
889.611	32.77
889.782	-49.15
889.953	-2.05
890.125	30.72
890.296	-4.1
890.467	-4.1
890.638	32.77
890.809	53.25
890.98	-32.77
891.151	59.39
891.323	53.25
891.494	-18.43
891.665	55.3
891.836	61.44
892.007	14.34
892.178	40.96
892.349	24.58
892.52	77.82
892.691	73.73
892.862	-73.73
893.032	-24.58
893.203	24.58
893.374	-12.29
893.545	-12.29
893.716	34.82
893.887	26.62
894.057	-43.01
894.228	47.1
894.399	20.48
894.57	-6.14
894.74	-12.29
894.911	28.67
895.082	22.53
895.253	-12.29
895.423	45.06
895.594	-43.01
895.764	20.48
895.935	36.86
896.106	26.62
896.276	63.49
896.447	38.91
896.617	14.34
896.788	28.67
896.958	12.29
897.129	-36.86
897.299	32.77
897.47	55.3
897.64	63.49
897.81	53.25
897.981	26.62
898.151	-16.38
898.322	45.06
898.492	24.58
898.662	45.06
898.832	18.43
899.003	18.43
899.173	32.77
899.343	-57.34
899.513	24.58
