Data from USB4F104151__263__14-22-48-277.txt Node

Date: Thu Mar 13 14:22:48 EDT 2025
User: louis
Spectrometer: USB4F10415
Trigger mode: 4
Integration Time (sec): 2.000000E-2
Scans to average: 1
Electric dark correction enabled: true
Nonlinearity correction enabled: false
Boxcar width: 0
XAxis mode: Wavelengths
Number of Pixels in Spectrum: 3648
>>>>>Begin Spectral Data<<<<<
178.204	-125.95
178.424	-125.95
178.644	-125.95
178.864	-29.7
179.084	-66.56
179.304	-39.94
179.524	41.98
179.744	-33.79
179.964	82.94
180.184	-29.7
180.404	27.65
180.624	-39.94
180.844	-56.32
181.064	-19.46
181.283	23.55
181.503	-25.6
181.723	68.61
181.943	23.55
182.163	56.32
182.383	35.84
182.602	56.32
182.822	105.47
183.042	17.41
183.262	19.46
183.482	64.51
183.701	74.75
183.921	25.6
184.141	1.02
184.361	74.75
184.58	13.31
184.8	56.32
185.02	35.84
185.239	74.75
185.459	-27.65
185.679	130.05
185.898	11.26
186.118	113.66
186.338	39.94
186.557	82.94
186.777	-15.36
186.997	89.09
187.216	52.22
187.436	72.7
187.655	142.33
187.875	97.28
188.095	3.07
188.314	144.38
188.534	54.27
188.753	33.79
188.973	48.13
189.192	105.47
189.412	11.26
189.631	-25.6
189.851	74.75
190.07	41.98
190.29	-1.02
190.509	58.37
190.729	-15.36
190.948	35.84
191.168	105.47
191.387	64.51
191.607	-17.41
191.826	48.13
192.045	58.37
192.265	31.74
192.484	-27.65
192.704	89.09
192.923	17.41
193.142	50.18
193.362	70.65
193.581	66.56
193.8	44.03
194.02	72.7
194.239	1.02
194.458	15.36
194.678	13.31
194.897	-29.7
195.116	93.18
195.335	156.67
195.555	136.19
195.774	25.6
195.993	62.46
196.212	25.6
196.432	76.8
196.651	97.28
196.87	-48.13
197.089	64.51
197.308	56.32
197.528	29.7
197.747	-48.13
197.966	27.65
198.185	74.75
198.404	9.22
198.623	105.47
198.842	68.61
199.062	115.71
199.281	89.09
199.5	-23.55
199.719	109.57
199.938	44.03
200.157	105.47
200.376	56.32
200.595	107.52
200.814	74.75
201.033	-23.55
201.252	58.37
201.471	-41.98
201.69	76.8
201.909	130.05
202.128	3.07
202.347	56.32
202.566	82.94
202.785	9.22
203.004	-31.74
203.223	97.28
203.442	123.9
203.661	23.55
203.879	109.57
204.098	138.24
204.317	-50.18
204.536	46.08
204.755	84.99
204.974	93.18
205.193	105.47
205.411	89.09
205.63	39.94
205.849	-1.02
206.068	-56.32
206.287	58.37
206.505	66.56
206.724	97.28
206.943	76.8
207.162	23.55
207.381	15.36
207.599	39.94
207.818	54.27
208.037	84.99
208.255	50.18
208.474	11.26
208.693	13.31
208.911	31.74
209.13	-25.6
209.349	156.67
209.567	1.02
209.786	60.42
210.005	87.04
210.223	97.28
210.442	-5.12
210.661	109.57
210.879	74.75
211.098	-23.55
211.316	48.13
211.535	138.24
211.753	52.22
211.972	44.03
212.191	-9.22
212.409	128
212.628	121.85
212.846	39.94
213.065	107.52
213.283	23.55
213.502	48.13
213.72	37.89
213.938	3.07
214.157	58.37
214.375	93.18
214.594	39.94
214.812	76.8
215.031	17.41
215.249	1.02
215.467	31.74
215.686	31.74
215.904	52.22
216.122	15.36
216.341	130.05
216.559	13.31
216.778	140.29
216.996	31.74
217.214	56.32
217.432	-9.22
217.651	-21.5
217.869	138.24
218.087	35.84
218.306	80.89
218.524	72.7
218.742	87.04
218.96	105.47
219.179	15.36
219.397	48.13
219.615	68.61
219.833	44.03
220.051	58.37
220.27	74.75
220.488	48.13
220.706	66.56
220.924	17.41
221.142	39.94
221.36	9.22
221.578	97.28
221.796	17.41
222.015	105.47
222.233	-1.02
222.451	97.28
222.669	89.09
222.887	60.42
223.105	27.65
223.323	39.94
223.541	15.36
223.759	-1.02
223.977	25.6
224.195	41.98
224.413	103.42
224.631	87.04
224.849	7.17
225.067	33.79
225.285	-7.17
225.503	27.65
225.721	9.22
225.939	58.37
226.157	72.7
226.375	89.09
226.592	-1.02
226.81	109.57
227.028	72.7
227.246	66.56
227.464	56.32
227.682	82.94
227.9	74.75
228.117	89.09
228.335	-13.31
228.553	48.13
228.771	54.27
228.989	-1.02
229.206	58.37
229.424	-50.18
229.642	15.36
229.86	-17.41
230.077	144.38
230.295	35.84
230.513	35.84
230.731	50.18
230.948	97.28
231.166	82.94
231.384	76.8
231.601	-15.36
231.819	113.66
232.037	3.07
232.254	11.26
232.472	35.84
232.689	-9.22
232.907	99.33
233.125	56.32
233.342	78.85
233.56	56.32
233.777	35.84
233.995	64.51
234.213	64.51
234.43	25.6
234.648	48.13
234.865	113.66
235.083	91.13
235.3	76.8
235.518	25.6
235.735	39.94
235.953	-15.36
236.17	54.27
236.388	64.51
236.605	80.89
236.822	89.09
237.04	17.41
237.257	11.26
237.475	-9.22
237.692	52.22
237.909	60.42
238.127	93.18
238.344	70.65
238.562	46.08
238.779	44.03
238.996	60.42
239.214	76.8
239.431	105.47
239.648	-15.36
239.865	101.37
240.083	52.22
240.3	-25.6
240.517	44.03
240.735	58.37
240.952	121.85
241.169	72.7
241.386	97.28
241.603	23.55
241.821	-7.17
242.038	80.89
242.255	58.37
242.472	25.6
242.689	9.22
242.907	97.28
243.124	9.22
243.341	48.13
243.558	31.74
243.775	84.99
243.992	5.12
244.209	82.94
244.426	97.28
244.643	60.42
244.86	33.79
245.078	56.32
245.295	-1.02
245.512	31.74
245.729	-25.6
245.946	-5.12
246.163	119.81
246.38	37.89
246.597	25.6
246.814	39.94
247.031	150.53
247.248	99.33
247.464	58.37
247.681	-1.02
247.898	121.85
248.115	46.08
248.332	7.17
248.549	33.79
248.766	66.56
248.983	33.79
249.2	76.8
249.417	11.26
249.633	27.65
249.85	11.26
250.067	52.22
250.284	72.7
250.501	54.27
250.717	97.28
250.934	-27.65
251.151	9.22
251.368	23.55
251.585	41.98
251.801	68.61
252.018	80.89
252.235	113.66
252.451	15.36
252.668	29.7
252.885	89.09
253.102	64.51
253.318	56.32
253.535	-33.79
253.752	105.47
253.968	19.46
254.185	7.17
254.401	17.41
254.618	115.71
254.835	91.13
255.051	60.42
255.268	74.75
255.484	31.74
255.701	97.28
255.917	23.55
256.134	39.94
256.351	74.75
256.567	-15.36
256.784	11.26
257	7.17
257.217	113.66
257.433	41.98
257.65	50.18
257.866	25.6
258.082	39.94
258.299	17.41
258.515	74.75
258.732	-9.22
258.948	23.55
259.165	74.75
259.381	91.13
259.597	31.74
259.814	125.95
260.03	54.27
260.246	37.89
260.463	-1.02
260.679	113.66
260.895	27.65
261.112	82.94
261.328	64.51
261.544	-39.94
261.761	134.14
261.977	50.18
262.193	-23.55
262.409	105.47
262.626	7.17
262.842	66.56
263.058	-15.36
263.274	64.51
263.49	15.36
263.707	58.37
263.923	76.8
264.139	25.6
264.355	39.94
264.571	82.94
264.787	56.32
265.004	58.37
265.22	125.95
265.436	78.85
265.652	-37.89
265.868	31.74
266.084	76.8
266.3	48.13
266.516	7.17
266.732	27.65
266.948	84.99
267.164	68.61
267.38	52.22
267.596	87.04
267.812	64.51
268.028	72.7
268.244	70.65
268.46	72.7
268.676	99.33
268.892	48.13
269.108	17.41
269.324	50.18
269.54	-78.85
269.756	80.89
269.972	-3.07
270.188	89.09
270.403	109.57
270.619	9.22
270.835	125.95
271.051	80.89
271.267	3.07
271.483	132.09
271.698	15.36
271.914	62.46
272.13	25.6
272.346	15.36
272.562	41.98
272.777	19.46
272.993	-5.12
273.209	33.79
273.425	60.42
273.64	17.41
273.856	109.57
274.072	33.79
274.287	66.56
274.503	27.65
274.719	48.13
274.934	64.51
275.15	52.22
275.366	72.7
275.581	64.51
275.797	35.84
276.012	76.8
276.228	56.32
276.444	89.09
276.659	21.5
276.875	48.13
277.09	60.42
277.306	33.79
277.521	101.37
277.737	68.61
277.952	103.42
278.168	39.94
278.383	58.37
278.599	11.26
278.814	99.33
279.03	25.6
279.245	148.48
279.461	44.03
279.676	39.94
279.892	7.17
280.107	23.55
280.322	-1.02
280.538	136.19
280.753	58.37
280.969	84.99
281.184	125.95
281.399	82.94
281.615	15.36
281.83	66.56
282.045	7.17
282.26	128
282.476	7.17
282.691	54.27
282.906	21.5
283.122	115.71
283.337	101.37
283.552	82.94
283.767	-29.7
283.983	33.79
284.198	-9.22
284.413	93.18
284.628	41.98
284.843	64.51
285.058	31.74
285.274	23.55
285.489	-21.5
285.704	105.47
285.919	54.27
286.134	44.03
286.349	-1.02
286.564	80.89
286.779	9.22
286.995	23.55
287.21	33.79
287.425	113.66
287.64	58.37
287.855	7.17
288.07	-72.7
288.285	54.27
288.5	60.42
288.715	33.79
288.93	7.17
289.145	39.94
289.36	-33.79
289.575	27.65
289.79	117.76
290.004	-9.22
290.219	60.42
290.434	-11.26
290.649	113.66
290.864	35.84
291.079	48.13
291.294	-7.17
291.509	33.79
291.724	125.95
291.938	31.74
292.153	39.94
292.368	-37.89
292.583	64.51
292.798	35.84
293.012	56.32
293.227	54.27
293.442	33.79
293.657	76.8
293.871	52.22
294.086	31.74
294.301	99.33
294.516	70.65
294.73	23.55
294.945	48.13
295.16	58.37
295.374	111.61
295.589	9.22
295.804	56.32
296.018	44.03
296.233	39.94
296.447	44.03
296.662	29.7
296.877	115.71
297.091	89.09
297.306	-3.07
297.52	1.02
297.735	15.36
297.949	68.61
298.164	23.55
298.378	48.13
298.593	41.98
298.807	-13.31
299.022	31.74
299.236	76.8
299.451	48.13
299.665	41.98
299.88	39.94
300.094	-21.5
300.309	97.28
300.523	56.32
300.737	56.32
300.952	50.18
301.166	56.32
301.381	44.03
301.595	44.03
301.809	23.55
302.024	68.61
302.238	13.31
302.452	87.04
302.667	37.89
302.881	93.18
303.095	44.03
303.309	82.94
303.524	23.55
303.738	39.94
303.952	29.7
304.166	72.7
304.381	29.7
304.595	136.19
304.809	-25.6
305.023	23.55
305.237	31.74
305.452	37.89
305.666	-13.31
305.88	105.47
306.094	74.75
306.308	17.41
306.522	56.32
306.736	113.66
306.95	-9.22
307.164	39.94
307.379	72.7
307.593	25.6
307.807	39.94
308.021	91.13
308.235	66.56
308.449	15.36
308.663	-21.5
308.877	97.28
309.091	17.41
309.305	66.56
309.519	25.6
309.733	48.13
309.947	7.17
310.161	72.7
310.374	5.12
310.588	60.42
310.802	58.37
311.016	115.71
311.23	-1.02
311.444	41.98
311.658	99.33
311.872	23.55
312.085	101.37
312.299	19.46
312.513	23.55
312.727	50.18
312.941	29.7
313.154	-7.17
313.368	23.55
313.582	93.18
313.796	-13.31
314.009	31.74
314.223	89.09
314.437	76.8
314.651	72.7
314.864	44.03
315.078	74.75
315.292	52.22
315.505	50.18
315.719	15.36
315.933	56.32
316.146	39.94
316.36	78.85
316.573	91.13
316.787	84.99
317.001	66.56
317.214	15.36
317.428	109.57
317.641	99.33
317.855	27.65
318.068	52.22
318.282	41.98
318.495	23.55
318.709	74.75
318.922	29.7
319.136	9.22
319.349	128
319.563	-60.42
319.776	101.37
319.99	27.65
320.203	109.57
320.417	70.65
320.63	91.13
320.843	103.42
321.057	1.02
321.27	121.85
321.483	109.57
321.697	89.09
321.91	39.94
322.124	7.17
322.337	97.28
322.55	130.05
322.763	80.89
322.977	21.5
323.19	-9.22
323.403	89.09
323.617	19.46
323.83	35.84
324.043	-13.31
324.256	23.55
324.469	146.43
324.683	-21.5
324.896	3.07
325.109	82.94
325.322	-9.22
325.535	64.51
325.748	97.28
325.962	48.13
326.175	19.46
326.388	105.47
326.601	-25.6
326.814	29.7
327.027	62.46
327.24	80.89
327.453	11.26
327.666	130.05
327.879	87.04
328.092	82.94
328.305	-7.17
328.518	56.32
328.731	31.74
328.944	-17.41
329.157	56.32
329.37	62.46
329.583	93.18
329.796	138.24
330.009	9.22
330.222	97.28
330.435	64.51
330.648	78.85
330.861	31.74
331.073	3.07
331.286	148.48
331.499	17.41
331.712	-17.41
331.925	60.42
332.138	-48.13
332.35	29.7
332.563	-29.7
332.776	44.03
332.989	64.51
333.202	76.8
333.414	-1.02
333.627	58.37
333.84	91.13
334.053	-35.84
334.265	46.08
334.478	89.09
334.691	123.9
334.903	97.28
335.116	66.56
335.329	125.95
335.541	23.55
335.754	89.09
335.966	50.18
336.179	15.36
336.392	23.55
336.604	23.55
336.817	46.08
337.029	62.46
337.242	-7.17
337.454	35.84
337.667	140.29
337.88	68.61
338.092	109.57
338.305	27.65
338.517	7.17
338.729	56.32
338.942	31.74
339.154	74.75
339.367	5.12
339.579	82.94
339.792	11.26
340.004	97.28
340.217	-29.7
340.429	7.17
340.641	50.18
340.854	-1.02
341.066	58.37
341.278	72.7
341.491	50.18
341.703	48.13
341.915	7.17
342.128	35.84
342.34	21.5
342.552	64.51
342.764	58.37
342.977	56.32
343.189	113.66
343.401	-33.79
343.613	80.89
343.826	72.7
344.038	23.55
344.25	35.84
344.462	35.84
344.674	60.42
344.886	91.13
345.099	66.56
345.311	101.37
345.523	52.22
345.735	78.85
345.947	39.94
346.159	7.17
346.371	82.94
346.583	39.94
346.795	121.85
347.007	84.99
347.219	105.47
347.431	-7.17
347.643	119.81
347.855	70.65
348.067	89.09
348.279	31.74
348.491	80.89
348.703	-1.02
348.915	35.84
349.127	-7.17
349.339	31.74
349.551	-9.22
349.763	123.9
349.975	91.13
350.187	82.94
350.399	123.9
350.61	125.95
350.822	25.6
351.034	52.22
351.246	62.46
351.458	62.46
351.669	37.89
351.881	105.47
352.093	119.81
352.305	72.7
352.517	25.6
352.728	48.13
352.94	39.94
353.152	72.7
353.363	31.74
353.575	31.74
353.787	72.7
353.999	66.56
354.21	121.85
354.422	72.7
354.633	9.22
354.845	15.36
355.057	80.89
355.268	68.61
355.48	66.56
355.692	-21.5
355.903	82.94
356.115	31.74
356.326	-27.65
356.538	82.94
356.749	11.26
356.961	82.94
357.172	31.74
357.384	60.42
357.595	99.33
357.807	68.61
358.018	-33.79
358.23	99.33
358.441	138.24
358.653	99.33
358.864	48.13
359.075	-5.12
359.287	37.89
359.498	54.27
359.709	33.79
359.921	39.94
360.132	17.41
360.344	3.07
360.555	-5.12
360.766	7.17
360.977	-19.46
361.189	72.7
361.4	15.36
361.611	80.89
361.823	89.09
362.034	82.94
362.245	41.98
362.456	-5.12
362.667	48.13
362.879	11.26
363.09	117.76
363.301	89.09
363.512	72.7
363.723	48.13
363.935	95.23
364.146	82.94
364.357	21.5
364.568	39.94
364.779	-5.12
364.99	80.89
365.201	82.94
365.412	46.08
365.623	80.89
365.834	17.41
366.045	39.94
366.256	17.41
366.467	80.89
366.678	50.18
366.889	17.41
367.1	72.7
367.311	31.74
367.522	48.13
367.733	93.18
367.944	48.13
368.155	-3.07
368.366	80.89
368.577	41.98
368.788	35.84
368.999	60.42
369.209	15.36
369.42	105.47
369.631	50.18
369.842	138.24
370.053	33.79
370.264	58.37
370.474	41.98
370.685	48.13
370.896	3.07
371.107	78.85
371.317	44.03
371.528	13.31
371.739	76.8
371.95	89.09
372.16	39.94
372.371	52.22
372.582	60.42
372.792	119.81
373.003	105.47
373.214	58.37
373.424	39.94
373.635	39.94
373.846	80.89
374.056	70.65
374.267	54.27
374.477	72.7
374.688	19.46
374.898	56.32
375.109	84.99
375.319	31.74
375.53	39.94
375.74	25.6
375.951	76.8
376.161	56.32
376.372	74.75
376.582	17.41
376.793	99.33
377.003	-15.36
377.214	130.05
377.424	60.42
377.635	82.94
377.845	17.41
378.055	52.22
378.266	-5.12
378.476	48.13
378.686	-1.02
378.897	25.6
379.107	91.13
379.317	48.13
379.528	33.79
379.738	91.13
379.948	99.33
380.158	97.28
380.369	105.47
380.579	121.85
380.789	89.09
380.999	54.27
381.21	95.23
381.42	72.7
381.63	-25.6
381.84	109.57
382.05	-27.65
382.261	46.08
382.471	97.28
382.681	121.85
382.891	64.51
383.101	76.8
383.311	27.65
383.521	48.13
383.731	171.01
383.941	93.18
384.151	-17.41
384.361	113.66
384.571	46.08
384.781	64.51
384.991	105.47
385.201	80.89
385.411	82.94
385.621	117.76
385.831	64.51
386.041	80.89
386.251	148.48
386.461	33.79
386.671	41.98
386.881	58.37
387.091	125.95
387.301	56.32
387.511	7.17
387.72	15.36
387.93	99.33
388.14	39.94
388.35	142.33
388.56	46.08
388.769	72.7
388.979	72.7
389.189	17.41
389.399	41.98
389.609	58.37
389.818	84.99
390.028	41.98
390.238	84.99
390.447	113.66
390.657	119.81
390.867	9.22
391.076	-25.6
391.286	76.8
391.496	91.13
391.705	35.84
391.915	144.38
392.125	58.37
392.334	3.07
392.544	97.28
392.753	64.51
392.963	52.22
393.172	113.66
393.382	29.7
393.591	150.53
393.801	95.23
394.01	140.29
394.22	107.52
394.429	31.74
394.639	50.18
394.848	48.13
395.058	56.32
395.267	66.56
395.477	62.46
395.686	105.47
395.895	99.33
396.105	148.48
396.314	50.18
396.524	103.42
396.733	97.28
396.942	93.18
397.152	39.94
397.361	158.72
397.57	62.46
397.78	130.05
397.989	115.71
398.198	117.76
398.407	66.56
398.617	109.57
398.826	115.71
399.035	105.47
399.244	64.51
399.453	132.09
399.663	162.81
399.872	31.74
400.081	54.27
400.29	123.9
400.499	171.01
400.708	70.65
400.917	89.09
401.127	130.05
401.336	60.42
401.545	164.86
401.754	97.28
401.963	154.62
402.172	48.13
402.381	41.98
402.59	41.98
402.799	46.08
403.008	121.85
403.217	74.75
403.426	72.7
403.635	91.13
403.844	82.94
404.053	103.42
404.262	154.62
404.471	164.86
404.68	134.14
404.888	154.62
405.097	154.62
405.306	148.48
405.515	138.24
405.724	134.14
405.933	95.23
406.142	50.18
406.35	195.58
406.559	125.95
406.768	160.77
406.977	203.77
407.185	103.42
407.394	115.71
407.603	183.29
407.812	216.06
408.02	207.87
408.229	220.16
408.438	238.59
408.646	162.81
408.855	191.49
409.064	226.3
409.272	162.81
409.481	261.12
409.69	187.39
409.898	201.72
410.107	224.25
410.315	236.54
410.524	261.12
410.733	211.96
410.941	224.25
411.15	316.41
411.358	293.88
411.567	328.7
411.775	287.74
411.984	277.5
412.192	338.94
412.401	224.25
412.609	383.99
412.818	367.61
413.026	318.46
413.234	402.43
413.443	373.75
413.651	424.95
413.86	400.38
414.068	453.63
414.276	492.54
414.485	383.99
414.693	515.06
414.901	523.26
415.11	494.58
415.318	472.06
415.526	465.91
415.734	498.68
415.943	535.54
416.151	609.27
416.359	568.31
416.567	541.69
416.776	625.65
416.984	695.29
417.192	676.85
417.4	730.1
417.608	605.17
417.817	646.13
418.025	820.21
418.233	740.34
418.441	779.25
418.649	826.36
418.857	932.85
419.065	859.12
419.273	875.51
419.481	1016.82
419.689	1006.58
419.897	996.34
420.105	1108.98
420.313	1135.6
420.521	1188.85
420.729	1192.94
420.937	1188.85
421.145	1137.65
421.353	1301.48
421.561	1448.94
421.769	1285.1
421.977	1407.98
422.185	1358.83
422.393	1389.55
422.601	1510.38
422.809	1506.28
423.017	1563.62
423.224	1647.59
423.432	1692.65
423.64	1729.51
423.848	1825.76
424.056	1805.28
424.263	1876.96
424.471	1838.05
424.679	2024.42
424.887	2059.23
425.094	2024.42
425.302	2055.14
425.51	2157.54
425.718	2292.7
425.925	2235.36
426.133	2374.62
426.341	2614.23
426.548	2628.57
426.756	2571.22
426.964	2696.15
427.171	2806.74
427.379	2870.23
427.586	2866.13
427.794	2968.53
428.001	3060.69
428.209	3441.61
428.417	3292.11
428.624	3382.22
428.832	3359.69
429.039	3333.07
429.247	3410.89
429.454	3793.86
429.662	4031.43
429.869	3627.98
430.076	3967.94
430.284	4037.57
430.491	4078.53
430.699	4236.22
430.906	4185.02
431.114	4236.22
431.321	4307.9
431.528	4557.75
431.736	4705.21
431.943	4914.1
432.15	4778.94
432.358	4899.77
432.565	5188.53
432.772	5258.16
432.979	5555.12
433.187	5569.45
433.394	5620.65
433.601	5964.71
433.808	5938.09
434.016	5987.24
434.223	6095.78
434.43	6654.87
434.637	6544.28
434.844	6855.58
435.052	6976.41
435.259	7078.8
435.466	7035.8
435.673	6763.42
435.88	7295.89
436.087	7838.6
436.294	7676.81
436.501	7656.33
436.708	7662.48
436.915	7904.14
437.122	8205.19
437.329	8299.39
437.537	8569.73
437.743	8743.8
437.95	8708.99
438.157	9057.14
438.364	9143.16
438.571	9364.34
438.778	9370.48
438.985	10476.38
439.192	9839.47
439.399	10347.36
439.606	9968.49
439.813	10515.3
440.02	11176.79
440.227	11074.39
440.433	10818.39
440.64	11060.06
440.847	11148.12
441.054	11381.59
441.261	12231.49
441.467	11948.87
441.674	12172.1
441.881	12460.87
442.088	12614.46
442.294	12411.71
442.501	12786.49
442.708	13071.16
442.914	13552.43
443.121	14250.79
443.328	13796.14
443.534	14527.27
443.741	14310.18
443.948	14105.38
444.154	15100.7
444.361	15092.51
444.568	15102.75
444.774	15180.57
444.981	15223.58
445.187	15764.24
445.394	16397.06
445.6	16028.43
445.807	17674.99
446.013	16907.01
446.22	17206.01
446.426	17904.37
446.633	18201.32
446.839	18807.52
447.046	17926.89
447.252	18856.67
447.459	18971.36
447.665	18758.37
447.871	19593.94
448.078	20611.78
448.284	19469.01
448.491	20265.67
448.697	20892.35
448.903	21420.73
449.11	21559.99
449.316	20857.54
449.522	21349.05
449.728	21998.26
449.935	22012.59
450.141	22012.59
450.347	22583.98
450.553	21904.05
450.76	22112.94
450.966	22792.87
451.172	22575.78
451.378	23130.78
451.584	22758.05
451.791	23308.96
451.997	23433.88
452.203	23921.3
452.409	23546.52
452.615	23431.83
452.821	22717.09
453.027	22418.09
453.233	23952.02
453.44	22831.78
453.646	23321.24
453.852	23124.64
454.058	23745.17
454.264	22588.07
454.47	23106.21
454.676	22731.43
454.882	23798.42
455.088	21449.4
455.294	21965.49
455.5	22194.86
455.705	22467.24
455.911	21435.06
456.117	21154.49
456.323	20714.18
456.529	19792.59
456.735	21045.95
456.941	20259.53
457.147	20034.25
457.352	19501.78
457.558	19253.98
457.764	19233.5
457.97	18731.75
458.176	18354.92
458.381	18447.08
458.587	17697.52
458.793	17691.38
458.999	16614.15
459.204	17887.98
459.41	17269.5
459.616	16519.94
459.821	16399.11
460.027	16335.62
460.233	15866.64
460.438	15147.8
460.644	15561.49
460.85	14490.4
461.055	14545.7
461.261	14269.22
461.466	13474.61
461.672	12890.94
461.878	13824.81
462.083	12866.36
462.289	12448.58
462.494	12458.82
462.7	11983.69
462.905	11555.66
463.111	11965.26
463.316	12096.33
463.522	11866.95
463.727	11684.69
463.932	11737.93
464.138	11588.43
464.343	11789.13
464.549	11287.38
464.754	11727.69
464.959	11739.98
465.165	11418.45
465.37	11172.69
465.575	10791.77
465.781	11404.11
465.986	11393.87
466.191	11002.71
466.397	10416.99
466.602	10333.03
466.807	10511.2
467.012	10541.92
467.218	10484.58
467.423	10214.24
467.628	10361.7
467.833	10546.02
468.038	10433.38
468.244	10179.43
468.449	10439.52
468.654	10240.87
468.859	10140.52
469.064	10228.58
469.269	9560.94
469.474	9962.34
469.679	10091.37
469.885	9575.28
470.09	9878.38
470.295	9620.33
470.5	9519.98
470.705	9601.9
470.91	9274.23
471.115	9218.93
471.32	9329.52
471.525	9481.07
471.73	9024.37
471.935	9169.78
472.139	8981.37
472.344	9141.11
472.549	8846.2
472.754	8805.24
472.959	8573.82
473.164	8477.57
473.369	8162.18
473.574	8620.92
473.778	8504.19
473.983	8321.92
474.188	8340.35
474.393	7887.75
474.598	7949.19
474.802	8156.04
475.007	7988.1
475.212	7992.2
475.417	7627.66
475.621	7728.01
475.826	7695.24
476.031	7467.92
476.235	7492.49
476.44	7365.52
476.645	7400.34
476.849	7482.25
477.054	7416.72
477.259	7240.59
477.463	7177.11
477.668	7056.28
477.872	7023.51
478.077	7068.56
478.282	6765.46
478.486	6644.63
478.691	6527.9
478.895	6759.32
479.1	6794.14
479.304	6577.05
479.509	6226.85
479.713	6591.39
479.918	6319.01
480.122	6222.75
480.326	6519.71
480.531	6378.4
480.735	6237.09
480.94	6138.79
481.144	6335.39
481.348	6290.34
481.553	6216.61
481.757	6081.44
481.961	6243.23
482.166	6392.73
482.37	6173.6
482.574	6347.68
482.778	6134.69
482.983	6249.38
483.187	6200.23
483.391	6226.85
483.595	6077.35
483.8	6101.92
484.004	6038.44
484.208	6083.49
484.412	6038.44
484.616	6040.48
484.821	6112.16
485.025	6048.68
485.229	6046.63
485.433	6095.78
485.637	6065.06
485.841	6044.58
486.045	6060.96
486.249	6161.31
486.453	6040.48
486.657	6067.11
486.861	6212.51
487.065	5880.74
487.269	6026.15
487.473	5876.65
487.677	6126.5
487.881	6224.8
488.085	5864.36
488.289	6220.71
488.493	5983.14
488.697	6134.69
488.901	6110.11
489.105	6001.57
489.309	6220.71
489.512	5878.69
489.716	6126.5
489.92	6060.96
490.124	6218.66
490.328	6288.29
490.531	6146.98
490.735	6343.58
490.939	6249.38
491.143	6241.18
491.346	6056.87
491.55	6433.69
491.754	6300.58
491.958	6478.75
492.161	6310.82
492.365	6441.89
492.569	6343.58
492.772	6409.12
492.976	6587.29
493.18	6499.23
493.383	6511.52
493.587	6560.67
493.79	6720.41
493.994	6349.73
494.197	6728.6
494.401	6675.35
494.605	6683.55
494.808	6818.71
495.012	6824.86
495.215	6843.29
495.419	7023.51
495.622	6675.35
495.825	6994.84
496.029	7027.6
496.232	7220.11
496.436	6994.84
496.639	7453.58
496.843	7289.74
497.046	7467.92
497.249	7429.01
497.453	7547.79
497.656	7510.93
497.859	7707.53
498.063	7494.54
498.266	7908.23
498.469	7889.8
498.673	7756.68
498.876	7957.38
499.079	7975.81
499.282	7945.09
499.485	8450.94
499.689	8272.77
499.892	8260.48
500.095	8389.5
500.298	8631.16
500.501	8553.34
500.705	8899.45
500.908	8801.15
501.111	9034.61
501.314	9165.68
501.517	9063.29
501.72	9300.85
501.923	9091.96
502.126	9395.06
502.329	9497.46
502.532	9470.83
502.735	9755.5
502.938	9923.43
503.141	9855.85
503.344	9878.38
503.547	9968.49
503.75	10232.68
503.953	10398.56
504.156	10419.04
504.359	10466.14
504.562	10617.69
504.765	10722.14
504.968	10845.02
505.17	10894.17
505.373	10900.31
505.576	11250.52
505.779	11254.61
505.982	11332.44
506.185	11328.34
506.387	11641.68
506.59	11623.25
506.793	11821.9
506.996	11838.28
507.198	12163.91
507.401	12262.21
507.604	12282.69
507.807	12501.83
508.009	12747.58
508.212	12495.68
508.415	12768.06
508.617	12968.76
508.82	13026.11
509.022	13122.36
509.225	13384.5
509.428	13409.08
509.63	13445.94
509.833	13521.71
510.035	13916.97
510.238	13826.86
510.44	14019.37
510.643	14175.02
510.845	14336.81
511.048	14228.26
511.25	14607.14
511.453	14562.08
511.655	15211.29
511.858	15074.07
512.06	15366.93
512.262	15344.41
512.465	15416.08
512.667	15555.35
512.87	15801.1
513.072	15379.22
513.274	16200.46
513.477	16186.12
513.679	16276.23
513.881	16337.67
514.084	16653.06
514.286	16702.21
514.488	16849.66
514.69	17101.56
514.893	17255.16
515.095	17033.98
515.297	17203.96
515.499	17609.46
515.701	17693.43
515.904	18215.66
516.106	18002.67
516.308	17984.24
516.51	18594.53
516.712	18440.93
516.914	18545.38
517.116	19016.41
517.318	19006.17
517.52	19262.17
517.722	19249.88
517.925	19583.7
518.127	19614.42
518.329	19800.79
518.531	19800.79
518.733	20220.62
518.935	20181.71
519.136	20277.96
519.338	20501.19
519.54	20540.1
519.742	20740.8
519.944	20908.74
520.146	21142.21
520.348	21252.8
520.55	21365.43
520.752	21621.43
520.954	21787.32
521.155	21893.81
521.357	22033.07
521.559	22117.04
521.761	22624.93
521.963	22045.36
522.164	22534.82
522.366	22518.44
522.568	23003.81
522.77	22657.7
522.971	23480.99
523.173	23450.27
523.375	23337.63
523.576	23726.74
523.778	23730.84
523.98	23730.84
524.181	23962.26
524.383	23966.35
524.584	24134.29
524.786	24195.73
524.988	24042.13
525.189	24423.05
525.391	24785.54
525.592	24846.98
525.794	25072.26
525.995	24937.09
526.197	24816.26
526.398	25129.6
526.6	25352.83
526.801	25410.17
527.003	25260.67
527.204	25662.07
527.406	25830.01
527.607	25827.96
527.808	25789.05
528.01	25746.04
528.211	25764.47
528.412	26483.31
528.614	26053.23
528.815	26204.78
529.016	26423.92
529.218	26296.94
529.419	26178.16
529.62	26301.04
529.822	26227.31
530.023	26239.6
530.224	26354.29
530.425	26393.2
530.626	26382.96
530.828	26159.73
531.029	26858.09
531.23	26585.71
531.431	26720.87
531.632	26530.41
531.833	26894.95
532.035	26829.41
532.236	26702.44
532.437	27056.74
532.638	26931.81
532.839	26907.24
533.04	27144.8
533.241	26700.39
533.442	27091.55
533.643	27282.02
533.844	26942.05
534.045	26923.62
534.246	27056.74
534.447	26993.25
534.648	26843.75
534.849	26964.58
535.05	27126.37
535.251	27097.7
535.451	27032.16
535.652	26976.87
535.853	26753.64
536.054	27138.66
536.255	26989.16
536.456	26468.97
536.657	27345.5
536.857	27132.51
537.058	26833.51
537.259	27140.71
537.46	26954.34
537.66	27341.41
537.861	27046.5
538.062	26909.29
538.263	27060.84
538.463	26923.62
538.664	26966.63
538.865	27189.86
539.065	27169.38
539.266	26653.29
539.466	27030.12
539.667	26712.68
539.868	27365.98
540.068	27052.64
540.269	26958.44
540.469	26956.39
540.67	26554.99
540.87	26847.85
541.071	26942.05
541.271	27040.36
541.472	26974.82
541.672	26825.32
541.873	26518.12
542.073	26153.58
542.274	27044.45
542.474	26847.85
542.675	26505.84
542.875	26839.65
543.075	26774.12
543.276	26632.81
543.476	27189.86
543.676	26415.72
543.877	26784.36
544.077	26743.4
544.277	26718.82
544.478	26641
544.678	27140.71
544.878	26600.04
545.078	26841.7
545.279	26464.88
545.479	26915.43
545.679	26679.91
545.879	26352.24
546.079	26624.62
546.28	26690.15
546.48	26342
546.68	26735.21
546.88	26657.39
547.08	26729.06
547.28	26681.96
547.48	26104.43
547.68	26444.4
547.88	26518.12
548.081	26677.86
548.281	26405.49
548.481	26477.16
548.681	26514.03
548.881	26628.71
549.081	26638.95
549.28	26364.53
549.48	26395.25
549.68	26618.47
549.88	26987.11
550.08	26460.78
550.28	26475.12
550.48	26301.04
550.68	26548.84
550.88	26491.5
551.08	26499.69
551.279	26405.49
551.479	26196.59
551.679	26342
551.879	26282.61
552.079	26477.16
552.278	26251.89
552.478	26366.57
552.678	26161.78
552.878	26485.36
553.077	26327.66
553.277	26167.92
553.477	26483.31
553.676	25934.45
553.876	26135.15
554.076	26217.07
554.275	26077.81
554.475	26002.04
554.674	25959.03
554.874	26266.22
555.074	25737.85
555.273	26081.91
555.473	26088.05
555.672	26223.22
555.872	26016.37
556.071	25981.56
556.271	26161.78
556.47	25795.19
556.67	25512.57
556.869	25899.64
557.068	25991.8
557.268	25903.73
557.467	26102.39
557.667	26198.64
557.866	25856.63
558.065	25647.74
558.265	25752.18
558.464	25369.21
558.663	25768.57
558.863	25541.24
559.062	25991.8
559.261	25475.71
559.461	26129.01
559.66	25293.44
559.859	25531
560.058	25242.24
560.258	25600.63
560.457	25029.25
560.656	25705.08
560.855	25219.71
561.054	25307.77
561.253	25182.85
561.453	25184.9
561.652	25385.6
561.851	25393.79
562.05	25084.55
562.249	25037.44
562.448	25305.73
562.647	25090.69
562.846	24967.81
563.045	25176.7
563.244	24738.44
563.443	24920.71
563.642	24720.01
563.841	24517.26
564.04	24793.73
564.239	24904.32
564.438	24732.29
564.637	24656.52
564.836	24842.88
565.035	24394.38
565.234	24726.15
565.432	24758.92
565.631	24388.24
565.83	24636.04
566.029	24228.49
566.228	24304.27
566.427	24384.14
566.625	24300.17
566.824	24021.65
567.023	24087.18
567.222	23663.25
567.42	24062.61
567.619	23829.14
567.818	23904.92
568.016	23741.08
568.215	23913.11
568.414	23640.73
568.612	23947.92
568.811	24031.89
569.01	23552.66
569.208	23134.88
569.407	23345.82
569.605	23288.48
569.804	23714.45
570.002	23212.7
570.201	23474.84
570.4	23112.35
570.598	23069.34
570.797	23005.86
570.995	22975.14
571.193	22864.55
571.392	23188.13
571.59	22878.88
571.789	22913.7
571.987	22651.56
572.186	22735.53
572.384	22373.03
572.582	22993.57
572.781	22864.55
572.979	22837.92
573.177	22661.8
573.376	22516.39
573.574	22356.65
573.772	22743.72
573.971	22434.47
574.169	22459.05
574.367	22282.92
574.565	22203.05
574.763	22239.92
574.962	21885.62
575.16	22127.28
575.358	22287.02
575.556	21764.79
575.754	22112.94
575.952	21752.5
576.151	22133.42
576.349	21684.92
576.547	21510.84
576.745	21942.96
576.943	21621.43
577.141	21600.95
577.339	21707.44
577.537	21576.37
577.735	21510.84
577.933	21256.89
578.131	21660.34
578.329	20792
578.527	21019.33
578.725	20892.35
578.923	20763.33
579.121	21048
579.319	20867.78
579.516	20937.41
579.714	20941.5
579.912	21060.29
580.11	20845.25
580.308	20875.97
580.506	20687.56
580.704	20591.3
580.901	20716.23
581.099	20710.08
581.297	20300.49
581.495	20085.45
581.692	20288.2
581.89	20159.18
582.088	20499.14
582.285	20406.98
582.483	20595.4
582.681	20007.63
582.878	19970.77
583.076	20050.64
583.274	20069.07
583.471	19835.6
583.669	19808.98
583.866	19854.03
584.064	19913.42
584.262	19587.8
584.459	19950.29
584.657	19565.27
584.854	19782.35
585.052	19413.72
585.249	19471.06
585.447	19534.55
585.644	19444.44
585.841	19096.28
586.039	19704.53
586.236	19241.69
586.434	19153.63
586.631	19120.86
586.828	19102.43
587.026	19096.28
587.223	19127
587.42	18946.78
587.618	18801.38
587.815	18850.53
588.012	18868.96
588.21	18741.99
588.407	18807.52
588.604	18660.07
588.801	18617.06
588.999	18651.88
589.196	18348.78
589.393	18377.45
589.59	18309.86
589.787	18332.39
589.984	18438.89
590.182	18154.22
590.379	17996.53
590.576	18258.67
590.773	18014.96
590.97	18133.74
591.167	17857.26
591.364	17898.22
591.561	17754.87
591.758	18088.68
591.955	17537.78
592.152	17670.9
592.349	17496.82
592.546	17824.5
592.743	18021.1
592.94	17359.61
593.137	17416.95
593.334	17662.71
593.531	17269.5
593.727	17453.81
593.924	17085.18
594.121	17343.22
594.318	17273.59
594.515	17007.36
594.712	17255.16
594.908	17066.75
595.105	16927.49
595.302	16794.37
595.499	16849.66
595.696	16915.2
595.892	16726.78
596.089	16872.19
596.286	16892.67
596.482	16575.24
596.679	16528.13
596.876	16808.7
597.072	16300.81
597.269	16528.13
597.466	16358.15
597.662	16329.48
597.859	16579.33
598.055	16438.02
598.252	16096.01
598.448	15995.66
598.645	16046.86
598.841	16034.57
599.038	16247.56
599.234	16218.89
599.431	16218.89
599.627	15905.55
599.824	16093.96
600.02	15987.47
600.217	15727.38
600.413	15678.22
600.609	15401.75
600.806	15723.28
601.002	15739.66
601.198	15358.74
601.395	15498
601.591	15371.03
601.787	15637.27
601.984	15303.45
602.18	15440.66
602.376	15399.7
602.572	15162.14
602.769	15213.34
602.965	15051.55
603.161	15207.19
603.357	14934.81
603.553	15211.29
603.75	15063.83
603.946	15004.44
604.142	14971.68
604.338	14605.09
604.534	14955.29
604.73	14545.7
604.926	14760.73
605.122	14615.33
605.318	14613.28
605.514	14687.01
605.71	14377.76
605.906	14379.81
606.102	14531.36
606.298	14547.75
606.494	14304.04
606.69	14394.15
606.886	14652.19
607.082	14334.76
607.278	14557.99
607.474	14101.29
607.67	14170.92
607.866	14191.4
608.062	14207.78
608.257	13892.4
608.453	14093.1
608.649	14113.58
608.845	13962.03
609.041	13804.33
609.236	14025.51
609.432	14056.23
609.628	14019.37
609.824	13794.09
610.019	13882.16
610.215	13794.09
610.411	13945.64
610.606	13808.43
610.802	13947.69
610.998	13667.12
611.193	13740.85
611.389	13611.82
611.584	13589.3
611.78	13519.67
611.976	13435.7
612.171	13638.45
612.367	13658.93
612.562	13456.18
612.758	13433.65
612.953	13450.03
613.149	13589.3
613.344	13404.98
613.539	13488.95
613.735	13318.96
613.93	13347.64
614.126	13165.37
614.321	13466.42
614.517	13210.42
614.712	13165.37
614.907	13026.11
615.103	13284.15
615.298	13173.56
615.493	13376.31
615.688	12966.71
615.884	13378.36
616.079	12788.54
616.274	13034.3
616.47	13200.18
616.665	13032.25
616.86	12825.4
617.055	12915.51
617.25	13099.83
617.445	12884.8
617.641	12659.52
617.836	13036.35
618.031	12688.19
618.226	12806.97
618.421	12755.77
618.616	12911.42
618.811	12495.68
619.006	12725.05
619.201	12540.74
619.396	12405.57
619.591	12112.71
619.786	12450.63
619.981	12303.17
620.176	12444.48
620.371	12229.45
620.566	12202.82
620.761	12376.9
620.956	12378.95
621.151	12116.81
621.346	12297.03
621.541	11832.14
621.735	12266.31
621.93	11670.35
622.125	11754.32
622.32	11651.92
622.515	11744.08
622.709	11633.49
622.904	11613.01
623.099	11463.51
623.294	11295.57
623.488	11180.89
623.683	11397.97
623.878	11004.76
624.072	11342.67
624.267	11365.2
624.462	10967.9
624.656	11045.72
624.851	11025.24
625.046	10746.72
625.24	10668.89
625.435	10660.7
625.629	10462.05
625.824	10550.11
626.018	10695.52
626.213	10599.26
626.407	10525.54
626.602	10445.66
626.796	10355.55
626.991	10492.77
627.185	10330.98
627.38	10240.87
627.574	10128.23
627.768	10189.67
627.963	9919.34
628.157	9945.96
628.352	10103.65
628.546	9724.78
628.74	9929.58
628.935	9628.53
629.129	9659.24
629.323	9843.56
629.517	9624.43
629.712	9427.82
629.906	9583.47
630.1	9507.69
630.294	9460.59
630.489	9472.88
630.683	9495.41
630.877	9442.16
631.071	9268.08
631.265	9141.11
631.459	9257.84
631.653	9270.13
631.848	8960.89
632.042	9087.86
632.236	9026.42
632.43	8969.08
632.624	8704.89
632.818	8995.7
633.012	8704.89
633.206	8764.28
633.4	8653.69
633.594	8674.17
633.788	8627.07
633.982	8663.93
634.176	8608.64
634.369	8457.09
634.563	8471.42
634.757	8395.65
634.951	8469.37
635.145	8387.46
635.339	8338.3
635.533	8170.37
635.726	8143.75
635.92	8143.75
636.114	8205.19
636.308	7986.05
636.501	7998.34
636.695	8104.84
636.889	7826.31
637.083	7867.27
637.276	7863.18
637.47	7693.19
637.664	7568.27
637.857	7707.53
638.051	7934.85
638.244	7658.38
638.438	7506.83
638.632	7480.21
638.825	7506.83
639.019	7392.14
639.212	7609.23
639.406	7392.14
639.599	7261.07
639.793	7332.75
639.986	7299.98
640.18	7146.39
640.373	7160.72
640.567	7441.29
640.76	7175.06
640.954	7224.21
641.147	7193.49
641.34	7060.37
641.534	7089.04
641.727	7043.99
641.92	7021.46
642.114	6802.33
642.307	6740.89
642.5	6814.62
642.694	6857.62
642.887	6683.55
643.08	6808.47
643.273	6720.41
643.467	6575
643.66	6445.98
643.853	6544.28
644.046	6417.31
644.239	6544.28
644.432	6581.15
644.626	6437.79
644.819	6294.43
645.012	6472.61
645.205	6495.13
645.398	6390.69
645.591	6216.61
645.784	6128.55
645.977	6097.83
646.17	6206.37
646.363	6044.58
646.556	6224.8
646.749	6077.35
646.942	5968.8
647.135	6050.72
647.328	5993.38
647.521	5954.47
647.714	5852.07
647.907	5913.51
648.099	5882.79
648.292	5964.71
648.485	5876.65
648.678	5696.43
648.871	5680.04
649.064	5714.86
649.256	5782.44
649.449	5774.25
649.642	5684.14
649.835	5653.42
650.027	5565.36
650.22	5647.27
650.413	5616.55
650.605	5495.72
650.798	5352.37
650.991	5305.26
651.183	5331.89
651.376	5315.5
651.568	5446.57
651.761	5350.32
651.954	5204.91
652.146	5211.06
652.339	5315.5
652.531	5270.45
652.724	5143.47
652.916	5151.67
653.109	5211.06
653.301	5145.52
653.494	5096.37
653.686	5125.04
653.879	4934.58
654.071	5100.47
654.263	5114.8
654.456	4873.14
654.648	4879.29
654.84	4893.62
655.033	4787.13
655.225	4846.52
655.417	4873.14
655.61	4856.76
655.802	4664.25
655.994	4668.34
656.186	4621.24
656.379	4758.46
656.571	4840.37
656.763	4467.64
656.955	4664.25
657.148	4651.96
657.34	4660.15
657.532	4459.45
657.724	4393.92
657.916	4357.05
658.108	4555.71
658.3	4324.29
658.492	4545.47
658.684	4391.87
658.876	4615.1
659.068	4318.14
659.26	4334.53
659.452	4309.95
659.644	4248.51
659.836	4303.81
660.028	4225.98
660.22	4193.22
660.412	4357.05
660.604	4250.56
660.796	4307.9
660.988	4109.25
661.18	4285.37
661.372	4135.87
661.563	4182.98
661.755	4043.71
661.947	4051.91
662.139	4160.45
662.331	4129.73
662.522	4031.43
662.714	4158.4
662.906	4086.72
663.097	4004.8
663.289	3742.66
663.481	3849.16
663.673	3804.1
663.864	3769.29
664.056	3810.25
664.247	3908.55
664.439	3840.97
664.631	3820.49
664.822	3963.84
665.014	3783.62
665.205	3609.54
665.397	3589.07
665.588	3713.99
665.78	3793.86
665.971	3857.35
666.163	3783.62
666.354	3722.18
666.546	3582.92
666.737	3640.26
666.929	3447.76
667.12	3654.6
667.311	3582.92
667.503	3554.25
667.694	3529.67
667.885	3584.97
668.077	3484.62
668.268	3537.87
668.459	3472.33
668.651	3566.54
668.842	3464.14
669.033	3408.84
669.224	3435.47
669.416	3464.14
669.607	3419.08
669.798	3328.97
669.989	3292.11
670.18	3197.9
670.371	3337.17
670.563	3269.58
670.754	3351.5
670.945	3439.56
671.136	3484.62
671.327	3296.21
671.518	3277.77
671.709	3326.93
671.9	3253.2
672.091	3263.44
672.282	3138.51
672.473	3238.86
672.664	3195.86
672.855	3085.26
673.046	3177.42
673.237	3156.94
673.428	3333.07
673.619	3210.19
673.809	3210.19
674	3087.31
674.191	3103.7
674.382	3079.12
674.573	3191.76
674.764	3062.74
674.954	3187.66
675.145	3038.16
675.336	2995.15
675.527	3056.59
675.717	2870.23
675.908	3007.44
676.099	2915.28
676.289	3040.21
676.48	3003.35
676.671	2976.72
676.861	2997.2
677.052	2923.48
677.243	2941.91
677.433	2919.38
677.624	2958.29
677.814	2972.63
678.005	2946
678.195	2972.63
678.386	2868.18
678.576	2999.25
678.767	2911.19
678.957	2907.09
679.148	2978.77
679.338	2866.13
679.529	2841.56
679.719	2776.02
679.909	2862.04
680.1	2870.23
680.29	2859.99
680.481	2876.37
680.671	2843.6
680.861	2718.68
681.052	2984.91
681.242	2706.39
681.432	2884.56
681.622	2718.68
681.813	2773.97
682.003	2819.03
682.193	2720.73
682.383	2808.79
682.573	2714.58
682.764	2933.72
682.954	2876.37
683.144	2866.13
683.334	2784.21
683.524	2755.54
683.714	2761.69
683.904	2788.31
684.094	2716.63
684.284	2712.53
684.474	2761.69
684.664	2591.7
684.854	2784.21
685.044	2712.53
685.234	2661.34
685.424	2642.9
685.614	2579.42
685.804	2735.06
685.994	2651.1
686.184	2597.85
686.374	2540.51
686.564	2595.8
686.753	2649.05
686.943	2622.42
687.133	2630.62
687.323	2493.4
687.513	2614.23
687.702	2552.79
687.892	2552.79
688.082	2460.63
688.272	2511.83
688.461	2511.83
688.651	2608.09
688.841	2495.45
689.03	2530.27
689.22	2417.63
689.41	2483.16
689.599	2481.11
689.789	2440.15
689.979	2524.12
690.168	2403.29
690.358	2436.06
690.547	2282.46
690.737	2393.05
690.926	2397.15
691.116	2374.62
691.305	2393.05
691.495	2239.45
691.684	2343.9
691.874	2298.84
692.063	2311.13
692.252	2229.21
692.442	2325.47
692.631	2325.47
692.82	2300.89
693.01	2259.93
693.199	2227.17
693.388	2350.04
693.578	2137.06
693.767	2249.69
693.956	2208.73
694.146	2184.16
694.335	2280.41
694.524	2294.75
694.713	2239.45
694.902	2278.37
695.092	2161.63
695.281	2239.45
695.47	2135.01
695.659	2206.69
695.848	2130.91
696.037	2227.17
696.226	2069.47
696.415	2122.72
696.604	2157.54
696.793	2071.52
696.982	2188.25
697.171	2098.14
697.36	2137.06
697.549	2051.04
697.738	2092
697.927	2153.44
698.116	2153.44
698.305	2100.19
698.494	2145.25
698.683	2003.94
698.872	2153.44
699.061	2087.9
699.25	2114.53
699.438	2026.47
699.627	2071.52
699.816	2149.34
700.005	2139.1
700.193	2081.76
700.382	1989.6
700.571	2118.62
700.76	2073.57
700.948	2075.62
701.137	2079.71
701.326	2114.53
701.514	1958.88
701.703	2079.71
701.892	2059.23
702.08	2046.94
702.269	2061.28
702.457	2083.81
702.646	2063.33
702.834	2014.18
703.023	1899.49
703.212	2022.37
703.4	1969.12
703.589	2067.42
703.777	1965.03
703.965	1983.46
704.154	2069.47
704.342	2141.15
704.531	1989.6
704.719	1977.31
704.907	1952.74
705.096	1999.84
705.284	2055.14
705.472	1952.74
705.661	1930.21
705.849	1999.84
706.037	2026.47
706.226	2055.14
706.414	2008.03
706.602	2036.7
706.79	2055.14
706.979	1917.92
707.167	2010.08
707.355	1987.55
707.543	1991.65
707.731	1997.79
707.919	2014.18
708.107	1909.73
708.296	1993.7
708.484	1932.26
708.672	1919.97
708.86	2051.04
709.048	1899.49
709.236	1981.41
709.424	2059.23
709.612	1981.41
709.8	1981.41
709.988	1897.44
710.176	1946.59
710.364	2016.23
710.551	1950.69
710.739	1883.11
710.927	1940.45
711.115	1924.07
711.303	2034.66
711.491	2022.37
711.679	1876.96
711.866	1917.92
712.054	1977.31
712.242	1891.3
712.43	1999.84
712.617	2048.99
712.805	2022.37
712.993	1907.68
713.181	1907.68
713.368	1926.11
713.556	1827.81
713.744	1946.59
713.931	1997.79
714.119	1926.11
714.306	1971.17
714.494	1844.2
714.682	1893.35
714.869	1930.21
715.057	2005.99
715.244	1907.68
715.432	1909.73
715.619	1965.03
715.807	1983.46
715.994	1991.65
716.182	1940.45
716.369	1903.59
716.556	2005.99
716.744	1956.83
716.931	1926.11
717.119	1965.03
717.306	1981.41
717.493	1885.16
717.681	1903.59
717.868	1915.87
718.055	2022.37
718.242	1991.65
718.43	1960.93
718.617	1936.35
718.804	2010.08
718.991	1948.64
719.179	1936.35
719.366	1905.63
719.553	1967.07
719.74	1838.05
719.927	1825.76
720.114	2051.04
720.301	1862.63
720.488	1846.24
720.676	2005.99
720.863	1973.22
721.05	1967.07
721.237	1922.02
721.424	1934.31
721.611	1950.69
721.798	1917.92
721.985	1868.77
722.172	1780.71
722.358	1942.5
722.545	1911.78
722.732	1813.48
722.919	1985.51
723.106	1950.69
723.293	1930.21
723.48	1989.6
723.667	1795.04
723.853	1917.92
724.04	1948.64
724.227	1909.73
724.414	1991.65
724.6	1934.31
724.787	1780.71
724.974	1811.43
725.161	1850.34
725.347	1870.82
725.534	1848.29
725.72	1983.46
725.907	1858.53
726.094	1942.5
726.28	1952.74
726.467	1911.78
726.653	1836
726.84	1919.97
727.027	1971.17
727.213	1956.83
727.4	1862.63
727.586	1915.87
727.773	1858.53
727.959	1883.11
728.145	1919.97
728.332	1967.07
728.518	1842.15
728.705	1956.83
728.891	1829.86
729.077	1895.4
729.264	1956.83
729.45	1811.43
729.636	1829.86
729.823	1793
730.009	1905.63
730.195	1975.27
730.382	1772.52
730.568	1860.58
730.754	1915.87
730.94	1917.92
731.126	1876.96
731.313	1874.92
731.499	1928.16
731.685	1891.3
731.871	1735.65
732.057	1911.78
732.243	1940.45
732.429	1956.83
732.615	1934.31
732.801	1827.81
732.987	1926.11
733.173	1817.57
733.359	1829.86
733.545	1950.69
733.731	1860.58
733.917	1876.96
734.103	1922.02
734.289	1881.06
734.475	1907.68
734.661	1885.16
734.847	1879.01
735.033	1770.47
735.219	1784.8
735.404	1799.14
735.59	1801.19
735.776	1852.39
735.962	1774.56
736.148	1803.24
736.333	1772.52
736.519	1885.16
736.705	1852.39
736.89	1846.24
737.076	1762.28
737.262	1838.05
737.447	1821.67
737.633	1805.28
737.819	1688.55
738.004	1752.04
738.19	1860.58
738.375	1756.13
738.561	1801.19
738.747	1817.57
738.932	1899.49
739.118	1799.14
739.303	1790.95
739.489	1733.61
739.674	1721.32
739.859	1684.45
740.045	1731.56
740.23	1721.32
740.416	1663.97
740.601	1752.04
740.786	1702.89
740.972	1637.35
741.157	1700.84
741.342	1678.31
741.528	1790.95
741.713	1762.28
741.898	1743.85
742.084	1649.64
742.269	1745.89
742.454	1647.59
742.639	1717.22
742.824	1598.44
743.01	1657.83
743.195	1602.54
743.38	1803.24
743.565	1623.02
743.75	1653.73
743.935	1631.21
744.12	1688.55
744.305	1567.72
744.49	1670.12
744.675	1639.4
744.86	1582.06
745.045	1563.62
745.23	1625.06
745.415	1674.21
745.6	1555.43
745.785	1547.24
745.97	1555.43
746.155	1629.16
746.34	1541.1
746.525	1543.14
746.71	1588.2
746.895	1434.6
747.079	1416.17
747.264	1469.42
747.449	1516.52
747.634	1557.48
747.819	1563.62
748.003	1434.6
748.188	1479.66
748.373	1485.8
748.557	1561.58
748.742	1424.36
748.927	1485.8
749.111	1391.59
749.296	1381.35
749.481	1379.31
749.665	1399.79
749.85	1338.35
750.034	1403.88
750.219	1385.45
750.404	1295.34
750.588	1373.16
750.773	1375.21
750.957	1332.2
751.141	1399.79
751.326	1367.02
751.51	1178.61
751.695	1321.96
751.879	1352.68
752.064	1293.29
752.248	1309.68
752.432	1244.14
752.617	1227.76
752.801	1278.96
752.985	1281
753.17	1227.76
753.354	1242.09
753.538	1266.67
753.722	1151.98
753.907	1219.57
754.091	1186.8
754.275	1281
754.459	1121.26
754.643	1235.95
754.828	1201.13
755.012	1197.04
755.196	1104.88
755.38	1158.13
755.564	1055.73
755.748	1125.36
755.932	1074.16
756.116	1117.17
756.3	1010.67
756.484	1170.41
756.668	1074.16
756.852	1063.92
757.036	1072.11
757.22	1065.97
757.404	1074.16
757.588	977.91
757.772	1106.93
757.956	977.91
758.14	994.29
758.323	951.28
758.507	1080.3
758.691	994.29
758.875	1006.58
759.059	965.62
759.242	898.03
759.426	994.29
759.61	918.51
759.794	971.76
759.977	1033.2
760.161	994.29
760.345	922.61
760.528	883.7
760.712	850.93
760.895	963.57
761.079	924.66
761.263	879.6
761.446	963.57
761.63	871.41
761.813	936.95
761.997	869.36
762.18	816.12
762.364	861.17
762.547	728.05
762.731	869.36
762.914	920.56
763.098	850.93
763.281	883.7
763.464	844.79
763.648	869.36
763.831	883.7
764.015	781.3
764.198	812.02
764.381	867.31
764.564	797.68
764.748	807.92
764.931	805.88
765.114	834.55
765.297	787.44
765.481	826.36
765.664	834.55
765.847	834.55
766.03	764.92
766.213	781.3
766.397	732.15
766.58	799.73
766.763	723.96
766.946	756.72
767.129	746.48
767.312	738.29
767.495	789.49
767.678	736.24
767.861	785.4
768.044	680.95
768.227	779.25
768.41	750.58
768.593	791.54
768.776	756.72
768.959	809.97
769.142	703.48
769.324	656.37
769.507	672.76
769.69	689.14
769.873	793.59
770.056	705.53
770.239	721.91
770.421	680.95
770.604	809.97
770.787	631.8
770.97	719.86
771.152	695.29
771.335	668.66
771.518	607.22
771.7	775.16
771.883	697.33
772.066	629.75
772.248	687.09
772.431	705.53
772.613	695.29
772.796	683
772.978	586.74
773.161	695.29
773.343	646.13
773.526	666.61
773.708	566.26
773.891	578.55
774.073	594.93
774.256	605.17
774.438	678.9
774.621	588.79
774.803	658.42
774.985	639.99
775.168	596.98
775.35	615.41
775.532	654.33
775.715	578.55
775.897	482.3
776.079	594.93
776.261	574.46
776.444	588.79
776.626	539.64
776.808	543.74
776.99	490.49
777.173	646.13
777.355	580.6
777.537	625.65
777.719	531.45
777.901	644.09
778.083	416.76
778.265	492.54
778.447	613.37
778.629	517.11
778.811	484.34
778.993	543.74
779.175	486.39
779.357	525.3
779.539	490.49
779.721	408.57
779.903	539.64
780.085	508.92
780.267	533.5
780.449	476.15
780.631	435.19
780.812	486.39
780.994	427
781.176	498.68
781.358	459.77
781.54	443.39
781.721	465.91
781.903	490.49
782.085	408.57
782.267	467.96
782.448	449.53
782.63	513.02
782.812	402.43
782.993	410.62
783.175	437.24
783.357	404.47
783.538	506.87
783.72	437.24
783.901	433.15
784.083	388.09
784.264	424.95
784.446	383.99
784.627	318.46
784.809	388.09
784.99	297.98
785.172	427
785.353	408.57
785.535	416.76
785.716	416.76
785.897	412.67
786.079	424.95
786.26	295.93
786.441	398.33
786.623	351.23
786.804	400.38
786.985	437.24
787.167	347.13
787.348	377.85
787.529	324.6
787.71	334.84
787.891	351.23
788.073	359.42
788.254	293.88
788.435	324.6
788.616	386.04
788.797	340.99
788.978	343.03
789.159	250.88
789.34	388.09
789.522	326.65
789.703	320.51
789.884	336.89
790.065	334.84
790.246	328.7
790.427	285.69
790.607	373.75
790.788	375.8
790.969	254.97
791.15	310.27
791.331	271.36
791.512	257.02
791.693	277.5
791.874	263.16
792.054	371.71
792.235	263.16
792.416	369.66
792.597	209.92
792.778	304.12
792.958	285.69
793.139	254.97
793.32	265.21
793.5	261.12
793.681	302.08
793.862	228.35
794.042	275.45
794.223	166.91
794.404	265.21
794.584	293.88
794.765	175.1
794.945	252.92
795.126	287.74
795.306	306.17
795.487	244.73
795.667	261.12
795.848	269.31
796.028	310.27
796.209	261.12
796.389	326.65
796.57	261.12
796.75	222.2
796.93	195.58
797.111	302.08
797.291	203.77
797.471	310.27
797.652	297.98
797.832	279.55
798.012	246.78
798.192	211.96
798.373	154.62
798.553	269.31
798.733	164.86
798.913	209.92
799.093	191.49
799.274	246.78
799.454	285.69
799.634	216.06
799.814	261.12
799.994	228.35
800.174	259.07
800.354	203.77
800.534	248.83
800.714	228.35
800.894	171.01
801.074	130.05
801.254	230.4
801.434	257.02
801.614	214.01
801.794	211.96
801.974	789.49
802.154	203.77
802.334	203.77
802.514	158.72
802.693	244.73
802.873	154.62
803.053	173.05
803.233	148.48
803.413	164.86
803.592	205.82
803.772	181.25
803.952	232.44
804.131	117.76
804.311	226.3
804.491	154.62
804.67	189.44
804.85	164.86
805.03	224.25
805.209	248.83
805.389	197.63
805.568	211.96
805.748	187.39
805.928	138.24
806.107	179.2
806.287	154.62
806.466	228.35
806.646	150.53
806.825	179.2
807.004	173.05
807.184	171.01
807.363	224.25
807.543	156.67
807.722	111.61
807.901	154.62
808.081	273.4
808.26	93.18
808.439	181.25
808.619	146.43
808.798	209.92
808.977	205.82
809.156	156.67
809.336	125.95
809.515	148.48
809.694	156.67
809.873	166.91
810.052	226.3
810.231	175.1
810.411	179.2
810.59	240.64
810.769	181.25
810.948	230.4
811.127	138.24
811.306	144.38
811.485	164.86
811.664	211.96
811.843	150.53
812.022	134.14
812.201	103.42
812.38	128
812.559	142.33
812.737	183.29
812.916	146.43
813.095	154.62
813.274	138.24
813.453	132.09
813.632	152.57
813.811	134.14
813.989	138.24
814.168	142.33
814.347	123.9
814.526	166.91
814.704	205.82
814.883	171.01
815.062	107.52
815.24	99.33
815.419	148.48
815.598	134.14
815.776	107.52
815.955	175.1
816.133	64.51
816.312	171.01
816.49	97.28
816.669	168.96
816.847	105.47
817.026	123.9
817.204	97.28
817.383	117.76
817.561	46.08
817.74	195.58
817.918	138.24
818.097	105.47
818.275	130.05
818.453	146.43
818.632	128
818.81	154.62
818.988	123.9
819.167	138.24
819.345	70.65
819.523	162.81
819.701	134.14
819.879	119.81
820.058	171.01
820.236	95.23
820.414	99.33
820.592	46.08
820.77	80.89
820.948	121.85
821.127	132.09
821.305	154.62
821.483	109.57
821.661	89.09
821.839	64.51
822.017	80.89
822.195	37.89
822.373	173.05
822.551	117.76
822.729	136.19
822.907	99.33
823.085	115.71
823.262	11.26
823.44	107.52
823.618	95.23
823.796	97.28
823.974	80.89
824.152	89.09
824.329	80.89
824.507	144.38
824.685	29.7
824.863	107.52
825.04	60.42
825.218	107.52
825.396	121.85
825.574	60.42
825.751	132.09
825.929	138.24
826.107	17.41
826.284	154.62
826.462	107.52
826.639	89.09
826.817	72.7
826.994	128
827.172	89.09
827.349	158.72
827.527	89.09
827.704	70.65
827.882	103.42
828.059	91.13
828.237	115.71
828.414	72.7
828.591	68.61
828.769	64.51
828.946	80.89
829.124	150.53
829.301	105.47
829.478	48.13
829.655	132.09
829.833	48.13
830.01	76.8
830.187	70.65
830.364	130.05
830.542	56.32
830.719	207.87
830.896	99.33
831.073	97.28
831.25	91.13
831.427	154.62
831.604	74.75
831.782	99.33
831.959	158.72
832.136	60.42
832.313	93.18
832.49	78.85
832.667	113.66
832.844	37.89
833.021	123.9
833.198	31.74
833.374	82.94
833.551	97.28
833.728	56.32
833.905	173.05
834.082	66.56
834.259	93.18
834.436	89.09
834.612	25.6
834.789	29.7
834.966	41.98
835.143	89.09
835.319	37.89
835.496	60.42
835.673	107.52
835.85	82.94
836.026	130.05
836.203	132.09
836.38	58.37
836.556	52.22
836.733	35.84
836.909	56.32
837.086	91.13
837.262	48.13
837.439	11.26
837.616	64.51
837.792	19.46
837.968	84.99
838.145	1.02
838.321	11.26
838.498	56.32
838.674	160.77
838.851	23.55
839.027	52.22
839.203	17.41
839.38	121.85
839.556	48.13
839.732	132.09
839.909	105.47
840.085	82.94
840.261	31.74
840.437	21.5
840.614	80.89
840.79	97.28
840.966	17.41
841.142	82.94
841.318	97.28
841.494	82.94
841.671	113.66
841.847	46.08
842.023	84.99
842.199	99.33
842.375	52.22
842.551	11.26
842.727	-5.12
842.903	84.99
843.079	84.99
843.255	107.52
843.431	91.13
843.607	60.42
843.783	-11.26
843.959	93.18
844.134	52.22
844.31	105.47
844.486	-5.12
844.662	78.85
844.838	87.04
845.013	95.23
845.189	117.76
845.365	158.72
845.541	117.76
845.716	50.18
845.892	44.03
846.068	105.47
846.244	93.18
846.419	89.09
846.595	-11.26
846.77	64.51
846.946	109.57
847.122	89.09
847.297	13.31
847.473	175.1
847.648	72.7
847.824	15.36
847.999	31.74
848.175	58.37
848.35	62.46
848.526	39.94
848.701	62.46
848.876	125.95
849.052	64.51
849.227	15.36
849.403	15.36
849.578	99.33
849.753	52.22
849.929	48.13
850.104	46.08
850.279	105.47
850.454	15.36
850.63	101.37
850.805	39.94
850.98	23.55
851.155	44.03
851.33	107.52
851.505	68.61
851.681	103.42
851.856	-33.79
852.031	76.8
852.206	19.46
852.381	-25.6
852.556	44.03
852.731	113.66
852.906	74.75
853.081	33.79
853.256	103.42
853.431	107.52
853.606	82.94
853.781	80.89
853.956	-82.94
854.131	-9.22
854.305	66.56
854.48	56.32
854.655	48.13
854.83	48.13
855.005	27.65
855.18	101.37
855.354	56.32
855.529	64.51
855.704	109.57
855.879	46.08
856.053	3.07
856.228	80.89
856.403	15.36
856.577	84.99
856.752	74.75
856.926	60.42
857.101	25.6
857.276	99.33
857.45	-7.17
857.625	138.24
857.799	-48.13
857.974	72.7
858.148	-25.6
858.323	33.79
858.497	80.89
858.672	19.46
858.846	80.89
859.02	99.33
859.195	23.55
859.369	80.89
859.543	97.28
859.718	64.51
859.892	11.26
860.066	89.09
860.241	-9.22
860.415	41.98
860.589	80.89
860.763	-17.41
860.938	56.32
861.112	33.79
861.286	105.47
861.46	15.36
861.634	31.74
861.808	11.26
861.982	64.51
862.157	72.7
862.331	3.07
862.505	27.65
862.679	23.55
862.853	72.7
863.027	31.74
863.201	97.28
863.375	64.51
863.549	78.85
863.722	-17.41
863.896	76.8
864.07	44.03
864.244	64.51
864.418	33.79
864.592	15.36
864.766	15.36
864.939	29.7
865.113	19.46
865.287	11.26
865.461	46.08
865.634	70.65
865.808	27.65
865.982	80.89
866.156	-9.22
866.329	-27.65
866.503	130.05
866.676	97.28
866.85	52.22
867.024	58.37
867.197	84.99
867.371	56.32
867.544	82.94
867.718	-9.22
867.891	11.26
868.065	97.28
868.238	64.51
868.412	109.57
868.585	23.55
868.759	48.13
868.932	-23.55
869.105	7.17
869.279	19.46
869.452	80.89
869.625	64.51
869.799	23.55
869.972	-15.36
870.145	25.6
870.319	64.51
870.492	-31.74
870.665	15.36
870.838	60.42
871.011	9.22
871.185	-39.94
871.358	56.32
871.531	50.18
871.704	3.07
871.877	37.89
872.05	-39.94
872.223	-13.31
872.396	31.74
872.569	97.28
872.742	50.18
872.915	-1.02
873.088	5.12
873.261	15.36
873.434	87.04
873.607	109.57
873.78	84.99
873.953	1.02
874.126	31.74
874.299	39.94
874.471	93.18
874.644	48.13
874.817	5.12
874.99	97.28
875.163	82.94
875.335	39.94
875.508	44.03
875.681	54.27
875.853	115.71
876.026	15.36
876.199	-5.12
876.371	7.17
876.544	58.37
876.717	25.6
876.889	89.09
877.062	-17.41
877.234	15.36
877.407	7.17
877.579	-5.12
877.752	44.03
877.924	15.36
878.097	15.36
878.269	31.74
878.442	121.85
878.614	44.03
878.786	19.46
878.959	68.61
879.131	11.26
879.303	25.6
879.476	-48.13
879.648	82.94
879.82	48.13
879.993	54.27
880.165	23.55
880.337	-25.6
880.509	-25.6
880.681	-25.6
880.854	23.55
881.026	31.74
881.198	154.62
881.37	1.02
881.542	41.98
881.714	-27.65
881.886	52.22
882.058	39.94
882.23	7.17
882.402	-35.84
882.574	19.46
882.746	80.89
882.918	76.8
883.09	35.84
883.262	5.12
883.434	23.55
883.606	-17.41
883.778	39.94
883.95	25.6
884.122	-11.26
884.293	11.26
884.465	-19.46
884.637	60.42
884.809	-17.41
884.98	74.75
885.152	17.41
885.324	74.75
885.496	29.7
885.667	62.46
885.839	17.41
886.011	91.13
886.182	-3.07
886.354	35.84
886.525	70.65
886.697	7.17
886.869	23.55
887.04	54.27
887.212	44.03
887.383	58.37
887.555	44.03
887.726	60.42
887.897	41.98
888.069	27.65
888.24	41.98
888.412	35.84
888.583	31.74
888.754	7.17
888.926	-41.98
889.097	39.94
889.268	-89.09
889.44	-7.17
889.611	-15.36
889.782	35.84
889.953	3.07
890.125	72.7
890.296	25.6
890.467	17.41
890.638	64.51
890.809	66.56
890.98	-9.22
891.151	7.17
891.323	-21.5
891.494	50.18
891.665	68.61
891.836	111.61
892.007	15.36
892.178	-31.74
892.349	52.22
892.52	1.02
892.691	15.36
892.862	-13.31
893.032	-1.02
893.203	-29.7
893.374	-3.07
893.545	21.5
893.716	-9.22
893.887	23.55
894.057	31.74
894.228	64.51
894.399	15.36
894.57	101.37
894.74	82.94
894.911	-41.98
895.082	-9.22
895.253	39.94
895.423	64.51
895.594	33.79
895.764	23.55
895.935	-1.02
896.106	-64.51
896.276	-33.79
896.447	46.08
896.617	9.22
896.788	-68.61
896.958	64.51
897.129	-33.79
897.299	-33.79
897.47	37.89
897.64	66.56
897.81	-17.41
897.981	72.7
898.151	19.46
898.322	17.41
898.492	39.94
898.662	7.17
898.832	-1.02
899.003	5.12
899.173	109.57
899.343	19.46
899.513	60.42
