Data from USB4F104151__186__14-20-18-631.txt Node

Date: Thu Mar 13 14:20:18 EDT 2025
User: louis
Spectrometer: USB4F10415
Trigger mode: 4
Integration Time (sec): 2.000000E-2
Scans to average: 1
Electric dark correction enabled: true
Nonlinearity correction enabled: false
Boxcar width: 0
XAxis mode: Wavelengths
Number of Pixels in Spectrum: 3648
>>>>>Begin Spectral Data<<<<<
178.204	-63.15
178.424	-63.15
178.644	-63.15
178.864	-134.82
179.084	-54.95
179.304	31.06
179.524	-24.23
179.744	4.44
179.964	57.68
180.184	33.11
180.404	-13.99
180.624	-9.9
180.844	-79.53
181.064	-42.67
181.283	35.16
181.503	-13.99
181.723	22.87
181.943	-11.95
182.163	72.02
182.383	8.53
182.602	110.93
182.822	-18.09
183.042	-13.99
183.262	-26.28
183.482	0.34
183.701	2.39
183.921	6.49
184.141	-30.38
184.361	69.97
184.58	24.92
184.8	-1.71
185.02	47.44
185.239	41.3
185.459	10.58
185.679	55.64
185.898	2.39
186.118	63.83
186.338	69.97
186.557	0.34
186.777	41.3
186.997	-24.23
187.216	8.53
187.436	51.54
187.655	31.06
187.875	76.12
188.095	-75.43
188.314	59.73
188.534	94.55
188.753	59.73
188.973	-1.71
189.192	24.92
189.412	16.73
189.631	31.06
189.851	72.02
190.07	43.35
190.29	53.59
190.509	24.92
190.729	24.92
190.948	139.6
191.168	162.13
191.387	16.73
191.607	-46.76
191.826	8.53
192.045	47.44
192.265	24.92
192.484	-18.09
192.704	39.25
192.923	8.53
193.142	59.73
193.362	88.4
193.581	115.03
193.8	69.97
194.02	43.35
194.239	49.49
194.458	-32.43
194.678	-16.04
194.897	63.83
195.116	43.35
195.335	31.06
195.555	2.39
195.774	6.49
195.993	100.69
196.212	90.45
196.432	43.35
196.651	72.02
196.87	51.54
197.089	80.21
197.308	-16.04
197.528	4.44
197.747	49.49
197.966	55.64
198.185	104.79
198.404	10.58
198.623	24.92
198.842	49.49
199.062	72.02
199.281	76.12
199.5	-40.62
199.719	41.3
199.938	-5.8
200.157	33.11
200.376	63.83
200.595	61.78
200.814	6.49
201.033	47.44
201.252	43.35
201.471	37.2
201.69	-34.47
201.909	31.06
202.128	88.4
202.347	-16.04
202.566	35.16
202.785	-11.95
203.004	33.11
203.223	41.3
203.442	14.68
203.661	33.11
203.879	65.88
204.098	57.68
204.317	-24.23
204.536	39.25
204.755	78.16
204.974	74.07
205.193	16.73
205.411	129.36
205.63	29.01
205.849	16.73
206.068	63.83
206.287	51.54
206.505	82.26
206.724	-26.28
206.943	12.63
207.162	125.27
207.381	78.16
207.599	33.11
207.818	33.11
208.037	35.16
208.255	49.49
208.474	22.87
208.693	69.97
208.911	22.87
209.13	31.06
209.349	96.6
209.567	8.53
209.786	72.02
210.005	0.34
210.223	26.96
210.442	47.44
210.661	-1.71
210.879	74.07
211.098	112.98
211.316	31.06
211.535	92.5
211.753	2.39
211.972	0.34
212.191	31.06
212.409	12.63
212.628	8.53
212.846	-18.09
213.065	33.11
213.283	63.83
213.502	57.68
213.72	-1.71
213.938	63.83
214.157	22.87
214.375	-91.82
214.594	39.25
214.812	65.88
215.031	-18.09
215.249	96.6
215.467	26.96
215.686	47.44
215.904	84.31
216.122	37.2
216.341	57.68
216.559	31.06
216.778	47.44
216.996	55.64
217.214	35.16
217.432	6.49
217.651	-22.19
217.869	-75.43
218.087	33.11
218.306	4.44
218.524	67.92
218.742	-16.04
218.96	57.68
219.179	31.06
219.397	14.68
219.615	51.54
219.833	22.87
220.051	29.01
220.27	33.11
220.488	49.49
220.706	24.92
220.924	-1.71
221.142	10.58
221.36	-7.85
221.578	63.83
221.796	18.77
222.015	80.21
222.233	57.68
222.451	65.88
222.669	33.11
222.887	63.83
223.105	22.87
223.323	20.82
223.541	4.44
223.759	121.17
223.977	-7.85
224.195	51.54
224.413	51.54
224.631	110.93
224.849	41.3
225.067	47.44
225.285	4.44
225.503	55.64
225.721	43.35
225.939	61.78
226.157	63.83
226.375	94.55
226.592	-30.38
226.81	20.82
227.028	72.02
227.246	51.54
227.464	51.54
227.682	49.49
227.9	92.5
228.117	14.68
228.335	49.49
228.553	-22.19
228.771	16.73
228.989	104.79
229.206	6.49
229.424	69.97
229.642	10.58
229.86	39.25
230.077	10.58
230.295	14.68
230.513	-9.9
230.731	57.68
230.948	65.88
231.166	76.12
231.384	37.2
231.601	24.92
231.819	43.35
232.037	35.16
232.254	43.35
232.472	18.77
232.689	49.49
232.907	35.16
233.125	24.92
233.342	-16.04
233.56	14.68
233.777	-16.04
233.995	80.21
234.213	6.49
234.43	41.3
234.648	35.16
234.865	24.92
235.083	55.64
235.3	14.68
235.518	18.77
235.735	51.54
235.953	104.79
236.17	14.68
236.388	-22.19
236.605	53.59
236.822	182.61
237.04	104.79
237.257	43.35
237.475	31.06
237.692	26.96
237.909	-44.71
238.127	14.68
238.344	63.83
238.562	112.98
238.779	-54.95
238.996	29.01
239.214	2.39
239.431	98.64
239.648	57.68
239.865	110.93
240.083	31.06
240.3	39.25
240.517	18.77
240.735	-18.09
240.952	22.87
241.169	0.34
241.386	-1.71
241.603	31.06
241.821	14.68
242.038	104.79
242.255	139.6
242.472	-26.28
242.689	63.83
242.907	22.87
243.124	55.64
243.341	78.16
243.558	-1.71
243.775	-54.95
243.992	-50.86
244.209	112.98
244.426	96.6
244.643	84.31
244.86	-22.19
245.078	18.77
245.295	82.26
245.512	16.73
245.729	-16.04
245.946	63.83
246.163	125.27
246.38	18.77
246.597	0.34
246.814	10.58
247.031	57.68
247.248	108.88
247.464	31.06
247.681	6.49
247.898	55.64
248.115	31.06
248.332	2.39
248.549	55.64
248.766	106.84
248.983	14.68
249.2	-3.75
249.417	65.88
249.633	-9.9
249.85	63.83
250.067	31.06
250.284	-46.76
250.501	80.21
250.717	-13.99
250.934	22.87
251.151	-16.04
251.368	47.44
251.585	-61.1
251.801	59.73
252.018	45.4
252.235	59.73
252.451	-9.9
252.668	-50.86
252.885	49.49
253.102	67.92
253.318	-32.43
253.535	6.49
253.752	22.87
253.968	31.06
254.185	-34.47
254.401	-34.47
254.618	14.68
254.835	10.58
255.051	80.21
255.268	22.87
255.484	39.25
255.701	16.73
255.917	47.44
256.134	14.68
256.351	35.16
256.567	0.34
256.784	31.06
257	55.64
257.217	22.87
257.433	96.6
257.65	63.83
257.866	-7.85
258.082	-5.8
258.299	74.07
258.515	14.68
258.732	-32.43
258.948	20.82
259.165	55.64
259.381	-48.81
259.597	86.36
259.814	94.55
260.03	57.68
260.246	155.99
260.463	88.4
260.679	63.83
260.895	55.64
261.112	51.54
261.328	2.39
261.544	80.21
261.761	88.4
261.977	-20.14
262.193	31.06
262.409	-38.57
262.626	33.11
262.842	94.55
263.058	33.11
263.274	61.78
263.49	-1.71
263.707	96.6
263.923	49.49
264.139	6.49
264.355	-7.85
264.571	88.4
264.787	47.44
265.004	63.83
265.22	-5.8
265.436	41.3
265.652	55.64
265.868	53.59
266.084	37.2
266.3	8.53
266.516	-73.39
266.732	-5.8
266.948	47.44
267.164	41.3
267.38	41.3
267.596	80.21
267.812	61.78
268.028	41.3
268.244	-32.43
268.46	84.31
268.676	-13.99
268.892	4.44
269.108	-34.47
269.324	76.12
269.54	-22.19
269.756	53.59
269.972	74.07
270.188	65.88
270.403	63.83
270.619	55.64
270.835	86.36
271.051	16.73
271.267	14.68
271.483	43.35
271.698	-34.47
271.914	49.49
272.13	98.64
272.346	33.11
272.562	-7.85
272.777	96.6
272.993	72.02
273.209	41.3
273.425	10.58
273.64	67.92
273.856	100.69
274.072	35.16
274.287	-9.9
274.503	2.39
274.719	-16.04
274.934	-5.8
275.15	59.73
275.366	26.96
275.581	26.96
275.797	96.6
276.012	53.59
276.228	-18.09
276.444	41.3
276.659	74.07
276.875	-1.71
277.09	57.68
277.306	-28.33
277.521	82.26
277.737	53.59
277.952	104.79
278.168	39.25
278.383	110.93
278.599	76.12
278.814	74.07
279.03	-1.71
279.245	176.47
279.461	-16.04
279.676	37.2
279.892	-34.47
280.107	10.58
280.322	18.77
280.538	59.73
280.753	104.79
280.969	63.83
281.184	-7.85
281.399	96.6
281.615	-5.8
281.83	0.34
282.045	41.3
282.26	55.64
282.476	47.44
282.691	102.74
282.906	-9.9
283.122	88.4
283.337	-42.67
283.552	106.84
283.767	2.39
283.983	6.49
284.198	63.83
284.413	74.07
284.628	-22.19
284.843	12.63
285.058	47.44
285.274	-18.09
285.489	-67.24
285.704	8.53
285.919	55.64
286.134	47.44
286.349	55.64
286.564	35.16
286.779	86.36
286.995	72.02
287.21	31.06
287.425	-1.71
287.64	18.77
287.855	106.84
288.07	39.25
288.285	141.65
288.5	57.68
288.715	8.53
288.93	14.68
289.145	55.64
289.36	22.87
289.575	100.69
289.79	2.39
290.004	-1.71
290.219	16.73
290.434	74.07
290.649	-24.23
290.864	20.82
291.079	49.49
291.294	80.21
291.509	39.25
291.724	41.3
291.938	-1.71
292.153	57.68
292.368	-9.9
292.583	55.64
292.798	26.96
293.012	22.87
293.227	24.92
293.442	96.6
293.657	31.06
293.871	76.12
294.086	125.27
294.301	141.65
294.516	100.69
294.73	39.25
294.945	43.35
295.16	35.16
295.374	69.97
295.589	65.88
295.804	-5.8
296.018	80.21
296.233	59.73
296.447	14.68
296.662	-42.67
296.877	90.45
297.091	72.02
297.306	65.88
297.52	51.54
297.735	-18.09
297.949	72.02
298.164	96.6
298.378	-13.99
298.593	6.49
298.807	57.68
299.022	16.73
299.236	63.83
299.451	31.06
299.665	33.11
299.88	104.79
300.094	10.58
300.309	22.87
300.523	41.3
300.737	49.49
300.952	88.4
301.166	55.64
301.381	59.73
301.595	131.41
301.809	74.07
302.024	55.64
302.238	-61.1
302.452	0.34
302.667	33.11
302.881	67.92
303.095	16.73
303.309	92.5
303.524	8.53
303.738	-63.15
303.952	35.16
304.166	69.97
304.381	2.39
304.595	72.02
304.809	-3.75
305.023	41.3
305.237	65.88
305.452	39.25
305.666	29.01
305.88	69.97
306.094	26.96
306.308	16.73
306.522	80.21
306.736	-36.52
306.95	22.87
307.164	-24.23
307.379	10.58
307.593	115.03
307.807	41.3
308.021	55.64
308.235	47.44
308.449	14.68
308.663	18.77
308.877	131.41
309.091	76.12
309.305	67.92
309.519	4.44
309.733	104.79
309.947	33.11
310.161	55.64
310.374	22.87
310.588	14.68
310.802	96.6
311.016	65.88
311.23	76.12
311.444	63.83
311.658	59.73
311.872	145.75
312.085	59.73
312.299	125.27
312.513	22.87
312.727	65.88
312.941	37.2
313.154	18.77
313.368	-32.43
313.582	80.21
313.796	49.49
314.009	35.16
314.223	82.26
314.437	39.25
314.651	-7.85
314.864	26.96
315.078	-18.09
315.292	20.82
315.505	51.54
315.719	55.64
315.933	47.44
316.146	72.02
316.36	0.34
316.573	78.16
316.787	45.4
317.001	106.84
317.214	-50.86
317.428	106.84
317.641	24.92
317.855	94.55
318.068	31.06
318.282	33.11
318.495	45.4
318.709	51.54
318.922	65.88
319.136	76.12
319.349	65.88
319.563	-16.04
319.776	33.11
319.99	-7.85
320.203	90.45
320.417	51.54
320.63	88.4
320.843	80.21
321.057	63.83
321.27	57.68
321.483	-5.8
321.697	31.06
321.91	84.31
322.124	63.83
322.337	88.4
322.55	-9.9
322.763	-9.9
322.977	80.21
323.19	76.12
323.403	33.11
323.617	39.25
323.83	59.73
324.043	63.83
324.256	115.03
324.469	-3.75
324.683	-26.28
324.896	67.92
325.109	72.02
325.322	10.58
325.535	47.44
325.748	49.49
325.962	41.3
326.175	2.39
326.388	39.25
326.601	49.49
326.814	51.54
327.027	41.3
327.24	65.88
327.453	-1.71
327.666	57.68
327.879	33.11
328.092	47.44
328.305	33.11
328.518	59.73
328.731	-9.9
328.944	39.25
329.157	20.82
329.37	74.07
329.583	88.4
329.796	55.64
330.009	-34.47
330.222	92.5
330.435	33.11
330.648	35.16
330.861	39.25
331.073	74.07
331.286	82.26
331.499	45.4
331.712	-9.9
331.925	121.17
332.138	26.96
332.35	82.26
332.563	63.83
332.776	12.63
332.989	63.83
333.202	106.84
333.414	39.25
333.627	22.87
333.84	16.73
334.053	18.77
334.265	61.78
334.478	63.83
334.691	98.64
334.903	63.83
335.116	14.68
335.329	53.59
335.541	55.64
335.754	141.65
335.966	37.2
336.179	59.73
336.392	80.21
336.604	65.88
336.817	88.4
337.029	0.34
337.242	35.16
337.454	29.01
337.667	-3.75
337.88	49.49
338.092	41.3
338.305	31.06
338.517	0.34
338.729	92.5
338.942	88.4
339.154	84.31
339.367	33.11
339.579	67.92
339.792	67.92
340.004	41.3
340.217	26.96
340.429	104.79
340.641	-9.9
340.854	37.2
341.066	129.36
341.278	49.49
341.491	137.56
341.703	41.3
341.915	72.02
342.128	33.11
342.34	6.49
342.552	45.4
342.764	65.88
342.977	213.33
343.189	24.92
343.401	-42.67
343.613	-16.04
343.826	88.4
344.038	106.84
344.25	33.11
344.462	29.01
344.674	12.63
344.886	12.63
345.099	133.46
345.311	41.3
345.523	20.82
345.735	-75.43
345.947	82.26
346.159	82.26
346.371	65.88
346.583	-7.85
346.795	39.25
347.007	-18.09
347.219	57.68
347.431	-65.19
347.643	43.35
347.855	-38.57
348.067	96.6
348.279	-71.34
348.491	69.97
348.703	74.07
348.915	31.06
349.127	22.87
349.339	72.02
349.551	14.68
349.763	26.96
349.975	51.54
350.187	14.68
350.399	10.58
350.61	10.58
350.822	49.49
351.034	72.02
351.246	59.73
351.458	92.5
351.669	55.64
351.881	86.36
352.093	72.02
352.305	88.4
352.517	47.44
352.728	47.44
352.94	-1.71
353.152	90.45
353.363	65.88
353.575	47.44
353.787	55.64
353.999	49.49
354.21	143.7
354.422	16.73
354.633	39.25
354.845	104.79
355.057	65.88
355.268	72.02
355.48	80.21
355.692	-16.04
355.903	129.36
356.115	22.87
356.326	49.49
356.538	63.83
356.749	22.87
356.961	26.96
357.172	-16.04
357.384	90.45
357.595	115.03
357.807	14.68
358.018	-54.95
358.23	80.21
358.441	125.27
358.653	41.3
358.864	80.21
359.075	49.49
359.287	53.59
359.498	47.44
359.709	110.93
359.921	45.4
360.132	106.84
360.344	41.3
360.555	133.46
360.766	-9.9
360.977	59.73
361.189	76.12
361.4	14.68
361.611	131.41
361.823	80.21
362.034	2.39
362.245	43.35
362.456	43.35
362.667	92.5
362.879	57.68
363.09	49.49
363.301	53.59
363.512	76.12
363.723	12.63
363.935	14.68
364.146	115.03
364.357	29.01
364.568	63.83
364.779	-16.04
364.99	59.73
365.201	14.68
365.412	94.55
365.623	47.44
365.834	-5.8
366.045	139.6
366.256	164.18
366.467	-9.9
366.678	127.32
366.889	67.92
367.1	72.02
367.311	33.11
367.522	74.07
367.733	108.88
367.944	72.02
368.155	74.07
368.366	133.46
368.577	72.02
368.788	84.31
368.999	-7.85
369.209	22.87
369.42	112.98
369.631	65.88
369.842	108.88
370.053	78.16
370.264	59.73
370.474	-22.19
370.685	88.4
370.896	90.45
371.107	88.4
371.317	106.84
371.528	86.36
371.739	26.96
371.95	35.16
372.16	67.92
372.371	8.53
372.582	33.11
372.792	49.49
373.003	0.34
373.214	47.44
373.424	51.54
373.635	57.68
373.846	82.26
374.056	37.2
374.267	26.96
374.477	51.54
374.688	-32.43
374.898	41.3
375.109	76.12
375.319	55.64
375.53	26.96
375.74	104.79
375.951	55.64
376.161	-42.67
376.372	123.22
376.582	100.69
376.793	37.2
377.003	-11.95
377.214	49.49
377.424	82.26
377.635	80.21
377.845	-50.86
378.055	92.5
378.266	-30.38
378.476	16.73
378.686	14.68
378.897	72.02
379.107	88.4
379.317	88.4
379.528	80.21
379.738	76.12
379.948	20.82
380.158	92.5
380.369	35.16
380.579	108.88
380.789	63.83
380.999	96.6
381.21	22.87
381.42	90.45
381.63	45.4
381.84	100.69
382.05	65.88
382.261	158.03
382.471	63.83
382.681	-50.86
382.891	67.92
383.101	29.01
383.311	72.02
383.521	41.3
383.731	55.64
383.941	61.78
384.151	92.5
384.361	33.11
384.571	22.87
384.781	102.74
384.991	86.36
385.201	65.88
385.411	82.26
385.621	112.98
385.831	35.16
386.041	121.17
386.251	125.27
386.461	76.12
386.671	100.69
386.881	125.27
387.091	92.5
387.301	80.21
387.511	76.12
387.72	90.45
387.93	80.21
388.14	35.16
388.35	67.92
388.56	72.02
388.769	-26.28
388.979	94.55
389.189	59.73
389.399	35.16
389.609	121.17
389.818	67.92
390.028	10.58
390.238	39.25
390.447	104.79
390.657	145.75
390.867	47.44
391.076	67.92
391.286	31.06
391.496	72.02
391.705	80.21
391.915	92.5
392.125	145.75
392.334	84.31
392.544	188.75
392.753	76.12
392.963	67.92
393.172	55.64
393.382	-32.43
393.591	115.03
393.801	100.69
394.01	153.94
394.22	78.16
394.429	88.4
394.639	55.64
394.848	135.51
395.058	106.84
395.267	88.4
395.477	110.93
395.686	63.83
395.895	143.7
396.105	127.32
396.314	108.88
396.524	125.27
396.733	76.12
396.942	115.03
397.152	92.5
397.361	174.42
397.57	65.88
397.78	90.45
397.989	158.03
398.198	129.36
398.407	67.92
398.617	55.64
398.826	170.32
399.035	129.36
399.244	69.97
399.453	98.64
399.663	61.78
399.872	139.6
400.081	35.16
400.29	162.13
400.499	100.69
400.708	125.27
400.917	104.79
401.127	133.46
401.336	125.27
401.545	207.19
401.754	108.88
401.963	115.03
402.172	121.17
402.381	106.84
402.59	135.51
402.799	121.17
403.008	164.18
403.217	92.5
403.426	145.75
403.635	145.75
403.844	121.17
404.053	145.75
404.262	115.03
404.471	131.41
404.68	153.94
404.888	104.79
405.097	190.8
405.306	209.23
405.515	196.95
405.724	235.86
405.933	237.91
406.142	219.47
406.35	213.33
406.559	121.17
406.768	194.9
406.977	252.24
407.185	235.86
407.394	256.34
407.603	248.15
407.812	278.87
408.02	262.48
408.229	231.76
408.438	176.47
408.646	297.3
408.855	293.2
409.064	297.3
409.272	293.2
409.481	344.4
409.69	254.29
409.898	278.87
410.107	354.64
410.315	334.16
410.524	383.31
410.733	313.68
410.941	336.21
411.15	360.78
411.358	393.55
411.567	520.53
411.775	432.46
411.984	440.65
412.192	528.72
412.401	547.15
412.609	516.43
412.818	510.29
413.026	518.48
413.234	641.36
413.443	508.24
413.651	530.77
413.86	606.54
414.068	694.6
414.276	641.36
414.485	604.49
414.693	700.75
414.901	803.15
415.11	768.33
415.318	760.14
415.526	844.1
415.734	858.44
415.943	784.71
416.151	844.1
416.359	940.36
416.567	940.36
416.776	989.51
416.984	997.7
417.192	1046.85
417.4	997.7
417.608	1067.33
417.817	1030.47
418.025	1126.72
418.233	1296.71
418.441	1255.75
418.649	1171.78
418.857	1274.18
419.065	1382.72
419.273	1360.19
419.481	1429.82
419.689	1601.85
419.897	1532.22
420.105	1530.17
420.313	1689.92
420.521	1646.91
420.729	1745.21
420.937	1679.68
421.145	1874.23
421.353	1863.99
421.561	2040.12
421.769	2185.52
421.977	2218.29
422.185	2105.65
422.393	2330.93
422.601	2482.48
422.809	2427.18
423.017	2398.51
423.224	2607.41
423.432	2687.28
423.64	2738.48
423.848	2898.22
424.056	2703.66
424.263	3084.58
424.471	2982.18
424.679	3156.26
424.887	3307.81
425.094	3322.15
425.302	3367.2
425.51	3416.35
425.718	3606.81
425.925	3758.36
426.133	3817.76
426.341	3909.91
426.548	4239.64
426.756	4122.9
426.964	4317.46
427.171	4434.19
427.379	4573.46
427.586	4589.84
427.794	4835.6
428.001	4876.55
428.209	5259.53
428.417	5150.98
428.624	5513.47
428.832	5398.79
429.039	5345.54
429.247	5296.39
429.454	5939.45
429.662	6263.03
429.869	5835
430.076	6371.57
430.284	6244.6
430.491	6633.71
430.699	6828.27
430.906	6703.34
431.114	7006.44
431.321	7137.51
431.528	7342.31
431.736	7688.42
431.943	8091.87
432.15	7831.77
432.358	8100.06
432.565	8415.44
432.772	8255.7
432.979	8921.29
433.187	8960.2
433.394	9017.55
433.601	9697.47
433.808	9570.5
434.016	9609.41
434.223	10049.72
434.43	10451.13
434.637	10266.81
434.844	11184.3
435.052	11135.15
435.259	11116.72
435.466	11182.25
435.673	11059.37
435.88	11903.14
436.087	12646.55
436.294	12447.9
436.501	12101.79
436.708	12562.58
436.915	12736.66
437.122	13502.6
437.329	13457.54
437.537	13682.82
437.743	14049.41
437.95	13848.71
438.157	14923.89
438.364	15267.95
438.571	15011.95
438.778	15151.21
438.985	16648.28
439.192	15650.92
439.399	16599.13
439.606	16050.27
439.813	16924.76
440.02	17641.54
440.227	17745.99
440.433	17457.23
440.64	18067.52
440.847	17870.92
441.054	18356.29
441.261	19392.56
441.467	19429.42
441.674	19863.59
441.881	20138.02
442.088	20258.85
442.294	20049.96
442.501	20731.93
442.708	21071.89
442.914	21956.61
443.121	22704.12
443.328	21952.52
443.534	23990.25
443.741	22980.6
443.948	22956.02
444.154	24854.49
444.361	24125.41
444.568	24537.05
444.774	24467.42
444.981	24606.69
445.187	25278.42
445.394	26922.94
445.6	26343.36
445.807	28506.02
446.013	27324.34
446.22	27924.4
446.426	28821.41
446.633	29243.29
446.839	30181.26
447.046	28905.37
447.252	30506.88
447.459	30752.64
447.665	30406.53
447.871	31903.6
448.078	33025.89
448.284	31651.7
448.491	32343.91
448.697	33740.63
448.903	34391.88
449.11	34457.42
449.316	34031.44
449.522	34228.04
449.728	35237.69
449.935	35612.47
450.141	35346.23
450.347	36077.36
450.553	35170.11
450.76	35655.48
450.966	36671.27
451.172	36204.33
451.378	37482.27
451.584	36525.86
451.791	37281.56
451.997	37103.39
452.203	38168.33
452.409	38145.81
452.615	37771.03
452.821	36425.51
453.027	35897.14
453.233	37588.76
453.44	36589.35
453.646	36818.72
453.852	37306.14
454.058	37709.59
454.264	36474.66
454.47	37293.85
454.676	36476.71
454.882	37529.37
455.088	34469.7
455.294	34764.61
455.5	35604.28
455.705	35913.52
455.911	34559.81
456.117	33752.91
456.323	33347.42
456.529	31530.87
456.735	32968.54
456.941	32323.43
457.147	31524.72
457.352	30846.85
457.558	30398.34
457.764	30465.92
457.97	29683.6
458.176	29290.39
458.381	29218.71
458.587	27924.4
458.793	27656.11
458.999	26435.52
459.204	28444.58
459.41	27445.17
459.616	25702.35
459.821	25540.56
460.027	25544.66
460.233	25026.52
460.438	23877.61
460.644	24164.32
460.85	23117.81
461.055	22857.72
461.261	22724.6
461.466	21078.04
461.672	20125.73
461.878	21927.94
462.083	20453.41
462.289	19816.49
462.494	19877.93
462.7	18798.65
462.905	18446.4
463.111	19202.1
463.316	18997.3
463.522	18733.11
463.727	18491.45
463.932	18901.04
464.138	18661.43
464.343	18608.19
464.549	18253.89
464.754	18651.19
464.959	18546.75
465.165	18208.83
465.37	17594.44
465.575	17104.98
465.781	17915.97
465.986	17930.31
466.191	17162.32
466.397	17055.83
466.602	16167.01
466.807	16760.92
467.012	16502.87
467.218	16537.69
467.423	16468.06
467.628	16558.17
467.833	17291.34
468.038	16384.09
468.244	15845.48
468.449	16758.87
468.654	16152.67
468.859	16234.59
469.064	16029.79
469.269	15353.96
469.474	15554.66
469.679	15937.63
469.885	15333.48
470.09	15712.36
470.295	15390.83
470.5	15120.49
470.705	15138.93
470.91	14837.87
471.115	14555.26
471.32	14956.66
471.525	14598.26
471.73	14571.64
471.935	14475.38
472.139	13918.34
472.344	14016.64
472.549	13959.3
472.754	13863.04
472.959	13469.83
473.164	13199.5
473.369	13080.72
473.574	13588.61
473.778	13371.53
473.983	13287.56
474.188	13359.24
474.393	12660.88
474.598	12597.4
474.802	12576.92
475.007	12419.22
475.212	12538.01
475.417	12124.32
475.621	12224.67
475.826	12187.8
476.031	11962.53
476.235	11681.96
476.44	11976.86
476.645	11622.56
476.849	11708.58
477.054	11448.49
477.259	11301.03
477.463	11122.86
477.668	11036.84
477.872	11176.11
478.077	11004.08
478.282	10614.96
478.486	10682.55
478.691	10703.03
478.895	10512.56
479.1	10473.65
479.304	10473.65
479.509	10006.72
479.713	10465.46
479.918	10299.58
480.122	10010.81
480.326	9996.48
480.531	10320.06
480.735	10172.6
480.94	10064.06
481.144	10193.08
481.348	9679.04
481.553	9918.65
481.757	9683.14
481.961	9965.76
482.166	10066.11
482.37	9990.33
482.574	9593.03
482.778	9715.91
482.983	10111.16
483.187	9832.64
483.391	9738.43
483.595	9443.53
483.8	9599.17
484.004	9713.86
484.208	9832.64
484.412	9609.41
484.616	9914.56
484.821	9603.27
485.025	9488.58
485.229	9748.67
485.433	9824.45
485.637	9748.67
485.841	9609.41
486.045	9560.26
486.249	9580.74
486.453	9603.27
486.657	9584.84
486.861	9945.28
487.065	9478.34
487.269	9650.37
487.473	9519.3
487.677	9449.67
487.881	9756.86
488.085	9812.16
488.289	9689.28
488.493	9556.16
488.697	9849.02
488.901	9924.8
489.105	9795.78
489.309	9586.88
489.512	9797.82
489.716	9928.89
489.92	9865.41
490.124	9894.08
490.328	10156.22
490.531	9838.78
490.735	9912.51
490.939	9986.24
491.143	10047.68
491.346	9881.79
491.55	9959.61
491.754	10086.59
491.958	10158.27
492.161	10205.37
492.365	10178.75
492.569	10117.31
492.772	10221.75
492.976	10414.26
493.18	10191.03
493.383	10539.19
493.587	10614.96
493.79	10930.35
493.994	10686.64
494.197	10576.05
494.401	10518.71
494.605	10766.51
494.808	10791.09
495.012	10920.11
495.215	11030.7
495.419	11067.56
495.622	10848.43
495.825	11335.85
496.029	11292.84
496.232	11335.85
496.436	11448.49
496.639	11782.31
496.843	11552.93
497.046	11696.29
497.249	11753.63
497.453	11929.76
497.656	12196
497.859	12052.64
498.063	12241.05
498.266	12482.71
498.469	12331.16
498.673	12730.52
498.876	12869.78
499.079	12777.62
499.282	12738.71
499.485	13305.99
499.689	13224.08
499.892	13527.17
500.095	13338.76
500.298	13828.23
500.501	13547.65
500.705	14043.26
500.908	14123.13
501.111	14246.01
501.314	14442.62
501.517	14571.64
501.72	14680.18
501.923	14620.79
502.126	15112.3
502.329	15413.35
502.532	15409.26
502.735	15392.87
502.938	15794.28
503.141	15988.83
503.344	16158.81
503.547	15972.45
503.75	16418.91
503.953	16748.63
504.156	16713.81
504.359	16869.46
504.562	16887.89
504.765	17424.46
504.968	17307.73
505.17	17809.48
505.373	17625.16
505.576	17985.6
505.779	18038.85
505.982	18137.15
506.185	18632.76
506.387	18579.51
506.59	18759.74
506.793	19226.67
506.996	19052.59
507.198	19679.27
507.401	19421.23
507.604	19769.38
507.807	20181.03
508.009	20400.16
508.212	20375.58
508.415	20527.13
508.617	20916.25
508.82	20992.02
509.022	20815.9
509.225	21497.87
509.428	21862.41
509.63	21587.98
509.833	22030.34
510.035	22294.53
510.238	22190.08
510.44	22507.52
510.643	22720.51
510.845	23169.01
511.048	23183.35
511.25	23322.61
511.453	23554.03
511.655	24668.12
511.858	24152.04
512.06	24358.88
512.262	24889.31
512.465	24623.07
512.667	25159.64
512.87	25294.8
513.072	25339.86
513.274	25710.54
513.477	25915.34
513.679	25946.06
513.881	26511.3
514.084	26539.97
514.286	26656.7
514.488	26791.87
514.69	27590.58
514.893	27518.9
515.095	27363.25
515.297	27817.9
515.499	28372.9
515.701	28270.5
515.904	28774.3
516.106	28696.48
516.308	29228.95
516.51	29519.76
516.712	29773.71
516.914	29745.04
517.116	30041.99
517.318	30369.67
517.52	30297.99
517.722	30773.12
517.925	30906.24
518.127	31338.36
518.329	31623.03
518.531	31623.03
518.733	32122.73
518.935	32372.58
519.136	32233.32
519.338	32941.92
519.54	33007.45
519.742	33171.29
519.944	33361.75
520.146	33718.1
520.348	33967.95
520.55	33980.24
520.752	34322.25
520.954	34561.86
521.155	34807.62
521.357	35340.09
521.559	35213.12
521.761	35581.75
521.963	35434.3
522.164	35901.23
522.366	36056.88
522.568	36448.04
522.77	36337.45
522.971	37101.34
523.173	37072.67
523.375	36921.12
523.576	37185.31
523.778	37396.25
523.98	37715.73
524.181	37953.3
524.383	38063.89
524.584	38051.6
524.786	38575.88
524.988	38584.07
525.189	39020.29
525.391	38860.55
525.592	39034.63
525.794	39126.78
525.995	39771.89
526.197	39390.97
526.398	39331.58
526.6	39876.34
526.801	39577.34
527.003	40410.86
527.204	40218.35
527.406	40707.82
527.607	40357.61
527.808	40898.28
528.01	40249.07
528.211	40728.3
528.412	41058.02
528.614	41072.35
528.815	41158.37
529.016	41213.66
529.218	41060.07
529.419	41164.51
529.62	41440.99
529.822	41070.31
530.023	41649.88
530.224	41387.74
530.425	41162.47
530.626	41168.61
530.828	41285.34
531.029	42299.09
531.23	41574.11
531.431	41264.86
531.632	41565.92
531.833	42075.86
532.035	41883.35
532.236	41510.62
532.437	42063.57
532.638	41840.34
532.839	42088.15
533.04	42434.25
533.241	41795.29
533.442	42438.35
533.643	42376.91
533.844	42280.66
534.045	42196.69
534.246	41899.73
534.447	42419.92
534.648	41975.51
534.849	41852.63
535.05	42063.57
535.251	42188.5
535.451	42182.35
535.652	42536.65
535.853	42233.55
536.054	42346.19
536.255	42364.62
536.456	41852.63
536.657	42708.68
536.857	42405.58
537.058	41916.12
537.259	42125.01
537.46	42643.15
537.66	42376.91
537.861	42278.61
538.062	42026.71
538.263	42204.88
538.463	42288.85
538.664	41993.94
538.865	42323.66
539.065	41940.69
539.266	41869.01
539.466	41963.22
539.667	41735.9
539.868	42389.2
540.068	41754.33
540.269	42397.39
540.469	42206.93
540.67	42020.56
540.87	41920.21
541.071	41811.67
541.271	42444.49
541.472	41832.15
541.672	41705.18
541.873	41658.07
542.073	41344.73
542.274	41891.54
542.474	42104.53
542.675	41412.32
542.875	41797.34
543.075	42016.47
543.276	41092.83
543.476	41998.04
543.676	41889.49
543.877	41963.22
544.077	41848.53
544.277	41565.92
544.478	41922.26
544.678	41993.94
544.878	41666.27
545.078	41645.79
545.279	41592.54
545.479	41535.2
545.679	41682.65
545.879	41574.11
546.079	41504.48
546.28	41760.47
546.48	41531.1
546.68	41492.19
546.88	41529.05
547.08	41719.51
547.28	41426.65
547.48	41074.4
547.68	41547.48
547.88	41471.71
548.081	41400.03
548.281	41602.78
548.481	41187.04
548.681	41447.13
548.881	41629.4
549.081	41481.95
549.28	41285.34
549.48	41377.5
549.68	41338.59
549.88	42245.84
550.08	41217.76
550.28	41662.17
550.48	41191.14
550.68	41338.59
550.88	41168.61
551.08	41453.28
551.279	41221.86
551.479	41406.17
551.679	41316.06
551.879	41098.98
552.079	41359.07
552.278	41168.61
552.478	41109.22
552.678	41082.59
552.878	41443.04
553.077	41205.47
553.277	40947.43
553.477	41717.46
553.676	41154.27
553.876	41260.77
554.076	40818.41
554.275	40673
554.475	40636.14
554.674	41047.78
554.874	40789.73
555.074	40701.67
555.273	41156.32
555.473	41264.86
555.672	40675.05
555.872	40617.71
556.071	40595.18
556.271	40939.24
556.47	40726.25
556.67	40144.62
556.869	40445.68
557.068	40601.32
557.268	40269.55
557.467	40308.46
557.667	40236.78
557.866	40359.66
558.065	40482.54
558.265	40400.62
558.464	40283.89
558.663	40744.68
558.863	40046.32
559.062	40836.84
559.261	39886.58
559.461	40238.83
559.66	40214.26
559.859	40183.54
560.058	39970.55
560.258	39915.25
560.457	39694.07
560.656	39896.82
560.855	39827.19
561.054	40466.16
561.253	39716.6
561.453	40118
561.652	40093.43
561.851	40271.6
562.05	39833.33
562.249	39476.99
562.448	39804.66
562.647	39573.24
562.846	39481.08
563.045	39345.92
563.244	39184.13
563.443	39927.54
563.642	39012.1
563.841	39053.06
564.04	38930.18
564.239	39513.85
564.438	38713.09
564.637	38614.79
564.836	39038.72
565.035	38895.36
565.234	39218.94
565.432	38483.72
565.631	38420.24
565.83	38579.98
566.029	38655.75
566.228	38602.5
566.427	38473.48
566.625	38074.13
566.824	37867.28
567.023	38133.52
567.222	37971.73
567.42	38571.78
567.619	37926.67
567.818	38178.57
568.016	37752.6
568.215	37994.26
568.414	37838.61
568.612	37873.43
568.811	37746.45
569.01	37871.38
569.208	37236.51
569.407	37949.2
569.605	36988.7
569.804	37873.43
570.002	37097.25
570.201	37783.32
570.4	36658.98
570.598	37146.4
570.797	36722.47
570.995	36765.48
571.193	36409.13
571.392	37201.69
571.59	36935.46
571.789	36564.78
571.987	36859.68
572.186	36685.61
572.384	36615.97
572.582	36431.66
572.781	36515.62
572.979	36165.42
573.177	36198.19
573.376	36267.82
573.574	36011.82
573.772	36038.45
573.971	35725.11
574.169	35858.23
574.367	35833.65
574.565	35649.33
574.763	35364.67
574.962	35346.23
575.16	34770.75
575.358	35448.63
575.556	34772.8
575.754	35749.68
575.952	34707.27
576.151	35319.61
576.349	34543.43
576.547	34762.56
576.745	34867.01
576.943	35014.46
577.141	34744.13
577.339	34643.78
577.537	34748.23
577.735	34269
577.933	34240.33
578.131	34342.73
578.329	33845.07
578.527	34090.83
578.725	34041.68
578.923	34578.25
579.121	33570.65
579.319	33552.21
579.516	34221.9
579.714	33906.51
579.912	33666.9
580.11	33386.33
580.308	33302.36
580.506	33509.21
580.704	33148.76
580.901	33242.97
581.099	33584.98
581.297	32890.72
581.495	32845.66
581.692	33130.33
581.89	32694.11
582.088	32952.16
582.285	32614.24
582.483	32456.55
582.681	32608.1
582.878	32579.43
583.076	31799.15
583.274	32327.53
583.471	32339.82
583.669	32386.92
583.866	31512.44
584.064	32038.76
584.262	31833.97
584.459	31836.02
584.657	31528.82
584.854	31856.5
585.052	31283.06
585.249	31455.09
585.447	31711.09
585.644	31461.24
585.841	31330.17
586.039	31383.41
586.236	31008.64
586.434	30832.51
586.631	30793.6
586.828	31248.25
587.026	31332.22
587.223	30513.03
587.42	30390.15
587.618	30859.13
587.815	30607.23
588.012	30457.73
588.21	30361.48
588.407	30547.84
588.604	30150.54
588.801	30041.99
588.999	29894.54
589.196	30087.05
589.393	29888.4
589.59	29931.4
589.787	29474.71
589.984	29607.83
590.182	29376.41
590.379	29646.74
590.576	29329.3
590.773	29556.63
590.97	29093.79
591.167	29360.02
591.364	28776.35
591.561	29063.07
591.758	28544.93
591.955	28977.05
592.152	29149.08
592.349	28522.4
592.546	28721.06
592.743	28731.29
592.94	28157.86
593.137	28563.36
593.334	28506.02
593.531	28198.82
593.727	28153.77
593.924	28293.03
594.121	28153.77
594.318	28110.76
594.515	27658.16
594.712	28084.14
594.908	27848.62
595.105	27865
595.302	27490.23
595.499	27488.18
595.696	27336.63
595.892	27156.41
596.089	27312.05
596.286	27240.37
596.482	27119.54
596.679	27072.44
596.876	27158.45
597.072	26972.09
597.269	26896.31
597.466	26683.33
597.662	26466.24
597.859	26595.26
598.055	26640.32
598.252	26218.44
598.448	26357.7
598.645	26308.55
598.841	26177.48
599.038	26306.5
599.234	25894.86
599.431	25884.62
599.627	25810.89
599.824	26146.76
600.02	25921.48
600.217	25878.47
600.413	25647.05
600.609	25389.01
600.806	25460.69
601.002	25563.09
601.198	25415.63
601.395	25399.25
601.591	24991.7
601.787	25157.59
601.984	24999.9
602.18	25313.24
602.376	24733.66
602.572	24649.69
602.769	24715.23
602.965	24457.18
603.161	24748
603.357	24575.97
603.553	24395.75
603.75	24516.58
603.946	24156.13
604.142	24236
604.338	24168.42
604.534	24217.57
604.73	23949.29
604.926	23887.85
605.122	24098.79
605.318	23785.45
605.514	23762.92
605.71	23529.45
605.906	23783.4
606.102	23662.57
606.298	23760.87
606.494	23400.43
606.69	23617.52
606.886	23582.7
607.082	22888.44
607.278	23357.42
607.474	23060.47
607.67	23252.98
607.866	22999.03
608.062	23195.64
608.257	23128.05
608.453	23232.5
608.649	23181.3
608.845	22849.53
609.041	23013.37
609.236	22824.95
609.432	22577.15
609.628	22466.56
609.824	22466.56
610.019	22650.88
610.215	22790.14
610.411	22413.31
610.606	22417.41
610.802	22564.86
610.998	22282.24
611.193	22441.98
611.389	22167.56
611.584	22095.88
611.78	22157.32
611.976	21821.45
612.171	22366.21
612.367	22114.31
612.562	21966.85
612.758	21856.26
612.953	21690.38
613.149	21936.13
613.344	21684.23
613.539	22022.15
613.735	21936.13
613.93	21628.94
614.126	21866.5
614.321	21817.35
614.517	21608.46
614.712	21700.62
614.907	21643.28
615.103	21602.32
615.298	21450.77
615.493	21633.04
615.688	21397.52
615.884	21766.15
616.079	21483.53
616.274	21526.54
616.47	21291.02
616.665	21286.93
616.86	21321.74
617.055	21047.32
617.25	20961.3
617.445	21260.3
617.641	20971.54
617.836	21075.99
618.031	20776.98
618.226	20983.83
618.421	20740.12
618.616	20703.26
618.811	20607
619.006	20678.68
619.201	20135.97
619.396	20570.14
619.591	20289.57
619.786	20428.83
619.981	20078.63
620.176	20430.88
620.371	19929.13
620.566	19929.13
620.761	19961.89
620.956	20041.76
621.151	19824.68
621.346	19767.34
621.541	19408.94
621.735	19683.37
621.93	19349.55
622.125	19169.33
622.32	19208.24
622.515	19413.04
622.709	18894.9
622.904	18919.48
623.099	19021.88
623.294	19081.27
623.488	18479.16
623.683	18722.87
623.878	18243.65
624.072	18210.88
624.267	18280.51
624.462	18151.49
624.656	17979.46
624.851	17846.34
625.046	17754.18
625.24	17739.85
625.435	17393.74
625.629	17410.12
625.824	17537.1
626.018	17399.88
626.213	17119.31
626.407	17418.32
626.602	17090.64
626.796	17262.67
626.991	17051.73
627.185	17193.04
627.38	16971.86
627.574	16750.68
627.768	16355.42
627.963	16496.73
628.157	16232.54
628.352	16410.71
628.546	15859.81
628.74	16240.73
628.935	16101.47
629.129	16148.57
629.323	15648.87
629.517	16025.7
629.712	16005.22
629.906	15687.78
630.1	15480.94
630.294	15628.39
630.489	15222.89
630.683	15657.06
630.877	15145.07
631.071	15136.88
631.265	15245.42
631.459	15050.86
631.653	14962.8
631.848	14674.04
632.042	14895.22
632.236	14878.83
632.43	14760.05
632.624	14694.52
632.818	14571.64
633.012	14348.41
633.206	14409.85
633.4	14264.44
633.594	14047.36
633.788	14241.92
633.982	14051.45
634.176	14250.11
634.369	14094.46
634.563	13965.44
634.757	13877.38
634.951	13686.92
635.145	13752.45
635.339	13709.44
635.533	13441.16
635.726	13525.13
635.92	13365.39
636.114	13381.77
636.308	13256.84
636.501	13236.36
636.695	13162.64
636.889	12978.32
637.083	12974.22
637.276	12783.76
637.47	12818.58
637.664	12712.08
637.857	12839.06
638.051	12748.95
638.244	12408.98
638.438	12503.19
638.632	12548.25
638.825	12505.24
639.019	12304.54
639.212	12159.13
639.406	12357.78
639.599	12048.54
639.793	11866.27
639.986	11884.7
640.18	12089.5
640.373	11896.99
640.567	11630.76
640.76	11970.72
640.954	11700.39
641.147	11681.96
641.34	11534.5
641.534	11653.28
641.727	11671.72
641.92	11434.15
642.114	11378.86
642.307	11296.94
642.5	11145.39
642.694	10993.84
642.887	11090.09
643.08	11020.46
643.273	10731.7
643.467	10918.06
643.66	10825.9
643.853	10672.31
644.046	10733.75
644.239	10721.46
644.432	10666.16
644.626	10604.72
644.819	10614.96
645.012	10641.59
645.205	10412.21
645.398	10334.39
645.591	10180.79
645.784	10193.08
645.977	10336.44
646.17	10260.66
646.363	10074.3
646.556	10076.35
646.749	9941.18
646.942	9930.94
647.135	9967.81
647.328	9834.69
647.521	9816.26
647.714	9689.28
647.907	9828.54
648.099	9681.09
648.292	9754.82
648.485	9570.5
648.678	9599.17
648.871	9322.7
649.064	9492.68
649.256	9427.14
649.449	9238.73
649.642	9322.7
649.835	9119.95
650.027	9236.68
650.22	9320.65
650.413	9081.03
650.605	8995.02
650.798	9089.23
650.991	8956.11
651.183	9009.36
651.376	8757.46
651.568	8876.24
651.761	8825.04
651.954	8945.87
652.146	8761.55
652.339	8683.73
652.531	8702.16
652.724	8483.03
652.916	8341.72
653.109	8257.75
653.301	8493.27
653.494	8431.83
653.686	8284.37
653.879	8403.16
654.071	8337.62
654.263	8061.15
654.456	8251.61
654.648	8233.18
654.84	7872.73
655.033	8204.5
655.225	8120.54
655.417	7977.18
655.61	7983.32
655.802	7813.34
655.994	7772.38
656.186	7901.4
656.379	7829.73
656.571	7745.76
656.763	7715.04
656.955	7520.48
657.148	7682.27
657.34	7606.5
657.532	7405.8
657.724	7379.17
657.916	7301.35
658.108	7553.25
658.3	7373.03
658.492	7516.39
658.684	7334.12
658.876	7178.47
659.068	7117.03
659.26	7327.97
659.452	7205.1
659.644	7280.87
659.836	7039.21
660.028	7241.96
660.22	7020.78
660.412	7037.16
660.604	6879.47
660.796	6889.71
660.988	6854.89
661.18	6772.97
661.372	6580.46
661.563	6809.84
661.755	6635.76
661.947	6596.85
662.139	6625.52
662.331	6596.85
662.522	6547.7
662.714	6461.68
662.906	6414.58
663.097	6592.75
663.289	6514.93
663.481	6308.09
663.673	6260.98
663.864	6258.93
664.056	6220.02
664.247	6351.09
664.439	6275.32
664.631	6238.45
664.822	6189.3
665.014	6322.42
665.205	6056.18
665.397	5982.46
665.588	6056.18
665.78	6060.28
665.971	6013.18
666.163	6023.42
666.354	5923.07
666.546	5972.22
666.737	5880.06
666.929	5894.4
667.12	5923.07
667.311	5802.24
667.503	5597.44
667.694	5785.85
667.885	5712.13
668.077	5783.81
668.268	5705.98
668.459	5550.34
668.651	5673.21
668.842	5589.25
669.033	5499.14
669.224	5392.64
669.416	5503.23
669.607	5433.6
669.798	5400.83
669.989	5439.75
670.18	5658.88
670.371	5468.42
670.563	5488.9
670.754	5382.4
670.945	5458.18
671.136	5376.26
671.327	5437.7
671.518	5269.76
671.709	5241.09
671.9	5312.77
672.091	5384.45
672.282	5257.48
672.473	5038.34
672.664	5298.44
672.855	5064.97
673.046	5073.16
673.237	5237
673.428	5042.44
673.619	4931.85
673.809	5032.2
674	5110.02
674.191	4956.43
674.382	4937.99
674.573	4999.43
674.764	4981
674.954	5060.87
675.145	4874.51
675.336	4876.55
675.527	4843.79
675.717	4946.19
675.908	4684.05
676.099	4790.54
676.289	4733.2
676.48	4757.77
676.671	4727.05
676.861	4829.45
677.052	4788.49
677.243	4677.9
677.433	4815.12
677.624	4708.62
677.814	4485.39
678.005	4716.81
678.195	4745.48
678.386	4630.8
678.576	4626.7
678.767	4565.26
678.957	4483.34
679.148	4618.51
679.338	4559.12
679.529	4593.94
679.719	4512.02
679.909	4581.65
680.1	4675.85
680.29	4481.3
680.481	4473.11
680.671	4634.89
680.861	4458.77
681.052	4464.91
681.242	4356.37
681.432	4501.78
681.622	4348.18
681.813	4323.6
682.003	4477.2
682.193	4397.33
682.383	4200.73
682.573	4419.86
682.764	4333.84
682.954	4303.12
683.144	4233.49
683.334	4253.97
683.524	4200.73
683.714	4260.12
683.904	4213.01
684.094	4299.03
684.284	4217.11
684.474	4315.41
684.664	4229.4
684.854	4096.28
685.044	4124.95
685.234	4026.65
685.424	4163.86
685.614	4096.28
685.804	4200.73
685.994	4143.38
686.184	4182.29
686.374	3959.06
686.564	4040.98
686.753	4151.57
686.943	3938.59
687.133	3981.59
687.323	3995.93
687.513	4000.02
687.702	3981.59
687.892	3725.6
688.082	4000.02
688.272	3821.85
688.461	3834.14
688.651	3889.43
688.841	3891.48
689.03	4024.6
689.22	3840.28
689.41	3688.73
689.599	3850.52
689.789	3856.67
689.979	3731.74
690.168	3574.05
690.358	3643.68
690.547	3725.6
690.737	3655.97
690.926	3784.99
691.116	3500.32
691.305	3645.73
691.495	3522.85
691.684	3660.06
691.874	3516.7
692.063	3531.04
692.252	3531.04
692.442	3557.66
692.631	3475.74
692.82	3455.26
693.01	3559.71
693.199	3475.74
693.388	3449.12
693.578	3332.39
693.767	3512.61
693.956	3416.35
694.146	3377.44
694.335	3469.6
694.524	3387.68
694.713	3365.15
694.902	3451.17
695.092	3359.01
695.281	3205.41
695.47	3373.35
695.659	3268.9
695.848	3229.99
696.037	3227.94
696.226	3217.7
696.415	3137.83
696.604	3285.28
696.793	3197.22
696.982	3209.51
697.171	3258.66
697.36	3336.48
697.549	3010.86
697.738	3139.88
697.927	3146.02
698.116	3318.05
698.305	3356.96
698.494	3270.95
698.683	3115.3
698.872	3176.74
699.061	3143.97
699.25	3074.34
699.438	3184.93
699.627	3070.25
699.816	2988.33
700.005	3139.88
700.193	3113.25
700.382	3191.08
700.571	3111.21
700.76	3035.43
700.948	2998.57
701.137	3066.15
701.326	3096.87
701.514	2984.23
701.703	3055.91
701.892	2947.37
702.08	2930.98
702.269	2849.07
702.457	3049.77
702.646	2988.33
702.834	3029.29
703.023	2957.61
703.212	2930.98
703.4	2916.65
703.589	3012.9
703.777	2922.79
703.965	2900.27
704.154	2924.84
704.342	2904.36
704.531	3000.62
704.719	2986.28
704.907	2980.14
705.096	2869.55
705.284	2801.96
705.472	2881.83
705.661	2892.07
705.849	2855.21
706.037	2890.03
706.226	2892.07
706.414	2873.64
706.602	2851.11
706.79	2857.26
706.979	2910.5
707.167	2851.11
707.355	2744.62
707.543	2828.59
707.731	2826.54
707.919	2746.67
708.107	2777.39
708.296	2812.2
708.484	2849.07
708.672	2693.42
708.86	2810.15
709.048	2701.61
709.236	2685.23
709.424	2885.93
709.612	2771.24
709.8	2644.27
709.988	2720.04
710.176	2738.48
710.364	2744.62
710.551	2834.73
710.739	2742.57
710.927	2758.96
711.115	2535.73
711.303	2834.73
711.491	2728.24
711.679	2629.93
711.866	2908.46
712.054	2728.24
712.242	2709.8
712.43	2750.76
712.617	2742.57
712.805	2701.61
712.993	2801.96
713.181	2750.76
713.368	2627.89
713.556	2767.15
713.744	2574.64
713.931	2804.01
714.119	2720.04
714.306	2613.55
714.494	2660.65
714.682	2595.12
714.869	2582.83
715.057	2674.99
715.244	2574.64
715.432	2597.17
715.619	2529.58
715.807	2531.63
715.994	2664.75
716.182	2611.5
716.369	2597.17
716.556	2631.98
716.744	2511.15
716.931	2603.31
717.119	2597.17
717.306	2537.77
717.493	2498.86
717.681	2464.05
717.868	2521.39
718.055	2572.59
718.242	2545.97
718.43	2541.87
718.617	2679.08
718.804	2513.2
718.991	2603.31
719.179	2496.82
719.366	2619.69
719.553	2554.16
719.74	2507.06
719.927	2613.55
720.114	2556.21
720.301	2562.35
720.488	2531.63
720.676	2443.57
720.863	2464.05
721.05	2652.46
721.237	2593.07
721.424	2507.06
721.611	2578.73
721.798	2484.53
721.985	2433.33
722.172	2462
722.358	2595.12
722.545	2646.32
722.732	2390.32
722.919	2455.86
723.106	2500.91
723.293	2468.14
723.48	2423.09
723.667	2457.9
723.853	2459.95
724.04	2464.05
724.227	2580.78
724.414	2480.43
724.6	2373.94
724.787	2472.24
724.974	2388.27
725.161	2445.62
725.347	2402.61
725.534	2394.42
725.72	2437.42
725.907	2423.09
726.094	2468.14
726.28	2332.98
726.467	2490.67
726.653	2361.65
726.84	2466.1
727.027	2439.47
727.213	2468.14
727.4	2418.99
727.586	2365.75
727.773	2451.76
727.959	2394.42
728.145	2457.9
728.332	2249.01
728.518	2427.18
728.705	2406.7
728.891	2410.8
729.077	2365.75
729.264	2382.13
729.45	2365.75
729.636	2332.98
729.823	2269.49
730.009	2369.84
730.195	2322.74
730.382	2345.27
730.568	2349.36
730.754	2468.14
730.94	2392.37
731.126	2375.99
731.313	2341.17
731.499	2298.16
731.685	2441.52
731.871	2412.85
732.057	2437.42
732.243	2406.7
732.429	2216.24
732.615	2253.11
732.801	2357.55
732.987	2242.87
733.173	2160.95
733.359	2324.79
733.545	2359.6
733.731	2218.29
733.917	2474.29
734.103	2234.68
734.289	2373.94
734.475	2285.87
734.661	2326.83
734.847	2261.3
735.033	2230.58
735.219	2289.97
735.404	2414.9
735.59	2206
735.776	2234.68
735.962	2269.49
736.148	2468.14
736.333	2185.52
736.519	2144.56
736.705	2218.29
736.89	2275.63
737.076	2232.63
737.262	2253.11
737.447	2230.58
737.633	2195.76
737.819	2218.29
738.004	2283.83
738.19	2193.72
738.375	2279.73
738.561	2230.58
738.747	2171.19
738.932	2304.31
739.118	2152.76
739.303	2189.62
739.489	2349.36
739.674	2152.76
739.859	2097.46
740.045	2124.08
740.23	2206
740.416	2169.14
740.601	2195.76
740.786	2154.8
740.972	2173.24
741.157	2242.87
741.342	2152.76
741.528	2179.38
741.713	2048.31
741.898	2085.17
742.084	1990.97
742.269	1929.53
742.454	2160.95
742.639	2085.17
742.824	1980.73
743.01	2027.83
743.195	1980.73
743.38	1970.49
743.565	2040.12
743.75	2119.99
743.935	1947.96
744.12	1972.54
744.305	2093.37
744.49	1968.44
744.675	1990.97
744.86	1894.71
745.045	2062.65
745.23	2009.4
745.415	1890.62
745.6	1970.49
745.785	1980.73
745.97	1964.34
746.155	1868.09
746.34	1812.79
746.525	1884.47
746.71	1909.05
746.895	1808.7
747.079	1894.71
747.264	1825.08
747.449	1907
747.634	1810.75
747.819	1849.66
748.003	1767.74
748.188	1677.63
748.373	1784.12
748.557	1771.83
748.742	1851.71
748.927	1722.68
749.111	1720.64
749.296	1833.27
749.481	1767.74
749.665	1653.05
749.85	1618.24
750.034	1743.16
750.219	1712.44
750.404	1724.73
750.588	1636.67
750.773	1655.1
750.957	1743.16
751.141	1614.14
751.326	1677.63
751.51	1548.61
751.695	1571.13
751.879	1540.41
752.064	1655.1
752.248	1515.84
752.432	1542.46
752.617	1538.37
752.801	1483.07
752.985	1530.17
753.17	1466.69
753.354	1517.89
753.538	1401.15
753.722	1368.38
753.907	1476.93
754.091	1489.21
754.275	1341.76
754.459	1378.62
754.643	1349.95
754.828	1374.53
755.012	1390.91
755.196	1272.13
755.38	1284.42
755.564	1417.54
755.748	1358.14
755.932	1390.91
756.116	1311.04
756.3	1286.47
756.484	1298.75
756.668	1278.27
756.852	1190.21
757.036	1366.34
757.22	1341.76
757.404	1265.99
757.588	1308.99
757.772	1220.93
757.956	1251.65
758.14	1288.51
758.323	1284.42
758.507	1259.84
758.691	1233.22
758.875	1212.74
759.059	1222.98
759.242	1153.35
759.426	1200.45
759.61	1149.25
759.794	1163.59
759.977	1161.54
760.161	1192.26
760.345	1104.2
760.528	1210.69
760.712	1126.72
760.895	1077.57
761.079	1114.44
761.263	983.37
761.446	1055.05
761.63	1110.34
761.813	1165.64
761.997	1079.62
762.18	1028.42
762.364	1087.81
762.547	1038.66
762.731	948.55
762.914	1016.13
763.098	975.17
763.281	975.17
763.464	1003.85
763.648	1046.85
763.831	973.13
764.015	958.79
764.198	983.37
764.381	1038.66
764.564	1026.37
764.748	1038.66
764.931	1048.9
765.114	1050.95
765.297	973.13
765.481	926.02
765.664	966.98
765.847	999.75
766.03	971.08
766.213	950.6
766.397	926.02
766.58	897.35
766.763	960.84
766.946	907.59
767.129	934.22
767.312	919.88
767.495	899.4
767.678	858.44
767.861	989.51
768.044	944.45
768.227	944.45
768.41	909.64
768.593	960.84
768.776	895.3
768.959	913.74
769.142	995.65
769.324	870.73
769.507	850.25
769.69	801.1
769.873	842.06
770.056	915.78
770.239	915.78
770.421	885.06
770.604	805.19
770.787	825.67
770.97	819.53
771.152	817.48
771.335	883.02
771.518	780.62
771.7	835.91
771.883	891.21
772.066	821.58
772.248	842.06
772.431	741.71
772.613	803.15
772.796	760.14
772.978	678.22
773.161	772.43
773.343	694.6
773.526	760.14
773.708	778.57
773.891	715.08
774.073	727.37
774.256	776.52
774.438	835.91
774.621	721.23
774.803	708.94
774.985	710.99
775.168	659.79
775.35	633.16
775.532	637.26
775.715	692.55
775.897	627.02
776.079	624.97
776.261	700.75
776.444	663.88
776.626	686.41
776.808	680.27
776.99	713.03
777.173	604.49
777.355	704.84
777.537	637.26
777.719	606.54
777.901	723.27
778.083	670.03
778.265	637.26
778.447	618.83
778.629	612.68
778.811	604.49
778.993	643.4
779.175	651.6
779.357	581.96
779.539	571.72
779.721	563.53
779.903	635.21
780.085	643.4
780.267	579.92
780.449	551.24
780.631	547.15
780.812	612.68
780.994	477.52
781.176	500.05
781.358	624.97
781.54	481.61
781.721	563.53
781.903	530.77
782.085	551.24
782.267	452.94
782.448	457.04
782.63	502.09
782.812	538.96
782.993	520.53
783.175	506.19
783.357	477.52
783.538	524.62
783.72	538.96
783.901	481.61
784.083	479.57
784.264	549.2
784.446	481.61
784.627	418.13
784.809	448.85
784.99	395.6
785.172	489.81
785.353	465.23
785.535	403.79
785.716	393.55
785.897	452.94
786.079	442.7
786.26	426.32
786.441	416.08
786.623	346.45
786.804	493.9
786.985	383.31
787.167	432.46
787.348	399.7
787.529	432.46
787.71	465.23
787.891	377.17
788.073	387.41
788.254	430.41
788.435	407.89
788.616	334.16
788.797	330.06
788.978	391.5
789.159	387.41
789.34	362.83
789.522	440.65
789.703	401.74
789.884	389.46
790.065	309.58
790.246	342.35
790.427	342.35
790.607	368.98
790.788	375.12
790.969	350.54
791.15	393.55
791.331	311.63
791.512	346.45
791.693	231.76
791.874	285.01
792.054	336.21
792.235	325.97
792.416	274.77
792.597	358.74
792.778	358.74
792.958	319.82
793.139	391.5
793.32	379.22
793.5	262.48
793.681	362.83
793.862	319.82
794.042	305.49
794.223	313.68
794.404	246.1
794.584	289.1
794.765	268.63
794.945	299.34
795.126	264.53
795.306	330.06
795.487	282.96
795.667	246.1
795.848	252.24
796.028	272.72
796.209	299.34
796.389	276.82
796.57	256.34
796.75	211.28
796.93	239.95
797.111	260.43
797.291	330.06
797.471	289.1
797.652	250.19
797.832	274.77
798.012	280.91
798.192	196.95
798.373	268.63
798.553	198.99
798.733	291.15
798.913	244.05
799.093	354.64
799.274	225.62
799.454	272.72
799.634	143.7
799.814	291.15
799.994	268.63
800.174	190.8
800.354	237.91
800.534	174.42
800.714	223.57
800.894	227.67
801.074	223.57
801.254	172.37
801.434	317.78
801.614	254.29
801.794	205.14
801.974	733.51
802.154	272.72
802.334	244.05
802.514	190.8
802.693	213.33
802.873	239.95
803.053	252.24
803.233	211.28
803.413	194.9
803.592	256.34
803.772	153.94
803.952	129.36
804.131	221.52
804.311	219.47
804.491	227.67
804.67	149.84
804.85	168.27
805.03	190.8
805.209	205.14
805.389	211.28
805.568	194.9
805.748	151.89
805.928	235.86
806.107	229.71
806.287	235.86
806.466	145.75
806.646	203.09
806.825	194.9
807.004	244.05
807.184	186.71
807.363	211.28
807.543	268.63
807.722	227.67
807.901	250.19
808.081	178.51
808.26	98.64
808.439	196.95
808.619	145.75
808.798	239.95
808.977	174.42
809.156	190.8
809.336	256.34
809.515	237.91
809.694	145.75
809.873	131.41
810.052	190.8
810.231	141.65
810.411	160.08
810.59	235.86
810.769	170.32
810.948	211.28
811.127	112.98
811.306	131.41
811.485	192.85
811.664	244.05
811.843	102.74
812.022	135.51
812.201	155.99
812.38	162.13
812.559	166.23
812.737	174.42
812.916	78.16
813.095	137.56
813.274	57.68
813.453	123.22
813.632	131.41
813.811	178.51
813.989	100.69
814.168	137.56
814.347	158.03
814.526	209.23
814.704	176.47
814.883	213.33
815.062	92.5
815.24	133.46
815.419	74.07
815.598	211.28
815.776	131.41
815.955	139.6
816.133	74.07
816.312	162.13
816.49	143.7
816.669	115.03
816.847	143.7
817.026	137.56
817.204	121.17
817.383	88.4
817.561	112.98
817.74	131.41
817.918	145.75
818.097	72.02
818.275	137.56
818.453	164.18
818.632	246.1
818.81	158.03
818.988	155.99
819.167	-18.09
819.345	80.21
819.523	153.94
819.701	160.08
819.879	125.27
820.058	74.07
820.236	168.27
820.414	129.36
820.592	88.4
820.77	141.65
820.948	145.75
821.127	188.75
821.305	145.75
821.483	121.17
821.661	143.7
821.839	96.6
822.017	112.98
822.195	112.98
822.373	166.23
822.551	84.31
822.729	164.18
822.907	59.73
823.085	72.02
823.262	72.02
823.44	72.02
823.618	63.83
823.796	139.6
823.974	59.73
824.152	145.75
824.329	129.36
824.507	155.99
824.685	125.27
824.863	82.26
825.04	121.17
825.218	84.31
825.396	158.03
825.574	110.93
825.751	39.25
825.929	145.75
826.107	-32.43
826.284	123.22
826.462	153.94
826.639	137.56
826.817	31.06
826.994	117.08
827.172	24.92
827.349	88.4
827.527	121.17
827.704	121.17
827.882	121.17
828.059	96.6
828.237	98.64
828.414	108.88
828.591	-13.99
828.769	98.64
828.946	57.68
829.124	168.27
829.301	14.68
829.478	92.5
829.655	16.73
829.833	26.96
830.01	72.02
830.187	90.45
830.364	100.69
830.542	141.65
830.719	80.21
830.896	117.08
831.073	96.6
831.25	115.03
831.427	80.21
831.604	96.6
831.782	24.92
831.959	168.27
832.136	57.68
832.313	90.45
832.49	37.2
832.667	90.45
832.844	35.16
833.021	74.07
833.198	137.56
833.374	149.84
833.551	39.25
833.728	115.03
833.905	80.21
834.082	-9.9
834.259	121.17
834.436	24.92
834.612	78.16
834.789	84.31
834.966	80.21
835.143	115.03
835.319	-9.9
835.496	123.22
835.673	8.53
835.85	88.4
836.026	149.84
836.203	112.98
836.38	14.68
836.556	43.35
836.733	67.92
836.909	84.31
837.086	74.07
837.262	88.4
837.439	6.49
837.616	59.73
837.792	53.59
837.968	86.36
838.145	59.73
838.321	-7.85
838.498	137.56
838.674	80.21
838.851	74.07
839.027	57.68
839.203	43.35
839.38	57.68
839.556	-42.67
839.732	41.3
839.909	96.6
840.085	121.17
840.261	12.63
840.437	74.07
840.614	61.78
840.79	12.63
840.966	61.78
841.142	88.4
841.318	88.4
841.494	65.88
841.671	37.2
841.847	59.73
842.023	-46.76
842.199	88.4
842.375	53.59
842.551	18.77
842.727	55.64
842.903	147.8
843.079	26.96
843.255	80.21
843.431	59.73
843.607	86.36
843.783	-38.57
843.959	51.54
844.134	16.73
844.31	74.07
844.486	0.34
844.662	18.77
844.838	31.06
845.013	10.58
845.189	117.08
845.365	108.88
845.541	6.49
845.716	0.34
845.892	39.25
846.068	18.77
846.244	80.21
846.419	-7.85
846.595	26.96
846.77	41.3
846.946	31.06
847.122	67.92
847.297	59.73
847.473	84.31
847.648	-7.85
847.824	31.06
847.999	49.49
848.175	22.87
848.35	37.2
848.526	74.07
848.701	-13.99
848.876	143.7
849.052	2.39
849.227	84.31
849.403	43.35
849.578	0.34
849.753	-20.14
849.929	51.54
850.104	41.3
850.279	31.06
850.454	63.83
850.63	96.6
850.805	92.5
850.98	41.3
851.155	6.49
851.33	74.07
851.505	35.16
851.681	51.54
851.856	119.12
852.031	65.88
852.206	-59.05
852.381	14.68
852.556	4.44
852.731	4.44
852.906	-36.52
853.081	33.11
853.256	45.4
853.431	14.68
853.606	47.44
853.781	-22.19
853.956	31.06
854.131	0.34
854.305	80.21
854.48	-42.67
854.655	141.65
854.83	18.77
855.005	45.4
855.18	90.45
855.354	31.06
855.529	49.49
855.704	65.88
855.879	123.22
856.053	8.53
856.228	92.5
856.403	-13.99
856.577	35.16
856.752	22.87
856.926	0.34
857.101	65.88
857.276	-24.23
857.45	-7.85
857.625	90.45
857.799	-9.9
857.974	108.88
858.148	-1.71
858.323	82.26
858.497	61.78
858.672	-20.14
858.846	18.77
859.02	14.68
859.195	8.53
859.369	24.92
859.543	-30.38
859.718	-50.86
859.892	63.83
860.066	57.68
860.241	31.06
860.415	104.79
860.589	-16.04
860.763	35.16
860.938	-26.28
861.112	61.78
861.286	12.63
861.46	55.64
861.634	45.4
861.808	16.73
861.982	8.53
862.157	-11.95
862.331	29.01
862.505	88.4
862.679	39.25
862.853	-81.58
863.027	10.58
863.201	31.06
863.375	-73.39
863.549	-1.71
863.722	63.83
863.896	80.21
864.07	10.58
864.244	49.49
864.418	-5.8
864.592	39.25
864.766	10.58
864.939	-42.67
865.113	51.54
865.287	65.88
865.461	35.16
865.634	51.54
865.808	100.69
865.982	-65.19
866.156	-3.75
866.329	-9.9
866.503	39.25
866.676	88.4
866.85	-26.28
867.024	57.68
867.197	74.07
867.371	18.77
867.544	104.79
867.718	63.83
867.891	41.3
868.065	-13.99
868.238	-46.76
868.412	22.87
868.585	137.56
868.759	2.39
868.932	39.25
869.105	-48.81
869.279	6.49
869.452	-63.15
869.625	-40.62
869.799	31.06
869.972	31.06
870.145	14.68
870.319	137.56
870.492	-18.09
870.665	-26.28
870.838	39.25
871.011	53.59
871.185	-5.8
871.358	80.21
871.531	18.77
871.704	35.16
871.877	26.96
872.05	16.73
872.223	31.06
872.396	-36.52
872.569	10.58
872.742	22.87
872.915	49.49
873.088	55.64
873.261	65.88
873.434	-36.52
873.607	-1.71
873.78	33.11
873.953	-36.52
874.126	-1.71
874.299	141.65
874.471	-42.67
874.644	14.68
874.817	16.73
874.99	20.82
875.163	-28.33
875.335	33.11
875.508	8.53
875.681	59.73
875.853	10.58
876.026	-50.86
876.199	6.49
876.371	31.06
876.544	6.49
876.717	135.51
876.889	0.34
877.062	4.44
877.234	-77.48
877.407	14.68
877.579	59.73
877.752	29.01
877.924	18.77
878.097	-5.8
878.269	26.96
878.442	-59.05
878.614	-18.09
878.786	55.64
878.959	100.69
879.131	82.26
879.303	-40.62
879.476	47.44
879.648	84.31
879.82	-42.67
879.993	49.49
880.165	29.01
880.337	-16.04
880.509	26.96
880.681	12.63
880.854	61.78
881.026	82.26
881.198	82.26
881.37	57.68
881.542	104.79
881.714	-16.04
881.886	4.44
882.058	-34.47
882.23	10.58
882.402	24.92
882.574	-50.86
882.746	-9.9
882.918	112.98
883.09	-24.23
883.262	-3.75
883.434	-5.8
883.606	-34.47
883.778	-13.99
883.95	45.4
884.122	10.58
884.293	47.44
884.465	24.92
884.637	-9.9
884.809	4.44
884.98	8.53
885.152	82.26
885.324	24.92
885.496	51.54
885.667	-65.19
885.839	-1.71
886.011	12.63
886.182	-30.38
886.354	57.68
886.525	39.25
886.697	18.77
886.869	-26.28
887.04	37.2
887.212	29.01
887.383	-1.71
887.555	49.49
887.726	74.07
887.897	-3.75
888.069	43.35
888.24	74.07
888.412	31.06
888.583	14.68
888.754	31.06
888.926	14.68
889.097	117.08
889.268	-9.9
889.44	33.11
889.611	0.34
889.782	8.53
889.953	-34.47
890.125	49.49
890.296	-42.67
890.467	-32.43
890.638	2.39
890.809	24.92
890.98	18.77
891.151	29.01
891.323	24.92
891.494	33.11
891.665	-34.47
891.836	24.92
892.007	6.49
892.178	45.4
892.349	-28.33
892.52	-16.04
892.691	-59.05
892.862	-3.75
893.032	-89.77
893.203	-48.81
893.374	78.16
893.545	-32.43
893.716	-26.28
893.887	-1.71
894.057	0.34
894.228	26.96
894.399	16.73
894.57	96.6
894.74	106.84
894.911	-18.09
895.082	-18.09
895.253	-26.28
895.423	24.92
895.594	29.01
895.764	-42.67
895.935	31.06
896.106	16.73
896.276	-13.99
896.447	-9.9
896.617	39.25
896.788	18.77
896.958	-81.58
897.129	-34.47
897.299	-1.71
897.47	39.25
897.64	8.53
897.81	8.53
897.981	6.49
898.151	-16.04
898.322	37.2
898.492	-5.8
898.662	10.58
898.832	-5.8
899.003	-26.28
899.173	39.25
899.343	63.83
899.513	-40.62
