Data from USB4F104151__154__14-19-29-908.txt Node

Date: Thu Mar 13 14:19:29 EDT 2025
User: louis
Spectrometer: USB4F10415
Trigger mode: 4
Integration Time (sec): 2.000000E-2
Scans to average: 1
Electric dark correction enabled: true
Nonlinearity correction enabled: false
Boxcar width: 0
XAxis mode: Wavelengths
Number of Pixels in Spectrum: 3648
>>>>>Begin Spectral Data<<<<<
178.204	-121.85
178.424	-121.85
178.644	-121.85
178.864	-136.19
179.084	-62.46
179.304	-37.89
179.524	-21.5
179.744	31.74
179.964	29.7
180.184	19.46
180.404	84.99
180.624	-41.98
180.844	29.7
181.064	-44.03
181.283	-62.46
181.503	-1.02
181.723	13.31
181.943	-17.41
182.163	138.24
182.383	44.03
182.602	29.7
182.822	17.41
183.042	-7.17
183.262	68.61
183.482	-7.17
183.701	93.18
183.921	70.65
184.141	-66.56
184.361	72.7
184.58	11.26
184.8	3.07
185.02	48.13
185.239	56.32
185.459	9.22
185.679	84.99
185.898	-46.08
186.118	27.65
186.338	-17.41
186.557	101.37
186.777	66.56
186.997	15.36
187.216	-17.41
187.436	62.46
187.655	56.32
187.875	97.28
188.095	-27.65
188.314	44.03
188.534	68.61
188.753	-41.98
188.973	60.42
189.192	87.04
189.412	-21.5
189.631	7.17
189.851	27.65
190.07	56.32
190.29	35.84
190.509	39.94
190.729	89.09
190.948	97.28
191.168	109.57
191.387	93.18
191.607	-21.5
191.826	72.7
192.045	37.89
192.265	52.22
192.484	56.32
192.704	48.13
192.923	-27.65
193.142	9.22
193.362	31.74
193.581	52.22
193.8	-17.41
194.02	117.76
194.239	-11.26
194.458	60.42
194.678	-9.22
194.897	7.17
195.116	29.7
195.335	105.47
195.555	54.27
195.774	-3.07
195.993	70.65
196.212	35.84
196.432	-13.31
196.651	-52.22
196.87	27.65
197.089	97.28
197.308	-25.6
197.528	44.03
197.747	13.31
197.966	27.65
198.185	78.85
198.404	48.13
198.623	82.94
198.842	27.65
199.062	-13.31
199.281	84.99
199.5	27.65
199.719	56.32
199.938	68.61
200.157	60.42
200.376	128
200.595	21.5
200.814	84.99
201.033	76.8
201.252	48.13
201.471	60.42
201.69	39.94
201.909	70.65
202.128	107.52
202.347	82.94
202.566	19.46
202.785	25.6
203.004	70.65
203.223	19.46
203.442	25.6
203.661	19.46
203.879	17.41
204.098	48.13
204.317	60.42
204.536	3.07
204.755	15.36
204.974	74.75
205.193	-19.46
205.411	70.65
205.63	78.85
205.849	68.61
206.068	76.8
206.287	-13.31
206.505	54.27
206.724	-1.02
206.943	21.5
207.162	66.56
207.381	70.65
207.599	35.84
207.818	31.74
208.037	-9.22
208.255	-21.5
208.474	128
208.693	52.22
208.911	80.89
209.13	13.31
209.349	29.7
209.567	29.7
209.786	109.57
210.005	80.89
210.223	66.56
210.442	-5.12
210.661	35.84
210.879	-33.79
211.098	72.7
211.316	-11.26
211.535	21.5
211.753	-17.41
211.972	68.61
212.191	-58.37
212.409	-41.98
212.628	80.89
212.846	54.27
213.065	35.84
213.283	72.7
213.502	56.32
213.72	60.42
213.938	27.65
214.157	46.08
214.375	76.8
214.594	56.32
214.812	37.89
215.031	-9.22
215.249	50.18
215.467	72.7
215.686	29.7
215.904	76.8
216.122	56.32
216.341	44.03
216.559	-37.89
216.778	-21.5
216.996	33.79
217.214	11.26
217.432	68.61
217.651	23.55
217.869	46.08
218.087	93.18
218.306	13.31
218.524	11.26
218.742	-21.5
218.96	60.42
219.179	21.5
219.397	46.08
219.615	93.18
219.833	44.03
220.051	-9.22
220.27	21.5
220.488	68.61
220.706	78.85
220.924	48.13
221.142	31.74
221.36	50.18
221.578	70.65
221.796	21.5
222.015	54.27
222.233	87.04
222.451	35.84
222.669	27.65
222.887	35.84
223.105	-21.5
223.323	11.26
223.541	13.31
223.759	13.31
223.977	31.74
224.195	15.36
224.413	35.84
224.631	-27.65
224.849	70.65
225.067	87.04
225.285	27.65
225.503	3.07
225.721	-11.26
225.939	3.07
226.157	31.74
226.375	84.99
226.592	78.85
226.81	44.03
227.028	46.08
227.246	142.33
227.464	46.08
227.682	-21.5
227.9	68.61
228.117	29.7
228.335	-11.26
228.553	-25.6
228.771	13.31
228.989	48.13
229.206	1.02
229.424	72.7
229.642	39.94
229.86	13.31
230.077	39.94
230.295	-1.02
230.513	52.22
230.731	56.32
230.948	56.32
231.166	21.5
231.384	23.55
231.601	15.36
231.819	46.08
232.037	74.75
232.254	-15.36
232.472	11.26
232.689	44.03
232.907	39.94
233.125	27.65
233.342	31.74
233.56	31.74
233.777	84.99
233.995	5.12
234.213	48.13
234.43	23.55
234.648	78.85
234.865	44.03
235.083	111.61
235.3	68.61
235.518	-60.42
235.735	29.7
235.953	27.65
236.17	113.66
236.388	48.13
236.605	97.28
236.822	44.03
237.04	3.07
237.257	-5.12
237.475	3.07
237.692	11.26
237.909	3.07
238.127	87.04
238.344	78.85
238.562	76.8
238.779	-5.12
238.996	17.41
239.214	17.41
239.431	41.98
239.648	-21.5
239.865	60.42
240.083	37.89
240.3	11.26
240.517	25.6
240.735	11.26
240.952	33.79
241.169	89.09
241.386	121.85
241.603	19.46
241.821	-25.6
242.038	117.76
242.255	101.37
242.472	44.03
242.689	62.46
242.907	13.31
243.124	121.85
243.341	1.02
243.558	19.46
243.775	21.5
243.992	-25.6
244.209	109.57
244.426	78.85
244.643	64.51
244.86	66.56
245.078	117.76
245.295	37.89
245.512	62.46
245.729	-62.46
245.946	80.89
246.163	7.17
246.38	-27.65
246.597	109.57
246.814	29.7
247.031	39.94
247.248	93.18
247.464	44.03
247.681	-5.12
247.898	-5.12
248.115	-37.89
248.332	37.89
248.549	52.22
248.766	44.03
248.983	95.23
249.2	33.79
249.417	39.94
249.633	46.08
249.85	70.65
250.067	72.7
250.284	56.32
250.501	39.94
250.717	72.7
250.934	-13.31
251.151	111.61
251.368	31.74
251.585	15.36
251.801	3.07
252.018	80.89
252.235	37.89
252.451	11.26
252.668	-25.6
252.885	109.57
253.102	56.32
253.318	103.42
253.535	41.98
253.752	19.46
253.968	-41.98
254.185	-1.02
254.401	1.02
254.618	27.65
254.835	31.74
255.051	11.26
255.268	91.13
255.484	87.04
255.701	72.7
255.917	60.42
256.134	-5.12
256.351	23.55
256.567	5.12
256.784	123.9
257	23.55
257.217	68.61
257.433	44.03
257.65	-11.26
257.866	68.61
258.082	5.12
258.299	17.41
258.515	-5.12
258.732	-25.6
258.948	-5.12
259.165	52.22
259.381	76.8
259.597	27.65
259.814	33.79
260.03	11.26
260.246	44.03
260.463	64.51
260.679	27.65
260.895	15.36
261.112	48.13
261.328	-29.7
261.544	-17.41
261.761	97.28
261.977	37.89
262.193	-9.22
262.409	54.27
262.626	13.31
262.842	27.65
263.058	54.27
263.274	33.79
263.49	7.17
263.707	95.23
263.923	87.04
264.139	60.42
264.355	3.07
264.571	23.55
264.787	80.89
265.004	76.8
265.22	68.61
265.436	37.89
265.652	-3.07
265.868	31.74
266.084	54.27
266.3	35.84
266.516	9.22
266.732	68.61
266.948	101.37
267.164	-5.12
267.38	101.37
267.596	19.46
267.812	70.65
268.028	31.74
268.244	70.65
268.46	101.37
268.676	95.23
268.892	-46.08
269.108	-44.03
269.324	39.94
269.54	91.13
269.756	84.99
269.972	-27.65
270.188	101.37
270.403	44.03
270.619	146.43
270.835	89.09
271.051	72.7
271.267	64.51
271.483	-13.31
271.698	-1.02
271.914	21.5
272.13	66.56
272.346	-41.98
272.562	9.22
272.777	72.7
272.993	33.79
273.209	23.55
273.425	-33.79
273.64	37.89
273.856	60.42
274.072	-44.03
274.287	76.8
274.503	103.42
274.719	80.89
274.934	31.74
275.15	29.7
275.366	62.46
275.581	9.22
275.797	-19.46
276.012	35.84
276.228	-21.5
276.444	-1.02
276.659	175.1
276.875	101.37
277.09	48.13
277.306	39.94
277.521	60.42
277.737	39.94
277.952	50.18
278.168	58.37
278.383	44.03
278.599	-29.7
278.814	21.5
279.03	52.22
279.245	64.51
279.461	64.51
279.676	48.13
279.892	58.37
280.107	21.5
280.322	56.32
280.538	9.22
280.753	15.36
280.969	76.8
281.184	19.46
281.399	21.5
281.615	-5.12
281.83	58.37
282.045	13.31
282.26	103.42
282.476	29.7
282.691	113.66
282.906	35.84
283.122	27.65
283.337	-3.07
283.552	160.77
283.767	87.04
283.983	60.42
284.198	1.02
284.413	64.51
284.628	41.98
284.843	3.07
285.058	78.85
285.274	-5.12
285.489	-13.31
285.704	150.53
285.919	19.46
286.134	46.08
286.349	39.94
286.564	44.03
286.779	66.56
286.995	21.5
287.21	-11.26
287.425	64.51
287.64	35.84
287.855	48.13
288.07	-39.94
288.285	84.99
288.5	56.32
288.715	60.42
288.93	23.55
289.145	62.46
289.36	27.65
289.575	35.84
289.79	33.79
290.004	-19.46
290.219	29.7
290.434	29.7
290.649	33.79
290.864	117.76
291.079	-35.84
291.294	19.46
291.509	23.55
291.724	33.79
291.938	-11.26
292.153	54.27
292.368	74.75
292.583	66.56
292.798	146.43
293.012	19.46
293.227	52.22
293.442	19.46
293.657	37.89
293.871	117.76
294.086	66.56
294.301	68.61
294.516	128
294.73	19.46
294.945	-23.55
295.16	78.85
295.374	54.27
295.589	76.8
295.804	5.12
296.018	-3.07
296.233	103.42
296.447	44.03
296.662	44.03
296.877	121.85
297.091	29.7
297.306	-13.31
297.52	46.08
297.735	25.6
297.949	13.31
298.164	125.95
298.378	21.5
298.593	3.07
298.807	46.08
299.022	29.7
299.236	35.84
299.451	25.6
299.665	82.94
299.88	44.03
300.094	44.03
300.309	76.8
300.523	33.79
300.737	68.61
300.952	70.65
301.166	29.7
301.381	29.7
301.595	31.74
301.809	46.08
302.024	-19.46
302.238	5.12
302.452	119.81
302.667	54.27
302.881	35.84
303.095	84.99
303.309	52.22
303.524	-13.31
303.738	44.03
303.952	44.03
304.166	72.7
304.381	-17.41
304.595	56.32
304.809	91.13
305.023	35.84
305.237	-44.03
305.452	3.07
305.666	56.32
305.88	11.26
306.094	31.74
306.308	68.61
306.522	99.33
306.736	52.22
306.95	3.07
307.164	35.84
307.379	76.8
307.593	121.85
307.807	70.65
308.021	93.18
308.235	-1.02
308.449	-37.89
308.663	44.03
308.877	109.57
309.091	29.7
309.305	62.46
309.519	5.12
309.733	84.99
309.947	46.08
310.161	52.22
310.374	-78.85
310.588	70.65
310.802	64.51
311.016	64.51
311.23	52.22
311.444	27.65
311.658	87.04
311.872	31.74
312.085	109.57
312.299	84.99
312.513	35.84
312.727	76.8
312.941	31.74
313.154	80.89
313.368	37.89
313.582	62.46
313.796	35.84
314.009	37.89
314.223	78.85
314.437	52.22
314.651	19.46
314.864	29.7
315.078	68.61
315.292	-35.84
315.505	19.46
315.719	29.7
315.933	109.57
316.146	-5.12
316.36	33.79
316.573	39.94
316.787	56.32
317.001	80.89
317.214	52.22
317.428	44.03
317.641	11.26
317.855	70.65
318.068	72.7
318.282	64.51
318.495	60.42
318.709	72.7
318.922	31.74
319.136	48.13
319.349	66.56
319.563	17.41
319.776	109.57
319.99	-15.36
320.203	78.85
320.417	37.89
320.63	-5.12
320.843	44.03
321.057	37.89
321.27	52.22
321.483	62.46
321.697	54.27
321.91	11.26
322.124	64.51
322.337	56.32
322.55	39.94
322.763	15.36
322.977	46.08
323.19	11.26
323.403	-13.31
323.617	35.84
323.83	113.66
324.043	46.08
324.256	27.65
324.469	31.74
324.683	62.46
324.896	64.51
325.109	48.13
325.322	72.7
325.535	27.65
325.748	54.27
325.962	44.03
326.175	3.07
326.388	56.32
326.601	62.46
326.814	27.65
327.027	29.7
327.24	101.37
327.453	33.79
327.666	19.46
327.879	3.07
328.092	64.51
328.305	35.84
328.518	-58.37
328.731	-39.94
328.944	58.37
329.157	93.18
329.37	44.03
329.583	21.5
329.796	62.46
330.009	-78.85
330.222	109.57
330.435	37.89
330.648	27.65
330.861	37.89
331.073	-17.41
331.286	105.47
331.499	39.94
331.712	76.8
331.925	35.84
332.138	70.65
332.35	-15.36
332.563	-13.31
332.776	97.28
332.989	-62.46
333.202	52.22
333.414	29.7
333.627	87.04
333.84	-13.31
334.053	37.89
334.265	3.07
334.478	175.1
334.691	11.26
334.903	-11.26
335.116	76.8
335.329	31.74
335.541	84.99
335.754	52.22
335.966	31.74
336.179	19.46
336.392	3.07
336.604	37.89
336.817	54.27
337.029	13.31
337.242	27.65
337.454	39.94
337.667	46.08
337.88	95.23
338.092	3.07
338.305	101.37
338.517	9.22
338.729	74.75
338.942	31.74
339.154	72.7
339.367	54.27
339.579	39.94
339.792	52.22
340.004	44.03
340.217	1.02
340.429	84.99
340.641	80.89
340.854	62.46
341.066	37.89
341.278	146.43
341.491	62.46
341.703	62.46
341.915	-15.36
342.128	60.42
342.34	80.89
342.552	29.7
342.764	11.26
342.977	3.07
343.189	35.84
343.401	78.85
343.613	35.84
343.826	31.74
344.038	31.74
344.25	52.22
344.462	-9.22
344.674	93.18
344.886	60.42
345.099	148.48
345.311	11.26
345.523	109.57
345.735	35.84
345.947	105.47
346.159	56.32
346.371	117.76
346.583	21.5
346.795	29.7
347.007	111.61
347.219	68.61
347.431	72.7
347.643	105.47
347.855	27.65
348.067	68.61
348.279	64.51
348.491	54.27
348.703	56.32
348.915	56.32
349.127	15.36
349.339	68.61
349.551	37.89
349.763	95.23
349.975	66.56
350.187	140.29
350.399	-7.17
350.61	76.8
350.822	44.03
351.034	80.89
351.246	56.32
351.458	52.22
351.669	54.27
351.881	70.65
352.093	68.61
352.305	87.04
352.517	62.46
352.728	39.94
352.94	44.03
353.152	-9.22
353.363	7.17
353.575	35.84
353.787	109.57
353.999	35.84
354.21	62.46
354.422	-27.65
354.633	37.89
354.845	29.7
355.057	15.36
355.268	97.28
355.48	-19.46
355.692	15.36
355.903	25.6
356.115	31.74
356.326	54.27
356.538	70.65
356.749	93.18
356.961	89.09
357.172	93.18
357.384	60.42
357.595	130.05
357.807	84.99
358.018	31.74
358.23	-5.12
358.441	132.09
358.653	15.36
358.864	37.89
359.075	-13.31
359.287	60.42
359.498	62.46
359.709	56.32
359.921	50.18
360.132	93.18
360.344	97.28
360.555	52.22
360.766	13.31
360.977	142.33
361.189	60.42
361.4	46.08
361.611	89.09
361.823	105.47
362.034	62.46
362.245	103.42
362.456	19.46
362.667	84.99
362.879	31.74
363.09	25.6
363.301	23.55
363.512	-23.55
363.723	105.47
363.935	84.99
364.146	56.32
364.357	72.7
364.568	29.7
364.779	54.27
364.99	41.98
365.201	87.04
365.412	66.56
365.623	27.65
365.834	60.42
366.045	44.03
366.256	117.76
366.467	154.62
366.678	62.46
366.889	84.99
367.1	5.12
367.311	80.89
367.522	66.56
367.733	15.36
367.944	72.7
368.155	76.8
368.366	-9.22
368.577	35.84
368.788	76.8
368.999	7.17
369.209	72.7
369.42	123.9
369.631	125.95
369.842	60.42
370.053	56.32
370.264	101.37
370.474	-3.07
370.685	78.85
370.896	103.42
371.107	44.03
371.317	113.66
371.528	27.65
371.739	89.09
371.95	101.37
372.16	109.57
372.371	109.57
372.582	19.46
372.792	140.29
373.003	54.27
373.214	68.61
373.424	-21.5
373.635	37.89
373.846	134.14
374.056	39.94
374.267	117.76
374.477	72.7
374.688	37.89
374.898	87.04
375.109	11.26
375.319	144.38
375.53	78.85
375.74	76.8
375.951	11.26
376.161	-25.6
376.372	160.77
376.582	35.84
376.793	128
377.003	21.5
377.214	60.42
377.424	60.42
377.635	33.79
377.845	56.32
378.055	99.33
378.266	-3.07
378.476	130.05
378.686	-46.08
378.897	-13.31
379.107	138.24
379.317	52.22
379.528	41.98
379.738	64.51
379.948	27.65
380.158	111.61
380.369	101.37
380.579	11.26
380.789	46.08
380.999	84.99
381.21	89.09
381.42	109.57
381.63	37.89
381.84	134.14
382.05	68.61
382.261	-25.6
382.471	109.57
382.681	80.89
382.891	125.95
383.101	35.84
383.311	52.22
383.521	105.47
383.731	80.89
383.941	70.65
384.151	64.51
384.361	144.38
384.571	3.07
384.781	62.46
384.991	142.33
385.201	113.66
385.411	84.99
385.621	91.13
385.831	-15.36
386.041	119.81
386.251	113.66
386.461	115.71
386.671	62.46
386.881	70.65
387.091	70.65
387.301	87.04
387.511	87.04
387.72	119.81
387.93	87.04
388.14	62.46
388.35	31.74
388.56	87.04
388.769	103.42
388.979	60.42
389.189	105.47
389.399	76.8
389.609	179.2
389.818	89.09
390.028	50.18
390.238	101.37
390.447	68.61
390.657	144.38
390.867	37.89
391.076	76.8
391.286	17.41
391.496	72.7
391.705	82.94
391.915	105.47
392.125	95.23
392.334	68.61
392.544	56.32
392.753	52.22
392.963	60.42
393.172	103.42
393.382	103.42
393.591	130.05
393.801	134.14
394.01	130.05
394.22	70.65
394.429	97.28
394.639	150.53
394.848	177.15
395.058	97.28
395.267	56.32
395.477	125.95
395.686	89.09
395.895	97.28
396.105	111.61
396.314	101.37
396.524	80.89
396.733	128
396.942	130.05
397.152	91.13
397.361	97.28
397.57	117.76
397.78	142.33
397.989	136.19
398.198	281.6
398.407	119.81
398.617	115.71
398.826	154.62
399.035	103.42
399.244	158.72
399.453	128
399.663	152.57
399.872	142.33
400.081	76.8
400.29	185.34
400.499	138.24
400.708	234.49
400.917	164.86
401.127	171.01
401.336	181.25
401.545	205.82
401.754	164.86
401.963	183.29
402.172	181.25
402.381	179.2
402.59	41.98
402.799	150.53
403.008	105.47
403.217	269.31
403.426	173.05
403.635	211.96
403.844	158.72
404.053	259.07
404.262	226.3
404.471	191.49
404.68	183.29
404.888	228.35
405.097	191.49
405.306	201.72
405.515	207.87
405.724	166.91
405.933	191.49
406.142	160.77
406.35	248.83
406.559	183.29
406.768	209.92
406.977	289.79
407.185	187.39
407.394	257.02
407.603	257.02
407.812	347.13
408.02	257.02
408.229	199.68
408.438	314.36
408.646	273.4
408.855	326.65
409.064	287.74
409.272	355.32
409.481	357.37
409.69	273.4
409.898	340.99
410.107	379.9
410.315	398.33
410.524	431.1
410.733	404.47
410.941	377.85
411.15	506.87
411.358	506.87
411.567	553.98
411.775	496.63
411.984	478.2
412.192	529.4
412.401	519.16
412.609	572.41
412.818	631.8
413.026	670.71
413.234	637.94
413.443	652.28
413.651	748.53
413.86	717.81
414.068	719.86
414.276	707.57
414.485	762.87
414.693	807.92
414.901	850.93
415.11	805.88
415.318	857.07
415.526	891.89
415.734	961.52
415.943	959.47
416.151	941.04
416.359	1022.96
416.567	1084.4
416.776	1088.5
416.984	1199.09
417.192	1262.57
417.4	1151.98
417.608	1178.61
417.817	1274.86
418.025	1268.72
418.233	1479.66
418.441	1317.87
418.649	1461.23
418.857	1489.9
419.065	1584.1
419.273	1553.38
419.481	1627.11
419.689	1674.21
419.897	1895.4
420.105	1874.92
420.313	1905.63
420.521	1997.79
420.729	1924.07
420.937	2120.67
421.145	2147.3
421.353	2233.31
421.561	2274.27
421.769	2413.53
421.977	2597.85
422.185	2413.53
422.393	2610.14
422.601	2694.1
422.809	2640.86
423.017	2743.25
423.224	2849.75
423.432	3034.07
423.64	3079.12
423.848	3324.88
424.056	3128.27
424.263	3285.97
424.471	3288.01
424.679	3451.85
424.887	3613.64
425.094	3707.85
425.302	3726.28
425.51	4043.71
425.718	4086.72
425.925	4164.54
426.133	4189.12
426.341	4502.46
426.548	4494.27
426.756	4758.46
426.964	4672.44
427.171	5110.71
427.379	5174.19
427.586	5247.92
427.794	5385.13
428.001	5610.41
428.209	5907.37
428.417	5657.51
428.624	6161.31
428.832	6253.47
429.039	6093.73
429.247	6069.16
429.454	6757.27
429.662	7154.58
429.869	6656.92
430.076	7175.06
430.284	6835.1
430.491	7287.7
430.699	7560.08
430.906	7603.08
431.114	7768.97
431.321	7994.25
431.528	8309.63
431.736	8565.63
431.943	9057.14
432.15	8801.15
432.358	8997.75
432.565	9354.1
432.772	9311.09
432.979	9939.82
433.187	10040.17
433.394	9984.87
433.601	10822.49
433.808	10931.03
434.016	10640.22
434.223	11111.25
434.43	12020.55
434.637	11639.63
434.844	12284.74
435.052	12489.54
435.259	12618.56
435.466	12417.86
435.673	12430.15
435.88	13249.33
436.087	13949.74
436.294	14099.24
436.501	13585.2
436.708	13929.26
436.915	14588.71
437.122	15008.54
437.329	14863.13
437.537	15348.5
437.743	15801.1
437.95	15362.84
438.157	16276.23
438.364	16919.29
438.571	16657.15
438.778	16966.4
438.985	18598.63
439.192	17636.08
439.399	18346.73
439.606	17894.13
439.813	19010.27
440.02	19913.42
440.227	19729.11
440.433	19436.25
440.64	20126.41
440.847	20017.87
441.054	20517.57
441.261	21754.55
441.467	21615.29
441.674	22207.15
441.881	22524.58
442.088	22428.33
442.294	22545.06
442.501	23216.8
442.708	23444.12
442.914	24627.85
443.121	25617.02
443.328	24666.76
443.534	26446.44
443.741	25870.97
443.948	25420.41
444.154	27454.05
444.361	26976.87
444.568	27247.2
444.774	27312.74
444.981	27736.66
445.187	28379.73
445.394	29305.41
445.6	29217.35
445.807	31732.25
446.013	30673.45
446.22	31425.06
446.426	32375.31
446.633	32713.23
446.839	33495.55
447.046	32102.93
447.252	34130.42
447.459	33962.49
447.665	34019.83
447.871	35602.91
448.078	36678.1
448.284	35232.23
448.491	36151.77
448.697	37398.98
448.903	38123.96
449.11	38138.3
449.316	37419.46
449.522	38345.14
449.728	39166.38
449.935	39602.6
450.141	39403.94
450.347	40262.04
450.553	39166.38
450.76	39596.45
450.966	41019.79
451.172	40563.09
451.378	41263.5
451.584	40759.7
451.791	41499.01
451.997	41286.03
452.203	42199.42
452.409	42080.64
452.615	41697.67
452.821	40214.94
453.027	39778.72
453.233	41877.89
453.44	40632.72
453.646	41222.54
453.852	41181.58
454.058	41847.17
454.264	40610.2
454.47	41369.99
454.676	40026.53
454.882	41812.35
455.088	37884.35
455.294	38932.91
455.5	39170.47
455.705	39782.82
455.911	38214.07
456.117	37355.97
456.323	36940.24
456.529	35088.87
456.735	36684.24
456.941	35557.86
457.147	35004.91
457.352	33939.96
457.558	33595.9
457.764	33505.79
457.97	33167.88
458.176	32272.92
458.381	32234
458.587	30472.75
458.793	30655.02
458.999	29262.4
459.204	31447.58
459.41	30517.81
459.616	28367.44
459.821	28365.39
460.027	28306
460.233	27710.04
460.438	26716.78
460.644	26690.15
460.85	25141.89
461.055	25019.01
461.261	25010.82
461.466	23632.54
461.672	22489.77
461.878	24052.37
462.083	22368.94
462.289	22268.59
462.494	22104.75
462.7	20837.06
462.905	20224.72
463.111	21201.6
463.316	21455.54
463.522	20650.69
463.727	20812.48
463.932	20611.78
464.138	20611.78
464.343	20746.95
464.549	19675.86
464.754	20949.7
464.959	20370.12
465.165	20269.77
465.37	19497.69
465.575	19028.7
465.781	19868.37
465.986	20056.78
466.191	19024.61
466.397	18541.29
466.602	17867.5
466.807	18516.71
467.012	18485.99
467.218	18492.13
467.423	18209.51
467.628	18309.86
467.833	19198.68
468.038	17943.28
468.244	17720.05
468.449	18424.55
468.654	17847.02
468.859	17574.64
469.064	17679.09
469.269	17167.1
469.474	17001.21
469.679	17296.12
469.885	16788.22
470.09	17056.51
470.295	17091.32
470.5	16827.14
470.705	17044.22
470.91	16354.05
471.115	16110.35
471.32	16263.94
471.525	16136.97
471.73	16001.8
471.935	15842.06
472.139	15166.23
472.344	15485.72
472.549	15364.89
472.754	15088.41
472.959	14887.71
473.164	14705.44
473.369	14398.24
473.574	14908.19
473.778	14883.61
473.983	14773.02
474.188	14627.62
474.393	13964.07
474.598	13998.89
474.802	13959.98
475.007	13783.85
475.212	13853.48
475.417	13177.65
475.621	13398.84
475.826	13298.49
476.031	13095.74
476.235	12790.59
476.44	13026.11
476.645	12569.41
476.849	12583.74
477.054	12446.53
477.259	12483.39
477.463	12421.95
477.668	12077.9
477.872	12329.8
478.077	11875.15
478.282	11682.64
478.486	11615.05
478.691	11703.12
478.895	11602.77
479.1	11725.65
479.304	11598.67
479.509	11187.03
479.713	11393.87
479.918	11096.92
480.122	10949.46
480.326	11023.19
480.531	11187.03
480.735	10906.46
480.94	10986.33
481.144	11162.45
481.348	10683.23
481.553	10781.53
481.757	10466.14
481.961	10759
482.166	10812.25
482.37	10931.03
482.574	10480.48
482.778	10664.8
482.983	10679.13
483.187	10738.52
483.391	10697.56
483.595	10574.69
483.8	10548.06
484.004	10695.52
484.208	10775.39
484.412	10554.21
484.616	10611.55
484.821	10650.46
485.025	10382.18
485.229	10838.87
485.433	10496.86
485.637	10744.67
485.841	10521.44
486.045	10468.19
486.249	10656.61
486.453	10449.76
486.657	10373.99
486.861	10316.64
487.065	10335.07
487.269	10662.75
487.473	10308.45
487.677	10656.61
487.881	10677.09
488.085	10513.25
488.289	10677.09
488.493	10580.83
488.697	10873.69
488.901	10828.63
489.105	10619.74
489.309	10728.28
489.512	10670.94
489.716	10615.65
489.92	10636.13
490.124	10615.65
490.328	11053.91
490.531	10853.21
490.735	10822.49
490.939	10703.71
491.143	10677.09
491.346	10885.98
491.55	11055.96
491.754	10873.69
491.958	11074.39
492.161	10914.65
492.365	11164.5
492.569	11010.9
492.772	11111.25
492.976	11205.46
493.18	11348.82
493.383	11539.28
493.587	11391.83
493.79	11430.74
493.994	11449.17
494.197	11557.71
494.401	11549.52
494.605	11676.49
494.808	11944.78
495.012	11873.1
495.215	11938.63
495.419	11981.64
495.622	12010.31
495.825	12342.08
496.029	12114.76
496.232	12286.79
496.436	12303.17
496.639	12856.12
496.843	12483.39
497.046	12925.75
497.249	13011.77
497.453	13071.16
497.656	13513.52
497.859	13046.58
498.063	13241.14
498.266	13720.37
498.469	13697.84
498.673	13746.99
498.876	13755.18
499.079	14039.85
499.282	14168.87
499.485	14123.82
499.689	14400.29
499.892	14668.58
500.095	14451.49
500.298	15264.54
500.501	14682.91
500.705	15354.65
500.908	15487.76
501.111	15659.79
501.314	15602.45
501.517	15921.93
501.72	16083.72
501.923	16216.84
502.126	16225.03
502.329	16399.11
502.532	16521.99
502.735	16993.02
502.938	17279.74
503.141	17296.12
503.344	17578.74
503.547	17494.77
503.75	17771.25
503.953	17765.1
504.156	18191.08
504.359	18232.04
504.562	18516.71
504.765	18477.8
504.968	19088.09
505.17	19110.62
505.373	19028.7
505.576	19417.82
505.779	19571.41
505.982	19833.55
506.185	20136.65
506.387	20421.32
506.59	20300.49
506.793	20763.33
506.996	20757.19
507.198	21353.15
507.401	21000.9
507.604	21037.76
507.807	21873.33
508.009	21856.95
508.212	22289.07
508.415	22485.67
508.617	22530.73
508.82	22753.96
509.022	22485.67
509.225	23247.52
509.428	23321.24
509.63	23435.93
509.833	23650.97
510.035	24365.71
510.238	24146.58
510.44	24582.79
510.643	24558.22
510.845	25102.98
511.048	24564.36
511.25	25469.56
511.453	25555.58
511.655	26079.86
511.858	25938.55
512.06	26251.89
512.262	26399.34
512.465	26413.68
512.667	26815.08
512.87	27380.32
513.072	27400.8
513.274	27716.19
513.477	27900.5
513.679	28318.29
513.881	28385.87
514.084	28650.06
514.286	28879.43
514.488	29102.66
514.69	29921.85
514.893	29829.69
515.095	29798.97
515.297	30282.29
515.499	30249.52
515.701	30704.17
515.904	30808.62
516.106	31228.45
516.308	31556.13
516.51	31701.53
516.712	31912.47
516.914	32223.76
517.116	32715.28
517.318	32844.3
517.52	33032.71
517.722	33305.09
517.925	33550.85
518.127	33473.03
518.329	33827.32
518.531	33915.39
518.733	34748.91
518.935	34732.53
519.136	34693.61
519.338	35496.42
519.54	35705.31
519.742	35977.69
519.944	35977.69
520.146	36321.75
520.348	36297.17
520.55	36817.36
520.752	37259.72
520.954	37327.3
521.155	37048.78
521.357	37657.03
521.559	38279.61
521.761	38754.74
521.963	38693.3
522.164	38689.2
522.366	38937.01
522.568	39229.87
522.77	39725.47
522.971	39950.75
523.173	39324.07
523.375	40343.96
523.576	39850.4
523.778	40241.56
523.98	40804.75
524.181	40487.32
524.383	40731.03
524.584	41220.49
524.786	41697.67
524.988	41240.97
525.189	41697.67
525.391	42019.2
525.592	42064.25
525.794	42277.24
525.995	42084.73
526.197	42555.77
526.398	42944.88
526.6	42797.43
526.801	42953.07
527.003	42785.14
527.204	43585.89
527.406	43934.05
527.607	43616.61
527.808	43860.32
528.01	42951.02
528.211	43630.95
528.412	44239.2
528.614	44196.19
528.815	44157.28
529.016	44607.83
529.218	43909.47
529.419	44398.94
529.62	44499.29
529.822	44314.97
530.023	44386.65
530.224	44626.26
530.425	44835.16
530.626	44323.16
530.828	44423.51
531.029	45295.95
531.23	44757.33
531.431	44794.2
531.632	44798.29
531.833	44931.41
532.035	45234.51
532.236	44650.84
532.437	45562.18
532.638	44833.11
532.839	45082.96
533.04	45570.38
533.241	45072.72
533.442	45588.81
533.643	45330.76
533.844	45013.33
534.045	45400.4
534.246	45072.72
534.447	45779.27
534.648	44679.51
534.849	45812.04
535.05	44824.92
535.251	45375.82
535.451	45330.76
535.652	45461.83
535.853	45267.28
536.054	45424.97
536.255	45637.96
536.456	44763.48
536.657	45687.11
536.857	45420.87
537.058	44816.72
537.259	45320.52
537.46	45582.66
537.66	45218.13
537.861	45654.34
538.062	45166.93
538.263	45136.21
538.463	45146.45
538.664	44972.37
538.865	45410.64
539.065	45640.01
539.266	45035.86
539.466	45527.37
539.667	44845.4
539.868	45597
540.068	44990.8
540.269	44769.62
540.469	45386.06
540.67	44998.99
540.87	45363.53
541.071	44663.13
541.271	45193.55
541.472	44941.65
541.672	44786
541.873	44857.68
542.073	44450.14
542.274	45128.02
542.474	44966.23
542.675	44433.75
542.875	44958.03
543.075	45091.15
543.276	44640.6
543.476	45031.76
543.676	44341.6
543.877	45158.73
544.077	44818.77
544.277	44765.52
544.478	44448.09
544.678	44738.9
544.878	45015.38
545.078	44806.48
545.279	44859.73
545.479	44314.97
545.679	44769.62
545.879	44583.26
546.079	44360.03
546.28	44443.99
546.48	44054.88
546.68	44669.27
546.88	44450.14
547.08	44771.67
547.28	44718.42
547.48	44405.08
547.68	44769.62
547.88	44372.31
548.081	44597.59
548.281	44413.27
548.481	44274.01
548.681	44626.26
548.881	44949.84
549.081	44241.24
549.28	44398.94
549.48	44515.67
549.68	43786.6
549.88	44747.09
550.08	43805.03
550.28	44441.95
550.48	43946.34
550.68	44585.3
550.88	44181.85
551.08	44048.74
551.279	44376.41
551.479	43917.67
551.679	44515.67
551.879	44224.86
552.079	44419.42
552.278	43800.93
552.478	44550.49
552.678	43897.19
552.878	44306.78
553.077	43995.49
553.277	43497.83
553.477	44050.78
553.676	43639.14
553.876	44077.41
554.076	43645.29
554.275	43884.9
554.475	43407.72
554.674	44013.92
554.874	43649.38
555.074	43528.55
555.273	43993.44
555.473	43551.08
555.672	43098.48
555.872	43616.61
556.071	43618.66
556.271	43944.29
556.47	43385.19
556.67	43045.23
556.869	42811.76
557.068	43690.34
557.268	43352.43
557.467	43125.1
557.667	43018.61
557.866	43338.09
558.065	43141.49
558.265	42639.73
558.464	43053.42
558.663	43325.8
558.863	42721.65
559.062	43260.27
559.261	42658.17
559.461	43090.29
559.66	42641.78
559.859	42680.69
560.058	42307.96
560.258	42916.21
560.457	41941.38
560.656	42545.53
560.855	42047.87
561.054	42664.31
561.253	41933.18
561.453	42314.11
561.652	42174.84
561.851	42375.55
562.05	42039.68
562.249	41679.24
562.448	42633.59
562.647	41851.27
562.846	42072.45
563.045	42135.93
563.244	41324.94
563.443	42017.15
563.642	41300.36
563.841	41886.08
564.04	41064.85
564.239	41464.2
564.438	41372.04
564.637	41449.86
564.836	41537.93
565.035	41066.89
565.234	41132.43
565.432	40853.9
565.631	40870.29
565.83	40901.01
566.029	41046.41
566.228	40645.01
566.427	40348.06
566.625	40333.72
566.824	40337.82
567.023	40544.66
567.222	39854.5
567.42	40468.89
567.619	40286.62
567.818	39936.41
568.016	39584.16
568.215	40303
568.414	39936.41
568.612	40440.21
568.811	39731.62
569.01	40063.39
569.208	39309.74
569.407	39920.03
569.605	39477.67
569.804	39852.45
570.002	39098.8
570.201	39307.69
570.4	39012.78
570.598	39016.88
570.797	38832.56
570.995	39039.4
571.193	38691.25
571.392	39008.68
571.59	38822.32
571.789	38783.41
571.987	38703.54
572.186	38463.93
572.384	38230.46
572.582	38158.78
572.781	38771.12
572.979	37718.46
573.177	37951.93
573.376	38037.95
573.574	37523.91
573.772	38476.21
573.971	38191.55
574.169	37382.6
574.367	37206.47
574.565	37790.14
574.763	37355.97
574.962	37274.06
575.16	36866.51
575.358	37435.84
575.556	36878.8
575.754	37550.53
575.952	36698.58
576.151	37276.1
576.349	36489.68
576.547	36397.52
576.745	36530.64
576.943	36508.11
577.141	36800.97
577.339	36739.54
577.537	36610.51
577.735	36346.33
577.933	35912.16
578.131	36272.6
578.329	35537.38
578.527	35602.91
578.725	35682.78
578.923	35674.59
579.121	35504.61
579.319	35344.87
579.516	35725.79
579.714	35598.82
579.912	35543.52
580.11	35285.48
580.308	35140.07
580.506	35025.39
580.704	34886.12
580.901	35105.26
581.099	35185.13
581.297	34220.53
581.495	34886.12
581.692	34640.37
581.89	34152.95
582.088	34660.85
582.285	34218.49
582.483	34656.75
582.681	34372.08
582.878	34171.38
583.076	33686.01
583.274	34212.34
583.471	33831.42
583.669	33423.87
583.866	33692.16
584.064	33556.99
584.262	33382.91
584.459	33458.69
584.657	33266.18
584.854	33143.3
585.052	32915.98
585.249	33153.54
585.447	32860.68
585.644	32784.91
585.841	32881.16
586.039	33092.1
586.236	32702.99
586.434	32471.57
586.631	32373.27
586.828	32776.72
587.026	32875.02
587.223	32395.79
587.42	32168.47
587.618	32061.97
587.815	31875.61
588.012	31666.72
588.21	31783.45
588.407	32021.02
588.604	31640.09
588.801	31396.38
588.999	31328.8
589.196	31083.05
589.393	31605.28
589.59	31222.31
589.787	31203.88
589.984	30986.79
590.182	30937.64
590.379	31310.37
590.576	30937.64
590.773	30562.86
590.97	30726.7
591.167	30788.14
591.364	30333.49
591.561	30345.78
591.758	30110.26
591.955	30276.15
592.152	30667.31
592.349	30138.93
592.546	29858.36
592.743	29997.62
592.94	29305.41
593.137	29715
593.334	29651.52
593.531	29254.21
593.727	29471.29
593.924	29325.89
594.121	29332.03
594.318	29504.06
594.515	29039.17
594.712	29176.39
594.908	29082.18
595.105	28959.3
595.302	28949.06
595.499	28842.57
595.696	28770.89
595.892	28717.64
596.089	28652.11
596.286	28502.61
596.482	28195.41
596.679	28326.48
596.876	28314.19
597.072	28183.12
597.269	28195.41
597.466	27650.65
597.662	27968.09
597.859	27982.42
598.055	27890.26
598.252	27517.53
598.448	27445.85
598.645	27437.66
598.841	27118.18
599.038	27318.88
599.234	27062.88
599.431	26925.67
599.627	27406.94
599.824	27017.83
600.02	26700.39
600.217	26772.07
600.413	26483.31
600.609	26745.45
600.806	26368.62
601.002	26454.64
601.198	26258.03
601.395	26159.73
601.591	26215.02
601.787	26032.75
601.984	26311.28
602.18	26534.51
602.376	25963.12
602.572	25793.14
602.769	25881.21
602.965	25469.56
603.161	25891.44
603.357	25569.91
603.553	25483.9
603.75	25432.7
603.946	25113.22
604.142	25338.49
604.338	24820.36
604.534	25307.77
604.73	24849.03
604.926	24908.42
605.122	24906.37
605.318	24869.51
605.514	24566.41
605.71	24683.14
605.906	24560.27
606.102	24486.54
606.298	24439.44
606.494	24361.61
606.69	24382.09
606.886	24601.22
607.082	23919.25
607.278	24132.24
607.474	23749.27
607.67	24283.79
607.866	23804.56
608.062	24261.26
608.257	24048.27
608.453	24101.52
608.649	24001.17
608.845	23753.37
609.041	23796.37
609.236	23939.73
609.432	23485.08
609.628	23759.51
609.824	23509.66
610.019	23196.32
610.215	23423.64
610.411	23591.58
610.606	23712.41
610.802	23341.72
610.998	23317.15
611.193	23360.16
611.389	23089.82
611.584	23622.3
611.78	22897.31
611.976	22919.84
612.171	23055.01
612.367	23331.48
612.562	22934.18
612.758	22491.82
612.953	22659.75
613.149	22811.3
613.344	22606.5
613.539	23052.96
613.735	22747.81
613.93	22733.48
614.126	22579.88
614.321	22577.83
614.517	22770.34
614.712	22401.71
614.907	22669.99
615.103	22231.72
615.298	22270.64
615.493	22645.41
615.688	21893.81
615.884	22594.22
616.079	21805.75
616.274	21973.68
616.47	21951.15
616.665	21879.47
616.86	21861.04
617.055	22065.84
617.25	21541.56
617.445	21936.82
617.641	21656.25
617.836	21734.07
618.031	21332.67
618.226	21568.18
618.421	21568.18
618.616	21377.72
618.811	20875.97
619.006	21490.36
619.201	20966.08
619.396	21121.73
619.591	20775.62
619.786	20978.37
619.981	20607.69
620.176	20863.68
620.371	20511.43
620.566	20505.29
620.761	20488.9
620.956	20511.43
621.151	20032.21
621.346	20574.92
621.541	19827.41
621.735	20284.11
621.93	19686.1
622.125	19907.28
622.32	19569.37
622.515	19759.83
622.709	19319.51
622.904	19688.15
623.099	19491.54
623.294	19260.12
623.488	18830.05
623.683	19194.59
623.878	18946.78
624.072	18778.85
624.267	18651.88
624.462	18651.88
624.656	18424.55
624.851	18481.89
625.046	18336.49
625.24	18320.1
625.435	18402.02
625.629	17978.09
625.824	17961.71
626.018	17998.57
626.213	17679.09
626.407	17795.82
626.602	17513.2
626.796	17570.55
626.991	17304.31
627.185	17230.59
627.38	17224.44
627.574	17048.32
627.768	16626.43
627.963	17115.9
628.157	16802.56
628.352	16782.08
628.546	16550.66
628.74	16845.57
628.935	16710.4
629.129	16425.73
629.323	16186.12
629.517	16335.62
629.712	16220.94
629.906	16151.31
630.1	15942.41
630.294	16003.85
630.489	15792.91
630.683	15883.02
630.877	15471.38
631.071	15469.33
631.265	15678.22
631.459	15313.69
631.653	15432.47
631.848	15416.08
632.042	15225.62
632.236	15303.45
632.43	15196.95
632.624	15192.86
632.818	14709.54
633.012	14953.24
633.206	14658.34
633.4	14693.15
633.594	14467.88
633.788	14545.7
633.982	14431.01
634.176	14531.36
634.369	14263.08
634.563	14158.63
634.757	14209.83
634.951	14179.11
635.145	14037.8
635.339	14086.95
635.533	13833
635.726	13775.66
635.92	13847.34
636.114	13617.97
636.308	13642.54
636.501	13501.23
636.695	13515.57
636.889	13396.79
637.083	13347.64
637.276	13316.92
637.47	13093.69
637.664	12923.71
637.857	13075.26
638.051	13110.07
638.244	12921.66
638.438	12880.7
638.632	12915.51
638.825	12952.38
639.019	12823.36
639.212	12370.76
639.406	12395.33
639.599	12497.73
639.793	12258.12
639.986	12286.79
640.18	12264.26
640.373	12311.36
640.567	11963.21
640.76	12284.74
640.954	11995.98
641.147	11811.66
641.34	11897.67
641.534	11930.44
641.727	11850.57
641.92	11580.24
642.114	11576.14
642.307	11551.57
642.5	11602.77
642.694	11305.81
642.887	11494.22
643.08	11381.59
643.273	11232.08
643.467	11119.45
643.66	11162.45
643.853	11053.91
644.046	10816.35
644.239	10842.97
644.432	10996.57
644.626	10781.53
644.819	10681.18
645.012	10716
645.205	10629.98
645.398	10623.84
645.591	10513.25
645.784	10333.03
645.977	10314.59
646.17	10509.15
646.363	10283.88
646.556	10150.76
646.749	10316.64
646.942	10322.79
647.135	9925.48
647.328	9933.67
647.521	10275.68
647.714	9853.8
647.907	10048.36
648.099	9882.47
648.292	9915.24
648.485	9685.87
648.678	9638.76
648.871	9622.38
649.064	9401.2
649.256	9644.91
649.449	9507.69
649.642	9542.51
649.835	9325.43
650.027	9239.41
650.22	9286.51
650.413	9294.71
650.605	9212.79
650.798	9089.91
650.991	9180.02
651.183	9079.67
651.376	9012.09
651.568	9010.04
651.761	8932.22
651.954	8885.11
652.146	8776.57
652.339	8735.61
652.531	8698.75
652.724	8799.1
652.916	8688.51
653.109	8532.86
653.301	8481.66
653.494	8461.18
653.686	8436.61
653.879	8297.35
654.071	8319.87
654.263	8330.11
654.456	8375.17
654.648	8272.77
654.84	8137.6
655.033	8139.65
655.225	8022.92
655.417	7967.62
655.61	7990.15
655.802	7967.62
655.994	7771.02
656.186	8014.73
656.379	7797.64
656.571	7957.38
656.763	7719.82
656.955	7633.8
657.148	7820.17
657.34	7861.13
657.532	7435.15
657.724	7506.83
657.916	7771.02
658.108	7412.62
658.3	7439.25
658.492	7590.8
658.684	7392.14
658.876	7402.38
659.068	7357.33
659.26	7336.85
659.452	7226.26
659.644	7256.98
659.836	7052.18
660.028	7170.96
660.22	7035.8
660.412	7060.37
660.604	6994.84
660.796	7031.7
660.988	6929.3
661.18	6945.69
661.372	6747.03
661.563	7060.37
661.755	6892.44
661.947	6859.67
662.139	6792.09
662.331	6783.9
662.522	6663.07
662.714	6613.92
662.906	6613.92
663.097	6685.59
663.289	6474.65
663.481	6411.17
663.673	6409.12
663.864	6441.89
664.056	6411.17
664.247	6392.73
664.439	6253.47
664.631	6228.9
664.822	6179.75
665.014	6353.82
665.205	6452.13
665.397	6271.9
665.588	6368.16
665.78	6069.16
665.971	6142.88
666.163	6079.4
666.354	6106.02
666.546	5895.08
666.737	6024.1
666.929	5964.71
667.12	5968.8
667.311	5858.21
667.503	5862.31
667.694	5839.78
667.885	5696.43
668.077	5907.37
668.268	5706.66
668.459	5800.87
668.651	5819.3
668.842	5837.73
669.033	5632.94
669.224	5649.32
669.416	5704.62
669.607	5594.03
669.798	5737.38
669.989	5610.41
670.18	5557.16
670.371	5591.98
670.563	5483.44
670.754	5370.8
670.945	5299.12
671.136	5438.38
671.327	5383.09
671.518	5454.76
671.709	5233.58
671.9	5303.22
672.091	5415.85
672.282	5106.61
672.473	5307.31
672.664	5198.77
672.855	5292.98
673.046	5200.82
673.237	5094.32
673.428	5133.23
673.619	5215.15
673.809	5082.03
674	5090.23
674.191	5151.67
674.382	5051.31
674.573	4993.97
674.764	5157.81
674.954	4926.39
675.145	4873.14
675.336	5016.5
675.527	4934.58
675.717	5092.27
675.908	4887.48
676.099	4942.77
676.289	4910.01
676.48	4805.56
676.671	4748.22
676.861	4766.65
677.052	4733.88
677.243	4819.89
677.433	4797.37
677.624	4783.03
677.814	4770.74
678.005	4770.74
678.195	4737.98
678.386	4694.97
678.576	4764.6
678.767	4547.51
678.957	4647.87
679.148	4598.71
679.338	4764.6
679.529	4764.6
679.719	4522.94
679.909	4613.05
680.1	4647.87
680.29	4543.42
680.481	4533.18
680.671	4572.09
680.861	4596.67
681.052	4385.73
681.242	4641.72
681.432	4645.82
681.622	4549.56
681.813	4559.8
682.003	4606.91
682.193	4426.68
682.383	4434.88
682.573	4522.94
682.764	4379.58
682.954	4328.38
683.144	4305.85
683.334	4461.5
683.524	4447.16
683.714	4336.57
683.904	4336.57
684.094	4426.68
684.284	4361.15
684.474	4402.11
684.664	4293.57
684.854	4371.39
685.044	4232.13
685.234	4150.21
685.424	4273.09
685.614	4213.7
685.804	4287.42
685.994	4111.3
686.184	4090.82
686.374	4051.91
686.564	4207.55
686.753	4111.3
686.943	4049.86
687.133	4078.53
687.323	4094.91
687.513	4090.82
687.702	4076.48
687.892	3869.64
688.082	3920.84
688.272	4015.04
688.461	4002.75
688.651	3974.08
688.841	3935.17
689.03	3969.99
689.22	3922.88
689.41	3906.5
689.599	3724.23
689.789	4019.14
689.979	3750.85
690.168	3806.15
690.358	3791.81
690.547	3793.86
690.737	3861.45
690.926	3713.99
691.116	3728.33
691.305	3654.6
691.495	3716.04
691.684	3636.17
691.874	3701.7
692.063	3627.98
692.252	3582.92
692.442	3640.26
692.631	3599.31
692.82	3509.19
693.01	3685.32
693.199	3550.15
693.388	3537.87
693.578	3638.22
693.767	3412.94
693.956	3501
694.146	3562.44
694.335	3492.81
694.524	3568.59
694.713	3369.93
694.902	3445.71
695.092	3435.47
695.281	3265.49
695.47	3374.03
695.659	3371.98
695.848	3240.91
696.037	3251.15
696.226	3494.86
696.415	3279.82
696.604	3328.97
696.793	3337.17
696.982	3312.59
697.171	3304.4
697.36	3351.5
697.549	3331.02
697.738	3124.18
697.927	3199.95
698.116	3156.94
698.305	3232.72
698.494	3247.05
698.683	3236.81
698.872	3267.53
699.061	3222.48
699.25	3238.86
699.438	3214.29
699.627	3122.13
699.816	3163.09
700.005	3118.03
700.193	3144.66
700.382	3238.86
700.571	3128.27
700.76	3099.6
700.948	3193.81
701.137	3150.8
701.326	3124.18
701.514	3068.88
701.703	3134.42
701.892	2927.57
702.08	3126.22
702.269	2978.77
702.457	3007.44
702.646	2933.72
702.834	2989.01
703.023	2943.96
703.212	2989.01
703.4	3075.03
703.589	2993.11
703.777	3072.98
703.965	2913.24
704.154	2970.58
704.342	3001.3
704.531	2972.63
704.719	2839.51
704.907	3025.87
705.096	2821.08
705.284	2849.75
705.472	2872.28
705.661	2993.11
705.849	2878.42
706.037	2845.65
706.226	2853.84
706.414	2886.61
706.602	2960.34
706.79	2886.61
706.979	2905.04
707.167	2821.08
707.355	2943.96
707.543	2943.96
707.731	2816.98
707.919	2870.23
708.107	2999.25
708.296	2696.15
708.484	2804.69
708.672	2810.84
708.86	2788.31
709.048	2814.93
709.236	2780.12
709.424	2806.74
709.612	2804.69
709.8	2776.02
709.988	2939.86
710.176	2702.29
710.364	2812.89
710.551	2771.93
710.739	2737.11
710.927	2769.88
711.115	2767.83
711.303	2763.73
711.491	2765.78
711.679	2724.82
711.866	2700.25
712.054	2608.09
712.242	2698.2
712.43	2657.24
712.617	2720.73
712.805	2741.21
712.993	2673.62
713.181	2685.91
713.368	2690.01
713.556	2866.13
713.744	2612.18
713.931	2886.61
714.119	2653.14
714.306	2866.13
714.494	2657.24
714.682	2606.04
714.869	2624.47
715.057	2823.12
715.244	2501.59
715.432	2534.36
715.619	2579.42
715.807	2626.52
715.994	2593.75
716.182	2653.14
716.369	2526.17
716.556	2616.28
716.744	2593.75
716.931	2673.62
717.119	2487.26
717.306	2556.89
717.493	2571.22
717.681	2548.7
717.868	2685.91
718.055	2552.79
718.242	2610.14
718.43	2558.94
718.617	2634.71
718.804	2595.8
718.991	2616.28
719.179	2558.94
719.366	2423.77
719.553	2554.84
719.74	2528.22
719.927	2722.77
720.114	2464.73
720.301	2434.01
720.488	2444.25
720.676	2534.36
720.863	2552.79
721.05	2640.86
721.237	2477.02
721.424	2628.57
721.611	2411.48
721.798	2399.2
721.985	2477.02
722.172	2415.58
722.358	2477.02
722.545	2358.24
722.732	2431.96
722.919	2501.59
723.106	2378.72
723.293	2515.93
723.48	2497.5
723.667	2438.11
723.853	2477.02
724.04	2440.15
724.227	2534.36
724.414	2364.38
724.6	2468.83
724.787	2493.4
724.974	2380.76
725.161	2370.52
725.347	2380.76
725.534	2393.05
725.72	2407.39
725.907	2419.68
726.094	2468.83
726.28	2282.46
726.467	2427.87
726.653	2323.42
726.84	2444.25
727.027	2313.18
727.213	2276.32
727.4	2345.95
727.586	2280.41
727.773	2391
727.959	2399.2
728.145	2317.28
728.332	2288.61
728.518	2280.41
728.705	2261.98
728.891	2331.61
729.077	2251.74
729.264	2253.79
729.45	2323.42
729.636	2434.01
729.823	2264.03
730.009	2419.68
730.195	2395.1
730.382	2180.06
730.568	2182.11
730.754	2264.03
730.94	2276.32
731.126	2374.62
731.313	2298.84
731.499	2339.8
731.685	2255.84
731.871	2223.07
732.057	2274.27
732.243	2321.37
732.429	2200.54
732.615	2268.13
732.801	2294.75
732.987	2194.4
733.173	2198.49
733.359	2288.61
733.545	2075.62
733.731	2304.99
733.917	2225.12
734.103	2163.68
734.289	2171.87
734.475	2202.59
734.661	2327.52
734.847	2292.7
735.033	2145.25
735.219	2270.17
735.404	2165.73
735.59	2216.93
735.776	2186.21
735.962	2165.73
736.148	2061.28
736.333	2180.06
736.519	2120.67
736.705	2083.81
736.89	2182.11
737.076	2190.3
737.262	2151.39
737.447	2118.62
737.633	2239.45
737.819	2198.49
738.004	2137.06
738.19	1913.83
738.375	2108.38
738.561	2104.29
738.747	2108.38
738.932	1997.79
739.118	2077.66
739.303	2065.38
739.489	2182.11
739.674	2075.62
739.859	2024.42
740.045	2186.21
740.23	2163.68
740.416	1938.4
740.601	2067.42
740.786	1938.4
740.972	2036.7
741.157	2106.34
741.342	1940.45
741.528	1989.6
741.713	2044.9
741.898	2010.08
742.084	1993.7
742.269	2012.13
742.454	2010.08
742.639	1979.36
742.824	1850.34
743.01	1956.83
743.195	2020.32
743.38	1856.48
743.565	1971.17
743.75	1840.1
743.935	1965.03
744.12	1965.03
744.305	1905.63
744.49	1840.1
744.675	1854.44
744.86	1887.2
745.045	1860.58
745.23	1756.13
745.415	1844.2
745.6	1879.01
745.785	1870.82
745.97	1879.01
746.155	1823.72
746.34	1831.91
746.525	1737.7
746.71	1831.91
746.895	1706.98
747.079	1749.99
747.264	1780.71
747.449	1631.21
747.634	1725.41
747.819	1702.89
748.003	1684.45
748.188	1635.3
748.373	1590.25
748.557	1698.79
748.742	1629.16
748.927	1645.54
749.111	1600.49
749.296	1592.3
749.481	1729.51
749.665	1592.3
749.85	1620.97
750.034	1618.92
750.219	1553.38
750.404	1600.49
750.588	1586.15
750.773	1469.42
750.957	1614.82
751.141	1477.61
751.326	1534.95
751.51	1430.51
751.695	1389.55
751.879	1625.06
752.064	1438.7
752.248	1473.51
752.432	1426.41
752.617	1584.1
752.801	1496.04
752.985	1420.27
753.17	1473.51
753.354	1471.47
753.538	1326.06
753.722	1375.21
753.907	1260.52
754.091	1346.54
754.275	1324.01
754.459	1338.35
754.643	1340.4
754.828	1330.16
755.012	1207.28
755.196	1254.38
755.38	1301.48
755.564	1448.94
755.748	1149.93
755.932	1375.21
756.116	1321.96
756.3	1313.77
756.484	1160.17
756.668	1174.51
756.852	1166.32
757.036	1227.76
757.22	1194.99
757.404	1166.32
757.588	1207.28
757.772	1076.21
757.956	1219.57
758.14	1117.17
758.323	1188.85
758.507	1151.98
758.691	1149.93
758.875	1102.83
759.059	1192.94
759.242	1209.33
759.426	1151.98
759.61	1141.74
759.794	1108.98
759.977	1039.34
760.161	1061.87
760.345	1082.35
760.528	1133.55
760.712	1051.63
760.895	1090.54
761.079	969.71
761.263	1080.3
761.446	1076.21
761.63	1033.2
761.813	1004.53
761.997	955.38
762.18	1047.54
762.364	990.19
762.547	996.34
762.731	984.05
762.914	1059.82
763.098	951.28
763.281	977.91
763.464	969.71
763.648	982
763.831	963.57
764.015	945.14
764.198	895.99
764.381	945.14
764.564	1010.67
764.748	947.19
764.931	938.99
765.114	846.84
765.297	846.84
765.481	916.47
765.664	838.64
765.847	932.85
766.03	979.95
766.213	861.17
766.397	920.56
766.58	836.6
766.763	840.69
766.946	865.27
767.129	855.03
767.312	850.93
767.495	789.49
767.678	865.27
767.861	846.84
768.044	883.7
768.227	887.79
768.41	799.73
768.593	867.31
768.776	801.78
768.959	834.55
769.142	863.22
769.324	803.83
769.507	891.89
769.69	805.88
769.873	742.39
770.056	764.92
770.239	783.35
770.421	912.37
770.604	758.77
770.787	846.84
770.97	809.97
771.152	791.54
771.335	752.63
771.518	826.36
771.7	744.44
771.883	715.77
772.066	832.5
772.248	764.92
772.431	799.73
772.613	818.16
772.796	723.96
772.978	754.68
773.161	726
773.343	658.42
773.526	779.25
773.708	699.38
773.891	693.24
774.073	662.52
774.256	764.92
774.438	693.24
774.621	676.85
774.803	707.57
774.985	699.38
775.168	707.57
775.35	605.17
775.532	693.24
775.715	670.71
775.897	726
776.079	594.93
776.261	676.85
776.444	586.74
776.626	639.99
776.808	654.33
776.99	582.65
777.173	633.85
777.355	699.38
777.537	658.42
777.719	635.89
777.901	592.89
778.083	605.17
778.265	547.83
778.447	592.89
778.629	535.54
778.811	617.46
778.993	592.89
779.175	556.02
779.357	513.02
779.539	586.74
779.721	668.66
779.903	601.08
780.085	498.68
780.267	553.98
780.449	531.45
780.631	494.58
780.812	535.54
780.994	498.68
781.176	531.45
781.358	543.74
781.54	521.21
781.721	480.25
781.903	521.21
782.085	418.81
782.267	459.77
782.448	535.54
782.63	400.38
782.812	506.87
782.993	527.35
783.175	455.67
783.357	476.15
783.538	506.87
783.72	437.24
783.901	488.44
784.083	535.54
784.264	447.48
784.446	433.15
784.627	416.76
784.809	472.06
784.99	465.91
785.172	388.09
785.353	379.9
785.535	439.29
785.716	396.28
785.897	392.19
786.079	422.91
786.26	431.1
786.441	431.1
786.623	359.42
786.804	412.67
786.985	295.93
787.167	410.62
787.348	314.36
787.529	396.28
787.71	363.51
787.891	359.42
788.073	396.28
788.254	359.42
788.435	367.61
788.616	412.67
788.797	345.08
788.978	390.14
789.159	379.9
789.34	365.56
789.522	322.56
789.703	363.51
789.884	347.13
790.065	383.99
790.246	463.86
790.427	388.09
790.607	357.37
790.788	392.19
790.969	297.98
791.15	322.56
791.331	297.98
791.512	332.79
791.693	277.5
791.874	314.36
792.054	396.28
792.235	334.84
792.416	293.88
792.597	267.26
792.778	361.47
792.958	273.4
793.139	334.84
793.32	207.87
793.5	316.41
793.681	355.32
793.862	324.6
794.042	318.46
794.223	283.64
794.404	267.26
794.584	158.72
794.765	232.44
794.945	343.03
795.126	226.3
795.306	318.46
795.487	283.64
795.667	230.4
795.848	340.99
796.028	273.4
796.209	300.03
796.389	279.55
796.57	226.3
796.75	293.88
796.93	252.92
797.111	160.77
797.291	320.51
797.471	343.03
797.652	224.25
797.832	240.64
798.012	201.72
798.192	201.72
798.373	250.88
798.553	277.5
798.733	232.44
798.913	207.87
799.093	261.12
799.274	216.06
799.454	302.08
799.634	250.88
799.814	265.21
799.994	248.83
800.174	175.1
800.354	175.1
800.534	193.53
800.714	226.3
800.894	214.01
801.074	203.77
801.254	257.02
801.434	293.88
801.614	228.35
801.794	259.07
801.974	742.39
802.154	191.49
802.334	207.87
802.514	216.06
802.693	218.11
802.873	226.3
803.053	232.44
803.233	203.77
803.413	250.88
803.592	130.05
803.772	220.16
803.952	252.92
804.131	185.34
804.311	179.2
804.491	222.2
804.67	144.38
804.85	134.14
805.03	224.25
805.209	175.1
805.389	138.24
805.568	238.59
805.748	125.95
805.928	187.39
806.107	287.74
806.287	211.96
806.466	228.35
806.646	158.72
806.825	158.72
807.004	193.53
807.184	261.12
807.363	257.02
807.543	179.2
807.722	158.72
807.901	275.45
808.081	168.96
808.26	130.05
808.439	158.72
808.619	181.25
808.798	209.92
808.977	179.2
809.156	199.68
809.336	191.49
809.515	177.15
809.694	140.29
809.873	80.89
810.052	195.58
810.231	154.62
810.411	220.16
810.59	117.76
810.769	89.09
810.948	144.38
811.127	150.53
811.306	179.2
811.485	156.67
811.664	164.86
811.843	21.5
812.022	160.77
812.201	119.81
812.38	107.52
812.559	148.48
812.737	181.25
812.916	162.81
813.095	93.18
813.274	162.81
813.453	232.44
813.632	160.77
813.811	224.25
813.989	119.81
814.168	156.67
814.347	160.77
814.526	119.81
814.704	211.96
814.883	218.11
815.062	134.14
815.24	183.29
815.419	175.1
815.598	140.29
815.776	82.94
815.955	162.81
816.133	111.61
816.312	177.15
816.49	56.32
816.669	97.28
816.847	211.96
817.026	168.96
817.204	117.76
817.383	68.61
817.561	166.91
817.74	142.33
817.918	132.09
818.097	111.61
818.275	191.49
818.453	162.81
818.632	158.72
818.81	56.32
818.988	109.57
819.167	166.91
819.345	76.8
819.523	132.09
819.701	134.14
819.879	171.01
820.058	144.38
820.236	125.95
820.414	111.61
820.592	111.61
820.77	74.75
820.948	113.66
821.127	105.47
821.305	101.37
821.483	146.43
821.661	134.14
821.839	160.77
822.017	111.61
822.195	142.33
822.373	152.57
822.551	109.57
822.729	95.23
822.907	27.65
823.085	54.27
823.262	84.99
823.44	183.29
823.618	93.18
823.796	117.76
823.974	103.42
824.152	76.8
824.329	76.8
824.507	199.68
824.685	48.13
824.863	93.18
825.04	84.99
825.218	99.33
825.396	101.37
825.574	117.76
825.751	80.89
825.929	119.81
826.107	19.46
826.284	193.53
826.462	21.5
826.639	99.33
826.817	125.95
826.994	191.49
827.172	109.57
827.349	179.2
827.527	136.19
827.704	76.8
827.882	117.76
828.059	101.37
828.237	162.81
828.414	52.22
828.591	117.76
828.769	72.7
828.946	87.04
829.124	52.22
829.301	144.38
829.478	119.81
829.655	134.14
829.833	132.09
830.01	50.18
830.187	128
830.364	27.65
830.542	54.27
830.719	89.09
830.896	199.68
831.073	121.85
831.25	117.76
831.427	54.27
831.604	99.33
831.782	128
831.959	125.95
832.136	80.89
832.313	54.27
832.49	95.23
832.667	31.74
832.844	74.75
833.021	23.55
833.198	101.37
833.374	109.57
833.551	17.41
833.728	48.13
833.905	56.32
834.082	84.99
834.259	60.42
834.436	142.33
834.612	58.37
834.789	142.33
834.966	64.51
835.143	109.57
835.319	29.7
835.496	107.52
835.673	113.66
835.85	46.08
836.026	95.23
836.203	142.33
836.38	44.03
836.556	48.13
836.733	78.85
836.909	117.76
837.086	54.27
837.262	66.56
837.439	-11.26
837.616	39.94
837.792	44.03
837.968	60.42
838.145	13.31
838.321	101.37
838.498	84.99
838.674	93.18
838.851	99.33
839.027	9.22
839.203	23.55
839.38	52.22
839.556	87.04
839.732	27.65
839.909	68.61
840.085	107.52
840.261	11.26
840.437	93.18
840.614	97.28
840.79	23.55
840.966	72.7
841.142	50.18
841.318	44.03
841.494	134.14
841.671	70.65
841.847	3.07
842.023	60.42
842.199	-1.02
842.375	132.09
842.551	33.79
842.727	25.6
842.903	93.18
843.079	-13.31
843.255	150.53
843.431	27.65
843.607	113.66
843.783	48.13
843.959	101.37
844.134	64.51
844.31	78.85
844.486	23.55
844.662	46.08
844.838	78.85
845.013	-13.31
845.189	19.46
845.365	29.7
845.541	-1.02
845.716	29.7
845.892	68.61
846.068	93.18
846.244	93.18
846.419	125.95
846.595	-13.31
846.77	31.74
846.946	35.84
847.122	17.41
847.297	76.8
847.473	101.37
847.648	5.12
847.824	25.6
847.999	84.99
848.175	11.26
848.35	37.89
848.526	56.32
848.701	23.55
848.876	121.85
849.052	21.5
849.227	-11.26
849.403	62.46
849.578	109.57
849.753	23.55
849.929	97.28
850.104	3.07
850.279	68.61
850.454	52.22
850.63	82.94
850.805	60.42
850.98	23.55
851.155	44.03
851.33	23.55
851.505	-5.12
851.681	50.18
851.856	95.23
852.031	11.26
852.206	44.03
852.381	89.09
852.556	33.79
852.731	48.13
852.906	52.22
853.081	70.65
853.256	11.26
853.431	-7.17
853.606	19.46
853.781	44.03
853.956	105.47
854.131	44.03
854.305	19.46
854.48	-23.55
854.655	-7.17
854.83	62.46
855.005	31.74
855.18	68.61
855.354	142.33
855.529	5.12
855.704	35.84
855.879	103.42
856.053	-33.79
856.228	111.61
856.403	54.27
856.577	23.55
856.752	-31.74
856.926	72.7
857.101	48.13
857.276	-9.22
857.45	44.03
857.625	60.42
857.799	66.56
857.974	44.03
858.148	31.74
858.323	56.32
858.497	76.8
858.672	3.07
858.846	60.42
859.02	52.22
859.195	27.65
859.369	93.18
859.543	54.27
859.718	68.61
859.892	31.74
860.066	68.61
860.241	-11.26
860.415	19.46
860.589	-13.31
860.763	93.18
860.938	-21.5
861.112	103.42
861.286	35.84
861.46	-27.65
861.634	52.22
861.808	41.98
861.982	54.27
862.157	60.42
862.331	35.84
862.505	-7.17
862.679	-25.6
862.853	60.42
863.027	21.5
863.201	37.89
863.375	37.89
863.549	44.03
863.722	-1.02
863.896	1.02
864.07	9.22
864.244	29.7
864.418	66.56
864.592	5.12
864.766	5.12
864.939	-1.02
865.113	109.57
865.287	19.46
865.461	-13.31
865.634	39.94
865.808	-27.65
865.982	27.65
866.156	52.22
866.329	-27.65
866.503	-13.31
866.676	84.99
866.85	-3.07
867.024	54.27
867.197	84.99
867.371	-87.04
867.544	97.28
867.718	29.7
867.891	11.26
868.065	62.46
868.238	-46.08
868.412	78.85
868.585	7.17
868.759	35.84
868.932	37.89
869.105	-76.8
869.279	-33.79
869.452	41.98
869.625	23.55
869.799	-29.7
869.972	-11.26
870.145	48.13
870.319	48.13
870.492	-21.5
870.665	17.41
870.838	-5.12
871.011	-3.07
871.185	72.7
871.358	35.84
871.531	29.7
871.704	27.65
871.877	27.65
872.05	3.07
872.223	31.74
872.396	68.61
872.569	89.09
872.742	-5.12
872.915	-44.03
873.088	-33.79
873.261	23.55
873.434	15.36
873.607	19.46
873.78	11.26
873.953	-27.65
874.126	-33.79
874.299	27.65
874.471	-19.46
874.644	35.84
874.817	46.08
874.99	113.66
875.163	-3.07
875.335	23.55
875.508	3.07
875.681	68.61
875.853	7.17
876.026	-13.31
876.199	21.5
876.371	11.26
876.544	-15.36
876.717	-9.22
876.889	-11.26
877.062	117.76
877.234	21.5
877.407	-29.7
877.579	-41.98
877.752	54.27
877.924	52.22
878.097	80.89
878.269	56.32
878.442	-5.12
878.614	-5.12
878.786	11.26
878.959	-46.08
879.131	41.98
879.303	-66.56
879.476	25.6
879.648	-9.22
879.82	-35.84
879.993	35.84
880.165	27.65
880.337	-1.02
880.509	39.94
880.681	-29.7
880.854	3.07
881.026	-72.7
881.198	19.46
881.37	19.46
881.542	93.18
881.714	19.46
881.886	52.22
882.058	23.55
882.23	44.03
882.402	-37.89
882.574	33.79
882.746	72.7
882.918	89.09
883.09	76.8
883.262	35.84
883.434	-25.6
883.606	-11.26
883.778	-72.7
883.95	76.8
884.122	5.12
884.293	-7.17
884.465	19.46
884.637	54.27
884.809	3.07
884.98	-9.22
885.152	29.7
885.324	15.36
885.496	-13.31
885.667	44.03
885.839	9.22
886.011	68.61
886.182	29.7
886.354	60.42
886.525	68.61
886.697	-11.26
886.869	-68.61
887.04	13.31
887.212	54.27
887.383	123.9
887.555	23.55
887.726	21.5
887.897	76.8
888.069	60.42
888.24	17.41
888.412	37.89
888.583	-13.31
888.754	87.04
888.926	13.31
889.097	21.5
889.268	29.7
889.44	60.42
889.611	-29.7
889.782	-19.46
889.953	21.5
890.125	39.94
890.296	-5.12
890.467	-68.61
890.638	-21.5
890.809	19.46
890.98	-60.42
891.151	27.65
891.323	76.8
891.494	-5.12
891.665	5.12
891.836	-35.84
892.007	3.07
892.178	11.26
892.349	31.74
892.52	27.65
892.691	52.22
892.862	-19.46
893.032	-1.02
893.203	7.17
893.374	62.46
893.545	80.89
893.716	3.07
893.887	-21.5
894.057	7.17
894.228	27.65
894.399	3.07
894.57	-46.08
894.74	17.41
894.911	-9.22
895.082	37.89
895.253	-56.32
895.423	44.03
895.594	60.42
895.764	-13.31
895.935	-70.65
896.106	82.94
896.276	-13.31
896.447	25.6
896.617	19.46
896.788	9.22
896.958	-11.26
897.129	11.26
897.299	-3.07
897.47	39.94
897.64	66.56
897.81	33.79
897.981	15.36
898.151	3.07
898.322	-46.08
898.492	27.65
898.662	-9.22
898.832	35.84
899.003	-29.7
899.173	-46.08
899.343	5.12
899.513	21.5
