Data from USB4F104151__311__14-24-24-131.txt Node

Date: Thu Mar 13 14:24:24 EDT 2025
User: louis
Spectrometer: USB4F10415
Trigger mode: 4
Integration Time (sec): 2.000000E-2
Scans to average: 1
Electric dark correction enabled: true
Nonlinearity correction enabled: false
Boxcar width: 0
XAxis mode: Wavelengths
Number of Pixels in Spectrum: 3648
>>>>>Begin Spectral Data<<<<<
178.204	-115.54
178.424	-115.54
178.644	-115.54
178.864	-168.79
179.084	-78.68
179.304	9.39
179.524	40.11
179.744	-21.33
179.964	-9.05
180.184	-2.9
180.404	-11.09
180.624	17.58
180.844	7.34
181.064	-58.2
181.283	-17.24
181.503	-35.67
181.723	81.07
181.943	-70.48
182.163	56.49
182.383	-60.24
182.602	56.49
182.822	62.63
183.042	38.06
183.262	7.34
183.482	11.43
183.701	-29.52
183.921	62.63
184.141	-52.05
184.361	29.87
184.58	19.63
184.8	89.26
185.02	27.82
185.239	56.49
185.459	44.2
185.679	7.34
185.898	3.24
186.118	21.67
186.338	-13.14
186.557	56.49
186.777	-9.05
186.997	-11.09
187.216	-52.05
187.436	72.87
187.655	-23.38
187.875	27.82
188.095	5.29
188.314	46.25
188.534	93.35
188.753	-45.91
188.973	68.78
189.192	76.97
189.412	68.78
189.631	-2.9
189.851	-29.52
190.07	40.11
190.29	-37.72
190.509	-21.33
190.729	13.48
190.948	56.49
191.168	136.36
191.387	58.54
191.607	17.58
191.826	-25.43
192.045	-4.95
192.265	40.11
192.484	13.48
192.704	-35.67
192.923	25.77
193.142	76.97
193.362	42.15
193.581	52.39
193.8	36.01
194.02	52.39
194.239	-60.24
194.458	-33.62
194.678	-68.44
194.897	7.34
195.116	-35.67
195.335	46.25
195.555	66.73
195.774	-15.19
195.993	-7
196.212	11.43
196.432	23.72
196.651	68.78
196.87	7.34
197.089	117.93
197.308	48.3
197.528	23.72
197.747	11.43
197.966	54.44
198.185	68.78
198.404	40.11
198.623	19.63
198.842	85.16
199.062	-29.52
199.281	19.63
199.5	36.01
199.719	1.19
199.938	87.21
200.157	15.53
200.376	27.82
200.595	-11.09
200.814	-33.62
201.033	-4.95
201.252	36.01
201.471	27.82
201.69	-9.05
201.909	44.2
202.128	54.44
202.347	25.77
202.566	-4.95
202.785	-13.14
203.004	11.43
203.223	13.48
203.442	46.25
203.661	3.24
203.879	23.72
204.098	111.78
204.317	27.82
204.536	-7
204.755	29.87
204.974	101.55
205.193	3.24
205.411	27.82
205.63	46.25
205.849	15.53
206.068	-27.48
206.287	-17.24
206.505	15.53
206.724	-29.52
206.943	38.06
207.162	60.59
207.381	3.24
207.599	50.35
207.818	5.29
208.037	-29.52
208.255	101.55
208.474	19.63
208.693	40.11
208.911	-19.29
209.13	44.2
209.349	-4.95
209.567	60.59
209.786	31.91
210.005	13.48
210.223	-37.72
210.442	-33.62
210.661	44.2
210.879	44.2
211.098	66.73
211.316	3.24
211.535	44.2
211.753	-9.05
211.972	19.63
212.191	-21.33
212.409	-56.15
212.628	-70.48
212.846	13.48
213.065	-21.33
213.283	111.78
213.502	-17.24
213.72	40.11
213.938	27.82
214.157	-19.29
214.375	-9.05
214.594	-4.95
214.812	36.01
215.031	60.59
215.249	15.53
215.467	19.63
215.686	40.11
215.904	74.92
216.122	-21.33
216.341	54.44
216.559	25.77
216.778	11.43
216.996	81.07
217.214	-2.9
217.432	13.48
217.651	-4.95
217.869	-0.85
218.087	-21.33
218.306	-54.1
218.524	56.49
218.742	-29.52
218.96	50.35
219.179	-58.2
219.397	93.35
219.615	64.68
219.833	62.63
220.051	52.39
220.27	58.54
220.488	62.63
220.706	-11.09
220.924	19.63
221.142	44.2
221.36	-31.57
221.578	-47.96
221.796	46.25
222.015	46.25
222.233	-35.67
222.451	23.72
222.669	52.39
222.887	-52.05
223.105	13.48
223.323	1.19
223.541	-45.91
223.759	58.54
223.977	-4.95
224.195	48.3
224.413	11.43
224.631	64.68
224.849	-45.91
225.067	52.39
225.285	48.3
225.503	11.43
225.721	-37.72
225.939	72.87
226.157	60.59
226.375	113.83
226.592	-74.58
226.81	-37.72
227.028	36.01
227.246	-72.53
227.464	3.24
227.682	-35.67
227.9	52.39
228.117	27.82
228.335	3.24
228.553	11.43
228.771	-68.44
228.989	33.96
229.206	27.82
229.424	3.24
229.642	19.63
229.86	31.91
230.077	117.93
230.295	42.15
230.513	109.74
230.731	46.25
230.948	72.87
231.166	-27.48
231.384	-13.14
231.601	3.24
231.819	60.59
232.037	60.59
232.254	46.25
232.472	9.39
232.689	76.97
232.907	52.39
233.125	38.06
233.342	3.24
233.56	11.43
233.777	52.39
233.995	-29.52
234.213	11.43
234.43	56.49
234.648	-4.95
234.865	3.24
235.083	72.87
235.3	46.25
235.518	23.72
235.735	60.59
235.953	52.39
236.17	3.24
236.388	48.3
236.605	-9.05
236.822	11.43
237.04	21.67
237.257	19.63
237.475	15.53
237.692	13.48
237.909	44.2
238.127	40.11
238.344	68.78
238.562	-7
238.779	79.02
238.996	-15.19
239.214	7.34
239.431	25.77
239.648	-0.85
239.865	27.82
240.083	50.35
240.3	31.91
240.517	40.11
240.735	62.63
240.952	83.11
241.169	72.87
241.386	-13.14
241.603	-25.43
241.821	46.25
242.038	36.01
242.255	23.72
242.472	15.53
242.689	5.29
242.907	40.11
243.124	50.35
243.341	-4.95
243.558	-7
243.775	36.01
243.992	-41.81
244.209	-25.43
244.426	48.3
244.643	-4.95
244.86	60.59
245.078	36.01
245.295	-50
245.512	-0.85
245.729	27.82
245.946	31.91
246.163	15.53
246.38	60.59
246.597	-4.95
246.814	-54.1
247.031	27.82
247.248	-25.43
247.464	17.58
247.681	-11.09
247.898	38.06
248.115	9.39
248.332	-17.24
248.549	36.01
248.766	44.2
248.983	54.44
249.2	29.87
249.417	-0.85
249.633	52.39
249.85	48.3
250.067	-21.33
250.284	5.29
250.501	3.24
250.717	44.2
250.934	15.53
251.151	87.21
251.368	52.39
251.585	68.78
251.801	54.44
252.018	17.58
252.235	85.16
252.451	-25.43
252.668	19.63
252.885	21.67
253.102	60.59
253.318	27.82
253.535	-33.62
253.752	52.39
253.968	46.25
254.185	-13.14
254.401	-45.91
254.618	76.97
254.835	-21.33
255.051	36.01
255.268	-31.57
255.484	64.68
255.701	58.54
255.917	-4.95
256.134	-21.33
256.351	-23.38
256.567	-50
256.784	54.44
257	27.82
257.217	46.25
257.433	1.19
257.65	52.39
257.866	52.39
258.082	9.39
258.299	13.48
258.515	-2.9
258.732	-7
258.948	48.3
259.165	-15.19
259.381	-50
259.597	21.67
259.814	-4.95
260.03	46.25
260.246	-9.05
260.463	44.2
260.679	13.48
260.895	60.59
261.112	21.67
261.328	-13.14
261.544	52.39
261.761	60.59
261.977	60.59
262.193	-80.72
262.409	23.72
262.626	64.68
262.842	27.82
263.058	60.59
263.274	-0.85
263.49	48.3
263.707	89.26
263.923	29.87
264.139	-19.29
264.355	-43.86
264.571	13.48
264.787	-17.24
265.004	-4.95
265.22	-13.14
265.436	50.35
265.652	38.06
265.868	3.24
266.084	27.82
266.3	68.78
266.516	15.53
266.732	29.87
266.948	48.3
267.164	-50
267.38	11.43
267.596	76.97
267.812	101.55
268.028	52.39
268.244	3.24
268.46	-37.72
268.676	-11.09
268.892	79.02
269.108	-19.29
269.324	-35.67
269.54	5.29
269.756	95.4
269.972	-25.43
270.188	11.43
270.403	19.63
270.619	-29.52
270.835	-68.44
271.051	29.87
271.267	13.48
271.483	38.06
271.698	-21.33
271.914	-62.29
272.13	97.45
272.346	-37.72
272.562	23.72
272.777	136.36
272.993	13.48
273.209	-2.9
273.425	-17.24
273.64	17.58
273.856	70.83
274.072	58.54
274.287	1.19
274.503	-23.38
274.719	3.24
274.934	56.49
275.15	36.01
275.366	44.2
275.581	17.58
275.797	11.43
276.012	-11.09
276.228	-9.05
276.444	36.01
276.659	52.39
276.875	-76.63
277.09	7.34
277.306	-27.48
277.521	44.2
277.737	36.01
277.952	19.63
278.168	7.34
278.383	11.43
278.599	-45.91
278.814	38.06
279.03	60.59
279.245	19.63
279.461	64.68
279.676	68.78
279.892	-11.09
280.107	9.39
280.322	-11.09
280.538	23.72
280.753	70.83
280.969	11.43
281.184	36.01
281.399	146.6
281.615	-13.14
281.83	50.35
282.045	40.11
282.26	44.2
282.476	-2.9
282.691	81.07
282.906	85.16
283.122	23.72
283.337	74.92
283.552	5.29
283.767	48.3
283.983	48.3
284.198	-52.05
284.413	-4.95
284.628	76.97
284.843	40.11
285.058	33.96
285.274	48.3
285.489	23.72
285.704	33.96
285.919	11.43
286.134	38.06
286.349	56.49
286.564	29.87
286.779	19.63
286.995	85.16
287.21	-54.1
287.425	36.01
287.64	-9.05
287.855	1.19
288.07	-60.24
288.285	54.44
288.5	29.87
288.715	44.2
288.93	29.87
289.145	-9.05
289.36	36.01
289.575	-27.48
289.79	76.97
290.004	85.16
290.219	-15.19
290.434	13.48
290.649	-4.95
290.864	38.06
291.079	-35.67
291.294	62.63
291.509	29.87
291.724	7.34
291.938	-31.57
292.153	38.06
292.368	-62.29
292.583	3.24
292.798	40.11
293.012	-17.24
293.227	36.01
293.442	13.48
293.657	13.48
293.871	81.07
294.086	87.21
294.301	126.12
294.516	15.53
294.73	70.83
294.945	-4.95
295.16	40.11
295.374	38.06
295.589	-2.9
295.804	-13.14
296.018	1.19
296.233	85.16
296.447	58.54
296.662	13.48
296.877	3.24
297.091	48.3
297.306	13.48
297.52	81.07
297.735	46.25
297.949	27.82
298.164	103.59
298.378	31.91
298.593	68.78
298.807	44.2
299.022	-23.38
299.236	48.3
299.451	136.36
299.665	68.78
299.88	48.3
300.094	-17.24
300.309	36.01
300.523	-21.33
300.737	3.24
300.952	-13.14
301.166	93.35
301.381	19.63
301.595	1.19
301.809	-21.33
302.024	56.49
302.238	31.91
302.452	60.59
302.667	27.82
302.881	33.96
303.095	68.78
303.309	9.39
303.524	5.29
303.738	3.24
303.952	126.12
304.166	54.44
304.381	-95.06
304.595	58.54
304.809	-19.29
305.023	-4.95
305.237	50.35
305.452	3.24
305.666	-35.67
305.88	-25.43
306.094	7.34
306.308	54.44
306.522	72.87
306.736	17.58
306.95	60.59
307.164	-4.95
307.379	-54.1
307.593	144.55
307.807	66.73
308.021	17.58
308.235	11.43
308.449	27.82
308.663	19.63
308.877	95.4
309.091	29.87
309.305	72.87
309.519	19.63
309.733	36.01
309.947	-27.48
310.161	42.15
310.374	27.82
310.588	44.2
310.802	-4.95
311.016	-37.72
311.23	36.01
311.444	93.35
311.658	15.53
311.872	60.59
312.085	76.97
312.299	56.49
312.513	5.29
312.727	68.78
312.941	19.63
313.154	-27.48
313.368	21.67
313.582	56.49
313.796	-9.05
314.009	11.43
314.223	-74.58
314.437	42.15
314.651	27.82
314.864	93.35
315.078	-27.48
315.292	19.63
315.505	48.3
315.719	85.16
315.933	27.82
316.146	-50
316.36	-29.52
316.573	64.68
316.787	54.44
317.001	46.25
317.214	-23.38
317.428	3.24
317.641	89.26
317.855	13.48
318.068	19.63
318.282	23.72
318.495	64.68
318.709	-21.33
318.922	31.91
319.136	52.39
319.349	-4.95
319.563	-35.67
319.776	60.59
319.99	70.83
320.203	76.97
320.417	46.25
320.63	44.2
320.843	91.31
321.057	21.67
321.27	38.06
321.483	27.82
321.697	62.63
321.91	-4.95
322.124	58.54
322.337	79.02
322.55	-13.14
322.763	5.29
322.977	-19.29
323.19	15.53
323.403	52.39
323.617	9.39
323.83	117.93
324.043	19.63
324.256	27.82
324.469	38.06
324.683	38.06
324.896	19.63
325.109	-27.48
325.322	-78.68
325.535	87.21
325.748	1.19
325.962	68.78
326.175	29.87
326.388	19.63
326.601	19.63
326.814	13.48
327.027	-0.85
327.24	27.82
327.453	56.49
327.666	50.35
327.879	89.26
328.092	5.29
328.305	-78.68
328.518	-7
328.731	-50
328.944	29.87
329.157	-11.09
329.37	31.91
329.583	95.4
329.796	81.07
330.009	-54.1
330.222	85.16
330.435	44.2
330.648	5.29
330.861	11.43
331.073	-9.05
331.286	-21.33
331.499	36.01
331.712	-47.96
331.925	79.02
332.138	13.48
332.35	111.78
332.563	13.48
332.776	36.01
332.989	89.26
333.202	29.87
333.414	-2.9
333.627	-41.81
333.84	5.29
334.053	27.82
334.265	-19.29
334.478	-9.05
334.691	-0.85
334.903	117.93
335.116	19.63
335.329	27.82
335.541	60.59
335.754	48.3
335.966	-117.59
336.179	23.72
336.392	44.2
336.604	9.39
336.817	13.48
337.029	7.34
337.242	-2.9
337.454	15.53
337.667	62.63
337.88	150.7
338.092	11.43
338.305	-17.24
338.517	15.53
338.729	93.35
338.942	-11.09
339.154	29.87
339.367	13.48
339.579	91.31
339.792	27.82
340.004	81.07
340.217	29.87
340.429	-29.52
340.641	79.02
340.854	29.87
341.066	9.39
341.278	21.67
341.491	27.82
341.703	27.82
341.915	44.2
342.128	97.45
342.34	-21.33
342.552	-2.9
342.764	74.92
342.977	38.06
343.189	72.87
343.401	38.06
343.613	-21.33
343.826	50.35
344.038	-23.38
344.25	62.63
344.462	-19.29
344.674	-37.72
344.886	23.72
345.099	11.43
345.311	40.11
345.523	40.11
345.735	3.24
345.947	56.49
346.159	36.01
346.371	-21.33
346.583	1.19
346.795	56.49
347.007	7.34
347.219	85.16
347.431	60.59
347.643	76.97
347.855	54.44
348.067	27.82
348.279	58.54
348.491	83.11
348.703	29.87
348.915	31.91
349.127	29.87
349.339	99.5
349.551	-9.05
349.763	40.11
349.975	52.39
350.187	62.63
350.399	36.01
350.61	54.44
350.822	-13.14
351.034	36.01
351.246	7.34
351.458	44.2
351.669	36.01
351.881	74.92
352.093	105.64
352.305	36.01
352.517	60.59
352.728	81.07
352.94	52.39
353.152	76.97
353.363	3.24
353.575	-35.67
353.787	72.87
353.999	25.77
354.21	19.63
354.422	11.43
354.633	62.63
354.845	68.78
355.057	36.01
355.268	-39.76
355.48	128.17
355.692	21.67
355.903	31.91
356.115	48.3
356.326	66.73
356.538	113.83
356.749	46.25
356.961	95.4
357.172	56.49
357.384	27.82
357.595	87.21
357.807	-78.68
358.018	27.82
358.23	11.43
358.441	27.82
358.653	31.91
358.864	21.67
359.075	66.73
359.287	-47.96
359.498	66.73
359.709	5.29
359.921	60.59
360.132	76.97
360.344	25.77
360.555	36.01
360.766	87.21
360.977	15.53
361.189	103.59
361.4	48.3
361.611	130.22
361.823	58.54
362.034	7.34
362.245	60.59
362.456	38.06
362.667	-41.81
362.879	21.67
363.09	42.15
363.301	27.82
363.512	48.3
363.723	-4.95
363.935	-41.81
364.146	74.92
364.357	-4.95
364.568	58.54
364.779	11.43
364.99	50.35
365.201	44.2
365.412	64.68
365.623	-31.57
365.834	36.01
366.045	-4.95
366.256	89.26
366.467	52.39
366.678	68.78
366.889	56.49
367.1	31.91
367.311	68.78
367.522	-27.48
367.733	126.12
367.944	13.48
368.155	83.11
368.366	5.29
368.577	74.92
368.788	68.78
368.999	-29.52
369.209	74.92
369.42	56.49
369.631	44.2
369.842	13.48
370.053	38.06
370.264	19.63
370.474	38.06
370.685	33.96
370.896	44.2
371.107	81.07
371.317	-7
371.528	-50
371.739	25.77
371.95	-13.14
372.16	21.67
372.371	11.43
372.582	58.54
372.792	56.49
373.003	62.63
373.214	17.58
373.424	60.59
373.635	42.15
373.846	21.67
374.056	79.02
374.267	87.21
374.477	79.02
374.688	-25.43
374.898	99.5
375.109	3.24
375.319	93.35
375.53	109.74
375.74	38.06
375.951	31.91
376.161	58.54
376.372	38.06
376.582	-45.91
376.793	-4.95
377.003	-19.29
377.214	-9.05
377.424	25.77
377.635	52.39
377.845	33.96
378.055	54.44
378.266	-13.14
378.476	56.49
378.686	-11.09
378.897	-9.05
379.107	85.16
379.317	91.31
379.528	-9.05
379.738	117.93
379.948	-66.39
380.158	29.87
380.369	62.63
380.579	107.69
380.789	68.78
380.999	13.48
381.21	79.02
381.42	162.98
381.63	54.44
381.84	56.49
382.05	36.01
382.261	85.16
382.471	109.74
382.681	81.07
382.891	85.16
383.101	25.77
383.311	21.67
383.521	76.97
383.731	101.55
383.941	72.87
384.151	74.92
384.361	13.48
384.571	15.53
384.781	56.49
384.991	21.67
385.201	56.49
385.411	62.63
385.621	23.72
385.831	9.39
386.041	81.07
386.251	-33.62
386.461	48.3
386.671	1.19
386.881	60.59
387.091	-4.95
387.301	-2.9
387.511	60.59
387.72	93.35
387.93	91.31
388.14	25.77
388.35	23.72
388.56	38.06
388.769	13.48
388.979	5.29
389.189	76.97
389.399	101.55
389.609	40.11
389.818	117.93
390.028	68.78
390.238	44.2
390.447	33.96
390.657	58.54
390.867	7.34
391.076	48.3
391.286	95.4
391.496	44.2
391.705	27.82
391.915	68.78
392.125	70.83
392.334	-4.95
392.544	52.39
392.753	117.93
392.963	19.63
393.172	7.34
393.382	122.02
393.591	44.2
393.801	42.15
394.01	138.41
394.22	93.35
394.429	76.97
394.639	64.68
394.848	81.07
395.058	54.44
395.267	103.59
395.477	-60.24
395.686	119.98
395.895	142.5
396.105	134.31
396.314	52.39
396.524	38.06
396.733	44.2
396.942	128.17
397.152	54.44
397.361	138.41
397.57	33.96
397.78	76.97
397.989	54.44
398.198	101.55
398.407	81.07
398.617	87.21
398.826	70.83
399.035	54.44
399.244	89.26
399.453	107.69
399.663	93.35
399.872	111.78
400.081	44.2
400.29	62.63
400.499	62.63
400.708	76.97
400.917	31.91
401.127	99.5
401.336	7.34
401.545	154.79
401.754	74.92
401.963	87.21
402.172	128.17
402.381	29.87
402.59	93.35
402.799	95.4
403.008	138.41
403.217	134.31
403.426	113.83
403.635	109.74
403.844	56.49
404.053	109.74
404.262	115.88
404.471	158.89
404.68	68.78
404.888	62.63
405.097	52.39
405.306	99.5
405.515	169.13
405.724	87.21
405.933	113.83
406.142	142.5
406.35	76.97
406.559	214.18
406.768	109.74
406.977	208.04
407.185	224.42
407.394	195.75
407.603	171.18
407.812	177.32
408.02	185.51
408.229	228.52
408.438	109.74
408.646	169.13
408.855	205.99
409.064	195.75
409.272	279.72
409.481	265.38
409.69	224.42
409.898	234.66
410.107	259.24
410.315	310.44
410.524	240.81
410.733	273.57
410.941	294.05
411.15	240.81
411.358	322.73
411.567	263.33
411.775	296.1
411.984	289.96
412.192	326.82
412.401	285.86
412.609	347.3
412.818	449.7
413.026	449.7
413.234	330.92
413.443	355.49
413.651	396.45
413.86	363.69
414.068	482.47
414.276	431.27
414.485	535.71
414.693	504.99
414.901	576.67
415.11	531.62
415.318	472.23
415.526	591.01
415.734	560.29
415.943	634.02
416.151	660.64
416.359	609.44
416.567	619.68
416.776	701.6
416.984	715.94
417.192	728.22
417.4	707.74
417.608	724.13
417.817	687.26
418.025	765.09
418.233	773.28
418.441	830.62
418.649	922.78
418.857	1084.57
419.065	996.51
419.273	955.55
419.481	980.12
419.689	953.5
419.897	1117.34
420.105	1098.91
420.313	1236.12
420.521	1166.49
420.729	1215.64
420.937	1238.17
421.145	1322.13
421.353	1330.33
421.561	1514.64
421.769	1457.3
421.977	1608.85
422.185	1543.32
422.393	1653.91
422.601	1729.68
422.809	1770.64
423.017	1698.96
423.224	1842.32
423.432	1821.84
423.64	1813.65
423.848	2071.69
424.056	2045.07
424.263	2104.46
424.471	2018.44
424.679	2180.23
424.887	2245.77
425.094	2389.13
425.302	2346.12
425.51	2350.21
425.718	2530.44
425.925	2632.83
426.133	2591.88
426.341	2792.58
426.548	2919.55
426.756	3009.66
426.964	2866.3
427.171	2989.18
427.379	3255.42
427.586	3390.58
427.794	3318.9
428.001	3552.37
428.209	3574.9
428.417	3609.72
428.624	3789.94
428.832	3710.07
429.039	3751.03
429.247	3767.41
429.454	4113.52
429.662	4406.38
429.869	4254.83
430.076	4566.12
430.284	4295.79
430.491	4584.55
430.699	4918.37
430.906	4834.4
431.114	4811.87
431.321	5155.93
431.528	5041.25
431.736	5622.87
431.943	5731.41
432.15	5712.98
432.358	5475.42
432.565	5835.86
432.772	5866.58
432.979	6198.35
433.187	6200.4
433.394	6526.02
433.601	6937.66
433.808	6829.12
434.016	6657.09
434.223	7035.97
434.43	7461.94
434.637	7466.04
434.844	7861.3
435.052	7994.42
435.259	7756.85
435.466	7992.37
435.673	7951.41
435.88	8363.05
436.087	8854.56
436.294	8838.18
436.501	8715.3
436.708	8696.87
436.915	9182.24
437.122	9477.15
437.329	9444.38
437.537	9860.12
437.743	9896.98
437.95	9683.99
438.157	10257.42
438.364	10777.61
438.571	10492.94
438.778	10624.01
438.985	11840.5
439.192	11181.06
439.399	11570.17
439.606	11254.78
439.813	11774.97
440.02	12704.74
440.227	12291.06
440.433	12329.97
440.64	12733.42
440.847	12743.66
441.054	13188.07
441.261	13859.8
441.467	13575.13
441.674	13755.35
441.881	14339.02
442.088	14556.11
442.294	14195.67
442.501	14511.05
442.708	14787.53
442.914	15373.25
443.121	16026.55
443.328	15643.58
443.534	16651.18
443.741	16155.57
443.948	16108.47
444.154	17269.67
444.361	17234.85
444.568	17165.22
444.774	17210.28
444.981	17103.78
445.187	17681.31
445.394	18541.46
445.6	18338.71
445.807	20409.2
446.013	19170.18
446.22	19979.13
446.426	20458.35
446.633	20503.41
446.839	21613.41
447.046	20523.89
447.252	21697.38
447.459	21693.28
447.665	21588.83
447.871	22444.88
448.078	23116.62
448.284	22203.22
448.491	23110.47
448.697	23864.13
448.903	24245.05
449.11	24234.81
449.316	23825.22
449.522	24396.6
449.728	24976.17
449.935	25211.69
450.141	25074.48
450.347	25899.81
450.553	25156.39
450.76	25254.7
450.966	26118.94
451.172	25733.92
451.378	26499.86
451.584	26133.28
451.791	26288.92
451.997	26686.23
452.203	27056.91
452.409	27118.35
452.615	27185.93
452.821	25846.56
453.027	25574.18
453.233	27249.42
453.44	26020.64
453.646	26250.01
453.852	26684.18
454.058	26764.05
454.264	26125.08
454.47	26751.76
454.676	25752.35
454.882	26989.33
455.088	24552.24
455.294	24961.84
455.5	25377.58
455.705	25568.04
455.911	24367.93
456.117	24085.31
456.323	23718.72
456.529	22897.49
456.735	23704.38
456.941	23096.14
457.147	22895.44
457.352	21797.73
457.558	22020.95
457.764	21822.3
457.97	21418.85
458.176	20894.57
458.381	20962.15
458.587	20102.01
458.793	19999.61
458.999	19012.49
459.204	20239.22
459.41	19587.97
459.616	18457.49
459.821	18723.72
460.027	18281.36
460.233	18129.81
460.438	17267.62
460.644	17423.26
460.85	16536.49
461.055	16094.13
461.261	16391.09
461.466	15025.09
461.672	14699.47
461.878	15879.1
462.083	14652.36
462.289	14404.56
462.494	14265.3
462.7	13704.15
462.905	13331.42
463.111	13743.06
463.316	13661.15
463.522	13437.92
463.727	13571.04
463.932	13290.46
464.138	13265.89
464.343	13272.03
464.549	12784.62
464.754	13296.61
464.959	13040.61
465.165	13183.97
465.37	12745.7
465.575	12235.76
465.781	12725.22
465.986	12952.55
466.191	12311.53
466.397	12293.1
466.602	11607.03
466.807	12233.71
467.012	12104.69
467.218	12002.29
467.423	11768.82
467.628	11854.84
467.833	12254.19
468.038	11922.42
468.244	11627.51
468.449	12020.72
468.654	11586.55
468.859	11566.07
469.064	11588.6
469.269	11201.54
469.474	11031.55
469.679	11367.42
469.885	11015.17
470.09	11138.05
470.295	11082.75
470.5	10785.8
470.705	10845.19
470.91	10546.19
471.115	10611.72
471.32	10759.17
471.525	10828.81
471.73	10374.16
471.935	10474.51
472.139	10023.95
472.344	10296.33
472.549	10103.82
472.754	10140.69
472.959	9716.76
473.164	9360.41
473.369	9442.33
473.574	9993.23
473.778	9645.08
473.983	9491.48
474.188	9505.82
474.393	9024.54
474.598	9346.08
474.802	8985.63
475.007	9174.05
475.212	9040.93
475.417	8623.14
475.621	8520.74
475.826	8899.62
476.031	8653.86
476.235	8371.24
476.44	8676.39
476.645	8256.56
476.849	8469.55
477.054	8215.6
477.259	8156.21
477.463	8197.17
477.668	8031.28
477.872	8313.9
478.077	7959.6
478.282	7588.92
478.486	7674.93
478.691	7494.71
478.895	7754.8
479.1	7556.15
479.304	7556.15
479.509	7457.85
479.713	7380.03
479.918	7402.55
480.122	7064.64
480.326	7140.41
480.531	7220.28
480.735	7044.16
480.94	7148.61
481.144	7441.47
481.348	7093.31
481.553	7060.54
481.757	7064.64
481.961	7066.69
482.166	7017.54
482.37	7124.03
482.574	6935.62
482.778	6863.94
482.983	7271.48
483.187	6976.58
483.391	7017.54
483.595	7062.59
483.8	6851.65
484.004	6908.99
484.208	7072.83
484.412	7052.35
484.616	7013.44
484.821	6968.38
485.025	6888.51
485.229	7009.34
485.433	6888.51
485.637	6999.1
485.841	6818.88
486.045	6845.51
486.249	6997.06
486.453	6970.43
486.657	6900.8
486.861	6935.62
487.065	6835.27
487.269	6859.84
487.473	6798.4
487.677	7058.49
487.881	7019.58
488.085	6976.58
488.289	7093.31
488.493	6798.4
488.697	7138.37
488.901	6995.01
489.105	6861.89
489.309	7011.39
489.512	6857.79
489.716	6927.42
489.92	7228.48
490.124	7064.64
490.328	7310.4
490.531	7162.94
490.735	7418.94
490.939	7201.85
491.143	7214.14
491.346	7171.13
491.55	7392.31
491.754	7248.96
491.958	7402.55
492.161	7113.79
492.365	7326.78
492.569	7144.51
492.772	7238.72
492.976	7474.23
493.18	7539.77
493.383	7570.49
493.587	7441.47
493.79	7584.82
493.994	7666.74
494.197	7588.92
494.401	7887.92
494.605	7648.31
494.808	7658.55
495.012	7875.63
495.215	7924.79
495.419	8041.52
495.622	7844.91
495.825	8182.83
496.029	8008.75
496.232	8322.09
496.436	8250.41
496.639	8383.53
496.843	8320.04
497.046	8530.98
497.249	8543.27
497.453	8678.44
497.656	8782.88
497.859	8578.09
498.063	9040.93
498.266	8924.19
498.469	8864.8
498.673	9085.98
498.876	9169.95
499.079	9319.45
499.282	9432.09
499.485	9514.01
499.689	9604.12
499.892	9833.49
500.095	9581.59
500.298	9753.62
500.501	9845.78
500.705	10189.84
500.908	10163.22
501.111	10376.2
501.314	10456.08
501.517	10152.98
501.72	10732.55
501.923	10644.49
502.126	10687.5
502.329	10966.02
502.532	10951.68
502.735	11111.43
502.938	11580.41
503.141	11211.78
503.344	11592.7
503.547	11623.42
503.75	11750.39
503.953	11832.31
504.156	12133.36
504.359	12121.07
504.562	12037.11
504.765	12536.81
504.968	12497.9
505.17	12581.87
505.373	12708.84
505.576	13124.58
505.779	13405.15
505.982	13091.81
506.185	13224.93
506.387	13571.04
506.59	13601.76
506.793	13966.29
506.996	13575.13
507.198	14150.61
507.401	14074.84
507.604	14263.25
507.807	14441.42
508.009	14623.69
508.212	14816.2
508.415	14752.71
508.617	15045.57
508.82	15098.82
509.022	15014.85
509.225	15283.14
509.428	15635.39
509.63	15332.29
509.833	15979.45
510.035	16241.59
510.238	15973.3
510.44	16092.09
510.643	16372.66
510.845	16698.28
511.048	16925.61
511.25	17150.88
511.453	17066.92
511.655	17376.16
511.858	17443.74
512.06	17443.74
512.262	17789.85
512.465	17396.64
512.667	18060.18
512.87	18076.57
513.072	18105.24
513.274	18568.08
513.477	18781.07
513.679	18815.88
513.881	19037.06
514.084	19213.19
514.286	19266.44
514.488	19463.04
514.69	19829.63
514.893	20233.08
515.095	20069.24
515.297	20185.97
515.499	20286.33
515.701	20552.56
515.904	20573.04
516.106	20870
516.308	21234.53
516.51	21338.98
516.712	21449.57
516.914	21916.51
517.116	21969.76
517.318	22113.11
517.52	22235.99
517.722	22129.5
517.925	22586.19
518.127	22774.61
518.329	22819.66
518.531	22901.58
518.733	23194.44
518.935	23792.45
519.136	23501.64
519.338	23722.82
519.54	24156.99
519.742	24441.65
519.944	24341.3
520.146	24795.95
520.348	24701.75
520.55	24808.24
520.752	25072.43
520.954	25686.82
521.155	25453.35
521.357	25664.29
521.559	25989.92
521.761	26245.91
521.963	26297.11
522.164	26524.44
522.366	26284.83
522.568	26938.13
522.77	26712.85
522.971	27200.27
523.173	27286.28
523.375	27454.22
523.576	27378.44
523.778	27484.94
523.98	27935.49
524.181	27818.75
524.383	27904.77
524.584	28279.55
524.786	28064.51
524.988	28304.12
525.189	28846.83
525.391	28777.2
525.592	28789.49
525.794	29135.6
525.995	29285.1
526.197	29121.26
526.398	29569.77
526.6	29227.76
526.801	29690.6
527.003	29924.07
527.204	29735.65
527.406	29909.73
527.607	29674.21
527.808	30081.76
528.01	29895.39
528.211	30331.61
528.412	30745.3
528.614	30704.34
528.815	30147.29
529.016	30952.15
529.218	30501.59
529.419	30366.43
529.62	30966.48
529.822	30833.36
530.023	30823.12
530.224	30982.87
530.425	30980.82
530.626	30962.39
530.828	30960.34
531.029	31597.26
531.23	31032.02
531.431	30997.2
531.632	31218.38
531.833	31548.11
532.035	31427.28
532.236	31056.59
532.437	31795.91
532.638	31238.86
532.839	31546.06
533.04	31529.67
533.241	31298.25
533.442	31644.36
533.643	31529.67
533.844	31429.32
534.045	31664.84
534.246	31394.51
534.447	32053.95
534.648	31593.16
534.849	31421.13
535.05	31064.78
535.251	31453.9
535.451	31644.36
535.652	31634.12
535.853	31611.59
536.054	31593.16
536.255	31824.58
536.456	31318.73
536.657	31951.56
536.857	31333.07
537.058	31400.65
537.259	31660.74
537.46	31767.24
537.66	31548.11
537.861	31371.98
538.062	31505.1
538.263	31703.75
538.463	31711.94
538.664	31640.26
538.865	31681.22
539.065	31800.01
539.266	31245.01
539.466	31769.29
539.667	31541.96
539.868	31871.68
540.068	31490.76
540.269	31288.01
540.469	31455.95
540.67	31525.58
540.87	31353.55
541.071	31392.46
541.271	31566.54
541.472	31384.27
541.672	31251.15
541.873	31384.27
542.073	30933.71
542.274	31824.58
542.474	31378.12
542.675	31529.67
542.875	31369.93
543.075	31521.48
543.276	31236.81
543.476	31541.96
543.676	31181.52
543.877	31382.22
544.077	31210.19
544.277	31316.68
544.478	31490.76
544.678	31335.12
544.878	31185.61
545.078	31455.95
545.279	31183.57
545.479	31382.22
545.679	31187.66
545.879	31005.39
546.079	31238.86
546.28	31115.98
546.48	30952.15
546.68	31228.62
546.88	31017.68
547.08	31376.08
547.28	30851.8
547.48	31163.09
547.68	31285.97
547.88	31068.88
548.081	31165.14
548.281	31050.45
548.481	31224.53
548.681	31324.88
548.881	31070.93
549.081	31380.17
549.28	30921.43
549.48	31214.29
549.68	31079.12
549.88	31742.66
550.08	30911.19
550.28	31187.66
550.48	30989.01
550.68	31138.51
550.88	30798.55
551.08	30704.34
551.279	31036.11
551.479	30792.4
551.679	31032.02
551.879	30907.09
552.079	31314.64
552.278	30905.04
552.478	31070.93
552.678	30886.61
552.878	31144.66
553.077	31191.76
553.277	30612.18
553.477	31130.32
553.676	31156.94
553.876	30798.55
554.076	30833.36
554.275	30733.01
554.475	30233.31
554.674	30896.85
554.874	31034.07
555.074	30716.63
555.273	30984.91
555.473	30630.62
555.672	30268.12
555.872	30692.05
556.071	30976.72
556.271	31120.08
556.47	30638.81
556.67	30198.49
556.869	30401.24
557.068	30728.92
557.268	30325.47
557.467	30331.61
557.667	30376.67
557.866	30489.31
558.065	30106.34
558.265	29954.79
558.464	30114.53
558.663	30593.75
558.863	29702.89
559.062	30550.74
559.261	29805.28
559.461	30214.88
559.66	29729.51
559.859	30053.09
560.058	29883.11
560.258	29825.76
560.457	29625.06
560.656	30221.02
560.855	29643.49
561.054	29776.61
561.253	29518.57
561.453	29782.76
561.652	29895.39
561.851	30104.29
562.05	29620.97
562.249	29297.39
562.448	30028.51
562.647	29180.65
562.846	29577.96
563.045	29612.77
563.244	29027.06
563.443	29897.44
563.642	28906.23
563.841	29385.45
564.04	29268.72
564.239	29512.42
564.438	28771.06
564.637	28627.7
564.836	29197.04
565.035	28711.67
565.234	28596.98
565.432	28660.47
565.631	28715.76
565.83	28744.44
566.029	28316.41
566.228	28433.14
566.427	28357.37
566.625	28308.22
566.824	28078.85
567.023	28521.21
567.222	28285.69
567.42	28558.07
567.619	28027.65
567.818	27931.39
568.016	28269.31
568.215	28291.83
568.414	27902.72
568.612	28080.89
568.811	28105.47
569.01	28064.51
569.208	27613.96
569.407	27904.77
569.605	27650.82
569.804	27691.78
570.002	27429.64
570.201	27605.77
570.4	27472.65
570.598	27460.36
570.797	26972.94
570.995	27226.89
571.193	27081.49
571.392	27372.3
571.59	26970.9
571.789	27116.3
571.987	26923.79
572.186	27142.92
572.384	26782.48
572.582	26721.04
572.781	26690.32
572.979	26432.28
573.177	26606.36
573.376	26950.42
573.574	26264.35
573.772	26784.53
573.971	26227.48
574.169	26190.62
574.367	25858.85
574.565	26321.69
574.763	26139.42
574.962	26176.28
575.16	25883.42
575.358	25815.84
575.556	25645.86
575.754	25817.89
575.952	25656.1
576.151	25758.5
576.349	25494.31
576.547	25193.26
576.745	25365.29
576.943	25287.46
577.141	25375.53
577.339	25367.34
577.537	25213.74
577.735	25047.85
577.933	25230.12
578.131	25297.7
578.329	24816.43
578.527	24951.6
578.725	24881.97
578.923	25045.8
579.121	24787.76
579.319	24746.8
579.516	24599.35
579.714	24550.2
579.912	24689.46
580.11	24251.19
580.308	24199.99
580.506	24392.5
580.704	23929.66
580.901	24220.47
581.099	24451.89
581.297	23962.43
581.495	23937.85
581.692	24490.8
581.89	23866.17
582.088	24030.01
582.285	24081.21
582.483	23806.78
582.681	23577.41
582.878	23591.75
583.076	23432.01
583.274	23653.19
583.471	23155.53
583.669	23571.27
583.866	22948.68
584.064	23251.78
584.262	23063.37
584.459	23180.1
584.657	23026.51
584.854	23192.39
585.052	22557.52
585.249	23108.43
585.447	22752.08
585.644	22627.15
585.841	22831.95
586.039	22739.79
586.236	22686.54
586.434	22786.89
586.631	22496.08
586.828	22479.7
587.026	22334.29
587.223	22559.57
587.42	22213.46
587.618	22348.63
587.815	22045.53
588.012	21951.32
588.21	21992.28
588.407	22375.25
588.604	21818.21
588.801	21908.32
588.999	21859.17
589.196	21615.46
589.393	21920.6
589.59	21814.11
589.787	21781.34
589.984	21189.48
590.182	21076.84
590.379	21508.96
590.576	21351.27
590.773	21402.47
590.97	21355.36
591.167	21158.76
591.364	20968.3
591.561	21310.31
591.758	21011.31
591.955	20872.04
592.152	21033.83
592.349	20589.42
592.546	20845.42
592.743	20671.34
592.94	20548.47
593.137	20527.99
593.334	20585.33
593.531	20693.87
593.727	20519.79
593.924	20370.29
594.121	20317.04
594.318	20253.56
594.515	20040.57
594.712	20398.96
594.908	20122.49
595.105	20192.12
595.302	19860.35
595.499	20003.71
595.696	19915.64
595.892	20003.71
596.089	19755.9
596.286	19704.7
596.482	19891.07
596.679	19540.86
596.876	19454.85
597.072	19286.92
597.269	19565.44
597.466	19436.42
597.662	19252.1
597.859	19207.05
598.055	19278.72
598.252	18940.81
598.448	18959.24
598.645	18973.58
598.841	18752.4
599.038	18959.24
599.234	19237.77
599.431	18652.05
599.627	18838.41
599.824	18893.71
600.02	18633.61
600.217	18611.09
600.413	18369.43
600.609	18414.48
600.806	18377.62
601.002	18418.58
601.198	18404.24
601.395	18181.01
601.591	18285.46
601.787	17879.96
601.984	17939.35
602.18	18066.33
602.376	17990.55
602.572	18240.4
602.769	18039.7
602.965	17796
603.161	17580.96
603.357	17849.24
603.553	17902.49
603.75	17623.97
603.946	17329.06
604.142	17587.1
604.338	17488.8
604.534	17517.47
604.73	17122.21
604.926	17374.11
605.122	17329.06
605.318	16933.8
605.514	17255.33
605.71	17101.73
605.906	17046.44
606.102	17187.75
606.298	17103.78
606.494	16903.08
606.69	16989.1
606.886	16868.27
607.082	16796.59
607.278	17009.58
607.474	16647.08
607.67	16622.51
607.866	16546.73
608.062	16948.14
608.257	16686
608.453	16419.76
608.649	16733.1
608.845	16249.78
609.041	16686
609.236	16333.75
609.432	16307.12
609.628	16286.64
609.824	16386.99
610.019	16300.98
610.215	16489.39
610.411	16337.84
610.606	15985.59
610.802	16307.12
610.998	16128.95
611.193	16196.53
611.389	15997.88
611.584	16016.31
611.78	15920.06
611.976	15840.18
612.171	15971.25
612.367	16079.8
612.562	15705.02
612.758	15756.22
612.953	15877.05
613.149	15926.2
613.344	15643.58
613.539	15895.48
613.735	15588.28
613.93	15670.2
614.126	15600.57
614.321	15674.3
614.517	15571.9
614.712	15551.42
614.907	15401.92
615.103	15516.61
615.298	15573.95
615.493	15561.66
615.688	15264.71
615.884	15788.99
616.079	15252.42
616.274	15266.75
616.47	15367.1
616.665	15320
616.86	15221.7
617.055	15233.99
617.25	14990.28
617.445	15080.39
617.641	14826.44
617.836	15119.3
618.031	14916.55
618.226	14906.31
618.421	15021
618.616	15047.62
618.811	14668.75
619.006	14898.12
619.201	14638.03
619.396	14707.66
619.591	14560.2
619.786	14582.73
619.981	14482.38
620.176	14605.26
620.371	14234.58
620.566	14363.6
620.761	14285.78
620.956	14169.04
621.151	13994.97
621.346	14152.66
621.541	13831.13
621.735	14134.23
621.93	13851.61
622.125	13954.01
622.32	13769.69
622.515	13528.03
622.709	13556.7
622.904	13411.29
623.099	13382.62
623.294	13599.71
623.488	13257.7
623.683	13380.57
623.878	13024.23
624.072	13251.55
624.267	13265.89
624.462	12975.08
624.656	13095.91
624.851	12987.36
625.046	12696.55
625.24	12651.5
625.435	12555.24
625.629	12803.05
625.824	12770.28
626.018	12536.81
626.213	12405.74
626.407	12469.23
626.602	12168.18
626.796	12393.45
626.991	12143.6
627.185	12155.89
627.38	11940.85
627.574	12026.87
627.768	12057.59
627.963	11846.65
628.157	11752.44
628.352	11783.16
628.546	11631.61
628.74	11586.55
628.935	11561.98
629.129	11453.44
629.323	11250.69
629.517	11201.54
629.712	11209.73
629.906	11205.63
630.1	11031.55
630.294	11258.88
630.489	11072.51
630.683	11170.82
630.877	11029.51
631.071	10880
631.265	10890.24
631.459	10882.05
631.653	10824.71
631.848	10499.08
632.042	10574.86
632.236	10578.95
632.43	10488.84
632.624	10556.43
632.818	10388.49
633.012	10187.79
633.206	10116.11
633.4	10243.09
633.594	10187.79
633.788	10054.67
633.982	10204.17
634.176	10054.67
634.369	10062.87
634.563	10038.29
634.757	9892.88
634.951	9911.32
635.145	9782.29
635.339	9825.3
635.533	9663.51
635.726	9710.61
635.92	9423.9
636.114	9767.96
636.308	9653.27
636.501	9475.1
636.695	9526.3
636.889	9481.24
637.083	9206.81
637.276	9186.33
637.47	9368.6
637.664	9241.63
637.857	9255.97
638.051	9022.5
638.244	8942.63
638.438	9055.26
638.632	8942.63
638.825	8795.17
639.019	8778.79
639.212	8870.95
639.406	8825.89
639.599	8737.83
639.793	8526.89
639.986	8418.35
640.18	8662.05
640.373	8428.59
640.567	8457.26
640.76	8459.31
640.954	8457.26
641.147	8367.15
641.34	8387.63
641.534	8127.53
641.727	8088.62
641.92	8186.93
642.114	8047.66
642.307	8137.77
642.5	7924.79
642.694	7887.92
642.887	7842.87
643.08	7920.69
643.273	7722.04
643.467	8008.75
643.66	7613.49
643.853	7834.68
644.046	7666.74
644.239	7679.03
644.432	7584.82
644.626	7494.71
644.819	7539.77
645.012	7447.61
645.205	7668.79
645.398	7404.6
645.591	7281.72
645.784	7390.27
645.977	7148.61
646.17	7222.33
646.363	7259.2
646.556	6937.66
646.749	7124.03
646.942	7023.68
647.135	7255.1
647.328	7156.8
647.521	7054.4
647.714	6886.47
647.907	6970.43
648.099	7001.15
648.292	6970.43
648.485	6960.19
648.678	6706.24
648.871	6765.64
649.064	6681.67
649.256	6790.21
649.449	6728.77
649.642	6544.45
649.835	6681.67
650.027	6491.21
650.22	6636.61
650.413	6556.74
650.605	6530.12
650.798	6526.02
650.991	6315.08
651.183	6276.17
651.376	6188.11
651.568	6186.06
651.761	6233.16
651.954	6302.79
652.146	6077.52
652.339	6339.66
652.531	6231.12
652.724	5950.54
652.916	5954.64
653.109	6134.86
653.301	6091.85
653.494	5997.65
653.686	5876.82
653.879	5921.87
654.071	5741.65
654.263	5778.51
654.456	5729.36
654.648	5905.49
654.84	5631.06
655.033	5565.53
655.225	5614.68
655.417	5688.4
655.61	5633.11
655.802	5860.43
655.994	5575.77
656.186	5624.92
656.379	5487.7
656.571	5360.73
656.763	5459.03
656.955	5467.22
657.148	5499.99
657.34	5354.58
657.532	5569.62
657.724	5321.82
657.916	5317.72
658.108	5258.33
658.3	5270.62
658.492	5293.15
658.684	5018.72
658.876	5258.33
659.068	4947.04
659.26	5086.3
659.452	5102.68
659.644	5131.36
659.836	5135.45
660.028	5041.25
660.22	4934.75
660.412	5004.38
660.604	4914.27
660.796	4963.42
660.988	4856.93
661.18	5016.67
661.372	4820.07
661.563	4789.35
661.755	4828.26
661.947	4811.87
662.139	4715.62
662.331	4799.59
662.522	4783.2
662.714	4607.08
662.906	4586.6
663.097	4506.73
663.289	4463.72
663.481	4557.93
663.673	4486.25
663.864	4572.26
664.056	4623.46
664.247	4371.56
664.439	4443.24
664.631	4519.01
664.822	4342.89
665.014	4502.63
665.205	4547.69
665.397	4371.56
665.588	4336.74
665.78	4279.4
665.971	4308.07
666.163	4279.4
666.354	4308.07
666.546	4287.59
666.737	4164.72
666.929	4041.84
667.12	4068.46
667.311	4189.29
667.503	4138.09
667.694	4201.58
667.885	4090.99
668.077	4154.48
668.268	4009.07
668.459	4033.65
668.651	3968.11
668.842	4043.88
669.033	4021.36
669.224	3898.48
669.416	4072.56
669.607	4058.22
669.798	3902.58
669.989	3875.95
670.18	3789.94
670.371	3902.58
670.563	3791.98
670.754	3853.42
670.945	3773.55
671.136	3791.98
671.327	3789.94
671.518	3820.66
671.709	3804.27
671.9	3871.86
672.091	3787.89
672.282	3804.27
672.473	3751.03
672.664	3712.11
672.855	3708.02
673.046	3615.86
673.237	3808.37
673.428	3714.16
673.619	3806.32
673.809	3568.76
674	3675.25
674.191	3558.52
674.382	3591.28
674.573	3771.51
674.764	3554.42
674.954	3550.32
675.145	3486.84
675.336	3552.37
675.527	3402.87
675.717	3550.32
675.908	3468.41
676.099	3437.69
676.289	3593.33
676.48	3552.37
676.671	3466.36
676.861	3402.87
677.052	3484.79
677.243	3538.04
677.433	3511.41
677.624	3443.83
677.814	3472.5
678.005	3472.5
678.195	3435.64
678.386	3591.28
678.576	3394.68
678.767	3394.68
678.957	3314.81
679.148	3337.34
679.338	3394.68
679.529	3460.21
679.719	3361.91
679.909	3484.79
680.1	3452.02
680.29	3304.57
680.481	3384.44
680.671	3325.05
680.861	3333.24
681.052	3452.02
681.242	3300.47
681.432	3243.13
681.622	3191.93
681.813	3279.99
682.003	3378.3
682.193	3253.37
682.383	3173.5
682.573	3331.19
682.764	3167.35
682.954	3310.71
683.144	3181.69
683.334	3091.58
683.524	3226.75
683.714	3275.9
683.904	3177.59
684.094	3148.92
684.284	3208.31
684.474	3187.83
684.664	3107.96
684.854	3210.36
685.044	3118.2
685.234	3114.11
685.424	3134.59
685.614	3232.89
685.804	3150.97
685.994	3071.1
686.184	2958.46
686.374	3122.3
686.564	3028.09
686.753	3050.62
686.943	2929.79
687.133	2960.51
687.323	2985.09
687.513	3132.54
687.702	3005.56
687.892	2903.17
688.082	2880.64
688.272	2964.61
688.461	2878.59
688.651	2997.37
688.841	2763.9
689.03	2774.14
689.22	2964.61
689.41	2845.82
689.599	2864.25
689.789	2743.42
689.979	2811.01
690.168	2784.38
690.358	2841.73
690.547	2806.91
690.737	2856.06
690.926	2782.34
691.116	2729.09
691.305	2821.25
691.495	2702.47
691.684	2768
691.874	2669.7
692.063	2860.16
692.252	2684.03
692.442	2651.27
692.631	2616.45
692.82	2585.73
693.01	2679.94
693.199	2522.24
693.388	2540.68
693.578	2555.01
693.767	2624.64
693.956	2602.11
694.146	2657.41
694.335	2432.13
694.524	2624.64
694.713	2610.31
694.902	2509.96
695.092	2526.34
695.281	2493.57
695.47	2438.28
695.659	2563.2
695.848	2460.81
696.037	2495.62
696.226	2505.86
696.415	2413.7
696.604	2608.26
696.793	2397.32
696.982	2487.43
697.171	2471.04
697.36	2395.27
697.549	2419.85
697.738	2370.69
697.927	2317.45
698.116	2481.28
698.305	2432.13
698.494	2471.04
698.683	2444.42
698.872	2509.96
699.061	2481.28
699.25	2323.59
699.438	2391.17
699.627	2329.74
699.816	2440.33
700.005	2415.75
700.193	2382.98
700.382	2423.94
700.571	2266.25
700.76	2256.01
700.948	2256.01
701.137	2425.99
701.326	2432.13
701.514	2339.97
701.703	2403.46
701.892	2290.82
702.08	2425.99
702.269	2350.21
702.457	2313.35
702.646	2428.04
702.834	2260.1
703.023	2301.06
703.212	2321.54
703.4	2442.37
703.589	2311.3
703.777	2329.74
703.965	2321.54
704.154	2301.06
704.342	2241.67
704.531	2286.73
704.719	2292.87
704.907	2356.36
705.096	2231.43
705.284	2233.48
705.472	2235.53
705.661	2217.1
705.849	2313.35
706.037	2296.97
706.226	2323.59
706.414	2270.34
706.602	2239.62
706.79	2264.2
706.979	2323.59
707.167	2270.34
707.355	2126.99
707.543	2198.67
707.731	2299.02
707.919	2247.82
708.107	2231.43
708.296	2245.77
708.484	2264.2
708.672	2258.06
708.86	2243.72
709.048	2225.29
709.236	2155.66
709.424	2247.82
709.612	2176.14
709.8	2210.95
709.988	2274.44
710.176	2290.82
710.364	2344.07
710.551	2329.74
710.739	2260.1
710.927	2227.34
711.115	2350.21
711.303	2215.05
711.491	2174.09
711.679	2305.16
711.866	2071.69
712.054	2225.29
712.242	2133.13
712.43	2174.09
712.617	2335.88
712.805	2276.49
712.993	2247.82
713.181	2122.89
713.368	2237.58
713.556	2196.62
713.744	2143.37
713.931	2215.05
714.119	2167.95
714.306	2284.68
714.494	2165.9
714.682	2251.91
714.869	2100.36
715.057	2198.67
715.244	2108.55
715.432	2178.19
715.619	2186.38
715.807	2135.18
715.994	2264.2
716.182	2329.74
716.369	2202.76
716.556	2143.37
716.744	2077.83
716.931	2192.52
717.119	2088.07
717.306	2370.69
717.493	2151.56
717.681	2172.04
717.868	2233.48
718.055	2243.72
718.242	2274.44
718.43	2145.42
718.617	2206.86
718.804	2217.1
718.991	2169.99
719.179	2167.95
719.366	2219.14
719.553	2290.82
719.74	2096.27
719.927	2124.94
720.114	2122.89
720.301	2247.82
720.488	2126.99
720.676	2176.14
720.863	2206.86
721.05	2288.78
721.237	2231.43
721.424	2196.62
721.611	2161.8
721.798	2184.33
721.985	2204.81
722.172	2088.07
722.358	2192.52
722.545	2157.71
722.732	2053.26
722.919	2124.94
723.106	2202.76
723.293	2241.67
723.48	2026.64
723.667	2012.3
723.853	2169.99
724.04	2272.39
724.227	2051.21
724.414	2137.23
724.6	2092.17
724.787	2071.69
724.974	2100.36
725.161	2086.03
725.347	2104.46
725.534	2264.2
725.72	2086.03
725.907	2182.28
726.094	2108.55
726.28	2071.69
726.467	2102.41
726.653	2112.65
726.84	2157.71
727.027	2210.95
727.213	2028.68
727.4	2151.56
727.586	2153.61
727.773	2157.71
727.959	2157.71
728.145	2088.07
728.332	2108.55
728.518	2210.95
728.705	2065.55
728.891	2202.76
729.077	2110.6
729.264	1975.44
729.45	2036.88
729.636	2225.29
729.823	2108.55
730.009	2180.23
730.195	2106.51
730.382	2198.67
730.568	2083.98
730.754	2022.54
730.94	2161.8
731.126	2043.02
731.313	2159.75
731.499	2163.85
731.685	2192.52
731.871	2141.32
732.057	2124.94
732.243	2092.17
732.429	2073.74
732.615	2024.59
732.801	1977.48
732.987	2094.22
733.173	2092.17
733.359	2018.44
733.545	1995.92
733.731	2090.12
733.917	2077.83
734.103	2053.26
734.289	2143.37
734.475	1936.53
734.661	2165.9
734.847	2051.21
735.033	2100.36
735.219	2022.54
735.404	2098.31
735.59	2055.31
735.776	2028.68
735.962	2038.92
736.148	2133.13
736.333	2149.51
736.519	2077.83
736.705	1969.29
736.89	2040.97
737.076	2100.36
737.262	2108.55
737.447	1971.34
737.633	2032.78
737.819	2045.07
738.004	1909.9
738.19	2043.02
738.375	2043.02
738.561	2036.88
738.747	1963.15
738.932	1950.86
739.118	2043.02
739.303	2018.44
739.489	2004.11
739.674	2036.88
739.859	1957
740.045	1926.29
740.23	1940.62
740.416	1889.42
740.601	1989.77
740.786	1905.81
740.972	1957
741.157	2006.16
741.342	1909.9
741.528	1965.2
741.713	1971.34
741.898	1987.72
742.084	1887.37
742.269	1973.39
742.454	1911.95
742.639	1879.18
742.824	1911.95
743.01	1864.85
743.195	1881.23
743.38	1795.22
743.565	1774.74
743.75	1901.71
743.935	1930.38
744.12	1930.38
744.305	1848.46
744.49	1819.79
744.675	1795.22
744.86	1873.04
745.045	1682.58
745.23	1827.98
745.415	1809.55
745.6	1801.36
745.785	1770.64
745.97	1842.32
746.155	1805.46
746.34	1748.11
746.525	1682.58
746.71	1760.4
746.895	1662.1
747.079	1643.67
747.264	1711.25
747.449	1713.3
747.634	1662.1
747.819	1760.4
748.003	1649.81
748.188	1668.24
748.373	1645.71
748.557	1594.51
748.742	1606.8
748.927	1551.51
749.111	1531.03
749.296	1600.66
749.481	1518.74
749.665	1533.08
749.85	1528.98
750.034	1608.85
750.219	1481.88
750.404	1449.11
750.588	1520.79
750.773	1590.42
750.957	1449.11
751.141	1485.97
751.326	1553.55
751.51	1440.92
751.695	1440.92
751.879	1479.83
752.064	1442.96
752.248	1445.01
752.432	1408.15
752.617	1430.68
752.801	1469.59
752.985	1313.94
753.17	1430.68
753.354	1363.09
753.538	1340.57
753.722	1277.08
753.907	1232.02
754.091	1293.46
754.275	1238.17
754.459	1291.41
754.643	1260.7
754.828	1209.5
755.012	1318.04
755.196	1252.5
755.38	1166.49
755.564	1168.54
755.748	1258.65
755.932	1225.88
756.116	1289.37
756.3	1268.89
756.484	1166.49
756.668	1158.3
756.852	1127.58
757.036	1158.3
757.22	1103
757.404	1103
757.588	1137.82
757.772	1168.54
757.956	1160.34
758.14	1107.1
758.323	1076.38
758.507	1150.11
758.691	1125.53
758.875	1059.99
759.059	1127.58
759.242	1086.62
759.426	1084.57
759.61	1105.05
759.794	1012.89
759.977	1088.67
760.161	1127.58
760.345	1174.68
760.528	1127.58
760.712	1019.04
760.895	986.27
761.079	1062.04
761.263	1039.51
761.446	1012.89
761.63	1051.8
761.813	1004.7
761.997	953.5
762.18	998.56
762.364	879.77
762.547	906.4
762.731	959.64
762.914	912.54
763.098	965.79
763.281	881.82
763.464	982.17
763.648	859.29
763.831	879.77
764.015	867.49
764.198	887.97
764.381	943.26
764.564	953.5
764.748	906.4
764.931	937.12
765.114	857.25
765.297	810.14
765.481	912.54
765.664	847.01
765.847	906.4
766.03	892.06
766.213	890.01
766.397	861.34
766.58	863.39
766.763	937.12
766.946	881.82
767.129	842.91
767.312	812.19
767.495	781.47
767.678	830.62
767.861	914.59
768.044	838.81
768.227	871.58
768.41	826.53
768.593	847.01
768.776	787.61
768.959	804
769.142	814.24
769.324	830.62
769.507	746.66
769.69	775.33
769.873	730.27
770.056	758.94
770.239	785.57
770.421	724.13
770.604	775.33
770.787	773.28
770.97	713.89
771.152	849.05
771.335	756.9
771.518	724.13
771.7	715.94
771.883	738.46
772.066	726.18
772.248	748.7
772.431	736.42
772.613	668.83
772.796	668.83
772.978	746.66
773.161	779.42
773.343	703.65
773.526	683.17
773.708	627.87
773.891	658.59
774.073	728.22
774.256	715.94
774.438	763.04
774.621	597.15
774.803	644.26
774.985	625.83
775.168	689.31
775.35	640.16
775.532	631.97
775.715	674.98
775.897	668.83
776.079	638.11
776.261	650.4
776.444	609.44
776.626	601.25
776.808	554.15
776.99	545.95
777.173	490.66
777.355	564.39
777.537	588.96
777.719	605.35
777.901	593.06
778.083	564.39
778.265	621.73
778.447	634.02
778.629	535.71
778.811	642.21
778.993	556.19
779.175	494.76
779.357	601.25
779.539	455.84
779.721	500.9
779.903	496.8
780.085	545.95
780.267	513.19
780.449	609.44
780.631	580.77
780.812	535.71
780.994	521.38
781.176	490.66
781.358	507.04
781.54	472.23
781.721	535.71
781.903	494.76
782.085	455.84
782.267	429.22
782.448	367.78
782.63	412.84
782.812	396.45
782.993	531.62
783.175	482.47
783.357	423.08
783.538	484.52
783.72	373.92
783.901	421.03
784.083	429.22
784.264	517.28
784.446	341.16
784.627	359.59
784.809	404.64
784.99	371.88
785.172	380.07
785.353	367.78
785.535	404.64
785.716	380.07
785.897	400.55
786.079	357.54
786.26	388.26
786.441	398.5
786.623	396.45
786.804	359.59
786.985	382.12
787.167	357.54
787.348	273.57
787.529	339.11
787.71	355.49
787.891	402.6
788.073	306.34
788.254	316.58
788.435	380.07
788.616	306.34
788.797	355.49
788.978	357.54
789.159	310.44
789.34	310.44
789.522	335.01
789.703	357.54
789.884	275.62
790.065	330.92
790.246	388.26
790.427	298.15
790.607	380.07
790.788	402.6
790.969	316.58
791.15	392.36
791.331	251.05
791.512	357.54
791.693	300.2
791.874	349.35
792.054	353.45
792.235	240.81
792.416	345.25
792.597	232.62
792.778	314.53
792.958	318.63
793.139	222.38
793.32	277.67
793.5	306.34
793.681	330.92
793.862	251.05
794.042	240.81
794.223	253.09
794.404	318.63
794.584	191.66
794.765	244.9
794.945	208.04
795.126	249
795.306	281.77
795.487	259.24
795.667	271.53
795.848	289.96
796.028	244.9
796.209	292.01
796.389	269.48
796.57	224.42
796.75	195.75
796.93	246.95
797.111	265.38
797.291	320.68
797.471	259.24
797.652	214.18
797.832	208.04
798.012	216.23
798.192	224.42
798.373	224.42
798.553	175.27
798.733	251.05
798.913	187.56
799.093	156.84
799.274	220.33
799.454	314.53
799.634	257.19
799.814	298.15
799.994	183.46
800.174	199.85
800.354	140.46
800.534	167.08
800.714	244.9
800.894	263.33
801.074	197.8
801.254	162.98
801.434	193.7
801.614	205.99
801.794	195.75
801.974	756.9
802.154	175.27
802.334	175.27
802.514	130.22
802.693	195.75
802.873	179.37
803.053	189.61
803.233	169.13
803.413	183.46
803.592	185.51
803.772	228.52
803.952	195.75
804.131	138.41
804.311	318.63
804.491	183.46
804.67	208.04
804.85	234.66
805.03	226.47
805.209	242.85
805.389	152.74
805.568	146.6
805.748	134.31
805.928	152.74
806.107	167.08
806.287	87.21
806.466	171.18
806.646	101.55
806.825	187.56
807.004	177.32
807.184	189.61
807.363	203.94
807.543	158.89
807.722	173.22
807.901	201.9
808.081	171.18
808.26	138.41
808.439	175.27
808.619	142.5
808.798	232.62
808.977	169.13
809.156	189.61
809.336	162.98
809.515	109.74
809.694	183.46
809.873	103.59
810.052	158.89
810.231	187.56
810.411	171.18
810.59	171.18
810.769	197.8
810.948	144.55
811.127	111.78
811.306	79.02
811.485	72.87
811.664	109.74
811.843	101.55
812.022	156.84
812.201	101.55
812.38	128.17
812.559	185.51
812.737	76.97
812.916	144.55
813.095	136.36
813.274	119.98
813.453	175.27
813.632	179.37
813.811	218.28
813.989	87.21
814.168	113.83
814.347	124.07
814.526	105.64
814.704	152.74
814.883	208.04
815.062	142.5
815.24	175.27
815.419	48.3
815.598	177.32
815.776	142.5
815.955	103.59
816.133	70.83
816.312	40.11
816.49	128.17
816.669	119.98
816.847	150.7
817.026	89.26
817.204	72.87
817.383	68.78
817.561	68.78
817.74	167.08
817.918	175.27
818.097	91.31
818.275	119.98
818.453	68.78
818.632	89.26
818.81	126.12
818.988	97.45
819.167	122.02
819.345	144.55
819.523	9.39
819.701	89.26
819.879	76.97
820.058	167.08
820.236	52.39
820.414	134.31
820.592	46.25
820.77	93.35
820.948	68.78
821.127	103.59
821.305	109.74
821.483	146.6
821.661	119.98
821.839	132.26
822.017	91.31
822.195	62.63
822.373	117.93
822.551	111.78
822.729	122.02
822.907	95.4
823.085	111.78
823.262	107.69
823.44	52.39
823.618	144.55
823.796	113.83
823.974	36.01
824.152	87.21
824.329	48.3
824.507	115.88
824.685	140.46
824.863	99.5
825.04	136.36
825.218	97.45
825.396	58.54
825.574	167.08
825.751	44.2
825.929	76.97
826.107	97.45
826.284	52.39
826.462	95.4
826.639	48.3
826.817	52.39
826.994	52.39
827.172	33.96
827.349	119.98
827.527	52.39
827.704	85.16
827.882	105.64
828.059	56.49
828.237	79.02
828.414	93.35
828.591	-4.95
828.769	70.83
828.946	64.68
829.124	165.03
829.301	85.16
829.478	111.78
829.655	68.78
829.833	81.07
830.01	-41.81
830.187	93.35
830.364	126.12
830.542	76.97
830.719	60.59
830.896	44.2
831.073	79.02
831.25	105.64
831.427	44.2
831.604	101.55
831.782	11.43
831.959	11.43
832.136	19.63
832.313	19.63
832.49	-11.09
832.667	29.87
832.844	66.73
833.021	60.59
833.198	25.77
833.374	93.35
833.551	29.87
833.728	19.63
833.905	60.59
834.082	19.63
834.259	36.01
834.436	105.64
834.612	93.35
834.789	46.25
834.966	42.15
835.143	126.12
835.319	-15.19
835.496	91.31
835.673	109.74
835.85	52.39
836.026	74.92
836.203	97.45
836.38	62.63
836.556	89.26
836.733	36.01
836.909	56.49
837.086	21.67
837.262	87.21
837.439	40.11
837.616	36.01
837.792	25.77
837.968	91.31
838.145	101.55
838.321	11.43
838.498	7.34
838.674	33.96
838.851	117.93
839.027	101.55
839.203	-9.05
839.38	87.21
839.556	25.77
839.732	-2.9
839.909	64.68
840.085	85.16
840.261	62.63
840.437	-13.14
840.614	54.44
840.79	52.39
840.966	85.16
841.142	85.16
841.318	-33.62
841.494	79.02
841.671	81.07
841.847	52.39
842.023	60.59
842.199	40.11
842.375	-9.05
842.551	-52.05
842.727	3.24
842.903	93.35
843.079	54.44
843.255	117.93
843.431	-17.24
843.607	-19.29
843.783	-27.48
843.959	46.25
844.134	74.92
844.31	52.39
844.486	40.11
844.662	31.91
844.838	56.49
845.013	76.97
845.189	29.87
845.365	87.21
845.541	36.01
845.716	76.97
845.892	-19.29
846.068	-13.14
846.244	15.53
846.419	23.72
846.595	44.2
846.77	40.11
846.946	56.49
847.122	-17.24
847.297	66.73
847.473	-7
847.648	-45.91
847.824	27.82
847.999	13.48
848.175	44.2
848.35	36.01
848.526	54.44
848.701	-29.52
848.876	85.16
849.052	76.97
849.227	68.78
849.403	-2.9
849.578	13.48
849.753	7.34
849.929	-17.24
850.104	-90.96
850.279	7.34
850.454	36.01
850.63	70.83
850.805	93.35
850.98	70.83
851.155	33.96
851.33	107.69
851.505	-74.58
851.681	105.64
851.856	-43.86
852.031	76.97
852.206	-13.14
852.381	36.01
852.556	-27.48
852.731	3.24
852.906	109.74
853.081	-4.95
853.256	-11.09
853.431	36.01
853.606	21.67
853.781	-74.58
853.956	3.24
854.131	66.73
854.305	-0.85
854.48	15.53
854.655	-25.43
854.83	29.87
855.005	64.68
855.18	19.63
855.354	5.29
855.529	7.34
855.704	54.44
855.879	27.82
856.053	-58.2
856.228	64.68
856.403	52.39
856.577	3.24
856.752	-35.67
856.926	54.44
857.101	5.29
857.276	3.24
857.45	3.24
857.625	13.48
857.799	3.24
857.974	-25.43
858.148	-21.33
858.323	-11.09
858.497	40.11
858.672	-4.95
858.846	15.53
859.02	109.74
859.195	-13.14
859.369	-23.38
859.543	-33.62
859.718	21.67
859.892	62.63
860.066	44.2
860.241	-56.15
860.415	-25.43
860.589	-25.43
860.763	-9.05
860.938	-11.09
861.112	15.53
861.286	19.63
861.46	27.82
861.634	54.44
861.808	31.91
861.982	-58.2
862.157	29.87
862.331	-17.24
862.505	1.19
862.679	21.67
862.853	-11.09
863.027	11.43
863.201	-7
863.375	58.54
863.549	-43.86
863.722	25.77
863.896	-2.9
864.07	-4.95
864.244	19.63
864.418	27.82
864.592	56.49
864.766	33.96
864.939	62.63
865.113	29.87
865.287	13.48
865.461	-29.52
865.634	38.06
865.808	-54.1
865.982	68.78
866.156	-17.24
866.329	21.67
866.503	52.39
866.676	-0.85
866.85	-33.62
867.024	-9.05
867.197	-2.9
867.371	7.34
867.544	-60.24
867.718	-52.05
867.891	19.63
868.065	36.01
868.238	11.43
868.412	11.43
868.585	7.34
868.759	44.2
868.932	38.06
869.105	29.87
869.279	68.78
869.452	36.01
869.625	-37.72
869.799	-17.24
869.972	13.48
870.145	44.2
870.319	76.97
870.492	-4.95
870.665	-2.9
870.838	40.11
871.011	-37.72
871.185	27.82
871.358	-19.29
871.531	38.06
871.704	31.91
871.877	44.2
872.05	3.24
872.223	21.67
872.396	64.68
872.569	31.91
872.742	-45.91
872.915	38.06
873.088	17.58
873.261	-54.1
873.434	-9.05
873.607	-82.77
873.78	11.43
873.953	-41.81
874.126	-21.33
874.299	31.91
874.471	-21.33
874.644	-19.29
874.817	68.78
874.99	36.01
875.163	3.24
875.335	-31.57
875.508	42.15
875.681	-19.29
875.853	-19.29
876.026	64.68
876.199	33.96
876.371	-4.95
876.544	38.06
876.717	31.91
876.889	-4.95
877.062	19.63
877.234	60.59
877.407	19.63
877.579	-21.33
877.752	36.01
877.924	36.01
878.097	-2.9
878.269	7.34
878.442	50.35
878.614	27.82
878.786	-33.62
878.959	-11.09
879.131	-4.95
879.303	-37.72
879.476	-2.9
879.648	-2.9
879.82	-84.82
879.993	-9.05
880.165	23.72
880.337	-33.62
880.509	36.01
880.681	3.24
880.854	-37.72
881.026	91.31
881.198	68.78
881.37	7.34
881.542	11.43
881.714	46.25
881.886	48.3
882.058	-58.2
882.23	38.06
882.402	-101.2
882.574	-13.14
882.746	52.39
882.918	52.39
883.09	-62.29
883.262	-0.85
883.434	-19.29
883.606	-35.67
883.778	-11.09
883.95	17.58
884.122	-13.14
884.293	25.77
884.465	-25.43
884.637	1.19
884.809	-64.34
884.98	48.3
885.152	5.29
885.324	58.54
885.496	54.44
885.667	-4.95
885.839	7.34
886.011	15.53
886.182	-19.29
886.354	46.25
886.525	-7
886.697	3.24
886.869	-74.58
887.04	-37.72
887.212	15.53
887.383	-17.24
887.555	-68.44
887.726	31.91
887.897	-2.9
888.069	3.24
888.24	46.25
888.412	-37.72
888.583	-21.33
888.754	85.16
888.926	-54.1
889.097	46.25
889.268	-11.09
889.44	-17.24
889.611	-21.33
889.782	-15.19
889.953	-45.91
890.125	19.63
890.296	15.53
890.467	-25.43
890.638	-66.39
890.809	-21.33
890.98	21.67
891.151	-29.52
891.323	-35.67
891.494	-7
891.665	74.92
891.836	-52.05
892.007	48.3
892.178	3.24
892.349	-62.29
892.52	3.24
892.691	-4.95
892.862	-4.95
893.032	-41.81
893.203	-50
893.374	-25.43
893.545	38.06
893.716	-88.92
893.887	-54.1
894.057	-45.91
894.228	15.53
894.399	50.35
894.57	1.19
894.74	-0.85
894.911	40.11
895.082	-60.24
895.253	-4.95
895.423	27.82
895.594	-27.48
895.764	-68.44
895.935	27.82
896.106	7.34
896.276	36.01
896.447	23.72
896.617	-9.05
896.788	-41.81
896.958	-9.05
897.129	-27.48
897.299	-25.43
897.47	74.92
897.64	62.63
897.81	3.24
897.981	68.78
898.151	-62.29
898.322	31.91
898.492	-54.1
898.662	-29.52
898.832	-4.95
899.003	13.48
899.173	3.24
899.343	1.19
899.513	-78.68
