Data from USB4F104151__59__14-17-06-839.txt Node

Date: Thu Mar 13 14:17:06 EDT 2025
User: louis
Spectrometer: USB4F10415
Trigger mode: 4
Integration Time (sec): 2.000000E-2
Scans to average: 1
Electric dark correction enabled: true
Nonlinearity correction enabled: false
Boxcar width: 0
XAxis mode: Wavelengths
Number of Pixels in Spectrum: 3648
>>>>>Begin Spectral Data<<<<<
178.204	-56.83
178.424	-56.83
178.644	-56.83
178.864	-142.85
179.084	-142.85
179.304	0.51
179.524	12.8
179.744	-15.87
179.964	49.66
180.184	-48.64
180.404	59.9
180.624	2.56
180.844	-93.69
181.064	4.61
181.283	33.28
181.503	-13.82
181.723	8.7
181.943	-26.11
182.163	84.48
182.383	57.86
182.602	-1.54
182.822	53.76
183.042	41.47
183.262	-110.08
183.482	100.86
183.701	-7.68
183.921	66.05
184.141	25.09
184.361	16.9
184.58	-22.02
184.8	-5.63
185.02	12.8
185.239	70.14
185.459	49.66
185.679	27.14
185.898	-7.68
186.118	45.57
186.338	51.71
186.557	-1.54
186.777	68.09
186.997	74.24
187.216	57.86
187.436	57.86
187.655	82.43
187.875	98.81
188.095	57.86
188.314	57.86
188.534	14.85
188.753	31.23
188.973	64
189.192	61.95
189.412	-32.26
189.631	18.94
189.851	-40.45
190.07	41.47
190.29	10.75
190.509	8.7
190.729	57.86
190.948	115.2
191.168	170.49
191.387	80.38
191.607	-1.54
191.826	-42.5
192.045	49.66
192.265	94.72
192.484	-3.58
192.704	82.43
192.923	37.38
193.142	90.62
193.362	66.05
193.581	29.18
193.8	68.09
194.02	100.86
194.239	61.95
194.458	107.01
194.678	51.71
194.897	-19.97
195.116	49.66
195.335	25.09
195.555	43.52
195.774	37.38
195.993	25.09
196.212	41.47
196.432	-5.63
196.651	8.7
196.87	49.66
197.089	59.9
197.308	31.23
197.528	66.05
197.747	-11.78
197.966	70.14
198.185	-38.4
198.404	-11.78
198.623	6.66
198.842	70.14
199.062	39.42
199.281	57.86
199.5	12.8
199.719	-15.87
199.938	61.95
200.157	55.81
200.376	72.19
200.595	98.81
200.814	47.62
201.033	41.47
201.252	-7.68
201.471	-28.16
201.69	14.85
201.909	-15.87
202.128	-15.87
202.347	41.47
202.566	18.94
202.785	4.61
203.004	25.09
203.223	109.05
203.442	84.48
203.661	59.9
203.879	18.94
204.098	31.23
204.317	-15.87
204.536	2.56
204.755	12.8
204.974	0.51
205.193	53.76
205.411	43.52
205.63	25.09
205.849	41.47
206.068	-3.58
206.287	57.86
206.505	55.81
206.724	25.09
206.943	-7.68
207.162	4.61
207.381	-19.97
207.599	-5.63
207.818	-24.06
208.037	90.62
208.255	55.81
208.474	4.61
208.693	82.43
208.911	70.14
209.13	86.53
209.349	16.9
209.567	33.28
209.786	84.48
210.005	61.95
210.223	35.33
210.442	70.14
210.661	-1.54
210.879	-3.58
211.098	70.14
211.316	72.19
211.535	55.81
211.753	-44.54
211.972	59.9
212.191	35.33
212.409	-7.68
212.628	61.95
212.846	72.19
213.065	117.25
213.283	84.48
213.502	66.05
213.72	33.28
213.938	70.14
214.157	-32.26
214.375	94.72
214.594	92.67
214.812	80.38
215.031	41.47
215.249	-36.35
215.467	-19.97
215.686	6.66
215.904	33.28
216.122	8.7
216.341	27.14
216.559	51.71
216.778	53.76
216.996	74.24
217.214	-3.58
217.432	43.52
217.651	33.28
217.869	0.51
218.087	127.49
218.306	-15.87
218.524	37.38
218.742	-40.45
218.96	27.14
219.179	12.8
219.397	61.95
219.615	107.01
219.833	4.61
220.051	-7.68
220.27	104.96
220.488	51.71
220.706	82.43
220.924	-15.87
221.142	25.09
221.36	76.29
221.578	82.43
221.796	41.47
222.015	33.28
222.233	-42.5
222.451	88.57
222.669	6.66
222.887	82.43
223.105	-22.02
223.323	53.76
223.541	14.85
223.759	18.94
223.977	107.01
224.195	107.01
224.413	53.76
224.631	25.09
224.849	33.28
225.067	96.77
225.285	33.28
225.503	25.09
225.721	-19.97
225.939	47.62
226.157	25.09
226.375	92.67
226.592	-3.58
226.81	-46.59
227.028	59.9
227.246	90.62
227.464	37.38
227.682	0.51
227.9	78.33
228.117	74.24
228.335	14.85
228.553	107.01
228.771	2.56
228.989	20.99
229.206	121.34
229.424	27.14
229.642	90.62
229.86	12.8
230.077	53.76
230.295	109.05
230.513	0.51
230.731	37.38
230.948	33.28
231.166	41.47
231.384	2.56
231.601	6.66
231.819	51.71
232.037	53.76
232.254	-11.78
232.472	49.66
232.689	0.51
232.907	0.51
233.125	12.8
233.342	64
233.56	-24.06
233.777	18.94
233.995	78.33
234.213	66.05
234.43	70.14
234.648	-7.68
234.865	12.8
235.083	43.52
235.3	61.95
235.518	35.33
235.735	53.76
235.953	45.57
236.17	86.53
236.388	20.99
236.605	6.66
236.822	86.53
237.04	80.38
237.257	10.75
237.475	-5.63
237.692	-19.97
237.909	29.18
238.127	8.7
238.344	16.9
238.562	49.66
238.779	-38.4
238.996	41.47
239.214	68.09
239.431	12.8
239.648	33.28
239.865	53.76
240.083	25.09
240.3	37.38
240.517	70.14
240.735	4.61
240.952	57.86
241.169	41.47
241.386	45.57
241.603	20.99
241.821	-32.26
242.038	37.38
242.255	66.05
242.472	57.86
242.689	90.62
242.907	10.75
243.124	55.81
243.341	43.52
243.558	12.8
243.775	29.18
243.992	-13.82
244.209	14.85
244.426	8.7
244.643	2.56
244.86	29.18
245.078	59.9
245.295	96.77
245.512	16.9
245.729	33.28
245.946	41.47
246.163	82.43
246.38	92.67
246.597	-28.16
246.814	100.86
247.031	18.94
247.248	8.7
247.464	49.66
247.681	76.29
247.898	12.8
248.115	109.05
248.332	37.38
248.549	104.96
248.766	123.39
248.983	100.86
249.2	27.14
249.417	16.9
249.633	33.28
249.85	-7.68
250.067	92.67
250.284	53.76
250.501	29.18
250.717	16.9
250.934	53.76
251.151	6.66
251.368	70.14
251.585	78.33
251.801	92.67
252.018	74.24
252.235	39.42
252.451	29.18
252.668	-7.68
252.885	33.28
253.102	72.19
253.318	10.75
253.535	8.7
253.752	31.23
253.968	51.71
254.185	59.9
254.401	59.9
254.618	76.29
254.835	61.95
255.051	121.34
255.268	27.14
255.484	27.14
255.701	68.09
255.917	84.48
256.134	12.8
256.351	51.71
256.567	0.51
256.784	82.43
257	66.05
257.217	113.15
257.433	90.62
257.65	78.33
257.866	74.24
258.082	-62.98
258.299	-3.58
258.515	16.9
258.732	49.66
258.948	16.9
259.165	49.66
259.381	74.24
259.597	16.9
259.814	29.18
260.03	72.19
260.246	98.81
260.463	0.51
260.679	16.9
260.895	39.42
261.112	68.09
261.328	31.23
261.544	-5.63
261.761	61.95
261.977	-7.68
262.193	-97.79
262.409	82.43
262.626	57.86
262.842	-32.26
263.058	37.38
263.274	53.76
263.49	68.09
263.707	39.42
263.923	64
264.139	90.62
264.355	-24.06
264.571	8.7
264.787	41.47
265.004	37.38
265.22	84.48
265.436	59.9
265.652	39.42
265.868	25.09
266.084	12.8
266.3	76.29
266.516	16.9
266.732	66.05
266.948	78.33
267.164	57.86
267.38	88.57
267.596	57.86
267.812	-9.73
268.028	86.53
268.244	16.9
268.46	98.81
268.676	82.43
268.892	27.14
269.108	-22.02
269.324	29.18
269.54	27.14
269.756	123.39
269.972	-5.63
270.188	57.86
270.403	16.9
270.619	41.47
270.835	51.71
271.051	86.53
271.267	45.57
271.483	27.14
271.698	86.53
271.914	49.66
272.13	16.9
272.346	25.09
272.562	59.9
272.777	12.8
272.993	-3.58
273.209	-7.68
273.425	51.71
273.64	-24.06
273.856	41.47
274.072	68.09
274.287	-1.54
274.503	53.76
274.719	47.62
274.934	64
275.15	-1.54
275.366	78.33
275.581	76.29
275.797	41.47
276.012	20.99
276.228	76.29
276.444	43.52
276.659	90.62
276.875	104.96
277.09	2.56
277.306	80.38
277.521	102.91
277.737	49.66
277.952	0.51
278.168	10.75
278.383	57.86
278.599	-9.73
278.814	51.71
279.03	117.25
279.245	51.71
279.461	6.66
279.676	-13.82
279.892	0.51
280.107	-71.17
280.322	25.09
280.538	18.94
280.753	61.95
280.969	100.86
281.184	-13.82
281.399	41.47
281.615	18.94
281.83	78.33
282.045	-7.68
282.26	64
282.476	25.09
282.691	82.43
282.906	76.29
283.122	37.38
283.337	8.7
283.552	18.94
283.767	100.86
283.983	139.77
284.198	33.28
284.413	35.33
284.628	-17.92
284.843	20.99
285.058	51.71
285.274	45.57
285.489	-32.26
285.704	82.43
285.919	57.86
286.134	-3.58
286.349	-24.06
286.564	55.81
286.779	45.57
286.995	25.09
287.21	-15.87
287.425	35.33
287.64	55.81
287.855	98.81
288.07	2.56
288.285	82.43
288.5	29.18
288.715	8.7
288.93	68.09
289.145	37.38
289.36	49.66
289.575	82.43
289.79	64
290.004	8.7
290.219	49.66
290.434	70.14
290.649	66.05
290.864	68.09
291.079	-3.58
291.294	-40.45
291.509	59.9
291.724	76.29
291.938	33.28
292.153	16.9
292.368	33.28
292.583	115.2
292.798	109.05
293.012	117.25
293.227	82.43
293.442	-67.07
293.657	49.66
293.871	90.62
294.086	27.14
294.301	41.47
294.516	84.48
294.73	68.09
294.945	33.28
295.16	-36.35
295.374	72.19
295.589	59.9
295.804	16.9
296.018	45.57
296.233	123.39
296.447	86.53
296.662	0.51
296.877	55.81
297.091	90.62
297.306	0.51
297.52	123.39
297.735	61.95
297.949	10.75
298.164	86.53
298.378	-22.02
298.593	-13.82
298.807	14.85
299.022	43.52
299.236	86.53
299.451	94.72
299.665	49.66
299.88	33.28
300.094	8.7
300.309	33.28
300.523	57.86
300.737	12.8
300.952	45.57
301.166	49.66
301.381	8.7
301.595	-9.73
301.809	49.66
302.024	33.28
302.238	12.8
302.452	59.9
302.667	82.43
302.881	76.29
303.095	27.14
303.309	57.86
303.524	-7.68
303.738	16.9
303.952	84.48
304.166	33.28
304.381	-48.64
304.595	74.24
304.809	8.7
305.023	59.9
305.237	31.23
305.452	72.19
305.666	49.66
305.88	25.09
306.094	66.05
306.308	16.9
306.522	33.28
306.736	45.57
306.95	64
307.164	-5.63
307.379	70.14
307.593	119.29
307.807	0.51
308.021	51.71
308.235	90.62
308.449	16.9
308.663	53.76
308.877	123.39
309.091	33.28
309.305	76.29
309.519	33.28
309.733	49.66
309.947	0.51
310.161	4.61
310.374	33.28
310.588	98.81
310.802	8.7
311.016	107.01
311.23	80.38
311.444	16.9
311.658	57.86
311.872	78.33
312.085	4.61
312.299	90.62
312.513	45.57
312.727	2.56
312.941	-19.97
313.154	137.73
313.368	49.66
313.582	-5.63
313.796	45.57
314.009	2.56
314.223	61.95
314.437	0.51
314.651	-30.21
314.864	12.8
315.078	84.48
315.292	-5.63
315.505	20.99
315.719	10.75
315.933	70.14
316.146	27.14
316.36	33.28
316.573	37.38
316.787	8.7
317.001	51.71
317.214	35.33
317.428	18.94
317.641	70.14
317.855	41.47
318.068	107.01
318.282	90.62
318.495	57.86
318.709	139.77
318.922	43.52
319.136	74.24
319.349	61.95
319.563	57.86
319.776	111.1
319.99	0.51
320.203	86.53
320.417	100.86
320.63	61.95
320.843	61.95
321.057	25.09
321.27	61.95
321.483	74.24
321.697	104.96
321.91	100.86
322.124	10.75
322.337	23.04
322.55	72.19
322.763	61.95
322.977	57.86
323.19	35.33
323.403	12.8
323.617	41.47
323.83	125.44
324.043	-5.63
324.256	135.68
324.469	47.62
324.683	127.49
324.896	59.9
325.109	49.66
325.322	37.38
325.535	115.2
325.748	43.52
325.962	66.05
326.175	66.05
326.388	68.09
326.601	96.77
326.814	68.09
327.027	-85.5
327.24	37.38
327.453	-48.64
327.666	18.94
327.879	111.1
328.092	23.04
328.305	72.19
328.518	18.94
328.731	45.57
328.944	66.05
329.157	82.43
329.37	76.29
329.583	33.28
329.796	127.49
330.009	-1.54
330.222	135.68
330.435	66.05
330.648	111.1
330.861	12.8
331.073	16.9
331.286	76.29
331.499	-9.73
331.712	102.91
331.925	74.24
332.138	31.23
332.35	49.66
332.563	4.61
332.776	98.81
332.989	12.8
333.202	57.86
333.414	35.33
333.627	61.95
333.84	-3.58
334.053	152.06
334.265	8.7
334.478	47.62
334.691	35.33
334.903	100.86
335.116	82.43
335.329	68.09
335.541	39.42
335.754	70.14
335.966	43.52
336.179	109.05
336.392	35.33
336.604	37.38
336.817	57.86
337.029	49.66
337.242	31.23
337.454	18.94
337.667	84.48
337.88	66.05
338.092	25.09
338.305	70.14
338.517	68.09
338.729	109.05
338.942	47.62
339.154	-36.35
339.367	41.47
339.579	82.43
339.792	51.71
340.004	6.66
340.217	20.99
340.429	125.44
340.641	92.67
340.854	92.67
341.066	59.9
341.278	107.01
341.491	109.05
341.703	53.76
341.915	-5.63
342.128	57.86
342.34	82.43
342.552	133.63
342.764	8.7
342.977	39.42
343.189	27.14
343.401	66.05
343.613	4.61
343.826	33.28
344.038	74.24
344.25	51.71
344.462	0.51
344.674	92.67
344.886	55.81
345.099	90.62
345.311	37.38
345.523	20.99
345.735	16.9
345.947	80.38
346.159	74.24
346.371	25.09
346.583	88.57
346.795	127.49
347.007	25.09
347.219	-5.63
347.431	39.42
347.643	66.05
347.855	70.14
348.067	68.09
348.279	76.29
348.491	25.09
348.703	25.09
348.915	-15.87
349.127	0.51
349.339	74.24
349.551	51.71
349.763	92.67
349.975	123.39
350.187	76.29
350.399	123.39
350.61	117.25
350.822	53.76
351.034	33.28
351.246	125.44
351.458	107.01
351.669	41.47
351.881	43.52
352.093	74.24
352.305	27.14
352.517	49.66
352.728	33.28
352.94	16.9
353.152	76.29
353.363	14.85
353.575	59.9
353.787	92.67
353.999	43.52
354.21	115.2
354.422	2.56
354.633	66.05
354.845	0.51
355.057	64
355.268	33.28
355.48	45.57
355.692	76.29
355.903	57.86
356.115	57.86
356.326	12.8
356.538	86.53
356.749	18.94
356.961	33.28
357.172	57.86
357.384	74.24
357.595	139.77
357.807	-3.58
358.018	18.94
358.23	25.09
358.441	59.9
358.653	51.71
358.864	70.14
359.075	64
359.287	57.86
359.498	113.15
359.709	117.25
359.921	107.01
360.132	147.97
360.344	-28.16
360.555	25.09
360.766	29.18
360.977	0.51
361.189	115.2
361.4	33.28
361.611	141.82
361.823	156.16
362.034	107.01
362.245	61.95
362.456	61.95
362.667	68.09
362.879	33.28
363.09	66.05
363.301	61.95
363.512	74.24
363.723	18.94
363.935	74.24
364.146	129.53
364.357	57.86
364.568	66.05
364.779	43.52
364.99	-1.54
365.201	12.8
365.412	45.57
365.623	-3.58
365.834	78.33
366.045	-11.78
366.256	68.09
366.467	51.71
366.678	37.38
366.889	25.09
367.1	20.99
367.311	35.33
367.522	64
367.733	102.91
367.944	121.34
368.155	78.33
368.366	33.28
368.577	43.52
368.788	53.76
368.999	20.99
369.209	100.86
369.42	125.44
369.631	70.14
369.842	66.05
370.053	45.57
370.264	137.73
370.474	68.09
370.685	49.66
370.896	53.76
371.107	49.66
371.317	57.86
371.528	10.75
371.739	107.01
371.95	74.24
372.16	100.86
372.371	82.43
372.582	43.52
372.792	111.1
373.003	57.86
373.214	16.9
373.424	33.28
373.635	27.14
373.846	156.16
374.056	16.9
374.267	0.51
374.477	111.1
374.688	57.86
374.898	111.1
375.109	107.01
375.319	57.86
375.53	37.38
375.74	16.9
375.951	78.33
376.161	20.99
376.372	72.19
376.582	72.19
376.793	90.62
377.003	57.86
377.214	-44.54
377.424	74.24
377.635	80.38
377.845	35.33
378.055	78.33
378.266	18.94
378.476	25.09
378.686	74.24
378.897	164.35
379.107	55.81
379.317	-5.63
379.528	18.94
379.738	90.62
379.948	29.18
380.158	117.25
380.369	61.95
380.579	14.85
380.789	41.47
380.999	88.57
381.21	131.58
381.42	121.34
381.63	68.09
381.84	76.29
382.05	74.24
382.261	109.05
382.471	152.06
382.681	66.05
382.891	92.67
383.101	18.94
383.311	41.47
383.521	49.66
383.731	41.47
383.941	123.39
384.151	115.2
384.361	-24.06
384.571	121.34
384.781	43.52
384.991	111.1
385.201	160.25
385.411	-32.26
385.621	49.66
385.831	6.66
386.041	66.05
386.251	100.86
386.461	162.3
386.671	164.35
386.881	55.81
387.091	82.43
387.301	61.95
387.511	16.9
387.72	78.33
387.93	111.1
388.14	55.81
388.35	53.76
388.56	70.14
388.769	-5.63
388.979	139.77
389.189	76.29
389.399	107.01
389.609	131.58
389.818	115.2
390.028	35.33
390.238	49.66
390.447	80.38
390.657	8.7
390.867	64
391.076	39.42
391.286	74.24
391.496	59.9
391.705	66.05
391.915	84.48
392.125	139.77
392.334	-13.82
392.544	133.63
392.753	94.72
392.963	82.43
393.172	152.06
393.382	98.81
393.591	127.49
393.801	78.33
394.01	92.67
394.22	102.91
394.429	150.01
394.639	74.24
394.848	84.48
395.058	152.06
395.267	94.72
395.477	74.24
395.686	47.62
395.895	199.16
396.105	145.92
396.314	107.01
396.524	100.86
396.733	129.53
396.942	109.05
397.152	92.67
397.361	96.77
397.57	86.53
397.78	84.48
397.989	129.53
398.198	137.73
398.407	193.02
398.617	127.49
398.826	111.1
399.035	168.45
399.244	90.62
399.453	182.78
399.663	27.14
399.872	127.49
400.081	139.77
400.29	139.77
400.499	111.1
400.708	145.92
400.917	115.2
401.127	127.49
401.336	72.19
401.545	215.55
401.754	190.97
401.963	164.35
402.172	123.39
402.381	203.26
402.59	107.01
402.799	98.81
403.008	180.73
403.217	123.39
403.426	182.78
403.635	94.72
403.844	84.48
404.053	166.4
404.262	74.24
404.471	213.5
404.68	158.21
404.888	213.5
405.097	184.83
405.306	147.97
405.515	209.4
405.724	252.41
405.933	197.12
406.142	240.12
406.35	180.73
406.559	223.74
406.768	188.93
406.977	238.08
407.185	254.46
407.394	166.4
407.603	227.84
407.812	242.17
408.02	262.65
408.229	262.65
408.438	211.45
408.646	256.51
408.855	356.86
409.064	320
409.272	281.08
409.481	328.19
409.69	217.6
409.898	279.04
410.107	326.14
410.315	371.19
410.524	346.62
410.733	365.05
410.941	369.15
411.15	401.91
411.358	459.26
411.567	365.05
411.775	381.43
411.984	489.98
412.192	412.15
412.401	532.98
412.609	516.6
412.818	524.79
413.026	567.8
413.234	477.69
413.443	604.66
413.651	627.19
413.86	578.04
414.068	614.9
414.276	668.15
414.485	721.4
414.693	778.74
414.901	778.74
415.11	815.6
415.318	778.74
415.526	907.76
415.734	815.6
415.943	860.66
416.151	870.9
416.359	891.38
416.567	975.35
416.776	1020.4
416.984	1108.46
417.192	1128.94
417.4	1112.56
417.608	1139.18
417.817	1147.37
418.025	1169.9
418.233	1235.44
418.441	1278.44
418.649	1343.98
418.857	1399.27
419.065	1417.71
419.273	1397.23
419.481	1503.72
419.689	1575.4
419.897	1585.64
420.105	1716.71
420.313	1679.85
420.521	1835.49
420.729	1876.45
420.937	1884.64
421.145	1851.88
421.353	1884.64
421.561	2062.82
421.769	2126.3
421.977	2222.56
422.185	2161.12
422.393	2429.4
422.601	2558.42
422.809	2529.75
423.017	2515.42
423.224	2583
423.432	2726.36
423.64	2613.72
423.848	2892.24
424.056	2869.72
424.263	3156.43
424.471	3160.53
424.679	3213.77
424.887	3299.79
425.094	3437
425.302	3359.18
425.51	3566.03
425.718	3705.29
425.925	3783.11
426.133	3815.88
426.341	4041.15
426.548	4305.34
426.756	4444.6
426.964	4346.3
427.171	4628.92
427.379	4854.2
427.586	4784.57
427.794	4776.38
428.001	5212.59
428.209	5409.2
428.417	5288.37
428.624	5616.04
428.832	5624.23
429.039	5530.03
429.247	5411.25
429.454	6255.01
429.662	6498.72
429.869	6015.4
430.076	6599.07
430.284	6504.86
430.491	6670.75
430.699	6971.8
430.906	7188.88
431.114	7154.07
431.321	7537.04
431.528	7496.08
431.736	8018.31
431.943	8511.87
432.15	8081.8
432.358	8196.48
432.565	8751.48
432.772	8731
432.979	9001.33
433.187	9374.06
433.394	9054.58
433.601	9941.35
433.808	10033.51
434.016	10127.72
434.223	10389.86
434.43	10918.23
434.637	10795.36
434.844	11391.31
435.052	11612.49
435.259	11915.59
435.466	11637.07
435.673	11649.36
435.88	12243.27
436.087	12867.9
436.294	12843.32
436.501	12738.88
436.708	12847.42
436.915	13494.58
437.122	13814.06
437.329	13963.56
437.537	14203.18
437.743	14668.06
437.95	14493.99
438.157	14948.64
438.364	15620.37
438.571	15796.49
438.778	15747.34
438.985	17094.91
439.192	16406.79
439.399	17158.39
439.606	16673.03
439.813	17496.31
440.02	18747.62
440.227	18493.67
440.433	18436.33
440.64	18532.58
440.847	18501.86
441.054	19120.35
441.261	20476.1
441.467	20113.61
441.674	20451.53
441.881	21256.38
442.088	21227.71
442.294	20977.86
442.501	21700.79
442.708	22073.52
442.914	22546.6
443.121	23861.4
443.328	23105.7
443.534	25047.17
443.741	23863.44
443.948	23742.61
444.154	25213.06
444.361	25163.9
444.568	25430.14
444.774	25315.45
444.981	25776.25
445.187	26470.51
445.394	27689.05
445.6	27330.65
445.807	29753.4
446.013	28592.2
446.22	28702.79
446.426	30208.05
446.633	30443.57
446.839	31375.39
447.046	30146.61
447.252	31631.39
447.459	31834.14
447.665	31547.42
447.871	32862.22
448.078	34152.44
448.284	32712.72
448.491	33906.68
448.697	34936.81
448.903	35557.35
449.11	35592.16
449.316	35061.74
449.522	35569.63
449.728	36798.41
449.935	36986.83
450.141	36986.83
450.347	37849.02
450.553	36321.24
450.76	36968.4
450.966	38684.59
451.172	37474.24
451.378	38510.52
451.584	37873.6
451.791	39067.56
451.997	38784.94
452.203	39440.29
452.409	39255.98
452.615	39206.83
452.821	37590.98
453.027	37232.58
453.233	39083.95
453.44	37830.59
453.646	37918.65
453.852	38518.71
454.058	38918.06
454.264	37515.2
454.47	38662.07
454.676	37705.66
454.882	39110.57
455.088	35717.09
455.294	36329.43
455.5	36798.41
455.705	37248.97
455.911	35456.99
456.117	34975.72
456.323	34451.44
456.529	32524.3
456.735	34492.4
456.941	32997.38
457.147	32925.71
457.352	31688.73
457.558	31363.11
457.764	32083.99
457.97	30988.33
458.176	30455.86
458.381	29825.08
458.587	28629.07
458.793	28584.01
458.999	27594.84
459.204	29354.05
459.41	28262.48
459.616	26447.98
459.821	27005.03
460.027	26810.47
460.233	25829.49
460.438	24987.78
460.644	24760.45
460.85	23888.02
461.055	23537.82
461.261	23455.9
461.466	21786.8
461.672	21125.31
461.878	22730.92
462.083	21264.57
462.289	20523.21
462.494	20711.62
462.7	19452.12
462.905	19056.86
463.111	19837.14
463.316	19730.64
463.522	19491.03
463.727	19296.47
463.932	19581.14
464.138	19036.38
464.343	19298.52
464.549	18915.55
464.754	19323.1
464.959	18964.7
465.165	18776.29
465.37	18303.21
465.575	17717.49
465.781	18378.98
465.986	18477.29
466.191	17910
466.397	17709.3
466.602	16863.49
466.807	17371.38
467.012	17346.81
467.218	17295.61
467.423	17021.18
467.628	17398.01
467.833	17819.89
468.038	17088.76
468.244	16650.5
468.449	17463.54
468.654	16754.94
468.859	16793.86
469.064	16773.38
469.269	15835.41
469.474	16050.44
469.679	16589.06
469.885	16173.32
470.09	16111.88
470.295	15966.48
470.5	15546.64
470.705	15794.45
470.91	15288.6
471.115	15184.15
471.32	15589.65
471.525	15253.78
471.73	14954.78
471.935	14944.54
472.139	14520.61
472.344	14836
472.549	14348.58
472.754	14375.2
472.959	14188.84
473.164	13902.12
473.369	13713.71
473.574	14151.98
473.778	13713.71
473.983	13738.29
474.188	14119.21
474.393	13142.33
474.598	13156.66
474.802	13103.42
475.007	12951.87
475.212	13173.05
475.417	12603.71
475.621	12804.41
475.826	12650.81
476.031	12427.59
476.235	11974.99
476.44	12439.87
476.645	12038.47
476.849	12292.42
477.054	11854.16
477.259	11665.74
477.463	11817.29
477.668	11290.96
477.872	11802.96
478.077	11264.34
478.282	11118.93
478.486	11077.97
478.691	10971.48
478.895	10957.14
479.1	10969.43
479.304	10858.84
479.509	10588.51
479.713	10795.36
479.918	10477.92
480.122	10445.15
480.326	10578.27
480.531	10551.65
480.735	10404.19
480.94	10459.49
481.144	10707.29
481.348	10109.29
481.553	10371.43
481.757	9945.45
481.961	10244.45
482.166	10320.23
482.37	10248.55
482.574	10158.44
482.778	10019.18
482.983	10379.62
483.187	10092.9
483.391	10215.78
483.595	10064.23
483.8	10017.13
484.004	10324.32
484.208	10252.64
484.412	10056.04
484.616	10207.59
484.821	10092.9
485.025	9963.88
485.229	10113.38
485.433	9988.46
485.637	10201.44
485.841	10019.18
486.045	10117.48
486.249	10068.33
486.453	10092.9
486.657	10160.48
486.861	9953.64
487.065	9795.95
487.269	10084.71
487.473	10015.08
487.677	10133.86
487.881	10172.77
488.085	10103.14
488.289	10252.64
488.493	10084.71
488.697	10084.71
488.901	9929.06
489.105	10017.13
489.309	10027.37
489.512	10383.71
489.716	10264.93
489.92	10219.88
490.124	10332.51
490.328	10240.36
490.531	10359.14
490.735	10529.12
490.939	10486.11
491.143	10434.91
491.346	10307.94
491.55	10527.07
491.754	10406.24
491.958	10643.81
492.161	10584.41
492.365	10666.33
492.569	10557.79
492.772	10686.81
492.976	10768.73
493.18	10770.78
493.383	10883.42
493.587	11049.3
493.79	11229.52
493.994	10940.76
494.197	10951
494.401	11194.71
494.605	11213.14
494.808	11262.29
495.012	11536.72
495.215	11319.64
495.419	11413.84
495.622	11419.99
495.825	11718.99
496.029	11598.16
496.232	11968.84
496.436	11911.5
496.639	12042.57
496.843	12081.48
497.046	12087.62
497.249	12517.7
497.453	12722.49
497.656	12734.78
497.859	12730.69
498.063	12714.3
498.266	13058.36
498.469	13084.98
498.673	13093.18
498.876	13277.49
499.079	13658.42
499.282	13615.41
499.485	13861.16
499.689	13832.49
499.892	14227.75
500.095	14309.67
500.298	14289.19
500.501	14352.68
500.705	14666.02
500.908	14889.24
501.111	15057.18
501.314	15192.34
501.517	15206.68
501.72	15323.41
501.923	15544.59
502.126	15786.26
502.329	16179.47
502.532	16072.97
502.735	16470.28
502.938	16486.66
503.141	16558.34
503.344	17121.53
503.547	16695.55
503.75	17066.24
503.953	17318.14
504.156	17535.22
504.359	17676.53
504.562	17828.08
504.765	18098.41
504.968	18440.42
505.17	18493.67
505.373	18632.93
505.576	18739.43
505.779	19060.96
505.982	19050.72
506.185	19546.33
506.387	19593.43
506.59	20080.85
506.793	20134.09
506.996	20062.41
507.198	20639.94
507.401	20639.94
507.604	20910.27
507.807	21360.83
508.009	21708.98
508.212	21414.07
508.415	21629.11
508.617	22141.1
508.82	22243.5
509.022	21948.59
509.225	22683.81
509.428	22927.52
509.63	22976.67
509.833	23302.3
510.035	23769.24
510.238	23660.69
510.44	23638.17
510.643	24139.92
510.845	24438.92
511.048	24453.26
511.25	24748.17
511.453	24838.28
511.655	25661.56
511.858	25319.55
512.06	25428.09
512.262	26009.72
512.465	26118.26
512.667	26417.26
512.87	26972.26
513.072	26486.89
513.274	27123.81
513.477	27660.38
513.679	27560.03
513.881	28026.96
514.084	28239.95
514.286	28209.23
514.488	28188.75
514.69	29284.42
514.893	29454.4
515.095	29364.29
515.297	29687.87
515.499	29573.18
515.701	29911.1
515.904	30427.18
516.106	30505.01
516.308	30890.02
516.51	31225.89
516.712	31248.42
516.914	31758.36
517.116	32036.89
517.318	32335.89
517.52	32233.49
517.722	32462.86
517.925	33124.36
518.127	33200.13
518.329	33492.99
518.531	33216.52
518.733	34134.01
518.935	34254.84
519.136	34164.73
519.338	35098.6
519.54	34942.95
519.742	35223.53
519.944	35676.13
520.146	36073.43
520.348	36167.64
520.55	36171.74
520.752	36603.86
520.954	37275.59
521.155	36644.82
521.357	37431.24
521.559	37263.3
521.761	38006.72
521.963	37932.99
522.164	38447.03
522.366	38268.86
522.568	38543.28
522.77	38893.49
522.971	39298.98
523.173	39108.52
523.375	39700.39
523.576	39835.55
523.778	39554.98
523.98	40703.89
524.181	40253.34
524.383	40484.76
524.584	41099.15
524.786	40966.03
524.988	41025.42
525.189	41406.34
525.391	41766.79
525.592	41721.73
525.794	41654.15
525.995	41758.59
526.197	41711.49
526.398	42192.76
526.6	42854.26
526.801	42944.37
527.003	43110.25
527.204	43163.5
527.406	43253.61
527.607	43046.77
527.808	43986.78
528.01	43368.3
528.211	43425.64
528.412	44119.9
528.614	43970.4
528.815	43890.53
529.016	44089.18
529.218	43849.57
529.419	44185.44
529.62	44500.82
529.822	44142.43
530.023	44339.04
530.224	44642.13
530.425	44283.74
530.626	44336.99
530.828	44257.12
531.029	45338.44
531.23	44797.78
531.431	44695.38
531.632	44930.9
531.833	45438.79
532.035	45086.54
532.236	45178.7
532.437	45258.57
532.638	45195.09
532.839	45571.91
533.04	45539.15
533.241	45111.12
533.442	45938.5
533.643	45193.04
533.844	45039.44
534.045	45543.24
534.246	44685.14
534.447	45723.46
534.648	45264.72
534.849	45514.57
535.05	45225.81
535.251	45733.7
535.451	45426.51
535.652	45107.02
535.853	45356.88
536.054	45477.71
536.255	45492.04
536.456	45420.36
536.657	45676.36
536.857	45356.88
537.058	45215.57
537.259	45678.41
537.46	45578.06
537.66	45215.57
537.861	45496.14
538.062	45365.07
538.263	45422.41
538.463	45297.48
538.664	45414.22
538.865	45621.06
539.065	45975.36
539.266	45254.48
539.466	45944.64
539.667	45174.61
539.868	45856.58
540.068	45408.08
540.269	45446.99
540.469	45840.2
540.67	45045.58
540.87	45610.82
541.071	45440.84
541.271	45635.4
541.472	45391.69
541.672	44959.57
541.873	45363.02
542.073	44789.59
542.274	45520.71
542.474	45315.92
542.675	44953.43
542.875	45829.96
543.075	45186.89
543.276	44793.68
543.476	45715.27
543.676	44949.33
543.877	45156.17
544.077	45043.54
544.277	45365.07
544.478	45266.77
544.678	45625.16
544.878	45141.84
545.078	45293.39
545.279	44848.98
545.479	44857.17
545.679	45551.43
545.879	45231.95
546.079	45467.47
546.28	45053.78
546.48	44527.45
546.68	45381.45
546.88	44762.96
547.08	44740.44
547.28	44648.28
547.48	44302.17
547.68	44724.05
547.88	44797.78
548.081	45252.43
548.281	44781.4
548.481	44635.99
548.681	45299.53
548.881	44619.61
549.081	45004.63
549.28	44881.75
549.48	45168.46
549.68	44699.48
549.88	45248.33
550.08	44373.85
550.28	44570.46
550.48	44443.48
550.68	44889.94
550.88	44633.94
551.08	44660.57
551.279	44808.02
551.479	44484.44
551.679	44746.58
551.879	44873.56
552.079	44775.25
552.278	44220.25
552.478	44529.5
552.678	44838.74
552.878	44955.47
553.077	44732.25
553.277	44136.29
553.477	45197.13
553.676	44296.03
553.876	44431.19
554.076	44228.45
554.275	44050.27
554.475	43792.23
554.674	44549.98
554.874	44216.16
555.074	44312.41
555.273	44304.22
555.473	44109.66
555.672	43949.92
555.872	44257.12
556.071	44377.95
556.271	44283.74
556.47	44150.62
556.67	43714.4
556.869	43763.56
557.068	44027.74
557.268	43204.46
557.467	43726.69
557.667	43519.85
557.866	43655.01
558.065	43710.31
558.265	43388.78
558.464	43720.55
558.663	43863.91
558.863	43399.02
559.062	44078.94
559.261	43446.12
559.461	43788.13
559.66	42786.68
559.859	43059.05
560.058	43155.31
560.258	43179.89
560.457	42700.66
560.656	43669.35
560.855	42989.42
561.054	43138.93
561.253	42725.24
561.453	42727.28
561.652	42907.51
561.851	42942.32
562.05	42727.28
562.249	42512.25
562.448	42727.28
562.647	42776.44
562.846	42702.71
563.045	42237.82
563.244	42174.33
563.443	42889.07
563.642	42420.09
563.841	42284.92
564.04	42088.32
564.239	42954.61
564.438	42415.99
564.637	42235.77
564.836	41938.82
565.035	41768.83
565.234	42045.31
565.432	41824.13
565.631	41482.12
565.83	42000.26
566.029	41406.34
566.228	41119.63
566.427	41305.99
566.625	41195.4
566.824	40685.46
567.023	41645.96
567.222	40722.32
567.42	41310.09
567.619	40923.02
567.818	40857.49
568.016	40892.3
568.215	40847.25
568.414	40701.84
568.612	41023.37
568.811	40071.07
569.01	40628.12
569.208	39966.62
569.407	40529.81
569.605	40042.4
569.804	40550.29
570.002	39745.44
570.201	40171.42
570.4	39882.66
570.598	39561.12
570.797	39704.48
570.995	39718.82
571.193	39096.24
571.392	39614.37
571.59	39405.48
571.789	39456.68
571.987	38969.26
572.186	39135.15
572.384	38873.01
572.582	39141.29
572.781	39235.5
572.979	38660.02
573.177	39083.95
573.376	39053.23
573.574	38821.81
573.772	39135.15
573.971	38502.32
574.169	38565.81
574.367	38121.4
574.565	38442.93
574.763	38145.98
574.962	38162.36
575.16	37840.83
575.358	38068.16
575.556	37656.51
575.754	37998.52
575.952	37552.07
576.151	37746.62
576.349	37242.82
576.547	37724.1
576.745	37576.64
576.943	37554.11
577.141	37214.15
577.339	37208.01
577.537	37126.09
577.735	37128.14
577.933	36708.3
578.131	36851.66
578.329	36831.18
578.527	36542.42
578.725	36640.72
578.923	36388.82
579.121	36612.05
579.319	36552.66
579.516	36227.03
579.714	36411.35
579.912	36079.58
580.11	36257.75
580.308	35930.08
580.506	35620.83
580.704	35401.7
580.901	35706.85
581.099	35837.92
581.297	35309.54
581.495	35364.84
581.692	35446.76
581.89	35002.35
582.088	35262.44
582.285	34824.17
582.483	35057.64
582.681	35461.09
582.878	34666.48
583.076	34607.09
583.274	34963.43
583.471	34594.8
583.669	34363.38
583.866	34076.66
584.064	34533.36
584.262	34299.89
584.459	34297.84
584.657	34150.39
584.854	34545.65
585.052	33585.15
585.249	33996.79
585.447	33882.11
585.644	33316.87
585.841	33609.73
586.039	33878.01
586.236	33380.35
586.434	33030.15
586.631	33406.98
586.828	33099.78
587.026	33146.89
587.223	32790.54
587.42	33257.48
587.618	32743.44
587.815	32856.07
588.012	32522.26
588.21	32446.48
588.407	33044.49
588.604	32503.82
588.801	32292.88
588.999	32335.89
589.196	32151.57
589.393	32380.95
589.59	32221.2
589.787	32032.79
589.984	31737.88
590.182	31555.61
590.379	32002.07
590.576	31213.6
590.773	31508.51
590.97	31254.56
591.167	31467.55
591.364	30953.51
591.561	31543.33
591.758	30820.39
591.955	30998.57
592.152	31006.76
592.349	30601.26
592.546	31225.89
592.743	30666.8
592.94	30330.93
593.137	30918.7
593.334	30711.85
593.531	30017.59
593.727	30586.93
593.924	30601.26
594.121	29829.18
594.318	30105.65
594.515	29651
594.712	30103.6
594.908	29732.92
595.105	29900.86
595.302	29249.6
595.499	29790.27
595.696	29360.19
595.892	29288.51
596.089	29349.95
596.286	29290.56
596.482	29139.01
596.679	29110.34
596.876	29208.64
597.072	28801.1
597.269	28903.49
597.466	28606.54
597.662	28616.78
597.859	28561.48
598.055	28909.64
598.252	28102.74
598.448	28416.08
598.645	27875.41
598.841	27727.96
599.038	28481.61
599.234	28059.73
599.431	27818.07
599.627	27777.11
599.824	28153.94
600.02	27809.88
600.217	27727.96
600.413	27592.79
600.609	27451.49
600.806	27474.01
601.002	27394.14
601.198	27201.63
601.395	26896.49
601.591	27029.6
601.787	27105.38
601.984	26812.52
602.18	27271.26
602.376	26847.33
602.572	26763.37
602.769	26388.59
602.965	26271.86
603.161	26525.8
603.357	26136.69
603.553	26118.26
603.75	26312.81
603.946	26259.57
604.142	25763.96
604.338	25567.35
604.534	25886.84
604.73	25731.19
604.926	25538.68
605.122	25946.23
605.318	25471.1
605.514	25376.89
605.71	25346.17
605.906	25184.38
606.102	25008.26
606.298	25327.74
606.494	25241.73
606.69	25153.66
606.886	25628.79
607.082	24815.75
607.278	25174.14
607.474	24668.3
607.67	24715.4
607.866	24350.86
608.062	25012.35
608.257	24594.57
608.453	24492.17
608.649	24782.98
608.845	24420.49
609.041	24131.73
609.236	24424.59
609.432	24418.44
609.628	24305.81
609.824	24291.47
610.019	24293.52
610.215	24299.66
610.411	24191.12
610.606	24012.95
610.802	24053.9
610.998	24053.9
611.193	23978.13
611.389	23785.62
611.584	23648.41
611.78	23699.61
611.976	23830.68
612.171	23926.93
612.367	23488.67
612.562	23552.15
612.758	23480.47
612.953	23423.13
613.149	23625.88
613.344	23212.19
613.539	23703.7
613.735	23328.92
613.93	23433.37
614.126	23300.25
614.321	23314.59
614.517	23267.48
614.712	22888.61
614.907	23054.5
615.103	23562.39
615.298	22868.13
615.493	23181.47
615.688	22859.94
615.884	23326.88
616.079	22444.2
616.274	22706.34
616.47	22544.55
616.665	22808.74
616.86	22622.37
617.055	22380.71
617.25	22565.03
617.445	22241.45
617.641	22294.7
617.836	22229.16
618.031	22085.81
618.226	22366.38
618.421	22204.59
618.616	22249.64
618.811	21670.07
619.006	22220.97
619.201	21774.52
619.396	21860.53
619.591	21534.9
619.786	21768.37
619.981	21549.24
620.176	21586.1
620.371	21299.39
620.566	21012.67
620.761	21194.94
620.956	21510.33
621.151	20887.75
621.346	21123.26
621.541	20555.97
621.735	20805.83
621.93	20439.24
622.125	20560.07
622.32	20187.34
622.515	20570.31
622.709	20111.57
622.904	20138.19
623.099	19998.93
623.294	20099.28
623.488	19728.59
623.683	19765.46
623.878	19529.94
624.072	19732.69
624.267	19519.7
624.462	19628.24
624.656	19593.43
624.851	19204.31
625.046	19204.31
625.24	18706.66
625.435	18700.51
625.629	18772.19
625.824	18503.91
626.018	18618.6
626.213	18268.39
626.407	18415.85
626.602	17973.49
626.796	18268.39
626.991	18168.04
627.185	17637.62
627.38	17826.03
627.574	17756.4
627.768	17635.57
627.963	17725.68
628.157	17404.15
628.352	17631.47
628.546	17279.22
628.74	17350.9
628.935	16859.39
629.129	17211.64
629.323	16982.27
629.517	16904.45
629.712	16726.27
629.906	16763.14
630.1	16591.11
630.294	16875.77
630.489	16496.9
630.683	16474.37
630.877	16240.9
631.071	16335.11
631.265	16269.58
631.459	16048.4
631.653	16062.73
631.848	15876.37
632.042	15999.24
632.236	15810.83
632.43	15581.46
632.624	15577.36
632.818	15477.01
633.012	15296.79
633.206	15237.4
633.4	15474.96
633.594	14938.4
633.788	14948.64
633.982	15204.63
634.176	14934.3
634.369	14971.16
634.563	14874.91
634.757	14792.99
634.951	14762.27
635.145	14760.22
635.339	14676.26
635.533	14315.81
635.726	14430.5
635.92	14324.01
636.114	14278.95
636.308	14006.57
636.501	13943.08
636.695	14233.89
636.889	13906.22
637.083	13881.64
637.276	13762.86
637.47	13639.98
637.664	13564.21
637.857	13762.86
638.051	13496.63
638.244	13427
638.438	13275.45
638.632	13291.83
638.825	13359.41
639.019	13238.58
639.212	13216.05
639.406	13072.7
639.599	12935.48
639.793	12855.61
639.986	12767.55
640.18	12771.65
640.373	12722.49
640.567	12579.14
640.76	12493.12
640.954	12583.23
641.147	12495.17
641.34	12446.02
641.534	12255.56
641.727	12169.54
641.92	12255.56
642.114	12042.57
642.307	12009.8
642.5	11931.98
642.694	11827.53
642.887	11807.05
643.08	11960.65
643.273	11688.27
643.467	11825.48
643.66	11557.2
643.853	11581.78
644.046	11389.27
644.239	11698.51
644.432	11247.96
644.626	11331.92
644.819	11084.12
645.012	11381.07
645.205	11192.66
645.398	11129.17
645.591	10938.71
645.784	11051.35
645.977	10981.72
646.17	11037.02
646.363	10891.61
646.556	10645.85
646.749	10832.22
646.942	10772.83
647.135	10633.57
647.328	10580.32
647.521	10568.03
647.714	10568.03
647.907	10563.93
648.099	10453.34
648.292	10293.6
648.485	10424.67
648.678	10195.3
648.871	10266.98
649.064	9988.46
649.256	10367.33
649.449	10045.8
649.642	9988.46
649.835	9781.61
650.027	9881.96
650.22	9683.31
650.413	9949.54
650.605	9615.73
650.798	9693.55
650.991	9562.48
651.183	9660.78
651.376	9529.71
651.568	9441.65
651.761	9300.34
651.954	9234.8
652.146	9277.81
652.339	9388.4
652.531	9214.32
652.724	9193.84
652.916	9032.05
653.109	8905.08
653.301	9152.88
653.494	8841.59
653.686	8847.74
653.879	8890.74
654.071	8808.83
654.263	8767.87
654.456	8774.01
654.648	8720.76
654.84	8569.21
655.033	8751.48
655.225	8763.77
655.417	8348.03
655.61	8235.39
655.802	8464.77
655.994	8348.03
656.186	8485.25
656.379	8302.98
656.571	8196.48
656.763	8135.04
656.955	8020.36
657.148	8241.54
657.34	8171.91
657.532	8245.63
657.724	8065.41
657.916	7922.06
658.108	8030.6
658.3	7999.88
658.492	7899.53
658.684	7870.86
658.876	7739.79
659.068	7784.84
659.26	7594.38
659.452	7729.55
659.644	7500.17
659.836	7481.74
660.028	7522.7
660.22	7340.43
660.412	7545.23
660.604	7389.58
660.796	7387.54
660.988	7387.54
661.18	7225.75
661.372	7283.09
661.563	7317.9
661.755	7092.63
661.947	7201.17
662.139	7176.59
662.331	7197.07
662.522	7082.39
662.714	7012.76
662.906	7143.83
663.097	6955.41
663.289	6984.09
663.481	6891.93
663.673	6967.7
663.864	6793.62
664.056	6891.93
664.247	6875.54
664.439	6537.63
664.631	6838.68
664.822	6728.09
665.014	6547.87
665.205	6533.53
665.397	6468
665.588	6578.59
665.78	6525.34
665.971	6390.17
666.163	6449.57
666.354	6424.99
666.546	6613.4
666.737	6447.52
666.929	6336.93
667.12	6310.3
667.311	6271.39
667.503	6242.72
667.694	6171.04
667.885	6179.23
668.077	6148.51
668.268	6136.23
668.459	6156.71
668.651	6101.41
668.842	6062.5
669.033	6111.65
669.224	6162.85
669.416	6021.54
669.607	5943.72
669.798	6089.12
669.989	5812.65
670.18	5921.19
670.371	5861.8
670.563	5685.67
670.754	5718.44
670.945	5677.48
671.136	5867.94
671.327	5628.33
671.518	5730.73
671.709	5687.72
671.9	5876.13
672.091	5775.78
672.282	5562.8
672.473	5652.91
672.664	5693.87
672.855	5460.4
673.046	5556.65
673.237	5495.21
673.428	5489.07
673.619	5439.92
673.809	5341.61
674	5437.87
674.191	5452.2
674.382	5368.24
674.573	5341.61
674.764	5284.27
674.954	5380.53
675.145	5319.09
675.336	5296.56
675.527	5489.07
675.717	5419.44
675.908	5300.66
676.099	5136.82
676.289	5276.08
676.48	5253.55
676.671	5200.3
676.861	5116.34
677.052	5145.01
677.243	5013.94
677.433	5046.71
677.624	5071.28
677.814	5204.4
678.005	5042.61
678.195	5065.14
678.386	5015.99
678.576	4975.03
678.767	5069.23
678.957	4934.07
679.148	5046.71
679.338	4997.56
679.529	5034.42
679.719	5030.32
679.909	5063.09
680.1	4899.25
680.29	4850.1
680.481	4950.45
680.671	5102
680.861	4862.39
681.052	5018.04
681.242	4915.64
681.432	4850.1
681.622	4833.72
681.813	4843.96
682.003	4653.5
682.193	4811.19
682.383	4784.57
682.573	4702.65
682.764	4796.85
682.954	4630.97
683.144	4805.05
683.334	4745.66
683.524	4622.78
683.714	4729.27
683.904	4622.78
684.094	4684.22
684.284	4622.78
684.474	4600.25
684.664	4690.36
684.854	4817.33
685.044	4417.98
685.234	4673.98
685.424	4538.81
685.614	4547
685.804	4534.71
685.994	4483.52
686.184	4639.16
686.374	4678.07
686.564	4393.4
686.753	4465.08
686.943	4428.22
687.133	4401.6
687.323	4325.82
687.513	4360.64
687.702	4358.59
687.892	4301.25
688.082	4350.4
688.272	4284.86
688.461	4356.54
688.651	4344.25
688.841	4235.71
689.03	4295.1
689.22	4311.49
689.41	4180.42
689.599	4118.98
689.789	4264.38
689.979	4075.97
690.168	4006.34
690.358	4080.07
690.547	4088.26
690.737	4055.49
690.926	4121.03
691.116	3973.57
691.305	4155.84
691.495	3895.75
691.684	3928.52
691.874	4063.68
692.063	3934.66
692.252	3946.95
692.442	3871.17
692.631	3746.25
692.82	3852.74
693.01	3793.35
693.199	3705.29
693.388	3869.12
693.578	3717.58
693.767	3828.17
693.956	3754.44
694.146	3783.11
694.335	3631.56
694.524	3621.32
694.713	3793.35
694.902	3662.28
695.092	3752.39
695.281	3690.95
695.47	3731.91
695.659	3686.86
695.848	3695.05
696.037	3701.19
696.226	3594.7
696.415	3514.83
696.604	3506.63
696.793	3633.61
696.982	3559.88
697.171	3473.87
697.36	3594.7
697.549	3574.22
697.738	3457.48
697.927	3652.04
698.116	3482.06
698.305	3543.5
698.494	3506.63
698.683	3391.95
698.872	3486.15
699.061	3584.46
699.25	3461.58
699.438	3465.68
699.627	3408.33
699.816	3561.93
700.005	3373.52
700.193	3451.34
700.382	3459.53
700.571	3277.26
700.76	3326.41
700.948	3475.91
701.137	3353.04
701.326	3350.99
701.514	3359.18
701.703	3437
701.892	3334.61
702.08	3506.63
702.269	3318.22
702.457	3344.84
702.646	3297.74
702.834	3359.18
703.023	3369.42
703.212	3330.51
703.4	3375.56
703.589	3219.92
703.777	3295.69
703.965	3219.92
704.154	3404.24
704.342	3148.24
704.531	3203.54
704.719	3221.97
704.907	3244.49
705.096	3187.15
705.284	3213.77
705.472	3244.49
705.661	3097.04
705.849	3221.97
706.037	3297.74
706.226	3183.06
706.414	3207.63
706.602	3150.29
706.79	3228.11
706.979	3213.77
707.167	3228.11
707.355	3123.66
707.543	3133.9
707.731	3207.63
707.919	3129.81
708.107	3213.77
708.296	3097.04
708.484	3066.32
708.672	3117.52
708.86	3178.96
709.048	3113.42
709.236	3099.09
709.424	3045.84
709.612	3056.08
709.8	3097.04
709.988	3019.22
710.176	3033.55
710.364	2945.49
710.551	3039.7
710.739	2990.55
710.927	2990.55
711.115	3033.55
711.303	3056.08
711.491	2957.78
711.679	3105.23
711.866	2959.83
712.054	2986.45
712.242	3113.42
712.43	3006.93
712.617	2974.16
712.805	2959.83
712.993	3006.93
713.181	2867.67
713.368	2904.53
713.556	2998.74
713.744	2994.64
713.931	2935.25
714.119	2941.4
714.306	2959.83
714.494	2963.92
714.682	2884.05
714.869	2859.48
715.057	3021.27
715.244	2965.97
715.432	3023.31
715.619	2968.02
715.807	2933.2
715.994	2863.57
716.182	2886.1
716.369	2832.85
716.556	2988.5
716.744	2902.48
716.931	2902.48
717.119	2894.29
717.306	2896.34
717.493	2976.21
717.681	2871.76
717.868	2892.24
718.055	2886.1
718.242	2867.67
718.43	2785.75
718.617	2714.07
718.804	2798.04
718.991	2820.56
719.179	2806.23
719.366	2701.78
719.553	2738.65
719.74	2869.72
719.927	2738.65
720.114	2826.71
720.301	2773.46
720.488	2695.64
720.676	2619.86
720.863	2853.33
721.05	2851.28
721.237	2759.13
721.424	2806.23
721.611	2712.02
721.798	2650.58
721.985	2746.84
722.172	2644.44
722.358	2695.64
722.545	2742.74
722.732	2673.11
722.919	2599.38
723.106	2632.15
723.293	2673.11
723.48	2646.49
723.667	2574.81
723.853	2679.26
724.04	2722.26
724.227	2714.07
724.414	2562.52
724.6	2685.4
724.787	2654.68
724.974	2654.68
725.161	2623.96
725.347	2550.23
725.534	2671.06
725.72	2691.54
725.907	2646.49
726.094	2705.88
726.28	2576.86
726.467	2548.19
726.653	2548.19
726.84	2613.72
727.027	2714.07
727.213	2656.73
727.4	2679.26
727.586	2595.29
727.773	2683.35
727.959	2761.17
728.145	2683.35
728.332	2648.54
728.518	2671.06
728.705	2539.99
728.891	2550.23
729.077	2519.51
729.264	2564.57
729.45	2525.66
729.636	2607.58
729.823	2505.18
730.009	2550.23
730.195	2648.54
730.382	2539.99
730.568	2578.9
730.754	2566.62
730.94	2482.65
731.126	2560.47
731.313	2605.53
731.499	2460.12
731.685	2533.85
731.871	2468.31
732.057	2607.58
732.243	2331.1
732.429	2603.48
732.615	2496.99
732.801	2574.81
732.987	2539.99
733.173	2486.75
733.359	2519.51
733.545	2458.07
733.731	2587.1
733.917	2496.99
734.103	2367.96
734.289	2410.97
734.475	2480.6
734.661	2585.05
734.847	2556.38
735.033	2593.24
735.219	2449.88
735.404	2482.65
735.59	2460.12
735.776	2564.57
735.962	2484.7
736.148	2517.47
736.333	2443.74
736.519	2462.17
736.705	2380.25
736.89	2351.58
737.076	2464.22
737.262	2333.15
737.447	2351.58
737.633	2490.84
737.819	2404.83
738.004	2494.94
738.19	2413.02
738.375	2433.5
738.561	2413.02
738.747	2402.78
738.932	2331.1
739.118	2249.18
739.303	2261.47
739.489	2243.04
739.674	2275.81
739.859	2386.4
740.045	2400.73
740.23	2331.1
740.416	2337.24
740.601	2318.81
740.786	2312.67
740.972	2238.94
741.157	2277.85
741.342	2202.08
741.528	2331.1
741.713	2245.09
741.898	2124.26
742.084	2212.32
742.269	2210.27
742.454	2165.21
742.639	2183.65
742.824	2179.55
743.01	2200.03
743.195	2171.36
743.38	2181.6
743.565	2200.03
743.75	2195.93
743.935	2060.77
744.12	1993.19
744.305	2124.26
744.49	2054.62
744.675	2105.82
744.86	2071.01
745.045	2146.78
745.23	2163.17
745.415	2034.14
745.6	2191.84
745.785	2118.11
745.97	2019.81
746.155	1901.03
746.34	1931.75
746.525	2040.29
746.71	2118.11
746.895	1968.61
747.079	1941.99
747.264	1927.65
747.449	1950.18
747.634	1913.31
747.819	1946.08
748.003	1991.14
748.188	1853.92
748.373	1880.55
748.557	1767.91
748.742	1829.35
748.927	1845.73
749.111	1704.42
749.296	1843.68
749.481	1749.48
749.665	1853.92
749.85	1675.75
750.034	1782.24
750.219	1786.34
750.404	1642.98
750.588	1843.68
750.773	1739.24
750.957	1788.39
751.141	1741.29
751.326	1628.65
751.51	1599.98
751.695	1606.12
751.879	1581.54
752.064	1577.45
752.248	1704.42
752.432	1642.98
752.617	1634.79
752.801	1608.17
752.985	1620.46
753.17	1554.92
753.354	1604.07
753.538	1581.54
753.722	1479.15
753.907	1528.3
754.091	1475.05
754.275	1538.54
754.459	1569.26
754.643	1446.38
754.828	1544.68
755.012	1429.99
755.196	1470.95
755.38	1468.91
755.564	1389.03
755.748	1397.23
755.932	1319.4
756.116	1401.32
756.3	1401.32
756.484	1450.47
756.668	1485.29
756.852	1389.03
757.036	1380.84
757.22	1360.36
757.404	1251.82
757.588	1288.68
757.772	1348.08
757.956	1298.92
758.14	1327.6
758.323	1286.64
758.507	1327.6
758.691	1251.82
758.875	1264.11
759.059	1249.77
759.242	1204.72
759.426	1270.25
759.61	1223.15
759.794	1221.1
759.977	1225.2
760.161	1231.34
760.345	1206.77
760.528	1165.81
760.712	1200.62
760.895	1167.85
761.079	1116.65
761.263	1180.14
761.446	1151.47
761.63	1169.9
761.813	1147.37
761.997	1143.28
762.18	1055.22
762.364	1114.61
762.547	1024.5
762.731	1081.84
762.914	1149.42
763.098	1073.65
763.281	1081.84
763.464	1098.22
763.648	1126.89
763.831	1059.31
764.015	1128.94
764.198	1042.93
764.381	1001.97
764.564	1065.46
764.748	1122.8
764.931	1069.55
765.114	1026.54
765.297	1001.97
765.481	1057.26
765.664	911.86
765.847	1073.65
766.03	936.43
766.213	1001.97
766.397	977.39
766.58	956.91
766.763	961.01
766.946	975.35
767.129	1079.79
767.312	977.39
767.495	1028.59
767.678	870.9
767.861	1001.97
768.044	881.14
768.227	991.73
768.41	938.48
768.593	971.25
768.776	905.71
768.959	924.15
769.142	940.53
769.324	889.33
769.507	934.39
769.69	909.81
769.873	897.52
770.056	963.06
770.239	958.96
770.421	944.63
770.604	868.85
770.787	928.24
770.97	934.39
771.152	823.8
771.335	903.67
771.518	877.04
771.7	893.43
771.883	879.09
772.066	819.7
772.248	827.89
772.431	889.33
772.613	920.05
772.796	860.66
772.978	870.9
773.161	942.58
773.343	831.99
773.526	782.84
773.708	786.93
773.891	836.08
774.073	815.6
774.256	811.51
774.438	764.4
774.621	709.11
774.803	852.47
774.985	772.6
775.168	819.7
775.35	743.92
775.532	772.6
775.715	696.82
775.897	786.93
776.079	748.02
776.261	713.21
776.444	741.88
776.626	778.74
776.808	641.53
776.99	625.14
777.173	705.01
777.355	721.4
777.537	729.59
777.719	659.96
777.901	672.25
778.083	795.12
778.265	700.92
778.447	733.68
778.629	641.53
778.811	623.09
778.993	641.53
779.175	586.23
779.357	639.48
779.539	627.19
779.721	614.9
779.903	680.44
780.085	598.52
780.267	537.08
780.449	549.37
780.631	639.48
780.812	619
780.994	580.09
781.176	635.38
781.358	616.95
781.54	535.03
781.721	629.24
781.903	539.13
782.085	590.33
782.267	612.85
782.448	508.41
782.63	541.18
782.812	524.79
782.993	588.28
783.175	516.6
783.357	483.83
783.538	532.98
783.72	459.26
783.901	526.84
784.083	592.37
784.264	475.64
784.446	461.3
784.627	510.46
784.809	516.6
784.99	473.59
785.172	532.98
785.353	500.22
785.535	418.3
785.716	508.41
785.897	455.16
786.079	485.88
786.26	532.98
786.441	565.75
786.623	408.06
786.804	471.54
786.985	467.45
787.167	436.73
787.348	455.16
787.529	475.64
787.71	516.6
787.891	473.59
788.073	502.26
788.254	385.53
788.435	545.27
788.616	510.46
788.797	401.91
788.978	424.44
789.159	446.97
789.34	436.73
789.522	377.34
789.703	494.07
789.884	393.72
790.065	401.91
790.246	393.72
790.427	381.43
790.607	422.39
790.788	475.64
790.969	365.05
791.15	363
791.331	377.34
791.512	330.23
791.693	385.53
791.874	367.1
792.054	387.58
792.235	352.76
792.416	295.42
792.597	293.37
792.778	305.66
792.958	344.57
793.139	299.52
793.32	289.28
793.5	336.38
793.681	401.91
793.862	328.19
794.042	254.46
794.223	258.56
794.404	410.11
794.584	307.71
794.765	393.72
794.945	338.43
795.126	328.19
795.306	305.66
795.487	293.37
795.667	293.37
795.848	385.53
796.028	303.61
796.209	287.23
796.389	299.52
796.57	348.67
796.75	322.04
796.93	272.89
797.111	307.71
797.291	338.43
797.471	246.27
797.652	342.52
797.832	268.8
798.012	313.85
798.192	274.94
798.373	307.71
798.553	229.88
798.733	334.33
798.913	223.74
799.093	293.37
799.274	268.8
799.454	330.23
799.634	328.19
799.814	309.76
799.994	260.6
800.174	250.36
800.354	168.45
800.534	217.6
800.714	262.65
800.894	272.89
801.074	246.27
801.254	320
801.434	279.04
801.614	184.83
801.794	266.75
801.974	750.07
802.154	270.84
802.334	193.02
802.514	231.93
802.693	233.98
802.873	160.25
803.053	338.43
803.233	195.07
803.413	250.36
803.592	225.79
803.772	129.53
803.952	217.6
804.131	229.88
804.311	213.5
804.491	303.61
804.67	262.65
804.85	180.73
805.03	311.8
805.209	229.88
805.389	209.4
805.568	133.63
805.748	236.03
805.928	195.07
806.107	283.13
806.287	238.08
806.466	248.32
806.646	229.88
806.825	197.12
807.004	225.79
807.184	227.84
807.363	172.54
807.543	223.74
807.722	229.88
807.901	258.56
808.081	223.74
808.26	190.97
808.439	211.45
808.619	219.64
808.798	156.16
808.977	180.73
809.156	170.49
809.336	190.97
809.515	221.69
809.694	141.82
809.873	166.4
810.052	252.41
810.231	182.78
810.411	221.69
810.59	156.16
810.769	209.4
810.948	178.69
811.127	135.68
811.306	221.69
811.485	139.77
811.664	236.03
811.843	195.07
812.022	227.84
812.201	133.63
812.38	180.73
812.559	135.68
812.737	197.12
812.916	139.77
813.095	141.82
813.274	74.24
813.453	139.77
813.632	229.88
813.811	127.49
813.989	98.81
814.168	229.88
814.347	229.88
814.526	221.69
814.704	190.97
814.883	164.35
815.062	102.91
815.24	170.49
815.419	100.86
815.598	172.54
815.776	240.12
815.955	57.86
816.133	141.82
816.312	205.31
816.49	205.31
816.669	174.59
816.847	164.35
817.026	168.45
817.204	166.4
817.383	205.31
817.561	188.93
817.74	197.12
817.918	201.21
818.097	107.01
818.275	82.43
818.453	154.11
818.632	78.33
818.81	92.67
818.988	102.91
819.167	125.44
819.345	119.29
819.523	35.33
819.701	109.05
819.879	102.91
820.058	113.15
820.236	166.4
820.414	119.29
820.592	98.81
820.77	168.45
820.948	88.57
821.127	127.49
821.305	141.82
821.483	76.29
821.661	211.45
821.839	145.92
822.017	139.77
822.195	145.92
822.373	201.21
822.551	86.53
822.729	158.21
822.907	33.28
823.085	137.73
823.262	76.29
823.44	66.05
823.618	74.24
823.796	115.2
823.974	145.92
824.152	111.1
824.329	84.48
824.507	156.16
824.685	94.72
824.863	0.51
825.04	92.67
825.218	78.33
825.396	90.62
825.574	82.43
825.751	102.91
825.929	119.29
826.107	115.2
826.284	100.86
826.462	135.68
826.639	74.24
826.817	137.73
826.994	156.16
827.172	59.9
827.349	107.01
827.527	123.39
827.704	158.21
827.882	141.82
828.059	131.58
828.237	111.1
828.414	139.77
828.591	68.09
828.769	68.09
828.946	131.58
829.124	49.66
829.301	109.05
829.478	115.2
829.655	115.2
829.833	61.95
830.01	72.19
830.187	100.86
830.364	70.14
830.542	137.73
830.719	107.01
830.896	49.66
831.073	125.44
831.25	59.9
831.427	86.53
831.604	123.39
831.782	150.01
831.959	119.29
832.136	74.24
832.313	119.29
832.49	90.62
832.667	121.34
832.844	74.24
833.021	150.01
833.198	104.96
833.374	68.09
833.551	123.39
833.728	119.29
833.905	139.77
834.082	0.51
834.259	78.33
834.436	92.67
834.612	94.72
834.789	123.39
834.966	107.01
835.143	100.86
835.319	35.33
835.496	16.9
835.673	119.29
835.85	76.29
836.026	82.43
836.203	92.67
836.38	27.14
836.556	135.68
836.733	49.66
836.909	66.05
837.086	90.62
837.262	29.18
837.439	92.67
837.616	33.28
837.792	51.71
837.968	98.81
838.145	37.38
838.321	127.49
838.498	35.33
838.674	53.76
838.851	51.71
839.027	117.25
839.203	107.01
839.38	98.81
839.556	117.25
839.732	68.09
839.909	51.71
840.085	29.18
840.261	64
840.437	74.24
840.614	-9.73
840.79	25.09
840.966	70.14
841.142	53.76
841.318	131.58
841.494	98.81
841.671	100.86
841.847	49.66
842.023	18.94
842.199	135.68
842.375	33.28
842.551	82.43
842.727	27.14
842.903	147.97
843.079	49.66
843.255	115.2
843.431	-19.97
843.607	90.62
843.783	-1.54
843.959	80.38
844.134	82.43
844.31	111.1
844.486	37.38
844.662	14.85
844.838	55.81
845.013	20.99
845.189	57.86
845.365	113.15
845.541	84.48
845.716	33.28
845.892	68.09
846.068	84.48
846.244	84.48
846.419	109.05
846.595	49.66
846.77	-28.16
846.946	66.05
847.122	25.09
847.297	20.99
847.473	92.67
847.648	10.75
847.824	51.71
847.999	29.18
848.175	-32.26
848.35	18.94
848.526	109.05
848.701	2.56
848.876	80.38
849.052	86.53
849.227	90.62
849.403	31.23
849.578	51.71
849.753	78.33
849.929	43.52
850.104	4.61
850.279	61.95
850.454	23.04
850.63	61.95
850.805	39.42
850.98	-15.87
851.155	4.61
851.33	86.53
851.505	100.86
851.681	100.86
851.856	-1.54
852.031	33.28
852.206	23.04
852.381	57.86
852.556	43.52
852.731	115.2
852.906	23.04
853.081	41.47
853.256	115.2
853.431	-32.26
853.606	-7.68
853.781	2.56
853.956	51.71
854.131	-13.82
854.305	33.28
854.48	61.95
854.655	29.18
854.83	-7.68
855.005	-11.78
855.18	90.62
855.354	49.66
855.529	57.86
855.704	-13.82
855.879	27.14
856.053	29.18
856.228	18.94
856.403	29.18
856.577	82.43
856.752	18.94
856.926	0.51
857.101	0.51
857.276	-22.02
857.45	109.05
857.625	74.24
857.799	-3.58
857.974	25.09
858.148	29.18
858.323	43.52
858.497	37.38
858.672	25.09
858.846	59.9
859.02	57.86
859.195	82.43
859.369	-17.92
859.543	20.99
859.718	25.09
859.892	100.86
860.066	78.33
860.241	-24.06
860.415	-28.16
860.589	12.8
860.763	12.8
860.938	14.85
861.112	33.28
861.286	-15.87
861.46	-24.06
861.634	141.82
861.808	41.47
861.982	33.28
862.157	12.8
862.331	12.8
862.505	14.85
862.679	23.04
862.853	61.95
863.027	57.86
863.201	100.86
863.375	-7.68
863.549	66.05
863.722	14.85
863.896	27.14
864.07	29.18
864.244	-1.54
864.418	90.62
864.592	4.61
864.766	6.66
864.939	61.95
865.113	-77.31
865.287	61.95
865.461	-13.82
865.634	-15.87
865.808	14.85
865.982	-3.58
866.156	-93.69
866.329	-38.4
866.503	53.76
866.676	35.33
866.85	-9.73
867.024	4.61
867.197	18.94
867.371	41.47
867.544	23.04
867.718	16.9
867.891	4.61
868.065	16.9
868.238	53.76
868.412	37.38
868.585	-58.88
868.759	-7.68
868.932	33.28
869.105	33.28
869.279	29.18
869.452	16.9
869.625	8.7
869.799	76.29
869.972	35.33
870.145	-11.78
870.319	100.86
870.492	80.38
870.665	-77.31
870.838	-38.4
871.011	-5.63
871.185	16.9
871.358	33.28
871.531	39.42
871.704	90.62
871.877	45.57
872.05	-15.87
872.223	49.66
872.396	68.09
872.569	88.57
872.742	53.76
872.915	8.7
873.088	16.9
873.261	76.29
873.434	-1.54
873.607	51.71
873.78	18.94
873.953	76.29
874.126	90.62
874.299	8.7
874.471	41.47
874.644	-1.54
874.817	82.43
874.99	49.66
875.163	-32.26
875.335	84.48
875.508	4.61
875.681	25.09
875.853	59.9
876.026	12.8
876.199	47.62
876.371	41.47
876.544	37.38
876.717	29.18
876.889	107.01
877.062	53.76
877.234	-40.45
877.407	-7.68
877.579	-5.63
877.752	-65.02
877.924	-13.82
878.097	20.99
878.269	43.52
878.442	53.76
878.614	-7.68
878.786	-7.68
878.959	8.7
879.131	12.8
879.303	25.09
879.476	47.62
879.648	147.97
879.82	45.57
879.993	-65.02
880.165	-11.78
880.337	-42.5
880.509	33.28
880.681	78.33
880.854	-32.26
881.026	12.8
881.198	37.38
881.37	53.76
881.542	98.81
881.714	35.33
881.886	31.23
882.058	2.56
882.23	53.76
882.402	64
882.574	2.56
882.746	92.67
882.918	20.99
883.09	84.48
883.262	0.51
883.434	64
883.606	-9.73
883.778	-5.63
883.95	70.14
884.122	20.99
884.293	115.2
884.465	-65.02
884.637	43.52
884.809	35.33
884.98	86.53
885.152	70.14
885.324	59.9
885.496	-7.68
885.667	-7.68
885.839	23.04
886.011	117.25
886.182	51.71
886.354	76.29
886.525	-24.06
886.697	66.05
886.869	29.18
887.04	41.47
887.212	-38.4
887.383	74.24
887.555	6.66
887.726	33.28
887.897	-7.68
888.069	-3.58
888.24	53.76
888.412	41.47
888.583	-15.87
888.754	25.09
888.926	-7.68
889.097	29.18
889.268	-13.82
889.44	-22.02
889.611	-17.92
889.782	-36.35
889.953	-24.06
890.125	109.05
890.296	-77.31
890.467	-15.87
890.638	8.7
890.809	16.9
890.98	-19.97
891.151	18.94
891.323	49.66
891.494	76.29
891.665	-56.83
891.836	-24.06
892.007	4.61
892.178	-15.87
892.349	4.61
892.52	29.18
892.691	18.94
892.862	45.57
893.032	-52.74
893.203	16.9
893.374	33.28
893.545	49.66
893.716	-19.97
893.887	29.18
894.057	-40.45
894.228	57.86
894.399	-81.41
894.57	107.01
894.74	-46.59
894.911	4.61
895.082	35.33
895.253	-48.64
895.423	53.76
895.594	25.09
895.764	35.33
895.935	-7.68
896.106	12.8
896.276	92.67
896.447	35.33
896.617	33.28
896.788	43.52
896.958	-30.21
897.129	41.47
897.299	-15.87
897.47	47.62
897.64	31.23
897.81	27.14
897.981	33.28
898.151	-40.45
898.322	43.52
898.492	72.19
898.662	-32.26
898.832	43.52
899.003	-5.63
899.173	8.7
899.343	10.75
899.513	-40.45
