Data from USB4F104151__1__14-15-50-055.txt Node

Date: Thu Mar 13 14:15:50 EDT 2025
User: louis
Spectrometer: USB4F10415
Trigger mode: 4
Integration Time (sec): 2.000000E-2
Scans to average: 1
Electric dark correction enabled: true
Nonlinearity correction enabled: false
Boxcar width: 0
XAxis mode: Wavelengths
Number of Pixels in Spectrum: 3648
>>>>>Begin Spectral Data<<<<<
178.204	-114.34
178.424	-114.34
178.644	-114.34
178.864	-114.34
179.084	-50.86
179.304	0.34
179.524	-28.33
179.744	41.3
179.964	39.25
180.184	-63.15
180.404	49.49
180.624	-7.85
180.844	-11.95
181.064	-11.95
181.283	16.73
181.503	2.39
181.723	-26.28
181.943	-28.33
182.163	26.96
182.383	43.35
182.602	57.68
182.822	104.79
183.042	78.16
183.262	8.53
183.482	86.36
183.701	-1.71
183.921	12.63
184.141	53.59
184.361	55.64
184.58	-30.38
184.8	-13.99
185.02	-3.75
185.239	84.31
185.459	12.63
185.679	29.01
185.898	-46.76
186.118	129.36
186.338	69.97
186.557	-20.14
186.777	72.02
186.997	61.78
187.216	-7.85
187.436	155.99
187.655	45.4
187.875	47.44
188.095	24.92
188.314	88.4
188.534	41.3
188.753	45.4
188.973	20.82
189.192	104.79
189.412	8.53
189.631	39.25
189.851	117.08
190.07	86.36
190.29	-48.81
190.509	80.21
190.729	33.11
190.948	10.58
191.168	143.7
191.387	143.7
191.607	-16.04
191.826	49.49
192.045	8.53
192.265	12.63
192.484	0.34
192.704	88.4
192.923	63.83
193.142	129.36
193.362	37.2
193.581	86.36
193.8	78.16
194.02	110.93
194.239	20.82
194.458	49.49
194.678	45.4
194.897	82.26
195.116	82.26
195.335	29.01
195.555	76.12
195.774	45.4
195.993	98.64
196.212	78.16
196.432	39.25
196.651	-3.75
196.87	24.92
197.089	108.88
197.308	47.44
197.528	39.25
197.747	63.83
197.966	24.92
198.185	-3.75
198.404	37.2
198.623	94.55
198.842	88.4
199.062	-20.14
199.281	149.84
199.5	20.82
199.719	61.78
199.938	37.2
200.157	78.16
200.376	16.73
200.595	135.51
200.814	37.2
201.033	53.59
201.252	61.78
201.471	33.11
201.69	33.11
201.909	-5.8
202.128	53.59
202.347	86.36
202.566	2.39
202.785	47.44
203.004	65.88
203.223	61.78
203.442	35.16
203.661	39.25
203.879	69.97
204.098	-13.99
204.317	59.73
204.536	26.96
204.755	8.53
204.974	47.44
205.193	18.77
205.411	133.46
205.63	131.41
205.849	51.54
206.068	-50.86
206.287	12.63
206.505	47.44
206.724	45.4
206.943	57.68
207.162	57.68
207.381	37.2
207.599	12.63
207.818	69.97
208.037	31.06
208.255	72.02
208.474	94.55
208.693	59.73
208.911	67.92
209.13	57.68
209.349	53.59
209.567	-7.85
209.786	0.34
210.005	16.73
210.223	22.87
210.442	-44.71
210.661	20.82
210.879	72.02
211.098	98.64
211.316	76.12
211.535	63.83
211.753	47.44
211.972	49.49
212.191	6.49
212.409	53.59
212.628	69.97
212.846	72.02
213.065	69.97
213.283	121.17
213.502	-34.47
213.72	20.82
213.938	49.49
214.157	57.68
214.375	4.44
214.594	0.34
214.812	39.25
215.031	133.46
215.249	63.83
215.467	49.49
215.686	18.77
215.904	94.55
216.122	63.83
216.341	41.3
216.559	74.07
216.778	69.97
216.996	82.26
217.214	6.49
217.432	-63.15
217.651	-13.99
217.869	-42.67
218.087	102.74
218.306	4.44
218.524	86.36
218.742	18.77
218.96	121.17
219.179	-36.52
219.397	20.82
219.615	86.36
219.833	106.84
220.051	106.84
220.27	102.74
220.488	14.68
220.706	106.84
220.924	55.64
221.142	51.54
221.36	37.2
221.578	74.07
221.796	63.83
222.015	94.55
222.233	-26.28
222.451	131.41
222.669	35.16
222.887	61.78
223.105	6.49
223.323	57.68
223.541	6.49
223.759	-3.75
223.977	39.25
224.195	98.64
224.413	61.78
224.631	55.64
224.849	31.06
225.067	94.55
225.285	47.44
225.503	20.82
225.721	-28.33
225.939	-36.52
226.157	67.92
226.375	110.93
226.592	-26.28
226.81	141.65
227.028	69.97
227.246	82.26
227.464	55.64
227.682	80.21
227.9	14.68
228.117	94.55
228.335	117.08
228.553	49.49
228.771	-5.8
228.989	31.06
229.206	37.2
229.424	74.07
229.642	88.4
229.86	37.2
230.077	82.26
230.295	22.87
230.513	78.16
230.731	20.82
230.948	98.64
231.166	123.22
231.384	63.83
231.601	2.39
231.819	24.92
232.037	63.83
232.254	29.01
232.472	41.3
232.689	12.63
232.907	43.35
233.125	49.49
233.342	37.2
233.56	29.01
233.777	53.59
233.995	63.83
234.213	131.41
234.43	-16.04
234.648	108.88
234.865	31.06
235.083	67.92
235.3	10.58
235.518	-57
235.735	121.17
235.953	0.34
236.17	33.11
236.388	39.25
236.605	49.49
236.822	29.01
237.04	31.06
237.257	88.4
237.475	37.2
237.692	45.4
237.909	69.97
238.127	-3.75
238.344	112.98
238.562	123.22
238.779	29.01
238.996	-7.85
239.214	-3.75
239.431	47.44
239.648	-3.75
239.865	2.39
240.083	80.21
240.3	82.26
240.517	96.6
240.735	69.97
240.952	74.07
241.169	102.74
241.386	24.92
241.603	37.2
241.821	65.88
242.038	29.01
242.255	41.3
242.472	6.49
242.689	115.03
242.907	115.03
243.124	61.78
243.341	65.88
243.558	-20.14
243.775	29.01
243.992	78.16
244.209	65.88
244.426	74.07
244.643	110.93
244.86	-36.52
245.078	88.4
245.295	-11.95
245.512	20.82
245.729	10.58
245.946	-7.85
246.163	94.55
246.38	45.4
246.597	16.73
246.814	67.92
247.031	22.87
247.248	59.73
247.464	12.63
247.681	4.44
247.898	49.49
248.115	98.64
248.332	65.88
248.549	-3.75
248.766	135.51
248.983	16.73
249.2	59.73
249.417	61.78
249.633	72.02
249.85	104.79
250.067	94.55
250.284	33.11
250.501	78.16
250.717	74.07
250.934	-44.71
251.151	76.12
251.368	92.5
251.585	-1.71
251.801	61.78
252.018	74.07
252.235	51.54
252.451	29.01
252.668	41.3
252.885	45.4
253.102	69.97
253.318	74.07
253.535	74.07
253.752	49.49
253.968	39.25
254.185	139.6
254.401	4.44
254.618	108.88
254.835	90.45
255.051	131.41
255.268	-3.75
255.484	90.45
255.701	37.2
255.917	84.31
256.134	80.21
256.351	37.2
256.567	31.06
256.784	119.12
257	41.3
257.217	37.2
257.433	166.23
257.65	24.92
257.866	55.64
258.082	65.88
258.299	16.73
258.515	-24.23
258.732	10.58
258.948	63.83
259.165	33.11
259.381	53.59
259.597	76.12
259.814	-5.8
260.03	29.01
260.246	55.64
260.463	37.2
260.679	127.32
260.895	14.68
261.112	0.34
261.328	47.44
261.544	22.87
261.761	55.64
261.977	14.68
262.193	-32.43
262.409	69.97
262.626	72.02
262.842	16.73
263.058	43.35
263.274	67.92
263.49	22.87
263.707	86.36
263.923	63.83
264.139	-3.75
264.355	65.88
264.571	123.22
264.787	45.4
265.004	51.54
265.22	33.11
265.436	106.84
265.652	-1.71
265.868	63.83
266.084	65.88
266.3	31.06
266.516	-30.38
266.732	100.69
266.948	20.82
267.164	10.58
267.38	110.93
267.596	86.36
267.812	137.56
268.028	135.51
268.244	49.49
268.46	39.25
268.676	24.92
268.892	172.37
269.108	22.87
269.324	39.25
269.54	61.78
269.756	24.92
269.972	6.49
270.188	65.88
270.403	22.87
270.619	12.63
270.835	29.01
271.051	-9.9
271.267	37.2
271.483	63.83
271.698	59.73
271.914	18.77
272.13	69.97
272.346	45.4
272.562	37.2
272.777	84.31
272.993	98.64
273.209	69.97
273.425	86.36
273.64	53.59
273.856	76.12
274.072	123.22
274.287	-3.75
274.503	35.16
274.719	55.64
274.934	22.87
275.15	-34.47
275.366	-46.76
275.581	139.6
275.797	55.64
276.012	76.12
276.228	69.97
276.444	127.32
276.659	61.78
276.875	-59.05
277.09	37.2
277.306	76.12
277.521	22.87
277.737	69.97
277.952	18.77
278.168	57.68
278.383	4.44
278.599	69.97
278.814	24.92
279.03	49.49
279.245	65.88
279.461	12.63
279.676	92.5
279.892	53.59
280.107	119.12
280.322	24.92
280.538	127.32
280.753	45.4
280.969	55.64
281.184	55.64
281.399	88.4
281.615	61.78
281.83	135.51
282.045	-20.14
282.26	55.64
282.476	76.12
282.691	37.2
282.906	-3.75
283.122	137.56
283.337	22.87
283.552	149.84
283.767	31.06
283.983	92.5
284.198	51.54
284.413	47.44
284.628	-26.28
284.843	-3.75
285.058	69.97
285.274	4.44
285.489	-28.33
285.704	29.01
285.919	59.73
286.134	72.02
286.349	4.44
286.564	69.97
286.779	110.93
286.995	26.96
287.21	-11.95
287.425	37.2
287.64	-38.57
287.855	65.88
288.07	94.55
288.285	82.26
288.5	78.16
288.715	29.01
288.93	12.63
289.145	106.84
289.36	141.65
289.575	65.88
289.79	-11.95
290.004	57.68
290.219	69.97
290.434	37.2
290.649	61.78
290.864	14.68
291.079	47.44
291.294	123.22
291.509	6.49
291.724	125.27
291.938	4.44
292.153	26.96
292.368	29.01
292.583	24.92
292.798	94.55
293.012	53.59
293.227	86.36
293.442	76.12
293.657	51.54
293.871	96.6
294.086	45.4
294.301	78.16
294.516	22.87
294.73	37.2
294.945	-11.95
295.16	65.88
295.374	94.55
295.589	0.34
295.804	65.88
296.018	-1.71
296.233	43.35
296.447	78.16
296.662	20.82
296.877	51.54
297.091	115.03
297.306	67.92
297.52	88.4
297.735	112.98
297.949	45.4
298.164	80.21
298.378	104.79
298.593	6.49
298.807	67.92
299.022	78.16
299.236	86.36
299.451	69.97
299.665	20.82
299.88	45.4
300.094	63.83
300.309	12.63
300.523	78.16
300.737	51.54
300.952	51.54
301.166	74.07
301.381	-9.9
301.595	16.73
301.809	33.11
302.024	74.07
302.238	10.58
302.452	72.02
302.667	63.83
302.881	61.78
303.095	117.08
303.309	82.26
303.524	80.21
303.738	29.01
303.952	55.64
304.166	106.84
304.381	-57
304.595	119.12
304.809	-3.75
305.023	29.01
305.237	-28.33
305.452	69.97
305.666	82.26
305.88	37.2
306.094	72.02
306.308	57.68
306.522	80.21
306.736	80.21
306.95	100.69
307.164	127.32
307.379	55.64
307.593	76.12
307.807	65.88
308.021	65.88
308.235	31.06
308.449	-24.23
308.663	129.36
308.877	100.69
309.091	49.49
309.305	121.17
309.519	12.63
309.733	61.78
309.947	45.4
310.161	31.06
310.374	76.12
310.588	80.21
310.802	51.54
311.016	-5.8
311.23	65.88
311.444	61.78
311.658	45.4
311.872	22.87
312.085	139.6
312.299	47.44
312.513	16.73
312.727	14.68
312.941	-44.71
313.154	104.79
313.368	47.44
313.582	78.16
313.796	20.82
314.009	20.82
314.223	78.16
314.437	63.83
314.651	22.87
314.864	63.83
315.078	16.73
315.292	63.83
315.505	-1.71
315.719	119.12
315.933	96.6
316.146	53.59
316.36	-18.09
316.573	57.68
316.787	45.4
317.001	80.21
317.214	102.74
317.428	94.55
317.641	12.63
317.855	41.3
318.068	92.5
318.282	61.78
318.495	123.22
318.709	61.78
318.922	94.55
319.136	135.51
319.349	14.68
319.563	29.01
319.776	74.07
319.99	55.64
320.203	45.4
320.417	104.79
320.63	43.35
320.843	129.36
321.057	94.55
321.27	33.11
321.483	129.36
321.697	31.06
321.91	61.78
322.124	12.63
322.337	72.02
322.55	47.44
322.763	24.92
322.977	12.63
323.19	-20.14
323.403	-11.95
323.617	12.63
323.83	90.45
324.043	96.6
324.256	8.53
324.469	14.68
324.683	84.31
324.896	69.97
325.109	43.35
325.322	26.96
325.535	59.73
325.748	35.16
325.962	57.68
326.175	59.73
326.388	110.93
326.601	69.97
326.814	94.55
327.027	119.12
327.24	135.51
327.453	41.3
327.666	-40.62
327.879	82.26
328.092	78.16
328.305	10.58
328.518	82.26
328.731	41.3
328.944	69.97
329.157	90.45
329.37	53.59
329.583	88.4
329.796	133.46
330.009	92.5
330.222	90.45
330.435	147.8
330.648	22.87
330.861	8.53
331.073	80.21
331.286	74.07
331.499	49.49
331.712	29.01
331.925	43.35
332.138	47.44
332.35	145.75
332.563	-18.09
332.776	69.97
332.989	43.35
333.202	47.44
333.414	80.21
333.627	98.64
333.84	39.25
334.053	41.3
334.265	33.11
334.478	29.01
334.691	51.54
334.903	108.88
335.116	51.54
335.329	67.92
335.541	90.45
335.754	129.36
335.966	53.59
336.179	37.2
336.392	-13.99
336.604	82.26
336.817	102.74
337.029	94.55
337.242	-16.04
337.454	59.73
337.667	53.59
337.88	106.84
338.092	141.65
338.305	4.44
338.517	47.44
338.729	98.64
338.942	69.97
339.154	80.21
339.367	-18.09
339.579	72.02
339.792	43.35
340.004	61.78
340.217	24.92
340.429	119.12
340.641	135.51
340.854	86.36
341.066	47.44
341.278	59.73
341.491	67.92
341.703	26.96
341.915	-30.38
342.128	78.16
342.34	51.54
342.552	33.11
342.764	61.78
342.977	108.88
343.189	14.68
343.401	39.25
343.613	41.3
343.826	45.4
344.038	94.55
344.25	47.44
344.462	74.07
344.674	6.49
344.886	104.79
345.099	104.79
345.311	33.11
345.523	41.3
345.735	63.83
345.947	96.6
346.159	78.16
346.371	104.79
346.583	20.82
346.795	74.07
347.007	24.92
347.219	86.36
347.431	84.31
347.643	67.92
347.855	61.78
348.067	100.69
348.279	-7.85
348.491	53.59
348.703	112.98
348.915	55.64
349.127	45.4
349.339	39.25
349.551	39.25
349.763	51.54
349.975	129.36
350.187	45.4
350.399	69.97
350.61	8.53
350.822	22.87
351.034	49.49
351.246	143.7
351.458	160.08
351.669	121.17
351.881	129.36
352.093	102.74
352.305	123.22
352.517	47.44
352.728	100.69
352.94	61.78
353.152	104.79
353.363	-20.14
353.575	65.88
353.787	88.4
353.999	45.4
354.21	31.06
354.422	45.4
354.633	20.82
354.845	72.02
355.057	39.25
355.268	31.06
355.48	90.45
355.692	115.03
355.903	43.35
356.115	108.88
356.326	112.98
356.538	53.59
356.749	106.84
356.961	65.88
357.172	55.64
357.384	69.97
357.595	88.4
357.807	63.83
358.018	104.79
358.23	-18.09
358.441	104.79
358.653	76.12
358.864	55.64
359.075	12.63
359.287	65.88
359.498	33.11
359.709	84.31
359.921	41.3
360.132	90.45
360.344	86.36
360.555	49.49
360.766	67.92
360.977	0.34
361.189	96.6
361.4	63.83
361.611	102.74
361.823	80.21
362.034	123.22
362.245	88.4
362.456	55.64
362.667	178.51
362.879	33.11
363.09	74.07
363.301	47.44
363.512	55.64
363.723	55.64
363.935	59.73
364.146	49.49
364.357	69.97
364.568	94.55
364.779	24.92
364.99	127.32
365.201	8.53
365.412	65.88
365.623	53.59
365.834	86.36
366.045	82.26
366.256	102.74
366.467	104.79
366.678	158.03
366.889	82.26
367.1	115.03
367.311	69.97
367.522	41.3
367.733	53.59
367.944	63.83
368.155	84.31
368.366	135.51
368.577	110.93
368.788	84.31
368.999	61.78
369.209	137.56
369.42	104.79
369.631	63.83
369.842	82.26
370.053	112.98
370.264	125.27
370.474	53.59
370.685	106.84
370.896	100.69
371.107	104.79
371.317	67.92
371.528	20.82
371.739	59.73
371.95	106.84
372.16	61.78
372.371	37.2
372.582	82.26
372.792	76.12
373.003	88.4
373.214	59.73
373.424	102.74
373.635	74.07
373.846	137.56
374.056	24.92
374.267	80.21
374.477	14.68
374.688	47.44
374.898	65.88
375.109	65.88
375.319	45.4
375.53	47.44
375.74	104.79
375.951	96.6
376.161	69.97
376.372	104.79
376.582	37.2
376.793	88.4
377.003	31.06
377.214	86.36
377.424	84.31
377.635	47.44
377.845	61.78
378.055	86.36
378.266	160.08
378.476	143.7
378.686	78.16
378.897	137.56
379.107	123.22
379.317	135.51
379.528	-34.47
379.738	82.26
379.948	41.3
380.158	117.08
380.369	55.64
380.579	45.4
380.789	55.64
380.999	96.6
381.21	121.17
381.42	119.12
381.63	96.6
381.84	20.82
382.05	29.01
382.261	78.16
382.471	82.26
382.681	53.59
382.891	82.26
383.101	184.66
383.311	8.53
383.521	121.17
383.731	100.69
383.941	59.73
384.151	29.01
384.361	69.97
384.571	88.4
384.781	106.84
384.991	110.93
385.201	151.89
385.411	51.54
385.621	78.16
385.831	88.4
386.041	57.68
386.251	139.6
386.461	29.01
386.671	65.88
386.881	131.41
387.091	82.26
387.301	33.11
387.511	145.75
387.72	127.32
387.93	139.6
388.14	-77.48
388.35	90.45
388.56	86.36
388.769	112.98
388.979	88.4
389.189	22.87
389.399	178.51
389.609	108.88
389.818	186.71
390.028	65.88
390.238	94.55
390.447	106.84
390.657	121.17
390.867	37.2
391.076	155.99
391.286	127.32
391.496	41.3
391.705	84.31
391.915	96.6
392.125	196.95
392.334	155.99
392.544	86.36
392.753	78.16
392.963	104.79
393.172	72.02
393.382	98.64
393.591	102.74
393.801	100.69
394.01	123.22
394.22	102.74
394.429	98.64
394.639	139.6
394.848	135.51
395.058	74.07
395.267	162.13
395.477	90.45
395.686	45.4
395.895	205.14
396.105	174.42
396.314	137.56
396.524	143.7
396.733	119.12
396.942	145.75
397.152	123.22
397.361	160.08
397.57	141.65
397.78	151.89
397.989	115.03
398.198	119.12
398.407	84.31
398.617	153.94
398.826	123.22
399.035	172.37
399.244	129.36
399.453	98.64
399.663	192.85
399.872	143.7
400.081	178.51
400.29	168.27
400.499	90.45
400.708	180.56
400.917	137.56
401.127	102.74
401.336	110.93
401.545	143.7
401.754	219.47
401.963	233.81
402.172	170.32
402.381	217.43
402.59	160.08
402.799	178.51
403.008	280.91
403.217	162.13
403.426	209.23
403.635	180.56
403.844	158.03
404.053	164.18
404.262	213.33
404.471	184.66
404.68	217.43
404.888	213.33
405.097	158.03
405.306	225.62
405.515	213.33
405.724	180.56
405.933	213.33
406.142	309.58
406.35	262.48
406.559	250.19
406.768	149.84
406.977	282.96
407.185	305.49
407.394	235.86
407.603	248.15
407.812	362.83
408.02	366.93
408.229	307.54
408.438	311.63
408.646	321.87
408.855	278.87
409.064	311.63
409.272	217.43
409.481	375.12
409.69	440.65
409.898	350.54
410.107	442.7
410.315	356.69
410.524	432.46
410.733	430.41
410.941	383.31
411.15	422.22
411.358	551.24
411.567	549.2
411.775	520.53
411.984	528.72
412.192	573.77
412.401	610.64
412.609	639.31
412.818	590.16
413.026	610.64
413.234	659.79
413.443	610.64
413.651	731.47
413.86	641.36
414.068	799.05
414.276	727.37
414.485	729.42
414.693	794.95
414.901	827.72
415.11	940.36
415.318	831.82
415.526	964.93
415.734	1024.33
415.943	938.31
416.151	1063.24
416.359	1020.23
416.567	1079.62
416.776	1167.68
416.984	1141.06
417.192	1245.51
417.4	1214.79
417.608	1259.84
417.817	1270.08
418.025	1290.56
418.233	1397.06
418.441	1454.4
418.649	1587.52
418.857	1583.42
419.065	1751.35
419.273	1657.15
419.481	1669.44
419.689	1792.31
419.897	1870.14
420.105	1886.52
420.313	2052.41
420.521	1960.25
420.729	1962.3
420.937	2179.38
421.145	2249.01
421.353	2322.74
421.561	2375.99
421.769	2437.42
421.977	2449.71
422.185	2445.62
422.393	2625.84
422.601	2861.35
422.809	2814.25
423.017	2863.4
423.224	2953.51
423.432	3191.08
423.64	3082.53
423.848	3381.54
424.056	3305.76
424.263	3445.02
424.471	3551.52
424.679	3733.79
424.887	3707.16
425.094	3764.51
425.302	3856.67
425.51	4102.42
425.718	4057.37
425.925	4137.24
426.133	4385.04
426.341	4722.96
426.548	4872.46
426.756	4929.8
426.964	4894.99
427.171	5196.04
427.379	5394.69
427.586	5411.07
427.794	5550.34
428.001	5830.91
428.209	6029.56
428.417	5822.72
428.624	6387.96
428.832	6258.93
429.039	6453.49
429.247	6357.24
429.454	7119.08
429.662	7704.8
429.869	6979.82
430.076	7379.17
430.284	7190.76
430.491	7500
430.699	7852.25
430.906	8138.97
431.114	8040.67
431.321	8528.08
431.528	8693.97
431.736	9201.86
431.943	9459.91
432.15	9183.43
432.358	9205.96
432.565	9859.26
432.772	9828.54
432.979	10361.02
433.187	10621.11
433.394	10567.86
433.601	11034.8
433.808	11255.98
434.016	11155.63
434.223	11473.06
434.43	12138.65
434.637	12208.28
434.844	12955.79
435.052	13179.02
435.259	13031.57
435.466	13301.9
435.673	13062.29
435.88	13793.41
436.087	14160
436.294	14721.14
436.501	14276.73
436.708	14452.86
436.915	15020.14
437.122	15585.38
437.329	15558.76
437.537	16130.14
437.743	16199.77
437.95	16384.09
438.157	16996.43
438.364	17508.43
438.571	17657.93
438.778	17688.65
438.985	19286.06
439.192	18509.88
439.399	18968.63
439.606	18831.41
439.813	19972.13
440.02	21084.18
440.227	20869.14
440.433	20445.21
440.64	21057.56
440.847	20983.83
441.054	21411.85
441.261	22794.23
441.467	22620.16
441.674	23226.35
441.881	23572.46
442.088	23959.53
442.294	23617.52
442.501	24242.15
442.708	24438.75
442.914	25669.58
443.121	26728.38
443.328	26124.23
443.534	27789.23
443.741	26847.16
443.948	26496.96
444.154	28452.77
444.361	28331.94
444.568	28747.68
444.774	28567.46
444.981	28966.81
445.187	29474.71
445.394	31076.22
445.6	30361.48
445.807	33261.4
446.013	31743.86
446.22	32466.79
446.426	33640.28
446.633	33967.95
446.839	35630.9
447.046	33818.45
447.252	35288.89
447.459	35809.07
447.665	35288.89
447.871	37029.66
448.078	38371.08
448.284	36499.24
448.491	37725.97
448.697	38829.83
448.903	40029.94
449.11	39962.36
449.316	38997.76
449.522	40068.85
449.728	40656.62
449.935	41168.61
450.141	41004.77
450.347	41596.63
450.553	40619.75
450.76	41283.3
450.966	42784.46
451.172	42059.48
451.378	43206.34
451.584	42118.87
451.791	43249.35
451.997	43189.95
452.203	43722.43
452.409	43720.38
452.615	43902.65
452.821	41936.6
453.027	41432.8
453.233	43706.04
453.44	41926.36
453.646	42444.49
453.852	42571.47
454.058	43349.7
454.264	41903.83
454.47	43198.15
454.676	41756.38
454.882	42979.01
455.088	39347.96
455.294	40083.19
455.5	40701.67
455.705	41174.75
455.911	39495.42
456.117	38803.21
456.323	38622.98
456.529	36110.13
456.735	37971.73
456.941	36925.22
457.147	36163.37
457.352	35106.62
457.558	34680.64
457.764	34971.46
457.97	34195.28
458.176	33171.29
458.381	33394.52
458.587	32071.53
458.793	31876.97
458.999	30316.42
459.204	32348.01
459.41	31561.59
459.616	29286.29
459.821	29386.64
460.027	29667.22
460.233	28772.25
460.438	27819.95
460.644	27776.94
460.85	26363.84
461.055	25853.9
461.261	26009.54
461.466	24213.48
461.672	23140.34
461.878	24942.55
462.083	23246.83
462.289	22874.1
462.494	22818.81
462.7	21717
462.905	21086.23
463.111	21782.54
463.316	21905.42
463.522	21538.83
463.727	21518.35
463.932	21540.88
464.138	21272.59
464.343	21481.49
464.549	21014.55
464.754	21448.72
464.959	21213.2
465.165	21176.34
465.37	20353.05
465.575	19583.02
465.781	20480.03
465.986	20944.92
466.191	19583.02
466.397	19312.69
466.602	18556.99
466.807	19249.2
467.012	19503.15
467.218	19165.23
467.423	18581.56
467.628	19361.84
467.833	19509.29
468.038	18954.29
468.244	18524.22
468.449	19357.74
468.654	18630.71
468.859	18493.5
469.064	18536.51
469.269	17772.61
469.474	17948.74
469.679	18159.68
469.885	17510.47
470.09	17844.29
470.295	17741.89
470.5	17162.32
470.705	17432.65
470.91	16914.52
471.115	16941.14
471.32	17258.57
471.525	17258.57
471.73	16674.9
471.935	16400.48
472.139	15978.59
472.344	16234.59
472.549	15847.52
472.754	15988.83
472.959	15833.19
473.164	15077.49
473.369	15181.93
473.574	15499.37
473.778	15403.11
473.983	15509.61
474.188	15251.56
474.393	14430.33
474.598	14784.63
474.802	14356.6
475.007	14407.8
475.212	14405.75
475.417	13852.8
475.621	13973.63
475.826	14010.5
476.031	13463.69
476.235	13301.9
476.44	13652.1
476.645	13332.62
476.849	13473.93
477.054	13246.6
477.259	12968.08
477.463	12939.41
477.668	12630.16
477.872	13045.9
478.077	12458.14
478.282	12556.44
478.486	12456.09
478.691	11997.34
478.895	12124.32
479.1	12085.4
479.304	12122.27
479.509	11753.63
479.713	12122.27
479.918	11659.43
480.122	11466.92
480.326	11790.5
480.531	11577.51
480.735	11516.07
480.94	11532.45
481.144	11839.65
481.348	11317.42
481.553	11206.83
481.757	11196.59
481.961	11335.85
482.166	11434.15
482.37	11403.43
482.574	11151.53
482.778	11176.11
482.983	11321.51
483.187	11219.11
483.391	11315.37
483.595	11071.66
483.8	11104.43
484.004	11253.93
484.208	11325.61
484.412	11141.29
484.616	11356.33
484.821	11481.25
485.025	11223.21
485.229	11174.06
485.433	11081.9
485.637	11161.77
485.841	11088.04
486.045	10922.16
486.249	11092.14
486.453	11055.28
486.657	11366.57
486.861	11270.31
487.065	11020.46
487.269	11075.76
487.473	11104.43
487.677	11548.84
487.881	11190.44
488.085	11387.05
488.289	11188.39
488.493	11104.43
488.697	11360.42
488.901	11362.47
489.105	11485.35
489.309	11372.71
489.512	11319.46
489.716	11397.29
489.92	11272.36
490.124	11278.51
490.328	11432.1
490.531	11278.51
490.735	11583.65
490.939	11481.25
491.143	11378.86
491.346	11421.86
491.55	11487.4
491.754	11743.39
491.958	11896.99
492.161	11686.05
492.365	11841.7
492.569	11882.66
492.772	11688.1
492.976	11993.25
493.18	11851.94
493.383	12327.07
493.587	12189.85
493.79	12318.87
493.994	12169.37
494.197	12345.5
494.401	12396.7
494.605	12402.84
494.808	12701.84
495.012	12595.35
495.215	12589.21
495.419	12857.49
495.622	12794
495.825	13121.68
496.029	12951.7
496.232	13463.69
496.436	13168.78
496.639	13727.88
496.843	13400.2
497.046	13654.15
497.249	13910.15
497.453	13891.71
497.656	14069.89
497.859	14311.55
498.063	14305.4
498.266	14397.56
498.469	14573.69
498.673	14571.64
498.876	14864.5
499.079	15102.06
499.282	15038.58
499.485	15341.68
499.689	15405.16
499.892	15579.24
500.095	15495.27
500.298	16011.36
500.501	16093.28
500.705	16429.15
500.908	16560.22
501.111	16814.16
501.314	17291.34
501.517	17317.97
501.72	17162.32
501.923	17152.08
502.126	17571.91
502.329	17754.18
502.532	17739.85
502.735	17903.68
502.938	18632.76
503.141	18599.99
503.344	18712.63
503.547	18747.45
503.75	19066.93
503.953	19427.37
504.156	19550.25
504.359	19929.13
504.562	19783.72
504.765	20181.03
504.968	20500.51
505.17	20514.84
505.373	20475.93
505.576	20895.77
505.779	21325.84
505.982	21557.26
506.185	21708.81
506.387	21880.84
506.59	21981.19
506.793	22431.74
506.996	22116.36
507.198	22943.74
507.401	22669.31
507.604	23265.27
507.807	23711.72
508.009	23576.56
508.212	23887.85
508.415	24066.02
508.617	24469.47
508.82	24457.18
509.022	24352.74
509.225	24758.24
509.428	25214.93
509.63	25640.91
509.833	25757.64
510.035	26245.06
510.238	25753.55
510.44	26329.03
510.643	26884.03
510.845	26877.88
511.048	26582.98
511.25	27477.94
511.453	27682.73
511.655	28147.62
511.858	28172.2
512.06	28757.92
512.262	28809.12
512.465	28483.49
512.667	29192.09
512.87	29546.39
513.072	29890.45
513.274	30226.31
513.477	30758.78
513.679	30486.4
513.881	30769.02
514.084	31217.53
514.286	31108.99
514.488	31197.05
514.69	32245.61
514.893	32092.01
515.095	32161.64
515.297	33083.23
515.499	32882.53
515.701	33214.3
515.904	33353.56
516.106	33335.13
516.308	34314.06
516.51	34598.73
516.712	34500.42
516.914	34875.2
517.116	35526.46
517.318	35567.41
517.52	35780.4
517.722	35893.04
517.925	36628.26
518.127	36955.94
518.329	36847.4
518.531	36906.79
518.733	37476.12
518.935	37592.86
519.136	37533.46
519.338	38225.68
519.54	38121.23
519.742	38770.44
519.944	38997.76
520.146	39587.58
520.348	40017.65
520.55	39890.68
520.752	40130.29
520.954	40677.1
521.155	40410.86
521.357	41213.66
521.559	41068.26
521.761	41631.45
521.963	41232.1
522.164	41608.92
522.366	42170.07
522.568	42225.36
522.77	42610.38
522.971	43251.39
523.173	42884.81
523.375	43503.29
523.576	43263.68
523.778	43269.83
523.98	43482.81
524.181	44379.82
524.383	44068.53
524.584	44533.42
524.786	44803.75
524.988	44992.17
525.189	45129.38
525.391	45172.39
525.592	45751.96
525.794	45551.26
525.995	45538.97
526.197	45770.39
526.398	45686.43
526.6	46007.96
526.801	46667.41
527.003	46433.94
527.204	46511.76
527.406	46837.39
527.607	47070.86
527.808	47124.1
528.01	46884.49
528.211	46999.18
528.412	47906.43
528.614	47613.57
528.815	47232.64
529.016	47744.64
529.218	47373.95
529.419	47568.51
529.62	47910.52
529.822	47916.67
530.023	47865.47
530.224	47685.25
530.425	47593.09
530.626	47464.07
530.828	47740.54
531.029	48713.33
531.23	47877.75
531.431	47842.94
531.632	48369.27
531.833	48545.39
532.035	48201.33
532.236	48520.82
532.437	48258.68
532.638	48111.22
532.839	48709.23
533.04	49014.38
533.241	48158.33
533.442	49143.4
533.643	48803.44
533.844	48461.43
534.045	48563.82
534.246	48168.57
534.447	48596.59
534.648	48305.78
534.849	48838.25
535.05	48367.22
535.251	48479.86
535.451	48012.92
535.652	48742
535.853	48436.85
536.054	48397.94
536.255	48830.06
536.456	47701.63
536.657	48997.99
536.857	48586.35
537.058	47933.05
537.259	48440.95
537.46	48733.81
537.66	48244.34
537.861	48410.23
538.062	48561.78
538.263	47898.23
538.463	47840.89
538.664	48412.27
538.865	48273.01
539.065	48561.78
539.266	47664.77
539.466	48465.52
539.667	48045.69
539.868	48649.84
540.068	48215.67
540.269	47949.43
540.469	48533.1
540.67	48076.41
540.87	48076.41
541.071	47826.56
541.271	48086.65
541.472	48084.6
541.672	47826.56
541.873	47750.78
542.073	47410.82
542.274	48328.31
542.474	47732.35
542.675	47683.2
542.875	48184.95
543.075	47953.53
543.276	47531.65
543.476	47982.2
543.676	47505.02
543.877	47836.8
544.077	47474.3
544.277	47828.6
544.478	47423.11
544.678	47711.87
544.878	47644.29
545.078	47617.66
545.279	47468.16
545.479	47322.76
545.679	47464.07
545.879	47871.61
546.079	47527.55
546.28	47525.5
546.48	47308.42
546.68	47541.89
546.88	47632
547.08	47582.85
547.28	47511.17
547.48	47132.29
547.68	47449.73
547.88	47423.11
548.081	47355.52
548.281	47535.74
548.481	47341.19
548.681	47625.85
548.881	47775.36
549.081	47031.94
549.28	47543.94
549.48	47842.94
549.68	47115.91
549.88	48039.54
550.08	47054.47
550.28	47636.09
550.48	47163.01
550.68	47521.41
550.88	47160.97
551.08	47502.98
551.279	47459.97
551.479	46892.68
551.679	47128.2
551.879	47136.39
552.079	47302.28
552.278	47064.71
552.478	47382.15
552.678	47349.38
552.878	47629.95
553.077	46855.82
553.277	46499.47
553.477	47570.56
553.676	46843.53
553.876	47287.94
554.076	47007.37
554.275	46866.06
554.475	46401.17
554.674	46892.68
554.874	46810.76
555.074	47130.25
555.273	47384.19
555.473	47126.15
555.672	46718.6
555.872	46747.28
556.071	46939.79
556.271	46933.64
556.47	46413.46
556.67	46395.03
556.869	46409.36
557.068	46704.27
557.268	46227.09
557.467	46968.46
557.667	46495.38
557.866	46515.86
558.065	46450.32
558.265	46390.93
558.464	46495.38
558.663	46837.39
558.863	46347.92
559.062	46522
559.261	46341.78
559.461	46548.62
559.66	45868.7
559.859	46352.02
560.058	45745.82
560.258	45934.23
560.457	45797.02
560.656	46065.3
560.855	45524.64
561.054	45950.62
561.253	45412
561.453	45923.99
561.652	45737.63
561.851	45754.01
562.05	45180.58
562.249	45299.36
562.448	46016.15
562.647	45858.46
562.846	45498.02
563.045	45627.04
563.244	44996.26
563.443	45661.85
563.642	44398.26
563.841	45268.64
564.04	45119.14
564.239	45534.88
564.438	45129.38
564.637	45158.05
564.836	45254.31
565.035	44697.26
565.234	44914.34
565.432	44570.29
565.631	44558
565.83	44996.26
566.029	44744.36
566.228	44584.62
566.427	44302
566.625	44066.48
566.824	44015.29
567.023	44388.02
567.222	43812.54
567.42	44340.91
567.619	44461.74
567.818	43962.04
568.016	43781.82
568.215	44281.52
568.414	43835.06
568.612	43990.71
568.811	43675.32
569.01	43785.91
569.208	43460.29
569.407	43896.5
569.605	43069.12
569.804	43724.47
570.002	43132.61
570.201	43421.37
570.4	43155.14
570.598	43058.88
570.797	42497.74
570.995	43046.6
571.193	42809.03
571.392	43155.14
571.59	42880.71
571.789	42364.62
571.987	42444.49
572.186	42450.64
572.384	42100.43
572.582	42528.46
572.781	42276.56
572.979	42192.59
573.177	42335.95
573.376	42434.25
573.574	41780.95
573.772	41811.67
573.971	41488.09
574.169	41432.8
574.367	40945.38
574.565	41944.79
574.763	41737.94
574.962	41168.61
575.16	40722.15
575.358	41154.27
575.556	40722.15
575.754	41588.44
575.952	40683.24
576.151	41174.75
576.349	40290.03
576.547	40498.92
576.745	40625.9
576.943	40468.2
577.141	40306.41
577.339	40595.18
577.537	40064.75
577.735	40503.02
577.933	39948.02
578.131	40050.42
578.329	39689.98
578.527	39515.9
578.725	39765.75
578.923	39757.56
579.121	39296.77
579.319	39409.4
579.516	39442.17
579.714	39581.43
579.912	39487.23
580.11	39438.08
580.308	39276.29
580.506	39134.98
580.704	38360.84
580.901	38967.04
581.099	38936.32
581.297	38272.78
581.495	38283.02
581.692	38379.28
581.89	38182.67
582.088	38348.56
582.285	38119.18
582.483	38319.88
582.681	38272.78
582.878	37871.38
583.076	37476.12
583.274	37979.92
583.471	37568.28
583.669	37728.02
583.866	37320.48
584.064	37842.71
584.262	37228.32
584.459	37472.03
584.657	37060.38
584.854	37435.16
585.052	36732.71
585.249	37267.23
585.447	36908.83
585.644	36841.25
585.841	36636.45
586.039	36761.38
586.236	36259.63
586.434	36339.5
586.631	36126.51
586.828	36302.64
587.026	35890.99
587.223	36419.37
587.42	35796.79
587.618	35921.71
587.815	35446.58
588.012	35553.08
588.21	35522.36
588.407	35610.42
588.604	35678
588.801	35082.05
588.999	35080
589.196	35252.03
589.393	34957.12
589.59	35176.25
589.787	34623.3
589.984	34694.98
590.182	34592.58
590.379	35034.94
590.576	34117.45
590.773	34291.53
590.97	34084.69
591.167	34150.22
591.364	33883.98
591.561	34117.45
591.758	33576.79
591.955	33972.05
592.152	33933.14
592.349	33781.59
592.546	33603.41
592.743	33519.45
592.94	32995.17
593.137	33199.96
593.334	33275.74
593.531	33077.08
593.727	33105.76
593.924	32730.98
594.121	32550.76
594.318	32810.85
594.515	32632.68
594.712	32913.25
594.908	32540.52
595.105	32608.1
595.302	32221.03
595.499	32716.64
595.696	32067.44
595.892	32139.11
596.089	32130.92
596.286	32071.53
596.482	31866.74
596.679	31706.99
596.876	31954.8
597.072	31999.85
597.269	31618.93
597.466	31379.32
597.662	31506.29
597.859	31676.27
598.055	31440.76
598.252	30877.57
598.448	30982.01
598.645	30881.66
598.841	30615.43
599.038	30777.22
599.234	30680.96
599.431	30427.01
599.627	30261.13
599.824	30644.1
600.02	30138.25
600.217	30439.3
600.413	30277.51
600.609	29679.5
600.806	30349.19
601.002	30050.19
601.198	29603.73
601.395	29579.15
601.591	29378.45
601.787	29642.64
601.984	29099.93
602.18	29699.98
602.376	29247.38
602.572	29179.8
602.769	29237.14
602.965	29030.3
603.161	28958.62
603.357	28831.65
603.553	28512.16
603.75	28989.34
603.946	28596.13
604.142	28538.79
604.338	28571.55
604.534	28338.08
604.73	28188.58
604.926	28053.42
605.122	28168.1
605.318	28030.89
605.514	28176.3
605.71	27590.58
605.906	27932.59
606.102	27914.16
606.298	27924.4
606.494	27666.35
606.69	27467.7
606.886	27770.8
607.082	27303.86
607.278	27727.79
607.474	27205.56
607.67	27185.08
607.866	26785.72
608.062	27506.61
608.257	27082.68
608.453	27164.6
608.649	27273.14
608.845	26916.79
609.041	27187.13
609.236	26802.11
609.432	26806.2
609.628	26447.81
609.824	26566.59
610.019	26695.61
610.215	26363.84
610.411	26531.78
610.606	26478.53
610.802	26542.02
610.998	26257.35
611.193	26140.61
611.389	25911.24
611.584	26193.86
611.78	25944.01
611.976	26109.89
612.171	26046.41
612.367	26134.47
612.562	25810.89
612.758	25542.61
612.953	25628.62
613.149	25720.78
613.344	25563.09
613.539	25939.91
613.735	25505.74
613.93	25438.16
614.126	25161.69
614.321	25745.36
614.517	25296.85
614.712	25393.11
614.907	25389.01
615.103	25638.86
615.298	25438.16
615.493	25638.86
615.688	24893.4
615.884	25579.47
616.079	24487.9
616.274	25315.28
616.47	24991.7
616.665	25126.87
616.86	24610.78
617.055	24707.04
617.25	24840.15
617.445	24856.54
617.641	24537.05
617.836	24664.03
618.031	24199.14
618.226	24389.6
618.421	24186.85
618.616	24399.84
618.811	23975.91
619.006	24213.48
619.201	24045.54
619.396	24039.4
619.591	23445.49
619.786	23943.14
619.981	23898.09
620.176	23891.94
620.371	23439.34
620.566	23463.92
620.761	23011.32
620.956	23478.26
621.151	22935.54
621.346	23175.16
621.541	22702.07
621.735	22910.97
621.93	22802.43
622.125	22536.19
622.32	22423.55
622.515	22587.39
622.709	22265.86
622.904	22157.32
623.099	22067.2
623.294	22183.94
623.488	21471.25
623.683	21841.93
623.878	21493.77
624.072	21456.91
624.267	21688.33
624.462	21415.95
624.656	21174.29
624.851	21108.76
625.046	21069.84
625.24	20899.86
625.435	20533.28
625.629	20686.87
625.824	20330.53
626.018	20363.29
626.213	20176.93
626.407	20281.38
626.602	19812.39
626.796	20068.39
626.991	19873.83
627.185	19853.35
627.38	19755.05
627.574	19488.81
627.768	19392.56
627.963	19290.16
628.157	19353.65
628.352	19394.61
628.546	18866.23
628.74	19034.16
628.935	18772.02
629.129	18565.18
629.323	18640.95
629.517	18571.32
629.712	18509.88
629.906	18423.87
630.1	18073.67
630.294	18405.44
630.489	18096.19
630.683	18094.15
630.877	17811.53
631.071	17711.18
631.265	17823.81
631.459	17608.78
631.653	17471.56
631.848	17567.82
632.042	17420.36
632.236	17461.32
632.43	17238.09
632.624	17147.98
632.818	17139.79
633.012	16683.09
633.206	16912.47
633.4	16822.36
633.594	16586.84
633.788	16605.27
633.982	16425.05
634.176	16519.26
634.369	16105.57
634.563	16216.16
634.757	16447.58
634.951	16060.51
635.145	15947.87
635.339	16015.46
635.533	15810.66
635.726	15904.87
635.92	15605.86
636.114	15638.63
636.308	15454.31
636.501	15491.18
636.695	15435.88
636.889	15411.31
637.083	15124.59
637.276	15022.19
637.47	15122.54
637.664	14958.71
637.857	15153.26
638.051	15030.38
638.244	14680.18
638.438	14880.88
638.632	14753.91
638.825	14434.43
639.019	14563.45
639.212	14360.7
639.406	14211.2
639.599	14370.94
639.793	14409.85
639.986	13961.34
640.18	14012.54
640.373	13996.16
640.567	13957.25
640.76	13801.6
640.954	13856.9
641.147	13695.11
641.34	13660.29
641.534	13717.64
641.727	13387.91
641.92	13381.77
642.114	13320.33
642.307	13285.51
642.5	13162.64
642.694	13066.38
642.887	12763.28
643.08	12875.92
643.273	12920.98
643.467	12800.15
643.66	12720.28
643.853	12578.97
644.046	12521.62
644.239	12609.68
644.432	12554.39
644.626	12617.88
644.819	12286.11
645.012	12218.52
645.205	12298.39
645.398	12054.69
645.591	12220.57
645.784	12073.12
645.977	12019.87
646.17	12083.36
646.363	11686.05
646.556	11804.83
646.749	11700.39
646.942	11747.49
647.135	11706.53
647.328	11622.56
647.521	11518.12
647.714	11227.31
647.907	11358.38
648.099	11352.23
648.292	11423.91
648.485	11264.17
648.678	10911.92
648.871	10997.93
649.064	10997.93
649.256	11153.58
649.449	11028.65
649.642	10733.75
649.835	10662.07
650.027	10678.45
650.22	10569.91
650.413	10621.11
650.605	10547.38
650.798	10700.98
650.991	10473.65
651.183	10326.2
651.376	10334.39
651.568	10545.33
651.761	10399.93
651.954	10223.8
652.146	10117.31
652.339	10262.71
652.531	9965.76
652.724	9935.04
652.916	9756.86
653.109	9842.88
653.301	9812.16
653.494	9838.78
653.686	9613.51
653.879	9896.13
654.071	9801.92
654.263	9507.01
654.456	9742.53
654.648	9449.67
654.84	9193.67
655.033	9322.7
655.225	9189.58
655.417	9296.07
655.61	9345.22
655.802	9271.5
655.994	9361.61
656.186	8982.73
656.379	8966.35
656.571	9046.22
656.763	9009.36
656.955	8958.16
657.148	8968.4
657.34	8798.42
657.532	8761.55
657.724	8736.98
657.916	8679.63
658.108	8532.18
658.3	8437.97
658.492	8485.08
658.684	8433.88
658.876	8204.5
659.068	8511.7
659.26	8247.51
659.452	8265.94
659.644	8311
659.836	8278.23
660.028	8288.47
660.22	7930.08
660.412	8243.42
660.604	8022.23
660.796	7880.93
660.988	7905.5
661.18	7919.84
661.372	7762.14
661.563	7919.84
661.755	7864.54
661.947	7725.28
662.139	7856.35
662.331	7649.5
662.522	7553.25
662.714	7495.91
662.906	7483.62
663.097	7430.37
663.289	7403.75
663.481	7401.7
663.673	7430.37
663.864	7352.55
664.056	7233.77
664.247	7434.47
664.439	7127.27
664.631	7272.68
664.822	7307.49
665.014	7229.67
665.205	7174.38
665.397	7117.03
665.588	7133.42
665.78	7108.84
665.971	6893.8
666.163	6940.91
666.354	6822.13
666.546	6742.25
666.737	6768.88
666.929	6852.84
667.12	6770.93
667.311	6754.54
667.503	6646
667.694	6836.46
667.885	6584.56
668.077	6607.09
668.268	6508.79
668.459	6590.7
668.651	6508.79
668.842	6633.71
669.033	6355.19
669.224	6281.46
669.416	6377.72
669.607	6297.85
669.798	6179.06
669.989	6238.45
670.18	6164.73
670.371	6353.14
670.563	6164.73
670.754	6121.72
670.945	6070.52
671.136	6103.29
671.327	6045.95
671.518	6047.99
671.709	6134.01
671.9	5916.92
672.091	5961.98
672.282	5921.02
672.473	5820.67
672.664	5816.57
672.855	5855.48
673.046	6013.18
673.237	5800.19
673.428	5624.06
673.619	5832.96
673.809	5736.7
674	5773.57
674.191	5587.2
674.382	5566.72
674.573	5492.99
674.764	5566.72
674.954	5566.72
675.145	5476.61
675.336	5355.78
675.527	5525.76
675.717	5564.67
675.908	5353.73
676.099	5495.04
676.289	5273.86
676.48	5607.68
676.671	5452.03
676.861	5347.59
677.052	5323.01
677.243	5259.53
677.433	5298.44
677.624	5153.03
677.814	4995.34
678.005	5247.24
678.195	5142.79
678.386	5011.72
678.576	4944.14
678.767	5028.1
678.957	5003.53
679.148	5005.58
679.338	5077.26
679.529	5042.44
679.719	4833.55
679.909	5044.49
680.1	5058.82
680.29	4952.33
680.481	4876.55
680.671	4815.12
680.861	4694.29
681.052	4925.71
681.242	4694.29
681.432	4948.23
681.622	4792.59
681.813	4923.66
682.003	4808.97
682.193	4659.47
682.383	4839.69
682.573	4661.52
682.764	4602.13
682.954	4747.53
683.144	4716.81
683.334	4751.63
683.524	4643.09
683.714	4671.76
683.904	4561.17
684.094	4600.08
684.284	4663.57
684.474	4567.31
684.664	4593.94
684.854	4550.93
685.044	4514.06
685.234	4571.41
685.424	4366.61
685.614	4366.61
685.804	4417.81
685.994	4454.67
686.184	4268.31
686.374	4428.05
686.564	4385.04
686.753	4296.98
686.943	4268.31
687.133	4223.25
687.323	4372.75
687.513	4299.03
687.702	4217.11
687.892	4092.18
688.082	4215.06
688.272	4348.18
688.461	4215.06
688.651	4122.9
688.841	4100.37
689.03	4049.18
689.22	4061.46
689.41	4149.53
689.599	4137.24
689.789	3924.25
689.979	4026.65
690.168	3985.69
690.358	3858.71
690.547	3954.97
690.737	4114.71
690.926	3895.58
691.116	3801.37
691.305	3993.88
691.495	3729.69
691.684	3899.67
691.874	3729.69
692.063	3784.99
692.252	3821.85
692.442	3686.69
692.631	3819.8
692.82	3873.05
693.01	3823.9
693.199	3733.79
693.388	3850.52
693.578	3797.28
693.767	3717.4
693.956	3815.71
694.146	3674.4
694.335	3793.18
694.524	3668.25
694.713	3637.53
694.902	3639.58
695.092	3635.49
695.281	3586.33
695.47	3596.57
695.659	3580.19
695.848	3535.14
696.037	3604.77
696.226	3608.86
696.415	3596.57
696.604	3533.09
696.793	3449.12
696.982	3371.3
697.171	3617.05
697.36	3645.73
697.549	3553.57
697.738	3627.29
697.927	3475.74
698.116	3416.35
698.305	3371.3
698.494	3381.54
698.683	3535.14
698.872	3500.32
699.061	3418.4
699.25	3297.57
699.438	3332.39
699.627	3512.61
699.816	3457.31
700.005	3447.07
700.193	3342.63
700.382	3275.04
700.571	3371.3
700.76	3340.58
700.948	3316
701.137	3277.09
701.326	3316
701.514	3244.32
701.703	3293.48
701.892	3295.52
702.08	3277.09
702.269	3461.41
702.457	3209.51
702.646	3361.06
702.834	3215.65
703.023	3191.08
703.212	3305.76
703.4	3270.95
703.589	3131.69
703.777	3205.41
703.965	3133.73
704.154	3100.97
704.342	3227.94
704.531	3232.04
704.719	3035.43
704.907	3094.82
705.096	3019.05
705.284	3229.99
705.472	3121.45
705.661	3086.63
705.849	3207.46
706.037	3121.45
706.226	3084.58
706.414	3178.79
706.602	3211.56
706.79	3184.93
706.979	3080.49
707.167	2951.46
707.355	3074.34
707.543	3111.21
707.731	3004.71
707.919	2988.33
708.107	3017
708.296	2806.06
708.484	3002.66
708.672	2935.08
708.86	2973.99
709.048	2920.74
709.236	2822.44
709.424	2922.79
709.612	2896.17
709.8	2941.22
709.988	3000.62
710.176	2963.75
710.364	2851.11
710.551	2885.93
710.739	2887.98
710.927	2879.79
711.115	2898.22
711.303	2920.74
711.491	2879.79
711.679	2820.39
711.866	2873.64
712.054	2820.39
712.242	2756.91
712.43	2736.43
712.617	2873.64
712.805	2658.6
712.993	2797.87
713.181	2791.72
713.368	2904.36
713.556	2674.99
713.744	2636.08
713.931	2808.11
714.119	2769.2
714.306	2740.52
714.494	2552.11
714.682	2724.14
714.869	2744.62
715.057	2705.71
715.244	2658.6
715.432	2844.97
715.619	2683.18
715.807	2726.19
715.994	2650.41
716.182	2572.59
716.369	2674.99
716.556	2707.76
716.744	2576.69
716.931	2480.43
717.119	2543.92
717.306	2550.06
717.493	2521.39
717.681	2433.33
717.868	2584.88
718.055	2564.4
718.242	2552.11
718.43	2580.78
718.617	2543.92
718.804	2629.93
718.991	2552.11
719.179	2543.92
719.366	2500.91
719.553	2470.19
719.74	2455.86
719.927	2533.68
720.114	2515.25
720.301	2343.22
720.488	2412.85
720.676	2404.66
720.863	2478.38
721.05	2457.9
721.237	2378.03
721.424	2375.99
721.611	2392.37
721.798	2308.4
721.985	2416.94
722.172	2302.26
722.358	2398.51
722.545	2357.55
722.732	2349.36
722.919	2332.98
723.106	2359.6
723.293	2349.36
723.48	2224.44
723.667	2371.89
723.853	2263.35
724.04	2347.31
724.227	2298.16
724.414	2255.15
724.6	2224.44
724.787	2322.74
724.974	2312.5
725.161	2341.17
725.347	2236.72
725.534	2234.68
725.72	2265.39
725.907	2310.45
726.094	2244.92
726.28	2187.57
726.467	2175.28
726.653	2386.22
726.84	2169.14
727.027	2277.68
727.213	2189.62
727.4	2138.42
727.586	2259.25
727.773	2220.34
727.959	2175.28
728.145	2177.33
728.332	2079.03
728.518	2173.24
728.705	2079.03
728.891	2201.91
729.077	2167.09
729.264	2042.17
729.45	2175.28
729.636	2126.13
729.823	2093.37
730.009	2105.65
730.195	2138.42
730.382	2142.52
730.568	2126.13
730.754	2019.64
730.94	2021.69
731.126	2076.98
731.313	2068.79
731.499	2126.13
731.685	2038.07
731.871	2023.73
732.057	2023.73
732.243	2072.89
732.429	1962.3
732.615	2132.28
732.801	1964.34
732.987	2079.03
733.173	1954.1
733.359	1962.3
733.545	1933.62
733.731	1841.47
733.917	1921.34
734.103	1974.58
734.289	2005.3
734.475	1970.49
734.661	2087.22
734.847	2048.31
735.033	1915.19
735.219	2093.37
735.404	1904.95
735.59	2019.64
735.776	1872.18
735.962	1909.05
736.148	1978.68
736.333	1907
736.519	1896.76
736.705	1874.23
736.89	1978.68
737.076	1814.84
737.262	1857.85
737.447	1915.19
737.633	1874.23
737.819	1874.23
738.004	1790.27
738.19	1802.55
738.375	1825.08
738.561	1919.29
738.747	1880.38
738.932	1702.2
739.118	1972.54
739.303	1716.54
739.489	1773.88
739.674	1765.69
739.859	1806.65
740.045	1732.92
740.23	1814.84
740.416	1728.83
740.601	1722.68
740.786	1753.4
740.972	1694.01
741.157	1749.31
741.342	1716.54
741.528	1720.64
741.713	1696.06
741.898	1691.96
742.084	1601.85
742.269	1720.64
742.454	1689.92
742.639	1677.63
742.824	1610.04
743.01	1675.58
743.195	1696.06
743.38	1642.81
743.565	1677.63
743.75	1624.38
743.935	1624.38
744.12	1564.99
744.305	1569.09
744.49	1564.99
744.675	1521.98
744.86	1581.37
745.045	1534.27
745.23	1624.38
745.415	1540.41
745.6	1487.17
745.785	1554.75
745.97	1642.81
746.155	1573.18
746.34	1569.09
746.525	1421.63
746.71	1483.07
746.895	1411.39
747.079	1458.5
747.264	1476.93
747.449	1470.78
747.634	1472.83
747.819	1501.5
748.003	1429.82
748.188	1280.32
748.373	1397.06
748.557	1440.06
748.742	1442.11
748.927	1431.87
749.111	1382.72
749.296	1403.2
749.481	1399.1
749.665	1306.95
749.85	1298.75
750.034	1286.47
750.219	1405.25
750.404	1388.86
750.588	1306.95
750.773	1347.9
750.957	1225.03
751.141	1255.75
751.326	1331.52
751.51	1216.83
751.695	1292.61
751.879	1225.03
752.064	1268.03
752.248	1241.41
752.432	1225.03
752.617	1278.27
752.801	1151.3
752.985	1294.66
753.17	1212.74
753.354	1167.68
753.538	1200.45
753.722	1139.01
753.907	1175.88
754.091	1210.69
754.275	1167.68
754.459	1014.09
754.643	1085.76
754.828	1141.06
755.012	1055.05
755.196	1028.42
755.38	1050.95
755.564	1114.44
755.748	1028.42
755.932	1081.67
756.116	1024.33
756.3	1079.62
756.484	1007.94
756.668	1065.29
756.852	1044.81
757.036	985.41
757.22	1061.19
757.404	1003.85
757.588	1030.47
757.772	1048.9
757.956	1061.19
758.14	979.27
758.323	1048.9
758.507	954.69
758.691	948.55
758.875	1016.13
759.059	966.98
759.242	1053
759.426	1003.85
759.61	971.08
759.794	909.64
759.977	973.13
760.161	985.41
760.345	962.89
760.528	954.69
760.712	928.07
760.895	969.03
761.079	938.31
761.263	938.31
761.446	786.76
761.63	842.06
761.813	887.11
761.997	799.05
762.18	936.26
762.364	872.78
762.547	807.24
762.731	899.4
762.914	907.59
763.098	799.05
763.281	827.72
763.464	848.2
763.648	807.24
763.831	889.16
764.015	776.52
764.198	770.38
764.381	833.86
764.564	835.91
764.748	799.05
764.931	915.78
765.114	813.38
765.297	794.95
765.481	778.57
765.664	854.34
765.847	768.33
766.03	809.29
766.213	827.72
766.397	813.38
766.58	788.81
766.763	815.43
766.946	743.75
767.129	657.74
767.312	684.36
767.495	760.14
767.678	680.27
767.861	741.71
768.044	774.47
768.227	758.09
768.41	717.13
768.593	768.33
768.776	719.18
768.959	749.9
769.142	745.8
769.324	741.71
769.507	766.28
769.69	710.99
769.873	692.55
770.056	770.38
770.239	735.56
770.421	700.75
770.604	741.71
770.787	745.8
770.97	743.75
771.152	651.6
771.335	643.4
771.518	651.6
771.7	710.99
771.883	727.37
772.066	631.12
772.248	721.23
772.431	721.23
772.613	684.36
772.796	536.91
772.978	710.99
773.161	768.33
773.343	618.83
773.526	627.02
773.708	563.53
773.891	504.14
774.073	684.36
774.256	676.17
774.438	684.36
774.621	651.6
774.803	600.4
774.985	616.78
775.168	643.4
775.35	614.73
775.532	622.92
775.715	530.77
775.897	604.49
776.079	631.12
776.261	602.44
776.444	659.79
776.626	549.2
776.808	643.4
776.99	602.44
777.173	536.91
777.355	543.05
777.537	571.72
777.719	534.86
777.901	618.83
778.083	596.3
778.265	557.39
778.447	553.29
778.629	510.29
778.811	575.82
778.993	561.48
779.175	485.71
779.357	549.2
779.539	545.1
779.721	581.96
779.903	498
780.085	424.27
780.267	557.39
780.449	459.09
780.631	491.85
780.812	471.37
780.994	512.33
781.176	436.56
781.358	485.71
781.54	407.89
781.721	446.8
781.903	487.76
782.085	389.46
782.267	446.8
782.448	477.52
782.63	512.33
782.812	487.76
782.993	541.01
783.175	479.57
783.357	344.4
783.538	409.94
783.72	383.31
783.901	454.99
784.083	409.94
784.264	457.04
784.446	418.13
784.627	315.73
784.809	463.18
784.99	401.74
785.172	405.84
785.353	432.46
785.535	375.12
785.716	389.46
785.897	381.26
786.079	416.08
786.26	356.69
786.441	391.5
786.623	362.83
786.804	403.79
786.985	414.03
787.167	387.41
787.348	352.59
787.529	356.69
787.71	407.89
787.891	375.12
788.073	414.03
788.254	303.44
788.435	389.46
788.616	373.07
788.797	313.68
788.978	348.5
789.159	266.58
789.34	422.22
789.522	368.98
789.703	366.93
789.884	330.06
790.065	323.92
790.246	352.59
790.427	270.67
790.607	291.15
790.788	291.15
790.969	348.5
791.15	272.72
791.331	250.19
791.512	323.92
791.693	350.54
791.874	274.77
792.054	274.77
792.235	360.78
792.416	325.97
792.597	328.02
792.778	338.26
792.958	280.91
793.139	287.06
793.32	280.91
793.5	244.05
793.681	332.11
793.862	301.39
794.042	297.3
794.223	250.19
794.404	301.39
794.584	295.25
794.765	246.1
794.945	270.67
795.126	317.78
795.306	323.92
795.487	285.01
795.667	280.91
795.848	229.71
796.028	299.34
796.209	282.96
796.389	276.82
796.57	274.77
796.75	225.62
796.93	233.81
797.111	227.67
797.291	266.58
797.471	225.62
797.652	282.96
797.832	201.04
798.012	166.23
798.192	248.15
798.373	221.52
798.553	276.82
798.733	252.24
798.913	252.24
799.093	237.91
799.274	198.99
799.454	192.85
799.634	254.29
799.814	254.29
799.994	293.2
800.174	276.82
800.354	119.12
800.534	250.19
800.714	321.87
800.894	221.52
801.074	143.7
801.254	201.04
801.434	168.27
801.614	170.32
801.794	137.56
801.974	637.26
802.154	184.66
802.334	217.43
802.514	137.56
802.693	151.89
802.873	233.81
803.053	352.59
803.233	211.28
803.413	244.05
803.592	147.8
803.772	233.81
803.952	211.28
804.131	237.91
804.311	141.65
804.491	291.15
804.67	151.89
804.85	244.05
805.03	201.04
805.209	205.14
805.389	123.22
805.568	186.71
805.748	201.04
805.928	155.99
806.107	119.12
806.287	121.17
806.466	143.7
806.646	201.04
806.825	244.05
807.004	127.32
807.184	203.09
807.363	307.54
807.543	215.38
807.722	151.89
807.901	205.14
808.081	180.56
808.26	139.6
808.439	225.62
808.619	135.51
808.798	131.41
808.977	135.51
809.156	121.17
809.336	151.89
809.515	172.37
809.694	96.6
809.873	94.55
810.052	205.14
810.231	153.94
810.411	215.38
810.59	153.94
810.769	170.32
810.948	184.66
811.127	86.36
811.306	135.51
811.485	196.95
811.664	178.51
811.843	143.7
812.022	115.03
812.201	131.41
812.38	211.28
812.559	96.6
812.737	153.94
812.916	141.65
813.095	121.17
813.274	160.08
813.453	135.51
813.632	106.84
813.811	180.56
813.989	135.51
814.168	201.04
814.347	182.61
814.526	78.16
814.704	174.42
814.883	176.47
815.062	119.12
815.24	121.17
815.419	41.3
815.598	90.45
815.776	86.36
815.955	203.09
816.133	147.8
816.312	125.27
816.49	149.84
816.669	145.75
816.847	108.88
817.026	178.51
817.204	53.59
817.383	192.85
817.561	131.41
817.74	80.21
817.918	69.97
818.097	96.6
818.275	88.4
818.453	78.16
818.632	108.88
818.81	102.74
818.988	104.79
819.167	143.7
819.345	98.64
819.523	72.02
819.701	6.49
819.879	121.17
820.058	92.5
820.236	104.79
820.414	141.65
820.592	145.75
820.77	143.7
820.948	90.45
821.127	119.12
821.305	217.43
821.483	186.71
821.661	94.55
821.839	151.89
822.017	104.79
822.195	135.51
822.373	149.84
822.551	119.12
822.729	106.84
822.907	119.12
823.085	88.4
823.262	127.32
823.44	61.78
823.618	86.36
823.796	29.01
823.974	61.78
824.152	110.93
824.329	102.74
824.507	106.84
824.685	90.45
824.863	102.74
825.04	139.6
825.218	49.49
825.396	80.21
825.574	115.03
825.751	117.08
825.929	135.51
826.107	78.16
826.284	112.98
826.462	78.16
826.639	108.88
826.817	57.68
826.994	86.36
827.172	47.44
827.349	110.93
827.527	74.07
827.704	115.03
827.882	55.64
828.059	63.83
828.237	51.54
828.414	137.56
828.591	102.74
828.769	147.8
828.946	82.26
829.124	180.56
829.301	90.45
829.478	98.64
829.655	72.02
829.833	104.79
830.01	102.74
830.187	98.64
830.364	55.64
830.542	153.94
830.719	160.08
830.896	53.59
831.073	65.88
831.25	69.97
831.427	49.49
831.604	94.55
831.782	80.21
831.959	121.17
832.136	20.82
832.313	137.56
832.49	47.44
832.667	115.03
832.844	51.54
833.021	121.17
833.198	51.54
833.374	80.21
833.551	94.55
833.728	69.97
833.905	31.06
834.082	129.36
834.259	123.22
834.436	162.13
834.612	69.97
834.789	45.4
834.966	127.32
835.143	-26.28
835.319	78.16
835.496	94.55
835.673	69.97
835.85	24.92
836.026	35.16
836.203	88.4
836.38	55.64
836.556	129.36
836.733	-13.99
836.909	74.07
837.086	55.64
837.262	100.69
837.439	127.32
837.616	24.92
837.792	94.55
837.968	112.98
838.145	10.58
838.321	78.16
838.498	82.26
838.674	72.02
838.851	82.26
839.027	90.45
839.203	127.32
839.38	104.79
839.556	12.63
839.732	104.79
839.909	72.02
840.085	160.08
840.261	88.4
840.437	-3.75
840.614	100.69
840.79	117.08
840.966	18.77
841.142	65.88
841.318	74.07
841.494	151.89
841.671	119.12
841.847	-54.95
842.023	29.01
842.199	65.88
842.375	115.03
842.551	-13.99
842.727	53.59
842.903	86.36
843.079	-11.95
843.255	37.2
843.431	51.54
843.607	78.16
843.783	-1.71
843.959	98.64
844.134	45.4
844.31	143.7
844.486	22.87
844.662	37.2
844.838	102.74
845.013	74.07
845.189	82.26
845.365	98.64
845.541	45.4
845.716	69.97
845.892	-18.09
846.068	88.4
846.244	63.83
846.419	26.96
846.595	53.59
846.77	37.2
846.946	112.98
847.122	49.49
847.297	55.64
847.473	31.06
847.648	84.31
847.824	94.55
847.999	31.06
848.175	94.55
848.35	59.73
848.526	51.54
848.701	84.31
848.876	143.7
849.052	49.49
849.227	47.44
849.403	37.2
849.578	57.68
849.753	51.54
849.929	78.16
850.104	-26.28
850.279	67.92
850.454	16.73
850.63	53.59
850.805	78.16
850.98	51.54
851.155	-13.99
851.33	123.22
851.505	-3.75
851.681	69.97
851.856	-5.8
852.031	76.12
852.206	33.11
852.381	-5.8
852.556	72.02
852.731	67.92
852.906	43.35
853.081	72.02
853.256	90.45
853.431	22.87
853.606	67.92
853.781	33.11
853.956	-9.9
854.131	55.64
854.305	45.4
854.48	8.53
854.655	37.2
854.83	41.3
855.005	78.16
855.18	29.01
855.354	-22.19
855.529	98.64
855.704	22.87
855.879	53.59
856.053	65.88
856.228	20.82
856.403	4.44
856.577	47.44
856.752	-9.9
856.926	65.88
857.101	-1.71
857.276	20.82
857.45	51.54
857.625	16.73
857.799	110.93
857.974	8.53
858.148	-1.71
858.323	80.21
858.497	143.7
858.672	-1.71
858.846	-38.57
859.02	63.83
859.195	-40.62
859.369	86.36
859.543	127.32
859.718	63.83
859.892	4.44
860.066	16.73
860.241	-3.75
860.415	59.73
860.589	31.06
860.763	86.36
860.938	37.2
861.112	4.44
861.286	53.59
861.46	-11.95
861.634	12.63
861.808	37.2
861.982	74.07
862.157	6.49
862.331	-11.95
862.505	45.4
862.679	-28.33
862.853	26.96
863.027	82.26
863.201	127.32
863.375	69.97
863.549	-24.23
863.722	8.53
863.896	151.89
864.07	24.92
864.244	115.03
864.418	53.59
864.592	104.79
864.766	106.84
864.939	135.51
865.113	49.49
865.287	18.77
865.461	18.77
865.634	4.44
865.808	-11.95
865.982	4.44
866.156	-24.23
866.329	-7.85
866.503	26.96
866.676	12.63
866.85	69.97
867.024	-36.52
867.197	14.68
867.371	112.98
867.544	0.34
867.718	43.35
867.891	41.3
868.065	10.58
868.238	86.36
868.412	39.25
868.585	51.54
868.759	20.82
868.932	-13.99
869.105	-22.19
869.279	-28.33
869.452	55.64
869.625	16.73
869.799	33.11
869.972	4.44
870.145	49.49
870.319	80.21
870.492	20.82
870.665	-24.23
870.838	115.03
871.011	12.63
871.185	45.4
871.358	33.11
871.531	65.88
871.704	29.01
871.877	37.2
872.05	35.16
872.223	0.34
872.396	31.06
872.569	29.01
872.742	6.49
872.915	-9.9
873.088	61.78
873.261	22.87
873.434	-24.23
873.607	20.82
873.78	61.78
873.953	31.06
874.126	10.58
874.299	84.31
874.471	78.16
874.644	-3.75
874.817	-1.71
874.99	22.87
875.163	20.82
875.335	-16.04
875.508	-7.85
875.681	69.97
875.853	61.78
876.026	47.44
876.199	72.02
876.371	14.68
876.544	43.35
876.717	65.88
876.889	33.11
877.062	98.64
877.234	6.49
877.407	-11.95
877.579	-52.91
877.752	39.25
877.924	16.73
878.097	92.5
878.269	31.06
878.442	8.53
878.614	-13.99
878.786	78.16
878.959	82.26
879.131	67.92
879.303	29.01
879.476	-22.19
879.648	-3.75
879.82	57.68
879.993	-1.71
880.165	72.02
880.337	-57
880.509	63.83
880.681	-30.38
880.854	121.17
881.026	69.97
881.198	96.6
881.37	20.82
881.542	59.73
881.714	100.69
881.886	16.73
882.058	-13.99
882.23	-34.47
882.402	53.59
882.574	78.16
882.746	69.97
882.918	65.88
883.09	112.98
883.262	16.73
883.434	-11.95
883.606	-13.99
883.778	29.01
883.95	61.78
884.122	-11.95
884.293	45.4
884.465	12.63
884.637	-40.62
884.809	37.2
884.98	35.16
885.152	16.73
885.324	16.73
885.496	45.4
885.667	92.5
885.839	90.45
886.011	35.16
886.182	18.77
886.354	74.07
886.525	67.92
886.697	102.74
886.869	-32.43
887.04	59.73
887.212	65.88
887.383	80.21
887.555	-20.14
887.726	117.08
887.897	-26.28
888.069	-34.47
888.24	4.44
888.412	-26.28
888.583	-24.23
888.754	69.97
888.926	6.49
889.097	-9.9
889.268	-52.91
889.44	-3.75
889.611	29.01
889.782	45.4
889.953	82.26
890.125	43.35
890.296	-61.1
890.467	-9.9
890.638	37.2
890.809	65.88
890.98	-7.85
891.151	22.87
891.323	22.87
891.494	22.87
891.665	37.2
891.836	0.34
892.007	6.49
892.178	82.26
892.349	55.64
892.52	86.36
892.691	6.49
892.862	29.01
893.032	-52.91
893.203	-44.71
893.374	33.11
893.545	33.11
893.716	-36.52
893.887	-5.8
894.057	-77.48
894.228	-18.09
894.399	39.25
894.57	37.2
894.74	37.2
894.911	12.63
895.082	-1.71
895.253	4.44
895.423	37.2
895.594	-28.33
895.764	16.73
895.935	-26.28
896.106	53.59
896.276	12.63
896.447	-32.43
896.617	12.63
896.788	-28.33
896.958	37.2
897.129	8.53
897.299	-3.75
897.47	61.78
897.64	61.78
897.81	14.68
897.981	-7.85
898.151	-9.9
898.322	-9.9
898.492	-11.95
898.662	4.44
898.832	0.34
899.003	33.11
899.173	65.88
899.343	92.5
899.513	18.77
