Data from USB4F104151__114__14-18-19-933.txt Node

Date: Thu Mar 13 14:18:19 EDT 2025
User: louis
Spectrometer: USB4F10415
Trigger mode: 4
Integration Time (sec): 2.000000E-2
Scans to average: 1
Electric dark correction enabled: true
Nonlinearity correction enabled: false
Boxcar width: 0
XAxis mode: Wavelengths
Number of Pixels in Spectrum: 3648
>>>>>Begin Spectral Data<<<<<
178.204	-56.15
178.424	-56.15
178.644	-56.15
178.864	-62.29
179.084	-105.3
179.304	-4.95
179.524	9.39
179.744	-31.57
179.964	42.15
180.184	-33.62
180.404	-31.57
180.624	36.01
180.844	25.77
181.064	-7
181.283	17.58
181.503	23.72
181.723	-45.91
181.943	-11.09
182.163	91.31
182.383	5.29
182.602	-64.34
182.822	85.16
183.042	46.25
183.262	5.29
183.482	33.96
183.701	-31.57
183.921	83.11
184.141	-21.33
184.361	9.39
184.58	3.24
184.8	50.35
185.02	54.44
185.239	44.2
185.459	64.68
185.679	50.35
185.898	-45.91
186.118	9.39
186.338	-25.43
186.557	70.83
186.777	-19.29
186.997	11.43
187.216	-7
187.436	101.55
187.655	13.48
187.875	50.35
188.095	54.44
188.314	85.16
188.534	87.21
188.753	36.01
188.973	66.73
189.192	17.58
189.412	-17.24
189.631	66.73
189.851	13.48
190.07	85.16
190.29	-7
190.509	-4.95
190.729	58.54
190.948	66.73
191.168	115.88
191.387	17.58
191.607	42.15
191.826	-23.38
192.045	48.3
192.265	91.31
192.484	33.96
192.704	36.01
192.923	-72.53
193.142	109.74
193.362	66.73
193.581	50.35
193.8	54.44
194.02	52.39
194.239	9.39
194.458	31.91
194.678	-35.67
194.897	46.25
195.116	46.25
195.335	52.39
195.555	-13.14
195.774	-7
195.993	58.54
196.212	13.48
196.432	74.92
196.651	-15.19
196.87	42.15
197.089	107.69
197.308	13.48
197.528	76.97
197.747	60.59
197.966	9.39
198.185	97.45
198.404	-35.67
198.623	42.15
198.842	107.69
199.062	29.87
199.281	19.63
199.5	-7
199.719	21.67
199.938	60.59
200.157	-66.39
200.376	17.58
200.595	76.97
200.814	60.59
201.033	27.82
201.252	17.58
201.471	21.67
201.69	13.48
201.909	29.87
202.128	58.54
202.347	5.29
202.566	72.87
202.785	13.48
203.004	7.34
203.223	33.96
203.442	42.15
203.661	1.19
203.879	52.39
204.098	74.92
204.317	50.35
204.536	66.73
204.755	23.72
204.974	91.31
205.193	38.06
205.411	156.84
205.63	19.63
205.849	56.49
206.068	-4.95
206.287	42.15
206.505	76.97
206.724	68.78
206.943	-11.09
207.162	46.25
207.381	66.73
207.599	-25.43
207.818	9.39
208.037	11.43
208.255	-21.33
208.474	44.2
208.693	44.2
208.911	-29.52
209.13	-13.14
209.349	50.35
209.567	-11.09
209.786	72.87
210.005	21.67
210.223	-7
210.442	81.07
210.661	60.59
210.879	103.59
211.098	-13.14
211.316	36.01
211.535	117.93
211.753	3.24
211.972	46.25
212.191	33.96
212.409	9.39
212.628	25.77
212.846	42.15
213.065	95.4
213.283	-9.05
213.502	-0.85
213.72	44.2
213.938	52.39
214.157	117.93
214.375	21.67
214.594	-9.05
214.812	74.92
215.031	74.92
215.249	74.92
215.467	42.15
215.686	93.35
215.904	93.35
216.122	48.3
216.341	93.35
216.559	85.16
216.778	99.5
216.996	11.43
217.214	-7
217.432	7.34
217.651	11.43
217.869	60.59
218.087	9.39
218.306	31.91
218.524	56.49
218.742	33.96
218.96	60.59
219.179	-47.96
219.397	91.31
219.615	74.92
219.833	38.06
220.051	1.19
220.27	64.68
220.488	68.78
220.706	42.15
220.924	27.82
221.142	27.82
221.36	25.77
221.578	-0.85
221.796	-9.05
222.015	13.48
222.233	91.31
222.451	93.35
222.669	74.92
222.887	-2.9
223.105	9.39
223.323	5.29
223.541	-45.91
223.759	25.77
223.977	3.24
224.195	76.97
224.413	25.77
224.631	29.87
224.849	81.07
225.067	74.92
225.285	19.63
225.503	-7
225.721	-15.19
225.939	17.58
226.157	70.83
226.375	124.07
226.592	3.24
226.81	87.21
227.028	33.96
227.246	27.82
227.464	38.06
227.682	91.31
227.9	91.31
228.117	74.92
228.335	13.48
228.553	36.01
228.771	76.97
228.989	103.59
229.206	17.58
229.424	25.77
229.642	17.58
229.86	17.58
230.077	46.25
230.295	50.35
230.513	60.59
230.731	68.78
230.948	91.31
231.166	136.36
231.384	25.77
231.601	64.68
231.819	25.77
232.037	111.78
232.254	17.58
232.472	25.77
232.689	48.3
232.907	46.25
233.125	-4.95
233.342	5.29
233.56	-15.19
233.777	17.58
233.995	9.39
234.213	36.01
234.43	25.77
234.648	70.83
234.865	48.3
235.083	66.73
235.3	17.58
235.518	27.82
235.735	52.39
235.953	36.01
236.17	42.15
236.388	-35.67
236.605	23.72
236.822	21.67
237.04	107.69
237.257	11.43
237.475	33.96
237.692	42.15
237.909	64.68
238.127	60.59
238.344	25.77
238.562	83.11
238.779	-23.38
238.996	38.06
239.214	50.35
239.431	122.02
239.648	50.35
239.865	124.07
240.083	46.25
240.3	-35.67
240.517	-21.33
240.735	52.39
240.952	42.15
241.169	83.11
241.386	-0.85
241.603	19.63
241.821	-23.38
242.038	50.35
242.255	15.53
242.472	58.54
242.689	17.58
242.907	130.22
243.124	27.82
243.341	-7
243.558	9.39
243.775	33.96
243.992	62.63
244.209	111.78
244.426	171.18
244.643	-11.09
244.86	50.35
245.078	68.78
245.295	134.31
245.512	56.49
245.729	-2.9
245.946	124.07
246.163	15.53
246.38	38.06
246.597	40.11
246.814	17.58
247.031	-25.43
247.248	25.77
247.464	-4.95
247.681	-25.43
247.898	3.24
248.115	58.54
248.332	-13.14
248.549	3.24
248.766	107.69
248.983	103.59
249.2	27.82
249.417	93.35
249.633	-33.62
249.85	-31.57
250.067	38.06
250.284	25.77
250.501	79.02
250.717	40.11
250.934	99.5
251.151	-23.38
251.368	9.39
251.585	54.44
251.801	-9.05
252.018	-31.57
252.235	-56.15
252.451	44.2
252.668	-43.86
252.885	107.69
253.102	83.11
253.318	19.63
253.535	-27.48
253.752	79.02
253.968	21.67
254.185	42.15
254.401	50.35
254.618	27.82
254.835	60.59
255.051	52.39
255.268	33.96
255.484	60.59
255.701	40.11
255.917	-4.95
256.134	11.43
256.351	52.39
256.567	-9.05
256.784	93.35
257	9.39
257.217	-23.38
257.433	74.92
257.65	91.31
257.866	38.06
258.082	13.48
258.299	36.01
258.515	74.92
258.732	126.12
258.948	15.53
259.165	17.58
259.381	-21.33
259.597	50.35
259.814	-11.09
260.03	36.01
260.246	-0.85
260.463	109.74
260.679	3.24
260.895	50.35
261.112	11.43
261.328	-4.95
261.544	1.19
261.761	62.63
261.977	38.06
262.193	-41.81
262.409	27.82
262.626	48.3
262.842	17.58
263.058	17.58
263.274	142.5
263.49	74.92
263.707	76.97
263.923	25.77
264.139	50.35
264.355	-25.43
264.571	52.39
264.787	1.19
265.004	-37.72
265.22	-2.9
265.436	-19.29
265.652	25.77
265.868	15.53
266.084	25.77
266.3	124.07
266.516	-13.14
266.732	33.96
266.948	83.11
267.164	17.58
267.38	87.21
267.596	36.01
267.812	83.11
268.028	74.92
268.244	17.58
268.46	25.77
268.676	9.39
268.892	83.11
269.108	58.54
269.324	17.58
269.54	74.92
269.756	36.01
269.972	-62.29
270.188	29.87
270.403	9.39
270.619	74.92
270.835	15.53
271.051	44.2
271.267	40.11
271.483	15.53
271.698	52.39
271.914	27.82
272.13	66.73
272.346	23.72
272.562	128.17
272.777	7.34
272.993	-21.33
273.209	7.34
273.425	52.39
273.64	-29.52
273.856	42.15
274.072	-4.95
274.287	-31.57
274.503	33.96
274.719	70.83
274.934	36.01
275.15	-43.86
275.366	-23.38
275.581	25.77
275.797	62.63
276.012	38.06
276.228	50.35
276.444	58.54
276.659	17.58
276.875	101.55
277.09	54.44
277.306	70.83
277.521	21.67
277.737	3.24
277.952	66.73
278.168	-15.19
278.383	52.39
278.599	54.44
278.814	52.39
279.03	11.43
279.245	93.35
279.461	74.92
279.676	25.77
279.892	27.82
280.107	50.35
280.322	74.92
280.538	-2.9
280.753	5.29
280.969	3.24
281.184	44.2
281.399	21.67
281.615	13.48
281.83	52.39
282.045	-13.14
282.26	3.24
282.476	48.3
282.691	19.63
282.906	54.44
283.122	-19.29
283.337	-7
283.552	68.78
283.767	25.77
283.983	91.31
284.198	15.53
284.413	74.92
284.628	1.19
284.843	101.55
285.058	52.39
285.274	1.19
285.489	44.2
285.704	93.35
285.919	52.39
286.134	48.3
286.349	9.39
286.564	9.39
286.779	124.07
286.995	-37.72
287.21	36.01
287.425	33.96
287.64	46.25
287.855	68.78
288.07	-2.9
288.285	21.67
288.5	9.39
288.715	58.54
288.93	83.11
289.145	-39.76
289.36	70.83
289.575	83.11
289.79	66.73
290.004	79.02
290.219	132.26
290.434	17.58
290.649	1.19
290.864	95.4
291.079	109.74
291.294	36.01
291.509	33.96
291.724	99.5
291.938	11.43
292.153	66.73
292.368	46.25
292.583	36.01
292.798	117.93
293.012	103.59
293.227	25.77
293.442	54.44
293.657	13.48
293.871	-7
294.086	31.91
294.301	99.5
294.516	36.01
294.73	9.39
294.945	62.63
295.16	-52.05
295.374	66.73
295.589	60.59
295.804	52.39
296.018	25.77
296.233	25.77
296.447	50.35
296.662	13.48
296.877	74.92
297.091	17.58
297.306	76.97
297.52	17.58
297.735	50.35
297.949	95.4
298.164	31.91
298.378	79.02
298.593	9.39
298.807	44.2
299.022	72.87
299.236	91.31
299.451	81.07
299.665	29.87
299.88	52.39
300.094	29.87
300.309	72.87
300.523	85.16
300.737	-7
300.952	115.88
301.166	54.44
301.381	64.68
301.595	3.24
301.809	46.25
302.024	19.63
302.238	-2.9
302.452	115.88
302.667	-33.62
302.881	27.82
303.095	99.5
303.309	52.39
303.524	29.87
303.738	68.78
303.952	85.16
304.166	109.74
304.381	-15.19
304.595	70.83
304.809	40.11
305.023	44.2
305.237	60.59
305.452	107.69
305.666	1.19
305.88	17.58
306.094	62.63
306.308	72.87
306.522	79.02
306.736	70.83
306.95	44.2
307.164	27.82
307.379	58.54
307.593	119.98
307.807	81.07
308.021	13.48
308.235	13.48
308.449	-0.85
308.663	-62.29
308.877	126.12
309.091	44.2
309.305	93.35
309.519	-23.38
309.733	103.59
309.947	52.39
310.161	46.25
310.374	54.44
310.588	101.55
310.802	25.77
311.016	66.73
311.23	117.93
311.444	85.16
311.658	-4.95
311.872	5.29
312.085	36.01
312.299	79.02
312.513	113.83
312.727	-2.9
312.941	54.44
313.154	117.93
313.368	36.01
313.582	99.5
313.796	54.44
314.009	19.63
314.223	9.39
314.437	91.31
314.651	19.63
314.864	48.3
315.078	42.15
315.292	42.15
315.505	21.67
315.719	117.93
315.933	60.59
316.146	68.78
316.36	33.96
316.573	95.4
316.787	42.15
317.001	33.96
317.214	17.58
317.428	62.63
317.641	42.15
317.855	13.48
318.068	15.53
318.282	85.16
318.495	103.59
318.709	58.54
318.922	85.16
319.136	54.44
319.349	52.39
319.563	74.92
319.776	83.11
319.99	36.01
320.203	83.11
320.417	79.02
320.63	87.21
320.843	58.54
321.057	83.11
321.27	15.53
321.483	68.78
321.697	-15.19
321.91	83.11
322.124	107.69
322.337	91.31
322.55	1.19
322.763	13.48
322.977	42.15
323.19	13.48
323.403	68.78
323.617	124.07
323.83	142.5
324.043	38.06
324.256	93.35
324.469	38.06
324.683	117.93
324.896	29.87
325.109	83.11
325.322	64.68
325.535	107.69
325.748	91.31
325.962	58.54
326.175	42.15
326.388	17.58
326.601	85.16
326.814	101.55
327.027	58.54
327.24	85.16
327.453	-2.9
327.666	9.39
327.879	107.69
328.092	107.69
328.305	40.11
328.518	91.31
328.731	15.53
328.944	87.21
329.157	36.01
329.37	-29.52
329.583	68.78
329.796	81.07
330.009	105.64
330.222	93.35
330.435	62.63
330.648	91.31
330.861	76.97
331.073	99.5
331.286	107.69
331.499	52.39
331.712	-4.95
331.925	89.26
332.138	27.82
332.35	40.11
332.563	23.72
332.776	99.5
332.989	31.91
333.202	1.19
333.414	74.92
333.627	140.46
333.84	21.67
334.053	68.78
334.265	50.35
334.478	29.87
334.691	-7
334.903	60.59
335.116	-0.85
335.329	27.82
335.541	44.2
335.754	115.88
335.966	38.06
336.179	44.2
336.392	-11.09
336.604	91.31
336.817	54.44
337.029	9.39
337.242	52.39
337.454	60.59
337.667	74.92
337.88	107.69
338.092	128.17
338.305	46.25
338.517	17.58
338.729	117.93
338.942	48.3
339.154	33.96
339.367	-27.48
339.579	-4.95
339.792	5.29
340.004	89.26
340.217	13.48
340.429	91.31
340.641	25.77
340.854	33.96
341.066	33.96
341.278	68.78
341.491	58.54
341.703	46.25
341.915	48.3
342.128	13.48
342.34	15.53
342.552	25.77
342.764	15.53
342.977	89.26
343.189	-19.29
343.401	66.73
343.613	-11.09
343.826	58.54
344.038	42.15
344.25	97.45
344.462	50.35
344.674	58.54
344.886	93.35
345.099	58.54
345.311	76.97
345.523	19.63
345.735	93.35
345.947	66.73
346.159	85.16
346.371	150.7
346.583	23.72
346.795	146.6
347.007	-2.9
347.219	101.55
347.431	99.5
347.643	19.63
347.855	56.49
348.067	46.25
348.279	109.74
348.491	128.17
348.703	83.11
348.915	-2.9
349.127	74.92
349.339	66.73
349.551	33.96
349.763	93.35
349.975	40.11
350.187	60.59
350.399	66.73
350.61	33.96
350.822	33.96
351.034	144.55
351.246	85.16
351.458	46.25
351.669	52.39
351.881	85.16
352.093	44.2
352.305	95.4
352.517	44.2
352.728	109.74
352.94	58.54
353.152	-21.33
353.363	25.77
353.575	103.59
353.787	119.98
353.999	103.59
354.21	93.35
354.422	19.63
354.633	40.11
354.845	142.5
355.057	-13.14
355.268	21.67
355.48	76.97
355.692	56.49
355.903	48.3
356.115	93.35
356.326	44.2
356.538	46.25
356.749	-25.43
356.961	70.83
357.172	50.35
357.384	1.19
357.595	101.55
357.807	36.01
358.018	44.2
358.23	1.19
358.441	83.11
358.653	58.54
358.864	101.55
359.075	76.97
359.287	9.39
359.498	91.31
359.709	85.16
359.921	70.83
360.132	74.92
360.344	25.77
360.555	74.92
360.766	76.97
360.977	132.26
361.189	142.5
361.4	19.63
361.611	23.72
361.823	83.11
362.034	85.16
362.245	-7
362.456	36.01
362.667	74.92
362.879	62.63
363.09	21.67
363.301	99.5
363.512	97.45
363.723	62.63
363.935	54.44
364.146	46.25
364.357	105.64
364.568	68.78
364.779	89.26
364.99	79.02
365.201	46.25
365.412	91.31
365.623	9.39
365.834	68.78
366.045	87.21
366.256	56.49
366.467	52.39
366.678	66.73
366.889	74.92
367.1	115.88
367.311	33.96
367.522	83.11
367.733	93.35
367.944	44.2
368.155	19.63
368.366	160.94
368.577	103.59
368.788	38.06
368.999	36.01
369.209	52.39
369.42	107.69
369.631	79.02
369.842	91.31
370.053	42.15
370.264	117.93
370.474	109.74
370.685	42.15
370.896	130.22
371.107	122.02
371.317	74.92
371.528	25.77
371.739	126.12
371.95	29.87
372.16	-15.19
372.371	33.96
372.582	25.77
372.792	109.74
373.003	72.87
373.214	23.72
373.424	101.55
373.635	83.11
373.846	142.5
374.056	103.59
374.267	74.92
374.477	33.96
374.688	58.54
374.898	50.35
375.109	46.25
375.319	115.88
375.53	109.74
375.74	62.63
375.951	81.07
376.161	38.06
376.372	109.74
376.582	70.83
376.793	19.63
377.003	17.58
377.214	81.07
377.424	50.35
377.635	50.35
377.845	76.97
378.055	134.31
378.266	95.4
378.476	115.88
378.686	64.68
378.897	165.03
379.107	33.96
379.317	107.69
379.528	33.96
379.738	136.36
379.948	33.96
380.158	27.82
380.369	119.98
380.579	107.69
380.789	60.59
380.999	119.98
381.21	66.73
381.42	85.16
381.63	134.31
381.84	128.17
382.05	79.02
382.261	93.35
382.471	74.92
382.681	50.35
382.891	83.11
383.101	171.18
383.311	58.54
383.521	58.54
383.731	83.11
383.941	111.78
384.151	99.5
384.361	68.78
384.571	107.69
384.781	52.39
384.991	74.92
385.201	124.07
385.411	93.35
385.621	97.45
385.831	79.02
386.041	50.35
386.251	136.36
386.461	68.78
386.671	5.29
386.881	36.01
387.091	25.77
387.301	99.5
387.511	21.67
387.72	21.67
387.93	144.55
388.14	66.73
388.35	52.39
388.56	81.07
388.769	99.5
388.979	38.06
389.189	83.11
389.399	74.92
389.609	70.83
389.818	111.78
390.028	177.32
390.238	115.88
390.447	52.39
390.657	36.01
390.867	66.73
391.076	44.2
391.286	107.69
391.496	173.22
391.705	54.44
391.915	148.65
392.125	160.94
392.334	42.15
392.544	99.5
392.753	111.78
392.963	95.4
393.172	99.5
393.382	95.4
393.591	156.84
393.801	68.78
394.01	66.73
394.22	156.84
394.429	19.63
394.639	60.59
394.848	152.74
395.058	140.46
395.267	107.69
395.477	142.5
395.686	132.26
395.895	189.61
396.105	160.94
396.314	95.4
396.524	72.87
396.733	128.17
396.942	124.07
397.152	199.85
397.361	124.07
397.57	99.5
397.78	132.26
397.989	158.89
398.198	117.93
398.407	124.07
398.617	66.73
398.826	158.89
399.035	242.85
399.244	183.46
399.453	66.73
399.663	132.26
399.872	222.38
400.081	142.5
400.29	115.88
400.499	74.92
400.708	189.61
400.917	175.27
401.127	181.42
401.336	173.22
401.545	169.13
401.754	234.66
401.963	167.08
402.172	191.66
402.381	142.5
402.59	189.61
402.799	160.94
403.008	201.9
403.217	167.08
403.426	189.61
403.635	189.61
403.844	95.4
404.053	267.43
404.262	140.46
404.471	234.66
404.68	234.66
404.888	230.57
405.097	177.32
405.306	244.9
405.515	230.57
405.724	185.51
405.933	224.42
406.142	261.29
406.35	240.81
406.559	179.37
406.768	267.43
406.977	361.64
407.185	339.11
407.394	275.62
407.603	339.11
407.812	304.29
408.02	353.45
408.229	382.12
408.438	353.45
408.646	351.4
408.855	371.88
409.064	382.12
409.272	345.25
409.481	382.12
409.69	404.64
409.898	435.36
410.107	443.56
410.315	574.63
410.524	447.65
410.733	498.85
410.941	591.01
411.15	550.05
411.358	447.65
411.567	666.78
411.775	523.43
411.984	543.91
412.192	533.67
412.401	574.63
412.609	722.08
412.818	617.63
413.026	711.84
413.234	717.98
413.443	726.18
413.651	734.37
413.86	709.79
414.068	904.35
414.276	861.34
414.485	775.33
414.693	816.29
414.901	976.03
415.11	967.84
415.318	963.74
415.526	959.64
415.734	1078.43
415.943	1094.81
416.151	1199.26
416.359	1180.82
416.567	1123.48
416.776	1154.2
416.984	1289.37
417.192	1328.28
417.4	1354.9
417.608	1402.01
417.817	1512.6
418.025	1490.07
418.233	1680.53
418.441	1535.12
418.649	1684.62
418.857	1696.91
419.065	1811.6
419.273	1795.22
419.481	1778.83
419.689	1983.63
419.897	1965.2
420.105	2108.55
420.313	2217.1
420.521	2024.59
420.729	2391.17
420.937	2356.36
421.145	2368.65
421.353	2538.63
421.561	2704.51
421.769	2655.36
421.977	2794.62
422.185	2786.43
422.393	2925.69
422.601	3085.44
422.809	3064.96
423.017	3265.66
423.224	3253.37
423.432	3398.77
423.64	3544.18
423.848	3703.92
424.056	3679.35
424.263	3968.11
424.471	3875.95
424.679	3951.73
424.887	4267.11
425.094	4349.03
425.302	4306.02
425.51	4449.38
425.718	4711.52
425.925	4670.56
426.133	4785.25
426.341	5291.1
426.548	5479.51
426.756	5428.31
426.964	5469.27
427.171	5776.47
427.379	5930.06
427.586	6011.98
427.794	6112.33
428.001	6308.94
428.209	6710.34
428.417	6679.62
428.624	7195.71
428.832	6943.81
429.039	7042.11
429.247	7048.26
429.454	7625.78
429.662	8324.14
429.869	7664.69
430.076	8289.32
430.284	8045.62
430.491	8320.04
430.699	8840.23
430.906	8746.02
431.114	9135.14
431.321	9335.84
431.528	9569.3
431.736	10138.64
431.943	10585.1
432.15	10101.78
432.358	10155.02
432.565	10990.59
432.772	10961.92
432.979	11359.23
433.187	11781.11
433.394	11748.34
433.601	12502
433.808	12465.13
434.016	12483.56
434.223	12915.69
434.43	13487.07
434.637	13366.24
434.844	14332.88
435.052	14556.11
435.259	14203.86
435.466	14547.92
435.673	14318.54
435.88	15332.29
436.087	16139.19
436.294	15985.59
436.501	15905.72
436.708	16094.13
436.915	16567.21
437.122	17298.34
437.329	17218.47
437.537	17892.25
437.743	18219.92
437.95	17978.26
438.157	19047.3
438.364	19630.98
438.571	19338.12
438.778	19735.42
438.985	21332.84
439.192	20534.13
439.399	21187.43
439.606	20401.01
439.813	22127.45
440.02	23380.81
440.227	22782.8
440.433	22444.88
440.64	23427.91
440.847	23300.94
441.054	23747.39
441.261	25088.81
441.467	24828.72
441.674	25580.32
441.881	26225.43
442.088	26399.51
442.294	26034.97
442.501	26739.47
442.708	27456.26
442.914	28097.28
443.121	29360.87
443.328	28730.1
443.534	30733.01
443.741	29283.05
443.948	29504.23
444.154	31984.32
444.361	31451.85
444.568	31435.47
444.774	31611.59
444.981	31969.99
445.187	32793.27
445.394	34112.16
445.6	33778.34
445.807	36946.55
446.013	34976.4
446.22	36049.54
446.426	37132.92
446.633	37589.61
446.839	39414.35
447.046	37184.12
447.252	39436.88
447.459	39699.02
447.665	39017.05
447.871	40669.76
448.078	42246.69
448.284	40452.67
448.491	41873.96
448.697	43139.61
448.903	43964.94
449.11	44222.98
449.316	43522.58
449.522	44358.15
449.728	45351.41
449.935	45804.02
450.141	45496.82
450.347	46438.89
450.553	45076.99
450.76	45836.78
450.966	47385.05
451.172	46639.59
451.378	48251.34
451.584	47237.59
451.791	48005.58
451.997	47686.1
452.203	48435.66
452.409	48755.14
452.615	48601.54
452.821	46866.91
453.027	45984.24
453.233	48744.9
453.44	46522.85
453.646	47223.26
453.852	47475.16
454.058	48630.21
454.264	46823.9
454.47	48132.56
454.676	46821.86
454.882	48280.01
455.088	43962.89
455.294	44708.35
455.5	45357.56
455.705	45638.13
455.911	44425.73
456.117	43471.38
456.323	43295.25
456.529	40321.6
456.735	42525.22
456.941	40811.07
457.147	40555.07
457.352	39252.56
457.558	38910.55
457.764	39246.42
457.97	38738.52
458.176	37462.64
458.381	37192.31
458.587	35914.37
458.793	35967.62
458.999	34192.03
459.204	36416.13
459.41	35330.7
459.616	32850.61
459.821	33168.05
460.027	33088.18
460.233	32508.6
460.438	30884.56
460.644	31343.31
460.85	29858.53
461.055	29309.68
461.261	29201.13
461.466	27155.21
461.672	25971.49
461.878	28001.02
462.083	26559.25
462.289	25535.27
462.494	25477.93
462.7	24400.69
462.905	24030.01
463.111	24920.88
463.316	24519.48
463.522	24099.64
463.727	24154.94
463.932	24187.71
464.138	23860.03
464.343	23892.8
464.549	23317.32
464.754	24040.25
464.959	23917.37
465.165	23444.29
465.37	22649.68
465.575	22313.81
465.781	22987.6
465.986	22915.92
466.191	22006.62
466.397	21656.42
466.602	20892.52
466.807	21371.75
467.012	21437.28
467.218	21209.96
467.423	21212.01
467.628	21312.36
467.833	22143.83
468.038	21220.2
468.244	20867.95
468.449	21572.45
468.654	20644.72
468.859	20505.46
469.064	20542.32
469.269	19862.4
469.474	19991.42
469.679	20345.72
469.885	19602.3
470.09	20292.47
470.295	19897.21
470.5	19155.85
470.705	19669.89
470.91	18875.27
471.115	18905.99
471.32	19497.86
471.525	19020.68
471.73	18467.73
471.935	18754.44
472.139	17976.22
472.344	18049.94
472.549	17910.68
472.754	17902.49
472.959	17439.65
473.164	17081.25
473.369	16919.46
473.574	17482.66
473.778	17169.32
473.983	17130.41
474.188	17427.36
474.393	15958.97
474.598	16331.7
474.802	16391.09
475.007	15754.17
475.212	16190.39
475.417	15483.84
475.621	15383.49
475.826	15553.47
476.031	15315.9
476.235	14814.15
476.44	15201.22
476.645	14889.93
476.849	15051.72
477.054	14898.12
477.259	14494.67
477.463	14377.94
477.668	14271.44
477.872	14500.81
478.077	14023.64
478.282	13775.83
478.486	13648.86
478.691	13611.99
478.895	13552.6
479.1	13679.58
479.304	13478.88
479.509	13097.95
479.713	13255.65
479.918	13083.62
480.122	12946.41
480.326	13243.36
480.531	13140.96
480.735	13026.28
480.94	12714.98
481.144	13208.55
481.348	12465.13
481.553	12413.93
481.757	12487.66
481.961	12499.95
482.166	12671.98
482.37	12411.89
482.574	12489.71
482.778	12530.67
482.983	12745.7
483.187	12588.01
483.391	12452.84
483.595	12379.12
483.8	12362.73
484.004	12428.27
484.208	12655.59
484.412	12370.93
484.616	12413.93
484.821	12375.02
485.025	12217.33
485.229	12504.04
485.433	12354.54
485.637	12469.23
485.841	12143.6
486.045	12438.51
486.249	12307.44
486.453	12125.17
486.657	12188.66
486.861	12542.96
487.065	12186.61
487.269	12282.86
487.473	12143.6
487.677	12639.21
487.881	12442.6
488.085	12325.87
488.289	12565.48
488.493	12450.8
488.697	12461.04
488.901	12602.35
489.105	12516.33
489.309	12520.43
489.512	12616.68
489.716	12633.07
489.92	12571.63
490.124	12479.47
490.328	12907.49
490.531	12780.52
490.735	12723.18
490.939	12895.21
491.143	12667.88
491.346	12674.03
491.55	12968.93
491.754	12993.51
491.958	13042.66
492.161	12940.26
492.365	12999.65
492.569	13206.5
492.772	12903.4
492.976	13290.46
493.18	13134.82
493.383	13321.18
493.587	13474.78
493.79	13556.7
493.994	13755.35
494.197	13564.89
494.401	13702.11
494.605	13624.28
494.808	13710.3
495.012	13958.1
495.215	14138.32
495.419	14347.22
495.622	14062.55
495.825	14345.17
496.029	14162.9
496.232	14525.39
496.436	14517.2
496.639	15021
496.843	14750.67
497.046	15346.62
497.249	15438.78
497.453	15190.98
497.656	15608.76
497.859	15557.57
498.063	15848.38
498.266	15836.09
498.469	15819.71
498.673	16137.14
498.876	16202.68
499.079	16399.28
499.282	16300.98
499.485	16837.55
499.689	16767.91
499.892	17185.7
500.095	17122.21
500.298	17478.56
500.501	17511.33
500.705	17933.21
500.908	18113.43
501.111	18230.16
501.314	18348.95
501.517	18703.25
501.72	18981.77
501.923	18666.38
502.126	19426.18
502.329	19557.25
502.532	19659.65
502.735	19733.37
502.938	19854.2
503.141	20321.14
503.344	20597.62
503.547	20167.54
503.75	20917.1
503.953	21013.35
504.156	21234.53
504.359	21594.98
504.562	21425
504.765	22158.17
504.968	22281.05
505.17	22301.53
505.373	22721.36
505.576	22973.26
505.779	23083.85
505.982	23356.23
506.185	23898.94
506.387	24056.64
506.59	23806.78
506.793	24318.78
506.996	24331.06
507.198	25031.47
507.401	24845.1
507.604	25449.25
507.807	25772.83
508.009	25903.9
508.212	26034.97
508.415	26518.29
508.617	26675.99
508.82	26706.71
509.022	26714.9
509.225	27333.39
509.428	27601.67
509.63	27818.75
509.833	27640.58
510.035	28300.03
510.238	28396.28
510.44	28855.03
510.643	29219.56
510.845	29651.69
511.048	29367.02
511.25	30032.61
511.453	29993.7
511.655	31070.93
511.858	30546.65
512.06	30968.53
512.262	30743.25
512.465	31173.33
512.667	31849.16
512.87	32084.67
513.072	32133.82
513.274	32721.59
513.477	33041.07
513.679	33211.06
513.881	33608.36
514.084	33733.29
514.286	33813.16
514.488	34177.7
514.69	34847.38
514.893	35177.11
515.095	35322.51
515.297	35609.23
515.499	35617.42
515.701	35955.33
515.904	36575.87
516.106	36678.27
516.308	36878.97
516.51	37380.72
516.712	37655.15
516.914	38109.8
517.116	38373.99
517.318	38531.68
517.52	38822.49
517.722	38914.65
517.925	39037.53
518.127	39748.17
518.329	39891.53
518.531	40000.07
518.733	40749.63
518.935	40964.67
519.136	40968.76
519.338	41556.53
519.54	41624.11
519.742	41792.04
519.944	42568.23
520.146	43207.19
520.348	43029.02
520.55	43293.21
520.752	43293.21
520.954	44204.55
521.155	43784.72
521.357	44249.61
521.559	44368.39
521.761	45349.37
521.963	45019.64
522.164	45576.69
522.366	45576.69
522.568	45646.32
522.77	46119.4
522.971	46823.9
523.173	46651.87
523.375	46985.69
523.576	46803.42
523.778	47104.48
523.98	47708.63
524.181	48079.31
524.383	47845.84
524.584	48415.18
524.786	48413.13
524.988	48462.28
525.189	48988.61
525.391	49490.36
525.592	49215.93
525.794	49535.41
525.995	49678.77
526.197	49621.43
526.398	49902
526.6	50092.46
526.801	50287.02
527.003	50756
527.204	50495.91
527.406	50739.62
527.607	50901.41
527.808	51284.38
528.01	50608.55
528.211	51071.39
528.412	51982.74
528.614	51714.45
528.815	51548.57
529.016	52179.34
529.218	51452.31
529.419	52337.04
529.62	52421
529.822	52173.2
530.023	52177.29
530.224	52337.04
530.425	52343.18
530.626	52031.89
530.828	51786.13
531.029	52945.28
531.23	52191.63
531.431	52414.86
531.632	52728.2
531.833	52865.41
532.035	52369.8
532.236	52828.55
532.437	53080.45
532.638	52783.49
532.839	52875.65
533.04	53318.01
533.241	52312.46
533.442	53836.15
533.643	52984.19
533.844	53068.16
534.045	53426.56
534.246	52996.48
534.447	53346.68
534.648	52877.7
534.849	53420.41
535.05	53055.87
535.251	53227.9
535.451	53213.57
535.652	53307.77
535.853	52824.45
536.054	53299.58
536.255	53078.4
536.456	53006.72
536.657	53920.12
536.857	53250.43
537.058	53207.42
537.259	53137.79
537.46	53526.91
537.66	52898.18
537.861	53320.06
538.062	53129.6
538.263	53557.63
538.463	53350.78
538.664	53193.09
538.865	53332.35
539.065	53883.25
539.266	52943.23
539.466	53696.89
539.667	52867.46
539.868	53414.27
540.068	53299.58
540.269	53234.05
540.469	53393.79
540.67	52949.38
540.87	53397.88
541.071	53033.35
541.271	53434.75
541.472	53172.61
541.672	52580.74
541.873	52849.03
542.073	52232.59
542.274	53264.77
542.474	53170.56
542.675	52656.52
542.875	53105.02
543.075	52846.98
543.276	52455.82
543.476	53547.39
543.676	52576.65
543.877	53010.82
544.077	53064.06
544.277	53041.54
544.478	52691.33
544.678	53055.87
544.878	52914.56
545.078	52744.58
545.279	52687.24
545.479	52502.92
545.679	52564.36
545.879	52679.05
546.079	52394.38
546.28	52631.94
546.48	51767.7
546.68	52613.51
546.88	52965.76
547.08	52664.71
547.28	52500.87
547.48	52287.88
547.68	52898.18
547.88	52099.47
548.081	52793.73
548.281	52498.83
548.481	52435.34
548.681	53107.07
548.881	52470.15
549.081	52527.5
549.28	52050.32
549.48	52867.46
549.68	52113.81
549.88	53186.94
550.08	52091.28
550.28	52648.33
550.48	52341.13
550.68	52832.64
550.88	52189.58
551.08	52165.01
551.279	52068.75
551.479	51802.52
551.679	52744.58
551.879	52089.23
552.079	52480.39
552.278	51995.03
552.478	52029.84
552.678	52470.15
552.878	52361.61
553.077	51933.59
553.277	51458.46
553.477	52648.33
553.676	51812.76
553.876	52183.44
554.076	51601.82
554.275	51626.39
554.475	51165.6
554.674	52267.41
554.874	51857.81
555.074	51845.52
555.273	51870.1
555.473	52185.49
555.672	51593.62
555.872	51390.87
556.071	51394.97
556.271	52298.12
556.47	50911.65
556.67	51136.93
556.869	51696.02
557.068	51341.72
557.268	51112.35
557.467	51612.06
557.667	51216.8
557.866	51247.52
558.065	51284.38
558.265	51106.21
558.464	51046.82
558.663	51145.12
558.863	50833.83
559.062	51640.73
559.261	50616.74
559.461	51075.49
559.66	50555.3
559.859	50786.72
560.058	50747.81
560.258	50704.8
560.457	50475.43
560.656	50854.31
560.855	50567.59
561.054	50346.41
561.253	49668.53
561.453	50227.63
561.652	50420.14
561.851	50457
562.05	50135.47
562.249	49815.99
562.448	50467.24
562.647	50100.65
562.846	49789.36
563.045	49822.13
563.244	49191.36
563.443	50119.09
563.642	48976.32
563.841	49809.84
564.04	49275.32
564.239	49836.47
564.438	49107.39
564.637	49222.08
564.836	49402.3
565.035	48716.23
565.234	49541.56
565.432	49070.53
565.631	48538.05
565.83	49015.23
566.029	48908.74
566.228	48445.9
566.427	48787.91
566.625	48327.11
566.824	48200.14
567.023	48589.25
567.222	47841.74
567.42	48486.85
567.619	48333.26
567.818	47780.31
568.016	47712.72
568.215	48191.95
568.414	47526.36
568.612	48449.99
568.811	47739.35
569.01	47751.63
569.208	47329.75
569.407	47679.96
569.605	47231.45
569.804	47516.12
570.002	46954.97
570.201	47182.3
570.4	46805.47
570.598	46516.71
570.797	46623.2
570.995	46731.75
571.193	46092.78
571.392	46741.99
571.59	45924.85
571.789	46221.8
571.987	46117.35
572.186	46070.25
572.384	45672.95
572.582	45914.61
572.781	45928.94
572.979	45451.77
573.177	45439.48
573.376	45470.2
573.574	45322.74
573.772	45627.89
573.971	45509.11
574.169	45273.59
574.367	44640.77
574.565	45169.15
574.763	44685.82
574.962	44915.2
575.16	44853.76
575.358	44829.18
575.556	44257.8
575.754	45042.17
575.952	44079.63
576.151	44415.49
576.349	43819.53
576.547	44059.15
576.745	43768.33
576.943	44147.21
577.141	44053
577.339	43545.11
577.537	43420.18
577.735	43708.94
577.933	42967.58
578.131	43465.24
578.329	42897.95
578.527	42641.95
578.725	42740.25
578.923	42900
579.121	42766.88
579.319	42844.7
579.516	42752.54
579.714	42684.96
579.912	42246.69
580.11	42484.26
580.308	42490.4
580.506	42160.68
580.704	41753.13
580.901	42025.51
581.099	42160.68
581.297	41435.7
581.495	41570.86
581.692	41755.18
581.89	41474.61
582.088	41490.99
582.285	41202.23
582.483	41724.46
582.681	40966.71
582.878	41062.97
583.076	40362.56
583.274	41189.94
583.471	40636.99
583.669	40757.82
583.866	40645.18
584.064	40485.44
584.262	39971.4
584.459	40505.92
584.657	40337.99
584.854	40129.09
585.052	39606.86
585.249	40284.74
585.447	39838.28
585.644	39187.03
585.841	39414.35
586.039	39905.87
586.236	39479.89
586.434	38716
586.631	39092.82
586.828	39158.36
587.026	39209.56
587.223	38703.71
587.42	38503.01
587.618	38580.83
587.815	38175.33
588.012	38488.67
588.21	38261.35
588.407	38861.4
588.604	38058.6
588.801	37722.73
588.999	37919.34
589.196	38087.27
589.393	37970.54
589.59	37784.17
589.787	37401.2
589.984	37560.94
590.182	37276.27
590.379	37481.07
590.576	37007.99
590.773	36985.46
590.97	36975.22
591.167	36719.23
591.364	36551.29
591.561	36743.8
591.758	36524.67
591.955	36622.97
592.152	36909.69
592.349	36358.78
592.546	36207.23
592.743	36143.75
592.94	35578.51
593.137	35973.77
593.334	35893.89
593.531	35158.67
593.727	35998.34
593.924	35584.65
594.121	35216.02
594.318	35543.69
594.515	34929.3
594.712	35123.86
594.908	35037.84
595.105	34734.74
595.302	34734.74
595.499	34902.68
595.696	34654.87
595.892	34478.75
596.089	34415.26
596.286	34450.08
596.482	33972.9
596.679	34423.45
596.876	33989.28
597.072	33948.32
597.269	34007.72
597.466	33444.52
597.662	33991.33
597.859	33528.49
598.055	33825.45
598.252	33069.75
598.448	33217.2
598.645	33168.05
598.841	33237.68
599.038	33344.17
599.234	32912.05
599.431	32633.53
599.627	32948.92
599.824	32752.31
600.02	32375.48
600.217	32811.7
600.413	32293.57
600.609	32078.53
600.806	32287.42
601.002	32305.85
601.198	31834.82
601.395	31677.13
601.591	31752.9
601.787	31890.12
601.984	31568.58
602.18	31785.67
602.376	31548.11
602.572	31181.52
602.769	31171.28
602.965	30915.28
603.161	31386.32
603.357	30866.13
603.553	30888.66
603.75	30917.33
603.946	30743.25
604.142	30827.22
604.338	30620.38
604.534	30714.58
604.73	30429.91
604.926	30358.24
605.122	30515.93
605.318	30112.48
605.514	29864.67
605.71	29872.87
605.906	30071.52
606.102	29612.77
606.298	29860.58
606.494	29569.77
606.69	29977.31
606.886	29627.11
607.082	29455.08
607.278	29696.74
607.474	29016.82
607.67	29307.63
607.866	29278.96
608.062	29410.03
608.257	28887.79
608.453	29131.5
608.649	28875.51
608.845	28947.18
609.041	28951.28
609.236	28834.55
609.432	28879.6
609.628	28707.57
609.824	28699.38
610.019	28494.58
610.215	28209.92
610.411	28566.26
610.606	28281.6
610.802	28543.74
610.998	28353.27
611.193	28316.41
611.389	27771.65
611.584	27755.27
611.78	27929.34
611.976	27964.16
612.171	28166.91
612.367	27697.92
612.562	27843.33
612.758	27343.63
612.953	27452.17
613.149	27673.35
613.344	27605.77
613.539	27757.32
613.735	27450.12
613.93	27839.23
614.126	27265.8
614.321	27613.96
614.517	27464.46
614.712	27269.9
614.907	27263.75
615.103	27390.73
615.298	27022.09
615.493	27196.17
615.688	26452.76
615.884	27579.14
616.079	26663.7
616.274	27136.78
616.47	26903.31
616.665	26864.4
616.86	26551.06
617.055	26911.5
617.25	26632.98
617.445	26583.83
617.641	26039.07
617.836	26665.75
618.031	25701.15
618.226	26360.6
618.421	26106.65
618.616	26073.88
618.811	25807.65
619.006	26118.94
619.201	25445.16
619.396	25705.25
619.591	25383.72
619.786	25658.15
619.981	25115.44
620.176	25477.93
620.371	25185.07
620.566	25193.26
620.761	24660.79
620.956	25119.53
621.151	24914.73
621.346	24881.97
621.541	24533.81
621.735	24857.39
621.93	24060.73
622.125	24265.53
622.32	23890.75
622.515	23976.76
622.709	23599.94
622.904	23712.58
623.099	23677.76
623.294	23550.79
623.488	23210.82
623.683	23241.54
623.878	22981.45
624.072	22987.6
624.267	22963.02
624.462	22938.44
624.656	22651.73
624.851	22561.62
625.046	22758.22
625.24	22211.42
625.435	21781.34
625.629	22139.74
625.824	21828.45
626.018	22004.57
626.213	21400.42
626.407	21488.48
626.602	21388.13
626.796	21551.97
626.991	21283.69
627.185	21064.55
627.38	21328.74
627.574	21050.22
627.768	20783.98
627.963	20671.34
628.157	20624.24
628.352	20726.64
628.546	20212.6
628.74	20556.66
628.935	20251.51
629.129	20235.13
629.323	19962.75
629.517	20257.65
629.712	19948.41
629.906	19909.5
630.1	19260.29
630.294	19499.91
630.489	19317.64
630.683	19557.25
630.877	19243.91
631.071	19116.93
631.265	19069.83
631.459	19116.93
631.653	18875.27
631.848	18733.96
632.042	18623.37
632.236	18731.92
632.43	18541.46
632.624	18363.28
632.818	18332.56
633.012	18164.63
633.206	18013.08
633.4	18207.64
633.594	17589.15
633.788	17783.71
633.982	18283.41
634.176	17849.24
634.369	17724.32
634.563	17333.15
634.757	17081.25
634.951	17425.31
635.145	17361.83
635.339	17228.71
635.533	17286.05
635.726	17101.73
635.92	16862.12
636.114	16636.84
636.308	16679.85
636.501	16602.03
636.695	16663.47
636.889	16264.11
637.083	16329.65
637.276	16176.05
637.47	16206.77
637.664	16212.92
637.857	16352.18
638.051	16149.43
638.244	15754.17
638.438	15782.84
638.632	15670.2
638.825	15612.86
639.019	15492.03
639.212	15471.55
639.406	15068.1
639.599	15154.12
639.793	15381.44
639.986	14957.51
640.18	15184.83
640.373	15111.11
640.567	14959.56
640.76	14748.62
640.954	14746.57
641.147	14574.54
641.34	14459.85
641.534	14582.73
641.727	14377.94
641.92	14328.78
642.114	14214.1
642.307	14289.87
642.5	14152.66
642.694	13892.57
642.887	13960.15
643.08	14076.88
643.273	13792.22
643.467	13761.5
643.66	13616.09
643.853	13683.67
644.046	13417.44
644.239	13489.12
644.432	13171.68
644.626	13190.11
644.819	13198.31
645.012	13329.38
645.205	13212.64
645.398	13048.8
645.591	12751.85
645.784	13016.04
645.977	12717.03
646.17	12784.62
646.363	12665.83
646.556	12424.17
646.749	12467.18
646.942	12571.63
647.135	12512.24
647.328	12473.32
647.521	12420.08
647.714	12080.11
647.907	12524.52
648.099	12205.04
648.292	12080.11
648.485	12065.78
648.678	11928.56
648.871	11858.93
649.064	11693.05
649.256	11867.13
649.449	11643.9
649.642	11709.43
649.835	11580.41
650.027	11650.04
650.22	11389.95
650.413	11482.11
650.605	11502.59
650.798	11303.93
650.991	11140.1
651.183	11240.45
651.376	11172.86
651.568	11279.36
651.761	10994.69
651.954	10982.4
652.146	10978.31
652.339	10609.67
652.531	10746.89
652.724	10734.6
652.916	10519.56
653.109	10740.74
653.301	10621.96
653.494	10544.14
653.686	10347.53
653.879	10523.66
654.071	10445.84
654.263	10304.53
654.456	10144.78
654.648	10404.88
654.84	10054.67
655.033	9853.97
655.225	10222.61
655.417	9964.56
655.61	10066.96
655.802	10179.6
655.994	9853.97
656.186	9753.62
656.379	9823.25
656.571	9925.65
656.763	9511.96
656.955	9616.41
657.148	9505.82
657.34	9526.3
657.532	9249.82
657.724	9301.02
657.916	9374.75
658.108	9208.86
658.3	9233.44
658.492	9301.02
658.684	8952.87
658.876	9284.64
659.068	9012.26
659.26	8963.11
659.452	8942.63
659.644	8842.28
659.836	8774.69
660.028	8887.33
660.22	8660.01
660.412	8598.57
660.604	8592.42
660.796	8721.45
660.988	8668.2
661.18	8383.53
661.372	8516.65
661.563	8606.76
661.755	8481.83
661.947	8496.17
662.139	8324.14
662.331	8401.96
662.522	8293.42
662.714	8205.36
662.906	8340.52
663.097	8209.45
663.289	8018.99
663.481	7955.51
663.673	8053.81
663.864	8080.43
664.056	7824.44
664.247	7834.68
664.439	7693.37
664.631	7674.93
664.822	7857.2
665.014	7646.26
665.205	7535.67
665.397	7734.32
665.588	7597.11
665.78	7621.69
665.971	7433.27
666.163	7590.97
666.354	7343.16
666.546	7316.54
666.737	7332.92
666.929	7363.64
667.12	7406.65
667.311	7341.11
667.503	7279.68
667.694	7150.65
667.885	6943.81
668.077	7224.38
668.268	7189.56
668.459	7009.34
668.651	7015.49
668.842	7038.02
669.033	6892.61
669.224	6845.51
669.416	6941.76
669.607	6990.91
669.798	6792.26
669.989	6923.33
670.18	6751.3
670.371	6612.04
670.563	6714.44
670.754	6788.16
670.945	6581.32
671.136	6642.76
671.327	6552.65
671.518	6417.48
671.709	6581.32
671.9	6521.93
672.091	6607.94
672.282	6472.78
672.473	6353.99
672.664	6515.78
672.855	6286.41
673.046	6382.67
673.237	6300.75
673.428	6349.9
673.619	6370.38
673.809	6247.5
674	6317.13
674.191	6403.14
674.382	6237.26
674.573	6216.78
674.764	6081.61
674.954	6104.14
675.145	6286.41
675.336	5975.12
675.527	6151.24
675.717	6071.37
675.908	5966.93
676.099	6022.22
676.289	6024.27
676.48	5997.65
676.671	5698.64
676.861	6014.03
677.052	5844.05
677.243	5973.07
677.433	5794.9
677.624	5852.24
677.814	5891.15
678.005	5792.85
678.195	5819.47
678.386	5917.78
678.576	5698.64
678.767	5538.9
678.957	5811.28
679.148	5649.49
679.338	5698.64
679.529	5690.45
679.719	5659.73
679.909	5567.57
680.1	5502.04
680.29	5698.64
680.481	5612.63
680.671	5543
680.861	5481.56
681.052	5504.09
681.242	5567.57
681.432	5506.13
681.622	5637.2
681.813	5545.05
682.003	5432.41
682.193	5368.92
682.383	5434.46
682.573	5522.52
682.764	5530.71
682.954	5270.62
683.144	5477.46
683.334	5397.59
683.524	5444.7
683.714	5188.7
683.904	5295.19
684.094	5260.38
684.284	5264.47
684.474	5293.15
684.664	5135.45
684.854	5088.35
685.044	5327.96
685.234	5147.74
685.424	5237.85
685.614	5137.5
685.804	5071.97
685.994	5028.96
686.184	5137.5
686.374	5039.2
686.564	4998.24
686.753	4990.05
686.943	4883.55
687.133	4826.21
687.323	4961.37
687.513	4836.45
687.702	4879.46
687.892	4908.13
688.082	4693.09
688.272	4934.75
688.461	4680.8
688.651	4826.21
688.841	4732
689.03	4787.3
689.22	4951.14
689.41	4867.17
689.599	4863.07
689.789	4641.89
689.979	4385.9
690.168	4627.56
690.358	4572.26
690.547	4598.88
690.737	4637.8
690.926	4619.36
691.116	4602.98
691.305	4514.92
691.495	4482.15
691.684	4492.39
691.874	4531.3
692.063	4400.23
692.252	4375.66
692.442	4389.99
692.631	4392.04
692.82	4236.39
693.01	4533.35
693.199	4332.65
693.388	4162.67
693.578	4183.15
693.767	4154.48
693.956	4222.06
694.146	4324.46
694.335	4146.28
694.524	4326.5
694.713	4158.57
694.902	4140.14
695.092	4154.48
695.281	4121.71
695.47	4322.41
695.659	4031.6
695.848	3923.05
696.037	4060.27
696.226	4074.6
696.415	4086.89
696.604	4187.24
696.793	4000.88
696.982	4101.23
697.171	4121.71
697.36	4023.41
697.549	3974.25
697.738	4111.47
697.927	4002.93
698.116	4031.6
698.305	3990.64
698.494	4025.45
698.683	3900.53
698.872	3974.25
699.061	3857.52
699.25	3806.32
699.438	4031.6
699.627	3830.9
699.816	3923.05
700.005	3912.81
700.193	3923.05
700.382	3994.73
700.571	3869.81
700.76	3832.94
700.948	3951.73
701.137	3884.14
701.326	3777.65
701.514	3755.12
701.703	3738.74
701.892	3763.31
702.08	3851.38
702.269	3617.91
702.457	3746.93
702.646	3718.26
702.834	3705.97
703.023	3720.31
703.212	3720.31
703.4	3708.02
703.589	3593.33
703.777	3705.97
703.965	3675.25
704.154	3650.67
704.342	3609.72
704.531	3609.72
704.719	3564.66
704.907	3589.24
705.096	3613.81
705.284	3552.37
705.472	3484.79
705.661	3517.56
705.849	3505.27
706.037	3495.03
706.226	3433.59
706.414	3581.04
706.602	3470.45
706.79	3671.15
706.979	3523.7
707.167	3460.21
707.355	3458.17
707.543	3476.6
707.731	3507.32
707.919	3548.28
708.107	3589.24
708.296	3390.58
708.484	3511.41
708.672	3394.68
708.86	3488.89
709.048	3468.41
709.236	3452.02
709.424	3464.31
709.612	3396.73
709.8	3294.33
709.988	3384.44
710.176	3394.68
710.364	3378.3
710.551	3361.91
710.739	3425.4
710.927	3517.56
711.115	3470.45
711.303	3409.01
711.491	3423.35
711.679	3296.38
711.866	3314.81
712.054	3261.56
712.242	3245.18
712.43	3390.58
712.617	3368.06
712.805	3183.74
712.993	3304.57
713.181	3212.41
713.368	3253.37
713.556	3433.59
713.744	3122.3
713.931	3218.55
714.119	3146.87
714.306	3249.27
714.494	3265.66
714.682	3093.63
714.869	3232.89
715.057	3208.31
715.244	3189.88
715.432	3220.6
715.619	3146.87
715.807	3277.94
715.994	3212.41
716.182	3101.82
716.369	3075.2
716.556	3058.81
716.744	2983.04
716.931	3157.11
717.119	3142.78
717.306	3216.51
717.493	3085.44
717.681	3134.59
717.868	3034.24
718.055	3015.8
718.242	3161.21
718.43	3175.55
718.617	3024
718.804	2991.23
718.991	3056.76
719.179	3224.7
719.366	3026.04
719.553	3050.62
719.74	3024
719.927	3089.53
720.114	3042.43
720.301	3011.71
720.488	2989.18
720.676	3036.28
720.863	2989.18
721.05	2946.17
721.237	3003.52
721.424	2862.21
721.611	2997.37
721.798	2931.84
721.985	3005.56
722.172	2946.17
722.358	2884.73
722.545	2980.99
722.732	2944.13
722.919	2831.49
723.106	2798.72
723.293	2929.79
723.48	2933.89
723.667	2901.12
723.853	2888.83
724.04	2835.58
724.227	2880.64
724.414	2950.27
724.6	2892.93
724.787	2888.83
724.974	2958.46
725.161	2843.78
725.347	2786.43
725.534	2741.38
725.72	2927.74
725.907	2884.73
726.094	2786.43
726.28	2757.76
726.467	2876.54
726.653	2886.78
726.84	2860.16
727.027	2878.59
727.213	2692.23
727.4	2731.14
727.586	2780.29
727.773	2825.34
727.959	2729.09
728.145	2835.58
728.332	2800.77
728.518	2755.71
728.705	2849.92
728.891	2753.66
729.077	2714.75
729.264	2735.23
729.45	2649.22
729.636	2747.52
729.823	2665.6
730.009	2815.1
730.195	2630.79
730.382	2704.51
730.568	2733.18
730.754	2634.88
730.94	2731.14
731.126	2577.54
731.313	2802.82
731.499	2671.75
731.685	2739.33
731.871	2593.92
732.057	2733.18
732.243	2614.4
732.429	2673.79
732.615	2688.13
732.801	2675.84
732.987	2675.84
733.173	2720.9
733.359	2626.69
733.545	2616.45
733.731	2524.29
733.917	2634.88
734.103	2495.62
734.289	2684.03
734.475	2565.25
734.661	2735.23
734.847	2604.16
735.033	2638.98
735.219	2434.18
735.404	2550.92
735.59	2581.64
735.776	2485.38
735.962	2591.88
736.148	2606.21
736.333	2512
736.519	2477.19
736.705	2641.03
736.89	2516.1
737.076	2512
737.262	2477.19
737.447	2499.72
737.633	2477.19
737.819	2567.3
738.004	2495.62
738.19	2452.61
738.375	2428.04
738.561	2475.14
738.747	2493.57
738.932	2444.42
739.118	2466.95
739.303	2522.24
739.489	2360.45
739.674	2319.5
739.859	2399.37
740.045	2462.85
740.23	2421.89
740.416	2409.61
740.601	2475.14
740.786	2348.17
740.972	2391.17
741.157	2450.57
741.342	2221.19
741.528	2356.36
741.713	2315.4
741.898	2313.35
742.084	2362.5
742.269	2309.26
742.454	2249.86
742.639	2202.76
742.824	2223.24
743.01	2215.05
743.195	2331.78
743.38	2182.28
743.565	2204.81
743.75	2294.92
743.935	2243.72
744.12	2387.08
744.305	2088.07
744.49	2161.8
744.675	2065.55
744.86	2116.75
745.045	2122.89
745.23	2194.57
745.415	2176.14
745.6	2131.08
745.785	2180.23
745.97	2122.89
746.155	2124.94
746.34	2176.14
746.525	1948.81
746.71	2092.17
746.895	2047.12
747.079	2043.02
747.264	2047.12
747.449	2126.99
747.634	2081.93
747.819	2126.99
748.003	1950.86
748.188	2024.59
748.373	1838.22
748.557	1983.63
748.742	1901.71
748.927	1934.48
749.111	1991.82
749.296	1844.37
749.481	1834.13
749.665	1934.48
749.85	1799.31
750.034	1864.85
750.219	1827.98
750.404	1797.26
750.588	1772.69
750.773	1760.4
750.957	1813.65
751.141	1778.83
751.326	1713.3
751.51	1696.91
751.695	1772.69
751.879	1668.24
752.064	1750.16
752.248	1778.83
752.432	1752.21
752.617	1594.51
752.801	1715.34
752.985	1594.51
753.17	1660.05
753.354	1655.95
753.538	1670.29
753.722	1555.6
753.907	1592.47
754.091	1567.89
754.275	1565.84
754.459	1445.01
754.643	1553.55
754.828	1647.76
755.012	1590.42
755.196	1510.55
755.38	1477.78
755.564	1377.43
755.748	1531.03
755.932	1471.64
756.116	1410.2
756.3	1451.16
756.484	1445.01
756.668	1422.48
756.852	1346.71
757.036	1483.92
757.22	1397.91
757.404	1311.89
757.588	1389.72
757.772	1383.57
757.956	1402.01
758.14	1363.09
758.323	1328.28
758.507	1303.7
758.691	1305.75
758.875	1318.04
759.059	1322.13
759.242	1305.75
759.426	1180.82
759.61	1344.66
759.794	1189.02
759.977	1152.15
760.161	1334.42
760.345	1191.06
760.528	1307.8
760.712	1172.63
760.895	1232.02
761.079	1283.22
761.263	1193.11
761.446	1100.95
761.63	1111.19
761.813	1174.68
761.997	1139.87
762.18	1129.63
762.364	1189.02
762.547	1129.63
762.731	1123.48
762.914	1205.4
763.098	1033.37
763.281	1092.76
763.464	1158.3
763.648	1115.29
763.831	1051.8
764.015	1121.43
764.198	1084.57
764.381	1053.85
764.564	1103
764.748	1119.39
764.931	992.41
765.114	1019.04
765.297	1055.9
765.481	1041.56
765.664	1148.06
765.847	1068.19
766.03	1162.39
766.213	1037.47
766.397	1033.37
766.58	1055.9
766.763	1049.75
766.946	1074.33
767.129	1068.19
767.312	1078.43
767.495	996.51
767.678	961.69
767.861	1004.7
768.044	1039.51
768.227	1010.84
768.41	1010.84
768.593	961.69
768.776	978.08
768.959	1019.04
769.142	1057.95
769.324	1016.99
769.507	1023.13
769.69	881.82
769.873	885.92
770.056	951.45
770.239	926.88
770.421	982.17
770.604	830.62
770.787	918.68
770.97	873.63
771.152	937.12
771.335	898.2
771.518	844.96
771.7	951.45
771.883	986.27
772.066	881.82
772.248	898.2
772.431	935.07
772.613	863.39
772.796	834.72
772.978	885.92
773.161	894.11
773.343	855.2
773.526	861.34
773.708	814.24
773.891	742.56
774.073	812.19
774.256	703.65
774.438	945.31
774.621	795.81
774.803	838.81
774.985	779.42
775.168	785.57
775.35	793.76
775.532	832.67
775.715	736.42
775.897	707.74
776.079	748.7
776.261	748.7
776.444	754.85
776.626	717.98
776.808	756.9
776.99	746.66
777.173	711.84
777.355	681.12
777.537	699.55
777.719	679.07
777.901	748.7
778.083	634.02
778.265	664.74
778.447	724.13
778.629	656.54
778.811	689.31
778.993	756.9
779.175	683.17
779.357	654.5
779.539	634.02
779.721	677.02
779.903	611.49
780.085	652.45
780.267	597.15
780.449	615.59
780.631	677.02
780.812	582.82
780.994	683.17
781.176	531.62
781.358	605.35
781.54	617.63
781.721	572.58
781.903	541.86
782.085	517.28
782.267	582.82
782.448	576.67
782.63	586.91
782.812	607.39
782.993	648.35
783.175	550.05
783.357	558.24
783.538	560.29
783.72	509.09
783.901	586.91
784.083	519.33
784.264	593.06
784.446	484.52
784.627	552.1
784.809	459.94
784.99	423.08
785.172	511.14
785.353	455.84
785.535	564.39
785.716	466.08
785.897	474.28
786.079	523.43
786.26	461.99
786.441	529.57
786.623	476.32
786.804	500.9
786.985	476.32
787.167	398.5
787.348	459.94
787.529	476.32
787.71	414.88
787.891	496.8
788.073	435.36
788.254	328.87
788.435	466.08
788.616	386.21
788.797	394.4
788.978	378.02
789.159	306.34
789.34	443.56
789.522	378.02
789.703	423.08
789.884	464.04
790.065	429.22
790.246	468.13
790.427	363.69
790.607	470.18
790.788	414.88
790.969	339.11
791.15	388.26
791.331	412.84
791.512	421.03
791.693	373.92
791.874	367.78
792.054	421.03
792.235	427.17
792.416	365.73
792.597	287.91
792.778	365.73
792.958	369.83
793.139	359.59
793.32	345.25
793.5	365.73
793.681	369.83
793.862	349.35
794.042	386.21
794.223	281.77
794.404	330.92
794.584	312.49
794.765	324.77
794.945	289.96
795.126	361.64
795.306	357.54
795.487	289.96
795.667	353.45
795.848	296.1
796.028	308.39
796.209	263.33
796.389	324.77
796.57	349.35
796.75	335.01
796.93	320.68
797.111	279.72
797.291	296.1
797.471	281.77
797.652	287.91
797.832	328.87
798.012	296.1
798.192	345.25
798.373	279.72
798.553	267.43
798.733	298.15
798.913	289.96
799.093	197.8
799.274	316.58
799.454	312.49
799.634	287.91
799.814	255.14
799.994	273.57
800.174	230.57
800.354	238.76
800.534	201.9
800.714	238.76
800.894	249
801.074	205.99
801.254	249
801.434	249
801.614	230.57
801.794	214.18
801.974	760.99
802.154	267.43
802.334	271.53
802.514	234.66
802.693	306.34
802.873	263.33
803.053	259.24
803.233	203.94
803.413	226.47
803.592	255.14
803.772	238.76
803.952	251.05
804.131	267.43
804.311	328.87
804.491	234.66
804.67	181.42
804.85	203.94
805.03	283.81
805.209	339.11
805.389	212.14
805.568	199.85
805.748	205.99
805.928	214.18
806.107	175.27
806.287	185.51
806.466	249
806.646	224.42
806.825	156.84
807.004	140.46
807.184	189.61
807.363	185.51
807.543	201.9
807.722	122.02
807.901	175.27
808.081	193.7
808.26	187.56
808.439	216.23
808.619	238.76
808.798	171.18
808.977	205.99
809.156	154.79
809.336	173.22
809.515	181.42
809.694	169.13
809.873	220.33
810.052	249
810.231	228.52
810.411	179.37
810.59	275.62
810.769	117.93
810.948	183.46
811.127	165.03
811.306	154.79
811.485	93.35
811.664	175.27
811.843	199.85
812.022	136.36
812.201	175.27
812.38	167.08
812.559	165.03
812.737	115.88
812.916	132.26
813.095	156.84
813.274	175.27
813.453	171.18
813.632	177.32
813.811	85.16
813.989	144.55
814.168	230.57
814.347	115.88
814.526	181.42
814.704	292.01
814.883	181.42
815.062	201.9
815.24	167.08
815.419	140.46
815.598	126.12
815.776	165.03
815.955	140.46
816.133	103.59
816.312	99.5
816.49	42.15
816.669	140.46
816.847	140.46
817.026	189.61
817.204	205.99
817.383	160.94
817.561	48.3
817.74	173.22
817.918	74.92
818.097	142.5
818.275	167.08
818.453	177.32
818.632	189.61
818.81	122.02
818.988	124.07
819.167	79.02
819.345	181.42
819.523	70.83
819.701	175.27
819.879	111.78
820.058	201.9
820.236	203.94
820.414	107.69
820.592	142.5
820.77	115.88
820.948	124.07
821.127	44.2
821.305	158.89
821.483	165.03
821.661	146.6
821.839	156.84
822.017	195.75
822.195	130.22
822.373	60.59
822.551	89.26
822.729	140.46
822.907	140.46
823.085	113.83
823.262	124.07
823.44	167.08
823.618	36.01
823.796	167.08
823.974	119.98
824.152	87.21
824.329	124.07
824.507	140.46
824.685	72.87
824.863	117.93
825.04	83.11
825.218	99.5
825.396	150.7
825.574	97.45
825.751	150.7
825.929	103.59
826.107	142.5
826.284	150.7
826.462	128.17
826.639	126.12
826.817	72.87
826.994	99.5
827.172	99.5
827.349	156.84
827.527	136.36
827.704	140.46
827.882	119.98
828.059	68.78
828.237	148.65
828.414	87.21
828.591	52.39
828.769	107.69
828.946	25.77
829.124	79.02
829.301	76.97
829.478	79.02
829.655	119.98
829.833	64.68
830.01	60.59
830.187	74.92
830.364	54.44
830.542	101.55
830.719	87.21
830.896	44.2
831.073	76.97
831.25	126.12
831.427	107.69
831.604	173.22
831.782	109.74
831.959	115.88
832.136	128.17
832.313	91.31
832.49	93.35
832.667	60.59
832.844	85.16
833.021	119.98
833.198	109.74
833.374	148.65
833.551	119.98
833.728	66.73
833.905	115.88
834.082	1.19
834.259	62.63
834.436	115.88
834.612	9.39
834.789	156.84
834.966	136.36
835.143	91.31
835.319	52.39
835.496	25.77
835.673	31.91
835.85	142.5
836.026	117.93
836.203	132.26
836.38	52.39
836.556	70.83
836.733	91.31
836.909	99.5
837.086	126.12
837.262	40.11
837.439	29.87
837.616	83.11
837.792	36.01
837.968	87.21
838.145	58.54
838.321	138.41
838.498	27.82
838.674	189.61
838.851	60.59
839.027	74.92
839.203	76.97
839.38	93.35
839.556	27.82
839.732	101.55
839.909	60.59
840.085	128.17
840.261	58.54
840.437	89.26
840.614	17.58
840.79	52.39
840.966	99.5
841.142	93.35
841.318	27.82
841.494	19.63
841.671	58.54
841.847	74.92
842.023	46.25
842.199	60.59
842.375	38.06
842.551	36.01
842.727	85.16
842.903	91.31
843.079	74.92
843.255	66.73
843.431	95.4
843.607	58.54
843.783	25.77
843.959	-0.85
844.134	72.87
844.31	189.61
844.486	52.39
844.662	60.59
844.838	42.15
845.013	25.77
845.189	54.44
845.365	3.24
845.541	107.69
845.716	126.12
845.892	17.58
846.068	-31.57
846.244	58.54
846.419	33.96
846.595	46.25
846.77	-31.57
846.946	50.35
847.122	52.39
847.297	19.63
847.473	70.83
847.648	13.48
847.824	132.26
847.999	85.16
848.175	60.59
848.35	91.31
848.526	117.93
848.701	11.43
848.876	50.35
849.052	5.29
849.227	70.83
849.403	-11.09
849.578	-7
849.753	52.39
849.929	17.58
850.104	1.19
850.279	42.15
850.454	83.11
850.63	66.73
850.805	56.49
850.98	162.98
851.155	9.39
851.33	33.96
851.505	-7
851.681	122.02
851.856	58.54
852.031	52.39
852.206	74.92
852.381	93.35
852.556	25.77
852.731	33.96
852.906	79.02
853.081	13.48
853.256	66.73
853.431	85.16
853.606	132.26
853.781	17.58
853.956	-29.52
854.131	50.35
854.305	-21.33
854.48	-31.57
854.655	62.63
854.83	-29.52
855.005	-7
855.18	60.59
855.354	95.4
855.529	1.19
855.704	50.35
855.879	21.67
856.053	54.44
856.228	40.11
856.403	13.48
856.577	40.11
856.752	99.5
856.926	79.02
857.101	42.15
857.276	36.01
857.45	9.39
857.625	5.29
857.799	60.59
857.974	-15.19
858.148	17.58
858.323	25.77
858.497	23.72
858.672	42.15
858.846	-7
859.02	62.63
859.195	72.87
859.369	17.58
859.543	-19.29
859.718	44.2
859.892	-23.38
860.066	103.59
860.241	9.39
860.415	11.43
860.589	50.35
860.763	36.01
860.938	27.82
861.112	1.19
861.286	-19.29
861.46	11.43
861.634	85.16
861.808	107.69
861.982	11.43
862.157	-7
862.331	117.93
862.505	27.82
862.679	81.07
862.853	19.63
863.027	-58.2
863.201	79.02
863.375	23.72
863.549	-4.95
863.722	13.48
863.896	91.31
864.07	81.07
864.244	46.25
864.418	117.93
864.592	25.77
864.766	54.44
864.939	-15.19
865.113	5.29
865.287	27.82
865.461	5.29
865.634	-84.82
865.808	74.92
865.982	-15.19
866.156	56.49
866.329	58.54
866.503	9.39
866.676	31.91
866.85	27.82
867.024	11.43
867.197	46.25
867.371	42.15
867.544	1.19
867.718	-23.38
867.891	36.01
868.065	19.63
868.238	-27.48
868.412	50.35
868.585	23.72
868.759	-7
868.932	58.54
869.105	74.92
869.279	11.43
869.452	31.91
869.625	9.39
869.799	25.77
869.972	5.29
870.145	-15.19
870.319	58.54
870.492	52.39
870.665	3.24
870.838	13.48
871.011	1.19
871.185	-21.33
871.358	81.07
871.531	17.58
871.704	27.82
871.877	74.92
872.05	27.82
872.223	58.54
872.396	-7
872.569	-23.38
872.742	-68.44
872.915	13.48
873.088	50.35
873.261	60.59
873.434	-39.76
873.607	-15.19
873.78	11.43
873.953	13.48
874.126	38.06
874.299	9.39
874.471	-64.34
874.644	58.54
874.817	83.11
874.99	42.15
875.163	52.39
875.335	-7
875.508	-0.85
875.681	33.96
875.853	21.67
876.026	13.48
876.199	70.83
876.371	27.82
876.544	33.96
876.717	-11.09
876.889	-23.38
877.062	60.59
877.234	1.19
877.407	109.74
877.579	74.92
877.752	21.67
877.924	52.39
878.097	36.01
878.269	-7
878.442	87.21
878.614	68.78
878.786	25.77
878.959	79.02
879.131	36.01
879.303	-31.57
879.476	1.19
879.648	33.96
879.82	66.73
879.993	-15.19
880.165	54.44
880.337	52.39
880.509	19.63
880.681	5.29
880.854	-17.24
881.026	42.15
881.198	48.3
881.37	-11.09
881.542	1.19
881.714	-23.38
881.886	25.77
882.058	36.01
882.23	25.77
882.402	-13.14
882.574	33.96
882.746	74.92
882.918	50.35
883.09	1.19
883.262	54.44
883.434	-31.57
883.606	-17.24
883.778	11.43
883.95	50.35
884.122	-11.09
884.293	46.25
884.465	13.48
884.637	83.11
884.809	-33.62
884.98	-15.19
885.152	33.96
885.324	95.4
885.496	25.77
885.667	36.01
885.839	-37.72
886.011	5.29
886.182	-50
886.354	-13.14
886.525	11.43
886.697	44.2
886.869	-37.72
887.04	3.24
887.212	25.77
887.383	19.63
887.555	29.87
887.726	1.19
887.897	-7
888.069	27.82
888.24	13.48
888.412	25.77
888.583	-7
888.754	-13.14
888.926	3.24
889.097	-21.33
889.268	-11.09
889.44	-2.9
889.611	33.96
889.782	33.96
889.953	-31.57
890.125	-13.14
890.296	44.2
890.467	23.72
890.638	-35.67
890.809	3.24
890.98	-7
891.151	-2.9
891.323	74.92
891.494	58.54
891.665	-15.19
891.836	50.35
892.007	21.67
892.178	27.82
892.349	70.83
892.52	-39.76
892.691	93.35
892.862	11.43
893.032	21.67
893.203	29.87
893.374	70.83
893.545	-15.19
893.716	19.63
893.887	44.2
894.057	33.96
894.228	13.48
894.399	19.63
894.57	81.07
894.74	9.39
894.911	-39.76
895.082	-15.19
895.253	-17.24
895.423	-23.38
895.594	74.92
895.764	-2.9
895.935	19.63
896.106	91.31
896.276	42.15
896.447	25.77
896.617	58.54
896.788	13.48
896.958	7.34
897.129	-68.44
897.299	11.43
897.47	1.19
897.64	99.5
897.81	-27.48
897.981	42.15
898.151	-56.15
898.322	-23.38
898.492	54.44
898.662	11.43
898.832	-9.05
899.003	33.96
899.173	-11.09
899.343	-2.9
899.513	-27.48
