Data from USB4F104151__276__14-23-20-146.txt Node

Date: Thu Mar 13 14:23:20 EDT 2025
User: louis
Spectrometer: USB4F10415
Trigger mode: 4
Integration Time (sec): 2.000000E-2
Scans to average: 1
Electric dark correction enabled: true
Nonlinearity correction enabled: false
Boxcar width: 0
XAxis mode: Wavelengths
Number of Pixels in Spectrum: 3648
>>>>>Begin Spectral Data<<<<<
178.204	-38.57
178.424	-38.57
178.644	-38.57
178.864	-81.58
179.084	-102.06
179.304	10.58
179.524	-5.8
179.744	-40.62
179.964	20.82
180.184	-59.05
180.404	-5.8
180.624	133.46
180.844	0.34
181.064	-46.76
181.283	26.96
181.503	-32.43
181.723	-1.71
181.943	2.39
182.163	125.27
182.383	4.44
182.602	63.83
182.822	47.44
183.042	-38.57
183.262	31.06
183.482	14.68
183.701	8.53
183.921	35.16
184.141	4.44
184.361	53.59
184.58	33.11
184.8	37.2
185.02	84.31
185.239	18.77
185.459	6.49
185.679	100.69
185.898	-46.76
186.118	59.73
186.338	37.2
186.557	59.73
186.777	18.77
186.997	55.64
187.216	51.54
187.436	80.21
187.655	76.12
187.875	37.2
188.095	4.44
188.314	59.73
188.534	63.83
188.753	45.4
188.973	69.97
189.192	53.59
189.412	131.41
189.631	10.58
189.851	43.35
190.07	112.98
190.29	22.87
190.509	18.77
190.729	-16.04
190.948	-3.75
191.168	188.75
191.387	37.2
191.607	12.63
191.826	51.54
192.045	24.92
192.265	41.3
192.484	0.34
192.704	69.97
192.923	80.21
193.142	141.65
193.362	49.49
193.581	39.25
193.8	-1.71
194.02	59.73
194.239	35.16
194.458	24.92
194.678	86.36
194.897	31.06
195.116	6.49
195.335	-11.95
195.555	69.97
195.774	43.35
195.993	16.73
196.212	37.2
196.432	82.26
196.651	84.31
196.87	39.25
197.089	69.97
197.308	80.21
197.528	102.74
197.747	35.16
197.966	24.92
198.185	69.97
198.404	67.92
198.623	20.82
198.842	33.11
199.062	100.69
199.281	76.12
199.5	35.16
199.719	14.68
199.938	96.6
200.157	67.92
200.376	84.31
200.595	123.22
200.814	43.35
201.033	14.68
201.252	102.74
201.471	72.02
201.69	72.02
201.909	43.35
202.128	10.58
202.347	72.02
202.566	63.83
202.785	98.64
203.004	6.49
203.223	151.89
203.442	86.36
203.661	80.21
203.879	12.63
204.098	84.31
204.317	104.79
204.536	51.54
204.755	117.08
204.974	41.3
205.193	47.44
205.411	112.98
205.63	49.49
205.849	45.4
206.068	76.12
206.287	49.49
206.505	133.46
206.724	43.35
206.943	14.68
207.162	4.44
207.381	104.79
207.599	63.83
207.818	33.11
208.037	69.97
208.255	55.64
208.474	86.36
208.693	35.16
208.911	92.5
209.13	59.73
209.349	94.55
209.567	-5.8
209.786	63.83
210.005	-79.53
210.223	102.74
210.442	-81.58
210.661	0.34
210.879	90.45
211.098	69.97
211.316	119.12
211.535	127.32
211.753	84.31
211.972	67.92
212.191	16.73
212.409	84.31
212.628	49.49
212.846	6.49
213.065	129.36
213.283	26.96
213.502	55.64
213.72	18.77
213.938	-16.04
214.157	14.68
214.375	69.97
214.594	65.88
214.812	43.35
215.031	33.11
215.249	22.87
215.467	55.64
215.686	102.74
215.904	-22.19
216.122	12.63
216.341	76.12
216.559	63.83
216.778	51.54
216.996	35.16
217.214	12.63
217.432	57.68
217.651	41.3
217.869	112.98
218.087	84.31
218.306	-13.99
218.524	47.44
218.742	0.34
218.96	41.3
219.179	92.5
219.397	-13.99
219.615	121.17
219.833	53.59
220.051	55.64
220.27	-18.09
220.488	45.4
220.706	59.73
220.924	47.44
221.142	57.68
221.36	-1.71
221.578	26.96
221.796	2.39
222.015	151.89
222.233	72.02
222.451	74.07
222.669	65.88
222.887	24.92
223.105	43.35
223.323	45.4
223.541	37.2
223.759	65.88
223.977	-26.28
224.195	92.5
224.413	102.74
224.631	45.4
224.849	76.12
225.067	47.44
225.285	76.12
225.503	18.77
225.721	51.54
225.939	45.4
226.157	86.36
226.375	108.88
226.592	4.44
226.81	29.01
227.028	61.78
227.246	-13.99
227.464	90.45
227.682	37.2
227.9	84.31
228.117	117.08
228.335	-1.71
228.553	59.73
228.771	10.58
228.989	67.92
229.206	-9.9
229.424	57.68
229.642	18.77
229.86	-1.71
230.077	88.4
230.295	72.02
230.513	78.16
230.731	104.79
230.948	88.4
231.166	90.45
231.384	31.06
231.601	67.92
231.819	94.55
232.037	80.21
232.254	20.82
232.472	115.03
232.689	47.44
232.907	69.97
233.125	-7.85
233.342	14.68
233.56	-22.19
233.777	37.2
233.995	76.12
234.213	61.78
234.43	94.55
234.648	49.49
234.865	53.59
235.083	35.16
235.3	72.02
235.518	106.84
235.735	84.31
235.953	90.45
236.17	-20.14
236.388	76.12
236.605	104.79
236.822	-1.71
237.04	63.83
237.257	31.06
237.475	-20.14
237.692	100.69
237.909	-1.71
238.127	29.01
238.344	78.16
238.562	102.74
238.779	51.54
238.996	35.16
239.214	14.68
239.431	149.84
239.648	35.16
239.865	94.55
240.083	84.31
240.3	-1.71
240.517	0.34
240.735	24.92
240.952	76.12
241.169	22.87
241.386	33.11
241.603	47.44
241.821	-42.67
242.038	31.06
242.255	69.97
242.472	18.77
242.689	45.4
242.907	100.69
243.124	61.78
243.341	-30.38
243.558	35.16
243.775	-1.71
243.992	67.92
244.209	63.83
244.426	-5.8
244.643	59.73
244.86	2.39
245.078	18.77
245.295	80.21
245.512	-5.8
245.729	10.58
245.946	115.03
246.163	98.64
246.38	10.58
246.597	84.31
246.814	47.44
247.031	33.11
247.248	39.25
247.464	59.73
247.681	26.96
247.898	31.06
248.115	4.44
248.332	37.2
248.549	135.51
248.766	86.36
248.983	35.16
249.2	88.4
249.417	2.39
249.633	29.01
249.85	43.35
250.067	8.53
250.284	65.88
250.501	69.97
250.717	108.88
250.934	18.77
251.151	-13.99
251.368	55.64
251.585	35.16
251.801	-13.99
252.018	20.82
252.235	104.79
252.451	26.96
252.668	-30.38
252.885	59.73
253.102	76.12
253.318	10.58
253.535	65.88
253.752	29.01
253.968	0.34
254.185	35.16
254.401	51.54
254.618	45.4
254.835	88.4
255.051	61.78
255.268	55.64
255.484	69.97
255.701	26.96
255.917	53.59
256.134	14.68
256.351	69.97
256.567	-20.14
256.784	20.82
257	37.2
257.217	59.73
257.433	53.59
257.65	76.12
257.866	96.6
258.082	59.73
258.299	12.63
258.515	22.87
258.732	59.73
258.948	35.16
259.165	112.98
259.381	6.49
259.597	35.16
259.814	51.54
260.03	53.59
260.246	65.88
260.463	4.44
260.679	86.36
260.895	59.73
261.112	127.32
261.328	43.35
261.544	18.77
261.761	102.74
261.977	26.96
262.193	-11.95
262.409	-67.24
262.626	18.77
262.842	55.64
263.058	33.11
263.274	86.36
263.49	94.55
263.707	110.93
263.923	18.77
264.139	-24.23
264.355	45.4
264.571	102.74
264.787	74.07
265.004	67.92
265.22	6.49
265.436	112.98
265.652	61.78
265.868	2.39
266.084	78.16
266.3	22.87
266.516	76.12
266.732	129.36
266.948	43.35
267.164	18.77
267.38	18.77
267.596	82.26
267.812	92.5
268.028	55.64
268.244	53.59
268.46	-5.8
268.676	84.31
268.892	147.8
269.108	57.68
269.324	20.82
269.54	-1.71
269.756	119.12
269.972	10.58
270.188	20.82
270.403	-28.33
270.619	72.02
270.835	24.92
271.051	20.82
271.267	10.58
271.483	-9.9
271.698	45.4
271.914	2.39
272.13	108.88
272.346	100.69
272.562	45.4
272.777	76.12
272.993	102.74
273.209	51.54
273.425	86.36
273.64	86.36
273.856	39.25
274.072	0.34
274.287	78.16
274.503	76.12
274.719	96.6
274.934	14.68
275.15	14.68
275.366	35.16
275.581	96.6
275.797	74.07
276.012	67.92
276.228	24.92
276.444	37.2
276.659	110.93
276.875	18.77
277.09	-9.9
277.306	22.87
277.521	67.92
277.737	37.2
277.952	63.83
278.168	8.53
278.383	43.35
278.599	117.08
278.814	41.3
279.03	84.31
279.245	92.5
279.461	59.73
279.676	67.92
279.892	72.02
280.107	47.44
280.322	29.01
280.538	110.93
280.753	65.88
280.969	55.64
281.184	100.69
281.399	76.12
281.615	100.69
281.83	117.08
282.045	22.87
282.26	4.44
282.476	39.25
282.691	108.88
282.906	88.4
283.122	86.36
283.337	-5.8
283.552	78.16
283.767	43.35
283.983	84.31
284.198	125.27
284.413	88.4
284.628	10.58
284.843	72.02
285.058	61.78
285.274	20.82
285.489	-50.86
285.704	78.16
285.919	47.44
286.134	88.4
286.349	69.97
286.564	67.92
286.779	98.64
286.995	35.16
287.21	26.96
287.425	78.16
287.64	88.4
287.855	98.64
288.07	-32.43
288.285	14.68
288.5	102.74
288.715	53.59
288.93	63.83
289.145	41.3
289.36	20.82
289.575	4.44
289.79	76.12
290.004	55.64
290.219	39.25
290.434	31.06
290.649	61.78
290.864	-13.99
291.079	-50.86
291.294	104.79
291.509	26.96
291.724	51.54
291.938	96.6
292.153	69.97
292.368	39.25
292.583	129.36
292.798	104.79
293.012	117.08
293.227	35.16
293.442	37.2
293.657	26.96
293.871	43.35
294.086	53.59
294.301	149.84
294.516	86.36
294.73	45.4
294.945	26.96
295.16	69.97
295.374	53.59
295.589	69.97
295.804	-22.19
296.018	112.98
296.233	106.84
296.447	20.82
296.662	-1.71
296.877	72.02
297.091	80.21
297.306	57.68
297.52	55.64
297.735	22.87
297.949	84.31
298.164	29.01
298.378	55.64
298.593	78.16
298.807	-9.9
299.022	125.27
299.236	45.4
299.451	14.68
299.665	39.25
299.88	2.39
300.094	-11.95
300.309	63.83
300.523	29.01
300.737	29.01
300.952	141.65
301.166	76.12
301.381	31.06
301.595	84.31
301.809	39.25
302.024	45.4
302.238	10.58
302.452	76.12
302.667	53.59
302.881	35.16
303.095	92.5
303.309	4.44
303.524	8.53
303.738	-9.9
303.952	69.97
304.166	194.9
304.381	14.68
304.595	149.84
304.809	14.68
305.023	35.16
305.237	26.96
305.452	96.6
305.666	63.83
305.88	59.73
306.094	37.2
306.308	61.78
306.522	92.5
306.736	29.01
306.95	76.12
307.164	119.12
307.379	31.06
307.593	141.65
307.807	26.96
308.021	53.59
308.235	12.63
308.449	-28.33
308.663	31.06
308.877	100.69
309.091	76.12
309.305	92.5
309.519	6.49
309.733	131.41
309.947	-36.52
310.161	6.49
310.374	45.4
310.588	88.4
310.802	45.4
311.016	69.97
311.23	49.49
311.444	133.46
311.658	47.44
311.872	92.5
312.085	55.64
312.299	67.92
312.513	108.88
312.727	37.2
312.941	-1.71
313.154	72.02
313.368	84.31
313.582	76.12
313.796	35.16
314.009	65.88
314.223	53.59
314.437	63.83
314.651	88.4
314.864	92.5
315.078	22.87
315.292	108.88
315.505	14.68
315.719	92.5
315.933	35.16
316.146	26.96
316.36	31.06
316.573	51.54
316.787	104.79
317.001	24.92
317.214	47.44
317.428	18.77
317.641	78.16
317.855	92.5
318.068	76.12
318.282	-3.75
318.495	123.22
318.709	51.54
318.922	61.78
319.136	98.64
319.349	67.92
319.563	94.55
319.776	43.35
319.99	-1.71
320.203	31.06
320.417	110.93
320.63	61.78
320.843	92.5
321.057	69.97
321.27	0.34
321.483	53.59
321.697	74.07
321.91	-9.9
322.124	53.59
322.337	31.06
322.55	29.01
322.763	96.6
322.977	59.73
323.19	100.69
323.403	6.49
323.617	14.68
323.83	121.17
324.043	18.77
324.256	63.83
324.469	41.3
324.683	117.08
324.896	100.69
325.109	78.16
325.322	31.06
325.535	65.88
325.748	67.92
325.962	43.35
326.175	67.92
326.388	37.2
326.601	90.45
326.814	26.96
327.027	31.06
327.24	90.45
327.453	72.02
327.666	35.16
327.879	88.4
328.092	82.26
328.305	-16.04
328.518	33.11
328.731	86.36
328.944	82.26
329.157	26.96
329.37	59.73
329.583	67.92
329.796	94.55
330.009	6.49
330.222	76.12
330.435	80.21
330.648	100.69
330.861	12.63
331.073	51.54
331.286	67.92
331.499	-9.9
331.712	10.58
331.925	-13.99
332.138	2.39
332.35	100.69
332.563	51.54
332.776	67.92
332.989	-3.75
333.202	24.92
333.414	45.4
333.627	10.58
333.84	31.06
334.053	14.68
334.265	59.73
334.478	2.39
334.691	4.44
334.903	88.4
335.116	51.54
335.329	45.4
335.541	88.4
335.754	162.13
335.966	-1.71
336.179	20.82
336.392	69.97
336.604	61.78
336.817	74.07
337.029	16.73
337.242	65.88
337.454	104.79
337.667	76.12
337.88	67.92
338.092	-34.47
338.305	22.87
338.517	-11.95
338.729	29.01
338.942	94.55
339.154	-22.19
339.367	8.53
339.579	51.54
339.792	6.49
340.004	26.96
340.217	-11.95
340.429	31.06
340.641	22.87
340.854	20.82
341.066	72.02
341.278	88.4
341.491	94.55
341.703	94.55
341.915	59.73
342.128	84.31
342.34	-13.99
342.552	59.73
342.764	14.68
342.977	29.01
343.189	24.92
343.401	96.6
343.613	10.58
343.826	22.87
344.038	84.31
344.25	80.21
344.462	45.4
344.674	-28.33
344.886	26.96
345.099	59.73
345.311	84.31
345.523	108.88
345.735	78.16
345.947	51.54
346.159	100.69
346.371	86.36
346.583	108.88
346.795	51.54
347.007	84.31
347.219	51.54
347.431	10.58
347.643	100.69
347.855	74.07
348.067	31.06
348.279	47.44
348.491	76.12
348.703	102.74
348.915	61.78
349.127	-13.99
349.339	43.35
349.551	29.01
349.763	-28.33
349.975	92.5
350.187	149.84
350.399	43.35
350.61	100.69
350.822	33.11
351.034	72.02
351.246	76.12
351.458	51.54
351.669	102.74
351.881	12.63
352.093	10.58
352.305	135.51
352.517	61.78
352.728	55.64
352.94	72.02
353.152	102.74
353.363	39.25
353.575	20.82
353.787	162.13
353.999	57.68
354.21	59.73
354.422	35.16
354.633	18.77
354.845	86.36
355.057	39.25
355.268	72.02
355.48	39.25
355.692	51.54
355.903	125.27
356.115	100.69
356.326	10.58
356.538	76.12
356.749	82.26
356.961	133.46
357.172	39.25
357.384	59.73
357.595	-3.75
357.807	33.11
358.018	123.22
358.23	18.77
358.441	102.74
358.653	43.35
358.864	67.92
359.075	24.92
359.287	82.26
359.498	98.64
359.709	43.35
359.921	65.88
360.132	69.97
360.344	143.7
360.555	37.2
360.766	0.34
360.977	84.31
361.189	112.98
361.4	12.63
361.611	69.97
361.823	100.69
362.034	162.13
362.245	127.32
362.456	43.35
362.667	12.63
362.879	88.4
363.09	61.78
363.301	43.35
363.512	69.97
363.723	8.53
363.935	43.35
364.146	29.01
364.357	67.92
364.568	92.5
364.779	43.35
364.99	100.69
365.201	86.36
365.412	100.69
365.623	63.83
365.834	59.73
366.045	108.88
366.256	76.12
366.467	82.26
366.678	18.77
366.889	61.78
367.1	59.73
367.311	88.4
367.522	96.6
367.733	108.88
367.944	133.46
368.155	29.01
368.366	90.45
368.577	100.69
368.788	22.87
368.999	2.39
369.209	72.02
369.42	119.12
369.631	170.32
369.842	92.5
370.053	110.93
370.264	76.12
370.474	18.77
370.685	4.44
370.896	4.44
371.107	98.64
371.317	94.55
371.528	76.12
371.739	170.32
371.95	92.5
372.16	59.73
372.371	6.49
372.582	51.54
372.792	63.83
373.003	53.59
373.214	61.78
373.424	121.17
373.635	-22.19
373.846	47.44
374.056	76.12
374.267	92.5
374.477	74.07
374.688	-5.8
374.898	117.08
375.109	84.31
375.319	92.5
375.53	94.55
375.74	33.11
375.951	26.96
376.161	129.36
376.372	29.01
376.582	2.39
376.793	110.93
377.003	29.01
377.214	86.36
377.424	69.97
377.635	125.27
377.845	45.4
378.055	110.93
378.266	26.96
378.476	29.01
378.686	53.59
378.897	90.45
379.107	45.4
379.317	67.92
379.528	65.88
379.738	96.6
379.948	84.31
380.158	59.73
380.369	127.32
380.579	78.16
380.789	115.03
380.999	12.63
381.21	67.92
381.42	84.31
381.63	125.27
381.84	96.6
382.05	72.02
382.261	63.83
382.471	61.78
382.681	63.83
382.891	86.36
383.101	47.44
383.311	59.73
383.521	16.73
383.731	51.54
383.941	43.35
384.151	35.16
384.361	96.6
384.571	55.64
384.781	119.12
384.991	51.54
385.201	125.27
385.411	76.12
385.621	100.69
385.831	115.03
386.041	51.54
386.251	51.54
386.461	86.36
386.671	72.02
386.881	90.45
387.091	22.87
387.301	88.4
387.511	-1.71
387.72	35.16
387.93	178.51
388.14	125.27
388.35	86.36
388.56	84.31
388.769	129.36
388.979	108.88
389.189	-50.86
389.399	59.73
389.609	92.5
389.818	84.31
390.028	29.01
390.238	135.51
390.447	37.2
390.657	43.35
390.867	51.54
391.076	35.16
391.286	63.83
391.496	35.16
391.705	98.64
391.915	69.97
392.125	133.46
392.334	6.49
392.544	61.78
392.753	31.06
392.963	96.6
393.172	84.31
393.382	43.35
393.591	108.88
393.801	35.16
394.01	174.42
394.22	129.36
394.429	88.4
394.639	96.6
394.848	53.59
395.058	80.21
395.267	131.41
395.477	72.02
395.686	149.84
395.895	215.38
396.105	151.89
396.314	63.83
396.524	108.88
396.733	26.96
396.942	135.51
397.152	110.93
397.361	137.56
397.57	108.88
397.78	170.32
397.989	162.13
398.198	151.89
398.407	55.64
398.617	110.93
398.826	96.6
399.035	59.73
399.244	141.65
399.453	127.32
399.663	168.27
399.872	86.36
400.081	98.64
400.29	174.42
400.499	137.56
400.708	180.56
400.917	180.56
401.127	92.5
401.336	125.27
401.545	215.38
401.754	160.08
401.963	158.03
402.172	76.12
402.381	102.74
402.59	119.12
402.799	213.33
403.008	162.13
403.217	88.4
403.426	209.23
403.635	96.6
403.844	84.31
404.053	182.61
404.262	188.75
404.471	139.6
404.68	231.76
404.888	194.9
405.097	106.84
405.306	149.84
405.515	223.57
405.724	182.61
405.933	229.71
406.142	186.71
406.35	205.14
406.559	231.76
406.768	166.23
406.977	250.19
407.185	221.52
407.394	176.47
407.603	233.81
407.812	233.81
408.02	315.73
408.229	203.09
408.438	330.06
408.646	233.81
408.855	264.53
409.064	307.54
409.272	307.54
409.481	321.87
409.69	317.78
409.898	282.96
410.107	362.83
410.315	407.89
410.524	313.68
410.733	366.93
410.941	330.06
411.15	381.26
411.358	422.22
411.567	489.81
411.775	502.09
411.984	428.37
412.192	418.13
412.401	471.37
412.609	495.95
412.818	526.67
413.026	528.72
413.234	518.48
413.443	592.2
413.651	479.57
413.86	653.64
414.068	659.79
414.276	682.31
414.485	608.59
414.693	698.7
414.901	747.85
415.11	776.52
415.318	741.71
415.526	749.9
415.734	801.1
415.943	860.49
416.151	872.78
416.359	905.54
416.567	895.3
416.776	969.03
416.984	1071.43
417.192	1046.85
417.4	993.61
417.608	1069.38
417.817	1149.25
418.025	1165.64
418.233	1376.58
418.441	1265.99
418.649	1325.38
418.857	1272.13
419.065	1356.1
419.273	1280.32
419.481	1407.3
419.689	1528.13
419.897	1575.23
420.105	1612.09
420.313	1595.71
420.521	1696.06
420.729	1753.4
420.937	1788.22
421.145	1775.93
421.353	1980.73
421.561	2029.88
421.769	2017.59
421.977	2220.34
422.185	2132.28
422.393	2339.12
422.601	2431.28
422.809	2296.11
423.017	2238.77
423.224	2494.77
423.432	2484.53
423.64	2627.89
423.848	2836.78
424.056	2787.63
424.263	3055.91
424.471	2926.89
424.679	3057.96
424.887	3256.61
425.094	3262.76
425.302	3199.27
425.51	3389.73
425.718	3328.29
425.925	3377.44
426.133	3680.54
426.341	3815.71
426.548	4051.22
426.756	4026.65
426.964	4104.47
427.171	4311.32
427.379	4493.58
427.586	4487.44
427.794	4581.65
428.001	4878.6
428.209	5107.98
428.417	4819.21
428.624	5187.85
428.832	5339.4
429.039	5097.74
429.247	5327.11
429.454	5822.72
429.662	6129.91
429.869	5892.35
430.076	6129.91
430.284	5966.07
430.491	6320.37
430.699	6621.42
430.906	6529.27
431.114	6842.6
431.321	6916.33
431.528	7049.45
431.736	7407.84
431.943	7940.32
432.15	7620.83
432.358	7737.57
432.565	8198.36
432.772	8145.11
432.979	8575.19
433.187	8577.23
433.394	8841.42
433.601	9412.81
433.808	9375.94
434.016	9154.76
434.223	9689.28
434.43	10244.28
434.637	10113.21
434.844	10520.76
435.052	10782.9
435.259	10672.31
435.466	11045.04
435.673	10647.73
435.88	11454.63
436.087	11954.33
436.294	12052.64
436.501	11716.77
436.708	12218.52
436.915	12617.88
437.122	12900.5
437.329	12963.98
437.537	13250.7
437.743	13480.07
437.95	13422.73
438.157	14364.79
438.364	14338.17
438.571	14616.69
438.778	14817.4
438.985	15949.92
439.192	15392.87
439.399	15689.83
439.606	15431.79
439.813	16121.95
440.02	17346.64
440.227	16996.43
440.433	16861.27
440.64	17193.04
440.847	17414.22
441.054	17909.83
441.261	19339.31
441.467	18868.28
441.674	18907.19
441.881	20054.05
442.088	19646.51
442.294	19531.82
442.501	19976.23
442.708	20332.58
442.914	21362.7
443.121	22294.53
443.328	21446.67
443.534	22956.02
443.741	22464.51
443.948	22308.86
444.154	23793.64
444.361	23488.49
444.568	23654.38
444.774	23750.63
444.981	23973.86
445.187	24770.52
445.394	25755.6
445.6	25583.57
445.807	27770.8
446.013	26613.7
446.22	27021.24
446.426	27811.76
446.633	28538.79
446.839	29304.73
447.046	28155.82
447.252	29429.65
447.459	29327.25
447.665	29333.4
447.871	30754.69
448.078	32202.6
448.284	30640
448.491	31471.48
448.697	32823.14
448.903	33208.15
449.11	33521.49
449.316	32464.74
449.522	33398.62
449.728	34568.01
449.935	34500.42
450.141	34438.98
450.347	35571.51
450.553	34279.24
450.76	34551.62
450.966	35700.53
451.172	35481.4
451.378	36644.65
451.584	35469.11
451.791	36560.68
451.997	36501.29
452.203	37334.81
452.409	36820.77
452.615	37009.18
452.821	35800.88
453.027	35196.73
453.233	37304.09
453.44	35655.48
453.646	36374.31
453.852	36439.85
454.058	36855.59
454.264	35735.35
454.47	36556.58
454.676	35499.83
454.882	36828.96
455.088	33789.78
455.294	34342.73
455.5	34611.01
455.705	34967.36
455.911	33482.58
456.117	33048.41
456.323	32546.66
456.529	31022.97
456.735	32388.97
456.941	31641.46
457.147	31252.34
457.352	30359.43
457.558	30164.87
457.764	29984.65
457.97	29339.54
458.176	28870.56
458.381	28987.29
458.587	27330.48
458.793	27652.02
458.999	26116.04
459.204	28254.12
459.41	27283.38
459.616	25583.57
459.821	25612.24
460.027	25542.61
460.233	24801.24
460.438	23678.96
460.644	23582.7
460.85	23033.85
461.055	22454.27
461.261	22423.55
461.466	20850.71
461.672	19908.65
461.878	21448.72
462.083	20193.31
462.289	19724.33
462.494	19781.67
462.7	19021.88
462.905	18266.17
463.111	18788.41
463.316	18878.52
463.522	18442.3
463.727	18372.67
463.932	18645.05
464.138	18198.59
464.343	18491.45
464.549	17543.24
464.754	18518.07
464.959	18262.08
465.165	18106.43
465.37	17410.12
465.575	16887.89
465.781	17672.26
465.986	17836.1
466.191	16967.76
466.397	16439.39
466.602	16164.96
466.807	16574.55
467.012	16562.26
467.218	16453.72
467.423	16130.14
467.628	16427.1
467.833	16922.71
468.038	16306.27
468.244	15835.24
468.449	16629.85
468.654	16255.07
468.859	16222.3
469.064	15775.84
469.269	15214.7
469.474	15317.1
469.679	15734.89
469.885	15138.93
470.09	15564.9
470.295	15478.89
470.5	15239.28
470.705	15009.9
470.91	14692.47
471.115	14370.94
471.32	14862.45
471.525	14592.12
471.73	14258.3
471.935	14274.68
472.139	13811.84
472.344	14006.4
472.549	14073.98
472.754	13881.47
472.959	13371.53
473.164	13203.6
473.369	12972.18
473.574	13637.77
473.778	13506.7
473.983	13197.45
474.188	13193.36
474.393	12746.9
474.598	12740.75
474.802	12511.38
475.007	12703.89
475.212	12521.62
475.417	11868.32
475.621	12091.55
475.826	12157.08
476.031	11837.6
476.235	11528.36
476.44	11917.47
476.645	11587.75
476.849	11702.43
477.054	11442.34
477.259	11247.79
477.463	11329.7
477.668	11139.24
477.872	11131.05
478.077	10782.9
478.282	10748.08
478.486	10825.9
478.691	10518.71
478.895	10594.48
479.1	10500.28
479.304	10401.97
479.509	10039.48
479.713	10358.97
479.918	10049.72
480.122	10029.24
480.326	10098.88
480.531	10064.06
480.735	9996.48
480.94	9846.98
481.144	10250.42
481.348	9984.19
481.553	9828.54
481.757	9533.64
481.961	9928.89
482.166	9808.06
482.37	9666.75
482.574	9687.23
482.778	9492.68
482.983	10025.15
483.187	9799.87
483.391	9717.95
483.595	9781.44
483.8	9496.77
484.004	9576.64
484.208	9728.19
484.412	9509.06
484.616	9803.97
484.821	9683.14
485.025	9552.07
485.229	9681.09
485.433	9554.12
485.637	9638.08
485.841	9646.27
486.045	9623.75
486.249	9908.41
486.453	9478.34
486.657	9642.18
486.861	9746.62
487.065	9365.7
487.269	9654.47
487.473	9402.57
487.677	9558.21
487.881	9771.2
488.085	9582.79
488.289	9685.19
488.493	9400.52
488.697	9879.74
488.901	9670.85
489.105	9758.91
489.309	9576.64
489.512	9894.08
489.716	9713.86
489.92	9773.25
490.124	9789.63
490.328	10035.39
490.531	9828.54
490.735	9816.26
490.939	10012.86
491.143	9980.09
491.346	9832.64
491.55	10078.4
491.754	10100.92
491.958	10152.12
492.161	10160.31
492.365	10236.09
492.569	10029.24
492.772	10027.2
492.976	10096.83
493.18	10236.09
493.383	10426.55
493.587	10414.26
493.79	10582.2
493.994	10680.5
494.197	10588.34
494.401	10610.87
494.605	10637.49
494.808	10868.91
495.012	10901.68
495.215	10905.77
495.419	11129
495.622	11204.78
495.825	11145.39
496.029	11382.95
496.232	11477.16
496.436	11335.85
496.639	11802.79
496.843	11604.13
497.046	11692.19
497.249	11948.19
497.453	11978.91
497.656	11765.92
497.859	12277.91
498.063	12458.14
498.266	12683.41
498.469	12589.21
498.673	12644.5
498.876	13041.81
499.079	13015.18
499.282	12916.88
499.485	13494.41
499.689	13222.03
499.892	13514.89
500.095	13559.94
500.298	13934.72
500.501	13678.72
500.705	14153.85
500.908	14342.27
501.111	14387.32
501.314	14725.24
501.517	14688.37
501.72	14868.59
501.923	14923.89
502.126	15296.62
502.329	15431.79
502.532	15530.09
502.735	15618.15
502.938	15964.26
503.141	15929.44
503.344	16300.12
503.547	16021.6
503.75	16793.69
503.953	16635.99
504.156	16767.06
504.359	16965.71
504.562	17264.72
504.765	17621.06
504.968	17430.6
505.17	17954.88
505.373	17961.03
505.576	18081.86
505.779	18206.78
505.982	18513.98
506.185	18755.64
506.387	19009.59
506.59	19374.13
506.793	19365.93
506.996	19281.97
507.198	19949.6
507.401	19818.53
507.604	19980.32
507.807	20543.52
508.009	20355.1
508.212	20445.21
508.415	20914.2
508.617	21241.87
508.82	21205.01
509.022	21282.83
509.225	22032.39
509.428	21975.05
509.63	21981.19
509.833	22607.87
510.035	23097.33
510.238	22683.64
510.44	23181.3
510.643	23429.1
510.845	23472.11
511.048	23599.09
511.25	23949.29
511.453	24080.36
511.655	24989.66
511.858	24686.56
512.06	24952.79
512.262	25044.95
512.465	25024.47
512.667	25532.37
512.87	26077.13
513.072	25741.26
513.274	26529.73
513.477	26816.44
513.679	26918.84
513.881	26933.18
514.084	27471.79
514.286	27678.64
514.488	27951.02
514.69	28391.33
514.893	28630.94
515.095	28422.05
515.297	28991.39
515.499	29132.7
515.701	29835.15
515.904	29693.84
516.106	30027.66
516.308	30273.42
516.51	30683.01
516.712	30359.43
516.914	30740.35
517.116	31268.73
517.318	31686.51
517.52	31663.99
517.722	31868.78
517.925	31876.97
518.127	33021.79
518.329	32933.73
518.531	32765.79
518.733	33415
518.935	33896.27
519.136	33939.28
519.338	34193.23
519.54	34115.4
519.742	35223.36
519.944	35012.42
520.146	35247.93
520.348	35690.29
520.55	35960.62
520.752	35874.61
520.954	36464.42
521.155	35913.52
521.357	37150.49
521.559	37394.2
521.761	37478.17
521.963	37244.7
522.164	37639.96
522.366	37814.04
522.568	38051.6
522.77	38369.04
522.971	38833.92
523.173	38770.44
523.375	39051.01
523.576	39282.43
523.778	39233.28
523.98	40146.67
524.181	39786.23
524.383	39878.39
524.584	40304.37
524.786	40298.22
524.988	40572.65
525.189	40914.66
525.391	41236.19
525.592	41371.36
525.794	41332.45
525.995	41565.92
526.197	41623.26
526.398	41348.83
526.6	41985.75
526.801	42161.87
527.003	41936.6
527.204	42159.83
527.406	42358.48
527.607	42692.3
527.808	43122.37
528.01	42307.28
528.211	42622.67
528.412	43398.85
528.614	43220.67
528.815	43591.36
529.016	43863.74
529.218	43226.82
529.419	43667.13
529.62	43845.3
529.822	43380.42
530.023	43531.97
530.224	43564.73
530.425	43624.12
530.626	43556.54
530.828	43873.98
531.029	44416.69
531.23	43833.02
531.431	43781.82
531.632	44160.69
531.833	44256.95
532.035	43871.93
532.236	44412.59
532.437	44451.5
532.638	44031.67
532.839	44222.13
533.04	44353.2
533.241	43921.08
533.442	44836.52
533.643	44140.21
533.844	44295.86
534.045	44338.86
534.246	43757.24
534.447	44603.05
534.648	43845.3
534.849	44506.8
535.05	43871.93
535.251	44095.16
535.451	44402.35
535.652	44279.47
535.853	43798.2
536.054	44222.13
536.255	44310.19
536.456	43765.43
536.657	44598.96
536.857	44381.87
537.058	43904.7
537.259	44385.97
537.46	44369.58
537.66	44308.15
537.861	43720.38
538.062	43867.83
538.263	44140.21
538.463	43933.37
538.664	43943.61
538.865	44023.48
539.065	44148.4
539.266	43538.11
539.466	44504.75
539.667	43656.89
539.868	44445.36
540.068	43521.73
540.269	44402.35
540.469	43857.59
540.67	43171.52
540.87	43787.96
541.071	43957.94
541.271	43450.05
541.472	43724.47
541.672	43751.1
541.873	43564.73
542.073	43902.65
542.274	44007.09
542.474	43949.75
542.675	43220.67
542.875	43986.61
543.075	43591.36
543.276	43073.22
543.476	43581.12
543.676	43437.76
543.877	43554.49
544.077	43589.31
544.277	43359.94
544.478	43210.43
544.678	43695.8
544.878	43402.94
545.078	43407.04
545.279	43480.77
545.479	43306.69
545.679	43994.81
545.879	43470.53
546.079	43654.84
546.28	43267.78
546.48	43075.27
546.68	42907.33
546.88	43392.7
547.08	43560.64
547.28	43439.81
547.48	42569.42
547.68	43128.52
547.88	43163.33
548.081	43656.89
548.281	43759.29
548.481	42870.47
548.681	43429.57
548.881	43484.86
549.081	43269.83
549.28	42569.42
549.48	43810.49
549.68	43179.71
549.88	43392.7
550.08	43323.07
550.28	43183.81
550.48	43081.41
550.68	43366.08
550.88	43241.15
551.08	43153.09
551.279	43679.42
551.479	42661.58
551.679	43208.39
551.879	43089.6
552.079	42989.25
552.278	43237.06
552.478	43292.35
552.678	43171.52
552.878	43538.11
553.077	42989.25
553.277	42659.53
553.477	43355.84
553.676	42663.63
553.876	42731.21
554.076	42501.84
554.275	42913.48
554.475	42573.52
554.674	42598.09
554.874	42796.74
555.074	42610.38
555.273	43028.16
555.473	43028.16
555.672	42993.35
555.872	42708.68
556.071	42817.22
556.271	42596.04
556.47	42741.45
556.67	42378.96
556.869	42235.6
557.068	42849.99
557.268	42307.28
557.467	42436.3
557.667	42862.28
557.866	42698.44
558.065	42747.59
558.265	41985.75
558.464	42428.11
558.663	42669.77
558.863	41791.19
559.062	43177.67
559.261	42372.81
559.461	42354.38
559.66	42049.24
559.859	42286.8
560.058	41803.48
560.258	42120.91
560.457	41928.41
560.656	42274.51
560.855	41500.38
561.054	41881.3
561.253	41344.73
561.453	41768.66
561.652	41629.4
561.851	41893.59
562.05	41318.11
562.249	41443.04
562.448	42184.4
562.647	41715.42
562.846	41590.49
563.045	41422.56
563.244	41238.24
563.443	41248.48
563.642	40629.99
563.841	41121.51
564.04	40980.2
564.239	40992.48
564.438	40988.39
564.637	40621.8
564.836	41588.44
565.035	40392.43
565.234	40337.13
565.432	40589.03
565.631	40244.98
565.83	40826.6
566.029	40367.85
566.228	40466.16
566.427	40396.52
566.625	40054.51
566.824	39792.37
567.023	40259.31
567.222	39493.37
567.42	39991.03
567.619	40062.71
567.818	39909.11
568.016	39833.33
568.215	39788.28
568.414	39933.68
568.612	39921.4
568.811	39247.61
569.01	39589.63
569.208	38776.58
569.407	39378.68
569.605	39307.01
569.804	39476.99
570.002	38577.93
570.201	39268.09
570.4	38586.12
570.598	38444.81
570.797	38803.21
570.995	38608.65
571.193	37762.84
571.392	38618.89
571.59	37824.28
571.789	38453
571.987	37566.23
572.186	38272.78
572.384	37670.68
572.582	38305.55
572.781	37801.75
572.979	37166.88
573.177	37783.32
573.376	37715.73
573.574	37336.86
573.772	37508.89
573.971	37228.32
574.169	37218.08
574.367	36857.63
574.565	36935.46
574.763	36794.15
574.962	36822.82
575.16	36368.17
575.358	36691.75
575.556	36497.19
575.754	36321.07
575.952	36241.2
576.151	36302.64
576.349	36083.5
576.547	35989.3
576.745	36167.47
576.943	36185.9
577.141	35751.73
577.339	35788.6
577.537	35602.23
577.735	35462.97
577.933	35059.52
578.131	35868.47
578.329	35458.87
578.527	34987.84
578.725	35000.13
578.923	35137.34
579.121	34625.35
579.319	34633.54
579.516	34774.85
579.714	34875.2
579.912	34932.54
580.11	34457.42
580.308	34410.31
580.506	34426.7
580.704	33912.66
580.901	34199.37
581.099	34291.53
581.297	33857.36
581.495	33644.37
581.692	33818.45
581.89	33558.36
582.088	33863.5
582.285	33132.38
582.483	33689.43
582.681	33855.31
582.878	33501.01
583.076	32972.64
583.274	33361.75
583.471	32874.34
583.669	32839.52
583.866	32819.04
584.064	32960.35
584.262	32241.51
584.459	32849.76
584.657	32165.74
584.854	32862.05
585.052	32395.11
585.249	32128.88
585.447	32397.16
585.644	31766.38
585.841	31960.94
586.039	32462.69
586.236	31971.18
586.434	31616.88
586.631	31481.72
586.828	31627.12
587.026	31387.51
587.223	31807.34
587.42	30969.72
587.618	31080.32
587.815	31211.39
588.012	30865.28
588.21	31088.51
588.407	31274.87
588.604	30773.12
588.801	30453.64
588.999	30533.51
589.196	30971.77
589.393	30738.3
589.59	30318.47
589.787	30365.57
589.984	29953.93
590.182	29693.84
590.379	30211.98
590.576	30003.08
590.773	29790.09
590.97	29456.28
591.167	29792.14
591.364	29439.89
591.561	29697.94
591.758	29331.35
591.955	29149.08
592.152	29570.96
592.349	29335.45
592.546	29292.44
592.743	29317.01
592.94	28620.7
593.137	28788.64
593.334	28936.09
593.531	28438.44
593.727	28764.06
593.924	28811.17
594.121	28340.13
594.318	28503.97
594.515	28286.89
594.712	28540.83
594.908	28346.28
595.105	28086.18
595.302	27729.84
595.499	28075.94
595.696	27922.35
595.892	27588.53
596.089	27817.9
596.286	27692.97
596.482	27795.37
596.679	27590.58
596.876	27793.33
597.072	27439.03
597.269	27465.65
597.466	27107.26
597.662	27123.64
597.859	27168.69
598.055	27240.37
598.252	26857.4
598.448	26808.25
598.645	26574.78
598.841	26476.48
599.038	26875.84
599.234	26507.2
599.431	26224.58
599.627	26505.15
599.824	26468.29
600.02	26365.89
600.217	26347.46
600.413	26150.85
600.609	25933.77
600.806	26150.85
601.002	26150.85
601.198	25837.52
601.395	25571.28
601.591	25534.42
601.787	25614.29
601.984	25391.06
602.18	25677.77
602.376	25204.69
602.572	25288.66
602.769	25303
602.965	24848.35
603.161	25329.62
603.357	24946.65
603.553	24963.03
603.75	24985.56
603.946	24655.84
604.142	24780.76
604.338	24690.65
604.534	24774.62
604.73	24422.37
604.926	24332.26
605.122	24405.98
605.318	24461.28
605.514	24340.45
605.71	24027.11
605.906	24438.75
606.102	23990.25
606.298	24106.98
606.494	23920.62
606.69	23844.84
606.886	23812.07
607.082	24006.63
607.278	23752.68
607.474	23318.51
607.67	23908.33
607.866	23275.51
608.062	23543.79
608.257	23523.31
608.453	23498.73
608.649	23549.93
608.845	23257.07
609.041	23519.21
609.236	23420.91
609.432	23250.93
609.628	23187.44
609.824	22984.69
610.019	22925.3
610.215	22943.74
610.411	22966.26
610.606	22831.1
610.802	23169.01
610.998	22876.15
611.193	23111.67
611.389	22722.55
611.584	22677.5
611.78	22562.81
611.976	22665.21
612.171	22571
612.367	22519.81
612.562	22474.75
612.758	22237.19
612.953	22214.66
613.149	22370.3
613.344	22063.11
613.539	22519.81
613.735	22224.9
613.93	22116.36
614.126	22030.34
614.321	22323.2
614.517	22018.05
614.712	21993.48
614.907	21995.53
615.103	21952.52
615.298	22054.92
615.493	21868.55
615.688	21524.49
615.884	21927.94
616.079	21604.36
616.274	21803.02
616.47	21665.8
616.665	21743.63
616.86	21518.35
617.055	21577.74
617.25	21309.46
617.445	21587.98
617.641	21219.35
617.836	21596.17
618.031	21121.04
618.226	21129.23
618.421	21270.54
618.616	21157.91
618.811	20600.86
619.006	21063.7
619.201	20772.89
619.396	20629.53
619.591	20424.73
619.786	20727.83
619.981	20312.1
620.176	20506.65
620.371	20158.5
620.566	20373.53
620.761	20201.51
620.956	20125.73
621.151	19800.1
621.346	19922.98
621.541	19683.37
621.735	19654.7
621.93	19687.46
622.125	19458.09
622.32	19263.54
622.515	19382.32
622.709	19050.55
622.904	19101.75
623.099	18987.06
623.294	19163.18
623.488	18569.27
623.683	19056.69
623.878	18712.63
624.072	18599.99
624.267	18808.89
624.462	18354.24
624.656	18135.1
624.851	18356.29
625.046	18028.61
625.24	17901.64
625.435	17707.08
625.629	17586.25
625.824	17674.31
626.018	17492.04
626.213	17270.86
626.407	17520.71
626.602	17037.39
626.796	17193.04
626.991	17344.59
627.185	17203.28
627.38	17025.11
627.574	17053.78
627.768	16767.06
627.963	16556.12
628.157	16709.72
628.352	16607.32
628.546	16347.23
628.74	16380
628.935	16111.71
629.129	16058.46
629.323	16093.28
629.517	16070.75
629.712	16167.01
629.906	15777.89
630.1	15720.55
630.294	15523.94
630.489	15427.69
630.683	15474.79
630.877	15175.79
631.071	15304.81
631.265	15366.25
631.459	15087.73
631.653	15208.56
631.848	14989.42
632.042	14809.2
632.236	15118.45
632.43	14669.94
632.624	14712.95
632.818	14530.68
633.012	14694.52
633.206	14590.07
633.4	14547.06
633.594	14219.39
633.788	14297.21
633.982	13918.34
634.176	14082.17
634.369	14141.57
634.563	13971.58
634.757	14196.86
634.951	13881.47
635.145	13557.89
635.339	13774.98
635.533	13740.16
635.726	13680.77
635.92	13367.43
636.114	13406.34
636.308	13248.65
636.501	13414.54
636.695	13203.6
636.889	13133.96
637.083	13152.4
637.276	12847.25
637.47	13041.81
637.664	12939.41
637.857	12636.31
638.051	12781.71
638.244	12458.14
638.438	12570.77
638.632	12527.77
638.825	12302.49
639.019	12357.78
639.212	12318.87
639.406	12310.68
639.599	12265.63
639.793	12167.32
639.986	12032.16
640.18	12091.55
640.373	11876.51
640.567	11698.34
640.76	11776.16
640.954	11581.6
641.147	11552.93
641.34	11505.83
641.534	11593.89
641.727	11372.71
641.92	11491.49
642.114	11249.83
642.307	11387.05
642.5	11292.84
642.694	11018.41
642.887	11221.16
643.08	11077.8
643.273	10971.31
643.467	10836.14
643.66	10860.72
643.853	10703.03
644.046	10653.87
644.239	10703.03
644.432	10465.46
644.626	10408.12
644.819	10553.52
645.012	10389.69
645.205	10537.14
645.398	10541.24
645.591	10188.99
645.784	10102.97
645.977	10160.31
646.17	10125.5
646.363	10037.44
646.556	9978.05
646.749	10010.81
646.942	9914.56
647.135	9783.49
647.328	9912.51
647.521	9900.22
647.714	9502.92
647.907	9629.89
648.099	9578.69
648.292	9427.14
648.485	9402.57
648.678	9214.15
648.871	9240.78
649.064	9255.11
649.256	9326.79
649.449	9064.65
649.642	9246.92
649.835	9382.09
650.027	9083.08
650.22	9091.27
650.413	9062.6
650.605	9009.36
650.798	8997.07
650.991	8820.94
651.183	8904.91
651.376	8710.35
651.568	8859.85
651.761	8569.04
651.954	8655.06
652.146	8489.17
652.339	8499.41
652.531	8603.86
652.724	8521.94
652.916	8155.35
653.109	8419.54
653.301	8505.56
653.494	8304.85
653.686	8038.62
653.879	8300.76
654.071	8104.15
654.263	8077.53
654.456	8212.7
654.648	7917.79
654.84	7923.93
655.033	7782.62
655.225	7934.17
655.417	7813.34
655.61	7727.33
655.802	7731.42
655.994	7639.26
656.186	7827.68
656.379	7504.1
656.571	7543.01
656.763	7342.31
656.955	7495.91
657.148	7481.57
657.34	7370.98
657.532	7411.94
657.724	7399.65
657.916	7096.55
658.108	7356.65
658.3	7418.08
658.492	7315.69
658.684	7008.49
658.876	7078.12
659.068	6979.82
659.26	7106.79
659.452	6893.8
659.644	7000.3
659.836	6981.87
660.028	6955.24
660.22	6785.26
660.412	6828.27
660.604	6682.86
660.796	6801.65
660.988	6631.66
661.18	6576.37
661.372	6590.7
661.563	6502.64
661.755	6484.21
661.947	6590.7
662.139	6502.64
662.331	6678.77
662.522	6353.14
662.714	6250.74
662.906	6273.27
663.097	6381.81
663.289	6119.67
663.481	6207.73
663.673	6082.81
663.864	6314.23
664.056	6195.45
664.247	6248.69
664.439	5949.69
664.631	6156.54
664.822	5916.92
665.014	6004.99
665.205	5982.46
665.397	5808.38
665.588	5806.33
665.78	5779.71
665.971	5757.18
666.163	5746.94
666.354	5667.07
666.546	5757.18
666.737	5798.14
666.929	5718.27
667.12	5880.06
667.311	5601.54
667.503	5472.51
667.694	5562.62
667.885	5560.58
668.077	5540.1
668.268	5497.09
668.459	5572.86
668.651	5570.82
668.842	5495.04
669.033	5335.3
669.224	5419.27
669.416	5392.64
669.607	5288.2
669.798	5212.42
669.989	5501.19
670.18	5153.03
670.371	5212.42
670.563	5114.12
670.754	5239.05
670.945	5146.89
671.136	5255.43
671.327	4989.19
671.518	5191.94
671.709	5146.89
671.9	5202.18
672.091	4987.15
672.282	4960.52
672.473	4919.56
672.664	5077.26
672.855	4925.71
673.046	4952.33
673.237	5024.01
673.428	4897.03
673.619	4792.59
673.809	4839.69
674	4708.62
674.191	4673.81
674.382	4788.49
674.573	4733.2
674.764	4770.06
674.954	4733.2
675.145	4589.84
675.336	4649.23
675.527	4856.08
675.717	4577.55
675.908	4638.99
676.099	4430.1
676.289	4493.58
676.48	4630.8
676.671	4546.83
676.861	4557.07
677.052	4536.59
677.243	4602.13
677.433	4516.11
677.624	4462.87
677.814	4620.56
678.005	4575.5
678.195	4577.55
678.386	4458.77
678.576	4364.56
678.767	4442.39
678.957	4303.12
679.148	4466.96
679.338	4288.79
679.529	4389.14
679.719	4225.3
679.909	4354.32
680.1	4266.26
680.29	4309.27
680.481	4331.8
680.671	4370.71
680.861	4270.36
681.052	4262.16
681.242	4258.07
681.432	4292.88
681.622	4206.87
681.813	4114.71
682.003	4180.25
682.193	4174.1
682.383	4237.59
682.573	4165.91
682.764	4120.85
682.954	4170.01
683.144	4149.53
683.334	4262.16
683.524	4147.48
683.714	4098.33
683.904	4016.41
684.094	4098.33
684.284	4036.89
684.474	4032.79
684.664	4098.33
684.854	4012.31
685.044	3911.96
685.234	4065.56
685.424	4002.07
685.614	4018.46
685.804	3993.88
685.994	3924.25
686.184	4000.02
686.374	3844.38
686.564	4034.84
686.753	3850.52
686.943	3897.63
687.133	3914.01
687.323	3854.62
687.513	3901.72
687.702	3721.5
687.892	3713.31
688.082	3836.19
688.272	3846.43
688.461	3836.19
688.651	3881.24
688.841	3729.69
689.03	3629.34
689.22	3774.75
689.41	3725.6
689.599	3541.28
689.789	3705.12
689.979	3680.54
690.168	3780.89
690.358	3604.77
690.547	3545.38
690.737	3598.62
690.926	3541.28
691.116	3655.97
691.305	3619.1
691.495	3615.01
691.684	3422.5
691.874	3473.7
692.063	3600.67
692.252	3477.79
692.442	3561.76
692.631	3539.23
692.82	3524.9
693.01	3492.13
693.199	3359.01
693.388	3483.94
693.578	3426.59
693.767	3537.18
693.956	3477.79
694.146	3318.05
694.335	3297.57
694.524	3379.49
694.713	3463.46
694.902	3426.59
695.092	3545.38
695.281	3381.54
695.47	3463.46
695.659	3404.07
695.848	3356.96
696.037	3379.49
696.226	3367.2
696.415	3361.06
696.604	3395.87
696.793	3361.06
696.982	3428.64
697.171	3297.57
697.36	3406.11
697.549	3295.52
697.738	3232.04
697.927	3240.23
698.116	3260.71
698.305	3273
698.494	3283.24
698.683	3332.39
698.872	3365.15
699.061	3234.08
699.25	3305.76
699.438	3266.85
699.627	3328.29
699.816	3330.34
700.005	3281.19
700.193	3336.48
700.382	3176.74
700.571	3268.9
700.76	3279.14
700.948	3148.07
701.137	3336.48
701.326	3250.47
701.514	3283.24
701.703	3193.12
701.892	3205.41
702.08	3307.81
702.269	3103.01
702.457	3082.53
702.646	3221.8
702.834	3209.51
703.023	3191.08
703.212	3156.26
703.4	3207.46
703.589	3084.58
703.777	3090.73
703.965	3164.45
704.154	3008.81
704.342	3043.62
704.531	3078.44
704.719	3176.74
704.907	3184.93
705.096	3131.69
705.284	3031.34
705.472	3152.17
705.661	3131.69
705.849	3146.02
706.037	3014.95
706.226	2965.8
706.414	2976.04
706.602	3131.69
706.79	3146.02
706.979	3094.82
707.167	3060.01
707.355	3062.05
707.543	3098.92
707.731	2959.66
707.919	2980.14
708.107	3066.15
708.296	3051.81
708.484	2998.57
708.672	2980.14
708.86	3043.62
709.048	3025.19
709.236	3066.15
709.424	2941.22
709.612	2914.6
709.8	3111.21
709.988	2900.27
710.176	2838.83
710.364	2910.5
710.551	2947.37
710.739	2879.79
710.927	2892.07
711.115	2959.66
711.303	2969.9
711.491	2918.7
711.679	2832.68
711.866	2877.74
712.054	2863.4
712.242	2652.46
712.43	2890.03
712.617	2955.56
712.805	2769.2
712.993	2904.36
713.181	2795.82
713.368	2736.43
713.556	2824.49
713.744	2685.23
713.931	2906.41
714.119	2730.28
714.306	2869.55
714.494	2797.87
714.682	2838.83
714.869	2615.6
715.057	2750.76
715.244	2767.15
715.432	2756.91
715.619	2746.67
715.807	2623.79
715.994	2679.08
716.182	2677.04
716.369	2754.86
716.556	2765.1
716.744	2613.55
716.931	2623.79
717.119	2511.15
717.306	2664.75
717.493	2533.68
717.681	2656.56
717.868	2683.18
718.055	2718
718.242	2634.03
718.43	2631.98
718.617	2476.34
718.804	2685.23
718.991	2756.91
719.179	2738.48
719.366	2650.41
719.553	2459.95
719.74	2588.97
719.927	2666.8
720.114	2625.84
720.301	2541.87
720.488	2527.53
720.676	2539.82
720.863	2617.65
721.05	2439.47
721.237	2418.99
721.424	2502.96
721.611	2494.77
721.798	2478.38
721.985	2500.91
722.172	2451.76
722.358	2457.9
722.545	2496.82
722.732	2476.34
722.919	2541.87
723.106	2519.34
723.293	2388.27
723.48	2386.22
723.667	2378.03
723.853	2459.95
724.04	2459.95
724.227	2302.26
724.414	2439.47
724.6	2410.8
724.787	2435.38
724.974	2464.05
725.161	2380.08
725.347	2224.44
725.534	2332.98
725.72	2263.35
725.907	2300.21
726.094	2341.17
726.28	2271.54
726.467	2322.74
726.653	2378.03
726.84	2236.72
727.027	2478.38
727.213	2232.63
727.4	2337.07
727.586	2261.3
727.773	2218.29
727.959	2189.62
728.145	2222.39
728.332	2298.16
728.518	2306.35
728.705	2167.09
728.891	2222.39
729.077	2341.17
729.264	2224.44
729.45	2255.15
729.636	2246.96
729.823	2232.63
730.009	2328.88
730.195	2189.62
730.382	2183.48
730.568	2265.39
730.754	2126.13
730.94	2259.25
731.126	2144.56
731.313	2160.95
731.499	2156.85
731.685	2148.66
731.871	2165.04
732.057	2189.62
732.243	2101.56
732.429	2099.51
732.615	2148.66
732.801	2160.95
732.987	2122.04
733.173	2122.04
733.359	2140.47
733.545	1993.01
733.731	2060.6
733.917	2107.7
734.103	2099.51
734.289	2117.94
734.475	1954.1
734.661	1997.11
734.847	2062.65
735.033	2050.36
735.219	2101.56
735.404	2060.6
735.59	1935.67
735.776	1976.63
735.962	1892.66
736.148	1988.92
736.333	2079.03
736.519	2042.17
736.705	1911.1
736.89	1984.82
737.076	1960.25
737.262	1964.34
737.447	1886.52
737.633	2091.32
737.819	1892.66
738.004	1956.15
738.19	1943.86
738.375	1925.43
738.561	2038.07
738.747	1988.92
738.932	1997.11
739.118	1820.99
739.303	1947.96
739.489	1870.14
739.674	1898.81
739.859	1890.62
740.045	1837.37
740.23	1970.49
740.416	1874.23
740.601	1872.18
740.786	1820.99
740.972	1700.16
741.157	1853.75
741.342	1820.99
741.528	1796.41
741.713	1820.99
741.898	1767.74
742.084	1878.33
742.269	1816.89
742.454	1882.42
742.639	1724.73
742.824	1853.75
743.01	1773.88
743.195	1798.46
743.38	1567.04
743.565	1741.11
743.75	1804.6
743.935	1765.69
744.12	1747.26
744.305	1681.72
744.49	1638.72
744.675	1710.4
744.86	1784.12
745.045	1620.28
745.23	1591.61
745.415	1636.67
745.6	1646.91
745.785	1585.47
745.97	1642.81
746.155	1558.85
746.34	1579.33
746.525	1601.85
746.71	1653.05
746.895	1591.61
747.079	1591.61
747.264	1503.55
747.449	1610.04
747.634	1632.57
747.819	1481.02
748.003	1534.27
748.188	1478.97
748.373	1589.57
748.557	1460.54
748.742	1517.89
748.927	1493.31
749.111	1493.31
749.296	1435.97
749.481	1399.1
749.665	1472.83
749.85	1403.2
750.034	1335.62
750.219	1300.8
750.404	1390.91
750.588	1478.97
750.773	1397.06
750.957	1386.82
751.141	1222.98
751.326	1435.97
751.51	1222.98
751.695	1388.86
751.879	1278.27
752.064	1333.57
752.248	1274.18
752.432	1356.1
752.617	1233.22
752.801	1265.99
752.985	1208.64
753.17	1317.19
753.354	1349.95
753.538	1313.09
753.722	1091.91
753.907	1274.18
754.091	1130.82
754.275	1159.49
754.459	1175.88
754.643	1222.98
754.828	1177.92
755.012	1134.92
755.196	1200.45
755.38	1179.97
755.564	1161.54
755.748	1102.15
755.932	1202.5
756.116	1085.76
756.3	1048.9
756.484	1155.4
756.668	1126.72
756.852	1083.72
757.036	1046.85
757.22	1198.4
757.404	1063.24
757.588	1007.94
757.772	1059.14
757.956	1182.02
758.14	1001.8
758.323	979.27
758.507	1030.47
758.691	1093.96
758.875	1014.09
759.059	1022.28
759.242	948.55
759.426	1063.24
759.61	1018.18
759.794	1032.52
759.977	1026.37
760.161	1026.37
760.345	1014.09
760.528	987.46
760.712	1104.2
760.895	913.74
761.079	958.79
761.263	911.69
761.446	887.11
761.63	928.07
761.813	926.02
761.997	850.25
762.18	964.93
762.364	772.43
762.547	913.74
762.731	897.35
762.914	923.98
763.098	895.3
763.281	819.53
763.464	823.62
763.648	938.31
763.831	854.34
764.015	827.72
764.198	878.92
764.381	823.62
764.564	878.92
764.748	862.54
764.931	903.5
765.114	868.68
765.297	831.82
765.481	866.63
765.664	840.01
765.847	858.44
766.03	866.63
766.213	741.71
766.397	837.96
766.58	782.67
766.763	870.73
766.946	815.43
767.129	848.2
767.312	743.75
767.495	805.19
767.678	721.23
767.861	880.97
768.044	895.3
768.227	837.96
768.41	821.58
768.593	704.84
768.776	864.58
768.959	751.95
769.142	790.86
769.324	817.48
769.507	635.21
769.69	788.81
769.873	739.66
770.056	799.05
770.239	719.18
770.421	776.52
770.604	745.8
770.787	686.41
770.97	772.43
771.152	692.55
771.335	784.71
771.518	694.6
771.7	723.27
771.883	739.66
772.066	657.74
772.248	645.45
772.431	778.57
772.613	747.85
772.796	753.99
772.978	698.7
773.161	715.08
773.343	653.64
773.526	702.79
773.708	665.93
773.891	723.27
774.073	706.89
774.256	665.93
774.438	729.42
774.621	688.46
774.803	584.01
774.985	659.79
775.168	674.12
775.35	600.4
775.532	659.79
775.715	686.41
775.897	649.55
776.079	627.02
776.261	565.58
776.444	620.88
776.626	661.84
776.808	575.82
776.99	604.49
777.173	569.68
777.355	575.82
777.537	545.1
777.719	559.44
777.901	577.87
778.083	534.86
778.265	526.67
778.447	608.59
778.629	526.67
778.811	581.96
778.993	604.49
779.175	551.24
779.357	610.64
779.539	504.14
779.721	452.94
779.903	526.67
780.085	502.09
780.267	604.49
780.449	512.33
780.631	526.67
780.812	559.44
780.994	512.33
781.176	538.96
781.358	491.85
781.54	463.18
781.721	526.67
781.903	551.24
782.085	528.72
782.267	528.72
782.448	438.61
782.63	518.48
782.812	463.18
782.993	471.37
783.175	467.28
783.357	446.8
783.538	430.41
783.72	393.55
783.901	416.08
784.083	379.22
784.264	391.5
784.446	481.61
784.627	444.75
784.809	393.55
784.99	409.94
785.172	485.71
785.353	373.07
785.535	414.03
785.716	389.46
785.897	368.98
786.079	299.34
786.26	348.5
786.441	379.22
786.623	350.54
786.804	350.54
786.985	348.5
787.167	354.64
787.348	379.22
787.529	405.84
787.71	424.27
787.891	407.89
788.073	350.54
788.254	346.45
788.435	407.89
788.616	391.5
788.797	348.5
788.978	364.88
789.159	340.3
789.34	330.06
789.522	334.16
789.703	430.41
789.884	278.87
790.065	250.19
790.246	395.6
790.427	338.26
790.607	299.34
790.788	391.5
790.969	321.87
791.15	387.41
791.331	356.69
791.512	411.98
791.693	315.73
791.874	307.54
792.054	354.64
792.235	364.88
792.416	266.58
792.597	280.91
792.778	278.87
792.958	317.78
793.139	301.39
793.32	282.96
793.5	272.72
793.681	358.74
793.862	342.35
794.042	256.34
794.223	336.21
794.404	198.99
794.584	313.68
794.765	225.62
794.945	242
795.126	252.24
795.306	311.63
795.487	285.01
795.667	289.1
795.848	264.53
796.028	299.34
796.209	246.1
796.389	264.53
796.57	242
796.75	223.57
796.93	268.63
797.111	266.58
797.291	272.72
797.471	272.72
797.652	201.04
797.832	248.15
798.012	211.28
798.192	233.81
798.373	155.99
798.553	301.39
798.733	194.9
798.913	272.72
799.093	225.62
799.274	297.3
799.454	282.96
799.634	291.15
799.814	201.04
799.994	219.47
800.174	219.47
800.354	205.14
800.534	252.24
800.714	248.15
800.894	160.08
801.074	201.04
801.254	213.33
801.434	213.33
801.614	211.28
801.794	264.53
801.974	811.34
802.154	289.1
802.334	239.95
802.514	158.03
802.693	182.61
802.873	198.99
803.053	291.15
803.233	211.28
803.413	215.38
803.592	217.43
803.772	223.57
803.952	129.36
804.131	205.14
804.311	266.58
804.491	299.34
804.67	192.85
804.85	198.99
805.03	217.43
805.209	274.77
805.389	233.81
805.568	192.85
805.748	176.47
805.928	160.08
806.107	231.76
806.287	233.81
806.466	182.61
806.646	149.84
806.825	207.19
807.004	184.66
807.184	190.8
807.363	219.47
807.543	133.46
807.722	61.78
807.901	276.82
808.081	203.09
808.26	108.88
808.439	112.98
808.619	166.23
808.798	78.16
808.977	213.33
809.156	201.04
809.336	143.7
809.515	190.8
809.694	188.75
809.873	129.36
810.052	170.32
810.231	196.95
810.411	229.71
810.59	227.67
810.769	137.56
810.948	174.42
811.127	201.04
811.306	127.32
811.485	106.84
811.664	184.66
811.843	104.79
812.022	211.28
812.201	133.46
812.38	192.85
812.559	86.36
812.737	115.03
812.916	174.42
813.095	158.03
813.274	67.92
813.453	158.03
813.632	164.18
813.811	166.23
813.989	137.56
814.168	121.17
814.347	145.75
814.526	192.85
814.704	168.27
814.883	162.13
815.062	108.88
815.24	149.84
815.419	115.03
815.598	119.12
815.776	104.79
815.955	158.03
816.133	67.92
816.312	160.08
816.49	67.92
816.669	125.27
816.847	76.12
817.026	166.23
817.204	168.27
817.383	108.88
817.561	67.92
817.74	137.56
817.918	168.27
818.097	121.17
818.275	31.06
818.453	149.84
818.632	149.84
818.81	153.94
818.988	158.03
819.167	117.08
819.345	57.68
819.523	51.54
819.701	119.12
819.879	80.21
820.058	158.03
820.236	221.52
820.414	145.75
820.592	121.17
820.77	110.93
820.948	92.5
821.127	127.32
821.305	139.6
821.483	84.31
821.661	190.8
821.839	92.5
822.017	43.35
822.195	184.66
822.373	170.32
822.551	102.74
822.729	207.19
822.907	35.16
823.085	61.78
823.262	135.51
823.44	55.64
823.618	92.5
823.796	51.54
823.974	80.21
824.152	78.16
824.329	100.69
824.507	117.08
824.685	20.82
824.863	119.12
825.04	92.5
825.218	110.93
825.396	-1.71
825.574	209.23
825.751	100.69
825.929	149.84
826.107	100.69
826.284	121.17
826.462	162.13
826.639	104.79
826.817	63.83
826.994	176.47
827.172	151.89
827.349	184.66
827.527	92.5
827.704	106.84
827.882	149.84
828.059	74.07
828.237	22.87
828.414	174.42
828.591	-1.71
828.769	155.99
828.946	18.77
829.124	135.51
829.301	133.46
829.478	133.46
829.655	141.65
829.833	141.65
830.01	80.21
830.187	100.69
830.364	53.59
830.542	88.4
830.719	80.21
830.896	108.88
831.073	63.83
831.25	131.41
831.427	125.27
831.604	80.21
831.782	110.93
831.959	104.79
832.136	47.44
832.313	90.45
832.49	129.36
832.667	76.12
832.844	192.85
833.021	100.69
833.198	119.12
833.374	88.4
833.551	53.59
833.728	47.44
833.905	106.84
834.082	57.68
834.259	188.75
834.436	106.84
834.612	35.16
834.789	108.88
834.966	90.45
835.143	110.93
835.319	47.44
835.496	20.82
835.673	39.25
835.85	74.07
836.026	108.88
836.203	69.97
836.38	76.12
836.556	69.97
836.733	86.36
836.909	86.36
837.086	100.69
837.262	43.35
837.439	26.96
837.616	39.25
837.792	43.35
837.968	67.92
838.145	20.82
838.321	57.68
838.498	119.12
838.674	137.56
838.851	63.83
839.027	61.78
839.203	35.16
839.38	59.73
839.556	106.84
839.732	41.3
839.909	6.49
840.085	-5.8
840.261	-5.8
840.437	35.16
840.614	22.87
840.79	125.27
840.966	69.97
841.142	51.54
841.318	35.16
841.494	76.12
841.671	112.98
841.847	-7.85
842.023	131.41
842.199	35.16
842.375	127.32
842.551	67.92
842.727	65.88
842.903	86.36
843.079	51.54
843.255	84.31
843.431	86.36
843.607	72.02
843.783	51.54
843.959	102.74
844.134	76.12
844.31	69.97
844.486	43.35
844.662	135.51
844.838	72.02
845.013	39.25
845.189	129.36
845.365	35.16
845.541	61.78
845.716	67.92
845.892	67.92
846.068	78.16
846.244	26.96
846.419	69.97
846.595	33.11
846.77	14.68
846.946	76.12
847.122	24.92
847.297	-5.8
847.473	88.4
847.648	26.96
847.824	92.5
847.999	29.01
848.175	22.87
848.35	69.97
848.526	92.5
848.701	110.93
848.876	117.08
849.052	31.06
849.227	-18.09
849.403	47.44
849.578	18.77
849.753	0.34
849.929	35.16
850.104	53.59
850.279	76.12
850.454	61.78
850.63	92.5
850.805	-3.75
850.98	86.36
851.155	76.12
851.33	20.82
851.505	4.44
851.681	141.65
851.856	84.31
852.031	92.5
852.206	47.44
852.381	10.58
852.556	149.84
852.731	0.34
852.906	35.16
853.081	104.79
853.256	84.31
853.431	18.77
853.606	31.06
853.781	86.36
853.956	18.77
854.131	86.36
854.305	10.58
854.48	63.83
854.655	-1.71
854.83	4.44
855.005	16.73
855.18	12.63
855.354	47.44
855.529	4.44
855.704	12.63
855.879	72.02
856.053	43.35
856.228	67.92
856.403	20.82
856.577	121.17
856.752	-26.28
856.926	117.08
857.101	24.92
857.276	51.54
857.45	100.69
857.625	53.59
857.799	149.84
857.974	41.3
858.148	-71.34
858.323	92.5
858.497	57.68
858.672	39.25
858.846	4.44
859.02	59.73
859.195	16.73
859.369	10.58
859.543	100.69
859.718	29.01
859.892	43.35
860.066	26.96
860.241	-16.04
860.415	80.21
860.589	-30.38
860.763	26.96
860.938	20.82
861.112	6.49
861.286	12.63
861.46	51.54
861.634	-26.28
861.808	92.5
861.982	100.69
862.157	-1.71
862.331	100.69
862.505	53.59
862.679	-3.75
862.853	61.78
863.027	59.73
863.201	22.87
863.375	-54.95
863.549	-11.95
863.722	51.54
863.896	61.78
864.07	51.54
864.244	10.58
864.418	84.31
864.592	69.97
864.766	-36.52
864.939	4.44
865.113	6.49
865.287	20.82
865.461	26.96
865.634	72.02
865.808	78.16
865.982	92.5
866.156	-52.91
866.329	31.06
866.503	2.39
866.676	63.83
866.85	100.69
867.024	65.88
867.197	39.25
867.371	33.11
867.544	-38.57
867.718	78.16
867.891	59.73
868.065	35.16
868.238	31.06
868.412	67.92
868.585	51.54
868.759	39.25
868.932	18.77
869.105	51.54
869.279	55.64
869.452	45.4
869.625	24.92
869.799	72.02
869.972	-1.71
870.145	-5.8
870.319	35.16
870.492	24.92
870.665	-9.9
870.838	-11.95
871.011	12.63
871.185	47.44
871.358	26.96
871.531	6.49
871.704	16.73
871.877	92.5
872.05	78.16
872.223	61.78
872.396	96.6
872.569	51.54
872.742	-13.99
872.915	37.2
873.088	53.59
873.261	-22.19
873.434	29.01
873.607	0.34
873.78	67.92
873.953	-22.19
874.126	24.92
874.299	39.25
874.471	-30.38
874.644	10.58
874.817	18.77
874.99	84.31
875.163	53.59
875.335	-20.14
875.508	6.49
875.681	90.45
875.853	4.44
876.026	74.07
876.199	98.64
876.371	45.4
876.544	-5.8
876.717	-20.14
876.889	12.63
877.062	119.12
877.234	-20.14
877.407	-13.99
877.579	78.16
877.752	12.63
877.924	43.35
878.097	16.73
878.269	61.78
878.442	57.68
878.614	24.92
878.786	47.44
878.959	26.96
879.131	18.77
879.303	-59.05
879.476	-9.9
879.648	24.92
879.82	39.25
879.993	43.35
880.165	67.92
880.337	53.59
880.509	31.06
880.681	-30.38
880.854	-5.8
881.026	59.73
881.198	76.12
881.37	69.97
881.542	43.35
881.714	-13.99
881.886	-28.33
882.058	43.35
882.23	59.73
882.402	-30.38
882.574	18.77
882.746	-36.52
882.918	14.68
883.09	-5.8
883.262	82.26
883.434	45.4
883.606	-22.19
883.778	31.06
883.95	106.84
884.122	35.16
884.293	82.26
884.465	2.39
884.637	37.2
884.809	-1.71
884.98	84.31
885.152	37.2
885.324	18.77
885.496	8.53
885.667	-5.8
885.839	74.07
886.011	104.79
886.182	84.31
886.354	92.5
886.525	119.12
886.697	29.01
886.869	-16.04
887.04	49.49
887.212	139.6
887.383	55.64
887.555	39.25
887.726	6.49
887.897	14.68
888.069	65.88
888.24	16.73
888.412	35.16
888.583	20.82
888.754	-52.91
888.926	-11.95
889.097	39.25
889.268	-13.99
889.44	86.36
889.611	63.83
889.782	53.59
889.953	57.68
890.125	80.21
890.296	-38.57
890.467	29.01
890.638	-1.71
890.809	4.44
890.98	-46.76
891.151	82.26
891.323	51.54
891.494	59.73
891.665	49.49
891.836	2.39
892.007	63.83
892.178	43.35
892.349	84.31
892.52	37.2
892.691	6.49
892.862	2.39
893.032	41.3
893.203	47.44
893.374	-11.95
893.545	26.96
893.716	26.96
893.887	37.2
894.057	22.87
894.228	-59.05
894.399	-5.8
894.57	100.69
894.74	18.77
894.911	6.49
895.082	-28.33
895.253	-28.33
895.423	-63.15
895.594	61.78
895.764	-11.95
895.935	14.68
896.106	-5.8
896.276	-11.95
896.447	63.83
896.617	4.44
896.788	14.68
896.958	47.44
897.129	53.59
897.299	61.78
897.47	57.68
897.64	-16.04
897.81	-50.86
897.981	10.58
898.151	-1.71
898.322	135.51
898.492	8.53
898.662	29.01
898.832	-44.71
899.003	-28.33
899.173	43.35
899.343	88.4
899.513	-18.09
