Data from USB4F104151__278__14-23-25-984.txt Node

Date: Thu Mar 13 14:23:25 EDT 2025
User: louis
Spectrometer: USB4F10415
Trigger mode: 4
Integration Time (sec): 2.000000E-2
Scans to average: 1
Electric dark correction enabled: true
Nonlinearity correction enabled: false
Boxcar width: 0
XAxis mode: Wavelengths
Number of Pixels in Spectrum: 3648
>>>>>Begin Spectral Data<<<<<
178.204	-66.9
178.424	-66.9
178.644	-66.9
178.864	-175.44
179.084	-116.05
179.304	-11.61
179.524	-9.56
179.744	6.83
179.964	21.16
180.184	-3.41
180.404	53.93
180.624	-62.8
180.844	-19.8
181.064	-58.71
181.283	-11.61
181.503	-23.89
181.723	119.46
181.943	-56.66
182.163	70.31
182.383	45.74
182.602	37.55
182.822	78.51
183.042	101.03
183.262	33.45
183.482	17.07
183.701	41.64
183.921	17.07
184.141	-32.08
184.361	21.16
184.58	23.21
184.8	64.17
185.02	25.26
185.239	55.98
185.459	-1.37
185.679	45.74
185.898	-36.18
186.118	-1.37
186.338	-32.08
186.557	96.94
186.777	55.98
186.997	80.55
187.216	21.16
187.436	49.83
187.655	-58.71
187.875	29.35
188.095	62.12
188.314	109.22
188.534	55.98
188.753	-3.41
188.973	37.55
189.192	49.83
189.412	82.6
189.631	21.16
189.851	35.5
190.07	133.8
190.29	25.26
190.509	29.35
190.729	-34.13
190.948	4.78
191.168	144.04
191.387	37.55
191.607	6.83
191.826	35.5
192.045	82.6
192.265	8.87
192.484	39.59
192.704	33.45
192.923	4.78
193.142	90.79
193.362	119.46
193.581	88.75
193.8	39.59
194.02	78.51
194.239	25.26
194.458	64.17
194.678	33.45
194.897	58.03
195.116	90.79
195.335	-56.66
195.555	64.17
195.774	129.7
195.993	49.83
196.212	66.22
196.432	55.98
196.651	17.07
196.87	23.21
197.089	105.13
197.308	-25.94
197.528	92.84
197.747	29.35
197.966	45.74
198.185	31.4
198.404	17.07
198.623	47.79
198.842	94.89
199.062	86.7
199.281	58.03
199.5	25.26
199.719	127.66
199.938	47.79
200.157	15.02
200.376	70.31
200.595	-19.8
200.814	-3.41
201.033	78.51
201.252	49.83
201.471	53.93
201.69	96.94
201.909	84.65
202.128	49.83
202.347	25.26
202.566	62.12
202.785	21.16
203.004	-87.38
203.223	78.51
203.442	103.08
203.661	-9.56
203.879	49.83
204.098	47.79
204.317	0.68
204.536	39.59
204.755	72.36
204.974	55.98
205.193	21.16
205.411	78.51
205.63	66.22
205.849	25.26
206.068	96.94
206.287	12.97
206.505	86.7
206.724	0.68
206.943	-3.41
207.162	37.55
207.381	64.17
207.599	66.22
207.818	78.51
208.037	45.74
208.255	23.21
208.474	58.03
208.693	-11.61
208.911	78.51
209.13	47.79
209.349	47.79
209.567	76.46
209.786	62.12
210.005	25.26
210.223	31.4
210.442	-7.51
210.661	4.78
210.879	-21.85
211.098	25.26
211.316	15.02
211.535	58.03
211.753	72.36
211.972	-23.89
212.191	51.88
212.409	55.98
212.628	66.22
212.846	45.74
213.065	15.02
213.283	8.87
213.502	31.4
213.72	80.55
213.938	45.74
214.157	62.12
214.375	31.4
214.594	-1.37
214.812	39.59
215.031	-81.24
215.249	-1.37
215.467	103.08
215.686	0.68
215.904	115.37
216.122	12.97
216.341	45.74
216.559	103.08
216.778	41.64
216.996	53.93
217.214	94.89
217.432	53.93
217.651	6.83
217.869	25.26
218.087	78.51
218.306	-3.41
218.524	35.5
218.742	37.55
218.96	103.08
219.179	66.22
219.397	94.89
219.615	15.02
219.833	66.22
220.051	64.17
220.27	111.27
220.488	-1.37
220.706	-11.61
220.924	33.45
221.142	6.83
221.36	70.31
221.578	60.07
221.796	25.26
222.015	58.03
222.233	72.36
222.451	4.78
222.669	12.97
222.887	74.41
223.105	-3.41
223.323	0.68
223.541	-44.37
223.759	51.88
223.977	45.74
224.195	39.59
224.413	2.73
224.631	55.98
224.849	96.94
225.067	53.93
225.285	4.78
225.503	49.83
225.721	33.45
225.939	-3.41
226.157	4.78
226.375	137.9
226.592	37.55
226.81	-27.99
227.028	37.55
227.246	119.46
227.464	76.46
227.682	109.22
227.9	19.11
228.117	25.26
228.335	-38.23
228.553	53.93
228.771	29.35
228.989	-9.56
229.206	-11.61
229.424	19.11
229.642	15.02
229.86	21.16
230.077	43.69
230.295	51.88
230.513	33.45
230.731	51.88
230.948	39.59
231.166	70.31
231.384	25.26
231.601	21.16
231.819	94.89
232.037	6.83
232.254	21.16
232.472	29.35
232.689	2.73
232.907	60.07
233.125	25.26
233.342	17.07
233.56	45.74
233.777	33.45
233.995	4.78
234.213	80.55
234.43	92.84
234.648	47.79
234.865	37.55
235.083	70.31
235.3	33.45
235.518	90.79
235.735	55.98
235.953	111.27
236.17	117.42
236.388	-91.48
236.605	37.55
236.822	58.03
237.04	92.84
237.257	66.22
237.475	17.07
237.692	-13.65
237.909	-19.8
238.127	12.97
238.344	45.74
238.562	78.51
238.779	8.87
238.996	17.07
239.214	25.26
239.431	21.16
239.648	-3.41
239.865	72.36
240.083	41.64
240.3	82.6
240.517	-60.76
240.735	84.65
240.952	41.64
241.169	66.22
241.386	-3.41
241.603	21.16
241.821	2.73
242.038	43.69
242.255	-13.65
242.472	-1.37
242.689	70.31
242.907	82.6
243.124	41.64
243.341	62.12
243.558	15.02
243.775	15.02
243.992	39.59
244.209	70.31
244.426	68.27
244.643	64.17
244.86	-11.61
245.078	39.59
245.295	15.02
245.512	80.55
245.729	15.02
245.946	35.5
246.163	70.31
246.38	6.83
246.597	-19.8
246.814	17.07
247.031	41.64
247.248	55.98
247.464	-11.61
247.681	17.07
247.898	15.02
248.115	37.55
248.332	-3.41
248.549	129.7
248.766	94.89
248.983	105.13
249.2	154.28
249.417	152.23
249.633	53.93
249.85	15.02
250.067	94.89
250.284	62.12
250.501	90.79
250.717	70.31
250.934	8.87
251.151	31.4
251.368	53.93
251.585	37.55
251.801	45.74
252.018	55.98
252.235	53.93
252.451	131.75
252.668	47.79
252.885	55.98
253.102	47.79
253.318	-7.51
253.535	33.45
253.752	-19.8
253.968	-25.94
254.185	-30.04
254.401	21.16
254.618	-15.7
254.835	64.17
255.051	12.97
255.268	-13.65
255.484	-11.61
255.701	25.26
255.917	86.7
256.134	53.93
256.351	64.17
256.567	-7.51
256.784	17.07
257	-42.32
257.217	64.17
257.433	80.55
257.65	47.79
257.866	70.31
258.082	21.16
258.299	39.59
258.515	70.31
258.732	10.92
258.948	31.4
259.165	-3.41
259.381	15.02
259.597	53.93
259.814	113.32
260.03	-17.75
260.246	64.17
260.463	49.83
260.679	23.21
260.895	103.08
261.112	107.18
261.328	111.27
261.544	-77.14
261.761	80.55
261.977	12.97
262.193	-30.04
262.409	37.55
262.626	4.78
262.842	72.36
263.058	47.79
263.274	60.07
263.49	4.78
263.707	80.55
263.923	31.4
264.139	-109.91
264.355	37.55
264.571	37.55
264.787	78.51
265.004	33.45
265.22	-73.04
265.436	12.97
265.652	29.35
265.868	12.97
266.084	-60.76
266.3	64.17
266.516	-17.75
266.732	68.27
266.948	-36.18
267.164	146.09
267.38	121.51
267.596	113.32
267.812	88.75
268.028	33.45
268.244	25.26
268.46	31.4
268.676	4.78
268.892	55.98
269.108	58.03
269.324	70.31
269.54	60.07
269.756	103.08
269.972	0.68
270.188	6.83
270.403	6.83
270.619	58.03
270.835	4.78
271.051	-7.51
271.267	0.68
271.483	76.46
271.698	70.31
271.914	23.21
272.13	-7.51
272.346	72.36
272.562	-15.7
272.777	23.21
272.993	37.55
273.209	12.97
273.425	39.59
273.64	80.55
273.856	68.27
274.072	23.21
274.287	47.79
274.503	-1.37
274.719	72.36
274.934	-50.52
275.15	-32.08
275.366	68.27
275.581	23.21
275.797	37.55
276.012	33.45
276.228	-21.85
276.444	55.98
276.659	66.22
276.875	10.92
277.09	-36.18
277.306	-7.51
277.521	86.7
277.737	12.97
277.952	45.74
278.168	6.83
278.383	58.03
278.599	72.36
278.814	27.31
279.03	41.64
279.245	49.83
279.461	66.22
279.676	86.7
279.892	45.74
280.107	21.16
280.322	-27.99
280.538	62.12
280.753	45.74
280.969	23.21
281.184	27.31
281.399	86.7
281.615	109.22
281.83	43.69
282.045	33.45
282.26	86.7
282.476	8.87
282.691	47.79
282.906	-11.61
283.122	86.7
283.337	25.26
283.552	82.6
283.767	-148.82
283.983	53.93
284.198	74.41
284.413	45.74
284.628	66.22
284.843	37.55
285.058	70.31
285.274	8.87
285.489	94.89
285.704	66.22
285.919	51.88
286.134	12.97
286.349	-9.56
286.564	33.45
286.779	-25.94
286.995	62.12
287.21	31.4
287.425	55.98
287.64	23.21
287.855	80.55
288.07	-7.51
288.285	70.31
288.5	53.93
288.715	125.61
288.93	-15.7
289.145	72.36
289.36	70.31
289.575	-25.94
289.79	76.46
290.004	64.17
290.219	115.37
290.434	94.89
290.649	4.78
290.864	45.74
291.079	86.7
291.294	-9.56
291.509	115.37
291.724	35.5
291.938	58.03
292.153	105.13
292.368	66.22
292.583	86.7
292.798	86.7
293.012	37.55
293.227	43.69
293.442	51.88
293.657	12.97
293.871	58.03
294.086	17.07
294.301	94.89
294.516	-60.76
294.73	-7.51
294.945	35.5
295.16	72.36
295.374	45.74
295.589	29.35
295.804	35.5
296.018	21.16
296.233	119.46
296.447	6.83
296.662	31.4
296.877	107.18
297.091	123.56
297.306	72.36
297.52	-11.61
297.735	21.16
297.949	49.83
298.164	111.27
298.378	131.75
298.593	37.55
298.807	64.17
299.022	37.55
299.236	82.6
299.451	31.4
299.665	33.45
299.88	64.17
300.094	66.22
300.309	15.02
300.523	12.97
300.737	78.51
300.952	66.22
301.166	17.07
301.381	0.68
301.595	41.64
301.809	49.83
302.024	62.12
302.238	31.4
302.452	162.47
302.667	45.74
302.881	82.6
303.095	51.88
303.309	53.93
303.524	53.93
303.738	15.02
303.952	31.4
304.166	39.59
304.381	-46.42
304.595	76.46
304.809	25.26
305.023	-34.13
305.237	66.22
305.452	70.31
305.666	66.22
305.88	84.65
306.094	80.55
306.308	53.93
306.522	139.94
306.736	23.21
306.95	47.79
307.164	31.4
307.379	78.51
307.593	86.7
307.807	74.41
308.021	107.18
308.235	-5.46
308.449	25.26
308.663	21.16
308.877	127.66
309.091	72.36
309.305	21.16
309.519	62.12
309.733	96.94
309.947	78.51
310.161	76.46
310.374	76.46
310.588	37.55
310.802	45.74
311.016	21.16
311.23	15.02
311.444	8.87
311.658	41.64
311.872	94.89
312.085	21.16
312.299	27.31
312.513	49.83
312.727	53.93
312.941	62.12
313.154	10.92
313.368	111.27
313.582	80.55
313.796	86.7
314.009	41.64
314.223	94.89
314.437	78.51
314.651	72.36
314.864	-9.56
315.078	80.55
315.292	-56.66
315.505	-15.7
315.719	12.97
315.933	64.17
316.146	17.07
316.36	31.4
316.573	39.59
316.787	94.89
317.001	53.93
317.214	-19.8
317.428	72.36
317.641	-21.85
317.855	70.31
318.068	12.97
318.282	25.26
318.495	66.22
318.709	35.5
318.922	43.69
319.136	70.31
319.349	60.07
319.563	70.31
319.776	31.4
319.99	21.16
320.203	47.79
320.417	66.22
320.63	-3.41
320.843	84.65
321.057	72.36
321.27	90.79
321.483	8.87
321.697	86.7
321.91	82.6
322.124	74.41
322.337	74.41
322.55	21.16
322.763	8.87
322.977	31.4
323.19	-3.41
323.403	78.51
323.617	66.22
323.83	113.32
324.043	84.65
324.256	49.83
324.469	-36.18
324.683	86.7
324.896	53.93
325.109	29.35
325.322	39.59
325.535	15.02
325.748	49.83
325.962	29.35
326.175	55.98
326.388	127.66
326.601	58.03
326.814	21.16
327.027	37.55
327.24	64.17
327.453	43.69
327.666	-5.46
327.879	-7.51
328.092	62.12
328.305	37.55
328.518	-3.41
328.731	86.7
328.944	62.12
329.157	25.26
329.37	41.64
329.583	66.22
329.796	78.51
330.009	-5.46
330.222	62.12
330.435	41.64
330.648	76.46
330.861	12.97
331.073	37.55
331.286	43.69
331.499	66.22
331.712	64.17
331.925	27.31
332.138	82.6
332.35	58.03
332.563	15.02
332.776	62.12
332.989	98.99
333.202	15.02
333.414	70.31
333.627	117.42
333.84	68.27
334.053	10.92
334.265	180.9
334.478	35.5
334.691	-9.56
334.903	-19.8
335.116	82.6
335.329	10.92
335.541	72.36
335.754	29.35
335.966	94.89
336.179	0.68
336.392	41.64
336.604	15.02
336.817	133.8
337.029	21.16
337.242	43.69
337.454	55.98
337.667	123.56
337.88	74.41
338.092	37.55
338.305	70.31
338.517	-15.7
338.729	123.56
338.942	53.93
339.154	6.83
339.367	47.79
339.579	47.79
339.792	47.79
340.004	78.51
340.217	39.59
340.429	-19.8
340.641	-7.51
340.854	53.93
341.066	23.21
341.278	117.42
341.491	107.18
341.703	0.68
341.915	-5.46
342.128	45.74
342.34	6.83
342.552	39.59
342.764	23.21
342.977	105.13
343.189	58.03
343.401	29.35
343.613	98.99
343.826	76.46
344.038	-3.41
344.25	94.89
344.462	4.78
344.674	129.7
344.886	62.12
345.099	68.27
345.311	43.69
345.523	29.35
345.735	96.94
345.947	80.55
346.159	33.45
346.371	129.7
346.583	10.92
346.795	47.79
347.007	33.45
347.219	-15.7
347.431	80.55
347.643	12.97
347.855	25.26
348.067	137.9
348.279	6.83
348.491	55.98
348.703	90.79
348.915	86.7
349.127	15.02
349.339	25.26
349.551	19.11
349.763	66.22
349.975	51.88
350.187	51.88
350.399	6.83
350.61	103.08
350.822	53.93
351.034	47.79
351.246	62.12
351.458	25.26
351.669	6.83
351.881	90.79
352.093	70.31
352.305	119.46
352.517	37.55
352.728	66.22
352.94	70.31
353.152	96.94
353.363	21.16
353.575	139.94
353.787	123.56
353.999	90.79
354.21	152.23
354.422	-3.41
354.633	105.13
354.845	123.56
355.057	68.27
355.268	-3.41
355.48	47.79
355.692	-7.51
355.903	51.88
356.115	21.16
356.326	98.99
356.538	35.5
356.749	80.55
356.961	62.12
357.172	47.79
357.384	-9.56
357.595	152.23
357.807	-9.56
358.018	25.26
358.23	82.6
358.441	94.89
358.653	88.75
358.864	101.03
359.075	55.98
359.287	137.9
359.498	82.6
359.709	37.55
359.921	-1.37
360.132	78.51
360.344	33.45
360.555	37.55
360.766	176.81
360.977	70.31
361.189	103.08
361.4	-1.37
361.611	72.36
361.823	94.89
362.034	82.6
362.245	-75.09
362.456	64.17
362.667	96.94
362.879	37.55
363.09	37.55
363.301	70.31
363.512	0.68
363.723	29.35
363.935	86.7
364.146	107.18
364.357	78.51
364.568	88.75
364.779	-21.85
364.99	96.94
365.201	39.59
365.412	23.21
365.623	-27.99
365.834	68.27
366.045	45.74
366.256	72.36
366.467	66.22
366.678	94.89
366.889	125.61
367.1	45.74
367.311	107.18
367.522	31.4
367.733	111.27
367.944	41.64
368.155	80.55
368.366	94.89
368.577	4.78
368.788	103.08
368.999	47.79
369.209	55.98
369.42	152.23
369.631	119.46
369.842	29.35
370.053	119.46
370.264	68.27
370.474	53.93
370.685	37.55
370.896	129.7
371.107	88.75
371.317	-23.89
371.528	23.21
371.739	111.27
371.95	74.41
372.16	94.89
372.371	-17.75
372.582	41.64
372.792	111.27
373.003	39.59
373.214	76.46
373.424	19.11
373.635	101.03
373.846	94.89
374.056	84.65
374.267	80.55
374.477	66.22
374.688	62.12
374.898	146.09
375.109	80.55
375.319	21.16
375.53	80.55
375.74	78.51
375.951	62.12
376.161	53.93
376.372	90.79
376.582	74.41
376.793	187.05
377.003	17.07
377.214	53.93
377.424	31.4
377.635	39.59
377.845	21.16
378.055	37.55
378.266	51.88
378.476	12.97
378.686	53.93
378.897	49.83
379.107	98.99
379.317	146.09
379.528	111.27
379.738	101.03
379.948	45.74
380.158	158.38
380.369	96.94
380.579	29.35
380.789	96.94
380.999	43.69
381.21	80.55
381.42	123.56
381.63	86.7
381.84	21.16
382.05	86.7
382.261	82.6
382.471	94.89
382.681	117.42
382.891	80.55
383.101	62.12
383.311	12.97
383.521	62.12
383.731	131.75
383.941	94.89
384.151	127.66
384.361	94.89
384.571	35.5
384.781	154.28
384.991	119.46
385.201	41.64
385.411	0.68
385.621	146.09
385.831	45.74
386.041	90.79
386.251	17.07
386.461	98.99
386.671	25.26
386.881	-19.8
387.091	86.7
387.301	88.75
387.511	96.94
387.72	172.71
387.93	160.42
388.14	53.93
388.35	55.98
388.56	139.94
388.769	80.55
388.979	80.55
389.189	8.87
389.399	15.02
389.609	62.12
389.818	139.94
390.028	-11.61
390.238	58.03
390.447	23.21
390.657	78.51
390.867	80.55
391.076	12.97
391.286	113.32
391.496	96.94
391.705	86.7
391.915	37.55
392.125	53.93
392.334	139.94
392.544	148.14
392.753	103.08
392.963	12.97
393.172	127.66
393.382	178.86
393.591	164.52
393.801	86.7
394.01	137.9
394.22	137.9
394.429	123.56
394.639	45.74
394.848	166.57
395.058	80.55
395.267	72.36
395.477	70.31
395.686	64.17
395.895	187.05
396.105	162.47
396.314	66.22
396.524	146.09
396.733	94.89
396.942	131.75
397.152	154.28
397.361	115.37
397.57	129.7
397.78	144.04
397.989	127.66
398.198	201.38
398.407	135.85
398.617	96.94
398.826	103.08
399.035	150.18
399.244	135.85
399.453	127.66
399.663	193.19
399.872	107.18
400.081	78.51
400.29	152.23
400.499	119.46
400.708	137.9
400.917	62.12
401.127	86.7
401.336	148.14
401.545	129.7
401.754	103.08
401.963	197.29
402.172	160.42
402.381	195.24
402.59	103.08
402.799	144.04
403.008	146.09
403.217	201.38
403.426	115.37
403.635	115.37
403.844	160.42
404.053	129.7
404.262	148.14
404.471	252.58
404.68	197.29
404.888	197.29
405.097	135.85
405.306	195.24
405.515	236.2
405.724	195.24
405.933	178.86
406.142	154.28
406.35	201.38
406.559	191.14
406.768	201.38
406.977	250.53
407.185	223.91
407.394	234.15
407.603	275.11
407.812	332.45
408.02	252.58
408.229	217.77
408.438	275.11
408.646	234.15
408.855	322.21
409.064	375.46
409.272	285.35
409.481	344.74
409.69	348.84
409.898	283.3
410.107	340.65
410.315	397.99
410.524	389.8
410.733	410.28
410.941	500.39
411.15	451.24
411.358	424.61
411.567	488.1
411.775	453.28
411.984	522.91
412.192	506.53
412.401	463.52
412.609	535.2
412.818	549.54
413.026	629.41
413.234	610.98
413.443	586.4
413.651	623.27
413.86	627.36
414.068	682.66
414.276	772.77
414.485	664.22
414.693	725.66
414.901	770.72
415.11	967.32
415.318	834.21
415.526	803.49
415.734	895.64
415.943	838.3
416.151	938.65
416.359	897.69
416.567	946.84
416.776	1061.53
416.984	1079.96
417.192	1108.63
417.4	1215.13
417.608	1118.87
417.817	1223.32
418.025	1258.14
418.233	1393.3
418.441	1383.06
418.649	1299.09
418.857	1440.4
419.065	1505.94
419.273	1495.7
419.481	1516.18
419.689	1655.44
419.897	1716.88
420.105	1778.32
420.313	1788.56
420.521	1813.13
420.729	1872.53
420.937	1962.64
421.145	2038.41
421.353	2093.71
421.561	2198.15
421.769	2216.58
421.977	2323.08
422.185	2325.13
422.393	2384.52
422.601	2601.6
422.809	2677.38
423.017	2601.6
423.224	2691.71
423.432	2851.46
423.64	2718.34
423.848	2962.05
424.056	2880.13
424.263	3289.72
424.471	3259
424.679	3281.53
424.887	3302.01
425.094	3621.49
425.302	3512.95
425.51	3674.74
425.718	3857.01
425.925	3957.36
426.133	3938.93
426.341	4231.79
426.548	4403.82
426.756	4403.82
426.964	4534.89
427.171	4659.81
427.379	4665.96
427.586	4903.52
427.794	5010.01
428.001	5239.39
428.209	5421.66
428.417	5431.9
428.624	5896.78
428.832	5763.67
429.039	5644.88
429.247	5769.81
429.454	6308.43
429.662	6847.04
429.869	6263.37
430.076	6726.21
430.284	6509.13
430.491	6787.65
430.699	7262.78
430.906	7232.06
431.114	7451.19
431.321	7567.93
431.528	7742
431.736	8303.15
431.943	8436.27
432.15	8315.44
432.358	8540.71
432.565	8987.17
432.772	8862.24
432.979	9269.79
433.187	9398.81
433.394	9417.24
433.601	10017.3
433.808	10226.19
434.016	10220.05
434.223	10439.18
434.43	11268.61
434.637	10961.41
434.844	11592.19
435.052	11624.95
435.259	11620.86
435.466	11885.05
435.673	11559.42
435.88	12495.34
436.087	13119.97
436.294	13156.83
436.501	13003.24
436.708	13091.3
436.915	13734.36
437.122	14307.79
437.329	14014.93
437.537	14582.22
437.743	14752.2
437.95	14649.8
438.157	15352.26
438.364	15962.55
438.571	15987.13
438.778	15851.96
438.985	17643.93
439.192	16865.71
439.399	17265.06
439.606	17095.08
439.813	18031
440.02	19089.8
440.227	18526.61
440.433	18233.75
440.64	19065.22
440.847	18846.09
441.054	19396.99
441.261	20851.05
441.467	20171.13
441.674	20943.21
441.881	21592.42
442.088	21309.8
442.294	21367.14
442.501	21979.48
442.708	22407.51
442.914	22851.92
443.121	23945.53
443.328	23644.48
443.534	25139.5
443.741	24494.39
443.948	24029.5
444.154	25612.58
444.361	25688.35
444.568	26222.87
444.774	25485.61
444.981	25878.82
445.187	26812.69
445.394	28303.61
445.6	27603.21
445.807	29925.6
446.013	28756.21
446.22	29227.24
446.426	30245.09
446.633	30468.31
446.839	32121.02
447.046	30496.99
447.252	32065.73
447.459	32356.54
447.665	32379.07
447.871	33122.48
448.078	34734.23
448.284	33525.93
448.491	34279.58
448.697	35393.68
448.903	36212.87
449.11	36173.95
449.316	35287.18
449.522	36583.55
449.728	36946.04
449.935	37814.38
450.141	37691.5
450.347	38574.17
450.553	37326.96
450.76	37671.02
450.966	38778.97
451.172	38324.32
451.378	39696.46
451.584	38725.72
451.791	39202.9
451.997	39395.41
452.203	39974.98
452.409	39645.26
452.615	39723.08
452.821	38512.73
453.027	38291.55
453.233	40067.14
453.44	38619.23
453.646	39225.43
453.852	39219.28
454.058	39475.28
454.264	38633.57
454.47	39481.42
454.676	38379.62
454.882	39684.17
455.088	36317.31
455.294	36964.47
455.5	37357.68
455.705	38285.41
455.911	36339.84
456.117	35461.26
456.323	35184.79
456.529	33427.63
456.735	34934.93
456.941	33992.87
457.147	33532.07
457.352	32641.21
457.558	32080.07
457.764	32342.21
457.97	31494.35
458.176	30927.06
458.381	31117.52
458.587	29665.51
458.793	29618.41
458.999	28031.23
459.204	30187.74
459.41	29028.59
459.616	27326.73
459.821	27529.48
460.027	27449.61
460.233	26945.81
460.438	25536.81
460.644	25717.03
460.85	24504.63
461.055	24404.28
461.261	24222.01
461.466	22069.59
461.672	21817.69
461.878	23173.45
462.083	21647.71
462.289	21246.31
462.494	21240.17
462.7	20085.11
462.905	19747.2
463.111	20367.73
463.316	20490.61
463.522	19919.23
463.727	20017.53
463.932	20124.02
464.138	19722.62
464.343	19665.28
464.549	19034.5
464.754	19734.91
464.959	19440
465.165	19517.82
465.37	18710.93
465.575	18086.29
465.781	19091.85
465.986	19130.76
466.191	18268.56
466.397	17938.84
466.602	17320.35
466.807	17699.23
467.012	17686.94
467.218	17594.78
467.423	17547.68
467.628	17670.56
467.833	18270.61
468.038	17744.28
468.244	17129.89
468.449	17719.71
468.654	17535.39
468.859	17076.65
469.064	16855.47
469.269	16267.7
469.474	16542.13
469.679	16798.12
469.885	16366
470.09	16609.71
470.295	16423.34
470.5	15923.64
470.705	16150.96
470.91	15587.77
471.115	15598.01
471.32	16107.96
471.525	15724.99
471.73	15487.42
471.935	15346.11
472.139	14766.54
472.344	15358.4
472.549	14983.62
472.754	14789.07
472.959	14313.94
473.164	14184.91
473.369	13873.62
473.574	14492.11
473.778	14164.43
473.983	14135.76
474.188	14098.9
474.393	13378.01
474.598	13531.61
474.802	13502.94
475.007	13292
475.212	13304.29
475.417	12845.54
475.621	12786.15
475.826	12800.49
476.031	12837.35
476.235	12427.76
476.44	12583.4
476.645	12304.88
476.849	12360.17
477.054	12118.51
477.259	12272.11
477.463	12069.36
477.668	11940.34
477.872	11903.48
478.077	11543.03
478.282	11452.92
478.486	11497.98
478.691	11424.25
478.895	11137.54
479.1	11250.17
479.304	11301.37
479.509	10729.99
479.713	11139.58
479.918	10785.29
480.122	10557.96
480.326	10670.6
480.531	10859.01
480.735	10588.68
480.94	10596.87
481.144	10807.81
481.348	10512.91
481.553	10484.23
481.757	10340.88
481.961	10521.1
482.166	10621.45
482.37	10584.59
482.574	10273.29
482.778	10361.36
482.983	10629.64
483.187	10324.49
483.391	10457.61
483.595	10179.09
483.8	10181.14
484.004	10404.36
484.208	10326.54
484.412	10220.05
484.616	10416.65
484.821	10326.54
485.025	10035.73
485.229	10490.38
485.433	10289.68
485.637	10471.95
485.841	10031.63
486.045	10287.63
486.249	10428.94
486.453	10209.81
486.657	10164.75
486.861	10519.05
487.065	10136.08
487.269	10074.64
487.473	10209.81
487.677	10088.98
487.881	10338.83
488.085	10361.36
488.289	10156.56
488.493	10451.47
488.697	10408.46
488.901	10502.67
489.105	10197.52
489.309	10332.68
489.512	10447.37
489.716	10375.69
489.92	10547.72
490.124	10443.28
490.328	10564.11
490.531	10392.08
490.735	10424.84
490.939	10711.56
491.143	10533.39
491.346	10877.44
491.55	10697.22
491.754	10875.4
491.958	10867.2
492.161	10803.72
492.365	10906.12
492.569	10779.14
492.772	10887.68
492.976	11180.54
493.18	11000.32
493.383	11237.89
493.587	11309.57
493.79	11387.39
493.994	11094.53
494.197	11481.6
494.401	11518.46
494.605	11280.89
494.808	11522.55
495.012	11637.24
495.215	11723.26
495.419	11899.38
495.622	11901.43
495.825	11913.72
496.029	12093.94
496.232	12132.85
496.436	12235.25
496.639	12575.21
496.843	12417.52
497.046	12728.81
497.249	12675.56
497.453	12775.91
497.656	13036
497.859	13044.2
498.063	13244.9
498.266	13359.58
498.469	13390.3
498.673	13490.65
498.876	13638.11
499.079	13853.14
499.282	13793.75
499.485	14285.26
499.689	14356.94
499.892	14373.33
500.095	14516.69
500.298	14680.52
500.501	14774.73
500.705	14907.85
500.908	15337.92
501.111	15174.08
501.314	15585.72
501.517	15575.48
501.72	15868.34
501.923	15874.49
502.126	16253.36
502.329	16243.12
502.532	16417.2
502.735	16605.61
502.938	17084.84
503.141	16937.38
503.344	17400.23
503.547	17367.46
503.75	17494.43
503.953	18002.33
504.156	18043.29
504.359	18114.97
504.562	18178.45
504.765	18442.64
504.968	18661.77
505.17	18745.74
505.373	18864.52
505.576	19184.01
505.779	19437.95
505.982	19675.52
506.185	20183.41
506.387	20103.54
506.59	20214.13
506.793	20699.5
506.996	20619.63
507.198	21178.73
507.401	21225.83
507.604	21338.47
507.807	21948.76
508.009	21666.14
508.212	22153.56
508.415	22380.89
508.617	22665.55
508.82	22778.19
509.022	22456.66
509.225	23175.5
509.428	23443.78
509.63	23445.83
509.833	24035.64
510.035	24318.26
510.238	23947.58
510.44	24387.89
510.643	24770.86
510.845	25045.29
511.048	24664.37
511.25	25344.3
511.453	25379.11
511.655	26218.78
511.858	26001.69
512.06	26470.68
512.262	26712.34
512.465	26792.21
512.667	27158.8
512.87	27279.63
513.072	27386.12
513.274	27783.43
513.477	28006.66
513.679	28176.64
513.881	28690.68
514.084	28758.26
514.286	28821.75
514.488	29444.33
514.69	29948.13
514.893	29978.85
515.095	30046.43
515.297	30818.52
515.499	30580.95
515.701	31185.1
515.904	31252.69
516.106	31733.96
516.308	31684.81
516.51	32164.03
516.712	32059.59
516.914	32452.8
517.116	32962.74
517.318	33226.93
517.52	33153.2
517.722	33474.73
517.925	34164.9
518.127	34492.57
518.329	34807.96
518.531	34324.64
518.733	35133.59
518.935	35328.14
519.136	35461.26
519.338	36264.07
519.54	36300.93
519.742	36673.66
519.944	36300.93
520.146	37271.67
520.348	37439.6
520.55	37517.42
520.752	37544.05
520.954	38324.32
521.155	38037.61
521.357	38793.31
521.559	38944.86
521.761	39075.93
521.963	39133.27
522.164	39862.35
522.366	39686.22
522.568	40298.56
522.77	40222.79
522.971	40321.09
523.173	40712.25
523.375	40910.91
523.576	41187.38
523.778	41146.42
523.98	41728.05
524.181	41650.22
524.383	41844.78
524.584	42231.85
524.786	42328.1
524.988	42227.75
525.189	43020.31
525.391	43028.51
525.592	43524.11
525.794	43341.85
525.995	43194.39
526.197	43577.36
526.398	43239.45
526.6	43952.14
526.801	44130.31
527.003	44378.12
527.204	44034.06
527.406	43997.2
527.607	44378.12
527.808	45058.04
528.01	44036.11
528.211	44513.28
528.412	45596.66
528.614	45365.24
528.815	44759.04
529.016	45641.71
529.218	44976.12
529.419	45520.88
529.62	45529.08
529.822	45383.67
530.023	45762.54
530.224	45307.9
530.425	45658.1
530.626	45015.04
530.828	45346.81
531.029	46196.71
531.23	45598.71
531.431	45692.91
531.632	46315.5
531.833	45678.58
532.035	46100.46
532.236	46165.99
532.437	46249.96
532.638	45817.84
532.839	46303.21
533.04	46139.37
533.241	45926.38
533.442	47138.78
533.643	46122.99
533.844	46049.26
534.045	46196.71
534.246	45823.98
534.447	46284.78
534.648	46215.15
534.849	46290.92
535.05	45854.7
535.251	46180.33
535.451	45895.66
535.652	46374.89
535.853	46127.08
536.054	46280.68
536.255	46168.04
536.456	45688.82
536.657	46505.96
536.857	45989.87
537.058	45699.06
537.259	45678.58
537.46	46180.33
537.66	45633.52
537.861	45979.63
538.062	46082.03
538.263	46213.1
538.463	45711.35
538.664	45443.06
538.865	45854.7
539.065	46065.64
539.266	45590.51
539.466	45963.25
539.667	44994.56
539.868	46004.2
540.068	45410.29
540.269	45121.53
540.469	45826.03
540.67	45346.81
540.87	45221.88
541.071	45588.47
541.271	45828.08
541.472	45598.71
541.672	45217.78
541.873	45295.61
542.073	45322.23
542.274	45869.04
542.474	45250.55
542.675	45129.72
542.875	45668.34
543.075	45307.9
543.276	44738.56
543.476	45561.84
543.676	45275.13
543.877	45193.21
544.077	45527.03
544.277	44914.69
544.478	45156.35
544.678	45047.8
544.878	45041.66
545.078	45080.57
545.279	44812.29
545.479	44687.36
545.679	45275.13
545.879	44894.21
546.079	45068.28
546.28	45254.65
546.48	44498.95
546.68	45199.35
546.88	45148.15
547.08	45182.97
547.28	45191.16
547.48	44789.76
547.68	44836.86
547.88	44892.16
548.081	44918.78
548.281	44681.22
548.481	44804.09
548.681	45068.28
548.881	45047.8
549.081	45244.41
549.28	44609.54
549.48	45230.07
549.68	44906.49
549.88	45408.25
550.08	44625.92
550.28	44746.75
550.48	44695.55
550.68	45408.25
550.88	44773.38
551.08	44699.65
551.279	44951.55
551.479	43989
551.679	44630.02
551.879	44339.21
552.079	45084.67
552.278	44478.47
552.478	44728.32
552.678	44879.87
552.878	45379.57
553.077	44361.73
553.277	43999.24
553.477	45287.42
553.676	44355.59
553.876	44783.62
554.076	44910.59
554.275	44425.22
554.475	44197.9
554.674	44800
554.874	44806.14
555.074	44302.34
555.273	44472.32
555.473	44449.8
555.672	44148.74
555.872	44058.63
556.071	44597.25
556.271	45058.04
556.47	44130.31
556.67	44060.68
556.869	44353.54
557.068	44251.14
557.268	44111.88
557.467	44222.47
557.667	43982.86
557.866	44337.16
558.065	43919.37
558.265	43884.56
558.464	43862.03
558.663	44214.28
558.863	43681.81
559.062	44152.84
559.261	43659.28
559.461	43991.05
559.66	43302.93
559.859	43599.89
560.058	43294.74
560.258	43442.2
560.457	43393.04
560.656	44009.48
560.855	43311.13
561.054	43579.41
561.253	43190.3
561.453	43337.75
561.652	43751.44
561.851	43276.31
562.05	43184.15
562.249	43264.02
562.448	43145.24
562.647	43272.21
562.846	42860.57
563.045	43210.78
563.244	42641.44
563.443	43196.44
563.642	42459.17
563.841	42915.87
564.04	42532.9
564.239	42919.96
564.438	42598.43
564.637	42182.69
564.836	43032.6
565.035	41914.41
565.234	42025
565.432	42209.32
565.631	42225.7
565.83	42262.57
566.029	41871.4
566.228	42041.39
566.427	41863.21
566.625	41832.49
566.824	41748.53
567.023	41850.92
567.222	41091.13
567.42	41951.27
567.619	41330.74
567.818	41216.05
568.016	41158.71
568.215	41525.3
568.414	41345.08
568.612	41431.09
568.811	40912.95
569.01	40871.99
569.208	40585.28
569.407	40745.02
569.605	40464.45
569.804	40990.78
570.002	40501.31
570.201	40343.62
570.4	40323.14
570.598	40611.9
570.797	40050.76
570.995	40300.61
571.193	39714.89
571.392	40468.55
571.59	39716.94
571.789	39860.3
571.987	40063.05
572.186	39792.72
572.384	39354.45
572.582	39747.66
572.781	39338.07
572.979	39110.74
573.177	39422.03
573.376	39397.46
573.574	38789.21
573.772	39276.63
573.971	38801.5
574.169	38770.78
574.367	38746.2
574.565	38522.97
574.763	38520.93
574.962	38488.16
575.16	37900.39
575.358	38029.41
575.556	37947.5
575.754	38283.36
575.952	37834.86
576.151	37933.16
576.349	37152.88
576.547	37603.44
576.745	37544.05
576.943	37623.92
577.141	37402.74
577.339	37329.01
577.537	37204.08
577.735	36931.7
577.933	36937.85
578.131	37421.17
578.329	37054.58
578.527	36702.33
578.725	36542.59
578.923	36935.8
579.121	36595.84
579.319	36323.46
579.516	36749.43
579.714	36401.28
579.912	35928.2
580.11	36040.84
580.308	35963.01
580.506	36227.2
580.704	35289.23
580.901	35498.12
581.099	35901.57
581.297	35500.17
581.495	35330.19
581.692	35547.28
581.89	35174.55
582.088	35078.29
582.285	35057.81
582.483	35223.7
582.681	35117.2
582.878	35106.96
583.076	34511
583.274	35291.28
583.471	34691.23
583.669	35025.04
583.866	34687.13
584.064	34674.84
584.262	34445.47
584.459	34404.51
584.657	34230.43
584.854	34465.95
585.052	33790.12
585.249	34195.62
585.447	34103.46
585.644	33601.71
585.841	33790.12
586.039	34021.54
586.236	33515.69
586.434	33663.14
586.631	33333.42
586.828	33382.57
587.026	32819.38
587.223	33181.87
587.42	32925.88
587.618	33288.37
587.815	32501.95
588.012	32749.75
588.21	32727.22
588.407	33122.48
588.604	32524.47
588.801	32194.75
588.999	32235.71
589.196	32469.18
589.393	32215.23
589.59	32219.33
589.787	32121.02
589.984	31969.47
590.182	31695.05
590.379	31826.12
590.576	31752.39
590.773	31477.96
590.97	31133.9
591.167	31467.72
591.364	31074.51
591.561	31387.85
591.758	30836.95
591.955	31031.51
592.152	31234.25
592.349	30791.89
592.546	31094.99
592.743	30920.91
592.94	30681.3
593.137	30728.41
593.334	30976.21
593.531	30265.56
593.727	30370.01
593.924	30445.79
594.121	30103.78
594.318	30159.07
594.515	29956.32
594.712	29958.37
594.908	29958.37
595.105	29823.2
595.302	29645.03
595.499	29563.11
595.696	29563.11
595.892	29333.74
596.089	29432.04
596.286	29505.77
596.482	29419.75
596.679	29227.24
596.876	29397.23
597.072	29214.96
597.269	29319.4
597.466	29065.46
597.662	28801.27
597.859	28877.04
598.055	28891.38
598.252	28705.01
598.448	28694.77
598.645	28365.05
598.841	28104.96
599.038	28350.71
599.234	27951.36
599.431	28088.57
599.627	28102.91
599.824	28186.88
600.02	27578.63
600.217	27908.35
600.413	27791.62
600.609	27627.78
600.806	27398.41
601.002	27650.31
601.198	27490.57
601.395	27291.91
601.591	27216.14
601.787	27326.73
601.984	26976.53
602.18	27486.47
602.376	26710.29
602.572	26931.47
602.769	26947.86
602.965	26415.38
603.161	26646.8
603.357	26403.1
603.553	26347.8
603.75	26771.73
603.946	26521.88
604.142	26198.3
604.338	26358.04
604.534	26308.89
604.73	26181.92
604.926	25981.21
605.122	26052.89
605.318	26003.74
605.514	25723.17
605.71	25925.92
605.906	25504.04
606.102	25719.07
606.298	25698.59
606.494	25569.57
606.69	25823.52
606.886	25588
607.082	24977.71
607.278	25344.3
607.474	25112.88
607.67	25092.4
607.866	24832.3
608.062	25424.17
608.257	25039.15
608.453	25211.18
608.649	24852.78
608.845	24772.91
609.041	24768.82
609.236	24840.5
609.432	24813.87
609.628	24564.02
609.824	24484.15
610.019	24242.49
610.215	24447.29
610.411	24639.79
610.606	24312.12
610.802	24285.5
610.998	24265.02
611.193	24451.38
611.389	24258.87
611.584	24144.19
611.78	23771.46
611.976	23980.35
612.171	23916.86
612.367	23861.57
612.562	23808.32
612.758	23411.01
612.953	23632.19
613.149	24017.21
613.344	23943.49
613.539	23955.77
613.735	23720.26
613.93	23777.6
614.126	23507.27
614.321	23720.26
614.517	23517.51
614.712	23669.06
614.907	23337.29
615.103	23267.66
615.298	23288.14
615.493	23654.72
615.688	23222.6
615.884	23640.39
616.079	22995.28
616.274	22974.8
616.47	23085.39
616.665	23238.98
616.86	22825.29
617.055	22944.08
617.25	22794.57
617.445	22784.33
617.641	22362.45
617.836	22962.51
618.031	22737.23
618.226	22739.28
618.421	22258.01
618.616	22497.62
618.811	22290.77
619.006	22569.3
619.201	21944.67
619.396	22276.44
619.591	21815.65
619.786	21887.32
619.981	21598.56
620.176	22073.69
620.371	21573.99
620.566	21827.93
620.761	21565.79
620.956	21555.55
621.151	21371.24
621.346	21320.04
621.541	21176.68
621.735	20945.26
621.93	20693.36
622.125	20861.29
622.32	20494.71
622.515	20531.57
622.709	20543.86
622.904	20437.36
623.099	20384.12
623.294	20451.7
623.488	19870.08
623.683	20199.8
623.878	19741.05
624.072	19859.84
624.267	19702.14
624.462	19489.15
624.656	19302.79
624.851	19331.46
625.046	19253.64
625.24	18975.11
625.435	18938.25
625.629	19007.88
625.824	18948.49
626.018	18807.18
626.213	18266.52
626.407	18649.49
626.602	18276.76
626.796	18620.81
626.991	18444.69
627.185	18346.39
627.38	17906.07
627.574	18006.42
627.768	18010.52
627.963	17711.52
628.157	17578.4
628.352	17492.38
628.546	17301.92
628.74	17666.46
628.935	17224.1
629.129	17363.36
629.323	16943.53
629.517	16877.99
629.712	16665
629.906	17086.89
630.1	16628.14
630.294	16724.4
630.489	16546.22
630.683	16648.62
630.877	16263.6
631.071	16347.57
631.265	16269.75
631.459	15962.55
631.653	15907.26
631.848	16032.18
632.042	15690.17
632.236	15899.06
632.43	15526.33
632.624	15860.15
632.818	15407.55
633.012	15501.76
633.206	15268.29
633.4	15577.53
633.594	15094.21
633.788	15194.56
633.982	14938.57
634.176	15061.44
634.369	14670.28
634.563	14846.41
634.757	14492.11
634.951	15055.3
635.145	14715.34
635.339	14741.96
635.533	14588.36
635.726	14309.84
635.92	14148.05
636.114	14229.97
636.308	14021.08
636.501	14330.32
636.695	13890.01
636.889	13947.35
637.083	13935.06
637.276	13595.1
637.47	13548
637.664	13689.31
637.857	13799.9
638.051	13451.74
638.244	13343.2
638.438	13670.87
638.632	13187.55
638.825	13128.16
639.019	13099.49
639.212	13081.06
639.406	13105.63
639.599	12794.34
639.793	12876.26
639.986	12730.86
640.18	12777.96
640.373	12966.37
640.567	12607.98
640.76	12532.2
640.954	12235.25
641.147	12315.12
641.34	12341.74
641.534	12331.5
641.727	12112.37
641.92	12093.94
642.114	12071.41
642.307	11973.11
642.5	12112.37
642.694	11794.93
642.887	11645.43
643.08	11676.15
643.273	11663.86
643.467	11553.27
643.66	11645.43
643.853	11444.73
644.046	11293.18
644.239	11362.81
644.432	11399.68
644.626	10969.6
644.819	11016.71
645.012	10981.89
645.205	11043.33
645.398	11022.85
645.591	10809.86
645.784	10826.25
645.977	10693.13
646.17	10820.1
646.363	10531.34
646.556	10590.73
646.749	10756.61
646.942	10506.76
647.135	10359.31
647.328	10375.69
647.521	10326.54
647.714	10252.81
647.907	10115.6
648.099	10203.66
648.292	10111.5
648.485	10088.98
648.678	9931.28
648.871	10107.41
649.064	9683.48
649.256	9794.07
649.449	9900.56
649.642	9701.91
649.835	9640.47
650.027	9671.19
650.22	9570.84
650.413	9450.01
650.605	9474.59
650.798	9294.36
650.991	9296.41
651.183	9388.57
651.376	9032.22
651.568	9372.19
651.761	9007.65
651.954	9122.34
652.146	9136.67
652.339	9050.66
652.531	9048.61
652.724	8970.79
652.916	8878.63
653.109	8710.69
653.301	8858.15
653.494	8864.29
653.686	8770.08
653.879	8782.37
654.071	8643.11
654.263	8483.37
654.456	8620.58
654.648	8548.9
654.84	8610.34
655.033	8272.43
655.225	8401.45
655.417	8239.66
655.61	8221.23
655.802	8430.12
655.994	8202.8
656.186	8200.75
656.379	8147.5
656.571	8063.54
656.763	7903.79
656.955	7776.82
657.148	7926.32
657.34	7950.9
657.532	7846.45
657.724	7803.44
657.916	7844.4
658.108	7770.68
658.3	7631.41
658.492	7672.37
658.684	7473.72
658.876	7664.18
659.068	7492.15
659.26	7488.06
659.452	7526.97
659.644	7412.28
659.836	7426.62
660.028	7430.71
660.22	7318.07
660.412	7205.44
660.604	7303.74
660.796	7205.44
660.988	7283.26
661.18	7082.56
661.372	6881.86
661.563	7148.09
661.755	6849.09
661.947	6758.98
662.139	6935.1
662.331	6959.68
662.522	6978.11
662.714	6720.07
662.906	6730.31
663.097	6853.19
663.289	6707.78
663.481	6775.36
663.673	6601.29
663.864	6578.76
664.056	6517.32
664.247	6593.09
664.439	6263.37
664.631	6519.37
664.822	6449.74
665.014	6629.96
665.205	6412.87
665.397	6277.71
665.588	6404.68
665.78	6195.79
665.971	6234.7
666.163	6318.67
666.354	6337.1
666.546	5970.51
666.737	6062.67
666.929	6103.63
667.12	6140.49
667.311	6038.09
667.503	5984.85
667.694	5937.74
667.885	5954.13
668.077	6054.48
668.268	5988.94
668.459	6001.23
668.651	5810.77
668.842	5833.3
669.033	5757.52
669.224	5773.91
669.416	5648.98
669.607	5657.17
669.798	5675.6
669.989	5706.32
670.18	5706.32
670.371	5714.52
670.563	5405.27
670.754	5530.2
670.945	5511.77
671.136	5452.38
671.327	5513.81
671.518	5337.69
671.709	5601.88
671.9	5411.42
672.091	5403.22
672.282	5458.52
672.473	5239.39
672.664	5515.86
672.855	5397.08
673.046	5583.45
673.237	5413.46
673.428	5282.39
673.619	5321.31
673.809	5345.88
674	5182.04
674.191	5223
674.382	5263.96
674.573	5249.63
674.764	5151.32
674.954	5182.04
675.145	4995.68
675.336	5042.78
675.527	5063.26
675.717	4948.58
675.908	4999.77
676.099	5038.69
676.289	4950.62
676.48	5046.88
676.671	4756.07
676.861	4934.24
677.052	4993.63
677.243	5055.07
677.433	4823.65
677.624	4962.91
677.814	4837.98
678.005	4850.27
678.195	4749.92
678.386	4829.79
678.576	4790.88
678.767	4815.46
678.957	4837.98
679.148	4807.27
679.338	4661.86
679.529	4647.52
679.719	4792.93
679.909	4764.26
680.1	4747.87
680.29	4725.35
680.481	4700.77
680.671	4723.3
680.861	4586.08
681.052	4549.22
681.242	4536.93
681.432	4711.01
681.622	4600.42
681.813	4639.33
682.003	4573.8
682.193	4758.11
682.383	4618.85
682.573	4584.04
682.764	4358.76
682.954	4553.32
683.144	4473.45
683.334	4448.87
683.524	4467.3
683.714	4438.63
683.904	4436.58
684.094	4428.39
684.284	4641.38
684.474	4444.77
684.664	4526.69
684.854	4493.93
685.044	4520.55
685.234	4387.43
685.424	4522.6
685.614	4495.97
685.804	4391.53
685.994	4207.21
686.184	4375.14
686.374	4342.38
686.564	4209.26
686.753	4280.94
686.943	4252.27
687.133	4190.83
687.323	4252.27
687.513	4201.07
687.702	4225.64
687.892	4215.4
688.082	4166.25
688.272	4174.44
688.461	4137.58
688.651	4219.5
688.841	4119.15
689.03	4182.63
689.22	4020.85
689.41	4076.14
689.599	3977.84
689.789	4127.34
689.979	3988.08
690.168	4176.49
690.358	4047.47
690.547	4053.61
690.737	4026.99
690.926	4061.8
691.116	3940.97
691.305	4043.37
691.495	3797.62
691.684	3938.93
691.874	3906.16
692.063	3834.48
692.252	3887.73
692.442	3854.96
692.631	3670.64
692.82	3811.95
693.01	3914.35
693.199	3863.15
693.388	3752.56
693.578	3756.66
693.767	3838.58
693.956	3691.12
694.146	3707.51
694.335	3670.64
694.524	3752.56
694.713	3664.5
694.902	3641.97
695.092	3707.51
695.281	3717.75
695.47	3746.42
695.659	3682.93
695.848	3682.93
696.037	3633.78
696.226	3590.77
696.415	3742.32
696.604	3515
696.793	3580.53
696.982	3564.15
697.171	3703.41
697.36	3809.9
697.549	3601.01
697.738	3607.16
697.927	3637.88
698.116	3691.12
698.305	3803.76
698.494	3517.05
698.683	3578.48
698.872	3682.93
699.061	3605.11
699.25	3660.4
699.438	3383.93
699.627	3564.15
699.816	3545.72
700.005	3596.92
700.193	3592.82
700.382	3449.46
700.571	3418.74
700.76	3531.38
700.948	3465.85
701.137	3535.48
701.326	3422.84
701.514	3545.72
701.703	3441.27
701.892	3437.17
702.08	3404.41
702.269	3521.14
702.457	3486.33
702.646	3404.41
702.834	3385.97
703.023	3375.74
703.212	3512.95
703.4	3420.79
703.589	3244.67
703.777	3373.69
703.965	3418.74
704.154	3441.27
704.342	3553.91
704.531	3314.3
704.719	3336.82
704.907	3347.06
705.096	3277.43
705.284	3349.11
705.472	3265.14
705.661	3328.63
705.849	3371.64
706.037	3177.08
706.226	3451.51
706.414	3330.68
706.602	3273.34
706.79	3379.83
706.979	3355.26
707.167	3363.45
707.355	3164.79
707.543	3322.49
707.731	3306.1
707.919	3328.63
708.107	3179.13
708.296	3349.11
708.484	3207.8
708.672	3322.49
708.86	3181.18
709.048	3330.68
709.236	3269.24
709.424	3150.46
709.612	3191.42
709.8	3086.97
709.988	3150.46
710.176	3109.5
710.364	3027.58
710.551	3211.9
710.739	3234.43
710.927	3123.84
711.115	3129.98
711.303	3089.02
711.491	3136.12
711.679	3029.63
711.866	3226.23
712.054	3086.97
712.242	2966.14
712.43	3172.99
712.617	2982.53
712.805	2996.86
712.993	3099.26
713.181	2953.85
713.368	3115.64
713.556	3027.58
713.744	2994.81
713.931	3082.88
714.119	2927.23
714.306	3093.12
714.494	2998.91
714.682	2923.13
714.869	2988.67
715.057	2900.61
715.244	2912.89
715.432	3019.39
715.619	2980.48
715.807	2921.09
715.994	3019.39
716.182	3115.64
716.369	3011.2
716.556	2894.46
716.744	2839.17
716.931	2861.69
717.119	2861.69
717.306	2974.33
717.493	2943.61
717.681	2908.8
717.868	2953.85
718.055	2947.71
718.242	2871.93
718.43	2935.42
718.617	2914.94
718.804	2826.88
718.991	2841.22
719.179	2910.85
719.366	2904.7
719.553	2888.32
719.74	2863.74
719.927	2861.69
720.114	2658.95
720.301	2734.72
720.488	2644.61
720.676	2667.14
720.863	2650.75
721.05	2761.34
721.237	2683.52
721.424	2712.19
721.611	2839.17
721.798	2656.9
721.985	2716.29
722.172	2652.8
722.358	2790.02
722.545	2667.14
722.732	2654.85
722.919	2699.91
723.106	2527.88
723.293	2697.86
723.48	2695.81
723.667	2603.65
723.853	2648.71
724.04	2593.41
724.227	2603.65
724.414	2675.33
724.6	2699.91
724.787	2554.5
724.974	2583.17
725.161	2507.4
725.347	2605.7
725.534	2630.27
725.72	2683.52
725.907	2546.31
726.094	2611.84
726.28	2599.56
726.467	2491.01
726.653	2495.11
726.84	2634.37
727.027	2613.89
727.213	2536.07
727.4	2609.79
727.586	2620.03
727.773	2445.96
727.959	2486.92
728.145	2577.03
728.332	2509.44
728.518	2439.81
728.705	2714.24
728.891	2560.64
729.077	2456.2
729.264	2335.37
729.45	2546.31
729.636	2517.64
729.823	2482.82
730.009	2368.13
730.195	2448.01
730.382	2452.1
730.568	2531.97
730.754	2511.49
730.94	2392.71
731.126	2437.77
731.313	2405
731.499	2507.4
731.685	2429.57
731.871	2400.9
732.057	2427.53
732.243	2386.57
732.429	2407.05
732.615	2454.15
732.801	2396.81
732.987	2390.66
733.173	2421.38
733.359	2339.46
733.545	2374.28
733.731	2349.7
733.917	2327.18
734.103	2366.09
734.289	2372.23
734.475	2290.31
734.661	2323.08
734.847	2329.22
735.033	2302.6
735.219	2187.91
735.404	2331.27
735.59	2200.2
735.776	2325.13
735.962	2366.09
736.148	2341.51
736.333	2353.8
736.519	2237.06
736.705	2212.49
736.89	2163.34
737.076	2196.11
737.262	2286.22
737.447	2290.31
737.633	2278.02
737.819	2200.2
738.004	2228.87
738.19	2089.61
738.375	2144.91
738.561	2128.52
738.747	2110.09
738.932	2196.11
739.118	2222.73
739.303	2165.39
739.489	2142.86
739.674	2142.86
739.859	2134.67
740.045	2194.06
740.23	2060.94
740.416	2167.43
740.601	2101.9
740.786	2110.09
740.972	2058.89
741.157	2026.12
741.342	1974.92
741.528	2114.19
741.713	2179.72
741.898	2022.03
742.084	2038.41
742.269	2017.93
742.454	2050.7
742.639	1929.87
742.824	2015.88
743.01	2001.55
743.195	2087.56
743.38	1974.92
743.565	1987.21
743.75	1987.21
743.935	1862.29
744.12	1995.4
744.305	1923.73
744.49	1940.11
744.675	1886.86
744.86	1905.29
745.045	1913.49
745.23	1874.57
745.415	1895.05
745.6	1921.68
745.785	1827.47
745.97	1940.11
746.155	1907.34
746.34	1831.57
746.525	1755.79
746.71	1809.04
746.895	1780.37
747.079	1725.07
747.264	1731.22
747.449	1710.74
747.634	1745.55
747.819	1673.87
748.003	1743.5
748.188	1659.54
748.373	1718.93
748.557	1606.29
748.742	1667.73
748.927	1725.07
749.111	1618.58
749.296	1622.67
749.481	1694.35
749.665	1577.62
749.85	1594
750.034	1573.52
750.219	1637.01
750.404	1507.99
750.588	1618.58
750.773	1569.43
750.957	1624.72
751.141	1512.08
751.326	1536.66
751.51	1479.32
751.695	1462.93
751.879	1460.88
752.064	1499.8
752.248	1530.52
752.432	1612.43
752.617	1428.12
752.801	1432.21
752.985	1454.74
753.17	1452.69
753.354	1434.26
753.538	1483.41
753.722	1348.25
753.907	1356.44
754.091	1381.01
754.275	1374.87
754.459	1323.67
754.643	1409.69
754.828	1358.49
755.012	1270.42
755.196	1307.29
755.38	1292.95
755.564	1297.05
755.748	1331.86
755.932	1329.81
756.116	1211.03
756.3	1317.53
756.484	1225.37
756.668	1292.95
756.852	1180.31
757.036	1256.09
757.22	1198.74
757.404	1225.37
757.588	1172.12
757.772	1200.79
757.956	1256.09
758.14	1184.41
758.323	1129.11
758.507	1151.64
758.691	1172.12
758.875	1149.59
759.059	1178.26
759.242	1168.02
759.426	1143.45
759.61	1186.46
759.794	1032.86
759.977	1157.78
760.161	1133.21
760.345	1020.57
760.528	1151.64
760.712	1151.64
760.895	985.76
761.079	1065.63
761.263	971.42
761.446	1055.39
761.63	1088.15
761.813	1020.57
761.997	991.9
762.18	1053.34
762.364	1039
762.547	932.51
762.731	998.04
762.914	1106.59
763.098	1051.29
763.281	1008.28
763.464	957.08
763.648	981.66
763.831	985.76
764.015	987.8
764.198	920.22
764.381	1010.33
764.564	926.36
764.748	920.22
764.931	934.56
765.114	926.36
765.297	916.12
765.481	996
765.664	924.32
765.847	971.42
766.03	944.8
766.213	858.78
766.397	926.36
766.58	883.36
766.763	819.87
766.946	899.74
767.129	840.35
767.312	856.73
767.495	866.97
767.678	858.78
767.861	932.51
768.044	924.32
768.227	821.92
768.41	823.97
768.593	844.45
768.776	844.45
768.959	795.29
769.142	885.41
769.324	815.77
769.507	752.29
769.69	875.17
769.873	801.44
770.056	899.74
770.239	793.25
770.421	817.82
770.604	789.15
770.787	866.97
770.97	795.29
771.152	744.1
771.335	762.53
771.518	701.09
771.7	797.34
771.883	821.92
772.066	717.47
772.248	826.01
772.431	748.19
772.613	905.88
772.796	725.66
772.978	832.16
773.161	840.35
773.343	807.58
773.526	758.43
773.708	682.66
773.891	729.76
774.073	752.29
774.256	799.39
774.438	793.25
774.621	783.01
774.803	717.47
774.985	651.94
775.168	713.38
775.35	766.62
775.532	701.09
775.715	596.64
775.897	688.8
776.079	613.03
776.261	735.9
776.444	660.13
776.626	637.6
776.808	717.47
776.99	676.51
777.173	615.07
777.355	623.27
777.537	596.64
777.719	598.69
777.901	522.91
778.083	572.07
778.265	592.55
778.447	664.22
778.629	608.93
778.811	604.83
778.993	649.89
779.175	590.5
779.357	619.17
779.539	549.54
779.721	533.15
779.903	520.87
780.085	578.21
780.267	578.21
780.449	588.45
780.631	582.31
780.812	508.58
780.994	516.77
781.176	547.49
781.358	553.63
781.54	475.81
781.721	549.54
781.903	598.69
782.085	557.73
782.267	563.87
782.448	553.63
782.63	582.31
782.812	553.63
782.993	496.29
783.175	508.58
783.357	494.24
783.538	434.85
783.72	516.77
783.901	475.81
784.083	512.67
784.264	494.24
784.446	465.57
784.627	479.91
784.809	488.1
784.99	438.95
785.172	424.61
785.353	418.47
785.535	410.28
785.716	422.56
785.897	473.76
786.079	412.32
786.26	481.96
786.441	455.33
786.623	402.08
786.804	438.95
786.985	342.69
787.167	365.22
787.348	404.13
787.529	406.18
787.71	438.95
787.891	420.52
788.073	367.27
788.254	393.89
788.435	332.45
788.616	397.99
788.797	266.92
788.978	400.04
789.159	406.18
789.34	381.6
789.522	359.08
789.703	385.7
789.884	393.89
790.065	311.97
790.246	400.04
790.427	350.89
790.607	344.74
790.788	422.56
790.969	381.6
791.15	438.95
791.331	291.49
791.512	393.89
791.693	369.32
791.874	295.59
792.054	326.31
792.235	391.84
792.416	275.11
792.597	303.78
792.778	307.88
792.958	359.08
793.139	400.04
793.32	283.3
793.5	223.91
793.681	381.6
793.862	332.45
794.042	268.97
794.223	283.3
794.404	309.93
794.584	283.3
794.765	281.25
794.945	271.01
795.126	254.63
795.306	303.78
795.487	287.4
795.667	326.31
795.848	283.3
796.028	309.93
796.209	357.03
796.389	275.11
796.57	336.55
796.75	236.2
796.93	258.73
797.111	254.63
797.291	244.39
797.471	268.97
797.652	238.25
797.832	213.67
798.012	340.65
798.192	203.43
798.373	221.86
798.553	197.29
798.733	316.07
798.913	244.39
799.093	182.95
799.274	228.01
799.454	258.73
799.634	283.3
799.814	213.67
799.994	330.41
800.174	234.15
800.354	271.01
800.534	221.86
800.714	246.44
800.894	221.86
801.074	217.77
801.254	219.82
801.434	277.16
801.614	221.86
801.794	135.85
801.974	791.2
802.154	211.62
802.334	191.14
802.514	189.1
802.693	279.21
802.873	295.59
803.053	244.39
803.233	236.2
803.413	236.2
803.592	258.73
803.772	260.77
803.952	144.04
804.131	242.34
804.311	203.43
804.491	238.25
804.67	150.18
804.85	191.14
805.03	250.53
805.209	316.07
805.389	103.08
805.568	209.58
805.748	225.96
805.928	230.06
806.107	154.28
806.287	185
806.466	160.42
806.646	168.62
806.825	146.09
807.004	201.38
807.184	119.46
807.363	160.42
807.543	185
807.722	197.29
807.901	254.63
808.081	201.38
808.26	133.8
808.439	236.2
808.619	164.52
808.798	160.42
808.977	182.95
809.156	164.52
809.336	162.47
809.515	219.82
809.694	164.52
809.873	189.1
810.052	156.33
810.231	211.62
810.411	174.76
810.59	162.47
810.769	154.28
810.948	195.24
811.127	162.47
811.306	189.1
811.485	119.46
811.664	201.38
811.843	185
812.022	230.06
812.201	164.52
812.38	154.28
812.559	86.7
812.737	144.04
812.916	113.32
813.095	180.9
813.274	164.52
813.453	172.71
813.632	172.71
813.811	223.91
813.989	139.94
814.168	160.42
814.347	103.08
814.526	115.37
814.704	240.3
814.883	154.28
815.062	133.8
815.24	152.23
815.419	119.46
815.598	135.85
815.776	12.97
815.955	172.71
816.133	144.04
816.312	168.62
816.49	84.65
816.669	115.37
816.847	148.14
817.026	119.46
817.204	207.53
817.383	164.52
817.561	150.18
817.74	139.94
817.918	156.33
818.097	88.75
818.275	74.41
818.453	144.04
818.632	90.79
818.81	137.9
818.988	74.41
819.167	78.51
819.345	107.18
819.523	107.18
819.701	78.51
819.879	178.86
820.058	166.57
820.236	178.86
820.414	164.52
820.592	185
820.77	94.89
820.948	86.7
821.127	86.7
821.305	98.99
821.483	103.08
821.661	86.7
821.839	156.33
822.017	146.09
822.195	105.13
822.373	101.03
822.551	94.89
822.729	115.37
822.907	137.9
823.085	166.57
823.262	125.61
823.44	117.42
823.618	55.98
823.796	109.22
823.974	103.08
824.152	187.05
824.329	45.74
824.507	117.42
824.685	125.61
824.863	135.85
825.04	135.85
825.218	148.14
825.396	162.47
825.574	119.46
825.751	31.4
825.929	209.58
826.107	148.14
826.284	111.27
826.462	131.75
826.639	125.61
826.817	84.65
826.994	168.62
827.172	119.46
827.349	119.46
827.527	98.99
827.704	41.64
827.882	111.27
828.059	35.5
828.237	58.03
828.414	74.41
828.591	80.55
828.769	168.62
828.946	107.18
829.124	96.94
829.301	41.64
829.478	98.99
829.655	160.42
829.833	103.08
830.01	70.31
830.187	139.94
830.364	94.89
830.542	96.94
830.719	53.93
830.896	109.22
831.073	129.7
831.25	123.56
831.427	117.42
831.604	109.22
831.782	88.75
831.959	103.08
832.136	156.33
832.313	78.51
832.49	70.31
832.667	139.94
832.844	66.22
833.021	152.23
833.198	25.26
833.374	119.46
833.551	123.56
833.728	105.13
833.905	103.08
834.082	58.03
834.259	-62.8
834.436	109.22
834.612	84.65
834.789	115.37
834.966	119.46
835.143	137.9
835.319	98.99
835.496	80.55
835.673	6.83
835.85	86.7
836.026	53.93
836.203	62.12
836.38	119.46
836.556	96.94
836.733	23.21
836.909	98.99
837.086	33.45
837.262	88.75
837.439	78.51
837.616	49.83
837.792	74.41
837.968	25.26
838.145	29.35
838.321	105.13
838.498	72.36
838.674	158.38
838.851	39.59
839.027	111.27
839.203	74.41
839.38	23.21
839.556	117.42
839.732	86.7
839.909	53.93
840.085	137.9
840.261	72.36
840.437	115.37
840.614	58.03
840.79	49.83
840.966	84.65
841.142	107.18
841.318	62.12
841.494	123.56
841.671	70.31
841.847	-34.13
842.023	39.59
842.199	49.83
842.375	105.13
842.551	60.07
842.727	37.55
842.903	125.61
843.079	17.07
843.255	121.51
843.431	-3.41
843.607	109.22
843.783	39.59
843.959	51.88
844.134	6.83
844.31	98.99
844.486	53.93
844.662	-23.89
844.838	115.37
845.013	43.69
845.189	31.4
845.365	127.66
845.541	119.46
845.716	37.55
845.892	72.36
846.068	58.03
846.244	-1.37
846.419	86.7
846.595	49.83
846.77	58.03
846.946	39.59
847.122	62.12
847.297	0.68
847.473	62.12
847.648	39.59
847.824	41.64
847.999	4.78
848.175	84.65
848.35	80.55
848.526	49.83
848.701	96.94
848.876	21.16
849.052	49.83
849.227	41.64
849.403	-3.41
849.578	72.36
849.753	8.87
849.929	55.98
850.104	62.12
850.279	17.07
850.454	90.79
850.63	98.99
850.805	15.02
850.98	113.32
851.155	-11.61
851.33	70.31
851.505	8.87
851.681	129.7
851.856	25.26
852.031	86.7
852.206	29.35
852.381	82.6
852.556	51.88
852.731	103.08
852.906	86.7
853.081	47.79
853.256	121.51
853.431	45.74
853.606	17.07
853.781	4.78
853.956	-34.13
854.131	15.02
854.305	78.51
854.48	37.55
854.655	80.55
854.83	21.16
855.005	76.46
855.18	29.35
855.354	39.59
855.529	4.78
855.704	23.21
855.879	70.31
856.053	78.51
856.228	78.51
856.403	53.93
856.577	-11.61
856.752	17.07
856.926	41.64
857.101	115.37
857.276	8.87
857.45	96.94
857.625	53.93
857.799	4.78
857.974	92.84
858.148	29.35
858.323	88.75
858.497	2.73
858.672	86.7
858.846	12.97
859.02	70.31
859.195	-21.85
859.369	64.17
859.543	105.13
859.718	109.22
859.892	15.02
860.066	29.35
860.241	-3.41
860.415	8.87
860.589	47.79
860.763	23.21
860.938	39.59
861.112	55.98
861.286	-36.18
861.46	8.87
861.634	29.35
861.808	15.02
861.982	-34.13
862.157	49.83
862.331	-30.04
862.505	33.45
862.679	15.02
862.853	-3.41
863.027	78.51
863.201	55.98
863.375	4.78
863.549	47.79
863.722	39.59
863.896	39.59
864.07	27.31
864.244	8.87
864.418	53.93
864.592	47.79
864.766	-27.99
864.939	29.35
865.113	31.4
865.287	31.4
865.461	-11.61
865.634	39.59
865.808	12.97
865.982	10.92
866.156	12.97
866.329	53.93
866.503	-13.65
866.676	29.35
866.85	41.64
867.024	70.31
867.197	-27.99
867.371	74.41
867.544	6.83
867.718	37.55
867.891	27.31
868.065	21.16
868.238	86.7
868.412	72.36
868.585	53.93
868.759	41.64
868.932	70.31
869.105	12.97
869.279	64.17
869.452	88.75
869.625	-19.8
869.799	0.68
869.972	51.88
870.145	25.26
870.319	-3.41
870.492	-13.65
870.665	-38.23
870.838	31.4
871.011	29.35
871.185	23.21
871.358	4.78
871.531	103.08
871.704	39.59
871.877	25.26
872.05	35.5
872.223	2.73
872.396	72.36
872.569	-15.7
872.742	62.12
872.915	41.64
873.088	2.73
873.261	-11.61
873.434	12.97
873.607	72.36
873.78	39.59
873.953	23.21
874.126	74.41
874.299	37.55
874.471	43.69
874.644	21.16
874.817	-9.56
874.99	113.32
875.163	-11.61
875.335	53.93
875.508	6.83
875.681	74.41
875.853	-34.13
876.026	53.93
876.199	94.89
876.371	41.64
876.544	-66.9
876.717	62.12
876.889	-32.08
877.062	12.97
877.234	58.03
877.407	-15.7
877.579	33.45
877.752	64.17
877.924	-36.18
878.097	4.78
878.269	129.7
878.442	55.98
878.614	-19.8
878.786	33.45
878.959	0.68
879.131	39.59
879.303	-42.32
879.476	4.78
879.648	88.75
879.82	31.4
879.993	23.21
880.165	80.55
880.337	37.55
880.509	58.03
880.681	12.97
880.854	64.17
881.026	60.07
881.198	80.55
881.37	-9.56
881.542	31.4
881.714	-60.76
881.886	0.68
882.058	12.97
882.23	41.64
882.402	-7.51
882.574	41.64
882.746	39.59
882.918	64.17
883.09	-9.56
883.262	39.59
883.434	74.41
883.606	-1.37
883.778	74.41
883.95	70.31
884.122	80.55
884.293	80.55
884.465	62.12
884.637	55.98
884.809	-13.65
884.98	-68.95
885.152	6.83
885.324	55.98
885.496	12.97
885.667	-34.13
885.839	17.07
886.011	60.07
886.182	-44.37
886.354	-27.99
886.525	55.98
886.697	-1.37
886.869	41.64
887.04	15.02
887.212	47.79
887.383	92.84
887.555	21.16
887.726	70.31
887.897	37.55
888.069	47.79
888.24	60.07
888.412	-17.75
888.583	29.35
888.754	94.89
888.926	-11.61
889.097	47.79
889.268	35.5
889.44	45.74
889.611	6.83
889.782	-7.51
889.953	17.07
890.125	72.36
890.296	-48.47
890.467	-7.51
890.638	2.73
890.809	19.11
890.98	31.4
891.151	12.97
891.323	23.21
891.494	-34.13
891.665	15.02
891.836	8.87
892.007	31.4
892.178	55.98
892.349	39.59
892.52	58.03
892.691	17.07
892.862	-38.23
893.032	-32.08
893.203	-52.56
893.374	2.73
893.545	-25.94
893.716	37.55
893.887	62.12
894.057	41.64
894.228	37.55
894.399	64.17
894.57	15.02
894.74	-7.51
894.911	47.79
895.082	-3.41
895.253	25.26
895.423	23.21
895.594	-23.89
895.764	29.35
895.935	-32.08
896.106	-11.61
896.276	4.78
896.447	35.5
896.617	15.02
896.788	-32.08
896.958	-3.41
897.129	4.78
897.299	21.16
897.47	53.93
897.64	0.68
897.81	66.22
897.981	70.31
898.151	-15.7
898.322	37.55
898.492	55.98
898.662	74.41
898.832	-42.32
899.003	21.16
899.173	2.73
899.343	23.21
899.513	-19.8
