Data from USB4F104151__36__14-16-39-749.txt Node

Date: Thu Mar 13 14:16:39 EDT 2025
User: louis
Spectrometer: USB4F10415
Trigger mode: 4
Integration Time (sec): 2.000000E-2
Scans to average: 1
Electric dark correction enabled: true
Nonlinearity correction enabled: false
Boxcar width: 0
XAxis mode: Wavelengths
Number of Pixels in Spectrum: 3648
>>>>>Begin Spectral Data<<<<<
178.204	-138.41
178.424	-138.41
178.644	-138.41
178.864	-119.98
179.084	-87.21
179.304	-52.39
179.524	-29.87
179.744	-42.15
179.964	29.52
180.184	50
180.404	29.52
180.624	-60.59
180.844	43.86
181.064	-54.44
181.283	37.72
181.503	15.19
181.723	33.62
181.943	-58.54
182.163	82.77
182.383	-101.55
182.602	86.87
182.822	74.58
183.042	27.48
183.262	-5.29
183.482	-7.34
183.701	19.29
183.921	50
184.141	29.52
184.361	39.76
184.58	-21.67
184.8	68.44
185.02	80.72
185.239	23.38
185.459	13.14
185.679	84.82
185.898	0.85
186.118	33.62
186.338	-33.96
186.557	152.4
186.777	43.86
186.997	35.67
187.216	15.19
187.436	76.63
187.655	-9.39
187.875	50
188.095	52.05
188.314	27.48
188.534	54.1
188.753	-48.3
188.973	60.24
189.192	9.05
189.412	54.1
189.631	29.52
189.851	-44.2
190.07	27.48
190.29	56.15
190.509	52.05
190.729	31.57
190.948	43.86
191.168	133.97
191.387	27.48
191.607	113.49
191.826	27.48
192.045	88.92
192.265	60.24
192.484	23.38
192.704	35.67
192.923	-11.43
193.142	88.92
193.362	-13.48
193.581	121.68
193.8	-25.77
194.02	90.96
194.239	19.29
194.458	60.24
194.678	19.29
194.897	60.24
195.116	93.01
195.335	76.63
195.555	68.44
195.774	-5.29
195.993	41.81
196.212	39.76
196.432	-31.91
196.651	45.91
196.87	35.67
197.089	127.83
197.308	-21.67
197.528	47.96
197.747	23.38
197.966	52.05
198.185	70.48
198.404	29.52
198.623	68.44
198.842	60.24
199.062	4.95
199.281	78.68
199.5	-132.26
199.719	35.67
199.938	76.63
200.157	43.86
200.376	109.4
200.595	-27.82
200.814	11.09
201.033	31.57
201.252	-3.24
201.471	2.9
201.69	27.48
201.909	88.92
202.128	27.48
202.347	54.1
202.566	50
202.785	23.38
203.004	-33.96
203.223	78.68
203.442	-3.24
203.661	52.05
203.879	-19.63
204.098	31.57
204.317	37.72
204.536	113.49
204.755	84.82
204.974	37.72
205.193	-11.43
205.411	95.06
205.63	70.48
205.849	76.63
206.068	-62.63
206.287	-5.29
206.505	41.81
206.724	-1.19
206.943	-11.43
207.162	23.38
207.381	-36.01
207.599	52.05
207.818	-19.63
208.037	45.91
208.255	13.14
208.474	-3.24
208.693	-3.24
208.911	76.63
209.13	-1.19
209.349	50
209.567	97.11
209.786	97.11
210.005	66.39
210.223	31.57
210.442	4.95
210.661	68.44
210.879	60.24
211.098	31.57
211.316	35.67
211.535	52.05
211.753	-3.24
211.972	15.19
212.191	23.38
212.409	-19.63
212.628	35.67
212.846	-27.82
213.065	56.15
213.283	27.48
213.502	-31.91
213.72	86.87
213.938	74.58
214.157	35.67
214.375	47.96
214.594	29.52
214.812	23.38
215.031	80.72
215.249	37.72
215.467	76.63
215.686	-7.34
215.904	86.87
216.122	37.72
216.341	64.34
216.559	27.48
216.778	56.15
216.996	50
217.214	43.86
217.432	56.15
217.651	54.1
217.869	76.63
218.087	93.01
218.306	109.4
218.524	2.9
218.742	-42.15
218.96	68.44
219.179	13.14
219.397	78.68
219.615	56.15
219.833	133.97
220.051	-3.24
220.27	54.1
220.488	125.78
220.706	2.9
220.924	19.29
221.142	35.67
221.36	-1.19
221.578	78.68
221.796	-76.97
222.015	19.29
222.233	68.44
222.451	90.96
222.669	-36.01
222.887	62.29
223.105	19.29
223.323	-17.58
223.541	52.05
223.759	23.38
223.977	-9.39
224.195	68.44
224.413	54.1
224.631	142.16
224.849	43.86
225.067	93.01
225.285	2.9
225.503	105.3
225.721	-11.43
225.939	88.92
226.157	72.53
226.375	95.06
226.592	-13.48
226.81	15.19
227.028	62.29
227.246	86.87
227.464	78.68
227.682	82.77
227.9	72.53
228.117	121.68
228.335	99.16
228.553	33.62
228.771	15.19
228.989	27.48
229.206	60.24
229.424	11.09
229.642	29.52
229.86	-5.29
230.077	62.29
230.295	31.57
230.513	95.06
230.731	62.29
230.948	88.92
231.166	64.34
231.384	-5.29
231.601	-15.53
231.819	95.06
232.037	37.72
232.254	-60.59
232.472	23.38
232.689	15.19
232.907	-54.44
233.125	-38.06
233.342	4.95
233.56	-17.58
233.777	21.33
233.995	52.05
234.213	78.68
234.43	52.05
234.648	-1.19
234.865	23.38
235.083	-7.34
235.3	11.09
235.518	70.48
235.735	54.1
235.953	72.53
236.17	11.09
236.388	66.39
236.605	80.72
236.822	-13.48
237.04	29.52
237.257	39.76
237.475	-11.43
237.692	-19.63
237.909	29.52
238.127	43.86
238.344	52.05
238.562	31.57
238.779	25.43
238.996	-13.48
239.214	78.68
239.431	64.34
239.648	45.91
239.865	76.63
240.083	60.24
240.3	21.33
240.517	31.57
240.735	138.07
240.952	58.2
241.169	47.96
241.386	-19.63
241.603	33.62
241.821	-23.72
242.038	86.87
242.255	86.87
242.472	60.24
242.689	58.2
242.907	60.24
243.124	29.52
243.341	37.72
243.558	11.09
243.775	21.33
243.992	-58.54
244.209	-13.48
244.426	80.72
244.643	76.63
244.86	43.86
245.078	27.48
245.295	45.91
245.512	105.3
245.729	21.33
245.946	35.67
246.163	21.33
246.38	21.33
246.597	62.29
246.814	27.48
247.031	-15.53
247.248	31.57
247.464	45.91
247.681	39.76
247.898	35.67
248.115	47.96
248.332	23.38
248.549	86.87
248.766	84.82
248.983	60.24
249.2	13.14
249.417	23.38
249.633	4.95
249.85	52.05
250.067	-36.01
250.284	13.14
250.501	47.96
250.717	2.9
250.934	97.11
251.151	50
251.368	62.29
251.585	21.33
251.801	31.57
252.018	70.48
252.235	13.14
252.451	-31.91
252.668	2.9
252.885	54.1
253.102	66.39
253.318	-13.48
253.535	33.62
253.752	2.9
253.968	76.63
254.185	47.96
254.401	52.05
254.618	33.62
254.835	29.52
255.051	-7.34
255.268	41.81
255.484	45.91
255.701	11.09
255.917	68.44
256.134	4.95
256.351	56.15
256.567	19.29
256.784	27.48
257	-11.43
257.217	-9.39
257.433	64.34
257.65	80.72
257.866	58.2
258.082	21.33
258.299	-29.87
258.515	-46.25
258.732	4.95
258.948	19.29
259.165	35.67
259.381	-38.06
259.597	19.29
259.814	109.4
260.03	95.06
260.246	27.48
260.463	19.29
260.679	95.06
260.895	19.29
261.112	86.87
261.328	41.81
261.544	4.95
261.761	11.09
261.977	-25.77
262.193	41.81
262.409	43.86
262.626	68.44
262.842	27.48
263.058	-5.29
263.274	95.06
263.49	19.29
263.707	2.9
263.923	50
264.139	2.9
264.355	-31.91
264.571	127.83
264.787	78.68
265.004	29.52
265.22	11.09
265.436	119.64
265.652	74.58
265.868	45.91
266.084	11.09
266.3	109.4
266.516	7
266.732	2.9
266.948	35.67
267.164	35.67
267.38	109.4
267.596	64.34
267.812	62.29
268.028	56.15
268.244	31.57
268.46	62.29
268.676	-5.29
268.892	27.48
269.108	7
269.324	-56.49
269.54	-27.82
269.756	54.1
269.972	27.48
270.188	54.1
270.403	-1.19
270.619	84.82
270.835	43.86
271.051	58.2
271.267	23.38
271.483	11.09
271.698	11.09
271.914	47.96
272.13	21.33
272.346	93.01
272.562	-23.72
272.777	58.2
272.993	52.05
273.209	80.72
273.425	-1.19
273.64	27.48
273.856	2.9
274.072	11.09
274.287	7
274.503	47.96
274.719	107.35
274.934	78.68
275.15	-9.39
275.366	-5.29
275.581	-76.97
275.797	-21.67
276.012	15.19
276.228	86.87
276.444	35.67
276.659	70.48
276.875	47.96
277.09	56.15
277.306	-5.29
277.521	37.72
277.737	-46.25
277.952	43.86
278.168	84.82
278.383	56.15
278.599	35.67
278.814	45.91
279.03	62.29
279.245	101.2
279.461	68.44
279.676	80.72
279.892	-60.59
280.107	-5.29
280.322	27.48
280.538	70.48
280.753	-31.91
280.969	-15.53
281.184	70.48
281.399	-13.48
281.615	78.68
281.83	52.05
282.045	-42.15
282.26	-1.19
282.476	52.05
282.691	119.64
282.906	2.9
283.122	62.29
283.337	0.85
283.552	43.86
283.767	19.29
283.983	72.53
284.198	60.24
284.413	101.2
284.628	70.48
284.843	-27.82
285.058	33.62
285.274	-21.67
285.489	27.48
285.704	68.44
285.919	54.1
286.134	45.91
286.349	158.55
286.564	58.2
286.779	37.72
286.995	90.96
287.21	33.62
287.425	68.44
287.64	2.9
287.855	109.4
288.07	35.67
288.285	78.68
288.5	64.34
288.715	95.06
288.93	-13.48
289.145	13.14
289.36	43.86
289.575	78.68
289.79	35.67
290.004	23.38
290.219	119.64
290.434	82.77
290.649	97.11
290.864	-5.29
291.079	56.15
291.294	62.29
291.509	80.72
291.724	43.86
291.938	47.96
292.153	37.72
292.368	0.85
292.583	43.86
292.798	105.3
293.012	80.72
293.227	84.82
293.442	60.24
293.657	68.44
293.871	35.67
294.086	-13.48
294.301	60.24
294.516	-7.34
294.73	15.19
294.945	-15.53
295.16	68.44
295.374	54.1
295.589	121.68
295.804	76.63
296.018	13.14
296.233	39.76
296.447	-17.58
296.662	52.05
296.877	60.24
297.091	76.63
297.306	15.19
297.52	52.05
297.735	-17.58
297.949	66.39
298.164	97.11
298.378	60.24
298.593	37.72
298.807	27.48
299.022	72.53
299.236	25.43
299.451	-40.11
299.665	136.02
299.88	31.57
300.094	-7.34
300.309	17.24
300.523	21.33
300.737	-27.82
300.952	64.34
301.166	150.36
301.381	-46.25
301.595	47.96
301.809	7
302.024	84.82
302.238	29.52
302.452	56.15
302.667	62.29
302.881	90.96
303.095	136.02
303.309	95.06
303.524	31.57
303.738	82.77
303.952	45.91
304.166	7
304.381	-17.58
304.595	68.44
304.809	35.67
305.023	29.52
305.237	41.81
305.452	43.86
305.666	56.15
305.88	93.01
306.094	78.68
306.308	-5.29
306.522	19.29
306.736	-1.19
306.95	88.92
307.164	64.34
307.379	52.05
307.593	90.96
307.807	21.33
308.021	58.2
308.235	23.38
308.449	-3.24
308.663	13.14
308.877	80.72
309.091	56.15
309.305	-3.24
309.519	-62.63
309.733	93.01
309.947	19.29
310.161	54.1
310.374	60.24
310.588	119.64
310.802	11.09
311.016	52.05
311.23	35.67
311.444	101.2
311.658	17.24
311.872	35.67
312.085	93.01
312.299	33.62
312.513	7
312.727	29.52
312.941	-21.67
313.154	88.92
313.368	-27.82
313.582	47.96
313.796	11.09
314.009	52.05
314.223	43.86
314.437	52.05
314.651	43.86
314.864	11.09
315.078	31.57
315.292	27.48
315.505	82.77
315.719	-27.82
315.933	86.87
316.146	78.68
316.36	37.72
316.573	101.2
316.787	93.01
317.001	52.05
317.214	19.29
317.428	60.24
317.641	25.43
317.855	72.53
318.068	33.62
318.282	68.44
318.495	39.76
318.709	43.86
318.922	15.19
319.136	64.34
319.349	90.96
319.563	-3.24
319.776	-13.48
319.99	-5.29
320.203	99.16
320.417	47.96
320.63	27.48
320.843	52.05
321.057	2.9
321.27	31.57
321.483	140.12
321.697	39.76
321.91	-1.19
322.124	15.19
322.337	52.05
322.55	-13.48
322.763	60.24
322.977	43.86
323.19	74.58
323.403	2.9
323.617	39.76
323.83	29.52
324.043	39.76
324.256	125.78
324.469	60.24
324.683	119.64
324.896	19.29
325.109	45.91
325.322	7
325.535	35.67
325.748	41.81
325.962	31.57
326.175	90.96
326.388	68.44
326.601	80.72
326.814	29.52
327.027	-33.96
327.24	142.16
327.453	47.96
327.666	76.63
327.879	111.44
328.092	117.59
328.305	70.48
328.518	-5.29
328.731	52.05
328.944	35.67
329.157	45.91
329.37	31.57
329.583	80.72
329.796	88.92
330.009	13.14
330.222	52.05
330.435	2.9
330.648	101.2
330.861	33.62
331.073	78.68
331.286	56.15
331.499	52.05
331.712	47.96
331.925	13.14
332.138	99.16
332.35	97.11
332.563	39.76
332.776	37.72
332.989	15.19
333.202	68.44
333.414	117.59
333.627	74.58
333.84	82.77
334.053	119.64
334.265	95.06
334.478	-5.29
334.691	80.72
334.903	33.62
335.116	9.05
335.329	4.95
335.541	74.58
335.754	80.72
335.966	70.48
336.179	84.82
336.392	17.24
336.604	21.33
336.817	19.29
337.029	52.05
337.242	76.63
337.454	37.72
337.667	90.96
337.88	78.68
338.092	21.33
338.305	43.86
338.517	-25.77
338.729	52.05
338.942	156.5
339.154	21.33
339.367	-25.77
339.579	52.05
339.792	-7.34
340.004	11.09
340.217	84.82
340.429	80.72
340.641	21.33
340.854	-9.39
341.066	-52.39
341.278	76.63
341.491	121.68
341.703	60.24
341.915	76.63
342.128	68.44
342.34	105.3
342.552	23.38
342.764	39.76
342.977	-33.96
343.189	70.48
343.401	68.44
343.613	-3.24
343.826	45.91
344.038	41.81
344.25	93.01
344.462	78.68
344.674	19.29
344.886	29.52
345.099	93.01
345.311	7
345.523	2.9
345.735	15.19
345.947	29.52
346.159	45.91
346.371	19.29
346.583	86.87
346.795	54.1
347.007	29.52
347.219	-15.53
347.431	45.91
347.643	84.82
347.855	54.1
348.067	45.91
348.279	-13.48
348.491	93.01
348.703	76.63
348.915	19.29
349.127	-38.06
349.339	84.82
349.551	27.48
349.763	47.96
349.975	29.52
350.187	33.62
350.399	72.53
350.61	43.86
350.822	4.95
351.034	68.44
351.246	11.09
351.458	27.48
351.669	37.72
351.881	148.31
352.093	97.11
352.305	78.68
352.517	60.24
352.728	41.81
352.94	60.24
353.152	70.48
353.363	35.67
353.575	54.1
353.787	11.09
353.999	84.82
354.21	11.09
354.422	-15.53
354.633	39.76
354.845	76.63
355.057	11.09
355.268	62.29
355.48	58.2
355.692	41.81
355.903	33.62
356.115	62.29
356.326	19.29
356.538	90.96
356.749	52.05
356.961	103.25
357.172	101.2
357.384	45.91
357.595	142.16
357.807	68.44
358.018	0.85
358.23	111.44
358.441	86.87
358.653	37.72
358.864	-3.24
359.075	50
359.287	144.21
359.498	90.96
359.709	86.87
359.921	27.48
360.132	25.43
360.344	15.19
360.555	54.1
360.766	101.2
360.977	45.91
361.189	47.96
361.4	45.91
361.611	47.96
361.823	84.82
362.034	64.34
362.245	52.05
362.456	-1.19
362.667	80.72
362.879	72.53
363.09	52.05
363.301	117.59
363.512	27.48
363.723	93.01
363.935	95.06
364.146	133.97
364.357	9.05
364.568	109.4
364.779	101.2
364.99	78.68
365.201	35.67
365.412	117.59
365.623	76.63
365.834	76.63
366.045	84.82
366.256	11.09
366.467	95.06
366.678	43.86
366.889	129.88
367.1	21.33
367.311	17.24
367.522	76.63
367.733	-1.19
367.944	62.29
368.155	9.05
368.366	56.15
368.577	101.2
368.788	62.29
368.999	-1.19
369.209	78.68
369.42	164.69
369.631	93.01
369.842	84.82
370.053	43.86
370.264	33.62
370.474	64.34
370.685	68.44
370.896	93.01
371.107	86.87
371.317	39.76
371.528	105.3
371.739	95.06
371.95	90.96
372.16	43.86
372.371	31.57
372.582	43.86
372.792	33.62
373.003	105.3
373.214	76.63
373.424	64.34
373.635	-21.67
373.846	172.88
374.056	35.67
374.267	11.09
374.477	58.2
374.688	93.01
374.898	-1.19
375.109	33.62
375.319	93.01
375.53	115.54
375.74	54.1
375.951	64.34
376.161	43.86
376.372	43.86
376.582	74.58
376.793	25.43
377.003	29.52
377.214	97.11
377.424	97.11
377.635	43.86
377.845	2.9
378.055	121.68
378.266	37.72
378.476	39.76
378.686	88.92
378.897	117.59
379.107	64.34
379.317	84.82
379.528	4.95
379.738	103.25
379.948	45.91
380.158	70.48
380.369	117.59
380.579	125.78
380.789	90.96
380.999	76.63
381.21	56.15
381.42	109.4
381.63	37.72
381.84	72.53
382.05	84.82
382.261	70.48
382.471	119.64
382.681	56.15
382.891	60.24
383.101	2.9
383.311	21.33
383.521	66.39
383.731	129.88
383.941	148.31
384.151	27.48
384.361	68.44
384.571	93.01
384.781	86.87
384.991	78.68
385.201	74.58
385.411	117.59
385.621	97.11
385.831	93.01
386.041	101.2
386.251	52.05
386.461	47.96
386.671	107.35
386.881	76.63
387.091	-3.24
387.301	101.2
387.511	148.31
387.72	95.06
387.93	133.97
388.14	93.01
388.35	170.83
388.56	111.44
388.769	54.1
388.979	136.02
389.189	80.72
389.399	156.5
389.609	84.82
389.818	117.59
390.028	76.63
390.238	74.58
390.447	76.63
390.657	27.48
390.867	52.05
391.076	64.34
391.286	72.53
391.496	62.29
391.705	84.82
391.915	123.73
392.125	131.92
392.334	144.21
392.544	101.2
392.753	97.11
392.963	129.88
393.172	93.01
393.382	142.16
393.591	160.59
393.801	84.82
394.01	76.63
394.22	107.35
394.429	185.17
394.639	111.44
394.848	113.49
395.058	80.72
395.267	97.11
395.477	103.25
395.686	99.16
395.895	148.31
396.105	136.02
396.314	66.39
396.524	115.54
396.733	76.63
396.942	205.65
397.152	119.64
397.361	84.82
397.57	84.82
397.78	162.64
397.989	162.64
398.198	150.36
398.407	107.35
398.617	84.82
398.826	101.2
399.035	117.59
399.244	121.68
399.453	121.68
399.663	115.54
399.872	144.21
400.081	136.02
400.29	213.84
400.499	127.83
400.708	162.64
400.917	166.74
401.127	154.45
401.336	70.48
401.545	129.88
401.754	207.7
401.963	129.88
402.172	105.3
402.381	103.25
402.59	176.98
402.799	187.22
403.008	176.98
403.217	168.79
403.426	174.93
403.635	95.06
403.844	187.22
404.053	168.79
404.262	158.55
404.471	209.75
404.68	232.27
404.888	219.99
405.097	127.83
405.306	176.98
405.515	191.31
405.724	183.12
405.933	199.51
406.142	150.36
406.35	236.37
406.559	232.27
406.768	195.41
406.977	242.51
407.185	324.43
407.394	260.95
407.603	236.37
407.812	330.58
408.02	297.81
408.229	236.37
408.438	252.75
408.646	297.81
408.855	281.43
409.064	373.58
409.272	338.77
409.481	428.88
409.69	336.72
409.898	330.58
410.107	430.93
410.315	363.34
410.524	430.93
410.733	486.22
410.941	396.11
411.15	441.17
411.358	572.24
411.567	576.33
411.775	478.03
411.984	537.42
412.192	586.57
412.401	611.15
412.609	607.05
412.818	676.68
413.026	643.92
413.234	670.54
413.443	713.55
413.651	682.83
413.86	693.07
414.068	801.61
414.276	846.66
414.485	947.01
414.693	846.66
414.901	940.87
415.11	846.66
415.318	920.39
415.526	1014.6
415.734	1004.36
415.943	1035.08
416.151	1110.85
416.359	1082.18
416.567	1080.13
416.776	1145.67
416.984	1174.34
417.192	1256.26
417.4	1217.35
417.608	1280.83
417.817	1291.07
418.025	1459.01
418.233	1487.68
418.441	1442.62
418.649	1465.15
418.857	1610.56
419.065	1735.48
419.273	1667.9
419.481	1841.98
419.689	1942.33
419.897	2089.78
420.105	1964.86
420.313	2028.34
420.521	2052.92
420.729	2120.5
420.937	2263.86
421.145	2255.67
421.353	2329.39
421.561	2536.24
421.769	2591.53
421.977	2632.49
422.185	2517.81
422.393	2698.03
422.601	2941.74
422.809	2970.41
423.017	2935.59
423.224	2986.79
423.432	3066.66
423.64	3156.77
423.848	3574.56
424.056	3414.82
424.263	3640.09
424.471	3775.26
424.679	3805.98
424.887	3967.77
425.094	4115.22
425.302	4152.09
425.51	4317.97
425.718	4320.02
425.925	4557.58
426.133	4637.45
426.341	4838.16
426.548	5057.29
426.756	4883.21
426.964	5081.86
427.171	5290.76
427.379	5341.96
427.586	5663.49
427.794	5714.69
428.001	6116.09
428.209	6357.75
428.417	6228.73
428.624	6712.05
428.832	6691.57
429.039	6673.14
429.247	6642.42
429.454	7324.39
429.662	7746.27
429.869	7346.92
430.076	7787.23
430.284	7535.33
430.491	7936.73
430.699	8170.2
430.906	8284.89
431.114	8481.49
431.321	8866.51
431.528	8841.93
431.736	9431.75
431.943	10029.76
432.15	9462.47
432.358	9702.08
432.565	10144.44
432.772	10498.74
432.979	10640.05
433.187	10914.48
433.394	11082.41
433.601	11709.09
433.808	11954.85
434.016	11616.93
434.223	12212.89
434.43	12743.31
434.637	12634.77
434.844	13544.07
435.052	13578.89
435.259	13613.7
435.466	13707.91
435.673	13748.87
435.88	14523
436.087	15241.84
436.294	15129.2
436.501	14871.15
436.708	15075.95
436.915	15723.11
437.122	16360.03
437.329	16468.57
437.537	17162.83
437.743	17078.86
437.95	17199.69
438.157	17926.72
438.364	18444.86
438.571	18207.3
438.778	18500.16
438.985	20339.23
439.192	19319.34
439.399	20245.02
439.606	19720.74
439.813	20838.94
440.02	22112.77
440.227	21525
440.433	21101.08
440.64	22061.57
440.847	21932.55
441.054	22696.44
441.261	24060.39
441.467	23671.28
441.674	24418.78
441.881	25221.59
442.088	24838.62
442.294	24695.26
442.501	25256.4
442.708	25866.7
442.914	26929.59
443.121	27988.39
443.328	27457.97
443.534	29127.06
443.741	28273.06
443.948	27937.2
444.154	29882.77
444.361	29933.96
444.568	30048.65
444.774	30003.6
444.981	30169.48
445.187	30865.79
445.394	32528.74
445.6	32031.08
445.807	35139.9
446.013	33612.12
446.22	33962.32
446.426	35748.15
446.633	35844.4
446.839	36815.14
447.046	35424.57
447.252	37527.83
447.459	37091.62
447.665	37452.06
447.871	38949.12
448.078	40360.17
448.284	38713.61
448.491	40034.55
448.697	41103.59
448.903	42371.28
449.11	42275.02
449.316	41287.9
449.522	42016.98
449.728	43026.63
449.935	43364.54
450.141	43518.14
450.347	44617.9
450.553	42895.56
450.76	43600.06
450.966	45357.22
451.172	44570.8
451.378	45578.4
451.584	44798.12
451.791	45883.55
451.997	45727.9
452.203	46104.73
452.409	46235.8
452.615	46227.6
452.821	44046.52
453.027	44032.18
453.233	46364.82
453.44	44314.8
453.646	45203.62
453.852	45144.23
454.058	46020.76
454.264	44308.66
454.47	45230.24
454.676	44191.92
454.882	45613.21
455.088	41701.59
455.294	42520.78
455.5	43681.98
455.705	43962.55
455.911	41924.82
456.117	41177.31
456.323	40818.92
456.529	38508.81
456.735	40358.13
456.941	39411.96
457.147	38590.73
457.352	37671.19
457.558	37134.62
457.764	37204.25
457.97	36489.51
458.176	35842.35
458.381	36043.06
458.587	34052.43
458.793	33700.18
458.999	32504.17
459.204	34625.86
459.41	33280.35
459.616	31373.69
459.821	31449.46
460.027	31660.4
460.233	30583.17
460.438	29215.13
460.644	29655.44
460.85	28481.95
461.055	27589.04
461.261	27478.45
461.466	25584.08
461.672	24850.91
461.878	26462.66
462.083	24893.91
462.289	24472.03
462.494	24170.98
462.7	23427.57
462.905	22612.48
463.111	22948.34
463.316	23509.49
463.522	22784.51
463.727	22749.69
463.932	23157.24
464.138	22313.47
464.343	22825.47
464.549	21920.26
464.754	22839.8
464.959	22610.43
465.165	22415.87
465.37	21490.19
465.575	20791.83
465.781	21748.23
465.986	21869.06
466.191	20859.42
466.397	20828.7
466.602	19532.33
466.807	20550.17
467.012	20484.64
467.218	20154.91
467.423	19933.73
467.628	20058.66
467.833	20959.77
468.038	20177.44
468.244	19937.83
468.449	20435.49
468.654	19706.41
468.859	19513.9
469.064	19401.26
469.269	19159.6
469.474	18919.99
469.679	19552.81
469.885	18577.98
470.09	18909.75
470.295	18850.36
470.5	18483.77
470.705	18526.78
470.91	18217.54
471.115	18115.14
471.32	18197.06
471.525	18113.09
471.73	17873.48
471.935	17492.55
472.139	17054.29
472.344	17236.56
472.549	16902.74
472.754	16861.78
472.959	16542.3
473.164	16196.19
473.369	16048.74
473.574	16749.14
473.778	16548.44
473.983	16286.3
474.188	16185.95
474.393	15559.27
474.598	15428.2
474.802	15641.19
475.007	15434.35
475.212	15344.24
475.417	14836.34
475.621	14838.39
475.826	14940.79
476.031	14746.23
476.235	14209.66
476.44	14740.08
476.645	14363.26
476.849	14283.39
477.054	14162.56
477.259	14224
477.463	13886.08
477.668	13413
477.872	13924.99
478.077	13382.28
478.282	13007.5
478.486	13019.79
478.691	13183.63
478.895	12860.05
479.1	12931.73
479.304	12843.67
479.509	12544.66
479.713	12692.12
479.918	12278.43
480.122	12173.98
480.326	12343.96
480.531	12448.41
480.735	12194.46
480.94	12243.61
481.144	12540.57
481.348	12108.44
481.553	12266.14
481.757	11940.51
481.961	12069.53
482.166	12210.84
482.37	12212.89
482.574	11981.47
482.778	11954.85
482.983	12040.86
483.187	12161.69
483.391	12106.4
483.595	11795.11
483.8	12001.95
484.004	11948.7
484.208	12063.39
484.412	11893.41
484.616	12102.3
484.821	11997.85
485.025	11750.05
485.229	12176.03
485.433	11668.13
485.637	12001.95
485.841	11633.32
486.045	11850.4
486.249	11674.28
486.453	11899.55
486.657	11905.7
486.861	11877.02
487.065	11551.4
487.269	11805.35
487.473	11840.16
487.677	12051.1
487.881	11942.56
488.085	11782.82
488.289	12192.41
488.493	11766.43
488.697	11866.78
488.901	11862.69
489.105	12171.93
489.309	12094.11
489.512	12163.74
489.716	11895.46
489.92	12153.5
490.124	12073.63
490.328	12268.19
490.531	12149.4
490.735	12120.73
490.939	12235.42
491.143	12047.01
491.346	12247.71
491.55	12339.87
491.754	12542.61
491.958	12528.28
492.161	12311.19
492.365	12548.76
492.569	12581.53
492.772	12579.48
492.976	12653.2
493.18	12921.49
493.383	12991.12
493.587	12927.63
493.79	13101.71
493.994	12987.02
494.197	13134.48
494.401	13068.94
494.605	13214.35
494.808	13378.19
495.012	13511.3
495.215	13572.74
495.419	13535.88
495.622	13689.48
495.825	13685.38
496.029	13931.14
496.232	13945.47
496.436	13908.61
496.639	14355.07
496.843	14346.87
497.046	14670.45
497.249	14803.57
497.453	14965.36
497.656	15141.49
497.859	15155.82
498.063	15186.54
498.266	15579.75
498.469	15510.12
498.673	15501.93
498.876	15823.46
499.079	16018.02
499.282	15970.91
499.485	16353.88
499.689	16550.49
499.892	16884.31
500.095	16894.55
500.298	17185.36
500.501	16953.94
500.705	17320.53
500.908	17549.9
501.111	17988.16
501.314	17814.09
501.517	18145.86
501.72	18483.77
501.923	18262.59
502.126	18649.66
502.329	19126.83
502.532	19335.73
502.735	18872.89
502.938	19601.96
503.141	19685.93
503.344	19874.34
503.547	19905.06
503.75	20257.31
503.953	20458.01
504.156	21107.22
504.359	20732.44
504.562	21162.51
504.765	21574.16
504.968	21529.1
505.17	21871.11
505.373	22161.92
505.576	22460.93
505.779	22671.87
505.982	22917.62
506.185	23345.65
506.387	23261.68
506.59	23431.66
506.793	24181.22
506.996	23706.09
507.198	24685.02
507.401	24580.57
507.604	24705.5
507.807	25254.36
508.009	25373.14
508.212	25358.8
508.415	26157.51
508.617	26309.06
508.82	26198.47
509.022	26497.47
509.225	26890.68
509.428	27165.11
509.63	27337.14
509.833	27287.99
510.035	27818.41
510.238	27910.57
510.44	28307.88
510.643	28518.82
510.845	28778.91
511.048	28623.26
511.25	29327.77
511.453	29249.94
511.655	30425.48
511.858	29938.06
512.06	30259.59
512.262	30933.37
512.465	30833.02
512.667	31347.06
512.87	31621.49
513.072	31576.44
513.274	32469.35
513.477	32338.28
513.679	32758.11
513.881	33122.65
514.084	33124.7
514.286	33366.36
514.488	33812.82
514.69	34318.67
514.893	34662.72
515.095	34539.85
515.297	35291.45
515.499	35260.73
515.701	35967.28
515.904	36297
516.106	36565.29
516.308	36309.29
516.51	37026.08
516.712	36882.72
516.914	37622.04
517.116	38156.56
517.318	38275.34
517.52	38109.46
517.722	38289.68
517.925	39125.25
518.127	39446.78
518.329	39911.67
518.531	39317.76
518.733	40528.11
518.935	40431.85
519.136	40843.49
519.338	41167.07
519.54	41464.03
519.742	41441.5
519.944	41875.67
520.146	42397.9
520.348	42563.79
520.55	43147.46
520.752	43069.64
520.954	43661.5
521.155	43874.49
521.357	43839.67
521.559	44441.78
521.761	44959.91
521.963	45017.25
522.164	45148.32
522.366	44847.27
522.568	46016.66
522.77	45879.45
522.971	46604.43
523.173	46127.25
523.375	46784.65
523.576	46676.11
523.778	46864.52
523.98	47546.5
524.181	47456.39
524.383	47784.06
524.584	48455.79
524.786	48193.65
524.988	47943.8
525.189	48636.02
525.391	49070.18
525.592	49199.21
525.794	49422.44
525.995	49080.42
526.197	49299.56
526.398	49766.49
526.6	50042.97
526.801	49856.6
527.003	50034.78
527.204	50350.17
527.406	50813.01
527.607	50618.45
527.808	51247.18
528.01	50669.65
528.211	50851.92
528.412	51527.75
528.614	51574.85
528.815	51368.01
529.016	51830.85
529.218	51525.7
529.419	51566.66
529.62	52076.6
529.822	51820.61
530.023	52049.98
530.224	52156.47
530.425	51978.3
530.626	51617.86
530.828	51634.24
531.029	52924.46
531.23	52215.86
531.431	52598.83
531.632	52617.27
531.833	52871.21
532.035	52262.97
532.236	53127.21
532.437	52936.75
532.638	52217.91
532.839	52910.13
533.04	52863.02
533.241	52342.84
533.442	53131.31
533.643	52607.03
533.844	52697.14
534.045	52979.76
534.246	52174.91
534.447	53141.55
534.648	52760.62
534.849	52772.91
535.05	52654.13
535.251	52451.38
535.451	52983.85
535.652	52912.17
535.853	52453.43
536.054	53166.12
536.255	53182.51
536.456	52817.97
536.657	53321.77
536.857	52877.36
537.058	52940.85
537.259	53747.75
537.46	53057.58
537.66	52971.57
537.861	53303.34
538.062	52521.01
538.263	52777.01
538.463	52709.43
538.664	52469.81
538.865	52883.5
539.065	53035.05
539.266	52557.88
539.466	53305.38
539.667	52568.12
539.868	52930.61
540.068	52877.36
540.269	52631.6
540.469	52934.7
540.67	52574.26
540.87	52994.09
541.071	52488.24
541.271	53022.76
541.472	52394.04
541.672	52316.22
541.873	52860.97
542.073	52314.17
542.274	53026.86
542.474	52379.7
542.675	52547.64
542.875	52971.57
543.075	52555.83
543.276	52117.56
543.476	52990
543.676	52199.48
543.877	52371.51
544.077	52453.43
544.277	52142.14
544.478	52453.43
544.678	52238.39
544.878	52361.27
545.078	52568.12
545.279	52148.28
545.479	52109.37
545.679	52500.53
545.879	52174.91
546.079	52379.7
546.28	52478
546.48	52246.58
546.68	52484.15
546.88	52181.05
547.08	52273.21
547.28	51998.78
547.48	51914.81
547.68	52238.39
547.88	52033.6
548.081	52099.13
548.281	52025.4
548.481	52199.48
548.681	52412.47
548.881	52639.79
549.081	51861.57
549.28	51957.82
549.48	52391.99
549.68	51707.97
549.88	52858.93
550.08	51806.27
550.28	52383.8
550.48	52080.7
550.68	52213.82
550.88	52113.47
551.08	51947.58
551.279	52449.33
551.479	51529.8
551.679	51853.37
551.879	51771.46
552.079	52117.56
552.278	52058.17
552.478	52056.12
552.678	51781.7
552.878	52101.18
553.077	51974.2
553.277	51787.84
553.477	52254.78
553.676	51716.16
553.876	51683.39
554.076	51376.2
554.275	51626.05
554.475	50851.92
554.674	52297.78
554.874	51460.16
555.074	51128.39
555.273	51572.8
555.473	51744.83
555.672	51228.74
555.872	51386.44
556.071	51337.29
556.271	51413.06
556.47	51001.42
556.67	51152.97
556.869	51220.55
557.068	51509.32
557.268	51060.81
557.467	51034.19
557.667	51167.3
557.866	50993.23
558.065	51138.63
558.265	51101.77
558.464	50772.05
558.663	51484.74
558.863	50241.62
559.062	51206.22
559.261	50585.68
559.461	51363.91
559.66	50174.04
559.859	50931.79
560.058	50301.01
560.258	50622.54
560.457	49956.96
560.656	51052.62
560.855	50518.1
561.054	50733.14
561.253	50063.45
561.453	50290.77
561.652	50749.52
561.851	50317.4
562.05	49959
562.249	49823.84
562.448	50313.3
562.647	49721.44
562.846	49887.32
563.045	50067.55
563.244	49455.2
563.443	50610.26
563.642	49121.38
563.841	49619.04
564.04	49561.7
564.239	49725.53
564.438	49051.75
564.637	49537.12
564.836	49832.03
565.035	48941.16
565.234	49494.11
565.432	49031.27
565.631	48975.98
565.83	49272.93
566.029	48992.36
566.228	48746.61
566.427	48717.93
566.625	48980.07
566.824	48052.34
567.023	48814.19
567.222	47771.77
567.42	48642.16
567.619	48117.88
567.818	48322.68
568.016	47941.75
568.215	48482.42
568.414	47976.57
568.612	48398.45
568.811	47581.31
569.01	47925.37
569.208	47501.44
569.407	47671.42
569.605	47059.08
569.804	47792.25
570.002	47171.72
570.201	47116.42
570.4	46745.74
570.598	47009.93
570.797	46620.81
570.995	47167.62
571.193	46510.22
571.392	47059.08
571.59	46583.95
571.789	46483.6
571.987	46207.12
572.186	46303.38
572.384	46254.23
572.582	46338.19
572.781	46090.39
572.979	45357.22
573.177	46088.34
573.376	46129.3
573.574	45365.41
573.772	46020.76
573.971	45412.51
574.169	45082.79
574.367	44746.92
574.565	45387.94
574.763	44900.52
574.962	44927.14
575.16	44226.74
575.358	44519.6
575.556	44638.38
575.754	44824.75
575.952	44390.58
576.151	45029.54
576.349	44193.97
576.547	44333.23
576.745	44464.3
576.943	44175.54
577.141	43872.44
577.339	44269.75
577.537	43911.35
577.735	43598.01
577.933	43421.89
578.131	43729.08
578.329	43315.39
578.527	43227.33
578.725	43360.45
578.923	43247.81
579.121	42858.7
579.319	43008.2
579.516	43172.03
579.714	43208.9
579.912	42477.77
580.11	42541.26
580.308	42895.56
580.506	42160.34
580.704	41926.87
580.901	42344.66
581.099	42217.68
581.297	42252.5
581.495	41660.63
581.692	42023.12
581.89	41423.07
582.088	42193.11
582.285	41212.13
582.483	41361.63
582.681	41117.92
582.878	41224.42
583.076	40632.55
583.274	41310.43
583.471	40487.15
583.669	40491.24
583.866	40276.21
584.064	40585.45
584.262	39919.86
584.459	40812.77
584.657	40603.88
584.854	40607.98
585.052	39702.78
585.249	40372.46
585.447	40024.31
585.644	39530.75
585.841	39751.93
586.039	40024.31
586.236	39760.12
586.434	39543.03
586.631	39336.19
586.828	39342.33
587.026	38818.05
587.223	39092.48
587.42	39016.71
587.618	38897.92
587.815	38711.56
588.012	38430.99
588.21	38797.57
588.407	39123.2
588.604	38412.56
588.801	37853.46
588.999	38387.98
589.196	38166.8
589.393	37998.87
589.59	37884.18
589.787	37947.67
589.984	37525.78
590.182	37560.6
590.379	37746.97
590.576	37275.93
590.773	37257.5
590.97	37034.27
591.167	36903.2
591.364	36753.7
591.561	37179.68
591.758	36667.69
591.955	36872.48
592.152	36976.93
592.349	36485.42
592.546	36626.73
592.743	36204.84
592.94	35676.47
593.137	36065.58
593.334	36323.63
593.531	35549.49
593.727	36210.99
593.924	35821.87
594.121	35381.56
594.318	35985.71
594.515	35221.82
594.712	35658.04
594.908	35148.09
595.105	35619.13
595.302	34851.14
595.499	34922.82
595.696	34984.26
595.892	34668.87
596.089	34699.59
596.286	34589
596.482	34613.57
596.679	34462.02
596.876	34476.36
597.072	34343.24
597.269	34130.25
597.466	34201.93
597.662	33847.63
597.859	33919.31
598.055	33999.18
598.252	33444.18
598.448	33730.9
598.645	33356.12
598.841	33429.85
599.038	33530.2
599.234	33126.75
599.431	32803.17
599.627	32952.67
599.824	32991.58
600.02	33229.15
600.217	32938.33
600.413	32745.83
600.609	32614.76
600.806	32579.94
601.002	32770.4
601.198	32074.09
601.395	32172.39
601.591	31963.5
601.787	32231.79
601.984	31918.45
602.18	32205.16
602.376	31746.42
602.572	31715.7
602.769	31656.31
602.965	31181.18
603.161	31580.53
603.357	31363.45
603.553	31244.66
603.75	31170.94
603.946	31084.92
604.142	31279.48
604.338	30521.73
604.534	30986.62
604.73	30521.73
604.926	30298.5
605.122	30908.8
605.318	30613.89
605.514	30149
605.71	30046.6
605.906	30509.44
606.102	30212.49
606.298	30095.75
606.494	29872.53
606.69	29890.96
606.886	30189.96
607.082	29553.04
607.278	30103.95
607.474	29327.77
607.67	29776.27
607.866	29086.11
608.062	29858.19
608.257	29399.44
608.453	29497.75
608.649	29448.6
608.845	28955.04
609.041	29329.81
609.236	29245.85
609.432	29104.54
609.628	28948.89
609.824	28848.54
610.019	28768.67
610.215	28920.22
610.411	28664.22
610.606	28715.42
610.802	28826.01
610.998	28508.58
611.193	28395.94
611.389	28453.28
611.584	28113.32
611.78	27881.9
611.976	28266.92
612.171	28363.17
612.367	28326.31
612.562	27808.17
612.758	27609.52
612.953	27892.14
613.149	28344.74
613.344	27636.14
613.539	27826.6
613.735	27972.01
613.93	27589.04
614.126	27517.36
614.321	28123.56
614.517	27804.08
614.712	27089.34
614.907	27453.87
615.103	27421.11
615.298	26943.93
615.493	27509.17
615.688	26970.55
615.884	27527.6
616.079	26970.55
616.274	27183.54
616.47	27132.34
616.665	27183.54
616.86	26847.68
617.055	26927.55
617.25	26397.12
617.445	27120.06
617.641	26649.02
617.836	26724.8
618.031	26378.69
618.226	26579.39
618.421	26325.44
618.616	26114.5
618.811	26026.44
619.006	26184.13
619.201	25799.12
619.396	25856.46
619.591	25622.99
619.786	25917.9
619.981	25504.21
620.176	25725.39
620.371	25129.43
620.566	25407.95
620.761	25151.96
620.956	25311.7
621.151	24664.54
621.346	25139.67
621.541	24687.07
621.735	25119.19
621.93	24521.18
622.125	24707.55
622.32	24093.16
622.515	24467.94
622.709	24375.78
622.904	24146.4
623.099	23900.65
623.294	23831.02
623.488	23489.01
623.683	23697.9
623.878	23386.61
624.072	23323.12
624.267	23370.22
624.462	23220.72
624.656	22768.12
624.851	23116.28
625.046	22854.14
625.24	22518.27
625.435	22497.79
625.629	22514.17
625.824	22161.92
626.018	22452.73
626.213	21901.83
626.407	22106.63
626.602	21715.47
626.796	21748.23
626.991	21602.83
627.185	21205.52
627.38	20978.2
627.574	21285.39
627.768	21156.37
627.963	21031.44
628.157	20773.4
628.352	21006.87
628.546	20390.43
628.74	20605.47
628.935	20634.14
629.129	20611.61
629.323	20165.15
629.517	20122.15
629.712	19984.93
629.906	20103.71
630.1	19616.3
630.294	19556.91
630.489	19882.53
630.683	19657.26
630.877	19468.84
631.071	19118.64
631.265	19294.77
631.459	19302.96
631.653	19077.68
631.848	18881.08
632.042	18725.43
632.236	18838.07
632.43	18659.9
632.624	18698.81
632.818	18594.36
633.012	18217.54
633.206	18432.57
633.4	18149.95
633.594	18086.47
633.788	18094.66
633.982	17838.66
634.176	17719.88
634.369	18014.79
634.563	17844.81
634.757	17447.5
634.951	17691.21
635.145	17453.64
635.339	17230.41
635.533	17287.76
635.726	17351.24
635.92	17078.86
636.114	16726.61
636.308	16829.01
636.501	16837.2
636.695	16771.67
636.889	16415.32
637.083	16601.69
637.276	16478.81
637.47	16183.9
637.664	16087.65
637.857	16335.45
638.051	16323.16
638.244	15913.57
638.438	16028.26
638.632	16007.78
638.825	15835.75
639.019	15692.39
639.212	15469.16
639.406	15659.62
639.599	15503.98
639.793	15618.66
639.986	15336.04
640.18	15178.35
640.373	15028.85
640.567	14695.03
640.76	14850.67
640.954	15073.9
641.147	14996.08
641.34	14619.25
641.534	14430.84
641.727	14594.68
641.92	14621.3
642.114	14381.69
642.307	14287.48
642.5	14207.61
642.694	14140.03
642.887	13857.41
643.08	13972.1
643.273	13642.37
643.467	13980.29
643.66	13662.85
643.853	13697.67
644.046	13716.1
644.239	13550.21
644.432	13642.37
644.626	13570.69
644.819	13503.11
645.012	13503.11
645.205	13326.99
645.398	13445.77
645.591	13326.99
645.784	13038.22
645.977	12827.28
646.17	12884.62
646.363	12860.05
646.556	12718.74
646.749	12614.29
646.942	12771.99
647.135	12556.95
647.328	12450.46
647.521	12356.25
647.714	12139.16
647.907	12550.81
648.099	12425.88
648.292	12210.84
648.485	12151.45
648.678	11950.75
648.871	11942.56
649.064	11791.01
649.256	11973.28
649.449	11823.78
649.642	11604.64
649.835	11485.86
650.027	11817.63
650.22	11532.97
650.413	11367.08
650.605	11545.25
650.798	11373.22
650.991	11221.67
651.183	11176.62
651.376	11133.61
651.568	11231.91
651.761	11072.17
651.954	11117.23
652.146	11145.9
652.339	10977.97
652.531	10930.86
652.724	10748.59
652.916	10556.08
653.109	10576.56
653.301	10672.82
653.494	10635.96
653.686	10255.03
653.879	10465.97
654.071	10572.47
654.263	10291.9
654.456	10324.66
654.648	10562.23
654.84	10150.59
655.033	9951.93
655.225	10044.09
655.417	10173.11
655.61	9968.32
655.802	9876.16
655.994	9888.45
656.186	9984.7
656.379	9900.73
656.571	9786.05
656.763	9640.64
656.955	9493.19
657.148	9532.1
657.34	9485
657.532	9597.63
657.724	9401.03
657.916	9630.4
658.108	9226.95
658.3	9333.45
658.492	9122.51
658.684	9110.22
658.876	9104.07
659.068	9140.94
659.26	8970.96
659.452	9007.82
659.644	8999.63
659.836	8854.22
660.028	8954.57
660.22	8735.44
660.412	8692.43
660.604	8755.92
660.796	8657.62
660.988	8571.6
661.18	8432.34
661.372	8450.77
661.563	8485.59
661.755	8473.3
661.947	8456.92
662.139	8297.17
662.331	8301.27
662.522	8243.93
662.714	8207.06
662.906	8295.13
663.097	8178.39
663.289	8071.9
663.481	8157.91
663.673	7867.1
663.864	7949.02
664.056	7774.94
664.247	7926.49
664.439	7754.46
664.631	7766.75
664.822	7893.72
665.014	7793.37
665.205	7629.54
665.397	7506.66
665.588	7799.52
665.78	7627.49
665.971	7680.74
666.163	7633.63
666.354	7439.08
666.546	7437.03
666.737	7371.49
666.929	7234.28
667.12	7453.41
667.311	7383.78
667.503	7318.25
667.694	7258.85
667.885	7109.35
668.077	7160.55
668.268	7254.76
668.459	7119.59
668.651	6859.5
668.842	6943.47
669.033	7000.81
669.224	6761.2
669.416	6953.71
669.607	6851.31
669.798	6732.53
669.989	7039.72
670.18	6685.42
670.371	6574.83
670.563	6648.56
670.754	6613.74
670.945	6619.89
671.136	6572.79
671.327	6615.79
671.518	6609.65
671.709	6599.41
671.9	6746.86
672.091	6400.76
672.282	6382.32
672.473	6324.98
672.664	6572.79
672.855	6247.16
673.046	6445.81
673.237	6238.97
673.428	6238.97
673.619	6255.35
673.809	6130.42
674	6281.97
674.191	6382.32
674.382	6255.35
674.573	6097.66
674.764	6284.02
674.954	6212.34
675.145	6200.05
675.336	6021.88
675.527	5978.87
675.717	5913.34
675.908	5870.33
676.099	5942.01
676.289	5925.63
676.48	5903.1
676.671	5905.15
676.861	5819.13
677.052	5806.84
677.243	5716.73
677.433	5810.94
677.624	5935.87
677.814	5765.89
678.005	5729.02
678.195	5757.69
678.386	5632.77
678.576	5737.21
678.767	5782.27
678.957	5720.83
679.148	5643.01
679.338	5577.47
679.529	5565.18
679.719	5387.01
679.909	5657.34
680.1	5698.3
680.29	5532.42
680.481	5538.56
680.671	5466.88
680.861	5384.96
681.052	5434.11
681.242	5466.88
681.432	5448.45
681.622	5323.52
681.813	5313.28
682.003	5239.56
682.193	5325.57
682.383	5501.7
682.573	5417.73
682.764	5331.72
682.954	5319.43
683.144	5335.81
683.334	5235.46
683.524	5307.14
683.714	5212.93
683.904	5153.54
684.094	5198.6
684.284	5108.49
684.474	5257.99
684.664	4977.42
684.854	5124.87
685.044	5040.9
685.234	5001.99
685.424	5018.38
685.614	4936.46
685.804	5020.42
685.994	5131.02
686.184	4852.49
686.374	4926.22
686.564	4928.27
686.753	4897.55
686.943	4850.44
687.133	4969.23
687.323	4672.27
687.513	4909.83
687.702	4797.2
687.892	4840.2
688.082	4967.18
688.272	4739.85
688.461	4664.08
688.651	4754.19
688.841	4553.49
689.03	4621.07
689.22	4586.26
689.41	4551.44
689.599	4541.2
689.789	4518.67
689.979	4584.21
690.168	4500.24
690.358	4655.89
690.547	4508.43
690.737	4510.48
690.926	4438.8
691.116	4434.71
691.305	4418.32
691.495	4348.69
691.684	4322.07
691.874	4475.67
692.063	4238.1
692.252	4336.4
692.442	4285.2
692.631	4356.88
692.82	4256.53
693.01	4317.97
693.199	4231.96
693.388	4178.71
693.578	4168.47
693.767	4145.94
693.956	4197.14
694.146	4088.6
694.335	4152.09
694.524	4123.41
694.713	4299.54
694.902	4088.6
695.092	4150.04
695.281	4092.69
695.47	4045.59
695.659	3986.2
695.848	3994.39
696.037	4014.87
696.226	3906.33
696.415	4004.63
696.604	4041.5
696.793	4076.31
696.982	3914.52
697.171	3904.28
697.36	3971.86
697.549	3928.86
697.738	3926.81
697.927	3971.86
698.116	4004.63
698.305	3822.36
698.494	3943.19
698.683	3814.17
698.872	3824.41
699.061	3779.36
699.25	3959.58
699.438	3771.16
699.627	3787.55
699.816	3810.08
700.005	3779.36
700.193	3818.27
700.382	3840.79
700.571	3797.79
700.76	3855.13
700.948	3738.4
701.137	3672.86
701.326	3795.74
701.514	3629.85
701.703	3814.17
701.892	3590.94
702.08	3777.31
702.269	3732.25
702.457	3629.85
702.646	3756.83
702.834	3609.37
703.023	3556.13
703.212	3640.09
703.4	3758.88
703.589	3609.37
703.777	3500.83
703.965	3746.59
704.154	3695.39
704.342	3466.02
704.531	3541.79
704.719	3502.88
704.907	3570.46
705.096	3502.88
705.284	3435.3
705.472	3558.18
705.661	3402.53
705.849	3504.93
706.037	3595.04
706.226	3402.53
706.414	3412.77
706.602	3369.76
706.79	3437.34
706.979	3410.72
707.167	3472.16
707.355	3386.15
707.543	3478.3
707.731	3568.41
707.919	3367.71
708.107	3328.8
708.296	3349.28
708.484	3330.85
708.672	3410.72
708.86	3314.47
709.048	3304.23
709.236	3423.01
709.424	3357.47
709.612	3341.09
709.8	3115.81
709.988	3296.04
710.176	3220.26
710.364	3336.99
710.551	3173.16
710.739	3183.4
710.927	3226.4
711.115	3181.35
711.303	3066.66
711.491	3105.57
711.679	3195.68
711.866	3148.58
712.054	3275.56
712.242	3193.64
712.43	3283.75
712.617	3132.2
712.805	3144.49
712.993	3011.37
713.181	3117.86
713.368	3089.19
713.556	2988.84
713.744	3142.44
713.931	3105.57
714.119	3070.76
714.306	3089.19
714.494	3085.09
714.682	2980.65
714.869	3126.05
715.057	2972.46
715.244	3003.18
715.432	3027.75
715.619	3033.9
715.807	2902.83
715.994	3042.09
716.182	2980.65
716.369	2968.36
716.556	3019.56
716.744	2839.34
716.931	3027.75
717.119	3025.7
717.306	2911.02
717.493	2822.95
717.681	2906.92
717.868	2980.65
718.055	2890.54
718.242	2943.78
718.43	2849.58
718.617	2976.55
718.804	2788.14
718.991	2849.58
719.179	2820.91
719.366	2798.38
719.553	2863.91
719.74	2902.83
719.927	2755.37
720.114	2710.32
720.301	2716.46
720.488	2779.95
720.676	2747.18
720.863	2728.75
721.05	2853.67
721.237	2802.47
721.424	2763.56
721.611	2927.4
721.798	2655.02
721.985	2689.84
722.172	2677.55
722.358	2738.99
722.545	2790.19
722.732	2612.01
722.919	2796.33
723.106	2804.52
723.293	2708.27
723.48	2677.55
723.667	2755.37
723.853	2646.83
724.04	2677.55
724.227	2579.25
724.414	2675.5
724.6	2573.1
724.787	2507.57
724.974	2671.4
725.161	2530.09
725.347	2550.57
725.534	2646.83
725.72	2624.3
725.907	2476.85
726.094	2616.11
726.28	2562.86
726.467	2493.23
726.653	2517.81
726.84	2579.25
727.027	2700.08
727.213	2431.79
727.4	2521.9
727.586	2595.63
727.773	2482.99
727.959	2624.3
728.145	2468.66
728.332	2470.7
728.518	2464.56
728.705	2550.57
728.891	2476.85
729.077	2444.08
729.264	2446.13
729.45	2360.11
729.636	2509.62
729.823	2382.64
730.009	2450.22
730.195	2423.6
730.382	2345.78
730.568	2421.55
730.754	2476.85
730.94	2353.97
731.126	2478.9
731.313	2429.74
731.499	2212.66
731.685	2306.87
731.871	2390.83
732.057	2345.78
732.243	2499.38
732.429	2325.3
732.615	2323.25
732.801	2442.03
732.987	2325.3
733.173	2337.59
733.359	2259.76
733.545	2255.67
733.731	2239.28
733.917	2323.25
734.103	2345.78
734.289	2313.01
734.475	2306.87
734.661	2317.11
734.847	2186.04
735.033	2298.67
735.219	2255.67
735.404	2282.29
735.59	2231.09
735.776	2276.15
735.962	2245.43
736.148	2308.91
736.333	2272.05
736.519	2181.94
736.705	2247.48
736.89	2108.21
737.076	2083.64
737.262	2325.3
737.447	2153.27
737.633	2206.52
737.819	2169.65
738.004	2116.41
738.19	2126.64
738.375	2034.49
738.561	2149.17
738.747	2138.93
738.932	2112.31
739.118	2077.49
739.303	2077.49
739.489	2075.45
739.674	2093.88
739.859	2059.06
740.045	2063.16
740.23	1971
740.416	2054.97
740.601	2134.84
740.786	2028.34
740.972	2106.17
741.157	2089.78
741.342	1989.43
741.528	1915.7
741.713	2075.45
741.898	1878.84
742.084	1997.62
742.269	1944.38
742.454	1964.86
742.639	1927.99
742.824	1964.86
743.01	1968.95
743.195	2011.96
743.38	1927.99
743.565	1813.31
743.75	1889.08
743.935	1930.04
744.12	1999.67
744.305	1936.18
744.49	1770.3
744.675	1796.92
744.86	1917.75
745.045	1964.86
745.23	1758.01
745.415	1854.27
745.6	1841.98
745.785	1758.01
745.97	1817.4
746.155	1725.24
746.34	1798.97
746.525	1743.67
746.71	1772.35
746.895	1702.72
747.079	1735.48
747.264	1801.02
747.449	1667.9
747.634	1604.41
747.819	1755.96
748.003	1696.57
748.188	1672
748.373	1723.2
748.557	1647.42
748.742	1704.76
748.927	1547.07
749.111	1487.68
749.296	1577.79
749.481	1712.96
749.665	1735.48
749.85	1536.83
750.034	1569.6
750.219	1577.79
750.404	1602.36
750.588	1497.92
750.773	1491.77
750.957	1598.27
751.141	1622.84
751.326	1459.01
751.51	1452.86
751.695	1469.25
751.879	1438.53
752.064	1487.68
752.248	1502.01
752.432	1452.86
752.617	1508.16
752.801	1313.6
752.985	1375.04
753.17	1444.67
753.354	1313.6
753.538	1426.24
753.722	1440.58
753.907	1358.66
754.091	1375.04
754.275	1391.42
754.459	1235.78
754.643	1325.89
754.828	1305.41
755.012	1395.52
755.196	1291.07
755.38	1239.87
755.564	1227.59
755.748	1237.83
755.932	1248.07
756.116	1256.26
756.3	1227.59
756.484	1172.29
756.668	1198.92
756.852	1176.39
757.036	1323.84
757.22	1133.38
757.404	1176.39
757.588	1102.66
757.772	1174.34
757.956	1102.66
758.14	1207.11
758.323	1125.19
758.507	1209.15
758.691	1076.04
758.875	1192.77
759.059	1102.66
759.242	1086.28
759.426	1129.28
759.61	1153.86
759.794	1123.14
759.977	1071.94
760.161	1073.99
760.345	1096.52
760.528	1088.32
760.712	1127.24
760.895	1069.89
761.079	1084.23
761.263	1012.55
761.446	963.4
761.63	1035.08
761.813	1041.22
761.997	963.4
762.18	1063.75
762.364	1069.89
762.547	932.68
762.731	1010.5
762.914	1061.7
763.098	895.82
763.281	947.01
763.464	936.78
763.648	904.01
763.831	936.78
764.015	944.97
764.198	994.12
764.381	953.16
764.564	944.97
764.748	916.3
764.931	863.05
765.114	885.58
765.297	887.62
765.481	871.24
765.664	871.24
765.847	838.47
766.03	875.34
766.213	920.39
766.397	852.81
766.58	779.08
766.763	932.68
766.946	871.24
767.129	854.86
767.312	832.33
767.495	840.52
767.678	881.48
767.861	850.76
768.044	985.93
768.227	830.28
768.41	895.82
768.593	815.94
768.776	904.01
768.959	846.66
769.142	846.66
769.324	799.56
769.507	928.58
769.69	887.62
769.873	822.09
770.056	963.4
770.239	891.72
770.421	848.71
770.604	822.09
770.787	815.94
770.97	723.79
771.152	762.7
771.335	779.08
771.518	789.32
771.7	756.55
771.883	850.76
772.066	783.18
772.248	760.65
772.431	760.65
772.613	834.38
772.796	809.8
772.978	813.9
773.161	754.51
773.343	650.06
773.526	717.64
773.708	760.65
773.891	668.49
774.073	756.55
774.256	785.23
774.438	754.51
774.621	699.21
774.803	703.31
774.985	688.97
775.168	684.87
775.35	695.11
775.532	764.75
775.715	731.98
775.897	691.02
776.079	717.64
776.261	637.77
776.444	650.06
776.626	750.41
776.808	748.36
776.99	693.07
777.173	701.26
777.355	678.73
777.537	662.35
777.719	652.11
777.901	623.44
778.083	586.57
778.265	564.04
778.447	621.39
778.629	523.09
778.811	518.99
778.993	574.28
779.175	652.11
779.357	625.48
779.539	506.7
779.721	605
779.903	553.8
780.085	543.57
780.267	553.8
780.449	506.7
780.631	545.61
780.812	641.87
780.994	543.57
781.176	539.47
781.358	471.89
781.54	600.91
781.721	596.81
781.903	574.28
782.085	471.89
782.267	547.66
782.448	516.94
782.63	480.08
782.812	590.67
782.993	484.17
783.175	494.41
783.357	435.02
783.538	543.57
783.72	471.89
783.901	484.17
784.083	418.64
784.264	494.41
784.446	486.22
784.627	371.54
784.809	414.54
784.99	394.06
785.172	480.08
785.353	473.93
785.535	463.69
785.716	398.16
785.897	447.31
786.079	457.55
786.26	355.15
786.441	459.6
786.623	408.4
786.804	412.5
786.985	471.89
787.167	301.9
787.348	359.25
787.529	389.97
787.71	432.97
787.891	349.01
788.073	318.29
788.254	361.3
788.435	447.31
788.616	408.4
788.797	324.43
788.978	402.26
789.159	344.91
789.34	447.31
789.522	330.58
789.703	404.3
789.884	346.96
790.065	375.63
790.246	416.59
790.427	281.43
790.607	383.82
790.788	353.1
790.969	336.72
791.15	281.43
791.331	320.34
791.512	420.69
791.693	332.62
791.874	387.92
792.054	363.34
792.235	379.73
792.416	406.35
792.597	363.34
792.778	334.67
792.958	373.58
793.139	392.02
793.32	289.62
793.5	273.23
793.681	338.77
793.862	338.77
794.042	281.43
794.223	183.12
794.404	322.38
794.584	207.7
794.765	379.73
794.945	234.32
795.126	355.15
795.306	338.77
795.487	244.56
795.667	234.32
795.848	293.71
796.028	224.08
796.209	271.19
796.389	265.04
796.57	226.13
796.75	265.04
796.93	170.83
797.111	219.99
797.291	281.43
797.471	269.14
797.652	326.48
797.832	228.18
798.012	269.14
798.192	267.09
798.373	318.29
798.553	275.28
798.733	260.95
798.913	262.99
799.093	256.85
799.274	265.04
799.454	226.13
799.634	232.27
799.814	283.47
799.994	273.23
800.174	252.75
800.354	232.27
800.534	199.51
800.714	260.95
800.894	201.55
801.074	189.27
801.254	226.13
801.434	279.38
801.614	189.27
801.794	215.89
801.974	736.07
802.154	146.26
802.334	154.45
802.514	226.13
802.693	240.47
802.873	258.9
803.053	207.7
803.233	228.18
803.413	228.18
803.592	176.98
803.772	166.74
803.952	158.55
804.131	195.41
804.311	248.66
804.491	217.94
804.67	129.88
804.85	224.08
805.03	285.52
805.209	250.71
805.389	109.4
805.568	211.79
805.748	191.31
805.928	240.47
806.107	207.7
806.287	162.64
806.466	267.09
806.646	160.59
806.825	170.83
807.004	166.74
807.184	248.66
807.363	138.07
807.543	181.07
807.722	93.01
807.901	185.17
808.081	183.12
808.26	113.49
808.439	146.26
808.619	183.12
808.798	150.36
808.977	170.83
809.156	158.55
809.336	166.74
809.515	232.27
809.694	179.03
809.873	193.36
810.052	183.12
810.231	236.37
810.411	107.35
810.59	158.55
810.769	205.65
810.948	222.03
811.127	123.73
811.306	207.7
811.485	107.35
811.664	201.55
811.843	209.75
812.022	230.23
812.201	242.51
812.38	158.55
812.559	80.72
812.737	197.46
812.916	21.33
813.095	142.16
813.274	156.5
813.453	154.45
813.632	129.88
813.811	187.22
813.989	117.59
814.168	146.26
814.347	142.16
814.526	111.44
814.704	101.2
814.883	224.08
815.062	156.5
815.24	156.5
815.419	113.49
815.598	117.59
815.776	109.4
815.955	150.36
816.133	19.29
816.312	160.59
816.49	90.96
816.669	129.88
816.847	86.87
817.026	129.88
817.204	154.45
817.383	117.59
817.561	133.97
817.74	170.83
817.918	117.59
818.097	78.68
818.275	50
818.453	144.21
818.632	105.3
818.81	142.16
818.988	121.68
819.167	95.06
819.345	158.55
819.523	156.5
819.701	101.2
819.879	136.02
820.058	160.59
820.236	144.21
820.414	136.02
820.592	125.78
820.77	72.53
820.948	111.44
821.127	101.2
821.305	111.44
821.483	60.24
821.661	136.02
821.839	99.16
822.017	52.05
822.195	68.44
822.373	150.36
822.551	115.54
822.729	144.21
822.907	19.29
823.085	191.31
823.262	99.16
823.44	95.06
823.618	121.68
823.796	103.25
823.974	101.2
824.152	56.15
824.329	170.83
824.507	150.36
824.685	133.97
824.863	27.48
825.04	76.63
825.218	144.21
825.396	60.24
825.574	90.96
825.751	103.25
825.929	70.48
826.107	56.15
826.284	160.59
826.462	105.3
826.639	88.92
826.817	93.01
826.994	103.25
827.172	19.29
827.349	166.74
827.527	105.3
827.704	86.87
827.882	35.67
828.059	66.39
828.237	113.49
828.414	76.63
828.591	35.67
828.769	86.87
828.946	47.96
829.124	58.2
829.301	86.87
829.478	56.15
829.655	121.68
829.833	125.78
830.01	54.1
830.187	29.52
830.364	43.86
830.542	35.67
830.719	66.39
830.896	170.83
831.073	86.87
831.25	109.4
831.427	95.06
831.604	2.9
831.782	21.33
831.959	52.05
832.136	72.53
832.313	84.82
832.49	13.14
832.667	152.4
832.844	70.48
833.021	113.49
833.198	-7.34
833.374	31.57
833.551	129.88
833.728	39.76
833.905	62.29
834.082	109.4
834.259	70.48
834.436	117.59
834.612	39.76
834.789	105.3
834.966	78.68
835.143	62.29
835.319	84.82
835.496	52.05
835.673	86.87
835.85	125.78
836.026	152.4
836.203	93.01
836.38	78.68
836.556	64.34
836.733	70.48
836.909	93.01
837.086	78.68
837.262	70.48
837.439	90.96
837.616	23.38
837.792	84.82
837.968	60.24
838.145	66.39
838.321	21.33
838.498	76.63
838.674	76.63
838.851	39.76
839.027	54.1
839.203	129.88
839.38	19.29
839.556	37.72
839.732	84.82
839.909	86.87
840.085	113.49
840.261	-15.53
840.437	15.19
840.614	70.48
840.79	88.92
840.966	60.24
841.142	58.2
841.318	-1.19
841.494	101.2
841.671	93.01
841.847	37.72
842.023	15.19
842.199	72.53
842.375	125.78
842.551	-44.2
842.727	19.29
842.903	125.78
843.079	74.58
843.255	86.87
843.431	39.76
843.607	86.87
843.783	54.1
843.959	62.29
844.134	7
844.31	68.44
844.486	80.72
844.662	103.25
844.838	41.81
845.013	162.64
845.189	88.92
845.365	11.09
845.541	41.81
845.716	21.33
845.892	60.24
846.068	19.29
846.244	2.9
846.419	31.57
846.595	0.85
846.77	-1.19
846.946	86.87
847.122	39.76
847.297	117.59
847.473	52.05
847.648	35.67
847.824	-9.39
847.999	4.95
848.175	43.86
848.35	52.05
848.526	90.96
848.701	72.53
848.876	125.78
849.052	60.24
849.227	-3.24
849.403	66.39
849.578	-7.34
849.753	56.15
849.929	78.68
850.104	21.33
850.279	60.24
850.454	93.01
850.63	43.86
850.805	11.09
850.98	103.25
851.155	62.29
851.33	50
851.505	-21.67
851.681	72.53
851.856	15.19
852.031	13.14
852.206	45.91
852.381	11.09
852.556	82.77
852.731	129.88
852.906	136.02
853.081	80.72
853.256	64.34
853.431	19.29
853.606	35.67
853.781	64.34
853.956	39.76
854.131	86.87
854.305	84.82
854.48	39.76
854.655	19.29
854.83	41.81
855.005	27.48
855.18	-5.29
855.354	43.86
855.529	-9.39
855.704	11.09
855.879	41.81
856.053	19.29
856.228	84.82
856.403	-5.29
856.577	43.86
856.752	43.86
856.926	52.05
857.101	121.68
857.276	7
857.45	9.05
857.625	19.29
857.799	-13.48
857.974	35.67
858.148	-52.39
858.323	64.34
858.497	-60.59
858.672	-21.67
858.846	15.19
859.02	43.86
859.195	-21.67
859.369	-27.82
859.543	27.48
859.718	68.44
859.892	-13.48
860.066	72.53
860.241	60.24
860.415	-27.82
860.589	4.95
860.763	60.24
860.938	78.68
861.112	-11.43
861.286	-21.67
861.46	41.81
861.634	58.2
861.808	66.39
861.982	-1.19
862.157	-7.34
862.331	68.44
862.505	52.05
862.679	54.1
862.853	11.09
863.027	19.29
863.201	60.24
863.375	-3.24
863.549	54.1
863.722	7
863.896	47.96
864.07	21.33
864.244	86.87
864.418	33.62
864.592	31.57
864.766	43.86
864.939	2.9
865.113	27.48
865.287	-11.43
865.461	60.24
865.634	17.24
865.808	-11.43
865.982	50
866.156	-25.77
866.329	-42.15
866.503	11.09
866.676	17.24
866.85	-13.48
867.024	-13.48
867.197	25.43
867.371	68.44
867.544	-36.01
867.718	-42.15
867.891	23.38
868.065	123.73
868.238	37.72
868.412	66.39
868.585	-11.43
868.759	11.09
868.932	50
869.105	-74.92
869.279	-1.19
869.452	-1.19
869.625	7
869.799	-9.39
869.972	-11.43
870.145	-11.43
870.319	37.72
870.492	4.95
870.665	15.19
870.838	-25.77
871.011	21.33
871.185	-23.72
871.358	13.14
871.531	21.33
871.704	7
871.877	58.2
872.05	-42.15
872.223	-25.77
872.396	0.85
872.569	68.44
872.742	-9.39
872.915	23.38
873.088	54.1
873.261	-3.24
873.434	-7.34
873.607	43.86
873.78	68.44
873.953	-81.07
874.126	41.81
874.299	84.82
874.471	80.72
874.644	11.09
874.817	60.24
874.99	27.48
875.163	29.52
875.335	62.29
875.508	33.62
875.681	21.33
875.853	68.44
876.026	-13.48
876.199	27.48
876.371	72.53
876.544	76.63
876.717	17.24
876.889	27.48
877.062	21.33
877.234	-38.06
877.407	-42.15
877.579	2.9
877.752	25.43
877.924	23.38
878.097	27.48
878.269	-31.91
878.442	2.9
878.614	52.05
878.786	21.33
878.959	31.57
879.131	43.86
879.303	13.14
879.476	80.72
879.648	82.77
879.82	27.48
879.993	19.29
880.165	68.44
880.337	19.29
880.509	31.57
880.681	-11.43
880.854	13.14
881.026	-15.53
881.198	95.06
881.37	33.62
881.542	19.29
881.714	4.95
881.886	-5.29
882.058	-27.82
882.23	43.86
882.402	27.48
882.574	-11.43
882.746	2.9
882.918	43.86
883.09	52.05
883.262	-38.06
883.434	13.14
883.606	-52.39
883.778	43.86
883.95	62.29
884.122	-1.19
884.293	43.86
884.465	4.95
884.637	23.38
884.809	-1.19
884.98	4.95
885.152	64.34
885.324	-74.92
885.496	13.14
885.667	-1.19
885.839	-83.11
886.011	-1.19
886.182	64.34
886.354	50
886.525	-21.67
886.697	60.24
886.869	-38.06
887.04	13.14
887.212	33.62
887.383	80.72
887.555	-5.29
887.726	-5.29
887.897	-60.59
888.069	93.01
888.24	68.44
888.412	-40.11
888.583	-85.16
888.754	-13.48
888.926	-19.63
889.097	27.48
889.268	-29.87
889.44	76.63
889.611	-76.97
889.782	0.85
889.953	-17.58
890.125	58.2
890.296	-5.29
890.467	41.81
890.638	-42.15
890.809	101.2
890.98	17.24
891.151	15.19
891.323	41.81
891.494	11.09
891.665	29.52
891.836	0.85
892.007	-33.96
892.178	2.9
892.349	-15.53
892.52	86.87
892.691	39.76
892.862	15.19
893.032	-5.29
893.203	64.34
893.374	-29.87
893.545	54.1
893.716	-72.87
893.887	21.33
894.057	0.85
894.228	-38.06
894.399	15.19
894.57	60.24
894.74	-29.87
894.911	-9.39
895.082	-1.19
895.253	43.86
895.423	56.15
895.594	17.24
895.764	76.63
895.935	13.14
896.106	62.29
896.276	-21.67
896.447	2.9
896.617	93.01
896.788	76.63
896.958	58.2
897.129	-76.97
897.299	17.24
897.47	60.24
897.64	27.48
897.81	19.29
897.981	43.86
898.151	19.29
898.322	-29.87
898.492	-50.35
898.662	27.48
898.832	11.09
899.003	-13.48
899.173	56.15
899.343	19.29
899.513	-11.43
