Data from USB4F104151__193__14-20-24-808.txt Node

Date: Thu Mar 13 14:20:24 EDT 2025
User: louis
Spectrometer: USB4F10415
Trigger mode: 4
Integration Time (sec): 2.000000E-2
Scans to average: 1
Electric dark correction enabled: true
Nonlinearity correction enabled: false
Boxcar width: 0
XAxis mode: Wavelengths
Number of Pixels in Spectrum: 3648
>>>>>Begin Spectral Data<<<<<
178.204	-115.88
178.424	-115.88
178.644	-115.88
178.864	-144.55
179.084	-122.02
179.304	-48.3
179.524	9.05
179.744	35.67
179.964	90.96
180.184	-15.53
180.404	-19.63
180.624	-15.53
180.844	58.2
181.064	-9.39
181.283	-13.48
181.503	-56.49
181.723	-15.53
181.943	19.29
182.163	43.86
182.383	107.35
182.602	9.05
182.822	41.81
183.042	25.43
183.262	-44.2
183.482	19.29
183.701	27.48
183.921	25.43
184.141	-33.96
184.361	52.05
184.58	-7.34
184.8	-19.63
185.02	-19.63
185.239	84.82
185.459	-23.72
185.679	37.72
185.898	-56.49
186.118	52.05
186.338	-36.01
186.557	33.62
186.777	-64.68
186.997	-23.72
187.216	54.1
187.436	9.05
187.655	4.95
187.875	62.29
188.095	4.95
188.314	-5.29
188.534	0.85
188.753	11.09
188.973	4.95
189.192	95.06
189.412	21.33
189.631	17.24
189.851	27.48
190.07	115.54
190.29	27.48
190.509	11.09
190.729	-56.49
190.948	-7.34
191.168	105.3
191.387	0.85
191.607	-48.3
191.826	52.05
192.045	21.33
192.265	45.91
192.484	-15.53
192.704	-48.3
192.923	7
193.142	109.4
193.362	19.29
193.581	82.77
193.8	37.72
194.02	-13.48
194.239	-40.11
194.458	-56.49
194.678	11.09
194.897	-64.68
195.116	0.85
195.335	-1.19
195.555	17.24
195.774	41.81
195.993	31.57
196.212	-115.88
196.432	-19.63
196.651	-13.48
196.87	31.57
197.089	97.11
197.308	-50.35
197.528	9.05
197.747	-48.3
197.966	25.43
198.185	0.85
198.404	-23.72
198.623	4.95
198.842	0.85
199.062	45.91
199.281	33.62
199.5	29.52
199.719	-3.24
199.938	74.58
200.157	95.06
200.376	52.05
200.595	19.29
200.814	78.68
201.033	-13.48
201.252	56.15
201.471	-15.53
201.69	78.68
201.909	-23.72
202.128	50
202.347	62.29
202.566	-15.53
202.785	-19.63
203.004	-7.34
203.223	97.11
203.442	23.38
203.661	-15.53
203.879	-13.48
204.098	41.81
204.317	-5.29
204.536	35.67
204.755	17.24
204.974	-21.67
205.193	-44.2
205.411	117.59
205.63	9.05
205.849	62.29
206.068	25.43
206.287	-40.11
206.505	41.81
206.724	-23.72
206.943	29.52
207.162	29.52
207.381	2.9
207.599	-5.29
207.818	103.25
208.037	-48.3
208.255	56.15
208.474	-9.39
208.693	11.09
208.911	11.09
209.13	-21.67
209.349	17.24
209.567	-52.39
209.786	4.95
210.005	11.09
210.223	15.19
210.442	-21.67
210.661	7
210.879	2.9
211.098	-5.29
211.316	66.39
211.535	31.57
211.753	-31.91
211.972	13.14
212.191	-13.48
212.409	-38.06
212.628	-5.29
212.846	0.85
213.065	60.24
213.283	-13.48
213.502	50
213.72	-13.48
213.938	56.15
214.157	-11.43
214.375	41.81
214.594	-13.48
214.812	45.91
215.031	17.24
215.249	-40.11
215.467	35.67
215.686	-13.48
215.904	25.43
216.122	-48.3
216.341	62.29
216.559	4.95
216.778	0.85
216.996	90.96
217.214	76.63
217.432	21.33
217.651	-17.58
217.869	-44.2
218.087	19.29
218.306	17.24
218.524	80.72
218.742	25.43
218.96	35.67
219.179	68.44
219.397	17.24
219.615	70.48
219.833	39.76
220.051	41.81
220.27	33.62
220.488	11.09
220.706	-70.83
220.924	72.53
221.142	-54.44
221.36	35.67
221.578	52.05
221.796	39.76
222.015	-36.01
222.233	25.43
222.451	37.72
222.669	-1.19
222.887	90.96
223.105	-31.91
223.323	25.43
223.541	-72.87
223.759	76.63
223.977	-15.53
224.195	25.43
224.413	29.52
224.631	4.95
224.849	54.1
225.067	66.39
225.285	45.91
225.503	25.43
225.721	-11.43
225.939	15.19
226.157	-7.34
226.375	99.16
226.592	-93.35
226.81	17.24
227.028	-29.87
227.246	21.33
227.464	11.09
227.682	17.24
227.9	9.05
228.117	-36.01
228.335	-7.34
228.553	68.44
228.771	50
228.989	58.2
229.206	29.52
229.424	86.87
229.642	9.05
229.86	45.91
230.077	17.24
230.295	43.86
230.513	11.09
230.731	45.91
230.948	107.35
231.166	119.64
231.384	25.43
231.601	33.62
231.819	13.14
232.037	-17.58
232.254	-9.39
232.472	-3.24
232.689	-76.97
232.907	43.86
233.125	29.52
233.342	-42.15
233.56	-40.11
233.777	123.73
233.995	-62.63
234.213	60.24
234.43	-9.39
234.648	25.43
234.865	4.95
235.083	27.48
235.3	-17.58
235.518	68.44
235.735	0.85
235.953	60.24
236.17	37.72
236.388	-5.29
236.605	-7.34
236.822	39.76
237.04	62.29
237.257	99.16
237.475	29.52
237.692	115.54
237.909	35.67
238.127	35.67
238.344	15.19
238.562	58.2
238.779	-72.87
238.996	-62.63
239.214	13.14
239.431	58.2
239.648	-7.34
239.865	-56.49
240.083	-5.29
240.3	-60.59
240.517	56.15
240.735	2.9
240.952	54.1
241.169	99.16
241.386	-11.43
241.603	68.44
241.821	-38.06
242.038	11.09
242.255	33.62
242.472	-31.91
242.689	-23.72
242.907	-56.49
243.124	43.86
243.341	-42.15
243.558	17.24
243.775	-15.53
243.992	11.09
244.209	17.24
244.426	70.48
244.643	41.81
244.86	-3.24
245.078	-15.53
245.295	60.24
245.512	15.19
245.729	9.05
245.946	37.72
246.163	66.39
246.38	52.05
246.597	19.29
246.814	17.24
247.031	13.14
247.248	9.05
247.464	39.76
247.681	15.19
247.898	27.48
248.115	33.62
248.332	17.24
248.549	35.67
248.766	19.29
248.983	33.62
249.2	74.58
249.417	23.38
249.633	7
249.85	72.53
250.067	0.85
250.284	41.81
250.501	19.29
250.717	-7.34
250.934	76.63
251.151	-31.91
251.368	54.1
251.585	35.67
251.801	-15.53
252.018	101.2
252.235	54.1
252.451	-3.24
252.668	54.1
252.885	88.92
253.102	13.14
253.318	-7.34
253.535	17.24
253.752	45.91
253.968	2.9
254.185	19.29
254.401	-33.96
254.618	-9.39
254.835	-21.67
255.051	-5.29
255.268	41.81
255.484	9.05
255.701	-25.77
255.917	4.95
256.134	23.38
256.351	37.72
256.567	-7.34
256.784	-1.19
257	-38.06
257.217	0.85
257.433	33.62
257.65	80.72
257.866	35.67
258.082	-19.63
258.299	37.72
258.515	21.33
258.732	13.14
258.948	0.85
259.165	0.85
259.381	50
259.597	45.91
259.814	21.33
260.03	0.85
260.246	52.05
260.463	50
260.679	64.34
260.895	58.2
261.112	50
261.328	-48.3
261.544	-31.91
261.761	25.43
261.977	17.24
262.193	17.24
262.409	103.25
262.626	-7.34
262.842	0.85
263.058	31.57
263.274	54.1
263.49	19.29
263.707	56.15
263.923	21.33
264.139	68.44
264.355	109.4
264.571	93.01
264.787	37.72
265.004	109.4
265.22	27.48
265.436	43.86
265.652	45.91
265.868	66.39
266.084	23.38
266.3	21.33
266.516	-40.11
266.732	95.06
266.948	17.24
267.164	-11.43
267.38	2.9
267.596	-27.82
267.812	15.19
268.028	25.43
268.244	54.1
268.46	-27.82
268.676	17.24
268.892	58.2
269.108	-3.24
269.324	17.24
269.54	-23.72
269.756	72.53
269.972	-33.96
270.188	29.52
270.403	25.43
270.619	19.29
270.835	11.09
271.051	39.76
271.267	4.95
271.483	-44.2
271.698	66.39
271.914	80.72
272.13	45.91
272.346	17.24
272.562	45.91
272.777	33.62
272.993	-29.87
273.209	2.9
273.425	39.76
273.64	2.9
273.856	131.92
274.072	0.85
274.287	-70.83
274.503	111.44
274.719	17.24
274.934	-21.67
275.15	-7.34
275.366	78.68
275.581	-31.91
275.797	68.44
276.012	41.81
276.228	41.81
276.444	-23.72
276.659	2.9
276.875	41.81
277.09	58.2
277.306	-38.06
277.521	101.2
277.737	-21.67
277.952	0.85
278.168	2.9
278.383	0.85
278.599	-46.25
278.814	31.57
279.03	88.92
279.245	-15.53
279.461	56.15
279.676	47.96
279.892	-52.39
280.107	43.86
280.322	-15.53
280.538	60.24
280.753	-31.91
280.969	-15.53
281.184	35.67
281.399	78.68
281.615	72.53
281.83	62.29
282.045	41.81
282.26	19.29
282.476	50
282.691	19.29
282.906	-11.43
283.122	41.81
283.337	-29.87
283.552	119.64
283.767	7
283.983	60.24
284.198	-25.77
284.413	74.58
284.628	17.24
284.843	23.38
285.058	11.09
285.274	-36.01
285.489	9.05
285.704	47.96
285.919	25.43
286.134	19.29
286.349	0.85
286.564	25.43
286.779	60.24
286.995	13.14
287.21	-42.15
287.425	58.2
287.64	-23.72
287.855	66.39
288.07	35.67
288.285	-42.15
288.5	64.34
288.715	68.44
288.93	9.05
289.145	58.2
289.36	68.44
289.575	13.14
289.79	13.14
290.004	2.9
290.219	60.24
290.434	9.05
290.649	50
290.864	66.39
291.079	-15.53
291.294	107.35
291.509	50
291.724	21.33
291.938	-7.34
292.153	-5.29
292.368	-29.87
292.583	101.2
292.798	35.67
293.012	23.38
293.227	15.19
293.442	33.62
293.657	84.82
293.871	66.39
294.086	-15.53
294.301	35.67
294.516	-17.58
294.73	25.43
294.945	50
295.16	-87.21
295.374	19.29
295.589	33.62
295.804	-3.24
296.018	2.9
296.233	45.91
296.447	9.05
296.662	-72.87
296.877	11.09
297.091	33.62
297.306	21.33
297.52	-48.3
297.735	-3.24
297.949	101.2
298.164	-7.34
298.378	-19.63
298.593	-76.97
298.807	-19.63
299.022	29.52
299.236	88.92
299.451	2.9
299.665	-13.48
299.88	2.9
300.094	74.58
300.309	45.91
300.523	-7.34
300.737	-7.34
300.952	39.76
301.166	4.95
301.381	-36.01
301.595	50
301.809	66.39
302.024	50
302.238	-13.48
302.452	43.86
302.667	-48.3
302.881	90.96
303.095	47.96
303.309	50
303.524	13.14
303.738	45.91
303.952	15.19
304.166	58.2
304.381	-19.63
304.595	29.52
304.809	-5.29
305.023	-54.44
305.237	60.24
305.452	-56.49
305.666	50
305.88	50
306.094	74.58
306.308	54.1
306.522	17.24
306.736	76.63
306.95	27.48
307.164	50
307.379	-7.34
307.593	111.44
307.807	54.1
308.021	35.67
308.235	41.81
308.449	2.9
308.663	0.85
308.877	72.53
309.091	-76.97
309.305	-1.19
309.519	2.9
309.733	52.05
309.947	41.81
310.161	60.24
310.374	68.44
310.588	56.15
310.802	-15.53
311.016	-25.77
311.23	68.44
311.444	-11.43
311.658	29.52
311.872	60.24
312.085	66.39
312.299	82.77
312.513	82.77
312.727	50
312.941	-27.82
313.154	37.72
313.368	-31.91
313.582	35.67
313.796	13.14
314.009	25.43
314.223	33.62
314.437	31.57
314.651	-68.78
314.864	-31.91
315.078	13.14
315.292	-54.44
315.505	35.67
315.719	-46.25
315.933	23.38
316.146	82.77
316.36	19.29
316.573	15.19
316.787	29.52
317.001	-11.43
317.214	9.05
317.428	-36.01
317.641	-50.35
317.855	41.81
318.068	58.2
318.282	-64.68
318.495	93.01
318.709	43.86
318.922	50
319.136	86.87
319.349	-40.11
319.563	-11.43
319.776	66.39
319.99	13.14
320.203	-23.72
320.417	33.62
320.63	-3.24
320.843	-5.29
321.057	-15.53
321.27	82.77
321.483	41.81
321.697	113.49
321.91	27.48
322.124	39.76
322.337	41.81
322.55	84.82
322.763	103.25
322.977	88.92
323.19	33.62
323.403	45.91
323.617	43.86
323.83	7
324.043	9.05
324.256	13.14
324.469	0.85
324.683	74.58
324.896	29.52
325.109	-23.72
325.322	13.14
325.535	115.54
325.748	41.81
325.962	66.39
326.175	21.33
326.388	76.63
326.601	17.24
326.814	43.86
327.027	29.52
327.24	43.86
327.453	-29.87
327.666	119.64
327.879	-7.34
328.092	25.43
328.305	0.85
328.518	45.91
328.731	7
328.944	50
329.157	50
329.37	15.19
329.583	9.05
329.796	41.81
330.009	17.24
330.222	15.19
330.435	52.05
330.648	-27.82
330.861	9.05
331.073	-15.53
331.286	86.87
331.499	37.72
331.712	25.43
331.925	66.39
332.138	37.72
332.35	37.72
332.563	9.05
332.776	70.48
332.989	11.09
333.202	33.62
333.414	37.72
333.627	74.58
333.84	21.33
334.053	103.25
334.265	21.33
334.478	66.39
334.691	52.05
334.903	58.2
335.116	-44.2
335.329	33.62
335.541	2.9
335.754	78.68
335.966	29.52
336.179	35.67
336.392	50
336.604	2.9
336.817	43.86
337.029	41.81
337.242	58.2
337.454	4.95
337.667	-5.29
337.88	62.29
338.092	84.82
338.305	117.59
338.517	9.05
338.729	9.05
338.942	-3.24
339.154	17.24
339.367	66.39
339.579	84.82
339.792	9.05
340.004	62.29
340.217	-60.59
340.429	29.52
340.641	-17.58
340.854	41.81
341.066	9.05
341.278	54.1
341.491	70.48
341.703	13.14
341.915	25.43
342.128	43.86
342.34	19.29
342.552	17.24
342.764	4.95
342.977	90.96
343.189	4.95
343.401	41.81
343.613	11.09
343.826	0.85
344.038	90.96
344.25	9.05
344.462	33.62
344.674	-33.96
344.886	-17.58
345.099	-11.43
345.311	-31.91
345.523	-13.48
345.735	13.14
345.947	-13.48
346.159	-40.11
346.371	41.81
346.583	60.24
346.795	101.2
347.007	70.48
347.219	99.16
347.431	23.38
347.643	70.48
347.855	4.95
348.067	50
348.279	25.43
348.491	29.52
348.703	86.87
348.915	76.63
349.127	50
349.339	76.63
349.551	74.58
349.763	93.01
349.975	66.39
350.187	17.24
350.399	43.86
350.61	41.81
350.822	68.44
351.034	31.57
351.246	58.2
351.458	74.58
351.669	54.1
351.881	150.36
352.093	56.15
352.305	80.72
352.517	17.24
352.728	93.01
352.94	74.58
353.152	25.43
353.363	64.34
353.575	74.58
353.787	25.43
353.999	-1.19
354.21	80.72
354.422	-5.29
354.633	-31.91
354.845	33.62
355.057	86.87
355.268	-15.53
355.48	119.64
355.692	37.72
355.903	-9.39
356.115	-7.34
356.326	-44.2
356.538	43.86
356.749	82.77
356.961	78.68
357.172	50
357.384	0.85
357.595	64.34
357.807	2.9
358.018	68.44
358.23	-9.39
358.441	52.05
358.653	58.2
358.864	19.29
359.075	-5.29
359.287	52.05
359.498	17.24
359.709	41.81
359.921	43.86
360.132	25.43
360.344	13.14
360.555	7
360.766	2.9
360.977	54.1
361.189	9.05
361.4	33.62
361.611	86.87
361.823	43.86
362.034	68.44
362.245	27.48
362.456	-23.72
362.667	27.48
362.879	13.14
363.09	74.58
363.301	41.81
363.512	54.1
363.723	-70.83
363.935	7
364.146	76.63
364.357	62.29
364.568	66.39
364.779	23.38
364.99	64.34
365.201	-23.72
365.412	97.11
365.623	-70.83
365.834	33.62
366.045	84.82
366.256	35.67
366.467	84.82
366.678	19.29
366.889	47.96
367.1	9.05
367.311	95.06
367.522	-7.34
367.733	99.16
367.944	60.24
368.155	41.81
368.366	0.85
368.577	-1.19
368.788	58.2
368.999	-7.34
369.209	-1.19
369.42	76.63
369.631	99.16
369.842	41.81
370.053	29.52
370.264	68.44
370.474	84.82
370.685	45.91
370.896	7
371.107	66.39
371.317	58.2
371.528	80.72
371.739	29.52
371.95	113.49
372.16	58.2
372.371	-7.34
372.582	19.29
372.792	72.53
373.003	76.63
373.214	58.2
373.424	19.29
373.635	13.14
373.846	41.81
374.056	54.1
374.267	9.05
374.477	9.05
374.688	31.57
374.898	-13.48
375.109	60.24
375.319	-3.24
375.53	25.43
375.74	33.62
375.951	37.72
376.161	99.16
376.372	123.73
376.582	17.24
376.793	13.14
377.003	2.9
377.214	45.91
377.424	39.76
377.635	54.1
377.845	19.29
378.055	72.53
378.266	52.05
378.476	13.14
378.686	50
378.897	58.2
379.107	76.63
379.317	2.9
379.528	-11.43
379.738	58.2
379.948	35.67
380.158	58.2
380.369	27.48
380.579	-15.53
380.789	25.43
380.999	66.39
381.21	58.2
381.42	148.31
381.63	21.33
381.84	52.05
382.05	-7.34
382.261	74.58
382.471	58.2
382.681	76.63
382.891	97.11
383.101	60.24
383.311	41.81
383.521	82.77
383.731	35.67
383.941	66.39
384.151	37.72
384.361	41.81
384.571	82.77
384.781	60.24
384.991	76.63
385.201	66.39
385.411	74.58
385.621	107.35
385.831	43.86
386.041	70.48
386.251	-7.34
386.461	62.29
386.671	-3.24
386.881	101.2
387.091	13.14
387.301	35.67
387.511	9.05
387.72	103.25
387.93	93.01
388.14	-27.82
388.35	76.63
388.56	33.62
388.769	66.39
388.979	62.29
389.189	84.82
389.399	162.64
389.609	17.24
389.818	101.2
390.028	45.91
390.238	113.49
390.447	-19.63
390.657	93.01
390.867	-17.58
391.076	9.05
391.286	74.58
391.496	70.48
391.705	45.91
391.915	101.2
392.125	70.48
392.334	-3.24
392.544	33.62
392.753	45.91
392.963	99.16
393.172	60.24
393.382	-21.67
393.591	78.68
393.801	62.29
394.01	84.82
394.22	82.77
394.429	50
394.639	41.81
394.848	-31.91
395.058	168.79
395.267	99.16
395.477	29.52
395.686	152.4
395.895	78.68
396.105	109.4
396.314	129.88
396.524	90.96
396.733	80.72
396.942	125.78
397.152	107.35
397.361	84.82
397.57	107.35
397.78	52.05
397.989	68.44
398.198	140.12
398.407	93.01
398.617	142.16
398.826	174.93
399.035	133.97
399.244	88.92
399.453	140.12
399.663	97.11
399.872	74.58
400.081	142.16
400.29	199.51
400.499	41.81
400.708	150.36
400.917	66.39
401.127	156.5
401.336	-38.06
401.545	205.65
401.754	107.35
401.963	99.16
402.172	99.16
402.381	90.96
402.59	117.59
402.799	144.21
403.008	123.73
403.217	119.64
403.426	78.68
403.635	154.45
403.844	133.97
404.053	125.78
404.262	99.16
404.471	101.2
404.68	183.12
404.888	136.02
405.097	156.5
405.306	101.2
405.515	189.27
405.724	86.87
405.933	232.27
406.142	156.5
406.35	222.03
406.559	181.07
406.768	115.54
406.977	250.71
407.185	181.07
407.394	316.24
407.603	183.12
407.812	172.88
408.02	191.31
408.229	164.69
408.438	238.42
408.646	166.74
408.855	240.47
409.064	160.59
409.272	230.23
409.481	303.95
409.69	262.99
409.898	267.09
410.107	336.72
410.315	353.1
410.524	242.51
410.733	381.78
410.941	320.34
411.15	402.26
411.358	418.64
411.567	365.39
411.775	355.15
411.984	402.26
412.192	369.49
412.401	467.79
412.609	447.31
412.818	475.98
413.026	500.56
413.234	508.75
413.443	469.84
413.651	525.13
413.86	543.57
414.068	605
414.276	527.18
414.485	594.76
414.693	688.97
414.901	768.84
415.11	736.07
415.318	680.78
415.526	719.69
415.734	697.16
415.943	801.61
416.151	754.51
416.359	832.33
416.567	918.34
416.776	826.18
416.984	910.15
417.192	959.3
417.4	912.2
417.608	877.38
417.817	1004.36
418.025	1098.56
418.233	1188.68
418.441	1026.89
418.649	1123.14
418.857	1188.68
419.065	1262.4
419.273	1215.3
419.481	1329.99
419.689	1389.38
419.897	1557.31
420.105	1403.71
420.313	1524.54
420.521	1581.89
420.729	1602.36
420.937	1688.38
421.145	1704.76
421.353	1735.48
421.561	1901.37
421.769	2011.96
421.977	2106.17
422.185	1903.42
422.393	2003.77
422.601	2196.28
422.809	2353.97
423.017	2198.32
423.224	2331.44
423.432	2437.94
423.64	2394.93
423.848	2581.29
424.056	2607.92
424.263	2855.72
424.471	2794.28
424.679	3013.42
424.887	2900.78
425.094	3081
425.302	3162.92
425.51	3121.96
425.718	3308.32
425.925	3318.56
426.133	3486.5
426.341	3668.77
426.548	3918.62
426.756	3777.31
426.964	3875.61
427.171	4012.82
427.379	4244.24
427.586	4301.59
427.794	4317.97
428.001	4543.25
428.209	4760.33
428.417	4905.74
428.624	5106.44
428.832	5051.14
429.039	4967.18
429.247	5147.4
429.454	5444.35
429.662	5944.06
429.869	5542.66
430.076	5925.63
430.284	5821.18
430.491	5915.39
430.699	6310.65
430.906	6357.75
431.114	6324.98
431.321	6619.89
431.528	6873.84
431.736	7203.56
431.943	7662.3
432.15	7391.97
432.358	7373.54
432.565	7817.95
432.772	7570.15
432.979	8086.23
433.187	8409.81
433.394	8135.39
433.601	8923.85
433.808	8946.38
434.016	8835.79
434.223	9175.75
434.43	9710.27
434.637	9485
434.844	10298.04
435.052	10312.38
435.259	10164.92
435.466	10480.31
435.673	10355.38
435.88	11012.78
436.087	11455.14
436.294	11297.45
436.501	11453.09
436.708	11467.43
436.915	11846.3
437.122	12440.22
437.329	12370.58
437.537	12575.38
437.743	12804.75
437.95	12819.09
438.157	13298.31
438.364	14021.25
438.571	14013.06
438.778	13914.75
438.985	15616.62
439.192	14594.68
439.399	15237.74
439.606	14873.2
439.813	15655.53
440.02	16388.7
440.227	16323.16
440.433	16048.74
440.64	16816.72
440.847	16753.24
441.054	16900.69
441.261	18180.67
441.467	17734.21
441.674	18213.44
441.881	18586.17
442.088	18950.71
442.294	18547.26
442.501	19069.49
442.708	19456.56
442.914	20234.78
443.121	20967.96
443.328	20806.17
443.534	21979.65
443.741	21293.58
443.948	21137.94
444.154	22608.38
444.361	22366.72
444.568	22397.44
444.774	22528.51
444.981	22688.25
445.187	23558.64
445.394	24457.7
445.6	24297.95
445.807	26624.45
446.013	25235.92
446.22	25876.94
446.426	26573.25
446.633	26902.97
446.839	27828.65
447.046	26601.92
447.252	28359.08
447.459	28451.24
447.665	28500.39
447.871	29370.77
448.078	30738.82
448.284	29276.57
448.491	29858.19
448.697	31205.75
448.903	31478.13
449.11	31797.62
449.316	31205.75
449.522	31973.74
449.728	32827.74
449.935	32702.82
450.141	32813.41
450.347	33741.14
450.553	32547.17
450.76	32760.16
450.966	33804.63
451.172	33835.35
451.378	34560.33
451.584	34214.22
451.791	34527.56
451.997	34732.36
452.203	35105.09
452.409	35170.62
452.615	34734.4
452.821	33845.58
453.027	33589.59
453.233	35287.35
453.44	33843.54
453.646	34502.98
453.852	34529.61
454.058	34951.49
454.264	33818.96
454.47	34220.36
454.676	33786.19
454.882	34840.9
455.088	31619.44
455.294	32426.34
455.5	32905.57
455.705	33194.33
455.911	31723.89
456.117	31424.89
456.323	30814.59
456.529	29188.5
456.735	30579.07
456.941	29815.18
457.147	29065.63
457.352	28557.73
457.558	28172.71
457.764	28002.73
457.97	27402.68
458.176	26757.57
458.381	27021.75
458.587	25622.99
458.793	25709.01
458.999	24381.92
459.204	26063.3
459.41	25166.29
459.616	23802.35
459.821	23810.54
460.027	23935.46
460.233	23024.12
460.438	21965.32
460.644	22434.3
460.85	21447.18
461.055	21013.01
461.261	20810.26
461.466	19233.33
461.672	18907.7
461.878	20113.95
462.083	18860.6
462.289	18285.12
462.494	18418.24
462.7	17578.57
462.905	17093.2
463.111	17631.82
463.316	17795.65
463.522	17375.82
463.727	17207.89
463.932	17185.36
464.138	17140.3
464.343	16986.71
464.549	16648.79
464.754	17185.36
464.959	16761.43
465.165	16894.55
465.37	16130.66
465.575	15913.57
465.781	16204.38
465.986	16579.16
466.191	15733.35
466.397	15428.2
466.602	14998.13
466.807	15512.17
467.012	15444.59
467.218	15446.63
467.423	15188.59
467.628	15059.57
467.833	15909.47
468.038	15309.42
468.244	14789.24
468.449	15463.02
468.654	14819.96
468.859	14844.53
469.064	14668.41
469.269	14164.61
469.474	14011.01
469.679	14451.32
469.885	14146.17
470.09	14054.01
470.295	14183.04
470.5	13851.27
470.705	14074.49
470.91	13662.85
471.115	13468.3
471.32	13847.17
471.525	13568.65
471.73	13120.14
471.935	13118.09
472.139	12780.18
472.344	12755.6
472.549	12952.21
472.754	12749.46
472.959	12368.54
473.164	12057.25
473.369	11899.55
473.574	12559
473.778	12382.87
473.983	12313.24
474.188	12460.7
474.393	11698.85
474.598	11743.91
474.802	11633.32
475.007	11492.01
475.212	11510.44
475.417	11168.43
475.621	11256.49
475.826	11260.59
476.031	10924.72
476.235	10635.96
476.44	10939.05
476.645	10625.72
476.849	10824.37
477.054	10433.21
477.259	10351.29
477.463	10506.93
477.668	10160.83
477.872	10351.29
478.077	10072.76
478.282	9769.66
478.486	9839.3
478.691	9644.74
478.895	9534.15
479.1	9528
479.304	9583.3
479.509	9489.09
479.713	9614.02
479.918	9452.23
480.122	9136.84
480.326	9306.82
480.531	9347.78
480.735	9171.66
480.94	9204.42
481.144	9358.02
481.348	9020.11
481.553	8946.38
481.757	8846.03
481.961	8932.05
482.166	9071.31
482.37	9028.3
482.574	9034.44
482.778	8841.93
482.983	8921.81
483.187	8913.61
483.391	8940.24
483.595	8993.48
483.8	8762.06
484.004	8975.05
484.208	9134.79
484.412	8940.24
484.616	9044.68
484.821	8997.58
485.025	8897.23
485.229	8977.1
485.433	8772.3
485.637	8968.91
485.841	8843.98
486.045	8780.5
486.249	8923.85
486.453	8979.15
486.657	9075.4
486.861	8841.93
487.065	8835.79
487.269	9061.07
487.473	8762.06
487.677	8899.28
487.881	9013.96
488.085	9048.78
488.289	8913.61
488.493	8862.41
488.697	8905.42
488.901	8979.15
489.105	8893.13
489.309	9069.26
489.512	9159.37
489.716	9030.35
489.92	9149.13
490.124	9116.36
490.328	9085.64
490.531	9118.41
490.735	9224.9
490.939	9106.12
491.143	9106.12
491.346	9224.9
491.55	9384.65
491.754	9396.93
491.958	9591.49
492.161	9292.49
492.365	9374.41
492.569	9224.9
492.772	9480.9
492.976	9460.42
493.18	9517.76
493.383	9679.55
493.587	9607.87
493.79	9900.73
493.994	9773.76
494.197	9804.48
494.401	9833.15
494.605	9847.49
494.808	10095.29
495.012	9878.21
495.215	10169.02
495.419	10281.66
495.622	10158.78
495.825	10216.12
496.029	10193.59
496.232	10449.59
496.436	10465.97
496.639	10902.19
496.843	10740.4
497.046	10695.35
497.249	10990.25
497.453	11031.21
497.656	11023.02
497.859	11315.88
498.063	11201.19
498.266	11319.98
498.469	11477.67
498.673	11551.4
498.876	11694.75
499.079	11979.42
499.282	11928.22
499.485	12216.99
499.689	12055.2
499.892	12438.17
500.095	12362.39
500.298	12792.47
500.501	12661.4
500.705	12894.86
500.908	13005.45
501.111	13337.23
501.314	13529.73
501.517	13312.65
501.72	13716.1
501.923	13593.22
502.126	14074.49
502.329	13902.47
502.532	14199.42
502.735	14303.87
502.938	14649.97
503.141	14631.54
503.344	14787.19
503.547	14606.97
503.75	15020.66
503.953	15342.19
504.156	15401.58
504.359	15624.81
504.562	15659.62
504.765	15999.59
504.968	15944.29
505.17	16286.3
505.373	16255.58
505.576	16556.63
505.779	16624.22
505.982	16790.1
506.185	17269.33
506.387	17295.95
506.59	17465.93
506.793	17760.84
506.996	17674.82
507.198	18362.94
507.401	18328.13
507.604	18135.62
507.807	18639.42
508.009	18412.09
508.212	18735.67
508.415	19014.2
508.617	19010.1
508.82	19419.69
509.022	19034.67
509.225	19898.92
509.428	19962.4
509.63	20224.54
509.833	20165.15
510.035	20478.49
510.238	20531.74
510.44	20785.69
510.643	20816.41
510.845	21277.2
511.048	21404.17
511.25	21729.8
511.453	21608.97
511.655	22387.2
511.858	22256.13
512.06	22413.82
512.262	22618.62
512.465	22491.65
512.667	22917.62
512.87	23192.05
513.072	23294.45
513.274	23935.46
513.477	23931.37
513.679	24412.64
513.881	24156.64
514.084	24394.21
514.286	24291.81
514.488	24760.8
514.69	25391.57
514.893	25440.72
515.095	25698.77
515.297	25670.09
515.499	25870.79
515.701	26149.32
515.904	26481.09
516.106	26429.89
516.308	27034.04
516.51	27210.17
516.712	27437.49
516.914	27404.72
517.116	27922.86
517.318	28027.31
517.52	27963.82
517.722	28035.5
517.925	28901.79
518.127	28934.56
518.329	29383.06
518.531	29165.98
518.733	29909.39
518.935	29727.12
519.136	29823.37
519.338	30200.2
519.54	30316.93
519.742	30574.98
519.944	30646.66
520.146	30880.13
520.348	31684.98
520.55	31422.84
520.752	31474.04
520.954	32108.91
521.155	32018.8
521.357	32782.69
521.559	32495.97
521.761	33059.16
521.963	32823.65
522.164	33161.56
522.366	33311.07
522.568	33616.21
522.77	33782.1
522.971	34074.96
523.173	34058.57
523.375	34339.15
523.576	34085.2
523.778	34423.11
523.98	34730.31
524.181	35131.71
524.383	35385.66
524.584	35297.59
524.786	35338.55
524.988	35287.35
525.189	36147.5
525.391	36227.37
525.592	36112.69
525.794	36385.07
525.995	36577.58
526.197	36849.96
526.398	36909.35
526.6	36819.24
526.801	36796.71
527.003	37284.12
527.204	37011.74
527.406	37593.37
527.607	37746.97
527.808	37628.18
528.01	36786.47
528.211	37865.75
528.412	38347.02
528.614	37890.32
528.815	38234.38
529.016	38654.22
529.218	37730.58
529.419	38082.83
529.62	38320.4
529.822	38619.4
530.023	37837.08
530.224	38621.45
530.425	38480.14
530.626	38123.79
530.828	38138.13
531.029	39125.25
531.23	38228.24
531.431	38238.48
531.632	39045.38
531.833	39024.9
532.035	38887.68
532.236	38596.87
532.437	39082.24
532.638	38512.91
532.839	39338.24
533.04	38836.48
533.241	38549.77
533.442	39422.2
533.643	39000.32
533.844	38977.79
534.045	38922.5
534.246	38697.22
534.447	39262.46
534.648	39303.42
534.849	39069.95
535.05	38816.01
535.251	39270.65
535.451	38607.11
535.652	39416.06
535.853	38977.79
536.054	39231.74
536.255	39291.13
536.456	38676.74
536.657	39657.72
536.857	38803.72
537.058	38871.3
537.259	39237.89
537.46	39024.9
537.66	38598.92
537.861	39428.35
538.062	39196.93
538.263	39209.22
538.463	38750.47
538.664	39067.91
538.865	39008.51
539.065	39045.38
539.266	38662.41
539.466	39426.3
539.667	38816.01
539.868	39168.26
540.068	39096.58
540.269	38631.69
540.469	39272.7
540.67	38850.82
540.87	39149.82
541.071	38758.66
541.271	39067.91
541.472	39045.38
541.672	38553.87
541.873	38650.12
542.073	38299.92
542.274	39364.86
542.474	38691.08
542.675	38578.44
542.875	38775.05
543.075	38740.23
543.276	38293.77
543.476	38850.82
543.676	38449.42
543.877	38920.45
544.077	38777.09
544.277	38885.64
544.478	38584.58
544.678	38709.51
544.878	38424.84
545.078	38703.37
545.279	38256.91
545.479	38486.28
545.679	38361.36
545.879	38504.71
546.079	38656.26
546.28	38459.66
546.48	38267.15
546.68	38918.4
546.88	38568.2
547.08	38295.82
547.28	38631.69
547.48	38056.21
547.68	38359.31
547.88	37964.05
548.081	38416.65
548.281	38263.05
548.481	38033.68
548.681	38863.11
548.881	38160.66
549.081	38142.22
549.28	38537.48
549.48	38328.59
549.68	38402.32
549.88	38951.17
550.08	38398.22
550.28	38207.76
550.48	38195.47
550.68	38342.92
550.88	38033.68
551.08	37857.56
551.279	38418.7
551.479	37875.99
551.679	38197.52
551.879	38021.39
552.079	38400.27
552.278	38387.98
552.478	38054.16
552.678	38359.31
552.878	38551.82
553.077	37671.19
553.277	37722.39
553.477	38430.99
553.676	38347.02
553.876	38189.33
554.076	38074.64
554.275	37912.85
554.475	37400.86
554.674	37763.35
554.874	38048.02
555.074	38160.66
555.273	37927.19
555.473	38140.18
555.672	37927.19
555.872	37615.9
556.071	37943.57
556.271	38064.4
556.47	37888.28
556.67	36989.22
556.869	37619.99
557.068	37955.86
557.268	37079.33
557.467	37638.42
557.667	37763.35
557.866	37460.25
558.065	37216.54
558.265	37601.56
558.464	37011.74
558.663	37273.88
558.863	37009.7
559.062	37310.75
559.261	36882.72
559.461	37663
559.66	37112.1
559.859	37249.31
560.058	36952.35
560.258	37153.05
560.457	36815.14
560.656	37157.15
560.855	36927.78
561.054	37017.89
561.253	36829.48
561.453	37030.18
561.652	37050.66
561.851	36823.33
562.05	36559.14
562.249	36352.3
562.448	36952.35
562.647	36440.36
562.846	36370.73
563.045	36299.05
563.244	36133.17
563.443	36663.59
563.642	35963.18
563.841	36417.83
564.04	35914.03
564.239	36518.18
564.438	35819.83
564.637	36147.5
564.836	35959.09
565.035	35897.65
565.234	36208.94
565.432	35903.79
565.631	35844.4
565.83	35486.01
566.029	35846.45
566.228	35723.57
566.427	35547.45
566.625	35334.46
566.824	34988.35
567.023	35348.79
567.222	34726.21
567.42	35635.51
567.619	35469.62
567.818	35156.28
568.016	35258.68
568.215	34978.11
568.414	35055.93
568.612	35393.85
568.811	34947.39
569.01	35115.33
569.208	34488.65
569.407	34976.06
569.605	34373.96
569.804	34881.86
570.002	34132.3
570.201	34548.04
570.4	34081.1
570.598	34189.64
570.797	34320.71
570.995	33933.65
571.193	33890.64
571.392	34404.68
571.59	34099.53
571.789	33816.91
571.987	33982.8
572.186	33794.39
572.384	33519.96
572.582	33745.23
572.781	33708.37
572.979	33347.93
573.177	33435.99
573.376	33274.2
573.574	32780.64
573.772	33399.13
573.971	32999.77
574.169	33280.35
574.367	33069.4
574.565	33257.82
574.763	32643.43
574.962	32850.27
575.16	32467.3
575.358	32641.38
575.556	32076.14
575.754	32700.77
575.952	32264.55
576.151	32631.14
576.349	31912.3
576.547	32156.01
576.745	32371.05
576.943	32438.63
577.141	32229.74
577.339	31885.68
577.537	31803.76
577.735	31971.69
577.933	31388.02
578.131	31662.45
578.329	31390.07
578.527	31551.86
578.725	31558
578.923	31373.69
579.121	31289.72
579.319	31558
579.516	31322.49
579.714	31236.47
579.912	31064.44
580.11	30966.14
580.308	31113.59
580.506	31009.15
580.704	30341.51
580.901	30767.49
581.099	30853.5
581.297	30509.44
581.495	30349.7
581.692	30658.95
581.89	30122.38
582.088	30663.04
582.285	30521.73
582.483	30388.61
582.681	30093.71
582.878	30261.64
583.076	29884.81
583.274	29933.96
583.471	29413.78
583.669	29446.55
583.866	29528.47
584.064	29710.74
584.262	29200.79
584.459	29600.15
584.657	28907.93
584.854	29563.28
585.052	28901.79
585.249	29219.22
585.447	29278.61
585.644	29102.49
585.841	28875.16
586.039	29327.77
586.236	28746.14
586.434	28508.58
586.631	28221.86
586.828	28529.06
587.026	28592.55
587.223	28520.87
587.42	28498.34
587.618	28266.92
587.815	27984.3
588.012	27902.38
588.21	28137.9
588.407	28273.06
588.604	27972.01
588.801	27716.01
588.999	27421.11
589.196	27748.78
589.393	27503.03
589.59	27363.76
589.787	27429.3
589.984	27111.86
590.182	27374
590.379	27285.94
590.576	26878.4
590.773	27185.59
590.97	27027.9
591.167	27154.87
591.364	26524.1
591.561	26708.41
591.758	26661.31
591.955	26638.78
592.152	26481.09
592.349	26556.86
592.546	26855.87
592.743	26261.96
592.94	25993.67
593.137	26411.46
593.334	26098.12
593.531	25817.55
593.727	26106.31
593.924	25958.86
594.121	25897.42
594.318	25938.38
594.515	25592.27
594.712	25999.82
594.908	25520.59
595.105	25487.82
595.302	25260.5
595.499	25602.51
595.696	25274.84
595.892	25348.56
596.089	25035.22
596.286	25186.77
596.482	25033.18
596.679	25108.95
596.876	24885.72
597.072	24885.72
597.269	24832.47
597.466	24588.77
597.662	24875.48
597.859	24601.05
598.055	24605.15
598.252	24441.31
598.448	24498.66
598.645	24232.42
598.841	23888.36
599.038	24191.46
599.234	24060.39
599.431	23818.73
599.627	23962.09
599.824	23962.09
600.02	23882.22
600.217	23785.96
600.413	23689.71
600.609	23529.97
600.806	23489.01
601.002	23466.48
601.198	23173.62
601.395	23118.32
601.591	23118.32
601.787	23263.73
601.984	23370.22
602.18	23230.96
602.376	22786.55
602.572	22659.58
602.769	22981.11
602.965	22798.84
603.161	22970.87
603.357	22600.19
603.553	22663.68
603.75	22524.41
603.946	22651.39
604.142	22372.86
604.338	22268.42
604.534	22405.63
604.73	22186.5
604.926	22192.64
605.122	22391.3
605.318	21705.23
605.514	21764.62
605.71	21867.02
605.906	21627.4
606.102	21791.24
606.298	21887.5
606.494	21725.71
606.69	21879.3
606.886	21981.7
607.082	21506.57
607.278	21580.3
607.474	21326.35
607.67	21613.07
607.866	20759.06
608.062	21504.53
608.257	21334.54
608.453	21400.08
608.649	21479.95
608.845	21133.84
609.041	21172.75
609.236	21121.56
609.432	20838.94
609.628	21072.4
609.824	20924.95
610.019	20625.95
610.215	20900.37
610.411	21066.26
610.606	20589.08
610.802	20775.45
610.998	20615.71
611.193	20808.22
611.389	20341.28
611.584	20802.07
611.78	20208.16
611.976	20138.53
612.171	20226.59
612.367	20285.98
612.562	20445.73
612.758	19905.06
612.953	20238.88
613.149	20470.3
613.344	20101.67
613.539	20433.44
613.735	20259.36
613.93	20140.58
614.126	20095.52
614.321	20267.55
614.517	20097.57
614.712	19946.02
614.907	19726.89
615.103	20036.13
615.298	19905.06
615.493	20058.66
615.688	19640.87
615.884	20023.84
616.079	19491.37
616.274	19657.26
616.47	19620.39
616.665	19456.56
616.86	19487.28
617.055	19528.24
617.25	19384.88
617.445	19440.17
617.641	19161.65
617.836	19296.81
618.031	19362.35
618.226	19186.22
618.421	19079.73
618.616	19300.91
618.811	18868.79
619.006	19266.1
619.201	18629.18
619.396	18895.41
619.591	18694.71
619.786	18813.49
619.981	18444.86
620.176	18543.16
620.371	18592.31
620.566	18418.24
620.761	18385.47
620.956	18348.61
621.151	17975.88
621.346	18152
621.541	18154.05
621.735	18082.37
621.93	17752.65
622.125	17670.73
622.32	17449.55
622.515	17486.41
622.709	17334.86
622.904	17447.5
623.099	17263.18
623.294	17498.7
623.488	17158.74
623.683	17269.33
623.878	16939.6
624.072	17201.74
624.267	16689.75
624.462	16736.85
624.656	16290.4
624.851	16480.86
625.046	16566.87
625.24	16347.74
625.435	16175.71
625.629	16370.27
625.824	16243.29
626.018	16190.05
626.213	15714.92
626.407	16007.78
626.602	15540.84
626.796	15827.56
626.991	15805.03
627.185	15542.89
627.38	15512.17
627.574	15385.19
627.768	15329.9
627.963	15237.74
628.157	14963.31
628.352	14944.88
628.546	14918.26
628.74	15172.21
628.935	14928.5
629.129	14752.37
629.323	14598.77
629.517	14688.89
629.712	14609.01
629.906	14441.08
630.1	14221.95
630.294	14647.93
630.489	14101.12
630.683	14402.17
630.877	13828.74
631.071	13916.8
631.265	14193.28
631.459	14094.97
631.653	13828.74
631.848	13867.65
632.042	13593.22
632.236	13615.75
632.43	13363.85
632.624	13787.78
632.818	13413
633.012	13318.79
633.206	13232.78
633.4	13259.4
633.594	13005.45
633.788	13189.77
633.982	13017.74
634.176	13068.94
634.369	12821.14
634.563	12712.6
634.757	12677.78
634.951	12636.82
635.145	12518.04
635.339	12585.62
635.533	12577.43
635.726	12343.96
635.92	12249.75
636.114	12272.28
636.308	12346.01
636.501	12405.4
636.695	12481.17
636.889	12169.88
637.083	11799.2
637.276	11963.04
637.47	11827.87
637.664	11907.74
637.857	11791.01
638.051	11674.28
638.244	11625.12
638.438	11739.81
638.632	11641.51
638.825	11530.92
639.019	11455.14
639.212	11322.02
639.406	11467.43
639.599	11141.8
639.793	11301.54
639.986	10992.3
640.18	11135.66
640.373	11106.99
640.567	11035.31
640.76	10939.05
640.954	10767.03
641.147	10803.89
641.34	10832.56
641.534	10814.13
641.727	10551.99
641.92	10492.6
642.114	10422.97
642.307	10394.29
642.5	10445.49
642.694	10306.23
642.887	10095.29
643.08	10087.1
643.273	10199.74
643.467	10142.39
643.66	10037.95
643.853	10035.9
644.046	9728.7
644.239	9917.12
644.432	9792.19
644.626	9812.67
644.819	9593.54
645.012	9779.9
645.205	9857.73
645.398	9546.44
645.591	9329.35
645.784	9579.2
645.977	9382.6
646.17	9407.17
646.363	9468.61
646.556	9237.19
646.749	9321.16
646.942	9134.79
647.135	9192.14
647.328	9157.32
647.521	8995.53
647.714	8934.09
647.907	9071.31
648.099	8784.59
648.292	8854.22
648.485	8831.69
648.678	8782.54
648.871	8803.02
649.064	8538.84
649.256	8600.27
649.449	8825.55
649.642	8680.14
649.835	8635.09
650.027	8579.79
650.22	8438.48
650.413	8458.96
650.605	8458.96
650.798	8319.7
650.991	8133.34
651.183	8305.37
651.376	8184.54
651.568	8250.07
651.761	7883.49
651.954	8032.99
652.146	8069.85
652.339	8037.08
652.531	7936.73
652.724	7852.77
652.916	7817.95
653.109	7867.1
653.301	7717.6
653.494	7670.5
653.686	7686.88
653.879	7615.2
654.071	7580.39
654.263	7580.39
654.456	7631.58
654.648	7578.34
654.84	7529.19
655.033	7512.8
655.225	7463.65
655.417	7283.43
655.61	7238.37
655.802	7408.36
655.994	7369.44
656.186	7074.54
656.379	7209.7
656.571	7029.48
656.763	7033.58
656.955	7115.5
657.148	7033.58
657.34	6980.33
657.532	6818.54
657.724	6808.3
657.916	6900.46
658.108	6912.75
658.3	6908.65
658.492	6738.67
658.684	6556.4
658.876	6738.67
659.068	6710
659.26	6679.28
659.452	6587.12
659.644	6750.96
659.836	6660.85
660.028	6597.36
660.22	6404.85
660.412	6349.56
660.604	6423.28
660.796	6423.28
660.988	6400.76
661.18	6136.57
661.372	6193.91
661.563	6152.95
661.755	6263.54
661.947	6261.49
662.139	6157.05
662.331	6179.58
662.522	6073.08
662.714	6136.57
662.906	5966.59
663.097	6040.31
663.289	6028.03
663.481	5915.39
663.673	5786.37
663.864	5919.48
664.056	5810.94
664.247	5808.89
664.439	5726.97
664.631	5726.97
664.822	5882.62
665.014	5800.7
665.205	5817.08
665.397	5575.42
665.588	5786.37
665.78	5477.12
665.971	5542.66
666.163	5483.27
666.354	5341.96
666.546	5475.07
666.737	5432.07
666.929	5391.11
667.12	5380.87
667.311	5305.09
667.503	5251.85
667.694	5475.07
667.885	5276.42
668.077	5522.18
668.268	5147.4
668.459	5309.19
668.651	5194.5
668.842	5301
669.033	5190.41
669.224	4991.75
669.416	5137.16
669.607	5049.1
669.798	4997.9
669.989	5110.54
670.18	4981.51
670.371	4967.18
670.563	4987.66
670.754	4895.5
670.945	4934.41
671.136	5006.09
671.327	4975.37
671.518	4903.69
671.709	5139.21
671.9	4932.36
672.091	4809.48
672.282	4739.85
672.473	4875.02
672.664	4688.65
672.855	4825.87
673.046	4768.52
673.237	4819.72
673.428	4793.1
673.619	4637.45
673.809	4647.69
674	4571.92
674.191	4637.45
674.382	4641.55
674.573	4381.46
674.764	4553.49
674.954	4588.3
675.145	4514.58
675.336	4334.36
675.527	4500.24
675.717	4580.11
675.908	4490
676.099	4481.81
676.289	4526.86
676.48	4457.23
676.671	4387.6
676.861	4535.06
677.052	4367.12
677.243	4375.31
677.433	4473.62
677.624	4379.41
677.814	4401.94
678.005	4399.89
678.195	4279.06
678.386	4365.07
678.576	4297.49
678.767	4432.66
678.957	4127.51
679.148	4252.44
679.338	4291.35
679.529	4277.01
679.719	4107.03
679.909	4262.68
680.1	4246.29
680.29	4174.61
680.481	4182.81
680.671	4139.8
680.861	4168.47
681.052	4207.38
681.242	4039.45
681.432	4252.44
681.622	4145.94
681.813	4055.83
682.003	4197.14
682.193	4068.12
682.383	4135.7
682.573	4147.99
682.764	4027.16
682.954	3935
683.144	4086.55
683.334	3963.67
683.524	3935
683.714	3982.1
683.904	3975.96
684.094	3861.27
684.284	3949.34
684.474	3961.62
684.664	3998.49
684.854	3875.61
685.044	3918.62
685.234	3775.26
685.424	3875.61
685.614	3910.43
685.804	3902.23
685.994	3846.94
686.184	3967.77
686.374	3777.31
686.564	3822.36
686.753	3762.97
686.943	3769.12
687.133	3666.72
687.323	3797.79
687.513	3527.46
687.702	3687.2
687.892	3611.42
688.082	3679.01
688.272	3621.66
688.461	3525.41
688.651	3627.81
688.841	3523.36
689.03	3572.51
689.22	3572.51
689.41	3539.74
689.599	3564.32
689.789	3390.24
689.979	3531.55
690.168	3558.18
690.358	3408.67
690.547	3441.44
690.737	3506.98
690.926	3265.32
691.116	3441.44
691.305	3527.46
691.495	3461.92
691.684	3531.55
691.874	3353.38
692.063	3330.85
692.252	3296.04
692.442	3334.95
692.631	3367.71
692.82	3375.91
693.01	3382.05
693.199	3205.92
693.388	3289.89
693.578	3279.65
693.767	3105.57
693.956	3240.74
694.146	3097.38
694.335	3183.4
694.524	3040.04
694.713	3056.42
694.902	3097.38
695.092	3089.19
695.281	3083.05
695.47	3031.85
695.659	3179.3
695.848	3017.51
696.037	3205.92
696.226	3101.48
696.415	2933.54
696.604	2958.12
696.793	3001.13
696.982	2949.93
697.171	3042.09
697.36	2994.98
697.549	3027.75
697.738	2865.96
697.927	3042.09
698.116	2990.89
698.305	2949.93
698.494	2958.12
698.683	2945.83
698.872	3040.04
699.061	2933.54
699.25	2908.97
699.438	3001.13
699.627	2868.01
699.816	2876.2
700.005	2779.95
700.193	2878.25
700.382	2847.53
700.571	2968.36
700.76	2855.72
700.948	2917.16
701.137	2857.77
701.326	2820.91
701.514	2786.09
701.703	2820.91
701.892	2769.71
702.08	2876.2
702.269	2736.94
702.457	2765.61
702.646	2827.05
702.834	2802.47
703.023	2792.23
703.212	2802.47
703.4	2822.95
703.589	2779.95
703.777	2771.76
703.965	2761.52
704.154	2749.23
704.342	2847.53
704.531	2738.99
704.719	2835.24
704.907	2841.39
705.096	2708.27
705.284	2718.51
705.472	2638.64
705.661	2859.82
705.849	2790.19
706.037	2745.13
706.226	2650.92
706.414	2663.21
706.602	2583.34
706.79	2683.69
706.979	2691.88
707.167	2663.21
707.355	2622.25
707.543	2585.39
707.731	2698.03
707.919	2601.77
708.107	2698.03
708.296	2661.16
708.484	2581.29
708.672	2704.17
708.86	2507.57
709.048	2501.42
709.236	2732.84
709.424	2605.87
709.612	2681.64
709.8	2663.21
709.988	2577.2
710.176	2781.99
710.364	2499.38
710.551	2708.27
710.739	2706.22
710.927	2634.54
711.115	2616.11
711.303	2626.35
711.491	2607.92
711.679	2491.18
711.866	2624.3
712.054	2534.19
712.242	2487.09
712.43	2577.2
712.617	2519.85
712.805	2556.72
712.993	2503.47
713.181	2482.99
713.368	2587.44
713.556	2521.9
713.744	2517.81
713.931	2540.33
714.119	2597.68
714.306	2523.95
714.494	2413.36
714.682	2532.14
714.869	2519.85
715.057	2552.62
715.244	2470.7
715.432	2507.57
715.619	2503.47
715.807	2472.75
715.994	2452.27
716.182	2384.69
716.369	2485.04
716.556	2566.96
716.744	2499.38
716.931	2347.83
717.119	2515.76
717.306	2532.14
717.493	2466.61
717.681	2302.77
717.868	2548.53
718.055	2364.21
718.242	2442.03
718.43	2523.95
718.617	2388.78
718.804	2425.65
718.991	2493.23
719.179	2335.54
719.366	2423.6
719.553	2380.59
719.74	2341.68
719.927	2454.32
720.114	2425.65
720.301	2341.68
720.488	2388.78
720.676	2366.26
720.863	2335.54
721.05	2485.04
721.237	2378.55
721.424	2415.41
721.611	2437.94
721.798	2339.63
721.985	2296.63
722.172	2405.17
722.358	2310.96
722.545	2433.84
722.732	2351.92
722.919	2335.54
723.106	2384.69
723.293	2310.96
723.48	2437.94
723.667	2339.63
723.853	2327.35
724.04	2411.31
724.227	2304.82
724.414	2331.44
724.6	2386.74
724.787	2403.12
724.974	2362.16
725.161	2353.97
725.347	2378.55
725.534	2237.24
725.72	2331.44
725.907	2337.59
726.094	2263.86
726.28	2335.54
726.467	2302.77
726.653	2276.15
726.84	2353.97
727.027	2474.8
727.213	2327.35
727.4	2396.98
727.586	2294.58
727.773	2229.04
727.959	2313.01
728.145	2282.29
728.332	2329.39
728.518	2356.02
728.705	2206.52
728.891	2253.62
729.077	2179.89
729.264	2198.32
729.45	2218.8
729.636	2343.73
729.823	2247.48
730.009	2319.15
730.195	2188.08
730.382	2300.72
730.568	2306.87
730.754	2290.48
730.94	2278.19
731.126	2261.81
731.313	2261.81
731.499	2265.91
731.685	2214.71
731.871	2353.97
732.057	2196.28
732.243	2216.76
732.429	2239.28
732.615	2233.14
732.801	2278.19
732.987	2278.19
733.173	2237.24
733.359	2130.74
733.545	2239.28
733.731	2253.62
733.917	2163.51
734.103	2196.28
734.289	2143.03
734.475	2280.24
734.661	2241.33
734.847	2108.21
735.033	2155.32
735.219	2161.46
735.404	2274.1
735.59	2161.46
735.776	2188.08
735.962	2304.82
736.148	2208.56
736.333	2181.94
736.519	2065.21
736.705	2173.75
736.89	2149.17
737.076	2065.21
737.262	2085.69
737.447	2145.08
737.633	2167.6
737.819	2151.22
738.004	2122.55
738.19	2188.08
738.375	2081.59
738.561	2171.7
738.747	2179.89
738.932	2270
739.118	2265.91
739.303	2083.64
739.489	2030.39
739.674	2102.07
739.859	2093.88
740.045	2069.3
740.23	2100.02
740.416	1958.71
740.601	2032.44
740.786	1968.95
740.972	1911.61
741.157	2116.41
741.342	1983.29
741.528	2097.97
741.713	2042.68
741.898	2032.44
742.084	1966.9
742.269	2007.86
742.454	2044.73
742.639	2046.77
742.824	1946.42
743.01	2075.45
743.195	2061.11
743.38	1962.81
743.565	1905.46
743.75	1919.8
743.935	1975.1
744.12	1932.09
744.305	2085.69
744.49	1837.88
744.675	1846.07
744.86	1905.46
745.045	1876.79
745.23	1889.08
745.415	1813.31
745.6	1872.7
745.785	1819.45
745.97	1864.5
746.155	1819.45
746.34	1901.37
746.525	1755.96
746.71	1884.98
746.895	1704.76
747.079	1760.06
747.264	1719.1
747.449	1803.07
747.634	1723.2
747.819	1674.04
748.003	1745.72
748.188	1721.15
748.373	1667.9
748.557	1631.04
748.742	1698.62
748.927	1672
749.111	1667.9
749.296	1641.28
749.481	1706.81
749.665	1569.6
749.85	1624.89
750.034	1577.79
750.219	1575.74
750.404	1506.11
750.588	1579.84
750.773	1520.45
750.957	1524.54
751.141	1510.21
751.326	1557.31
751.51	1450.82
751.695	1444.67
751.879	1495.87
752.064	1581.89
752.248	1483.58
752.432	1557.31
752.617	1477.44
752.801	1469.25
752.985	1456.96
753.17	1459.01
753.354	1444.67
753.538	1336.13
753.722	1250.11
753.907	1377.09
754.091	1516.35
754.275	1463.1
754.459	1315.65
754.643	1356.61
754.828	1346.37
755.012	1395.52
755.196	1325.89
755.38	1282.88
755.564	1289.03
755.748	1282.88
755.932	1231.68
756.116	1231.68
756.3	1291.07
756.484	1293.12
756.668	1256.26
756.852	1221.44
757.036	1190.72
757.22	1160
757.404	1246.02
757.588	1219.39
757.772	1217.35
757.956	1203.01
758.14	1182.53
758.323	1114.95
758.507	1106.76
758.691	1209.15
758.875	1143.62
759.059	1135.43
759.242	1162.05
759.426	1127.24
759.61	1090.37
759.794	1010.5
759.977	1114.95
760.161	1065.8
760.345	1090.37
760.528	1092.42
760.712	1143.62
760.895	1043.27
761.079	944.97
761.263	987.97
761.446	947.01
761.63	981.83
761.813	1110.85
761.997	965.45
762.18	998.21
762.364	1100.61
762.547	949.06
762.731	1000.26
762.914	1022.79
763.098	1026.89
763.281	967.49
763.464	987.97
763.648	967.49
763.831	961.35
764.015	918.34
764.198	942.92
764.381	981.83
764.564	1037.13
764.748	947.01
764.931	791.37
765.114	977.73
765.297	932.68
765.481	897.86
765.664	967.49
765.847	877.38
766.03	959.3
766.213	906.06
766.397	1043.27
766.58	867.14
766.763	844.62
766.946	846.66
767.129	854.86
767.312	957.25
767.495	844.62
767.678	877.38
767.861	987.97
768.044	922.44
768.227	854.86
768.41	850.76
768.593	834.38
768.776	861
768.959	887.62
769.142	815.94
769.324	865.1
769.507	805.71
769.69	852.81
769.873	817.99
770.056	861
770.239	791.37
770.421	820.04
770.604	797.51
770.787	766.79
770.97	805.71
771.152	762.7
771.335	717.64
771.518	813.9
771.7	846.66
771.883	762.7
772.066	777.03
772.248	828.23
772.431	828.23
772.613	725.83
772.796	836.42
772.978	713.55
773.161	719.69
773.343	705.35
773.526	770.89
773.708	711.5
773.891	699.21
774.073	729.93
774.256	686.92
774.438	748.36
774.621	672.59
774.803	664.4
774.985	701.26
775.168	729.93
775.35	672.59
775.532	660.3
775.715	684.87
775.897	672.59
776.079	598.86
776.261	615.24
776.444	586.57
776.626	645.96
776.808	553.8
776.99	707.4
777.173	648.01
777.355	705.35
777.537	547.66
777.719	576.33
777.901	527.18
778.083	652.11
778.265	625.48
778.447	635.72
778.629	572.24
778.811	535.37
778.993	615.24
779.175	648.01
779.357	594.76
779.539	584.52
779.721	574.28
779.903	609.1
780.085	529.23
780.267	559.95
780.449	504.65
780.631	574.28
780.812	574.28
780.994	502.61
781.176	506.7
781.358	570.19
781.54	512.85
781.721	494.41
781.903	531.28
782.085	398.16
782.267	547.66
782.448	469.84
782.63	432.97
782.812	430.93
782.993	576.33
783.175	426.83
783.357	484.17
783.538	441.17
783.72	441.17
783.901	396.11
784.083	502.61
784.264	471.89
784.446	420.69
784.627	422.73
784.809	396.11
784.99	426.83
785.172	363.34
785.353	510.8
785.535	383.82
785.716	426.83
785.897	355.15
786.079	414.54
786.26	432.97
786.441	418.64
786.623	394.06
786.804	385.87
786.985	408.4
787.167	369.49
787.348	398.16
787.529	361.3
787.71	392.02
787.891	328.53
788.073	387.92
788.254	377.68
788.435	412.5
788.616	291.66
788.797	262.99
788.978	357.2
789.159	252.75
789.34	412.5
789.522	455.5
789.703	344.91
789.884	320.34
790.065	351.06
790.246	297.81
790.427	295.76
790.607	371.54
790.788	381.78
790.969	336.72
791.15	336.72
791.331	207.7
791.512	377.68
791.693	297.81
791.874	287.57
792.054	346.96
792.235	349.01
792.416	355.15
792.597	258.9
792.778	277.33
792.958	287.57
793.139	336.72
793.32	303.95
793.5	222.03
793.681	312.14
793.862	303.95
794.042	248.66
794.223	262.99
794.404	240.47
794.584	111.44
794.765	213.84
794.945	283.47
795.126	336.72
795.306	230.23
795.487	273.23
795.667	254.8
795.848	353.1
796.028	269.14
796.209	340.82
796.389	256.85
796.57	236.37
796.75	256.85
796.93	269.14
797.111	224.08
797.291	258.9
797.471	279.38
797.652	189.27
797.832	244.56
798.012	262.99
798.192	297.81
798.373	166.74
798.553	262.99
798.733	250.71
798.913	262.99
799.093	254.8
799.274	209.75
799.454	226.13
799.634	189.27
799.814	322.38
799.994	228.18
800.174	246.61
800.354	240.47
800.534	213.84
800.714	230.23
800.894	248.66
801.074	205.65
801.254	193.36
801.434	154.45
801.614	242.51
801.794	172.88
801.974	697.16
802.154	195.41
802.334	199.51
802.514	226.13
802.693	246.61
802.873	222.03
803.053	213.84
803.233	174.93
803.413	148.31
803.592	197.46
803.772	201.55
803.952	258.9
804.131	168.79
804.311	205.65
804.491	226.13
804.67	238.42
804.85	222.03
805.03	236.37
805.209	199.51
805.389	172.88
805.568	174.93
805.748	146.26
805.928	197.46
806.107	189.27
806.287	117.59
806.466	183.12
806.646	207.7
806.825	158.55
807.004	156.5
807.184	131.92
807.363	207.7
807.543	144.21
807.722	160.59
807.901	303.95
808.081	238.42
808.26	123.73
808.439	240.47
808.619	148.31
808.798	189.27
808.977	148.31
809.156	127.83
809.336	148.31
809.515	224.08
809.694	164.69
809.873	136.02
810.052	140.12
810.231	199.51
810.411	111.44
810.59	142.16
810.769	125.78
810.948	207.7
811.127	68.44
811.306	70.48
811.485	115.54
811.664	172.88
811.843	76.63
812.022	164.69
812.201	86.87
812.38	160.59
812.559	76.63
812.737	140.12
812.916	131.92
813.095	80.72
813.274	123.73
813.453	90.96
813.632	101.2
813.811	174.93
813.989	129.88
814.168	123.73
814.347	160.59
814.526	90.96
814.704	172.88
814.883	133.97
815.062	66.39
815.24	205.65
815.419	99.16
815.598	123.73
815.776	90.96
815.955	119.64
816.133	156.5
816.312	84.82
816.49	35.67
816.669	140.12
816.847	66.39
817.026	90.96
817.204	146.26
817.383	156.5
817.561	62.29
817.74	136.02
817.918	131.92
818.097	50
818.275	144.21
818.453	183.12
818.632	140.12
818.81	107.35
818.988	107.35
819.167	133.97
819.345	84.82
819.523	168.79
819.701	86.87
819.879	80.72
820.058	95.06
820.236	66.39
820.414	131.92
820.592	62.29
820.77	115.54
820.948	148.31
821.127	54.1
821.305	52.05
821.483	148.31
821.661	56.15
821.839	123.73
822.017	144.21
822.195	72.53
822.373	68.44
822.551	80.72
822.729	58.2
822.907	101.2
823.085	121.68
823.262	50
823.44	158.55
823.618	90.96
823.796	54.1
823.974	-3.24
824.152	50
824.329	70.48
824.507	21.33
824.685	117.59
824.863	136.02
825.04	152.4
825.218	162.64
825.396	90.96
825.574	119.64
825.751	66.39
825.929	183.12
826.107	82.77
826.284	123.73
826.462	97.11
826.639	148.31
826.817	62.29
826.994	62.29
827.172	60.24
827.349	95.06
827.527	58.2
827.704	45.91
827.882	50
828.059	142.16
828.237	64.34
828.414	107.35
828.591	-1.19
828.769	95.06
828.946	47.96
829.124	45.91
829.301	105.3
829.478	52.05
829.655	74.58
829.833	117.59
830.01	68.44
830.187	86.87
830.364	50
830.542	121.68
830.719	50
830.896	74.58
831.073	88.92
831.25	39.76
831.427	127.83
831.604	64.34
831.782	76.63
831.959	50
832.136	90.96
832.313	37.72
832.49	-3.24
832.667	58.2
832.844	33.62
833.021	101.2
833.198	74.58
833.374	17.24
833.551	11.09
833.728	119.64
833.905	105.3
834.082	52.05
834.259	117.59
834.436	117.59
834.612	78.68
834.789	35.67
834.966	2.9
835.143	150.36
835.319	25.43
835.496	52.05
835.673	74.58
835.85	37.72
836.026	-3.24
836.203	23.38
836.38	35.67
836.556	-64.68
836.733	-13.48
836.909	76.63
837.086	66.39
837.262	15.19
837.439	27.48
837.616	90.96
837.792	45.91
837.968	41.81
838.145	-44.2
838.321	133.97
838.498	41.81
838.674	4.95
838.851	-11.43
839.027	-23.72
839.203	50
839.38	101.2
839.556	45.91
839.732	45.91
839.909	93.01
840.085	33.62
840.261	17.24
840.437	56.15
840.614	82.77
840.79	66.39
840.966	76.63
841.142	9.05
841.318	7
841.494	90.96
841.671	64.34
841.847	31.57
842.023	13.14
842.199	54.1
842.375	45.91
842.551	-15.53
842.727	52.05
842.903	119.64
843.079	-17.58
843.255	119.64
843.431	101.2
843.607	41.81
843.783	43.86
843.959	95.06
844.134	-19.63
844.31	27.48
844.486	4.95
844.662	-38.06
844.838	0.85
845.013	90.96
845.189	66.39
845.365	66.39
845.541	-5.29
845.716	62.29
845.892	19.29
846.068	95.06
846.244	39.76
846.419	-3.24
846.595	60.24
846.77	-40.11
846.946	43.86
847.122	56.15
847.297	-36.01
847.473	86.87
847.648	52.05
847.824	80.72
847.999	4.95
848.175	41.81
848.35	50
848.526	33.62
848.701	90.96
848.876	27.48
849.052	-42.15
849.227	-9.39
849.403	37.72
849.578	21.33
849.753	-11.43
849.929	-25.77
850.104	11.09
850.279	35.67
850.454	70.48
850.63	-23.72
850.805	15.19
850.98	0.85
851.155	15.19
851.33	39.76
851.505	11.09
851.681	17.24
851.856	-62.63
852.031	37.72
852.206	-5.29
852.381	31.57
852.556	-27.82
852.731	17.24
852.906	-7.34
853.081	-23.72
853.256	43.86
853.431	9.05
853.606	-7.34
853.781	-19.63
853.956	-19.63
854.131	52.05
854.305	21.33
854.48	9.05
854.655	-29.87
854.83	0.85
855.005	-95.4
855.18	33.62
855.354	29.52
855.529	168.79
855.704	17.24
855.879	17.24
856.053	33.62
856.228	-25.77
856.403	19.29
856.577	33.62
856.752	7
856.926	17.24
857.101	-13.48
857.276	-19.63
857.45	-23.72
857.625	82.77
857.799	17.24
857.974	52.05
858.148	-48.3
858.323	-5.29
858.497	11.09
858.672	50
858.846	21.33
859.02	66.39
859.195	-48.3
859.369	-21.67
859.543	50
859.718	-58.54
859.892	90.96
860.066	60.24
860.241	68.44
860.415	-56.49
860.589	19.29
860.763	41.81
860.938	-29.87
861.112	0.85
861.286	45.91
861.46	41.81
861.634	13.14
861.808	25.43
861.982	-19.63
862.157	17.24
862.331	29.52
862.505	9.05
862.679	52.05
862.853	-36.01
863.027	19.29
863.201	95.06
863.375	31.57
863.549	19.29
863.722	27.48
863.896	13.14
864.07	23.38
864.244	11.09
864.418	-19.63
864.592	17.24
864.766	-27.82
864.939	68.44
865.113	-19.63
865.287	54.1
865.461	0.85
865.634	-15.53
865.808	86.87
865.982	29.52
866.156	-89.26
866.329	-1.19
866.503	27.48
866.676	68.44
866.85	9.05
867.024	17.24
867.197	-19.63
867.371	58.2
867.544	17.24
867.718	-15.53
867.891	72.53
868.065	-13.48
868.238	-21.67
868.412	66.39
868.585	-33.96
868.759	0.85
868.932	4.95
869.105	-23.72
869.279	-64.68
869.452	-48.3
869.625	-13.48
869.799	47.96
869.972	19.29
870.145	27.48
870.319	0.85
870.492	13.14
870.665	-36.01
870.838	-13.48
871.011	54.1
871.185	17.24
871.358	-7.34
871.531	33.62
871.704	-23.72
871.877	-19.63
872.05	52.05
872.223	66.39
872.396	35.67
872.569	15.19
872.742	-48.3
872.915	-7.34
873.088	-5.29
873.261	-7.34
873.434	2.9
873.607	33.62
873.78	52.05
873.953	9.05
874.126	-48.3
874.299	-5.29
874.471	-11.43
874.644	-27.82
874.817	2.9
874.99	54.1
875.163	-13.48
875.335	64.34
875.508	0.85
875.681	50
875.853	-15.53
876.026	35.67
876.199	13.14
876.371	0.85
876.544	86.87
876.717	-19.63
876.889	-7.34
877.062	66.39
877.234	-44.2
877.407	-13.48
877.579	13.14
877.752	-15.53
877.924	-68.78
878.097	-29.87
878.269	0.85
878.442	0.85
878.614	9.05
878.786	29.52
878.959	29.52
879.131	15.19
879.303	-70.83
879.476	95.06
879.648	82.77
879.82	33.62
879.993	-33.96
880.165	25.43
880.337	-52.39
880.509	-7.34
880.681	58.2
880.854	-36.01
881.026	-5.29
881.198	115.54
881.37	21.33
881.542	41.81
881.714	25.43
881.886	33.62
882.058	-3.24
882.23	-46.25
882.402	11.09
882.574	-56.49
882.746	-17.58
882.918	9.05
883.09	-40.11
883.262	-48.3
883.434	35.67
883.606	-23.72
883.778	31.57
883.95	25.43
884.122	41.81
884.293	-25.77
884.465	17.24
884.637	52.05
884.809	-19.63
884.98	72.53
885.152	17.24
885.324	-21.67
885.496	-48.3
885.667	76.63
885.839	56.15
886.011	9.05
886.182	-36.01
886.354	41.81
886.525	-40.11
886.697	43.86
886.869	-29.87
887.04	-36.01
887.212	109.4
887.383	90.96
887.555	-5.29
887.726	-89.26
887.897	45.91
888.069	-54.44
888.24	9.05
888.412	19.29
888.583	33.62
888.754	66.39
888.926	-52.39
889.097	-15.53
889.268	-23.72
889.44	23.38
889.611	-40.11
889.782	21.33
889.953	45.91
890.125	41.81
890.296	-46.25
890.467	-62.63
890.638	-54.44
890.809	25.43
890.98	0.85
891.151	9.05
891.323	-27.82
891.494	-48.3
891.665	19.29
891.836	0.85
892.007	-9.39
892.178	0.85
892.349	15.19
892.52	-48.3
892.691	-72.87
892.862	50
893.032	-85.16
893.203	-19.63
893.374	41.81
893.545	9.05
893.716	2.9
893.887	52.05
894.057	35.67
894.228	74.58
894.399	-91.31
894.57	58.2
894.74	-25.77
894.911	-52.39
895.082	-23.72
895.253	11.09
895.423	17.24
895.594	50
895.764	15.19
895.935	7
896.106	-15.53
896.276	-23.72
896.447	-38.06
896.617	31.57
896.788	-68.78
896.958	-21.67
897.129	-38.06
897.299	-3.24
897.47	33.62
897.64	0.85
897.81	-56.49
897.981	-70.83
898.151	-87.21
898.322	23.38
898.492	4.95
898.662	-3.24
898.832	-5.29
899.003	-1.19
899.173	-23.72
899.343	47.96
899.513	-38.06
