Data from USB4F104151__312__14-24-24-564.txt Node

Date: Thu Mar 13 14:24:24 EDT 2025
User: louis
Spectrometer: USB4F10415
Trigger mode: 4
Integration Time (sec): 2.000000E-2
Scans to average: 1
Electric dark correction enabled: true
Nonlinearity correction enabled: false
Boxcar width: 0
XAxis mode: Wavelengths
Number of Pixels in Spectrum: 3648
>>>>>Begin Spectral Data<<<<<
178.204	-24.4
178.424	-24.4
178.644	-24.4
178.864	-85.84
179.084	-137.04
179.304	43.18
179.524	-5.97
179.744	2.22
179.964	-5.97
180.184	-46.93
180.404	4.27
180.624	10.41
180.844	12.46
181.064	-32.6
181.283	-1.88
181.503	-53.08
181.723	73.9
181.943	28.84
182.163	57.51
182.383	32.94
182.602	0.17
182.822	14.51
183.042	-112.47
183.262	12.46
183.482	32.94
183.701	22.7
183.921	28.84
184.141	51.37
184.361	-8.02
184.58	2.22
184.8	18.6
185.02	28.84
185.239	-42.84
185.459	2.22
185.679	59.56
185.898	-5.97
186.118	10.41
186.338	57.51
186.557	4.27
186.777	-55.12
186.997	-30.55
187.216	-18.26
187.436	73.9
187.655	4.27
187.875	26.79
188.095	-24.4
188.314	71.85
188.534	53.42
188.753	43.18
188.973	6.31
189.192	0.17
189.412	-51.03
189.631	49.32
189.851	-46.93
190.07	45.23
190.29	-65.36
190.509	10.41
190.729	86.19
190.948	90.28
191.168	168.1
191.387	41.13
191.607	28.84
191.826	49.32
192.045	-38.74
192.265	12.46
192.484	59.56
192.704	-14.17
192.923	6.31
193.142	112.81
193.362	-5.97
193.581	88.23
193.8	24.75
194.02	75.95
194.239	18.6
194.458	-57.17
194.678	4.27
194.897	-46.93
195.116	12.46
195.335	2.22
195.555	43.18
195.774	4.27
195.993	39.08
196.212	14.51
196.432	-10.07
196.651	10.41
196.87	4.27
197.089	47.27
197.308	-24.4
197.528	77.99
197.747	12.46
197.966	16.55
198.185	92.33
198.404	-65.36
198.623	49.32
198.842	2.22
199.062	67.75
199.281	41.13
199.5	10.41
199.719	-14.17
199.938	51.37
200.157	75.95
200.376	20.65
200.595	108.71
200.814	59.56
201.033	16.55
201.252	82.09
201.471	24.75
201.69	28.84
201.909	47.27
202.128	57.51
202.347	37.03
202.566	45.23
202.785	26.79
203.004	-20.31
203.223	67.75
203.442	30.89
203.661	24.75
203.879	-3.93
204.098	59.56
204.317	32.94
204.536	-24.4
204.755	34.99
204.974	0.17
205.193	-38.74
205.411	92.33
205.63	-24.4
205.849	75.95
206.068	55.47
206.287	-20.31
206.505	32.94
206.724	14.51
206.943	22.7
207.162	-42.84
207.381	-20.31
207.599	0.17
207.818	-5.97
208.037	-61.27
208.255	10.41
208.474	-53.08
208.693	32.94
208.911	8.36
209.13	32.94
209.349	102.57
209.567	18.6
209.786	34.99
210.005	-16.21
210.223	65.71
210.442	-16.21
210.661	45.23
210.879	92.33
211.098	2.22
211.316	16.55
211.535	77.99
211.753	4.27
211.972	10.41
212.191	-30.55
212.409	37.03
212.628	22.7
212.846	24.75
213.065	43.18
213.283	32.94
213.502	-12.12
213.72	67.75
213.938	-36.69
214.157	26.79
214.375	8.36
214.594	-32.6
214.812	-26.45
215.031	16.55
215.249	41.13
215.467	49.32
215.686	2.22
215.904	86.19
216.122	18.6
216.341	-24.4
216.559	-42.84
216.778	96.43
216.996	86.19
217.214	37.03
217.432	22.7
217.651	-55.12
217.869	-22.36
218.087	41.13
218.306	26.79
218.524	-32.6
218.742	8.36
218.96	71.85
219.179	-40.79
219.397	73.9
219.615	8.36
219.833	84.14
220.051	-40.79
220.27	-5.97
220.488	8.36
220.706	6.31
220.924	-16.21
221.142	-30.55
221.36	92.33
221.578	49.32
221.796	0.17
222.015	49.32
222.233	16.55
222.451	32.94
222.669	-8.02
222.887	90.28
223.105	-26.45
223.323	43.18
223.541	-24.4
223.759	0.17
223.977	57.51
224.195	0.17
224.413	8.36
224.631	53.42
224.849	61.61
225.067	43.18
225.285	4.27
225.503	8.36
225.721	-61.27
225.939	45.23
226.157	-16.21
226.375	94.38
226.592	-24.4
226.81	-8.02
227.028	-28.5
227.246	55.47
227.464	-16.21
227.682	37.03
227.9	26.79
228.117	34.99
228.335	2.22
228.553	20.65
228.771	10.41
228.989	73.9
229.206	61.61
229.424	39.08
229.642	16.55
229.86	41.13
230.077	16.55
230.295	43.18
230.513	55.47
230.731	24.75
230.948	45.23
231.166	32.94
231.384	-5.97
231.601	32.94
231.819	147.62
232.037	2.22
232.254	-16.21
232.472	28.84
232.689	-12.12
232.907	-55.12
233.125	34.99
233.342	16.55
233.56	-8.02
233.777	26.79
233.995	-8.02
234.213	65.71
234.43	-16.21
234.648	0.17
234.865	-14.17
235.083	16.55
235.3	16.55
235.518	57.51
235.735	20.65
235.953	53.42
236.17	65.71
236.388	65.71
236.605	18.6
236.822	24.75
237.04	-5.97
237.257	20.65
237.475	18.6
237.692	-8.02
237.909	0.17
238.127	41.13
238.344	10.41
238.562	-8.02
238.779	28.84
238.996	-48.98
239.214	34.99
239.431	34.99
239.648	18.6
239.865	37.03
240.083	84.14
240.3	16.55
240.517	-5.97
240.735	59.56
240.952	-10.07
241.169	86.19
241.386	133.29
241.603	18.6
241.821	4.27
242.038	43.18
242.255	96.43
242.472	-20.31
242.689	18.6
242.907	41.13
243.124	-32.6
243.341	34.99
243.558	0.17
243.775	-36.69
243.992	57.51
244.209	12.46
244.426	98.47
244.643	45.23
244.86	-24.4
245.078	0.17
245.295	8.36
245.512	-5.97
245.729	41.13
245.946	41.13
246.163	41.13
246.38	82.09
246.597	61.61
246.814	-5.97
247.031	16.55
247.248	12.46
247.464	37.03
247.681	43.18
247.898	-16.21
248.115	26.79
248.332	-5.97
248.549	57.51
248.766	26.79
248.983	-3.93
249.2	-73.56
249.417	24.75
249.633	2.22
249.85	37.03
250.067	63.66
250.284	47.27
250.501	16.55
250.717	2.22
250.934	0.17
251.151	51.37
251.368	4.27
251.585	32.94
251.801	-73.56
252.018	-14.17
252.235	55.47
252.451	41.13
252.668	45.23
252.885	0.17
253.102	22.7
253.318	75.95
253.535	-79.7
253.752	26.79
253.968	8.36
254.185	2.22
254.401	32.94
254.618	18.6
254.835	-14.17
255.051	65.71
255.268	28.84
255.484	37.03
255.701	6.31
255.917	41.13
256.134	-32.6
256.351	2.22
256.567	-57.17
256.784	-30.55
257	-57.17
257.217	22.7
257.433	16.55
257.65	18.6
257.866	43.18
258.082	-30.55
258.299	-12.12
258.515	49.32
258.732	-3.93
258.948	-5.97
259.165	4.27
259.381	34.99
259.597	-55.12
259.814	47.27
260.03	49.32
260.246	18.6
260.463	34.99
260.679	26.79
260.895	10.41
261.112	77.99
261.328	0.17
261.544	-12.12
261.761	90.28
261.977	34.99
262.193	-22.36
262.409	10.41
262.626	41.13
262.842	32.94
263.058	-34.64
263.274	65.71
263.49	-1.88
263.707	118.95
263.923	61.61
264.139	4.27
264.355	-8.02
264.571	53.42
264.787	16.55
265.004	49.32
265.22	57.51
265.436	14.51
265.652	49.32
265.868	-10.07
266.084	10.41
266.3	-14.17
266.516	49.32
266.732	-3.93
266.948	73.9
267.164	39.08
267.38	0.17
267.596	-57.17
267.812	86.19
268.028	4.27
268.244	-16.21
268.46	34.99
268.676	-32.6
268.892	61.61
269.108	-48.98
269.324	4.27
269.54	-32.6
269.756	37.03
269.972	22.7
270.188	20.65
270.403	4.27
270.619	8.36
270.835	49.32
271.051	-57.17
271.267	114.86
271.483	12.46
271.698	88.23
271.914	24.75
272.13	6.31
272.346	32.94
272.562	-12.12
272.777	47.27
272.993	-26.45
273.209	-34.64
273.425	-46.93
273.64	0.17
273.856	51.37
274.072	37.03
274.287	-38.74
274.503	73.9
274.719	92.33
274.934	-20.31
275.15	-100.18
275.366	41.13
275.581	-14.17
275.797	24.75
276.012	-18.26
276.228	-24.4
276.444	-20.31
276.659	45.23
276.875	0.17
277.09	-40.79
277.306	-14.17
277.521	73.9
277.737	37.03
277.952	34.99
278.168	-5.97
278.383	92.33
278.599	-20.31
278.814	32.94
279.03	20.65
279.245	14.51
279.461	49.32
279.676	114.86
279.892	-16.21
280.107	-55.12
280.322	-96.08
280.538	57.51
280.753	37.03
280.969	-42.84
281.184	73.9
281.399	6.31
281.615	37.03
281.83	47.27
282.045	6.31
282.26	-36.69
282.476	-61.27
282.691	26.79
282.906	90.28
283.122	98.47
283.337	41.13
283.552	-3.93
283.767	-12.12
283.983	-14.17
284.198	57.51
284.413	-32.6
284.628	8.36
284.843	34.99
285.058	-55.12
285.274	-3.93
285.489	71.85
285.704	69.8
285.919	-14.17
286.134	-57.17
286.349	39.08
286.564	-53.08
286.779	28.84
286.995	41.13
287.21	16.55
287.425	55.47
287.64	-16.21
287.855	41.13
288.07	-8.02
288.285	92.33
288.5	2.22
288.715	12.46
288.93	24.75
289.145	-1.88
289.36	6.31
289.575	41.13
289.79	55.47
290.004	-3.93
290.219	26.79
290.434	-40.79
290.649	20.65
290.864	-8.02
291.079	4.27
291.294	12.46
291.509	2.22
291.724	96.43
291.938	-30.55
292.153	82.09
292.368	-20.31
292.583	30.89
292.798	34.99
293.012	-36.69
293.227	39.08
293.442	-32.6
293.657	59.56
293.871	2.22
294.086	-8.02
294.301	55.47
294.516	86.19
294.73	65.71
294.945	14.51
295.16	75.95
295.374	18.6
295.589	67.75
295.804	57.51
296.018	8.36
296.233	-55.12
296.447	43.18
296.662	41.13
296.877	108.71
297.091	-55.12
297.306	84.14
297.52	-5.97
297.735	28.84
297.949	51.37
298.164	12.46
298.378	-8.02
298.593	-32.6
298.807	-24.4
299.022	16.55
299.236	73.9
299.451	0.17
299.665	32.94
299.88	53.42
300.094	-5.97
300.309	69.8
300.523	34.99
300.737	69.8
300.952	-12.12
301.166	20.65
301.381	-26.45
301.595	65.71
301.809	14.51
302.024	90.28
302.238	8.36
302.452	32.94
302.667	114.86
302.881	8.36
303.095	28.84
303.309	43.18
303.524	57.51
303.738	-48.98
303.952	-77.65
304.166	67.75
304.381	-48.98
304.595	77.99
304.809	-24.4
305.023	43.18
305.237	8.36
305.452	-8.02
305.666	65.71
305.88	53.42
306.094	6.31
306.308	26.79
306.522	10.41
306.736	-8.02
306.95	59.56
307.164	26.79
307.379	65.71
307.593	59.56
307.807	20.65
308.021	18.6
308.235	49.32
308.449	10.41
308.663	57.51
308.877	77.99
309.091	55.47
309.305	75.95
309.519	10.41
309.733	53.42
309.947	8.36
310.161	41.13
310.374	24.75
310.588	20.65
310.802	47.27
311.016	26.79
311.23	43.18
311.444	20.65
311.658	24.75
311.872	16.55
312.085	49.32
312.299	55.47
312.513	-8.02
312.727	47.27
312.941	-24.4
313.154	-38.74
313.368	-40.79
313.582	45.23
313.796	49.32
314.009	41.13
314.223	18.6
314.437	49.32
314.651	-91.99
314.864	10.41
315.078	-36.69
315.292	34.99
315.505	-16.21
315.719	41.13
315.933	-8.02
316.146	34.99
316.36	10.41
316.573	-26.45
316.787	2.22
317.001	22.7
317.214	16.55
317.428	-22.36
317.641	-32.6
317.855	18.6
318.068	-24.4
318.282	6.31
318.495	26.79
318.709	-14.17
318.922	49.32
319.136	32.94
319.349	0.17
319.563	75.95
319.776	-38.74
319.99	-24.4
320.203	30.89
320.417	0.17
320.63	10.41
320.843	121
321.057	41.13
321.27	-48.98
321.483	61.61
321.697	2.22
321.91	2.22
322.124	-24.4
322.337	16.55
322.55	20.65
322.763	63.66
322.977	10.41
323.19	32.94
323.403	49.32
323.617	4.27
323.83	41.13
324.043	41.13
324.256	34.99
324.469	-24.4
324.683	0.17
324.896	69.8
325.109	0.17
325.322	55.47
325.535	77.99
325.748	147.62
325.962	49.32
326.175	123.05
326.388	82.09
326.601	41.13
326.814	51.37
327.027	-32.6
327.24	100.52
327.453	-16.21
327.666	-46.93
327.879	73.9
328.092	41.13
328.305	10.41
328.518	20.65
328.731	-12.12
328.944	43.18
329.157	37.03
329.37	-5.97
329.583	14.51
329.796	-16.21
330.009	28.84
330.222	59.56
330.435	51.37
330.648	18.6
330.861	61.61
331.073	49.32
331.286	71.85
331.499	49.32
331.712	-14.17
331.925	-14.17
332.138	43.18
332.35	43.18
332.563	24.75
332.776	67.75
332.989	-5.97
333.202	0.17
333.414	-5.97
333.627	94.38
333.84	37.03
334.053	65.71
334.265	14.51
334.478	28.84
334.691	102.57
334.903	12.46
335.116	-8.02
335.329	65.71
335.541	4.27
335.754	114.86
335.966	20.65
336.179	0.17
336.392	-16.21
336.604	92.33
336.817	28.84
337.029	22.7
337.242	-32.6
337.454	10.41
337.667	37.03
337.88	118.95
338.092	-16.21
338.305	59.56
338.517	41.13
338.729	10.41
338.942	49.32
339.154	-89.94
339.367	-38.74
339.579	16.55
339.792	2.22
340.004	8.36
340.217	34.99
340.429	14.51
340.641	10.41
340.854	14.51
341.066	41.13
341.278	90.28
341.491	18.6
341.703	43.18
341.915	-46.93
342.128	6.31
342.34	-40.79
342.552	16.55
342.764	-18.26
342.977	73.9
343.189	28.84
343.401	69.8
343.613	-14.17
343.826	121
344.038	-30.55
344.25	53.42
344.462	0.17
344.674	67.75
344.886	-53.08
345.099	-16.21
345.311	94.38
345.523	18.6
345.735	18.6
345.947	73.9
346.159	-14.17
346.371	16.55
346.583	49.32
346.795	41.13
347.007	-5.97
347.219	-16.21
347.431	49.32
347.643	51.37
347.855	-20.31
348.067	16.55
348.279	51.37
348.491	49.32
348.703	-5.97
348.915	14.51
349.127	32.94
349.339	114.86
349.551	37.03
349.763	0.17
349.975	26.79
350.187	73.9
350.399	77.99
350.61	0.17
350.822	37.03
351.034	51.37
351.246	65.71
351.458	24.75
351.669	34.99
351.881	104.62
352.093	24.75
352.305	6.31
352.517	41.13
352.728	84.14
352.94	-3.93
353.152	-20.31
353.363	24.75
353.575	51.37
353.787	24.75
353.999	-30.55
354.21	51.37
354.422	51.37
354.633	32.94
354.845	90.28
355.057	-16.21
355.268	-3.93
355.48	20.65
355.692	-14.17
355.903	61.61
356.115	-1.88
356.326	-73.56
356.538	28.84
356.749	84.14
356.961	94.38
357.172	65.71
357.384	26.79
357.595	155.82
357.807	-5.97
358.018	80.04
358.23	53.42
358.441	22.7
358.653	112.81
358.864	49.32
359.075	-81.75
359.287	168.1
359.498	32.94
359.709	12.46
359.921	-5.97
360.132	26.79
360.344	24.75
360.555	-28.5
360.766	10.41
360.977	41.13
361.189	34.99
361.4	8.36
361.611	34.99
361.823	57.51
362.034	49.32
362.245	-16.21
362.456	94.38
362.667	-53.08
362.879	43.18
363.09	51.37
363.301	24.75
363.512	90.28
363.723	67.75
363.935	4.27
364.146	-34.64
364.357	16.55
364.568	45.23
364.779	16.55
364.99	32.94
365.201	34.99
365.412	131.24
365.623	26.79
365.834	-24.4
366.045	45.23
366.256	108.71
366.467	102.57
366.678	20.65
366.889	34.99
367.1	24.75
367.311	71.85
367.522	123.05
367.733	53.42
367.944	16.55
368.155	24.75
368.366	147.62
368.577	39.08
368.788	118.95
368.999	57.51
369.209	51.37
369.42	32.94
369.631	88.23
369.842	26.79
370.053	18.6
370.264	-20.31
370.474	34.99
370.685	30.89
370.896	86.19
371.107	75.95
371.317	6.31
371.528	24.75
371.739	32.94
371.95	55.47
372.16	145.58
372.371	-3.93
372.582	45.23
372.792	-8.02
373.003	51.37
373.214	4.27
373.424	20.65
373.635	-63.32
373.846	59.56
374.056	20.65
374.267	75.95
374.477	32.94
374.688	4.27
374.898	18.6
375.109	86.19
375.319	53.42
375.53	12.46
375.74	4.27
375.951	73.9
376.161	37.03
376.372	12.46
376.582	20.65
376.793	-5.97
377.003	37.03
377.214	92.33
377.424	65.71
377.635	94.38
377.845	-44.88
378.055	67.75
378.266	-28.5
378.476	-5.97
378.686	6.31
378.897	65.71
379.107	77.99
379.317	77.99
379.528	51.37
379.738	30.89
379.948	24.75
380.158	45.23
380.369	32.94
380.579	75.95
380.789	34.99
380.999	73.9
381.21	22.7
381.42	57.51
381.63	-1.88
381.84	6.31
382.05	86.19
382.261	43.18
382.471	39.08
382.681	16.55
382.891	47.27
383.101	10.41
383.311	53.42
383.521	18.6
383.731	49.32
383.941	-16.21
384.151	-42.84
384.361	65.71
384.571	0.17
384.781	92.33
384.991	90.28
385.201	73.9
385.411	32.94
385.621	34.99
385.831	8.36
386.041	49.32
386.251	41.13
386.461	8.36
386.671	45.23
386.881	67.75
387.091	20.65
387.301	123.05
387.511	49.32
387.72	43.18
387.93	43.18
388.14	-16.21
388.35	0.17
388.56	71.85
388.769	18.6
388.979	41.13
389.189	24.75
389.399	73.9
389.609	32.94
389.818	59.56
390.028	34.99
390.238	53.42
390.447	18.6
390.657	34.99
390.867	61.61
391.076	2.22
391.286	12.46
391.496	90.28
391.705	22.7
391.915	123.05
392.125	18.6
392.334	71.85
392.544	75.95
392.753	30.89
392.963	4.27
393.172	37.03
393.382	71.85
393.591	84.14
393.801	-40.79
394.01	32.94
394.22	14.51
394.429	-28.5
394.639	24.75
394.848	24.75
395.058	49.32
395.267	77.99
395.477	84.14
395.686	45.23
395.895	147.62
396.105	20.65
396.314	41.13
396.524	67.75
396.733	53.42
396.942	61.61
397.152	82.09
397.361	61.61
397.57	47.27
397.78	151.72
397.989	90.28
398.198	139.43
398.407	39.08
398.617	20.65
398.826	49.32
399.035	37.03
399.244	123.05
399.453	20.65
399.663	43.18
399.872	90.28
400.081	28.84
400.29	84.14
400.499	67.75
400.708	108.71
400.917	8.36
401.127	92.33
401.336	110.76
401.545	110.76
401.754	57.51
401.963	24.75
402.172	26.79
402.381	59.56
402.59	145.58
402.799	80.04
403.008	129.19
403.217	59.56
403.426	84.14
403.635	106.67
403.844	82.09
404.053	116.9
404.262	82.09
404.471	155.82
404.68	135.34
404.888	166.06
405.097	143.53
405.306	139.43
405.515	139.43
405.724	149.67
405.933	102.57
406.142	213.16
406.35	184.49
406.559	59.56
406.768	123.05
406.977	157.86
407.185	198.82
407.394	125.1
407.603	155.82
407.812	100.52
408.02	151.72
408.229	155.82
408.438	233.64
408.646	217.26
408.855	188.58
409.064	168.1
409.272	270.5
409.481	260.26
409.69	274.6
409.898	172.2
410.107	192.68
410.315	256.17
410.524	245.93
410.733	260.26
410.941	213.16
411.15	223.4
411.358	270.5
411.567	288.93
411.775	299.17
411.984	338.09
412.192	387.24
412.401	352.42
412.609	356.52
412.818	405.67
413.026	471.2
413.234	358.57
413.443	397.48
413.651	409.76
413.86	385.19
414.068	417.96
414.276	450.72
414.485	483.49
414.693	551.07
414.901	463.01
415.11	493.73
415.318	487.59
415.526	528.55
415.734	639.14
415.943	575.65
416.151	643.23
416.359	647.33
416.567	725.15
416.776	610.47
416.984	741.54
417.192	753.82
417.4	733.34
417.608	747.68
417.817	802.97
418.025	833.69
418.233	942.24
418.441	821.41
418.649	839.84
418.857	983.2
419.065	1048.73
419.273	927.9
419.481	1061.02
419.689	1044.63
419.897	1249.43
420.105	1194.14
420.313	1208.47
420.521	1255.58
420.729	1261.72
420.937	1294.49
421.145	1302.68
421.353	1380.5
421.561	1378.45
421.769	1482.9
421.977	1558.67
422.185	1470.61
422.393	1749.14
422.601	1708.18
422.809	1779.86
423.017	1728.66
423.224	1779.86
423.432	1855.63
423.64	1935.5
423.848	2015.37
424.056	1927.31
424.263	2146.44
424.471	2179.21
424.679	2166.92
424.887	2244.74
425.094	2306.18
425.302	2414.73
425.51	2429.06
425.718	2515.08
425.925	2578.56
426.133	2670.72
426.341	2887.81
426.548	2918.53
426.756	2949.25
426.964	3039.36
427.171	3166.33
427.379	3268.73
427.586	3195
427.794	3432.57
428.001	3526.77
428.209	3649.65
428.417	3680.37
428.624	3862.64
428.832	3803.25
429.039	3876.98
429.247	3903.6
429.454	4214.89
429.662	4417.64
429.869	4022.38
430.076	4544.61
430.284	4292.71
430.491	4581.48
430.699	4767.84
430.906	4878.43
431.114	4925.54
431.321	5056.61
431.528	5367.9
431.736	5496.92
431.943	5941.33
432.15	5587.03
432.358	5662.8
432.565	5886.03
432.772	5908.56
432.979	6217.8
433.187	6172.75
433.394	6318.15
433.601	6803.52
433.808	6852.67
434.016	6860.87
434.223	7077.95
434.43	7452.73
434.637	7430.2
434.844	7798.84
435.052	8065.07
435.259	7909.43
435.466	7970.87
435.673	7847.99
435.88	8560.68
436.087	8851.49
436.294	8847.4
436.501	8644.65
436.708	8712.23
436.915	9160.73
437.122	9420.83
437.329	9496.6
437.537	9574.42
437.743	10020.88
437.95	9900.05
438.157	10246.16
438.364	10831.88
438.571	10514.44
438.778	10579.98
438.985	11649.02
439.192	11042.82
439.399	11579.39
439.606	11212.8
439.813	11905.01
440.02	12814.31
440.227	12634.09
440.433	12361.71
440.64	12701.67
440.847	12722.15
441.054	12969.96
441.261	13895.64
441.467	13629.4
441.674	13893.59
441.881	14385.1
442.088	14385.1
442.294	14323.66
442.501	14655.44
442.708	14954.44
442.914	15540.16
443.121	16273.33
443.328	15583.16
443.534	16813.99
443.741	16410.54
443.948	16089.01
444.154	17252.26
444.361	17381.28
444.568	17145.77
444.774	17231.78
444.981	17381.28
445.187	18067.35
445.394	18675.6
445.6	18450.32
445.807	20182.9
446.013	19509.12
446.22	19857.28
446.426	20531.06
446.633	20420.47
446.839	21520.23
447.046	20721.52
447.252	21843.81
447.459	21614.43
447.665	21466.98
447.871	22343.51
448.078	23377.73
448.284	22376.28
448.491	23019.34
448.697	23600.96
448.903	24033.08
449.11	24485.69
449.316	23932.73
449.522	24203.07
449.728	25118.51
449.935	25460.52
450.141	25181.99
450.347	25929.5
450.553	24993.58
450.76	25327.4
450.966	26519.32
451.172	26019.61
451.378	26660.63
451.584	26234.65
451.791	26328.86
451.997	26691.35
452.203	27266.83
452.409	27252.49
452.615	26949.39
452.821	25861.92
453.027	25599.78
453.233	26840.85
453.44	25902.88
453.646	26238.75
453.852	26634
454.058	26887.95
454.264	26277.66
454.47	26781.46
454.676	25685.79
454.882	26924.82
455.088	24487.73
455.294	25050.92
455.5	25270.06
455.705	25603.88
455.911	24782.64
456.117	24366.9
456.323	23918.4
456.529	22290.26
456.735	24076.09
456.941	22853.45
457.147	22947.66
457.352	22019.93
457.558	21974.88
457.764	21825.37
457.97	21462.88
458.176	20911.98
458.381	20995.95
458.587	19666.81
458.793	19914.62
458.999	19033.99
459.204	20117.37
459.41	19677.05
459.616	18782.09
459.821	18784.14
460.027	18542.48
460.233	18112.41
460.438	17317.79
460.644	17629.09
460.85	16621.49
461.055	16570.29
461.261	16422.83
461.466	14962.63
461.672	14981.06
461.878	15376.32
462.083	14528.46
462.289	14397.39
462.494	14247.89
462.7	13610.97
462.905	13447.13
463.111	13590.49
463.316	13682.65
463.522	13762.52
463.727	13471.71
463.932	13592.54
464.138	13262.82
464.343	13529.05
464.549	12943.33
464.754	13320.16
464.959	13297.63
465.165	13166.56
465.37	12632.04
465.575	12310.51
465.781	12898.28
465.986	12564.46
466.191	12236.78
466.397	12054.51
466.602	11554.81
466.807	12015.6
467.012	11870.2
467.218	11765.75
467.423	11831.29
467.628	11745.27
467.833	12279.79
468.038	11821.05
468.244	11450.36
468.449	12038.13
468.654	11548.67
468.859	11739.13
469.064	11431.93
469.269	10903.56
469.474	10997.76
469.679	11358.21
469.885	10887.17
470.09	10979.33
470.295	11134.98
470.5	10801.16
470.705	10801.16
470.91	10774.53
471.115	10541.07
471.32	10600.46
471.525	10690.57
471.73	10227.73
471.935	10260.49
472.139	9859.09
472.344	10035.22
472.549	10141.71
472.754	9830.42
472.959	9775.13
473.164	9429.02
473.369	9410.59
473.574	9734.17
473.778	9875.48
473.983	9601.05
474.188	9666.58
474.393	9199.65
474.598	9113.63
474.802	9052.19
475.007	8966.18
475.212	9080.86
475.417	8732.71
475.621	8896.55
475.826	8908.83
476.031	8798.24
476.235	8382.51
476.44	8792.1
476.645	8269.87
476.849	8302.64
477.054	8202.29
477.259	8300.59
477.463	8212.53
477.668	7890.99
477.872	8151.09
478.077	7682.1
478.282	7800.88
478.486	7678.01
478.691	7731.25
478.895	7551.03
479.1	7548.98
479.304	7614.52
479.509	7362.62
479.713	7452.73
479.918	7063.61
480.122	7143.49
480.326	7340.09
480.531	7327.8
480.735	7096.38
480.94	7200.83
481.144	7356.47
481.348	6971.46
481.553	7168.06
481.757	6772.8
481.961	7180.35
482.166	7239.74
482.37	7215.16
482.574	6938.69
482.778	6920.26
482.983	7028.8
483.187	6899.78
483.391	7100.48
483.595	7088.19
483.8	7012.42
484.004	6877.25
484.208	7176.25
484.412	6993.98
484.616	7073.85
484.821	6977.6
485.025	6907.97
485.229	6918.21
485.433	6783.04
485.637	7036.99
485.841	6930.5
486.045	7045.18
486.249	6832.19
486.453	6869.06
486.657	6993.98
486.861	6948.93
487.065	6766.66
487.269	6807.62
487.473	6979.65
487.677	6969.41
487.881	7188.54
488.085	6834.24
488.289	7026.75
488.493	6963.26
488.697	7127.1
488.901	7094.33
489.105	6971.46
489.309	7114.81
489.512	7170.11
489.716	7049.28
489.92	7012.42
490.124	7028.8
490.328	7260.22
490.531	7016.51
490.735	7245.88
490.939	7327.8
491.143	7159.87
491.346	7200.83
491.55	7323.71
491.754	7147.58
491.958	7252.03
492.161	7338.04
492.365	7393.34
492.569	7348.28
492.772	7245.88
492.976	7399.48
493.18	7616.57
493.383	7471.16
493.587	7546.94
493.79	7655.48
493.994	7520.31
494.197	7600.18
494.401	7692.34
494.605	7751.73
494.808	7954.48
495.012	7743.54
495.215	7901.23
495.419	8011.82
495.622	7782.45
495.825	8126.51
496.029	8218.67
496.232	8052.78
496.436	8144.94
496.639	8359.98
496.843	8388.65
497.046	8398.89
497.249	8632.36
497.453	8552.49
497.656	8673.32
497.859	8568.87
498.063	8929.31
498.266	9017.38
498.469	9127.97
498.673	9173.02
498.876	9127.97
499.079	9338.91
499.282	9162.78
499.485	9547.8
499.689	9611.29
499.892	9744.41
500.095	9656.34
500.298	9760.79
500.501	9830.42
500.705	10117.14
500.908	10258.45
501.111	10475.53
501.314	10348.56
501.517	10489.87
501.72	10602.5
501.923	10577.93
502.126	10825.73
502.329	11003.91
502.532	10985.48
502.735	11112.45
502.938	11010.05
503.141	11319.29
503.344	11517.95
503.547	11538.43
503.75	11798.52
503.953	12001.27
504.156	11962.36
504.359	12023.8
504.562	12247.02
504.765	12511.21
504.968	12537.84
505.17	12476.4
505.373	12871.65
505.576	12931.05
505.779	13004.77
505.982	13131.75
506.185	13508.57
506.387	13297.63
506.59	13537.24
506.793	13690.84
506.996	13924.31
507.198	14239.7
507.401	14065.62
507.604	14397.39
507.807	14491.6
508.009	14669.77
508.212	14680.01
508.415	14866.38
508.617	15065.03
508.82	15050.69
509.022	14925.77
509.225	15564.73
509.428	15480.77
509.63	15779.77
509.833	15787.96
510.035	16553.9
510.238	16007.09
510.44	16426.93
510.643	16703.4
510.845	16779.18
511.048	16506.8
511.25	16975.78
511.453	17051.56
511.655	17524.64
511.858	17442.72
512.06	17414.05
512.262	17586.08
512.465	17756.06
512.667	18165.65
512.87	18214.8
513.072	18173.85
513.274	18800.52
513.477	18712.46
513.679	18933.64
513.881	19173.25
514.084	19081.1
514.286	19249.03
514.488	19634.05
514.69	20295.54
514.893	19900.28
515.095	19842.94
515.297	20178.81
515.499	20522.87
515.701	20451.19
515.904	20703.09
516.106	21002.09
516.308	21215.08
516.51	21163.88
516.712	21546.85
516.914	21489.51
517.116	22202.2
517.318	21983.07
517.52	22058.84
517.722	22214.49
517.925	22376.28
518.127	22873.93
518.329	22923.08
518.531	22929.23
518.733	23617.35
518.935	23484.23
519.136	23420.74
519.338	23932.73
519.54	24115
519.742	24215.35
519.944	24510.26
520.146	24663.86
520.348	24979.25
520.55	25063.21
520.752	25165.61
520.954	25130.8
521.155	25368.36
521.357	25618.21
521.559	25812.77
521.761	26214.17
521.963	26138.4
522.164	26124.06
522.366	26392.34
522.568	26810.13
522.77	26918.67
522.971	27481.86
523.173	27191.05
523.375	27287.31
523.576	27260.68
523.778	27549.45
523.98	27903.74
524.181	27963.14
524.383	27803.39
524.584	28301.05
524.786	28053.25
524.988	28299
525.189	28454.65
525.391	28815.09
525.592	29013.74
525.794	29064.94
525.995	29011.7
526.197	29150.96
526.398	29198.06
526.6	29578.98
526.801	29435.63
527.003	29654.76
527.204	29968.1
527.406	30185.18
527.607	29843.17
527.808	30193.37
528.01	29757.16
528.211	30056.16
528.412	30914.26
528.614	30475.99
528.815	30557.91
529.016	30863.06
529.218	30592.73
529.419	30578.39
529.62	30871.25
529.822	30480.09
530.023	30992.08
530.224	31033.04
530.425	30869.2
530.626	30787.28
530.828	30785.24
531.029	31391.44
531.23	31043.28
531.431	31250.13
531.632	31356.62
531.833	31299.28
532.035	31057.62
532.236	31434.44
532.437	31405.77
532.638	31096.53
532.839	31532.75
533.04	31325.9
533.241	31151.82
533.442	31987.39
533.643	31778.5
533.844	31653.58
534.045	31547.08
534.246	31291.09
534.447	31422.16
534.648	31569.61
534.849	31706.82
535.05	31250.13
535.251	31573.7
535.451	31334.09
535.652	31741.64
535.853	31530.7
536.054	31796.93
536.255	31676.1
536.456	31659.72
536.657	31946.44
536.857	31338.19
537.058	31364.81
537.259	32136.9
537.46	31805.13
537.66	31221.45
537.861	31575.75
538.062	31712.97
538.263	31704.77
538.463	31551.18
538.664	31368.91
538.865	31719.11
539.065	31393.48
539.266	31547.08
539.466	31360.72
539.667	30957.27
539.868	32063.17
540.068	31364.81
540.269	31373
540.469	31430.35
540.67	31661.77
540.87	31579.85
541.071	31254.22
541.271	31729.35
541.472	31665.86
541.672	31233.74
541.873	31346.38
542.073	31231.69
542.274	31579.85
542.474	31143.63
542.675	31047.38
542.875	31545.03
543.075	31409.87
543.276	31327.95
543.476	31526.6
543.676	31499.98
543.877	31469.26
544.077	31536.84
544.277	31434.44
544.478	31098.58
544.678	31330
544.878	31532.75
545.078	31291.09
545.279	31045.33
545.479	31092.43
545.679	31350.48
545.879	31233.74
546.079	31198.93
546.28	31260.37
546.48	31078.1
546.68	31291.09
546.88	31708.87
547.08	31129.3
547.28	31213.26
547.48	31135.44
547.68	31221.45
547.88	31221.45
548.081	31399.63
548.281	31041.23
548.481	31176.4
548.681	31280.85
548.881	31014.61
549.081	31010.51
549.28	30922.45
549.48	31373
549.68	31076.05
549.88	31471.31
550.08	30908.12
550.28	31172.3
550.48	30936.79
550.68	31260.37
550.88	31000.27
551.08	30906.07
551.279	31074
551.479	31018.71
551.679	31246.03
551.879	30725.85
552.079	31174.35
552.278	30891.73
552.478	31000.27
552.678	31180.49
552.878	31194.83
553.077	31149.78
553.277	31272.65
553.477	31309.52
553.676	30770.9
553.876	30609.11
554.076	30553.82
554.275	30576.34
554.475	30410.46
554.674	30574.3
554.874	30529.24
555.074	30602.97
555.273	30592.73
555.473	30772.95
555.672	30496.47
555.872	30826.2
556.071	30684.89
556.271	30930.64
556.47	30424.79
556.67	30293.72
556.869	30308.06
557.068	30418.65
557.268	30256.86
557.467	30551.77
557.667	30199.52
557.866	30527.19
558.065	30766.81
558.265	30029.54
558.464	30301.92
558.663	30191.33
558.863	29959.91
559.062	30619.35
559.261	30078.69
559.461	29990.63
559.66	29839.08
559.859	30197.47
560.058	29980.39
560.258	29943.52
560.457	29665
560.656	30254.81
560.855	29812.45
561.054	29548.26
561.253	29333.23
561.453	29775.59
561.652	29853.41
561.851	29740.77
562.05	29757.16
562.249	29372.14
562.448	29757.16
562.647	29409
562.846	29374.19
563.045	29554.41
563.244	29159.15
563.443	29665
563.642	29007.6
563.841	29089.52
564.04	29236.97
564.239	29054.7
564.438	29017.84
564.637	29079.28
564.836	29165.29
565.035	28741.36
565.234	28716.79
565.432	29032.18
565.631	28757.75
565.83	29099.76
566.029	28622.58
566.228	28350.2
566.427	28561.14
566.625	28282.62
566.824	27944.7
567.023	28327.67
567.222	28053.25
567.42	28409.59
567.619	28120.83
567.818	28088.06
568.016	28071.68
568.215	28272.38
568.414	27703.04
568.612	27997.95
568.811	27705.09
569.01	27965.18
569.208	27621.13
569.407	27674.37
569.605	27168.52
569.804	27666.18
570.002	27389.7
570.201	27569.93
570.4	27465.48
570.598	27428.62
570.797	27105.04
570.995	27385.61
571.193	26961.68
571.392	27299.59
571.59	27016.97
571.789	26937.1
571.987	26763.03
572.186	26603.28
572.384	26853.14
572.582	26898.19
572.781	26867.47
572.979	26591
573.177	26539.8
573.376	26363.67
573.574	26300.19
573.772	26416.92
573.971	26189.6
574.169	26177.31
574.367	26021.66
574.565	26148.64
574.763	26197.79
574.962	25866.02
575.16	26015.52
575.358	25653.03
575.556	25487.14
575.754	26122.01
575.952	25505.57
576.151	25691.94
576.349	25575.2
576.547	25401.13
576.745	25470.76
576.943	25554.72
577.141	25169.71
577.339	25220.91
577.537	25204.52
577.735	25194.28
577.933	25038.64
578.131	25208.62
578.329	24948.53
578.527	24776.5
578.725	24678.19
578.923	24676.15
579.121	24614.71
579.319	24577.84
579.516	25130.8
579.714	24762.16
579.912	24626.99
580.11	24403.77
580.308	24313.66
580.506	24504.12
580.704	24026.94
580.901	24209.21
581.099	24452.92
581.297	24084.28
581.495	24006.46
581.692	24254.26
581.89	23846.72
582.088	24098.62
582.285	23842.62
582.483	23899.97
582.681	23369.54
582.878	23289.67
583.076	23525.19
583.274	23742.27
583.471	23252.81
583.669	23482.18
583.866	23299.91
584.064	23353.16
584.262	22935.37
584.459	22947.66
584.657	23232.33
584.854	23050.06
585.052	22404.95
585.249	22814.54
585.447	22972.24
585.644	22751.06
585.841	22796.11
586.039	23035.72
586.236	22435.67
586.434	22548.31
586.631	22527.83
586.828	22382.42
587.026	22404.95
587.223	22462.29
587.42	22130.52
587.618	22234.97
587.815	22118.23
588.012	21874.52
588.21	21985.12
588.407	22183.77
588.604	21903.2
588.801	21694.3
588.999	21792.61
589.196	21657.44
589.393	21679.97
589.59	21669.73
589.787	21600.1
589.984	21391.2
590.182	21583.71
590.379	21759.84
590.576	21364.58
590.773	21419.88
590.97	21299.05
591.167	21303.14
591.364	20942.7
591.561	21213.03
591.758	20795.25
591.955	21129.06
592.152	20856.68
592.349	20574.06
592.546	20789.1
592.743	20868.97
592.94	20539.25
593.137	20572.02
593.334	20832.11
593.531	20660.08
593.727	20479.86
593.924	20359.03
594.121	20395.89
594.318	20340.6
594.515	20092.79
594.712	20252.53
594.908	19818.36
595.105	20041.59
595.302	20049.78
595.499	20045.69
595.696	20037.5
595.892	19638.14
596.089	19703.68
596.286	19867.52
596.482	19648.38
596.679	19619.71
596.876	19365.76
597.072	19634.05
597.269	19500.93
597.466	19324.8
597.662	19048.33
597.859	19212.17
598.055	19070.86
598.252	19173.25
598.448	19244.93
598.645	19117.96
598.841	18904.97
599.038	18956.17
599.234	18962.31
599.431	18794.38
599.627	18677.65
599.824	18907.02
600.02	18622.35
600.217	18548.62
600.413	18505.62
600.609	18503.57
600.806	18327.44
601.002	18306.96
601.198	17985.43
601.395	18081.69
601.591	18034.58
601.787	18427.79
601.984	18282.39
602.18	18294.68
602.376	17899.42
602.572	18048.92
602.769	17956.76
602.965	17618.85
603.161	17794.97
603.357	17622.94
603.553	17438.62
603.75	17860.51
603.946	17473.44
604.142	17551.26
604.338	17135.53
604.534	17579.93
604.73	17459.1
604.926	17219.49
605.122	17412
605.318	17166.24
605.514	17029.03
605.71	17348.51
605.906	17153.96
606.102	17000.36
606.298	16983.98
606.494	16988.07
606.69	16912.3
606.886	16881.58
607.082	16621.49
607.278	16883.63
607.474	16588.72
607.67	16818.09
607.866	16488.37
608.062	16750.51
608.257	16621.49
608.453	16664.49
608.649	16459.7
608.845	16396.21
609.041	16437.17
609.236	16461.74
609.432	16400.3
609.628	16555.95
609.824	16246.71
610.019	16162.74
610.215	16287.67
610.411	16367.54
610.606	16093.11
610.802	16240.56
610.998	16109.49
611.193	16181.17
611.389	15988.66
611.584	15982.52
611.78	15994.81
611.976	15628.22
612.171	15869.88
612.367	16103.35
612.562	15753.15
612.758	15790.01
612.953	15517.63
613.149	15605.69
613.344	15613.88
613.539	15734.71
613.735	15650.75
613.93	15888.31
614.126	15579.07
614.321	15564.73
614.517	15622.08
614.712	15648.7
614.907	15615.93
615.103	15644.6
615.298	15353.79
615.493	15765.43
615.688	15353.79
615.884	15402.94
616.079	15427.52
616.274	15394.75
616.47	15374.27
616.665	15232.96
616.86	15081.41
617.055	15075.27
617.25	15087.56
617.445	15286.21
617.641	14864.33
617.836	15067.08
618.031	15085.51
618.226	15038.41
618.421	15015.88
618.616	14841.8
618.811	14528.46
619.006	14847.94
619.201	14573.52
619.396	14849.99
619.591	14620.62
619.786	14645.2
619.981	14528.46
620.176	14501.84
620.371	14489.55
620.566	14272.46
620.761	14213.07
620.956	14272.46
621.151	14278.61
621.346	14168.02
621.541	13905.88
621.735	14032.85
621.93	13803.48
622.125	13979.61
622.32	13610.97
622.515	13672.41
622.709	13463.52
622.904	13719.51
623.099	13510.62
623.294	13203.43
623.488	13260.77
623.683	13318.11
623.878	13094.88
624.072	13264.86
624.267	13189.09
624.462	12828.65
624.656	12900.33
624.851	12902.37
625.046	12832.74
625.24	12804.07
625.435	12378.09
625.629	12634.09
625.824	12560.36
626.018	12449.77
626.213	12281.84
626.407	12572.65
626.602	12505.07
626.796	12181.49
626.991	12234.74
627.185	12017.65
627.38	12113.91
627.574	11913.2
627.768	11911.16
627.963	11872.25
628.157	11534.33
628.352	11769.85
628.546	11577.34
628.74	11780.09
628.935	11567.1
629.129	11571.19
629.323	11442.17
629.517	11266.05
629.712	11241.47
629.906	11204.61
630.1	11083.78
630.294	11206.66
630.489	11036.67
630.683	11157.5
630.877	10821.64
631.071	10622.98
631.265	10903.56
631.459	10704.9
631.653	10788.87
631.848	10631.18
632.042	10571.79
632.236	10682.38
632.43	10647.56
632.624	10358.8
632.818	10430.48
633.012	10420.24
633.206	10274.83
633.4	10338.32
633.594	10139.66
633.788	10074.13
633.982	10108.94
634.176	10092.56
634.369	9947.15
634.563	9916.44
634.757	10059.79
634.951	9969.68
635.145	9760.79
635.339	9873.43
635.533	9775.13
635.726	9795.61
635.92	9394.2
636.114	9644.06
636.308	9568.28
636.501	9531.42
636.695	9259.04
636.889	9388.06
637.083	9191.45
637.276	9271.33
637.47	9240.61
637.664	9168.93
637.857	9130.02
638.051	8998.95
638.244	8974.37
638.438	8955.94
638.632	8994.85
638.825	8720.42
639.019	8726.57
639.212	8677.41
639.406	8886.31
639.599	8683.56
639.793	8628.26
639.986	8636.45
640.18	8644.65
640.373	8595.5
640.567	8495.15
640.76	8288.3
640.954	8517.67
641.147	8314.92
641.34	8331.31
641.534	8474.67
641.727	8257.58
641.92	8413.23
642.114	8233.01
642.307	7905.33
642.5	8038.45
642.694	8077.36
642.887	7929.91
643.08	8020.02
643.273	7790.64
643.467	7833.65
643.66	7721.01
643.853	7876.66
644.046	7618.61
644.239	7735.35
644.432	7534.65
644.626	7540.79
644.819	7635
645.012	7528.5
645.205	7495.74
645.398	7528.5
645.591	7381.05
645.784	7366.71
645.977	7237.69
646.17	7297.08
646.363	7342.14
646.556	7209.02
646.749	7211.07
646.942	7120.96
647.135	7194.68
647.328	7022.66
647.521	7080
647.714	7061.57
647.907	7032.9
648.099	6897.73
648.292	6940.74
648.485	6867.01
648.678	6850.63
648.871	6662.21
649.064	6750.28
649.256	6701.12
649.449	6727.75
649.642	6604.87
649.835	6408.26
650.027	6533.19
650.22	6551.62
650.413	6338.63
650.605	6447.18
650.798	6377.55
650.991	6324.3
651.183	6307.91
651.376	6234.19
651.568	6275.15
651.761	6275.15
651.954	6228.04
652.146	6185.04
652.339	6195.28
652.531	6168.65
652.724	6092.88
652.916	5933.14
653.109	5988.43
653.301	6062.16
653.494	6082.64
653.686	6000.72
653.879	6017.1
654.071	5916.75
654.263	5826.64
654.456	5906.51
654.648	5881.94
654.84	5779.54
655.033	5679.19
655.225	5726.29
655.417	5644.37
655.61	5660.76
655.802	5668.95
655.994	5638.23
656.186	5515.35
656.379	5595.22
656.571	5472.34
656.763	5460.06
656.955	5365.85
657.148	5374.04
657.34	5361.75
657.532	5154.91
657.724	5394.52
657.916	5400.66
658.108	5255.26
658.3	5195.87
658.492	5288.03
658.684	5095.52
658.876	5177.44
659.068	5189.72
659.26	5017.69
659.452	5019.74
659.644	5079.13
659.836	5107.8
660.028	4921.44
660.22	5087.33
660.412	4915.3
660.604	5029.98
660.796	4948.06
660.988	4866.14
661.18	4890.72
661.372	4792.42
661.563	5009.5
661.755	4751.46
661.947	4874.34
662.139	4692.07
662.331	4726.88
662.522	4552.81
662.714	4632.68
662.906	4825.19
663.097	4636.77
663.289	4526.18
663.481	4481.13
663.673	4501.61
663.864	4614.24
664.056	4431.98
664.247	4423.78
664.439	4472.93
664.631	4384.87
664.822	4407.4
665.014	4413.54
665.205	4477.03
665.397	4270.19
665.588	4247.66
665.78	4284.52
665.971	4382.82
666.163	4391.02
666.354	4317.29
666.546	4319.34
666.737	4163.69
666.929	4149.36
667.12	4251.75
667.311	4315.24
667.503	4161.64
667.694	4051.05
667.885	4112.49
668.077	4153.45
668.268	3979.37
668.459	4079.72
668.651	3985.52
668.842	4059.24
669.033	4059.24
669.224	3942.51
669.416	4055.15
669.607	3928.17
669.798	3932.27
669.989	3833.97
670.18	3969.13
670.371	3922.03
670.563	3862.64
670.754	3919.98
670.945	3674.23
671.136	3876.98
671.327	3876.98
671.518	3844.21
671.709	3825.78
671.9	3854.45
672.091	3784.82
672.282	3614.84
672.473	3604.6
672.664	3702.9
672.855	3735.67
673.046	3743.86
673.237	3735.67
673.428	3631.22
673.619	3719.28
673.809	3424.37
674	3629.17
674.191	3580.02
674.382	3618.93
674.573	3612.79
674.764	3582.07
674.954	3539.06
675.145	3477.62
675.336	3451
675.527	3407.99
675.717	3555.44
675.908	3471.48
676.099	3475.57
676.289	3448.95
676.48	3457.14
676.671	3481.72
676.861	3453.05
677.052	3412.09
677.243	3442.81
677.433	3567.73
677.624	3440.76
677.814	3336.31
678.005	3407.99
678.195	3459.19
678.386	3426.42
678.576	3416.18
678.767	3346.55
678.957	3463.29
679.148	3289.21
679.338	3324.02
679.529	3410.04
679.719	3330.17
679.909	3293.3
680.1	3407.99
680.29	3328.12
680.481	3405.94
680.671	3274.87
680.861	3285.11
681.052	3256.44
681.242	3229.82
681.432	3334.26
681.622	3233.91
681.813	3178.62
682.003	3295.35
682.193	3182.71
682.383	3178.62
682.573	3195
682.764	3074.17
682.954	3149.95
683.144	3248.25
683.334	3162.23
683.524	3182.71
683.714	3235.96
683.904	3293.3
684.094	3186.81
684.284	3195
684.474	3172.47
684.664	3188.86
684.854	3053.69
685.044	3010.68
685.234	3176.57
685.424	3098.75
685.614	3129.47
685.804	3059.84
685.994	3154.04
686.184	3020.92
686.374	3203.19
686.564	3006.59
686.753	3074.17
686.943	2932.86
687.133	3004.54
687.323	2859.14
687.513	2953.34
687.702	3004.54
687.892	3004.54
688.082	2994.3
688.272	2934.91
688.461	2924.67
688.651	2939.01
688.841	2910.33
689.03	2910.33
689.22	2867.33
689.41	2867.33
689.599	2830.46
689.789	2785.41
689.979	2893.95
690.168	2861.18
690.358	2789.5
690.547	2597
690.737	2769.02
690.926	2881.66
691.116	2472.07
691.305	2822.27
691.495	2703.49
691.684	2687.11
691.874	2728.07
692.063	2666.63
692.252	2689.15
692.442	2687.11
692.631	2637.95
692.82	2674.82
693.01	2654.34
693.199	2601.09
693.388	2576.52
693.578	2551.94
693.767	2678.91
693.956	2687.11
694.146	2515.08
694.335	2547.84
694.524	2445.45
694.713	2498.69
694.902	2490.5
695.092	2447.49
695.281	2556.04
695.47	2470.02
695.659	2502.79
695.848	2381.96
696.037	2506.88
696.226	2451.59
696.415	2424.97
696.604	2455.69
696.793	2400.39
696.982	2523.27
697.171	2580.61
697.36	2437.25
697.549	2314.38
697.738	2347.14
697.927	2367.62
698.116	2443.4
698.305	2353.29
698.494	2441.35
698.683	2416.77
698.872	2465.93
699.061	2375.81
699.25	2369.67
699.438	2349.19
699.627	2465.93
699.816	2441.35
700.005	2424.97
700.193	2384.01
700.382	2398.34
700.571	2361.48
700.76	2166.92
700.948	2328.71
701.137	2384.01
701.326	2277.51
701.514	2324.62
701.703	2465.93
701.892	2230.41
702.08	2449.54
702.269	2476.16
702.457	2195.59
702.646	2328.71
702.834	2392.2
703.023	2324.62
703.212	2445.45
703.4	2363.53
703.589	2244.74
703.777	2330.76
703.965	2293.9
704.154	2349.19
704.342	2314.38
704.531	2429.06
704.719	2236.55
704.907	2429.06
705.096	2211.98
705.284	2193.55
705.472	2297.99
705.661	2265.22
705.849	2326.66
706.037	2224.26
706.226	2171.02
706.414	2195.59
706.602	2273.42
706.79	2211.98
706.979	2228.36
707.167	2281.61
707.355	2164.87
707.543	2240.65
707.731	2244.74
707.919	2242.7
708.107	2248.84
708.296	2297.99
708.484	2228.36
708.672	2310.28
708.86	2285.7
709.048	2252.94
709.236	2232.46
709.424	2271.37
709.612	2205.83
709.8	2183.31
709.988	2222.22
710.176	2222.22
710.364	2285.7
710.551	2277.51
710.739	2211.98
710.927	2269.32
711.115	2117.77
711.303	2252.94
711.491	2152.59
711.679	2123.91
711.866	2302.09
712.054	2136.2
712.242	2197.64
712.43	2152.59
712.617	2154.63
712.805	2125.96
712.993	2211.98
713.181	2183.31
713.368	2191.5
713.556	2199.69
713.744	2113.67
713.931	2185.35
714.119	2058.38
714.306	2195.59
714.494	2244.74
714.682	2166.92
714.869	2244.74
715.057	2203.79
715.244	2154.63
715.432	2183.31
715.619	2058.38
715.807	2162.83
715.994	2154.63
716.182	2121.87
716.369	2187.4
716.556	2220.17
716.744	2097.29
716.931	2185.35
717.119	2232.46
717.306	2179.21
717.493	2130.06
717.681	2154.63
717.868	2111.63
718.055	2187.4
718.242	2089.1
718.43	2220.17
718.617	2062.48
718.804	2089.1
718.991	2205.83
719.179	2050.19
719.366	2226.31
719.553	2156.68
719.74	2177.16
719.927	2111.63
720.114	2097.29
720.301	2173.07
720.488	2060.43
720.676	2162.83
720.863	2115.72
721.05	2166.92
721.237	2130.06
721.424	2078.86
721.611	2138.25
721.798	2099.34
721.985	2105.48
722.172	2095.24
722.358	2080.91
722.545	2103.43
722.732	2201.74
722.919	2095.24
723.106	1958.03
723.293	2216.07
723.48	2109.58
723.667	2072.72
723.853	2089.1
724.04	2121.87
724.227	2080.91
724.414	2148.49
724.6	2105.48
724.787	2166.92
724.974	2175.11
725.161	2171.02
725.347	2121.87
725.534	2125.96
725.72	2162.83
725.907	2244.74
726.094	2109.58
726.28	2048.14
726.467	2089.1
726.653	2066.57
726.84	2048.14
727.027	2142.35
727.213	2146.44
727.4	2179.21
727.586	2074.76
727.773	2072.72
727.959	2056.33
728.145	2203.79
728.332	2113.67
728.518	1998.99
728.705	2107.53
728.891	2017.42
729.077	2050.19
729.264	2070.67
729.45	2085
729.636	2107.53
729.823	2039.95
730.009	2064.52
730.195	2144.39
730.382	2138.25
730.568	2080.91
730.754	2082.95
730.94	2107.53
731.126	2158.73
731.313	2027.66
731.499	1980.56
731.685	2142.35
731.871	2025.61
732.057	2080.91
732.243	2039.95
732.429	1998.99
732.615	2039.95
732.801	2070.67
732.987	2042
733.173	2125.96
733.359	2119.82
733.545	2119.82
733.731	1927.31
733.917	2162.83
734.103	2134.15
734.289	2093.19
734.475	2171.02
734.661	2048.14
734.847	2097.29
735.033	2048.14
735.219	2001.04
735.404	1982.6
735.59	2048.14
735.776	1978.51
735.962	2046.09
736.148	2068.62
736.333	2013.32
736.519	1986.7
736.705	2031.76
736.89	1955.98
737.076	2023.56
737.262	1976.46
737.447	2039.95
737.633	1984.65
737.819	2005.13
738.004	1992.84
738.19	2019.47
738.375	1884.3
738.561	2009.23
738.747	1966.22
738.932	1863.82
739.118	2105.48
739.303	1998.99
739.489	2019.47
739.674	1968.27
739.859	1861.77
740.045	1941.65
740.23	1892.49
740.416	1851.53
740.601	1978.51
740.786	1915.02
740.972	1998.99
741.157	1958.03
741.342	1978.51
741.528	1935.5
741.713	1847.44
741.898	1878.16
742.084	1886.35
742.269	1876.11
742.454	1861.77
742.639	1927.31
742.824	1886.35
743.01	1908.88
743.195	1910.93
743.38	1826.96
743.565	1792.14
743.75	1888.4
743.935	1822.86
744.12	1786
744.305	1833.1
744.49	1706.13
744.675	1802.38
744.86	1704.08
745.045	1702.03
745.23	1736.85
745.415	1736.85
745.6	1722.51
745.785	1777.81
745.97	1677.46
746.155	1728.66
746.34	1861.77
746.525	1761.42
746.71	1736.85
746.895	1724.56
747.079	1626.26
747.264	1585.3
747.449	1730.7
747.634	1630.35
747.819	1566.87
748.003	1605.78
748.188	1552.53
748.373	1663.12
748.557	1542.29
748.742	1585.3
748.927	1577.11
749.111	1646.74
749.296	1534.1
749.481	1593.49
749.665	1593.49
749.85	1558.67
750.034	1560.72
750.219	1421.46
750.404	1499.28
750.588	1519.76
750.773	1525.91
750.957	1476.76
751.141	1540.24
751.326	1482.9
751.51	1409.17
751.695	1419.41
751.879	1482.9
752.064	1417.37
752.248	1392.79
752.432	1386.65
752.617	1450.13
752.801	1237.14
752.985	1394.84
753.17	1349.78
753.354	1319.06
753.538	1413.27
753.722	1224.86
753.907	1376.41
754.091	1345.69
754.275	1235.1
754.459	1360.02
754.643	1278.1
754.828	1269.91
755.012	1284.25
755.196	1253.53
755.38	1220.76
755.564	1132.7
755.748	1233.05
755.932	1239.19
756.116	1265.82
756.3	1251.48
756.484	1159.32
756.668	1237.14
756.852	1179.8
757.036	1177.75
757.22	1153.18
757.404	1108.12
757.588	1159.32
757.772	1128.6
757.956	1196.18
758.14	1095.83
758.323	1077.4
758.507	1120.41
758.691	1073.31
758.875	1140.89
759.059	1163.42
759.242	1097.88
759.426	1147.03
759.61	1085.59
759.794	1101.98
759.977	1067.16
760.161	1128.6
760.345	1024.16
760.528	1089.69
760.712	1036.44
760.895	958.62
761.079	1018.01
761.263	991.39
761.446	983.2
761.63	1058.97
761.813	1040.54
761.997	987.29
762.18	925.85
762.364	925.85
762.547	936.09
762.731	940.19
762.914	991.39
763.098	905.37
763.281	905.37
763.464	876.7
763.648	913.56
763.831	940.19
764.015	903.32
764.198	921.76
764.381	942.24
764.564	878.75
764.748	899.23
764.931	874.65
765.114	903.32
765.297	899.23
765.481	845.98
765.664	819.36
765.847	909.47
766.03	927.9
766.213	819.36
766.397	872.61
766.58	866.46
766.763	872.61
766.946	862.37
767.129	837.79
767.312	766.11
767.495	766.11
767.678	848.03
767.861	866.46
768.044	815.26
768.227	786.59
768.41	747.68
768.593	805.02
768.776	819.36
768.959	778.4
769.142	880.8
769.324	839.84
769.507	772.25
769.69	860.32
769.873	784.54
770.056	862.37
770.239	745.63
770.421	747.68
770.604	811.17
770.787	823.45
770.97	809.12
771.152	731.3
771.335	782.49
771.518	735.39
771.7	755.87
771.883	772.25
772.066	757.92
772.248	676
772.431	794.78
772.613	708.77
772.796	671.9
772.978	716.96
773.161	780.45
773.343	659.62
773.526	620.71
773.708	755.87
773.891	739.49
774.073	663.71
774.256	643.23
774.438	719.01
774.621	573.6
774.803	651.42
774.985	655.52
775.168	622.75
775.35	581.79
775.532	630.95
775.715	694.43
775.897	630.95
776.079	598.18
776.261	602.27
776.444	585.89
776.626	606.37
776.808	581.79
776.99	608.42
777.173	532.64
777.355	559.27
777.537	598.18
777.719	540.83
777.901	645.28
778.083	495.78
778.265	538.79
778.447	592.03
778.629	518.31
778.811	557.22
778.993	567.46
779.175	649.38
779.357	524.45
779.539	618.66
779.721	518.31
779.903	606.37
780.085	516.26
780.267	493.73
780.449	411.81
780.631	557.22
780.812	483.49
780.994	524.45
781.176	467.11
781.358	397.48
781.54	534.69
781.721	434.34
781.903	485.54
782.085	479.4
782.267	606.37
782.448	460.96
782.63	467.11
782.812	438.44
782.993	446.63
783.175	438.44
783.357	368.81
783.538	444.58
783.72	456.87
783.901	426.15
784.083	454.82
784.264	524.45
784.446	395.43
784.627	395.43
784.809	411.81
784.99	364.71
785.172	360.61
785.353	397.48
785.535	413.86
785.716	381.09
785.897	368.81
786.079	389.28
786.26	368.81
786.441	368.81
786.623	364.71
786.804	319.65
786.985	340.13
787.167	399.52
787.348	417.96
787.529	411.81
787.71	401.57
787.891	366.76
788.073	321.7
788.254	282.79
788.435	385.19
788.616	344.23
788.797	315.56
788.978	338.09
789.159	327.85
789.34	362.66
789.522	336.04
789.703	303.27
789.884	329.89
790.065	319.65
790.246	286.89
790.427	344.23
790.607	370.85
790.788	319.65
790.969	333.99
791.15	282.79
791.331	309.41
791.512	256.17
791.693	278.69
791.874	270.5
792.054	360.61
792.235	352.42
792.416	258.21
792.597	258.21
792.778	372.9
792.958	278.69
793.139	315.56
793.32	252.07
793.5	270.5
793.681	290.98
793.862	315.56
794.042	256.17
794.223	313.51
794.404	184.49
794.584	180.39
794.765	282.79
794.945	215.21
795.126	315.56
795.306	262.31
795.487	233.64
795.667	258.21
795.848	264.36
796.028	164.01
796.209	237.74
796.389	270.5
796.57	229.54
796.75	264.36
796.93	299.17
797.111	174.25
797.291	254.12
797.471	256.17
797.652	237.74
797.832	213.16
798.012	196.78
798.192	127.14
798.373	237.74
798.553	207.02
798.733	213.16
798.913	176.3
799.093	196.78
799.274	231.59
799.454	260.26
799.634	309.41
799.814	274.6
799.994	135.34
800.174	256.17
800.354	145.58
800.534	219.3
800.714	172.2
800.894	141.48
801.074	180.39
801.254	245.93
801.434	268.45
801.614	254.12
801.794	118.95
801.974	725.15
802.154	168.1
802.334	139.43
802.514	245.93
802.693	213.16
802.873	176.3
803.053	200.87
803.233	239.78
803.413	237.74
803.592	114.86
803.772	209.06
803.952	256.17
804.131	123.05
804.311	192.68
804.491	209.06
804.67	98.47
804.85	135.34
805.03	159.91
805.209	172.2
805.389	116.9
805.568	151.72
805.748	121
805.928	227.5
806.107	133.29
806.287	196.78
806.466	209.06
806.646	211.11
806.825	151.72
807.004	174.25
807.184	194.73
807.363	188.58
807.543	200.87
807.722	77.99
807.901	151.72
808.081	188.58
808.26	149.67
808.439	215.21
808.619	149.67
808.798	96.43
808.977	155.82
809.156	202.92
809.336	133.29
809.515	155.82
809.694	125.1
809.873	75.95
810.052	155.82
810.231	145.58
810.411	153.77
810.59	227.5
810.769	139.43
810.948	82.09
811.127	75.95
811.306	147.62
811.485	123.05
811.664	213.16
811.843	98.47
812.022	155.82
812.201	118.95
812.38	153.77
812.559	233.64
812.737	110.76
812.916	102.57
813.095	164.01
813.274	155.82
813.453	108.71
813.632	131.24
813.811	100.52
813.989	118.95
814.168	92.33
814.347	69.8
814.526	114.86
814.704	131.24
814.883	114.86
815.062	96.43
815.24	147.62
815.419	131.24
815.598	73.9
815.776	49.32
815.955	131.24
816.133	43.18
816.312	131.24
816.49	112.81
816.669	116.9
816.847	86.19
817.026	168.1
817.204	34.99
817.383	166.06
817.561	6.31
817.74	59.56
817.918	84.14
818.097	26.79
818.275	51.37
818.453	110.76
818.632	133.29
818.81	65.71
818.988	67.75
819.167	84.14
819.345	127.14
819.523	77.99
819.701	133.29
819.879	106.67
820.058	57.51
820.236	129.19
820.414	24.75
820.592	32.94
820.77	149.67
820.948	106.67
821.127	145.58
821.305	49.32
821.483	90.28
821.661	164.01
821.839	98.47
822.017	69.8
822.195	161.96
822.373	141.48
822.551	114.86
822.729	131.24
822.907	86.19
823.085	166.06
823.262	41.13
823.44	28.84
823.618	90.28
823.796	108.71
823.974	100.52
824.152	8.36
824.329	98.47
824.507	139.43
824.685	94.38
824.863	69.8
825.04	67.75
825.218	61.61
825.396	34.99
825.574	127.14
825.751	71.85
825.929	131.24
826.107	90.28
826.284	24.75
826.462	90.28
826.639	98.47
826.817	8.36
826.994	118.95
827.172	71.85
827.349	98.47
827.527	37.03
827.704	112.81
827.882	82.09
828.059	61.61
828.237	55.47
828.414	43.18
828.591	-10.07
828.769	82.09
828.946	61.61
829.124	106.67
829.301	147.62
829.478	59.56
829.655	61.61
829.833	59.56
830.01	77.99
830.187	86.19
830.364	92.33
830.542	51.37
830.719	73.9
830.896	24.75
831.073	80.04
831.25	39.08
831.427	63.66
831.604	-8.02
831.782	0.17
831.959	65.71
832.136	16.55
832.313	94.38
832.49	34.99
832.667	90.28
832.844	86.19
833.021	92.33
833.198	59.56
833.374	-24.4
833.551	30.89
833.728	77.99
833.905	129.19
834.082	-12.12
834.259	-30.55
834.436	90.28
834.612	-24.4
834.789	10.41
834.966	41.13
835.143	100.52
835.319	12.46
835.496	32.94
835.673	71.85
835.85	12.46
836.026	65.71
836.203	86.19
836.38	77.99
836.556	41.13
836.733	26.79
836.909	139.43
837.086	14.51
837.262	10.41
837.439	24.75
837.616	75.95
837.792	75.95
837.968	32.94
838.145	18.6
838.321	32.94
838.498	67.75
838.674	80.04
838.851	6.31
839.027	10.41
839.203	41.13
839.38	149.67
839.556	63.66
839.732	84.14
839.909	55.47
840.085	55.47
840.261	41.13
840.437	127.14
840.614	10.41
840.79	90.28
840.966	80.04
841.142	55.47
841.318	-46.93
841.494	18.6
841.671	24.75
841.847	65.71
842.023	37.03
842.199	20.65
842.375	22.7
842.551	0.17
842.727	-16.21
842.903	82.09
843.079	69.8
843.255	49.32
843.431	67.75
843.607	41.13
843.783	-69.46
843.959	-20.31
844.134	82.09
844.31	22.7
844.486	59.56
844.662	53.42
844.838	6.31
845.013	12.46
845.189	41.13
845.365	84.14
845.541	32.94
845.716	28.84
845.892	34.99
846.068	100.52
846.244	37.03
846.419	24.75
846.595	18.6
846.77	41.13
846.946	43.18
847.122	90.28
847.297	67.75
847.473	41.13
847.648	110.76
847.824	16.55
847.999	-32.6
848.175	41.13
848.35	65.71
848.526	137.38
848.701	-1.88
848.876	26.79
849.052	75.95
849.227	2.22
849.403	-34.64
849.578	41.13
849.753	16.55
849.929	20.65
850.104	10.41
850.279	18.6
850.454	53.42
850.63	112.81
850.805	49.32
850.98	-10.07
851.155	-30.55
851.33	116.9
851.505	-18.26
851.681	98.47
851.856	10.41
852.031	0.17
852.206	26.79
852.381	24.75
852.556	18.6
852.731	75.95
852.906	30.89
853.081	94.38
853.256	-48.98
853.431	32.94
853.606	32.94
853.781	30.89
853.956	-34.64
854.131	32.94
854.305	-10.07
854.48	43.18
854.655	20.65
854.83	82.09
855.005	-94.04
855.18	59.56
855.354	-16.21
855.529	63.66
855.704	-10.07
855.879	37.03
856.053	0.17
856.228	-44.88
856.403	-32.6
856.577	43.18
856.752	12.46
856.926	32.94
857.101	-8.02
857.276	24.75
857.45	-32.6
857.625	88.23
857.799	-28.5
857.974	86.19
858.148	-32.6
858.323	-32.6
858.497	0.17
858.672	-14.17
858.846	16.55
859.02	41.13
859.195	-79.7
859.369	2.22
859.543	18.6
859.718	-16.21
859.892	18.6
860.066	86.19
860.241	75.95
860.415	-44.88
860.589	6.31
860.763	65.71
860.938	-48.98
861.112	39.08
861.286	49.32
861.46	6.31
861.634	0.17
861.808	-24.4
861.982	-3.93
862.157	-5.97
862.331	4.27
862.505	-8.02
862.679	-14.17
862.853	-32.6
863.027	-44.88
863.201	32.94
863.375	0.17
863.549	26.79
863.722	10.41
863.896	49.32
864.07	-57.17
864.244	-30.55
864.418	37.03
864.592	0.17
864.766	-32.6
864.939	57.51
865.113	-22.36
865.287	-71.51
865.461	2.22
865.634	20.65
865.808	0.17
865.982	-14.17
866.156	18.6
866.329	6.31
866.503	-77.65
866.676	37.03
866.85	22.7
867.024	73.9
867.197	69.8
867.371	0.17
867.544	57.51
867.718	45.23
867.891	32.94
868.065	-57.17
868.238	34.99
868.412	37.03
868.585	4.27
868.759	16.55
868.932	26.79
869.105	-22.36
869.279	12.46
869.452	0.17
869.625	-61.27
869.799	32.94
869.972	37.03
870.145	4.27
870.319	12.46
870.492	32.94
870.665	8.36
870.838	-40.79
871.011	-55.12
871.185	65.71
871.358	10.41
871.531	12.46
871.704	16.55
871.877	61.61
872.05	-30.55
872.223	-8.02
872.396	-26.45
872.569	67.75
872.742	-20.31
872.915	90.28
873.088	-94.04
873.261	-61.27
873.434	45.23
873.607	75.95
873.78	49.32
873.953	10.41
874.126	26.79
874.299	73.9
874.471	-24.4
874.644	39.08
874.817	-8.02
874.99	24.75
875.163	-55.12
875.335	59.56
875.508	-22.36
875.681	12.46
875.853	32.94
876.026	14.51
876.199	67.75
876.371	-8.02
876.544	10.41
876.717	41.13
876.889	-16.21
877.062	0.17
877.234	39.08
877.407	-5.97
877.579	-1.88
877.752	20.65
877.924	0.17
878.097	-12.12
878.269	-14.17
878.442	6.31
878.614	-12.12
878.786	2.22
878.959	8.36
879.131	90.28
879.303	32.94
879.476	37.03
879.648	49.32
879.82	-32.6
879.993	8.36
880.165	0.17
880.337	-55.12
880.509	-32.6
880.681	24.75
880.854	-38.74
881.026	-24.4
881.198	71.85
881.37	-3.93
881.542	18.6
881.714	8.36
881.886	-22.36
882.058	34.99
882.23	-16.21
882.402	-12.12
882.574	14.51
882.746	16.55
882.918	45.23
883.09	45.23
883.262	43.18
883.434	26.79
883.606	-28.5
883.778	69.8
883.95	2.22
884.122	0.17
884.293	30.89
884.465	-69.46
884.637	28.84
884.809	-32.6
884.98	14.51
885.152	-32.6
885.324	-32.6
885.496	-5.97
885.667	24.75
885.839	4.27
886.011	65.71
886.182	12.46
886.354	12.46
886.525	49.32
886.697	-14.17
886.869	-3.93
887.04	-1.88
887.212	-26.45
887.383	69.8
887.555	-61.27
887.726	2.22
887.897	-65.36
888.069	32.94
888.24	32.94
888.412	-57.17
888.583	-8.02
888.754	-8.02
888.926	-55.12
889.097	55.47
889.268	24.75
889.44	2.22
889.611	-28.5
889.782	-40.79
889.953	28.84
890.125	39.08
890.296	-114.52
890.467	8.36
890.638	-14.17
890.809	-57.17
890.98	-10.07
891.151	10.41
891.323	34.99
891.494	16.55
891.665	43.18
891.836	47.27
892.007	-14.17
892.178	8.36
892.349	2.22
892.52	34.99
892.691	8.36
892.862	-36.69
893.032	8.36
893.203	-67.41
893.374	49.32
893.545	-8.02
893.716	-57.17
893.887	-12.12
894.057	-89.94
894.228	59.56
894.399	-44.88
894.57	4.27
894.74	22.7
894.911	-48.98
895.082	-63.32
895.253	43.18
895.423	-40.79
895.594	80.04
895.764	20.65
895.935	-69.46
896.106	-16.21
896.276	-18.26
896.447	-12.12
896.617	-30.55
896.788	45.23
896.958	32.94
897.129	8.36
897.299	-44.88
897.47	-36.69
897.64	67.75
897.81	-3.93
897.981	16.55
898.151	-46.93
898.322	-14.17
898.492	30.89
898.662	-87.89
898.832	-14.17
899.003	26.79
899.173	-28.5
899.343	20.65
899.513	-24.4
