Data from USB4F104151__137__14-19-11-914.txt Node

Date: Thu Mar 13 14:19:11 EDT 2025
User: louis
Spectrometer: USB4F10415
Trigger mode: 4
Integration Time (sec): 2.000000E-2
Scans to average: 1
Electric dark correction enabled: true
Nonlinearity correction enabled: false
Boxcar width: 0
XAxis mode: Wavelengths
Number of Pixels in Spectrum: 3648
>>>>>Begin Spectral Data<<<<<
178.204	-140.8
178.424	-140.8
178.644	-140.8
178.864	-99.84
179.084	-105.98
179.304	-26.11
179.524	27.14
179.744	-34.3
179.964	80.38
180.184	-24.06
180.404	-17.92
180.624	-15.87
180.844	37.38
181.064	-13.82
181.283	55.81
181.503	-50.69
181.723	-17.92
181.943	-36.35
182.163	64
182.383	88.57
182.602	6.66
182.822	109.05
183.042	2.56
183.262	31.23
183.482	31.23
183.701	12.8
183.921	111.1
184.141	-24.06
184.361	72.19
184.58	86.53
184.8	14.85
185.02	49.66
185.239	33.28
185.459	18.94
185.679	88.57
185.898	2.56
186.118	16.9
186.338	72.19
186.557	82.43
186.777	10.75
186.997	53.76
187.216	18.94
187.436	104.96
187.655	35.33
187.875	0.51
188.095	-26.11
188.314	27.14
188.534	68.09
188.753	-15.87
188.973	-65.02
189.192	92.67
189.412	-1.54
189.631	0.51
189.851	10.75
190.07	6.66
190.29	66.05
190.509	14.85
190.729	37.38
190.948	64
191.168	119.29
191.387	90.62
191.607	10.75
191.826	68.09
192.045	16.9
192.265	70.14
192.484	72.19
192.704	-9.73
192.923	4.61
193.142	166.4
193.362	23.04
193.581	82.43
193.8	59.9
194.02	55.81
194.239	-7.68
194.458	88.57
194.678	47.62
194.897	31.23
195.116	-5.63
195.335	-1.54
195.555	35.33
195.774	94.72
195.993	72.19
196.212	-34.3
196.432	6.66
196.651	59.9
196.87	-22.02
197.089	88.57
197.308	57.86
197.528	88.57
197.747	-34.3
197.966	86.53
198.185	66.05
198.404	6.66
198.623	55.81
198.842	43.52
199.062	80.38
199.281	45.57
199.5	55.81
199.719	121.34
199.938	102.91
200.157	25.09
200.376	33.28
200.595	55.81
200.814	78.33
201.033	57.86
201.252	41.47
201.471	102.91
201.69	64
201.909	41.47
202.128	84.48
202.347	49.66
202.566	-9.73
202.785	88.57
203.004	-32.26
203.223	104.96
203.442	-17.92
203.661	90.62
203.879	25.09
204.098	-17.92
204.317	18.94
204.536	47.62
204.755	-9.73
204.974	92.67
205.193	82.43
205.411	109.05
205.63	64
205.849	90.62
206.068	31.23
206.287	31.23
206.505	49.66
206.724	41.47
206.943	14.85
207.162	23.04
207.381	6.66
207.599	39.42
207.818	-13.82
208.037	96.77
208.255	-1.54
208.474	96.77
208.693	64
208.911	66.05
209.13	45.57
209.349	33.28
209.567	-1.54
209.786	66.05
210.005	47.62
210.223	68.09
210.442	59.9
210.661	-24.06
210.879	94.72
211.098	18.94
211.316	47.62
211.535	57.86
211.753	27.14
211.972	72.19
212.191	35.33
212.409	0.51
212.628	0.51
212.846	-34.3
213.065	113.15
213.283	47.62
213.502	8.7
213.72	-7.68
213.938	55.81
214.157	98.81
214.375	57.86
214.594	-1.54
214.812	154.11
215.031	76.29
215.249	18.94
215.467	53.76
215.686	-1.54
215.904	41.47
216.122	-9.73
216.341	68.09
216.559	41.47
216.778	121.34
216.996	78.33
217.214	64
217.432	107.01
217.651	41.47
217.869	53.76
218.087	29.18
218.306	-1.54
218.524	23.04
218.742	20.99
218.96	6.66
219.179	25.09
219.397	76.29
219.615	25.09
219.833	23.04
220.051	33.28
220.27	88.57
220.488	-38.4
220.706	57.86
220.924	16.9
221.142	-1.54
221.36	2.56
221.578	49.66
221.796	61.95
222.015	57.86
222.233	-79.36
222.451	-9.73
222.669	33.28
222.887	-26.11
223.105	27.14
223.323	8.7
223.541	45.57
223.759	4.61
223.977	25.09
224.195	59.9
224.413	4.61
224.631	35.33
224.849	18.94
225.067	57.86
225.285	-15.87
225.503	49.66
225.721	-46.59
225.939	41.47
226.157	90.62
226.375	74.24
226.592	59.9
226.81	96.77
227.028	88.57
227.246	64
227.464	25.09
227.682	94.72
227.9	23.04
228.117	72.19
228.335	2.56
228.553	80.38
228.771	88.57
228.989	25.09
229.206	88.57
229.424	55.81
229.642	-67.07
229.86	59.9
230.077	47.62
230.295	23.04
230.513	10.75
230.731	6.66
230.948	72.19
231.166	25.09
231.384	39.42
231.601	6.66
231.819	66.05
232.037	27.14
232.254	-54.78
232.472	-87.55
232.689	47.62
232.907	92.67
233.125	20.99
233.342	-11.78
233.56	-42.5
233.777	64
233.995	64
234.213	47.62
234.43	-26.11
234.648	88.57
234.865	49.66
235.083	49.66
235.3	20.99
235.518	27.14
235.735	64
235.953	18.94
236.17	10.75
236.388	8.7
236.605	115.2
236.822	80.38
237.04	72.19
237.257	-15.87
237.475	68.09
237.692	31.23
237.909	41.47
238.127	12.8
238.344	14.85
238.562	39.42
238.779	35.33
238.996	-46.59
239.214	-50.69
239.431	104.96
239.648	-58.88
239.865	6.66
240.083	-13.82
240.3	41.47
240.517	-15.87
240.735	121.34
240.952	96.77
241.169	88.57
241.386	25.09
241.603	39.42
241.821	-1.54
242.038	72.19
242.255	90.62
242.472	0.51
242.689	109.05
242.907	115.2
243.124	14.85
243.341	47.62
243.558	14.85
243.775	33.28
243.992	8.7
244.209	74.24
244.426	98.81
244.643	59.9
244.86	31.23
245.078	51.71
245.295	20.99
245.512	-32.26
245.729	10.75
245.946	41.47
246.163	55.81
246.38	61.95
246.597	49.66
246.814	-7.68
247.031	6.66
247.248	39.42
247.464	14.85
247.681	57.86
247.898	57.86
248.115	41.47
248.332	37.38
248.549	123.39
248.766	55.81
248.983	27.14
249.2	59.9
249.417	55.81
249.633	90.62
249.85	59.9
250.067	14.85
250.284	31.23
250.501	41.47
250.717	100.86
250.934	-17.92
251.151	27.14
251.368	66.05
251.585	66.05
251.801	-34.3
252.018	10.75
252.235	12.8
252.451	10.75
252.668	-13.82
252.885	51.71
253.102	115.2
253.318	47.62
253.535	8.7
253.752	47.62
253.968	16.9
254.185	-36.35
254.401	47.62
254.618	39.42
254.835	-22.02
255.051	90.62
255.268	59.9
255.484	39.42
255.701	-17.92
255.917	51.71
256.134	35.33
256.351	0.51
256.567	4.61
256.784	35.33
257	25.09
257.217	76.29
257.433	31.23
257.65	0.51
257.866	59.9
258.082	-48.64
258.299	47.62
258.515	10.75
258.732	16.9
258.948	27.14
259.165	33.28
259.381	47.62
259.597	61.95
259.814	-7.68
260.03	-3.58
260.246	20.99
260.463	35.33
260.679	39.42
260.895	92.67
261.112	33.28
261.328	-9.73
261.544	64
261.761	121.34
261.977	-34.3
262.193	-1.54
262.409	51.71
262.626	0.51
262.842	23.04
263.058	31.23
263.274	57.86
263.49	-24.06
263.707	74.24
263.923	6.66
264.139	39.42
264.355	16.9
264.571	90.62
264.787	150.01
265.004	41.47
265.22	16.9
265.436	90.62
265.652	68.09
265.868	14.85
266.084	41.47
266.3	55.81
266.516	29.18
266.732	2.56
266.948	55.81
267.164	23.04
267.38	-40.45
267.596	23.04
267.812	23.04
268.028	104.96
268.244	-46.59
268.46	47.62
268.676	64
268.892	27.14
269.108	29.18
269.324	-77.31
269.54	33.28
269.756	90.62
269.972	-17.92
270.188	14.85
270.403	29.18
270.619	-26.11
270.835	53.76
271.051	35.33
271.267	-19.97
271.483	115.2
271.698	14.85
271.914	72.19
272.13	33.28
272.346	14.85
272.562	-5.63
272.777	25.09
272.993	-30.21
273.209	64
273.425	43.52
273.64	41.47
273.856	47.62
274.072	-3.58
274.287	16.9
274.503	37.38
274.719	100.86
274.934	47.62
275.15	39.42
275.366	25.09
275.581	47.62
275.797	-24.06
276.012	-1.54
276.228	14.85
276.444	39.42
276.659	80.38
276.875	104.96
277.09	51.71
277.306	51.71
277.521	16.9
277.737	27.14
277.952	47.62
278.168	10.75
278.383	74.24
278.599	-9.73
278.814	51.71
279.03	72.19
279.245	92.67
279.461	55.81
279.676	55.81
279.892	-30.21
280.107	64
280.322	-3.58
280.538	113.15
280.753	16.9
280.969	47.62
281.184	29.18
281.399	82.43
281.615	82.43
281.83	86.53
282.045	39.42
282.26	8.7
282.476	39.42
282.691	25.09
282.906	82.43
283.122	57.86
283.337	68.09
283.552	131.58
283.767	-24.06
283.983	70.14
284.198	49.66
284.413	96.77
284.628	14.85
284.843	-7.68
285.058	98.81
285.274	57.86
285.489	66.05
285.704	33.28
285.919	59.9
286.134	68.09
286.349	64
286.564	49.66
286.779	-42.5
286.995	104.96
287.21	-52.74
287.425	113.15
287.64	23.04
287.855	125.44
288.07	0.51
288.285	64
288.5	0.51
288.715	25.09
288.93	2.56
289.145	59.9
289.36	-26.11
289.575	59.9
289.79	39.42
290.004	35.33
290.219	55.81
290.434	76.29
290.649	72.19
290.864	16.9
291.079	72.19
291.294	64
291.509	-7.68
291.724	6.66
291.938	31.23
292.153	35.33
292.368	55.81
292.583	-24.06
292.798	94.72
293.012	66.05
293.227	41.47
293.442	8.7
293.657	31.23
293.871	43.52
294.086	74.24
294.301	59.9
294.516	31.23
294.73	39.42
294.945	-30.21
295.16	31.23
295.374	31.23
295.589	78.33
295.804	20.99
296.018	25.09
296.233	74.24
296.447	47.62
296.662	64
296.877	76.29
297.091	14.85
297.306	92.67
297.52	57.86
297.735	96.77
297.949	41.47
298.164	78.33
298.378	82.43
298.593	68.09
298.807	45.57
299.022	80.38
299.236	117.25
299.451	8.7
299.665	6.66
299.88	-15.87
300.094	70.14
300.309	14.85
300.523	92.67
300.737	57.86
300.952	27.14
301.166	47.62
301.381	43.52
301.595	20.99
301.809	49.66
302.024	-26.11
302.238	-38.4
302.452	20.99
302.667	74.24
302.881	14.85
303.095	88.57
303.309	39.42
303.524	41.47
303.738	72.19
303.952	0.51
304.166	6.66
304.381	-5.63
304.595	113.15
304.809	10.75
305.023	88.57
305.237	-9.73
305.452	35.33
305.666	10.75
305.88	49.66
306.094	25.09
306.308	12.8
306.522	53.76
306.736	88.57
306.95	-19.97
307.164	25.09
307.379	74.24
307.593	-9.73
307.807	53.76
308.021	90.62
308.235	41.47
308.449	25.09
308.663	96.77
308.877	49.66
309.091	45.57
309.305	23.04
309.519	23.04
309.733	20.99
309.947	-17.92
310.161	-17.92
310.374	35.33
310.588	64
310.802	35.33
311.016	14.85
311.23	59.9
311.444	115.2
311.658	39.42
311.872	49.66
312.085	113.15
312.299	84.48
312.513	41.47
312.727	74.24
312.941	104.96
313.154	18.94
313.368	2.56
313.582	88.57
313.796	2.56
314.009	66.05
314.223	35.33
314.437	29.18
314.651	55.81
314.864	25.09
315.078	55.81
315.292	-26.11
315.505	76.29
315.719	72.19
315.933	100.86
316.146	31.23
316.36	92.67
316.573	74.24
316.787	72.19
317.001	31.23
317.214	-22.02
317.428	113.15
317.641	-3.58
317.855	76.29
318.068	18.94
318.282	14.85
318.495	102.91
318.709	74.24
318.922	-32.26
319.136	107.01
319.349	6.66
319.563	47.62
319.776	86.53
319.99	-7.68
320.203	8.7
320.417	43.52
320.63	55.81
320.843	135.68
321.057	47.62
321.27	2.56
321.483	18.94
321.697	51.71
321.91	80.38
322.124	2.56
322.337	41.47
322.55	14.85
322.763	82.43
322.977	86.53
323.19	31.23
323.403	66.05
323.617	74.24
323.83	68.09
324.043	-11.78
324.256	47.62
324.469	-9.73
324.683	39.42
324.896	39.42
325.109	51.71
325.322	16.9
325.535	104.96
325.748	8.7
325.962	20.99
326.175	47.62
326.388	59.9
326.601	88.57
326.814	64
327.027	23.04
327.24	53.76
327.453	14.85
327.666	55.81
327.879	33.28
328.092	20.99
328.305	59.9
328.518	-13.82
328.731	-15.87
328.944	76.29
329.157	-7.68
329.37	4.61
329.583	92.67
329.796	117.25
330.009	49.66
330.222	25.09
330.435	2.56
330.648	88.57
330.861	-56.83
331.073	41.47
331.286	14.85
331.499	86.53
331.712	14.85
331.925	23.04
332.138	27.14
332.35	72.19
332.563	4.61
332.776	61.95
332.989	14.85
333.202	47.62
333.414	16.9
333.627	37.38
333.84	100.86
334.053	23.04
334.265	35.33
334.478	23.04
334.691	68.09
334.903	39.42
335.116	20.99
335.329	16.9
335.541	39.42
335.754	104.96
335.966	109.05
336.179	68.09
336.392	39.42
336.604	111.1
336.817	20.99
337.029	88.57
337.242	61.95
337.454	41.47
337.667	4.61
337.88	133.63
338.092	53.76
338.305	104.96
338.517	88.57
338.729	16.9
338.942	49.66
339.154	31.23
339.367	-1.54
339.579	64
339.792	-17.92
340.004	96.77
340.217	66.05
340.429	6.66
340.641	59.9
340.854	59.9
341.066	49.66
341.278	76.29
341.491	88.57
341.703	43.52
341.915	-22.02
342.128	64
342.34	96.77
342.552	47.62
342.764	23.04
342.977	86.53
343.189	64
343.401	57.86
343.613	119.29
343.826	64
344.038	4.61
344.25	35.33
344.462	-32.26
344.674	80.38
344.886	72.19
345.099	0.51
345.311	43.52
345.523	-15.87
345.735	16.9
345.947	10.75
346.159	72.19
346.371	104.96
346.583	6.66
346.795	123.39
347.007	33.28
347.219	82.43
347.431	-17.92
347.643	72.19
347.855	-9.73
348.067	49.66
348.279	-1.54
348.491	70.14
348.703	125.44
348.915	23.04
349.127	8.7
349.339	47.62
349.551	25.09
349.763	80.38
349.975	10.75
350.187	64
350.399	145.92
350.61	-9.73
350.822	55.81
351.034	107.01
351.246	-7.68
351.458	25.09
351.669	43.52
351.881	104.96
352.093	72.19
352.305	72.19
352.517	39.42
352.728	133.63
352.94	115.2
353.152	4.61
353.363	-42.5
353.575	70.14
353.787	68.09
353.999	49.66
354.21	78.33
354.422	-9.73
354.633	64
354.845	35.33
355.057	45.57
355.268	37.38
355.48	37.38
355.692	-3.58
355.903	-17.92
356.115	-5.63
356.326	-58.88
356.538	82.43
356.749	35.33
356.961	143.87
357.172	8.7
357.384	66.05
357.595	109.05
357.807	74.24
358.018	70.14
358.23	49.66
358.441	107.01
358.653	18.94
358.864	45.57
359.075	-56.83
359.287	80.38
359.498	117.25
359.709	35.33
359.921	74.24
360.132	49.66
360.344	43.52
360.555	-9.73
360.766	43.52
360.977	109.05
361.189	64
361.4	178.69
361.611	80.38
361.823	43.52
362.034	14.85
362.245	-22.02
362.456	43.52
362.667	47.62
362.879	-36.35
363.09	51.71
363.301	88.57
363.512	43.52
363.723	29.18
363.935	-9.73
364.146	47.62
364.357	23.04
364.568	123.39
364.779	47.62
364.99	70.14
365.201	25.09
365.412	0.51
365.623	49.66
365.834	25.09
366.045	-19.97
366.256	74.24
366.467	76.29
366.678	-1.54
366.889	31.23
367.1	27.14
367.311	18.94
367.522	8.7
367.733	70.14
367.944	16.9
368.155	-1.54
368.366	154.11
368.577	96.77
368.788	-9.73
368.999	16.9
369.209	115.2
369.42	98.81
369.631	125.44
369.842	14.85
370.053	27.14
370.264	88.57
370.474	6.66
370.685	23.04
370.896	145.92
371.107	41.47
371.317	104.96
371.528	-32.26
371.739	96.77
371.95	51.71
372.16	41.47
372.371	35.33
372.582	18.94
372.792	20.99
373.003	55.81
373.214	72.19
373.424	92.67
373.635	31.23
373.846	117.25
374.056	68.09
374.267	119.29
374.477	64
374.688	35.33
374.898	14.85
375.109	55.81
375.319	47.62
375.53	137.73
375.74	104.96
375.951	55.81
376.161	49.66
376.372	100.86
376.582	49.66
376.793	51.71
377.003	33.28
377.214	-7.68
377.424	72.19
377.635	90.62
377.845	74.24
378.055	80.38
378.266	51.71
378.476	55.81
378.686	-5.63
378.897	84.48
379.107	107.01
379.317	113.15
379.528	25.09
379.738	-34.3
379.948	41.47
380.158	121.34
380.369	37.38
380.579	23.04
380.789	64
380.999	47.62
381.21	61.95
381.42	86.53
381.63	59.9
381.84	31.23
382.05	55.81
382.261	47.62
382.471	98.81
382.681	41.47
382.891	59.9
383.101	59.9
383.311	37.38
383.521	2.56
383.731	31.23
383.941	82.43
384.151	80.38
384.361	49.66
384.571	2.56
384.781	27.14
384.991	51.71
385.201	129.53
385.411	49.66
385.621	51.71
385.831	35.33
386.041	107.01
386.251	10.75
386.461	123.39
386.671	23.04
386.881	72.19
387.091	49.66
387.301	113.15
387.511	45.57
387.72	59.9
387.93	86.53
388.14	8.7
388.35	51.71
388.56	41.47
388.769	31.23
388.979	115.2
389.189	29.18
389.399	64
389.609	125.44
389.818	-1.54
390.028	59.9
390.238	72.19
390.447	47.62
390.657	125.44
390.867	98.81
391.076	72.19
391.286	51.71
391.496	31.23
391.705	51.71
391.915	129.53
392.125	33.28
392.334	117.25
392.544	96.77
392.753	141.82
392.963	-19.97
393.172	119.29
393.382	4.61
393.591	96.77
393.801	92.67
394.01	39.42
394.22	88.57
394.429	84.48
394.639	76.29
394.848	135.68
395.058	80.38
395.267	55.81
395.477	121.34
395.686	47.62
395.895	43.52
396.105	168.45
396.314	35.33
396.524	121.34
396.733	72.19
396.942	115.2
397.152	82.43
397.361	104.96
397.57	92.67
397.78	121.34
397.989	74.24
398.198	121.34
398.407	115.2
398.617	104.96
398.826	121.34
399.035	88.57
399.244	186.88
399.453	55.81
399.663	145.92
399.872	184.83
400.081	33.28
400.29	170.49
400.499	55.81
400.708	107.01
400.917	49.66
401.127	76.29
401.336	6.66
401.545	113.15
401.754	170.49
401.963	131.58
402.172	125.44
402.381	82.43
402.59	109.05
402.799	127.49
403.008	135.68
403.217	117.25
403.426	78.33
403.635	117.25
403.844	123.39
404.053	57.86
404.262	104.96
404.471	197.12
404.68	180.73
404.888	92.67
405.097	133.63
405.306	45.57
405.515	88.57
405.724	154.11
405.933	158.21
406.142	172.54
406.35	182.78
406.559	174.59
406.768	246.27
406.977	172.54
407.185	129.53
407.394	150.01
407.603	143.87
407.812	231.93
408.02	186.88
408.229	260.6
408.438	199.16
408.646	141.82
408.855	221.69
409.064	276.99
409.272	229.88
409.481	311.8
409.69	236.03
409.898	236.03
410.107	250.36
410.315	276.99
410.524	285.18
410.733	238.08
410.941	268.8
411.15	309.76
411.358	338.43
411.567	412.15
411.775	408.06
411.984	369.15
412.192	305.66
412.401	377.34
412.609	354.81
412.818	481.78
413.026	381.43
413.234	385.53
413.443	420.35
413.651	471.54
413.86	530.94
414.068	444.92
414.276	553.46
414.485	465.4
414.693	506.36
414.901	621.05
415.11	637.43
415.318	571.9
415.526	678.39
415.734	657.91
415.943	719.35
416.151	711.16
416.359	760.31
416.567	682.49
416.776	776.69
416.984	848.37
417.192	752.12
417.4	844.28
417.608	844.28
417.817	838.13
418.025	1024.5
418.233	967.15
418.441	924.15
418.649	926.19
418.857	1094.13
419.065	1087.98
419.273	1073.65
419.481	1038.83
419.689	1200.62
419.897	1227.25
420.105	1253.87
420.313	1204.72
420.521	1415.66
420.729	1407.47
420.937	1356.27
421.145	1442.28
421.353	1628.65
421.561	1669.61
421.769	1649.13
421.977	1671.65
422.185	1651.17
422.393	1835.49
422.601	1882.6
422.809	1941.99
423.017	1862.12
423.224	2077.15
423.432	2093.54
423.64	2111.97
423.848	2075.1
424.056	2136.54
424.263	2251.23
424.471	2341.34
424.679	2294.24
424.887	2578.9
425.094	2466.27
425.302	2554.33
425.51	2671.06
425.718	2736.6
425.925	2847.19
426.133	2832.85
426.341	3115.47
426.548	3254.73
426.756	3297.74
426.964	3381.71
427.171	3469.77
427.379	3537.35
427.586	3621.32
427.794	3713.48
428.001	3785.16
428.209	4174.27
428.417	3955.14
428.624	4370.88
428.832	4215.23
429.039	4272.57
429.247	4170.18
429.454	4753.85
429.662	4815.29
429.869	4727.22
430.076	5015.99
430.284	4858.29
430.491	5151.15
430.699	5396.91
430.906	5222.83
431.114	5501.36
431.321	5413.29
431.528	5634.47
431.736	6009.25
431.943	6240.67
432.15	6025.64
432.358	6187.43
432.565	6504.86
432.772	6420.89
432.979	6744.47
433.187	6939.03
433.394	6908.31
433.601	7399.82
433.808	7422.35
434.016	7393.68
434.223	7807.37
434.43	8219.01
434.637	7983.49
434.844	8524.16
435.052	8753.53
435.259	8614.27
435.466	8724.86
435.673	8413.57
435.88	9120.12
436.087	9697.64
436.294	9611.63
436.501	9480.56
436.708	9568.62
436.915	9697.64
437.122	10406.24
437.329	10252.64
437.537	10574.17
437.743	10774.88
437.95	10494.3
438.157	11204.95
438.364	11626.83
438.571	11596.11
438.778	11630.93
438.985	12927.29
439.192	12181.83
439.399	12638.53
439.606	12362.05
439.813	12990.78
440.02	13803.82
440.227	13693.23
440.433	13510.96
440.64	13949.23
440.847	13906.22
441.054	14139.69
441.261	15155.48
441.467	14844.19
441.674	15247.64
441.881	15902.99
442.088	15620.37
442.294	15624.47
442.501	16204.04
442.708	16275.72
442.914	16896.25
443.121	17602.8
443.328	16980.22
443.534	18479.33
443.741	17529.08
443.948	17529.08
444.154	19097.82
444.361	18600.16
444.568	18809.06
444.774	18958.56
444.981	19089.63
445.187	19503.32
445.394	20218.06
445.6	20037.84
445.807	22153.39
446.013	21158.08
446.22	21436.6
446.426	22257.84
446.633	22700.2
446.839	23390.36
447.046	22405.29
447.252	23238.81
447.459	23568.54
447.665	23341.21
447.871	24701.06
448.078	25753.72
448.284	24379.53
448.491	25180.29
448.697	26622.06
448.903	26314.86
449.11	26617.96
449.316	25938.04
449.522	26722.41
449.728	27316.32
449.935	27213.92
450.141	27560.03
450.347	28293.2
450.553	27277.41
450.76	27428.96
450.966	28108.88
451.172	28158.03
451.378	29116.48
451.584	28518.48
451.791	29065.28
451.997	29018.18
452.203	29667.39
452.409	29392.96
452.615	29583.42
452.821	28538.96
453.027	28274.77
453.233	29657.15
453.44	28405.84
453.646	29136.96
453.852	29053
454.058	29337.66
454.264	27940.95
454.47	28964.93
454.676	28430.41
454.882	29274.18
455.088	26767.46
455.294	27400.29
455.5	27299.94
455.705	27895.89
455.911	26959.97
456.117	26286.19
456.323	25954.42
456.529	24582.28
456.735	25772.15
456.941	25233.53
457.147	24733.83
457.352	23695.51
457.558	23793.81
457.764	23853.2
457.97	23287.96
458.176	22657.19
458.381	22712.49
458.587	21686.45
458.793	21760.18
458.999	20723.91
459.204	22102.19
459.41	21242.04
459.616	19953.87
459.821	20453.58
460.027	19945.68
460.233	19503.32
460.438	18559.2
460.644	19187.93
460.85	18243.82
461.055	17686.77
461.261	17592.56
461.466	16433.41
461.672	15792.4
461.878	17029.37
462.083	16169.23
462.289	15405.33
462.494	15411.48
462.7	14813.47
462.905	14285.09
463.111	14989.6
463.316	15079.71
463.522	14496.03
463.727	14672.16
463.932	14684.45
464.138	14493.99
464.343	14469.41
464.549	13732.14
464.754	14389.54
464.959	14379.3
465.165	14145.83
465.37	13740.33
465.575	13254.97
465.781	14020.91
465.986	13984.04
466.191	13269.3
466.397	13152.57
466.602	12364.1
466.807	13044.02
467.012	12941.63
467.218	12974.39
467.423	12794.17
467.628	12538.18
467.833	13148.47
468.038	12931.39
468.244	12659.01
468.449	12984.63
468.654	12749.12
468.859	12312.9
469.064	12521.79
469.269	11813.2
469.474	11944.27
469.679	12241.22
469.885	11688.27
470.09	11981.13
470.295	12038.47
470.5	11753.8
470.705	11833.68
470.91	11329.88
471.115	11422.03
471.32	11604.3
471.525	11485.52
471.73	11045.21
471.935	11120.98
472.139	10879.32
472.344	10858.84
472.549	10824.03
472.754	10606.94
472.959	10629.47
473.164	10277.22
473.369	10090.85
473.574	10535.26
473.778	10414.43
473.983	10162.53
474.188	10283.36
474.393	9976.17
474.598	9922.92
474.802	9808.23
475.007	9576.81
475.212	9585.01
475.417	9423.22
475.621	9281.91
475.826	9384.3
476.031	9189.75
476.235	9058.68
476.44	9044.34
476.645	8860.02
476.849	9044.34
477.054	8984.95
477.259	8659.32
477.463	8796.54
477.668	8608.12
477.872	8819.07
478.077	8475.01
478.282	8114.56
478.486	8108.42
478.691	8257.92
478.895	8227.2
479.1	8083.84
479.304	8108.42
479.509	8014.21
479.713	8059.27
479.918	7920.01
480.122	7702.92
480.326	7674.25
480.531	7944.58
480.735	7481.74
480.94	7543.18
481.144	7942.53
481.348	7584.14
481.553	7537.04
481.757	7322
481.961	7629.2
482.166	7707.02
482.37	7461.26
482.574	7487.89
482.778	7414.16
482.983	7534.99
483.187	7440.78
483.391	7545.23
483.595	7383.44
483.8	7451.02
484.004	7598.48
484.208	7532.94
484.412	7424.4
484.616	7506.32
484.821	7494.03
485.025	7463.31
485.229	7371.15
485.433	7420.3
485.637	7362.96
485.841	7248.27
486.045	7317.9
486.249	7541.13
486.453	7528.85
486.657	7350.67
486.861	7365.01
487.065	7305.62
487.269	7467.41
487.473	7256.47
487.677	7661.96
487.881	7543.18
488.085	7377.3
488.289	7545.23
488.493	7442.83
488.697	7506.32
488.901	7471.5
489.105	7463.31
489.309	7545.23
489.512	7553.42
489.716	7420.3
489.92	7391.63
490.124	7614.86
490.328	7623.05
490.531	7696.78
490.735	7602.57
490.939	7618.96
491.143	7545.23
491.346	7469.45
491.55	7807.37
491.754	7813.51
491.958	7864.71
492.161	7690.63
492.365	7782.79
492.569	7936.39
492.772	7911.82
492.976	8071.56
493.18	7946.63
493.383	8096.13
493.587	8214.91
493.79	8270.21
493.994	7928.2
494.197	8272.26
494.401	8235.39
494.605	8196.48
494.808	8378.75
495.012	8288.64
495.215	8536.45
495.419	8460.67
495.622	8561.02
495.825	8518.01
496.029	8657.28
496.232	8952.18
496.436	8741.24
496.639	9099.64
496.843	8894.84
497.046	9070.97
497.249	9238.9
497.453	9343.35
497.656	9116.02
497.859	9369.97
498.063	9458.03
498.266	9546.09
498.469	9548.14
498.673	9542
498.876	9634.16
499.079	9906.54
499.282	9863.53
499.485	10389.86
499.689	10273.12
499.892	10322.27
500.095	10426.72
500.298	10568.03
500.501	10404.19
500.705	10877.27
500.908	10725.72
501.111	10953.05
501.314	11176.28
501.517	11211.09
501.72	11278.68
501.923	11270.48
502.126	11456.85
502.329	11725.13
502.532	11852.11
502.735	11776.33
502.938	12212.55
503.141	12038.47
503.344	12255.56
503.547	12306.76
503.75	12587.33
503.953	12749.12
504.156	12699.97
504.359	12904.76
504.562	13123.9
504.765	13132.09
504.968	13324.6
505.17	13484.34
505.373	13828.4
505.576	13797.68
505.779	13898.03
505.982	13943.08
506.185	14377.25
506.387	14348.58
506.59	14442.79
506.793	14651.68
506.996	14737.7
507.198	15159.58
507.401	15079.71
507.604	15165.72
507.807	15278.36
508.009	15558.93
508.212	15773.97
508.415	15831.31
508.617	15827.21
508.82	15765.78
509.022	16154.89
509.225	16752.9
509.428	16425.22
509.63	16677.12
509.833	16605.44
510.035	16947.45
510.238	16982.27
510.44	17166.59
510.643	17625.33
510.845	17826.03
511.048	17574.13
511.25	18016.49
511.453	17965.29
511.655	18831.58
511.858	18286.82
512.06	18290.92
512.262	18876.64
512.465	18628.84
512.667	19257.56
512.87	19405.02
513.072	19380.44
513.274	19955.92
513.477	19810.51
513.679	20197.58
513.881	20431.05
514.084	20478.15
514.286	20424.9
514.488	20644.04
514.69	21493.94
514.893	21184.7
515.095	21373.11
515.297	21375.16
515.499	21661.88
515.701	22085.81
515.904	22239.4
516.106	22139.05
516.308	22440.11
516.51	22857.89
516.712	22642.85
516.914	23046.3
517.116	23134.37
517.318	23412.89
517.52	23277.72
517.722	23466.14
517.925	23935.12
518.127	24068.24
518.329	23918.74
518.531	24193.17
518.733	24920.2
518.935	24807.56
519.136	25081.99
519.338	25262.21
519.54	25446.52
519.742	25573.5
519.944	25622.65
520.146	26302.57
520.348	26634.35
520.55	26736.74
520.752	26607.72
520.954	27035.75
521.155	26638.44
521.357	27340.89
521.559	27375.71
521.761	27766.87
521.963	27734.1
522.164	27938.9
522.366	28168.27
522.568	28190.8
522.77	28592.2
522.971	29139.01
523.173	28645.45
523.375	29184.07
523.576	29239.36
523.778	28928.07
523.98	29446.21
524.181	29272.13
524.383	29632.57
524.584	30079.03
524.786	30292.02
524.988	30052.41
525.189	30484.53
525.391	30302.26
525.592	30906.41
525.794	30691.37
525.995	31025.19
526.197	30914.6
526.398	30961.7
526.6	31133.73
526.801	31506.46
527.003	31506.46
527.204	31559.71
527.406	32233.49
527.607	31836.19
527.808	31889.43
528.01	31680.54
528.211	31641.63
528.412	32604.17
528.614	32319.51
528.815	32210.96
529.016	32716.81
529.218	32690.19
529.419	32612.37
529.62	32530.45
529.822	32899.08
530.023	32550.93
530.224	33032.2
530.425	32722.96
530.626	32649.23
530.828	32460.82
531.029	33548.29
531.23	32917.51
531.431	32704.52
531.632	32884.75
531.833	33212.42
532.035	33196.04
532.236	33591.3
532.437	33261.57
532.638	32778.25
532.839	33112.07
533.04	33253.38
533.241	33058.82
533.442	33726.46
533.643	33318.92
533.844	33177.61
534.045	33568.77
534.246	33273.86
534.447	33531.9
534.648	33009.67
534.849	33613.82
535.05	33228.8
535.251	33804.28
535.451	33460.23
535.652	33568.77
535.853	33396.74
536.054	33579.01
536.255	33415.17
536.456	33226.76
536.657	33873.92
536.857	33505.28
537.058	32976.9
537.259	33804.28
537.46	33654.78
537.66	33366.02
537.861	33296.39
538.062	33230.85
538.263	33583.1
538.463	33308.68
538.664	33171.46
538.865	33501.18
539.065	33720.32
539.266	33337.35
539.466	33662.97
539.667	33130.5
539.868	33368.07
540.068	33525.76
540.269	33085.45
540.469	33409.03
540.67	33503.23
540.87	33263.62
541.071	33118.21
541.271	33431.55
541.472	33363.97
541.672	32993.29
541.873	32946.19
542.073	32872.46
542.274	33581.06
542.474	33087.5
542.675	32952.33
542.875	33406.98
543.075	33046.54
543.276	32464.91
543.476	33404.93
543.676	32958.47
543.877	33052.68
544.077	33132.55
544.277	33124.36
544.478	33144.84
544.678	33296.39
544.878	32841.74
545.078	33210.37
545.279	32821.26
545.479	33024.01
545.679	33069.06
545.879	33374.21
546.079	32956.43
546.28	32866.31
546.48	32966.66
546.68	33169.41
546.88	33085.45
547.08	33011.72
547.28	33060.87
547.48	32854.03
547.68	32909.32
547.88	32851.98
548.081	32940.04
548.281	32776.2
548.481	32913.42
548.681	32929.8
548.881	32829.45
549.081	33026.06
549.28	32555.02
549.48	32935.95
549.68	32507.92
549.88	33116.17
550.08	32733.2
550.28	32808.97
550.48	32534.54
550.68	32755.72
550.88	32901.13
551.08	32753.68
551.279	32763.92
551.479	32630.8
551.679	32673.81
551.879	32352.27
552.079	32622.61
552.278	32311.31
552.478	33028.1
552.678	32817.16
552.878	32714.76
553.077	32598.03
553.277	32215.06
553.477	32933.9
553.676	32483.34
553.876	32460.82
554.076	32444.43
554.275	32249.88
554.475	31891.48
554.674	32462.86
554.874	32276.5
555.074	32079.89
555.273	32311.31
555.473	32544.78
555.672	32161.81
555.872	32217.11
556.071	32032.79
556.271	32585.74
556.47	32018.46
556.67	31752.22
556.869	32098.33
557.068	32348.18
557.268	31623.2
557.467	32215.06
557.667	31789.08
557.866	31967.26
558.065	31979.54
558.265	31668.25
558.464	31485.98
558.663	32049.17
558.863	31447.07
559.062	32112.66
559.261	31166.5
559.461	31985.69
559.66	31272.99
559.859	31373.35
560.058	31565.85
560.258	31373.35
560.457	31238.18
560.656	31541.28
560.855	30961.7
561.054	31090.73
561.253	31123.49
561.453	31090.73
561.652	31336.48
561.851	31178.79
562.05	31270.95
562.249	30898.22
562.448	31338.53
562.647	30810.15
562.846	30916.65
563.045	30617.64
563.244	30509.1
563.443	30943.27
563.642	30298.16
563.841	30740.52
564.04	30404.66
564.239	30697.52
564.438	30224.43
564.637	30576.69
564.836	30529.58
565.035	30400.56
565.234	30285.87
565.432	30009.4
565.631	30242.87
565.83	30177.33
566.029	30154.8
566.228	29894.71
566.427	29898.81
566.625	29950.01
566.824	29616.19
567.023	29950.01
567.222	29663.29
567.42	29911.1
567.619	29401.15
567.818	29612.09
568.016	29716.54
568.215	29857.85
568.414	29356.1
568.612	29483.07
568.811	28805.19
569.01	29284.42
569.208	28692.55
569.407	29272.13
569.605	28921.93
569.804	29319.23
570.002	28792.9
570.201	29020.23
570.4	28510.28
570.598	28307.54
570.797	28696.65
570.995	28799.05
571.193	28115.03
571.392	28661.83
571.59	28403.79
571.789	28381.26
571.987	28115.03
572.186	28211.28
572.384	28100.69
572.582	28551.24
572.781	28586.06
572.979	27887.7
573.177	27807.83
573.376	27842.65
573.574	27588.7
573.772	27977.81
573.971	27840.6
574.169	27465.82
574.367	27293.79
574.565	27668.57
574.763	27433.05
574.962	27453.53
575.16	27193.44
575.358	27412.57
575.556	27093.09
575.754	27476.06
575.952	26640.49
576.151	27181.15
576.349	26867.81
576.547	26835.05
576.745	26781.8
576.943	26734.7
577.141	26622.06
577.339	26562.67
577.537	26458.22
577.735	26439.79
577.933	26073.2
578.131	26589.29
578.329	26148.98
578.527	26093.68
578.725	26206.32
578.923	26415.21
579.121	25858.17
579.319	25989.24
579.516	26083.44
579.714	25856.12
579.912	25579.64
580.11	25925.75
580.308	25397.37
580.506	25188.48
580.704	25059.46
580.901	25811.06
581.099	25661.56
581.297	25655.42
581.495	25399.42
581.692	25004.16
581.89	25067.65
582.088	25340.03
582.285	25024.64
582.483	25278.59
582.681	25026.69
582.878	24789.13
583.076	24629.38
583.274	24832.13
583.471	24918.15
583.669	24862.85
583.866	24455.31
584.064	24639.62
584.262	24387.72
584.459	24645.77
584.657	24322.19
584.854	24567.95
585.052	24074.38
585.249	24146.06
585.447	24094.86
585.644	23849.11
585.841	24166.54
586.039	24150.16
586.236	23654.55
586.434	24062.1
586.631	23634.07
586.828	23722.13
587.026	23247.01
587.223	23707.8
587.42	23457.95
587.618	23500.95
587.815	23154.85
588.012	23091.36
588.21	23115.94
588.407	23433.37
588.604	23056.54
588.801	23005.34
588.999	23210.14
589.196	22816.93
589.393	22976.67
589.59	22636.71
589.787	22753.44
589.984	22462.63
590.182	22374.57
590.379	22597.8
590.576	22464.68
590.773	22591.66
590.97	22276.27
591.167	22575.27
591.364	22030.51
591.561	22274.22
591.758	22077.62
591.955	22032.56
592.152	21797.04
592.349	22014.13
592.546	22012.08
592.743	21686.45
592.94	21436.6
593.137	21647.54
593.334	21786.8
593.531	21221.56
593.727	21428.41
593.924	21258.43
594.121	21287.1
594.318	21395.64
594.515	21018.82
594.712	21283
594.908	21125.31
595.105	21371.07
595.302	21129.41
595.499	21182.65
595.696	20893.89
595.892	20664.52
596.089	20795.59
596.286	20947.14
596.482	20668.61
596.679	20719.81
596.876	20662.47
597.072	20232.4
597.269	20244.68
597.466	20375.75
597.662	19984.59
597.859	20181.2
598.055	20510.92
598.252	20140.24
598.448	20234.44
598.645	20056.27
598.841	19704.02
599.038	19798.23
599.234	20130
599.431	19591.38
599.627	19577.05
599.824	19853.52
600.02	19527.89
600.217	19984.59
600.413	19382.49
600.609	19413.21
600.806	19345.62
601.002	19284.19
601.198	19472.6
601.395	19126.49
601.591	19165.4
601.787	18962.65
601.984	19116.25
602.18	19103.96
602.376	18657.51
602.572	18649.32
602.769	18993.37
602.965	18426.09
603.161	18727.14
603.357	18577.64
603.553	18475.24
603.75	18565.35
603.946	18387.18
604.142	18559.2
604.338	18213.1
604.534	18338.02
604.73	18043.12
604.926	18006.25
605.122	18151.66
605.318	18165.99
605.514	18100.46
605.71	18006.25
605.906	18133.23
606.102	17989.87
606.298	17856.75
606.494	17893.61
606.69	17787.12
606.886	17580.28
607.082	17481.97
607.278	17469.69
607.474	17336.57
607.67	17631.47
607.866	17266.94
608.062	17565.94
608.257	17029.37
608.453	17275.13
608.649	17484.02
608.845	17238.26
609.041	17174.78
609.236	17080.57
609.432	17119.48
609.628	17293.56
609.824	17090.81
610.019	16756.99
610.215	16953.6
610.411	17197.31
610.606	16742.66
610.802	16818.43
610.998	16924.93
611.193	17008.89
611.389	16867.58
611.584	16597.25
611.78	16576.77
611.976	16969.98
612.171	16847.1
612.367	16558.34
612.562	16550.15
612.758	16447.75
612.953	16435.46
613.149	16572.68
613.344	16367.88
613.539	16636.16
613.735	16431.37
613.93	16482.56
614.126	16339.21
614.321	16367.88
614.517	16361.73
614.712	16339.21
614.907	16275.72
615.103	16292.1
615.298	16165.13
615.493	16240.9
615.688	15917.33
615.884	16388.36
616.079	15966.48
616.274	16087.31
616.47	16122.12
616.665	16056.59
616.86	15792.4
617.055	15835.41
617.25	15653.14
617.445	15939.85
617.641	15499.54
617.836	15870.22
618.031	15595.79
618.226	15581.46
618.421	15567.12
618.616	15665.42
618.811	15221.02
619.006	15560.98
619.201	15147.29
619.396	15470.87
619.591	15075.61
619.786	15182.1
619.981	15245.59
620.176	15169.82
620.371	15063.32
620.566	14874.91
620.761	14860.57
620.956	14944.54
621.151	14668.06
621.346	14745.89
621.541	14592.29
621.735	14717.22
621.93	14575.91
622.125	14172.46
622.32	14106.92
622.515	14313.77
622.709	13936.94
622.904	14268.71
623.099	14078.25
623.294	13973.8
623.488	13855.02
623.683	13996.33
623.878	13646.13
624.072	13891.88
624.267	13713.71
624.462	13599.02
624.656	13404.47
624.851	13457.71
625.046	13502.77
625.24	13488.43
625.435	13240.63
625.629	13310.26
625.824	12951.87
626.018	13001.02
626.213	12812.6
626.407	12982.59
626.602	12802.36
626.796	13033.79
626.991	12800.32
627.185	12859.71
627.38	12558.66
627.574	12265.8
627.768	12261.7
627.963	12212.55
628.157	12261.7
628.352	12337.48
628.546	11852.11
628.74	12187.97
628.935	11835.72
629.129	12034.38
629.323	11690.32
629.517	11755.85
629.712	11743.56
629.906	11755.85
630.1	11692.37
630.294	11712.85
630.489	11411.79
630.683	11614.54
630.877	11120.98
631.071	11180.37
631.265	11411.79
631.459	11225.43
631.653	11360.59
631.848	11209.04
632.042	10959.19
632.236	11098.45
632.43	10983.77
632.624	11010.39
632.818	10965.34
633.012	10766.68
633.206	10778.97
633.4	10527.07
633.594	10746.2
633.788	10602.85
633.982	10529.12
634.176	10506.59
634.369	10244.45
634.563	10398.05
634.757	10256.74
634.951	10291.55
635.145	10256.74
635.339	10299.75
635.533	9879.91
635.726	9990.5
635.92	9955.69
636.114	9802.09
636.308	9886.06
636.501	9894.25
636.695	10037.61
636.889	9687.4
637.083	9828.71
637.276	9746.8
637.47	9451.89
637.664	9363.83
637.857	9582.96
638.051	9384.3
638.244	9369.97
638.438	9222.52
638.632	9224.56
638.825	9181.56
639.019	9257.33
639.212	9095.54
639.406	9042.29
639.599	8974.71
639.793	9144.69
639.986	8978.81
640.18	9101.69
640.373	8898.94
640.567	8804.73
640.76	8716.67
640.954	8733.05
641.147	8644.99
641.34	8601.98
641.534	8620.41
641.727	8432
641.92	8675.71
642.114	8477.05
642.307	8415.62
642.5	8417.66
642.694	8239.49
642.887	8159.62
643.08	8229.25
643.273	8089.99
643.467	8133
643.66	8083.84
643.853	8180.1
644.046	7991.69
644.239	8087.94
644.432	7911.82
644.626	7958.92
644.819	7899.53
645.012	7897.48
645.205	7764.36
645.398	7977.35
645.591	7676.3
645.784	7696.78
645.977	7659.92
646.17	7752.07
646.363	7330.19
646.556	7512.46
646.749	7250.32
646.942	7461.26
647.135	7502.22
647.328	7291.28
647.521	7244.18
647.714	7356.82
647.907	7266.71
648.099	7076.24
648.292	7225.75
648.485	7164.31
648.678	6875.54
648.871	6863.26
649.064	7057.81
649.256	7076.24
649.449	6805.91
649.642	6810.01
649.835	6994.33
650.027	6803.86
650.22	6857.11
650.413	6785.43
650.605	6584.73
650.798	6805.91
650.991	6816.15
651.183	6717.85
651.376	6601.12
651.568	6771.1
651.761	6551.96
651.954	6488.48
652.146	6410.65
652.339	6353.31
652.531	6343.07
652.724	6298.02
652.916	6207.91
653.109	6162.85
653.301	6273.44
653.494	6295.97
653.686	6052.26
653.879	6103.46
654.071	6089.12
654.263	6111.65
654.456	5982.63
654.648	6072.74
654.84	5947.81
655.033	5812.65
655.225	6003.11
655.417	5960.1
655.61	5824.94
655.802	5999.01
655.994	5749.16
656.186	5794.22
656.379	5831.08
656.571	5718.44
656.763	5736.87
656.955	5661.1
657.148	5534.12
657.34	5585.32
657.532	5622.19
657.724	5534.12
657.916	5716.39
658.108	5538.22
658.3	5476.78
658.492	5587.37
658.684	5398.96
658.876	5448.11
659.068	5300.66
659.26	5302.7
659.452	5257.65
659.644	5323.18
659.836	5398.96
660.028	5165.49
660.22	5126.58
660.412	5120.43
660.604	5251.5
660.796	5089.71
660.988	5079.47
661.18	5022.13
661.372	5104.05
661.563	5081.52
661.755	4970.93
661.947	4917.68
662.139	4979.12
662.331	4796.85
662.522	4970.93
662.714	4995.51
662.906	4686.26
663.097	4889.01
663.289	4741.56
663.481	4776.38
663.673	4651.45
663.864	4743.61
664.056	4716.98
664.247	4676.02
664.439	4544.95
664.631	4563.39
664.822	4561.34
665.014	4686.26
665.205	4518.33
665.397	4571.58
665.588	4528.57
665.78	4530.62
665.971	4547
666.163	4329.92
666.354	4358.59
666.546	4350.4
666.737	4401.6
666.929	4295.1
667.12	4374.97
667.311	4319.68
667.503	4252.1
667.694	4243.9
667.885	4348.35
668.077	4151.74
668.268	4178.37
668.459	4219.33
668.651	4319.68
668.842	4231.62
669.033	4037.06
669.224	4147.65
669.416	4274.62
669.607	4014.53
669.798	4116.93
669.989	4139.46
670.18	4014.53
670.371	4047.3
670.563	4006.34
670.754	3905.99
670.945	3914.18
671.136	4049.35
671.327	3930.56
671.518	3996.1
671.709	3899.84
671.9	3881.41
672.091	3940.8
672.282	3936.71
672.473	3693
672.664	3797.45
672.855	3781.06
673.046	3860.93
673.237	3815.88
673.428	3680.71
673.619	3842.5
673.809	3723.72
674	3758.53
674.191	3742.15
674.382	3801.54
674.573	3762.63
674.764	3670.47
674.954	3733.96
675.145	3647.94
675.336	3623.37
675.527	3600.84
675.717	3549.64
675.908	3537.35
676.099	3631.56
676.289	3633.61
676.48	3555.79
676.671	3535.31
676.861	3482.06
677.052	3480.01
677.243	3529.16
677.433	3500.49
677.624	3531.21
677.814	3506.63
678.005	3443.15
678.195	3492.3
678.386	3422.67
678.576	3422.67
678.767	3426.76
678.957	3400.14
679.148	3596.75
679.338	3377.61
679.529	3463.63
679.719	3328.46
679.909	3389.9
680.1	3381.71
680.29	3301.84
680.481	3326.41
680.671	3332.56
680.861	3285.45
681.052	3410.38
681.242	3299.79
681.432	3353.04
681.622	3293.65
681.813	3279.31
682.003	3246.54
682.193	3164.62
682.383	3156.43
682.573	3293.65
682.764	3283.41
682.954	3193.3
683.144	3344.84
683.334	3246.54
683.524	3162.58
683.714	3135.95
683.904	3097.04
684.094	3267.02
684.284	3111.38
684.474	3271.12
684.664	3076.56
684.854	3181.01
685.044	3080.66
685.234	3148.24
685.424	3178.96
685.614	3080.66
685.804	3092.94
685.994	3103.18
686.184	3119.57
686.374	3113.42
686.564	3033.55
686.753	3086.8
686.943	3066.32
687.133	2965.97
687.323	2943.44
687.513	3072.47
687.702	2955.73
687.892	2906.58
688.082	2988.5
688.272	2931.16
688.461	2972.11
688.651	3011.03
688.841	2793.94
689.03	2961.87
689.22	2888.15
689.41	2935.25
689.599	2865.62
689.789	2890.2
689.979	2789.85
690.168	2873.81
690.358	2738.65
690.547	2712.02
690.737	2802.13
690.926	2761.17
691.116	2742.74
691.305	2857.43
691.495	2810.33
691.684	2728.41
691.874	2648.54
692.063	2673.11
692.252	2832.85
692.442	2660.82
692.631	2619.86
692.82	2603.48
693.01	2677.21
693.199	2578.9
693.388	2554.33
693.578	2652.63
693.767	2585.05
693.956	2591.19
694.146	2466.27
694.335	2628.06
694.524	2630.1
694.713	2607.58
694.902	2468.31
695.092	2634.2
695.281	2499.03
695.47	2595.29
695.659	2578.9
695.848	2382.3
696.037	2505.18
696.226	2572.76
696.415	2468.31
696.604	2521.56
696.793	2472.41
696.982	2566.62
697.171	2466.27
697.36	2468.31
697.549	2462.17
697.738	2451.93
697.927	2331.1
698.116	2550.23
698.305	2410.97
698.494	2523.61
698.683	2312.67
698.872	2531.8
699.061	2394.59
699.25	2351.58
699.438	2302.43
699.627	2394.59
699.816	2419.16
700.005	2396.64
700.193	2296.28
700.382	2390.49
700.571	2339.29
700.76	2349.53
700.948	2468.31
701.137	2417.12
701.326	2382.3
701.514	2228.7
701.703	2234.85
701.892	2331.1
702.08	2398.68
702.269	2449.88
702.457	2193.89
702.646	2243.04
702.834	2324.96
703.023	2300.38
703.212	2327
703.4	2214.37
703.589	2365.92
703.777	2253.28
703.965	2243.04
704.154	2304.48
704.342	2232.8
704.531	2265.57
704.719	2316.76
704.907	2349.53
705.096	2243.04
705.284	2349.53
705.472	2318.81
705.661	2206.17
705.849	2269.66
706.037	2179.55
706.226	2230.75
706.414	2249.18
706.602	2159.07
706.79	2216.41
706.979	2193.89
707.167	2210.27
707.355	2292.19
707.543	2202.08
707.731	2324.96
707.919	2187.74
708.107	2152.93
708.296	2212.32
708.484	2206.17
708.672	2189.79
708.86	2191.84
709.048	2128.35
709.236	2185.69
709.424	2345.44
709.612	2304.48
709.8	2152.93
709.988	2189.79
710.176	2220.51
710.364	2154.98
710.551	2245.09
710.739	2163.17
710.927	2122.21
711.115	2161.12
711.303	2038.24
711.491	2247.13
711.679	2218.46
711.866	2142.69
712.054	2105.82
712.242	2087.39
712.43	2128.35
712.617	2105.82
712.805	2111.97
712.993	2169.31
713.181	2036.19
713.368	2154.98
713.556	2128.35
713.744	2200.03
713.931	2116.06
714.119	2138.59
714.306	2142.69
714.494	2073.06
714.682	2046.43
714.869	2064.86
715.057	2114.02
715.244	2058.72
715.432	2116.06
715.619	2128.35
715.807	2111.97
715.994	2132.45
716.182	2046.43
716.369	2099.68
716.556	2312.67
716.744	2085.34
716.931	2132.45
717.119	2103.78
717.306	2083.3
717.493	2013.67
717.681	2007.52
717.868	2042.34
718.055	2081.25
718.242	2136.54
718.43	2109.92
718.617	2087.39
718.804	2009.57
718.991	2118.11
719.179	2177.5
719.366	2011.62
719.553	2091.49
719.74	2042.34
719.927	2083.3
720.114	2046.43
720.301	1960.42
720.488	1982.95
720.676	2036.19
720.863	2064.86
721.05	2097.63
721.237	2083.3
721.424	2050.53
721.611	2073.06
721.798	1980.9
721.985	1901.03
722.172	2056.67
722.358	1999.33
722.545	2007.52
722.732	2013.67
722.919	2097.63
723.106	2038.24
723.293	2001.38
723.48	2136.54
723.667	1968.61
723.853	2017.76
724.04	2011.62
724.227	2071.01
724.414	2025.95
724.6	2038.24
724.787	2075.1
724.974	2128.35
725.161	1939.94
725.347	2056.67
725.534	2046.43
725.72	2093.54
725.907	1941.99
726.094	1966.56
726.28	1960.42
726.467	1948.13
726.653	1939.94
726.84	2091.49
727.027	2046.43
727.213	1907.17
727.4	1980.9
727.586	2066.91
727.773	2079.2
727.959	2054.62
728.145	2068.96
728.332	1964.51
728.518	2017.76
728.705	2071.01
728.891	1919.46
729.077	2058.72
729.264	1962.47
729.45	1976.8
729.636	2034.14
729.823	1989.09
730.009	1958.37
730.195	1972.71
730.382	1976.8
730.568	1980.9
730.754	1843.68
730.94	1898.98
731.126	1974.75
731.313	1966.56
731.499	1972.71
731.685	1991.14
731.871	1894.88
732.057	1993.19
732.243	1911.27
732.429	1946.08
732.615	1939.94
732.801	1876.45
732.987	1966.56
733.173	1978.85
733.359	1972.71
733.545	1952.23
733.731	1866.21
733.917	1941.99
734.103	1984.99
734.289	1884.64
734.475	1755.62
734.661	1976.8
734.847	1896.93
735.033	1800.68
735.219	2052.58
735.404	1921.51
735.59	1804.77
735.776	1841.64
735.962	1911.27
736.148	1941.99
736.333	1874.4
736.519	1925.6
736.705	1767.91
736.89	1864.16
737.076	1950.18
737.262	1874.4
737.447	1890.79
737.633	1860.07
737.819	1866.21
738.004	1884.64
738.19	1827.3
738.375	1841.64
738.561	1956.32
738.747	1858.02
738.932	1747.43
739.118	1841.64
739.303	1810.92
739.489	1892.84
739.674	1882.6
739.859	1808.87
740.045	1806.82
740.23	1898.98
740.416	1882.6
740.601	1851.88
740.786	1769.96
740.972	1858.02
741.157	1710.57
741.342	1792.48
741.528	1776.1
741.713	1747.43
741.898	1710.57
742.084	1776.1
742.269	1810.92
742.454	1753.57
742.639	1710.57
742.824	1612.26
743.01	1788.39
743.195	1829.35
743.38	1710.57
743.565	1702.37
743.75	1745.38
743.935	1685.99
744.12	1694.18
744.305	1677.8
744.49	1720.81
744.675	1685.99
744.86	1602.02
745.045	1745.38
745.23	1604.07
745.415	1640.93
745.6	1651.17
745.785	1595.88
745.97	1669.61
746.155	1602.02
746.34	1642.98
746.525	1536.49
746.71	1556.97
746.895	1645.03
747.079	1589.74
747.264	1524.2
747.449	1458.67
747.634	1587.69
747.819	1585.64
748.003	1501.67
748.188	1579.5
748.373	1538.54
748.557	1475.05
748.742	1554.92
748.927	1407.47
749.111	1434.09
749.296	1436.14
749.481	1546.73
749.665	1405.42
749.85	1350.12
750.034	1446.38
750.219	1466.86
750.404	1403.37
750.588	1378.79
750.773	1311.21
750.957	1415.66
751.141	1354.22
751.326	1276.4
751.51	1296.88
751.695	1446.38
751.879	1290.73
752.064	1423.85
752.248	1274.35
752.432	1264.11
752.617	1253.87
752.801	1296.88
752.985	1321.45
753.17	1239.53
753.354	1333.74
753.538	1264.11
753.722	1212.91
753.907	1188.33
754.091	1188.33
754.275	1231.34
754.459	1262.06
754.643	1178.09
754.828	1106.42
755.012	1196.53
755.196	1075.7
755.38	1106.42
755.564	1214.96
755.748	1079.79
755.932	1102.32
756.116	1073.65
756.3	1139.18
756.484	1149.42
756.668	1096.18
756.852	1032.69
757.036	1065.46
757.22	1116.65
757.404	928.24
757.588	1063.41
757.772	1059.31
757.956	1047.02
758.14	1112.56
758.323	1014.26
758.507	1133.04
758.691	946.67
758.875	985.58
759.059	973.3
759.242	985.58
759.426	1016.3
759.61	1006.06
759.794	1001.97
759.977	895.47
760.161	883.19
760.345	924.15
760.528	1065.46
760.712	918
760.895	903.67
761.079	887.28
761.263	915.95
761.446	936.43
761.63	1014.26
761.813	915.95
761.997	844.28
762.18	885.23
762.364	911.86
762.547	850.42
762.731	831.99
762.914	768.5
763.098	915.95
763.281	915.95
763.464	850.42
763.648	786.93
763.831	868.85
764.015	825.84
764.198	825.84
764.381	903.67
764.564	799.22
764.748	795.12
764.931	860.66
765.114	786.93
765.297	813.56
765.481	817.65
765.664	739.83
765.847	756.21
766.03	780.79
766.213	801.27
766.397	795.12
766.58	831.99
766.763	788.98
766.946	770.55
767.129	662.01
767.312	795.12
767.495	795.12
767.678	766.45
767.861	788.98
768.044	858.61
768.227	723.44
768.41	723.44
768.593	770.55
768.776	768.5
768.959	702.97
769.142	811.51
769.324	793.08
769.507	696.82
769.69	745.97
769.873	764.4
770.056	778.74
770.239	801.27
770.421	750.07
770.604	666.1
770.787	664.05
770.97	709.11
771.152	735.73
771.335	680.44
771.518	608.76
771.7	662.01
771.883	713.21
772.066	711.16
772.248	659.96
772.431	754.16
772.613	711.16
772.796	684.53
772.978	655.86
773.161	686.58
773.343	664.05
773.526	631.29
773.708	655.86
773.891	631.29
774.073	657.91
774.256	500.22
774.438	645.62
774.621	614.9
774.803	723.44
774.985	596.47
775.168	565.75
775.35	707.06
775.532	573.94
775.715	535.03
775.897	625.14
776.079	496.12
776.261	522.74
776.444	594.42
776.626	549.37
776.808	506.36
776.99	524.79
777.173	453.11
777.355	586.23
777.537	498.17
777.719	522.74
777.901	561.66
778.083	492.02
778.265	502.26
778.447	621.05
778.629	475.64
778.811	532.98
778.993	571.9
779.175	571.9
779.357	541.18
779.539	428.54
779.721	449.02
779.903	432.63
780.085	514.55
780.267	489.98
780.449	451.07
780.631	510.46
780.812	528.89
780.994	487.93
781.176	463.35
781.358	430.59
781.54	463.35
781.721	541.18
781.903	457.21
782.085	461.3
782.267	440.83
782.448	516.6
782.63	451.07
782.812	481.78
782.993	475.64
783.175	465.4
783.357	461.3
783.538	485.88
783.72	373.24
783.901	391.67
784.083	420.35
784.264	408.06
784.446	311.8
784.627	440.83
784.809	401.91
784.99	455.16
785.172	440.83
785.353	377.34
785.535	363
785.716	363
785.897	342.52
786.079	434.68
786.26	381.43
786.441	297.47
786.623	358.91
786.804	365.05
786.985	358.91
787.167	387.58
787.348	358.91
787.529	367.1
787.71	391.67
787.891	350.71
788.073	342.52
788.254	272.89
788.435	348.67
788.616	260.6
788.797	276.99
788.978	367.1
789.159	281.08
789.34	399.87
789.522	283.13
789.703	307.71
789.884	375.29
790.065	379.39
790.246	326.14
790.427	301.56
790.607	262.65
790.788	356.86
790.969	256.51
791.15	301.56
791.331	303.61
791.512	268.8
791.693	281.08
791.874	301.56
792.054	326.14
792.235	307.71
792.416	295.42
792.597	334.33
792.778	295.42
792.958	193.02
793.139	285.18
793.32	268.8
793.5	279.04
793.681	309.76
793.862	260.6
794.042	317.95
794.223	217.6
794.404	223.74
794.584	145.92
794.765	274.94
794.945	293.37
795.126	272.89
795.306	279.04
795.487	270.84
795.667	281.08
795.848	293.37
796.028	172.54
796.209	231.93
796.389	326.14
796.57	244.22
796.75	252.41
796.93	252.41
797.111	195.07
797.291	244.22
797.471	178.69
797.652	203.26
797.832	135.68
798.012	211.45
798.192	145.92
798.373	186.88
798.553	229.88
798.733	205.31
798.913	227.84
799.093	244.22
799.274	178.69
799.454	227.84
799.634	207.36
799.814	227.84
799.994	197.12
800.174	229.88
800.354	205.31
800.534	260.6
800.714	174.59
800.894	180.73
801.074	182.78
801.254	244.22
801.434	203.26
801.614	176.64
801.794	131.58
801.974	664.05
802.154	227.84
802.334	231.93
802.514	135.68
802.693	254.46
802.873	178.69
803.053	225.79
803.233	172.54
803.413	156.16
803.592	248.32
803.772	168.45
803.952	225.79
804.131	156.16
804.311	254.46
804.491	199.16
804.67	104.96
804.85	190.97
805.03	195.07
805.209	221.69
805.389	133.63
805.568	129.53
805.748	66.05
805.928	145.92
806.107	219.64
806.287	123.39
806.466	182.78
806.646	154.11
806.825	141.82
807.004	150.01
807.184	270.84
807.363	131.58
807.543	162.3
807.722	90.62
807.901	215.55
808.081	164.35
808.26	123.39
808.439	53.76
808.619	162.3
808.798	145.92
808.977	133.63
809.156	270.84
809.336	260.6
809.515	207.36
809.694	129.53
809.873	100.86
810.052	96.77
810.231	246.27
810.411	90.62
810.59	113.15
810.769	143.87
810.948	238.08
811.127	137.73
811.306	143.87
811.485	166.4
811.664	166.4
811.843	104.96
812.022	176.64
812.201	131.58
812.38	90.62
812.559	100.86
812.737	172.54
812.916	80.38
813.095	117.25
813.274	92.67
813.453	166.4
813.632	158.21
813.811	182.78
813.989	107.01
814.168	133.63
814.347	129.53
814.526	123.39
814.704	88.57
814.883	154.11
815.062	158.21
815.24	121.34
815.419	64
815.598	107.01
815.776	152.06
815.955	197.12
816.133	100.86
816.312	139.77
816.49	88.57
816.669	96.77
816.847	129.53
817.026	186.88
817.204	172.54
817.383	141.82
817.561	107.01
817.74	64
817.918	72.19
818.097	147.97
818.275	121.34
818.453	113.15
818.632	72.19
818.81	129.53
818.988	84.48
819.167	182.78
819.345	150.01
819.523	66.05
819.701	96.77
819.879	92.67
820.058	137.73
820.236	88.57
820.414	139.77
820.592	82.43
820.77	96.77
820.948	76.29
821.127	141.82
821.305	121.34
821.483	84.48
821.661	96.77
821.839	137.73
822.017	135.68
822.195	203.26
822.373	131.58
822.551	104.96
822.729	72.19
822.907	133.63
823.085	104.96
823.262	121.34
823.44	51.71
823.618	37.38
823.796	90.62
823.974	66.05
824.152	35.33
824.329	49.66
824.507	156.16
824.685	80.38
824.863	125.44
825.04	82.43
825.218	76.29
825.396	6.66
825.574	92.67
825.751	104.96
825.929	166.4
826.107	168.45
826.284	-1.54
826.462	76.29
826.639	88.57
826.817	39.42
826.994	88.57
827.172	55.81
827.349	84.48
827.527	8.7
827.704	186.88
827.882	84.48
828.059	178.69
828.237	72.19
828.414	80.38
828.591	-48.64
828.769	131.58
828.946	43.52
829.124	82.43
829.301	96.77
829.478	18.94
829.655	113.15
829.833	68.09
830.01	31.23
830.187	98.81
830.364	72.19
830.542	78.33
830.719	170.49
830.896	76.29
831.073	59.9
831.25	111.1
831.427	64
831.604	55.81
831.782	86.53
831.959	-5.63
832.136	37.38
832.313	125.44
832.49	57.86
832.667	90.62
832.844	64
833.021	84.48
833.198	129.53
833.374	14.85
833.551	84.48
833.728	98.81
833.905	41.47
834.082	4.61
834.259	76.29
834.436	137.73
834.612	-48.64
834.789	18.94
834.966	74.24
835.143	61.95
835.319	117.25
835.496	72.19
835.673	31.23
835.85	123.39
836.026	133.63
836.203	88.57
836.38	96.77
836.556	39.42
836.733	-11.78
836.909	123.39
837.086	57.86
837.262	25.09
837.439	14.85
837.616	92.67
837.792	43.52
837.968	74.24
838.145	55.81
838.321	37.38
838.498	39.42
838.674	41.47
838.851	137.73
839.027	12.8
839.203	82.43
839.38	129.53
839.556	74.24
839.732	74.24
839.909	27.14
840.085	131.58
840.261	92.67
840.437	41.47
840.614	41.47
840.79	76.29
840.966	88.57
841.142	61.95
841.318	-5.63
841.494	14.85
841.671	51.71
841.847	72.19
842.023	47.62
842.199	113.15
842.375	35.33
842.551	23.04
842.727	57.86
842.903	129.53
843.079	-26.11
843.255	96.77
843.431	10.75
843.607	64
843.783	76.29
843.959	80.38
844.134	-7.68
844.31	109.05
844.486	64
844.662	64
844.838	74.24
845.013	31.23
845.189	64
845.365	141.82
845.541	90.62
845.716	123.39
845.892	96.77
846.068	16.9
846.244	70.14
846.419	49.66
846.595	31.23
846.77	23.04
846.946	55.81
847.122	39.42
847.297	-62.98
847.473	96.77
847.648	2.56
847.824	4.61
847.999	-1.54
848.175	-5.63
848.35	-3.58
848.526	55.81
848.701	64
848.876	96.77
849.052	72.19
849.227	43.52
849.403	88.57
849.578	8.7
849.753	51.71
849.929	121.34
850.104	-13.82
850.279	72.19
850.454	20.99
850.63	80.38
850.805	39.42
850.98	47.62
851.155	92.67
851.33	64
851.505	2.56
851.681	98.81
851.856	33.28
852.031	10.75
852.206	-5.63
852.381	35.33
852.556	74.24
852.731	-7.68
852.906	37.38
853.081	31.23
853.256	35.33
853.431	20.99
853.606	-40.45
853.781	16.9
853.956	-1.54
854.131	49.66
854.305	86.53
854.48	59.9
854.655	-34.3
854.83	72.19
855.005	4.61
855.18	92.67
855.354	61.95
855.529	41.47
855.704	102.91
855.879	74.24
856.053	72.19
856.228	55.81
856.403	6.66
856.577	14.85
856.752	-1.54
856.926	6.66
857.101	-28.16
857.276	18.94
857.45	14.85
857.625	39.42
857.799	51.71
857.974	107.01
858.148	-9.73
858.323	14.85
858.497	37.38
858.672	8.7
858.846	-54.78
859.02	23.04
859.195	20.99
859.369	0.51
859.543	55.81
859.718	39.42
859.892	-3.58
860.066	74.24
860.241	92.67
860.415	57.86
860.589	33.28
860.763	96.77
860.938	-32.26
861.112	-7.68
861.286	23.04
861.46	86.53
861.634	47.62
861.808	107.01
861.982	-5.63
862.157	-40.45
862.331	49.66
862.505	47.62
862.679	14.85
862.853	115.2
863.027	-15.87
863.201	14.85
863.375	14.85
863.549	55.81
863.722	2.56
863.896	51.71
864.07	-28.16
864.244	43.52
864.418	55.81
864.592	-1.54
864.766	12.8
864.939	115.2
865.113	-15.87
865.287	2.56
865.461	-24.06
865.634	39.42
865.808	59.9
865.982	43.52
866.156	23.04
866.329	43.52
866.503	39.42
866.676	-5.63
866.85	59.9
867.024	6.66
867.197	74.24
867.371	66.05
867.544	74.24
867.718	-5.63
867.891	51.71
868.065	-9.73
868.238	-15.87
868.412	4.61
868.585	37.38
868.759	29.18
868.932	102.91
869.105	-46.59
869.279	23.04
869.452	27.14
869.625	64
869.799	-5.63
869.972	-17.92
870.145	-46.59
870.319	-24.06
870.492	-24.06
870.665	6.66
870.838	-1.54
871.011	-22.02
871.185	-50.69
871.358	84.48
871.531	70.14
871.704	10.75
871.877	16.9
872.05	-71.17
872.223	-9.73
872.396	16.9
872.569	31.23
872.742	8.7
872.915	-30.21
873.088	23.04
873.261	-5.63
873.434	57.86
873.607	57.86
873.78	68.09
873.953	-83.45
874.126	2.56
874.299	92.67
874.471	-22.02
874.644	64
874.817	25.09
874.99	107.01
875.163	55.81
875.335	27.14
875.508	-52.74
875.681	55.81
875.853	14.85
876.026	20.99
876.199	-34.3
876.371	64
876.544	0.51
876.717	45.57
876.889	16.9
877.062	6.66
877.234	27.14
877.407	35.33
877.579	23.04
877.752	14.85
877.924	92.67
878.097	10.75
878.269	-50.69
878.442	55.81
878.614	27.14
878.786	-48.64
878.959	64
879.131	41.47
879.303	0.51
879.476	23.04
879.648	0.51
879.82	25.09
879.993	-19.97
880.165	82.43
880.337	25.09
880.509	14.85
880.681	-5.63
880.854	20.99
881.026	68.09
881.198	72.19
881.37	12.8
881.542	25.09
881.714	16.9
881.886	16.9
882.058	16.9
882.23	16.9
882.402	-1.54
882.574	39.42
882.746	121.34
882.918	70.14
883.09	64
883.262	-1.54
883.434	23.04
883.606	12.8
883.778	-87.55
883.95	47.62
884.122	2.56
884.293	86.53
884.465	57.86
884.637	10.75
884.809	16.9
884.98	-1.54
885.152	10.75
885.324	6.66
885.496	16.9
885.667	2.56
885.839	109.05
886.011	100.86
886.182	-52.74
886.354	64
886.525	-7.68
886.697	-15.87
886.869	-30.21
887.04	35.33
887.212	55.81
887.383	45.57
887.555	33.28
887.726	70.14
887.897	51.71
888.069	-26.11
888.24	80.38
888.412	14.85
888.583	39.42
888.754	39.42
888.926	25.09
889.097	2.56
889.268	74.24
889.44	41.47
889.611	49.66
889.782	-56.83
889.953	6.66
890.125	80.38
890.296	-24.06
890.467	-56.83
890.638	45.57
890.809	31.23
890.98	-99.84
891.151	-62.98
891.323	25.09
891.494	84.48
891.665	23.04
891.836	6.66
892.007	-24.06
892.178	-30.21
892.349	41.47
892.52	51.71
892.691	6.66
892.862	-44.54
893.032	-1.54
893.203	-3.58
893.374	41.47
893.545	35.33
893.716	2.56
893.887	25.09
894.057	-26.11
894.228	98.81
894.399	57.86
894.57	37.38
894.74	33.28
894.911	43.52
895.082	18.94
895.253	25.09
895.423	33.28
895.594	6.66
895.764	53.76
895.935	-17.92
896.106	14.85
896.276	16.9
896.447	0.51
896.617	-26.11
896.788	-26.11
896.958	-13.82
897.129	-28.16
897.299	4.61
897.47	-15.87
897.64	55.81
897.81	41.47
897.981	66.05
898.151	8.7
898.322	27.14
898.492	88.57
898.662	18.94
898.832	-34.3
899.003	31.23
899.173	-7.68
899.343	-36.35
899.513	-34.3
