Data from USB4F104151__295__14-23-54-234.txt Node

Date: Thu Mar 13 14:23:54 EDT 2025
User: louis
Spectrometer: USB4F10415
Trigger mode: 4
Integration Time (sec): 2.000000E-2
Scans to average: 1
Electric dark correction enabled: true
Nonlinearity correction enabled: false
Boxcar width: 0
XAxis mode: Wavelengths
Number of Pixels in Spectrum: 3648
>>>>>Begin Spectral Data<<<<<
178.204	-59.05
178.424	-59.05
178.644	-59.05
178.864	-194.22
179.084	-50.86
179.304	14.68
179.524	2.39
179.744	-5.8
179.964	57.68
180.184	53.59
180.404	-24.23
180.624	-7.85
180.844	-42.67
181.064	-57
181.283	-24.23
181.503	-13.99
181.723	47.44
181.943	-46.76
182.163	90.45
182.383	-9.9
182.602	39.25
182.822	59.73
183.042	57.68
183.262	35.16
183.482	31.06
183.701	18.77
183.921	10.58
184.141	-59.05
184.361	96.6
184.58	-46.76
184.8	63.83
185.02	94.55
185.239	67.92
185.459	94.55
185.679	88.4
185.898	16.73
186.118	55.64
186.338	57.68
186.557	72.02
186.777	-34.47
186.997	-18.09
187.216	-16.04
187.436	88.4
187.655	76.12
187.875	90.45
188.095	43.35
188.314	84.31
188.534	102.74
188.753	37.2
188.973	63.83
189.192	63.83
189.412	37.2
189.631	-18.09
189.851	2.39
190.07	117.08
190.29	47.44
190.509	94.55
190.729	-32.43
190.948	74.07
191.168	112.98
191.387	104.79
191.607	47.44
191.826	14.68
192.045	55.64
192.265	59.73
192.484	115.03
192.704	82.26
192.923	55.64
193.142	98.64
193.362	-18.09
193.581	80.21
193.8	22.87
194.02	24.92
194.239	-75.43
194.458	39.25
194.678	51.54
194.897	24.92
195.116	45.4
195.335	-79.53
195.555	106.84
195.774	80.21
195.993	51.54
196.212	31.06
196.432	41.3
196.651	110.93
196.87	41.3
197.089	72.02
197.308	-1.71
197.528	90.45
197.747	41.3
197.966	-9.9
198.185	100.69
198.404	-9.9
198.623	51.54
198.842	47.44
199.062	43.35
199.281	112.98
199.5	65.88
199.719	14.68
199.938	10.58
200.157	47.44
200.376	-1.71
200.595	59.73
200.814	6.49
201.033	20.82
201.252	112.98
201.471	2.39
201.69	104.79
201.909	31.06
202.128	47.44
202.347	14.68
202.566	37.2
202.785	-40.62
203.004	35.16
203.223	63.83
203.442	29.01
203.661	-9.9
203.879	22.87
204.098	20.82
204.317	22.87
204.536	80.21
204.755	55.64
204.974	-9.9
205.193	6.49
205.411	98.64
205.63	57.68
205.849	65.88
206.068	-24.23
206.287	47.44
206.505	63.83
206.724	47.44
206.943	6.49
207.162	67.92
207.381	18.77
207.599	55.64
207.818	84.31
208.037	67.92
208.255	63.83
208.474	47.44
208.693	-9.9
208.911	4.44
209.13	41.3
209.349	63.83
209.567	22.87
209.786	121.17
210.005	98.64
210.223	45.4
210.442	24.92
210.661	8.53
210.879	8.53
211.098	74.07
211.316	55.64
211.535	31.06
211.753	49.49
211.972	24.92
212.191	8.53
212.409	43.35
212.628	45.4
212.846	41.3
213.065	49.49
213.283	88.4
213.502	65.88
213.72	0.34
213.938	65.88
214.157	104.79
214.375	0.34
214.594	65.88
214.812	47.44
215.031	-1.71
215.249	-5.8
215.467	43.35
215.686	16.73
215.904	119.12
216.122	4.44
216.341	86.36
216.559	51.54
216.778	59.73
216.996	31.06
217.214	43.35
217.432	2.39
217.651	31.06
217.869	6.49
218.087	0.34
218.306	4.44
218.524	72.02
218.742	-16.04
218.96	39.25
219.179	14.68
219.397	65.88
219.615	84.31
219.833	22.87
220.051	24.92
220.27	67.92
220.488	90.45
220.706	84.31
220.924	-34.47
221.142	-1.71
221.36	0.34
221.578	20.82
221.796	14.68
222.015	20.82
222.233	-7.85
222.451	65.88
222.669	67.92
222.887	-48.81
223.105	-5.8
223.323	82.26
223.541	6.49
223.759	41.3
223.977	33.11
224.195	65.88
224.413	67.92
224.631	49.49
224.849	24.92
225.067	88.4
225.285	-34.47
225.503	6.49
225.721	-18.09
225.939	22.87
226.157	6.49
226.375	170.32
226.592	8.53
226.81	57.68
227.028	88.4
227.246	67.92
227.464	-7.85
227.682	96.6
227.9	-1.71
228.117	41.3
228.335	-26.28
228.553	53.59
228.771	45.4
228.989	16.73
229.206	47.44
229.424	96.6
229.642	-13.99
229.86	59.73
230.077	51.54
230.295	-1.71
230.513	12.63
230.731	14.68
230.948	88.4
231.166	166.23
231.384	-67.24
231.601	31.06
231.819	123.22
232.037	-13.99
232.254	-46.76
232.472	8.53
232.689	29.01
232.907	20.82
233.125	47.44
233.342	22.87
233.56	37.2
233.777	-26.28
233.995	-26.28
234.213	121.17
234.43	39.25
234.648	-48.81
234.865	31.06
235.083	39.25
235.3	53.59
235.518	-13.99
235.735	117.08
235.953	51.54
236.17	76.12
236.388	-71.34
236.605	31.06
236.822	80.21
237.04	8.53
237.257	90.45
237.475	-26.28
237.692	-7.85
237.909	41.3
238.127	-13.99
238.344	22.87
238.562	-11.95
238.779	-24.23
238.996	-22.19
239.214	-24.23
239.431	-42.67
239.648	74.07
239.865	31.06
240.083	49.49
240.3	72.02
240.517	6.49
240.735	31.06
240.952	45.4
241.169	57.68
241.386	-50.86
241.603	6.49
241.821	-24.23
242.038	49.49
242.255	108.88
242.472	76.12
242.689	-18.09
242.907	61.78
243.124	18.77
243.341	6.49
243.558	26.96
243.775	67.92
243.992	24.92
244.209	4.44
244.426	57.68
244.643	84.31
244.86	16.73
245.078	49.49
245.295	35.16
245.512	84.31
245.729	63.83
245.946	115.03
246.163	12.63
246.38	6.49
246.597	-9.9
246.814	63.83
247.031	2.39
247.248	53.59
247.464	35.16
247.681	-28.33
247.898	45.4
248.115	-9.9
248.332	26.96
248.549	4.44
248.766	67.92
248.983	2.39
249.2	20.82
249.417	108.88
249.633	92.5
249.85	53.59
250.067	14.68
250.284	96.6
250.501	104.79
250.717	45.4
250.934	14.68
251.151	57.68
251.368	55.64
251.585	65.88
251.801	12.63
252.018	-20.14
252.235	63.83
252.451	55.64
252.668	-36.52
252.885	57.68
253.102	6.49
253.318	55.64
253.535	18.77
253.752	33.11
253.968	20.82
254.185	-32.43
254.401	59.73
254.618	39.25
254.835	-16.04
255.051	92.5
255.268	65.88
255.484	59.73
255.701	8.53
255.917	63.83
256.134	10.58
256.351	10.58
256.567	65.88
256.784	67.92
257	-38.57
257.217	76.12
257.433	-3.75
257.65	76.12
257.866	100.69
258.082	43.35
258.299	63.83
258.515	-16.04
258.732	39.25
258.948	41.3
259.165	16.73
259.381	-1.71
259.597	80.21
259.814	74.07
260.03	26.96
260.246	14.68
260.463	-24.23
260.679	-16.04
260.895	6.49
261.112	112.98
261.328	16.73
261.544	96.6
261.761	123.22
261.977	84.31
262.193	22.87
262.409	90.45
262.626	121.17
262.842	72.02
263.058	-18.09
263.274	-42.67
263.49	57.68
263.707	22.87
263.923	18.77
264.139	-18.09
264.355	18.77
264.571	104.79
264.787	-36.52
265.004	33.11
265.22	55.64
265.436	6.49
265.652	31.06
265.868	24.92
266.084	14.68
266.3	39.25
266.516	-22.19
266.732	14.68
266.948	0.34
267.164	22.87
267.38	67.92
267.596	106.84
267.812	45.4
268.028	78.16
268.244	74.07
268.46	41.3
268.676	-1.71
268.892	6.49
269.108	-26.28
269.324	4.44
269.54	-7.85
269.756	14.68
269.972	-18.09
270.188	18.77
270.403	6.49
270.619	72.02
270.835	63.83
271.051	51.54
271.267	-5.8
271.483	39.25
271.698	14.68
271.914	41.3
272.13	49.49
272.346	41.3
272.562	14.68
272.777	39.25
272.993	16.73
273.209	-32.43
273.425	41.3
273.64	2.39
273.856	31.06
274.072	84.31
274.287	-3.75
274.503	119.12
274.719	35.16
274.934	-1.71
275.15	72.02
275.366	84.31
275.581	43.35
275.797	31.06
276.012	14.68
276.228	-40.62
276.444	18.77
276.659	100.69
276.875	24.92
277.09	24.92
277.306	-3.75
277.521	31.06
277.737	-9.9
277.952	98.64
278.168	8.53
278.383	57.68
278.599	51.54
278.814	26.96
279.03	31.06
279.245	80.21
279.461	14.68
279.676	55.64
279.892	-9.9
280.107	-24.23
280.322	-34.47
280.538	55.64
280.753	29.01
280.969	10.58
281.184	-7.85
281.399	22.87
281.615	55.64
281.83	22.87
282.045	-77.48
282.26	22.87
282.476	-16.04
282.691	82.26
282.906	59.73
283.122	51.54
283.337	33.11
283.552	26.96
283.767	45.4
283.983	47.44
284.198	26.96
284.413	43.35
284.628	-50.86
284.843	10.58
285.058	65.88
285.274	112.98
285.489	-34.47
285.704	57.68
285.919	147.8
286.134	24.92
286.349	51.54
286.564	2.39
286.779	37.2
286.995	31.06
287.21	29.01
287.425	8.53
287.64	33.11
287.855	96.6
288.07	16.73
288.285	74.07
288.5	112.98
288.715	72.02
288.93	47.44
289.145	-9.9
289.36	59.73
289.575	31.06
289.79	76.12
290.004	65.88
290.219	26.96
290.434	-24.23
290.649	-9.9
290.864	10.58
291.079	8.53
291.294	100.69
291.509	-7.85
291.724	20.82
291.938	35.16
292.153	59.73
292.368	67.92
292.583	47.44
292.798	47.44
293.012	88.4
293.227	-22.19
293.442	0.34
293.657	-1.71
293.871	-1.71
294.086	96.6
294.301	55.64
294.516	72.02
294.73	20.82
294.945	57.68
295.16	51.54
295.374	74.07
295.589	51.54
295.804	43.35
296.018	96.6
296.233	72.02
296.447	67.92
296.662	-24.23
296.877	51.54
297.091	59.73
297.306	-54.95
297.52	43.35
297.735	0.34
297.949	24.92
298.164	49.49
298.378	57.68
298.593	63.83
298.807	14.68
299.022	-24.23
299.236	12.63
299.451	76.12
299.665	74.07
299.88	-50.86
300.094	18.77
300.309	26.96
300.523	55.64
300.737	-7.85
300.952	22.87
301.166	76.12
301.381	-13.99
301.595	35.16
301.809	121.17
302.024	29.01
302.238	-7.85
302.452	18.77
302.667	94.55
302.881	106.84
303.095	47.44
303.309	100.69
303.524	6.49
303.738	22.87
303.952	-24.23
304.166	59.73
304.381	-9.9
304.595	129.36
304.809	4.44
305.023	33.11
305.237	18.77
305.452	24.92
305.666	106.84
305.88	47.44
306.094	67.92
306.308	65.88
306.522	49.49
306.736	80.21
306.95	67.92
307.164	18.77
307.379	24.92
307.593	-46.76
307.807	84.31
308.021	49.49
308.235	12.63
308.449	22.87
308.663	131.41
308.877	53.59
309.091	24.92
309.305	-3.75
309.519	-34.47
309.733	139.6
309.947	20.82
310.161	43.35
310.374	31.06
310.588	-1.71
310.802	24.92
311.016	57.68
311.23	4.44
311.444	-7.85
311.658	-42.67
311.872	-1.71
312.085	65.88
312.299	72.02
312.513	106.84
312.727	80.21
312.941	0.34
313.154	43.35
313.368	67.92
313.582	100.69
313.796	41.3
314.009	-7.85
314.223	84.31
314.437	43.35
314.651	80.21
314.864	80.21
315.078	43.35
315.292	-11.95
315.505	-34.47
315.719	-30.38
315.933	55.64
316.146	2.39
316.36	-46.76
316.573	78.16
316.787	76.12
317.001	76.12
317.214	-34.47
317.428	80.21
317.641	-5.8
317.855	74.07
318.068	33.11
318.282	92.5
318.495	100.69
318.709	63.83
318.922	24.92
319.136	65.88
319.349	90.45
319.563	53.59
319.776	-26.28
319.99	55.64
320.203	112.98
320.417	84.31
320.63	8.53
320.843	10.58
321.057	55.64
321.27	43.35
321.483	63.83
321.697	96.6
321.91	-59.05
322.124	20.82
322.337	51.54
322.55	-11.95
322.763	-13.99
322.977	-7.85
323.19	-42.67
323.403	84.31
323.617	0.34
323.83	106.84
324.043	8.53
324.256	33.11
324.469	-28.33
324.683	63.83
324.896	98.64
325.109	88.4
325.322	20.82
325.535	86.36
325.748	123.22
325.962	-1.71
326.175	14.68
326.388	51.54
326.601	96.6
326.814	69.97
327.027	74.07
327.24	106.84
327.453	-9.9
327.666	131.41
327.879	18.77
328.092	61.78
328.305	84.31
328.518	33.11
328.731	-3.75
328.944	121.17
329.157	63.83
329.37	24.92
329.583	63.83
329.796	104.79
330.009	31.06
330.222	72.02
330.435	49.49
330.648	61.78
330.861	43.35
331.073	61.78
331.286	26.96
331.499	39.25
331.712	57.68
331.925	33.11
332.138	6.49
332.35	112.98
332.563	31.06
332.776	125.27
332.989	47.44
333.202	84.31
333.414	-30.38
333.627	4.44
333.84	-1.71
334.053	16.73
334.265	112.98
334.478	57.68
334.691	2.39
334.903	18.77
335.116	18.77
335.329	47.44
335.541	51.54
335.754	63.83
335.966	65.88
336.179	63.83
336.392	106.84
336.604	8.53
336.817	76.12
337.029	-18.09
337.242	84.31
337.454	22.87
337.667	106.84
337.88	72.02
338.092	63.83
338.305	121.17
338.517	65.88
338.729	74.07
338.942	65.88
339.154	39.25
339.367	-1.71
339.579	-18.09
339.792	22.87
340.004	55.64
340.217	12.63
340.429	45.4
340.641	-32.43
340.854	72.02
341.066	61.78
341.278	72.02
341.491	47.44
341.703	-18.09
341.915	55.64
342.128	88.4
342.34	51.54
342.552	49.49
342.764	82.26
342.977	6.49
343.189	67.92
343.401	8.53
343.613	76.12
343.826	57.68
344.038	72.02
344.25	31.06
344.462	31.06
344.674	108.88
344.886	41.3
345.099	72.02
345.311	72.02
345.523	24.92
345.735	-22.19
345.947	63.83
346.159	-50.86
346.371	31.06
346.583	-3.75
346.795	98.64
347.007	-1.71
347.219	14.68
347.431	76.12
347.643	112.98
347.855	29.01
348.067	67.92
348.279	14.68
348.491	8.53
348.703	-22.19
348.915	110.93
349.127	59.73
349.339	41.3
349.551	35.16
349.763	39.25
349.975	94.55
350.187	94.55
350.399	117.08
350.61	41.3
350.822	41.3
351.034	82.26
351.246	22.87
351.458	82.26
351.669	76.12
351.881	145.75
352.093	69.97
352.305	129.36
352.517	57.68
352.728	31.06
352.94	63.83
353.152	24.92
353.363	33.11
353.575	49.49
353.787	39.25
353.999	31.06
354.21	98.64
354.422	-16.04
354.633	-22.19
354.845	22.87
355.057	51.54
355.268	47.44
355.48	49.49
355.692	18.77
355.903	14.68
356.115	104.79
356.326	-1.71
356.538	115.03
356.749	24.92
356.961	6.49
357.172	92.5
357.384	31.06
357.595	59.73
357.807	55.64
358.018	22.87
358.23	51.54
358.441	104.79
358.653	96.6
358.864	-7.85
359.075	88.4
359.287	-9.9
359.498	41.3
359.709	65.88
359.921	41.3
360.132	53.59
360.344	84.31
360.555	65.88
360.766	-22.19
360.977	141.65
361.189	39.25
361.4	112.98
361.611	55.64
361.823	49.49
362.034	63.83
362.245	49.49
362.456	35.16
362.667	4.44
362.879	63.83
363.09	76.12
363.301	76.12
363.512	35.16
363.723	59.73
363.935	76.12
364.146	6.49
364.357	63.83
364.568	65.88
364.779	47.44
364.99	63.83
365.201	-44.71
365.412	49.49
365.623	24.92
365.834	-13.99
366.045	-24.23
366.256	63.83
366.467	65.88
366.678	35.16
366.889	106.84
367.1	31.06
367.311	57.68
367.522	14.68
367.733	37.2
367.944	172.37
368.155	24.92
368.366	33.11
368.577	104.79
368.788	96.6
368.999	82.26
369.209	102.74
369.42	100.69
369.631	96.6
369.842	41.3
370.053	69.97
370.264	51.54
370.474	-32.43
370.685	121.17
370.896	76.12
371.107	69.97
371.317	112.98
371.528	-63.15
371.739	65.88
371.95	22.87
372.16	86.36
372.371	74.07
372.582	63.83
372.792	22.87
373.003	153.94
373.214	65.88
373.424	82.26
373.635	10.58
373.846	63.83
374.056	55.64
374.267	33.11
374.477	-13.99
374.688	22.87
374.898	72.02
375.109	153.94
375.319	88.4
375.53	84.31
375.74	90.45
375.951	96.6
376.161	55.64
376.372	102.74
376.582	88.4
376.793	131.41
377.003	43.35
377.214	166.23
377.424	135.51
377.635	-9.9
377.845	55.64
378.055	168.27
378.266	-48.81
378.476	69.97
378.686	92.5
378.897	35.16
379.107	82.26
379.317	80.21
379.528	55.64
379.738	67.92
379.948	59.73
380.158	57.68
380.369	74.07
380.579	78.16
380.789	22.87
380.999	31.06
381.21	59.73
381.42	65.88
381.63	86.36
381.84	72.02
382.05	82.26
382.261	65.88
382.471	182.61
382.681	57.68
382.891	104.79
383.101	47.44
383.311	6.49
383.521	57.68
383.731	84.31
383.941	49.49
384.151	35.16
384.361	72.02
384.571	74.07
384.781	90.45
384.991	129.36
385.201	125.27
385.411	47.44
385.621	24.92
385.831	100.69
386.041	110.93
386.251	67.92
386.461	65.88
386.671	43.35
386.881	67.92
387.091	47.44
387.301	121.17
387.511	90.45
387.72	117.08
387.93	72.02
388.14	24.92
388.35	-18.09
388.56	129.36
388.769	98.64
388.979	47.44
389.189	88.4
389.399	135.51
389.609	96.6
389.818	43.35
390.028	72.02
390.238	0.34
390.447	6.49
390.657	102.74
390.867	112.98
391.076	72.02
391.286	51.54
391.496	96.6
391.705	-7.85
391.915	100.69
392.125	39.25
392.334	2.39
392.544	90.45
392.753	119.12
392.963	92.5
393.172	16.73
393.382	47.44
393.591	86.36
393.801	59.73
394.01	147.8
394.22	80.21
394.429	10.58
394.639	18.77
394.848	84.31
395.058	26.96
395.267	82.26
395.477	74.07
395.686	57.68
395.895	80.21
396.105	174.42
396.314	117.08
396.524	110.93
396.733	80.21
396.942	43.35
397.152	112.98
397.361	137.56
397.57	117.08
397.78	51.54
397.989	119.12
398.198	172.37
398.407	108.88
398.617	112.98
398.826	96.6
399.035	121.17
399.244	125.27
399.453	65.88
399.663	84.31
399.872	121.17
400.081	10.58
400.29	178.51
400.499	98.64
400.708	33.11
400.917	137.56
401.127	129.36
401.336	104.79
401.545	158.03
401.754	84.31
401.963	125.27
402.172	106.84
402.381	57.68
402.59	115.03
402.799	160.08
403.008	139.6
403.217	158.03
403.426	172.37
403.635	137.56
403.844	139.6
404.053	115.03
404.262	108.88
404.471	176.47
404.68	123.22
404.888	112.98
405.097	123.22
405.306	180.56
405.515	143.7
405.724	153.94
405.933	207.19
406.142	186.71
406.35	198.99
406.559	119.12
406.768	180.56
406.977	278.87
407.185	227.67
407.394	194.9
407.603	180.56
407.812	248.15
408.02	278.87
408.229	291.15
408.438	301.39
408.646	252.24
408.855	201.04
409.064	268.63
409.272	237.91
409.481	350.54
409.69	285.01
409.898	297.3
410.107	330.06
410.315	385.36
410.524	278.87
410.733	407.89
410.941	330.06
411.15	393.55
411.358	352.59
411.567	457.04
411.775	352.59
411.984	350.54
412.192	473.42
412.401	448.85
412.609	438.61
412.818	522.57
413.026	448.85
413.234	512.33
413.443	571.72
413.651	538.96
413.86	598.35
414.068	569.68
414.276	643.4
414.485	624.97
414.693	704.84
414.901	758.09
415.11	784.71
415.318	688.46
415.526	743.75
415.734	829.77
415.943	739.66
416.151	880.97
416.359	817.48
416.567	948.55
416.776	948.55
416.984	956.74
417.192	989.51
417.4	1012.04
417.608	1046.85
417.817	1128.77
418.025	1212.74
418.233	1145.16
418.441	1161.54
418.649	1268.03
418.857	1317.19
419.065	1401.15
419.273	1349.95
419.481	1409.34
419.689	1440.06
419.897	1440.06
420.105	1677.63
420.313	1571.13
420.521	1710.4
420.729	1636.67
420.937	1780.03
421.145	1835.32
421.353	1827.13
421.561	1909.05
421.769	2019.64
421.977	2169.14
422.185	2042.17
422.393	2224.44
422.601	2412.85
422.809	2283.83
423.017	2378.03
423.224	2396.46
423.432	2496.82
423.64	2548.01
423.848	2783.53
424.056	2611.5
424.263	3035.43
424.471	2914.6
424.679	2992.42
424.887	3127.59
425.094	3365.15
425.302	3318.05
425.51	3416.35
425.718	3324.19
425.925	3498.27
426.133	3658.01
426.341	3840.28
426.548	4112.66
426.756	3780.89
426.964	4063.51
427.171	4380.95
427.379	4434.19
427.586	4479.25
427.794	4579.6
428.001	4747.53
428.209	5064.97
428.417	5015.82
428.624	5191.94
428.832	5320.96
429.039	5193.99
429.247	5183.75
429.454	5597.44
429.662	6207.73
429.869	5699.84
430.076	6029.56
430.284	5910.78
430.491	6160.63
430.699	6775.02
430.906	6551.79
431.114	6564.08
431.321	6985.96
431.528	7235.81
431.736	7452.9
431.943	7692.51
432.15	7706.85
432.358	7583.97
432.565	8091.87
432.772	8042.71
432.979	8448.21
433.187	8480.98
433.394	8726.74
433.601	9394.37
433.808	9423.05
434.016	9308.36
434.223	9750.72
434.43	10258.62
434.637	9869.5
434.844	10657.97
435.052	10918.06
435.259	10594.48
435.466	11016.37
435.673	10635.44
435.88	11423.91
436.087	11892.9
436.294	11804.83
436.501	11704.48
436.708	11974.81
436.915	12267.67
437.122	12796.05
437.329	12599.45
437.537	13172.88
437.743	13424.78
437.95	13093.01
438.157	14135.42
438.364	14645.37
438.571	14557.3
438.778	14686.33
438.985	15898.72
439.192	15341.68
439.399	15792.23
439.606	15304.81
439.813	16502.87
440.02	17217.61
440.227	16554.07
440.433	16808.02
440.64	17348.68
440.847	17293.39
441.054	17915.97
441.261	18675.77
441.467	18741.3
441.674	19034.16
441.881	19593.26
442.088	19630.12
442.294	19396.65
442.501	19925.03
442.708	20289.57
442.914	21018.64
443.121	22089.73
443.328	21487.63
443.534	22745.08
443.741	22251.52
443.948	21622.8
444.154	23666.67
444.361	23746.54
444.568	23812.07
444.774	23584.75
444.981	23527.41
445.187	24317.92
445.394	25462.74
445.6	25202.64
445.807	27393.97
446.013	26050.5
446.22	26759.1
446.426	27676.59
446.633	28022.7
446.839	29192.09
447.046	27781.04
447.252	29116.31
447.459	29372.31
447.665	29048.73
447.871	30390.15
448.078	31752.05
448.284	30351.24
448.491	30869.37
448.697	32339.82
448.903	33210.2
449.11	32948.06
449.316	32556.9
449.522	33214.3
449.728	33990.48
449.935	34068.3
450.141	34172.75
450.347	35112.77
450.553	33955.66
450.76	34498.37
450.966	35434.3
451.172	35235.64
451.378	35974.96
451.584	35024.7
451.791	36128.56
451.997	36048.69
452.203	36450.09
452.409	36597.54
452.615	36423.47
452.821	34717.51
453.027	34950.98
453.233	36628.26
453.44	35608.37
453.646	35581.75
453.852	35880.75
454.058	36474.66
454.264	35292.99
454.47	36507.43
454.676	35338.04
454.882	36486.95
455.088	33634.13
455.294	33945.42
455.5	34295.63
455.705	34926.4
455.911	33124.19
456.117	32802.66
456.323	32298.86
456.529	30529.41
456.735	32053.1
456.941	31090.55
457.147	30836.61
457.352	30085
457.558	29503.38
457.764	29745.04
457.97	28757.92
458.176	28426.15
458.381	28348.32
458.587	27207.61
458.793	27189.17
458.999	25530.32
459.204	27484.08
459.41	26656.7
459.616	25167.83
459.821	25163.73
460.027	24874.97
460.233	24500.19
460.438	23261.17
460.644	23668.72
460.85	22376.45
461.055	22212.61
461.261	22114.31
461.466	20414.49
461.672	19675.18
461.878	21336.08
462.083	20072.48
462.289	19499.05
462.494	19406.89
462.7	18339.9
462.905	17928.26
463.111	18599.99
463.316	18397.24
463.522	18278.46
463.727	18507.83
463.932	18165.82
464.138	18276.41
464.343	18169.92
464.549	17678.41
464.754	18280.51
464.959	17862.72
465.165	17737.8
465.37	17266.77
465.575	16668.76
465.781	17311.82
465.986	17309.77
466.191	16722.01
466.397	16552.02
466.602	15751.27
466.807	16132.19
467.012	16177.25
467.218	16480.35
467.423	15929.44
467.628	16144.48
467.833	16672.85
468.038	16085.09
468.244	15530.09
468.449	16521.31
468.654	15616.1
468.859	15485.03
469.064	15548.52
469.269	14852.21
469.474	15110.25
469.679	15407.21
469.885	14997.62
470.09	15194.22
470.295	15136.88
470.5	14639.22
470.705	14770.29
470.91	14526.58
471.115	14260.35
471.32	14731.38
471.525	14213.24
471.73	14176.38
471.935	14186.62
472.139	13721.73
472.344	13901.95
472.549	13719.68
472.754	13494.41
472.959	13031.57
473.164	12851.35
473.369	13090.96
473.574	13226.12
473.778	13238.41
473.983	13041.81
474.188	12851.35
474.393	12402.84
474.598	12363.93
474.802	12226.71
475.007	12501.14
475.212	12183.71
475.417	11679.91
475.621	11716.77
475.826	12126.36
476.031	11538.6
476.235	11428.01
476.44	11835.55
476.645	11335.85
476.849	11505.83
477.054	11464.87
477.259	11028.65
477.463	11192.49
477.668	10660.02
477.872	11020.46
478.077	10725.55
478.282	10410.17
478.486	10340.54
478.691	10287.29
478.895	10184.89
479.1	10148.03
479.304	10291.38
479.509	10000.57
479.713	10313.91
479.918	9986.24
480.122	9648.32
480.326	9996.48
480.531	9922.75
480.735	9746.62
480.94	9648.32
481.144	10039.48
481.348	9693.38
481.553	9822.4
481.757	9435.33
481.961	9697.47
482.166	9681.09
482.37	9625.79
482.574	9306.31
482.778	9312.46
482.983	9697.47
483.187	9404.61
483.391	9457.86
483.595	9386.18
483.8	9435.33
484.004	9564.36
484.208	9631.94
484.412	9584.84
484.616	9361.61
484.821	9369.8
485.025	9347.27
485.229	9494.72
485.433	9365.7
485.637	9472.2
485.841	9509.06
486.045	9271.5
486.249	9470.15
486.453	9443.53
486.657	9451.72
486.861	9455.81
487.065	9216.2
487.269	9615.55
487.473	9416.9
487.677	9588.93
487.881	9525.44
488.085	9470.15
488.289	9590.98
488.493	9453.77
488.697	9631.94
488.901	9660.61
489.105	9461.96
489.309	9468.1
489.512	9685.19
489.716	9658.56
489.92	9609.41
490.124	9631.94
490.328	9621.7
490.531	9586.88
490.735	9769.15
490.939	9687.23
491.143	9529.54
491.346	9844.93
491.55	9967.81
491.754	9926.85
491.958	9937.09
492.161	9885.89
492.365	10225.85
492.569	10029.24
492.772	9760.96
492.976	10229.95
493.18	10045.63
493.383	10287.29
493.587	10541.24
493.79	10109.12
493.994	10166.46
494.197	10463.41
494.401	10311.86
494.605	10518.71
494.808	10674.35
495.012	10547.38
495.215	10862.77
495.419	10647.73
495.622	10754.23
495.825	11098.28
496.029	11049.13
496.232	11098.28
496.436	11385
496.639	11452.58
496.843	11163.82
497.046	11432.1
497.249	11616.42
497.453	11837.6
497.656	11784.35
497.859	11767.97
498.063	12103.84
498.266	12288.15
498.469	12210.33
498.673	12230.81
498.876	12548.25
499.079	12736.66
499.282	12656.79
499.485	13074.57
499.689	13035.66
499.892	13095.05
500.095	13217.93
500.298	13586.57
500.501	13465.74
500.705	13467.78
500.908	13760.64
501.111	13949.06
501.314	14084.22
501.517	14342.27
501.72	14606.45
501.923	14483.58
502.126	14596.21
502.329	14923.89
502.532	15022.19
502.735	14915.7
502.938	15243.37
503.141	15493.22
503.344	15804.52
503.547	15530.09
503.75	16070.75
503.953	16244.83
504.156	16482.39
504.359	16746.58
504.562	16629.85
504.765	16785.49
504.968	17201.23
505.17	17170.51
505.373	17367.12
505.576	17410.12
505.779	17586.25
505.982	17758.28
506.185	18436.16
506.387	18245.69
506.59	18315.33
506.793	18866.23
506.996	18511.93
507.198	19028.02
507.401	19083.31
507.604	19454
507.807	19695.66
508.009	19998.76
508.212	20006.95
508.415	20244.51
508.617	20471.84
508.82	20520.99
509.022	20613.15
509.225	21071.89
509.428	21129.23
509.63	21512.21
509.833	21395.47
510.035	21952.52
510.238	21954.57
510.44	22181.89
510.643	22552.57
510.845	22837.24
511.048	22669.31
511.25	22958.07
511.453	22792.19
511.655	24127.46
511.858	23840.75
512.06	24020.97
512.262	24389.6
512.465	24147.94
512.667	24485.86
512.87	24874.97
513.072	24782.81
513.274	25159.64
513.477	25599.95
513.679	25616.33
513.881	25620.43
514.084	26212.29
514.286	26425.28
514.488	26560.45
514.69	27269.05
514.893	27172.79
515.095	27205.56
515.297	27996.07
515.499	27434.93
515.701	27785.13
515.904	28309.41
516.106	28481.44
516.308	28651.42
516.51	28864.41
516.712	29323.16
516.914	29630.35
517.116	30066.57
517.318	30125.96
517.52	30103.43
517.722	30441.35
517.925	30779.26
518.127	31115.13
518.329	31334.26
518.531	31272.82
518.733	31797.1
518.935	32006
519.136	32364.39
519.338	32487.27
519.54	32698.21
519.742	33103.71
519.944	33019.74
520.146	33808.21
520.348	33601.36
520.55	33951.57
520.752	34174.8
520.954	34701.12
521.155	34191.18
521.357	35016.51
521.559	34897.73
521.761	35409.72
521.963	35481.4
522.164	35946.29
522.366	36122.41
522.568	36050.74
522.77	36679.46
522.971	36611.88
523.173	36509.48
523.375	37230.37
523.576	36745
523.778	37173.02
523.98	37721.88
524.181	38055.7
524.383	37728.02
524.584	38424.33
524.786	38270.73
524.988	38295.31
525.189	38727.43
525.391	38915.84
525.592	38874.88
525.794	39233.28
525.995	39593.72
526.197	39550.71
526.398	39472.89
526.6	39773.94
526.801	39665.4
527.003	40134.38
527.204	39927.54
527.406	40490.73
527.607	40455.92
527.808	40439.53
528.01	40068.85
528.211	40443.63
528.412	41357.02
528.614	40500.97
528.815	40724.2
529.016	40955.62
529.218	41055.97
529.419	41283.3
529.62	41379.55
529.822	41072.35
530.023	41594.59
530.224	41412.32
530.425	41463.52
530.626	40787.69
530.828	41242.34
531.029	42092.24
531.23	41682.65
531.431	41586.39
531.632	41809.62
531.833	41920.21
532.035	41885.4
532.236	41909.97
532.437	41869.01
532.638	41832.15
532.839	41840.34
533.04	42280.66
533.241	41764.57
533.442	42419.92
533.643	42147.54
533.844	42163.92
534.045	42092.24
534.246	41930.45
534.447	42006.23
534.648	41783
534.849	42125.01
535.05	41672.41
535.251	42196.69
535.451	42245.84
535.652	42092.24
535.853	41862.87
536.054	42342.1
536.255	42294.99
536.456	41881.3
536.657	42655.43
536.857	41909.97
537.058	41879.25
537.259	42485.45
537.46	42389.2
537.66	42024.66
537.861	42047.19
538.062	42079.96
538.263	42362.57
538.463	42239.7
538.664	42266.32
538.865	42182.35
539.065	42170.07
539.266	41318.11
539.466	42108.63
539.667	41606.87
539.868	42086.1
540.068	42016.47
540.269	41664.22
540.469	42196.69
540.67	41701.08
540.87	41668.31
541.071	41690.84
541.271	41783
541.472	41430.75
541.672	41871.06
541.873	41496.28
542.073	41219.81
542.274	41651.93
542.474	41703.13
542.675	41340.64
542.875	41754.33
543.075	41514.72
543.276	41068.26
543.476	41959.13
543.676	41561.82
543.877	41613.02
544.077	41363.17
544.277	41561.82
544.478	41643.74
544.678	41555.68
544.878	41078.5
545.078	41078.5
545.279	40984.29
545.479	41522.91
545.679	41301.73
545.879	41238.24
546.079	41234.14
546.28	41170.66
546.48	40994.53
546.68	41213.66
546.88	41012.96
547.08	41135.84
547.28	41246.43
547.48	40937.19
547.68	41213.66
547.88	41158.37
548.081	41490.14
548.281	41215.71
548.481	41058.02
548.681	41803.48
548.881	41174.75
549.081	40906.47
549.28	40822.5
549.48	41479.9
549.68	40984.29
549.88	41168.61
550.08	40679.14
550.28	41094.88
550.48	40683.24
550.68	41053.92
550.88	41174.75
551.08	40965.86
551.279	41160.42
551.479	40525.55
551.679	41234.14
551.879	40996.58
552.079	41203.42
552.278	40664.81
552.478	40914.66
552.678	40681.19
552.878	41160.42
553.077	40681.19
553.277	40576.75
553.477	41381.6
553.676	40759.02
553.876	41047.78
554.076	40601.32
554.275	40593.13
554.475	40627.95
554.674	40707.82
554.874	40898.28
555.074	40431.34
555.273	40842.98
555.473	40619.75
555.672	40369.9
555.872	40386.29
556.071	40496.88
556.271	40625.9
556.47	40316.65
556.67	40054.51
556.869	40269.55
557.068	40541.93
557.268	40138.48
557.467	40136.43
557.667	40308.46
557.866	39923.44
558.065	40310.51
558.265	39749.37
558.464	39927.54
558.663	40406.76
558.863	39847.67
559.062	40572.65
559.261	39739.13
559.461	40271.6
559.66	39466.75
559.859	39866.1
560.058	39495.42
560.258	40165.1
560.457	39464.7
560.656	40238.83
560.855	39440.12
561.054	39573.24
561.253	39431.93
561.453	39720.7
561.652	39993.08
561.851	39575.29
562.05	39120.64
562.249	39089.92
562.448	39778.04
562.647	39315.2
562.846	39253.76
563.045	39257.85
563.244	38686.47
563.443	39276.29
563.642	38891.27
563.841	38831.88
564.04	38594.31
564.239	39192.32
564.438	38197.01
564.637	38872.84
564.836	38645.51
565.035	38291.21
565.234	38737.67
565.432	38317.84
565.631	38190.86
565.83	38522.63
566.029	38414.09
566.228	37916.43
566.427	38086.42
566.625	37914.39
566.824	37977.87
567.023	38256.4
567.222	37357.34
567.42	38020.88
567.619	37529.37
567.818	37701.4
568.016	37443.35
568.215	37537.56
568.414	37322.52
568.612	37711.64
568.811	37216.03
569.01	37398.3
569.208	36839.2
569.407	37310.24
569.605	36503.34
569.804	36912.93
570.002	36988.7
570.201	37140.25
570.4	36380.46
570.598	36380.46
570.797	35905.33
570.995	36142.89
571.193	36003.63
571.392	36826.92
571.59	36181.81
571.789	36122.41
571.987	35817.27
572.186	36138.8
572.384	36194.09
572.582	35960.62
572.781	36249.39
572.979	35569.46
573.177	35454.78
573.376	35571.51
573.574	35524.41
573.772	35622.71
573.971	35430.2
574.169	34914.11
574.367	34903.87
574.565	34965.31
574.763	34770.75
574.962	35006.27
575.16	34283.34
575.358	34748.23
575.556	34352.97
575.754	34899.78
575.952	34449.22
576.151	34651.97
576.349	34123.6
576.547	34178.89
576.745	34617.16
576.943	34193.23
577.141	33828.69
577.339	34287.43
577.537	33740.63
577.735	33890.13
577.933	33595.22
578.131	33679.19
578.329	33541.97
578.527	33040.22
578.725	33570.65
578.923	33986.38
579.121	33341.27
579.319	33228.63
579.516	33431.38
579.714	33324.89
579.912	33388.38
580.11	32968.54
580.308	32765.79
580.506	32819.04
580.704	32667.49
580.901	33058.65
581.099	33034.08
581.297	32438.12
581.495	32427.88
581.692	32421.73
581.89	31899.5
582.088	32284.52
582.285	32024.43
582.483	32157.55
582.681	32169.83
582.878	32024.43
583.076	31287.16
583.274	31747.95
583.471	31747.95
583.669	31252.34
583.866	31278.97
584.064	31520.63
584.262	30988.16
584.459	31379.32
584.657	31268.73
584.854	31221.62
585.052	30924.67
585.249	31016.83
585.447	30861.18
585.644	30695.3
585.841	30881.66
586.039	30687.11
586.236	30330.76
586.434	30529.41
586.631	30076.81
586.828	30224.26
587.026	30349.19
587.223	30375.81
587.42	29933.45
587.618	30064.52
587.815	30138.25
588.012	29751.18
588.21	29656.98
588.407	29949.84
588.604	29386.64
588.801	29374.36
588.999	29730.7
589.196	29364.12
589.393	29542.29
589.59	29144.98
589.787	29255.57
589.984	28893.08
590.182	28819.36
590.379	28909.47
590.576	28753.82
590.773	28913.56
590.97	28524.45
591.167	28886.94
591.364	28368.8
591.561	28561.31
591.758	28075.94
591.955	28002.22
592.152	28397.48
592.349	28116.9
592.546	28153.77
592.743	28067.75
592.94	27584.43
593.137	28286.89
593.334	28172.2
593.531	27682.73
593.727	27776.94
593.924	27877.29
594.121	27271.09
594.318	27252.66
594.515	27002.81
594.712	27324.34
594.908	26988.47
595.105	27420.59
595.302	27135.93
595.499	27154.36
595.696	26927.03
595.892	26750.91
596.089	27131.83
596.286	26755.01
596.482	26787.77
596.679	26683.33
596.876	26509.25
597.072	26404.8
597.269	26222.53
597.466	26064.84
597.662	26044.36
597.859	26181.57
598.055	26077.13
598.252	26040.26
598.448	25921.48
598.645	25683.92
598.841	25915.34
599.038	25810.89
599.234	25358.29
599.431	25350.1
599.627	25235.41
599.824	25501.65
600.02	25092.05
600.217	25628.62
600.413	25255.89
600.609	24971.22
600.806	24963.03
601.002	25165.78
601.198	24979.42
601.395	24887.26
601.591	24590.3
601.787	24879.07
601.984	24557.53
602.18	24672.22
602.376	24418.27
602.572	24133.61
602.769	24184.8
602.965	24211.43
603.161	24285.15
603.357	23986.15
603.553	24008.68
603.75	23836.65
603.946	23906.28
604.142	23846.89
604.338	23582.7
604.534	23840.75
604.73	23486.45
604.926	23795.69
605.122	23613.42
605.318	23255.03
605.514	23363.57
605.71	23420.91
605.906	22894.58
606.102	23185.4
606.298	23212.02
606.494	22865.91
606.69	23003.13
606.886	23148.53
607.082	22722.55
607.278	22943.74
607.474	22642.68
607.67	22976.5
607.866	22554.62
608.062	22849.53
608.257	22609.92
608.453	22722.55
608.649	22650.88
608.845	22462.46
609.041	22476.8
609.236	22536.19
609.432	22308.86
609.628	22204.42
609.824	22319.1
610.019	22059.01
610.215	22278.15
610.411	22276.1
610.606	21886.98
610.802	22302.72
610.998	22087.68
611.193	22194.18
611.389	21968.9
611.584	21927.94
611.78	21772.3
611.976	21817.35
612.171	21843.98
612.367	21659.66
612.562	21483.53
612.758	21381.14
612.953	21073.94
613.149	21637.13
613.344	21307.41
613.539	21510.16
613.735	21426.19
613.93	21530.64
614.126	21270.54
614.321	21757.96
614.517	21211.15
614.712	21198.87
614.907	21264.4
615.103	21317.65
615.298	20834.33
615.493	21186.58
615.688	20998.16
615.884	21336.08
616.079	20676.63
616.274	20617.24
616.47	20852.76
616.665	20764.7
616.86	20678.68
617.055	20815.9
617.25	20666.39
617.445	20836.38
617.641	20465.69
617.836	20453.41
618.031	20236.32
618.226	20471.84
618.421	20432.93
618.616	20385.82
618.811	20389.92
619.006	20273.18
619.201	19828.77
619.396	20174.88
619.591	19750.95
619.786	20092.96
619.981	19431.47
620.176	19863.59
620.371	19492.91
620.566	19437.61
620.761	19380.27
620.956	19515.44
621.151	18917.43
621.346	19195.95
621.541	18919.48
621.735	19363.89
621.93	19056.69
622.125	18876.47
622.32	18591.8
622.515	18643
622.709	18491.45
622.904	18364.48
623.099	18393.15
623.294	18464.83
623.488	18139.2
623.683	18012.23
623.878	17840.2
624.072	17983.55
624.267	17774.66
624.462	17778.76
624.656	17864.77
624.851	17516.62
625.046	17588.3
625.24	17285.2
625.435	17219.66
625.629	17340.49
625.824	16955.47
626.018	17027.15
626.213	16681.05
626.407	17061.97
626.602	16586.84
626.796	16734.29
626.991	16588.89
627.185	16357.47
627.38	16269.41
627.574	16246.88
627.768	16072.8
627.963	16220.25
628.157	15933.54
628.352	15814.76
628.546	15720.55
628.74	15822.95
628.935	15583.34
629.129	15564.9
629.323	15439.98
629.517	15325.29
629.712	15321.2
629.906	15132.78
630.1	15046.77
630.294	15014
630.489	14848.11
630.683	15018.1
630.877	14897.27
631.071	14743.67
631.265	14727.28
631.459	14438.52
631.653	14430.33
631.848	14379.13
632.042	14248.06
632.236	14506.1
632.43	14203
632.624	14121.09
632.818	14114.94
633.012	13990.02
633.206	13877.38
633.4	13959.3
633.594	13791.36
633.788	13926.53
633.982	13854.85
634.176	13580.42
634.369	13678.72
634.563	13373.58
634.757	13162.64
634.951	13252.75
635.145	13219.98
635.339	13271.18
635.533	12957.84
635.726	12933.26
635.92	12818.58
636.114	12750.99
636.308	12730.52
636.501	12744.85
636.695	12935.31
636.889	12648.6
637.083	12425.37
637.276	12529.81
637.47	12314.78
637.664	12509.33
637.857	12535.96
638.051	12392.6
638.244	12218.52
638.438	12099.74
638.632	12155.04
638.825	11962.53
639.019	11808.93
639.212	11673.76
639.406	11772.07
639.599	11831.46
639.793	11999.39
639.986	11524.26
640.18	11462.82
640.373	11733.15
640.567	11419.82
640.76	11423.91
640.954	11247.79
641.147	11147.44
641.34	11161.77
641.534	11069.61
641.727	11159.72
641.92	10975.41
642.114	10920.11
642.307	10983.6
642.5	10969.26
642.694	10639.54
642.887	10653.87
643.08	10545.33
643.273	10541.24
643.467	10657.97
643.66	10475.7
643.853	10453.17
644.046	10215.61
644.239	10336.44
644.432	10246.33
644.626	10137.79
644.819	10115.26
645.012	10139.83
645.205	9992.38
645.398	10053.82
645.591	10029.24
645.784	9980.09
645.977	9715.91
646.17	9806.02
646.363	9806.02
646.556	9597.12
646.749	9652.42
646.942	9838.78
647.135	9408.71
647.328	9457.86
647.521	9490.63
647.714	9314.5
647.907	9480.39
648.099	9111.75
648.292	9322.7
648.485	9224.39
648.678	9013.45
648.871	9177.29
649.064	9191.63
649.256	9033.93
649.449	8939.72
649.642	8722.64
649.835	8673.49
650.027	9021.64
650.22	8728.78
650.413	8689.87
650.605	8734.93
650.798	8730.83
650.991	8675.54
651.183	8716.5
651.376	8548.56
651.568	8603.86
651.761	8425.68
651.954	8399.06
652.146	8386.77
652.339	8411.35
652.531	8382.68
652.724	8247.51
652.916	8106.2
653.109	8374.49
653.301	8075.48
653.494	8091.87
653.686	8100.06
653.879	8251.61
654.071	7825.63
654.263	7973.08
654.456	7895.26
654.648	8032.47
654.84	7649.5
655.033	7780.57
655.225	7514.34
655.417	7602.4
655.61	7690.46
655.802	7618.79
655.994	7545.06
656.186	7465.19
656.379	7547.11
656.571	7395.56
656.763	7346.41
656.955	7198.95
657.148	7248.1
657.34	7223.53
657.532	7078.12
657.724	7004.39
657.916	7205.1
658.108	7031.02
658.3	6969.58
658.492	7164.14
658.684	7051.5
658.876	7121.13
659.068	6996.2
659.26	6945
659.452	6828.27
659.644	6875.37
659.836	6920.43
660.028	6748.4
660.22	6629.62
660.412	6684.91
660.604	6633.71
660.796	6703.34
660.988	6676.72
661.18	6490.35
661.372	6551.79
661.563	6449.39
661.755	6602.99
661.947	6568.18
662.139	6412.53
662.331	6369.52
662.522	6314.23
662.714	6252.79
662.906	6142.2
663.097	6306.04
663.289	6215.93
663.481	6111.48
663.673	6111.48
663.864	6351.09
664.056	5947.64
664.247	5972.22
664.439	5982.46
664.631	5875.96
664.822	5998.84
665.014	5865.72
665.205	5953.79
665.397	5849.34
665.588	5912.83
665.78	5759.23
665.971	5861.63
666.163	5798.14
666.354	5654.78
666.546	5687.55
666.737	5693.69
666.929	5718.27
667.12	5576.96
667.311	5554.43
667.503	5497.09
667.694	5581.06
667.885	5579.01
668.077	5564.67
668.268	5265.67
668.459	5361.92
668.651	5595.39
668.842	5589.25
669.033	5425.41
669.224	5339.4
669.416	5382.4
669.607	5406.98
669.798	5273.86
669.989	5312.77
670.18	5251.33
670.371	5214.47
670.563	5191.94
670.754	5269.76
670.945	5171.46
671.136	5204.23
671.327	5064.97
671.518	5191.94
671.709	5249.29
671.9	5087.5
672.091	5118.22
672.282	4897.03
672.473	4954.38
672.664	4983.05
672.855	4790.54
673.046	4923.66
673.237	4905.23
673.428	4874.51
673.619	4839.69
673.809	4718.86
674	4823.31
674.191	4841.74
674.382	4735.25
674.573	4847.88
674.764	4778.25
674.954	4714.77
675.145	4563.22
675.336	4741.39
675.527	4630.8
675.717	4665.61
675.908	4552.98
676.099	4671.76
676.289	4700.43
676.48	4520.21
676.671	4604.18
676.861	4602.13
677.052	4522.26
677.243	4616.46
677.433	4514.06
677.624	4583.7
677.814	4505.87
678.005	4579.6
678.195	4520.21
678.386	4399.38
678.576	4395.28
678.767	4462.87
678.957	4479.25
679.148	4444.43
679.338	4471.06
679.529	4452.63
679.719	4469.01
679.909	4505.87
680.1	4331.8
680.29	4325.65
680.481	4213.01
680.671	4378.9
680.861	4415.76
681.052	4471.06
681.242	4421.91
681.432	4305.17
681.622	4196.63
681.813	4280.6
682.003	4290.84
682.193	4270.36
682.383	4434.19
682.573	4245.78
682.764	4114.71
682.954	4366.61
683.144	4153.62
683.334	4137.24
683.524	4110.61
683.714	4200.73
683.904	4237.59
684.094	4094.23
684.284	4090.13
684.474	4196.63
684.664	4143.38
684.854	4124.95
685.044	4122.9
685.234	4088.09
685.424	4127
685.614	4043.03
685.804	4038.94
685.994	3930.39
686.184	4165.91
686.374	3973.4
686.564	4006.17
686.753	3959.06
686.943	3836.19
687.133	3922.2
687.323	3930.39
687.513	3948.83
687.702	3889.43
687.892	3797.28
688.082	3950.87
688.272	3795.23
688.461	3940.63
688.651	3774.75
688.841	3664.16
689.03	3846.43
689.22	3823.9
689.41	3778.84
689.599	3832.09
689.789	3703.07
689.979	3617.05
690.168	3715.36
690.358	3514.66
690.547	3684.64
690.737	3584.29
690.926	3653.92
691.116	3594.53
691.305	3696.92
691.495	3512.61
691.684	3449.12
691.874	3590.43
692.063	3526.94
692.252	3549.47
692.442	3449.12
692.631	3514.66
692.82	3494.18
693.01	3455.26
693.199	3555.62
693.388	3342.63
693.578	3569.95
693.767	3512.61
693.956	3602.72
694.146	3438.88
694.335	3492.13
694.524	3428.64
694.713	3449.12
694.902	3432.74
695.092	3356.96
695.281	3381.54
695.47	3342.63
695.659	3189.03
695.848	3297.57
696.037	3340.58
696.226	3381.54
696.415	3219.75
696.604	3424.55
696.793	3361.06
696.982	3381.54
697.171	3148.07
697.36	3236.13
697.549	3365.15
697.738	3283.24
697.927	3250.47
698.116	3287.33
698.305	3195.17
698.494	3201.32
698.683	3141.93
698.872	3275.04
699.061	3283.24
699.25	3152.17
699.438	3318.05
699.627	3154.21
699.816	3184.93
700.005	3027.24
700.193	3307.81
700.382	3373.35
700.571	3103.01
700.76	3309.86
700.948	3236.13
701.137	3152.17
701.326	3211.56
701.514	3201.32
701.703	3264.8
701.892	2990.38
702.08	3195.17
702.269	3238.18
702.457	3234.08
702.646	3234.08
702.834	3027.24
703.023	3078.44
703.212	3119.4
703.4	2996.52
703.589	3053.86
703.777	3113.25
703.965	2920.74
704.154	3111.21
704.342	2963.75
704.531	3119.4
704.719	2990.38
704.907	3152.17
705.096	3037.48
705.284	3045.67
705.472	3062.05
705.661	3160.36
705.849	3088.68
706.037	3004.71
706.226	3025.19
706.414	3008.81
706.602	2980.14
706.79	2924.84
706.979	2933.03
707.167	2914.6
707.355	2955.56
707.543	3074.34
707.731	2971.94
707.919	2875.69
708.107	2924.84
708.296	3041.57
708.484	2873.64
708.672	2953.51
708.86	2918.7
709.048	2955.56
709.236	2963.75
709.424	2935.08
709.612	2904.36
709.8	2828.59
709.988	2990.38
710.176	2955.56
710.364	2945.32
710.551	2840.87
710.739	2816.3
710.927	2873.64
711.115	2914.6
711.303	2885.93
711.491	2939.18
711.679	2756.91
711.866	2789.67
712.054	2867.5
712.242	2883.88
712.43	2865.45
712.617	2763.05
712.805	2777.39
712.993	2808.11
713.181	2799.91
713.368	2761
713.556	2818.35
713.744	2820.39
713.931	2769.2
714.119	2748.72
714.306	2822.44
714.494	2619.69
714.682	2758.96
714.869	2783.53
715.057	2939.18
715.244	2826.54
715.432	2748.72
715.619	2718
715.807	2724.14
715.994	2836.78
716.182	2806.06
716.369	2902.31
716.556	2699.56
716.744	2767.15
716.931	2746.67
717.119	2763.05
717.306	2828.59
717.493	2658.6
717.681	2775.34
717.868	2822.44
718.055	2742.57
718.242	2718
718.43	2791.72
718.617	2640.17
718.804	2779.43
718.991	2611.5
719.179	2670.89
719.366	2668.84
719.553	2613.55
719.74	2652.46
719.927	2644.27
720.114	2591.02
720.301	2572.59
720.488	2638.13
720.676	2505.01
720.863	2636.08
721.05	2638.13
721.237	2650.41
721.424	2701.61
721.611	2572.59
721.798	2607.41
721.985	2564.4
722.172	2566.45
722.358	2582.83
722.545	2621.74
722.732	2695.47
722.919	2488.62
723.106	2498.86
723.293	2480.43
723.48	2490.67
723.667	2554.16
723.853	2515.25
724.04	2619.69
724.227	2502.96
724.414	2447.66
724.6	2488.62
724.787	2570.54
724.974	2545.97
725.161	2597.17
725.347	2470.19
725.534	2523.44
725.72	2447.66
725.907	2457.9
726.094	2490.67
726.28	2545.97
726.467	2468.14
726.653	2414.9
726.84	2464.05
727.027	2451.76
727.213	2455.86
727.4	2482.48
727.586	2423.09
727.773	2496.82
727.959	2490.67
728.145	2496.82
728.332	2406.7
728.518	2275.63
728.705	2394.42
728.891	2365.75
729.077	2357.55
729.264	2457.9
729.45	2462
729.636	2531.63
729.823	2439.47
730.009	2457.9
730.195	2468.14
730.382	2445.62
730.568	2423.09
730.754	2459.95
730.94	2363.7
731.126	2459.95
731.313	2406.7
731.499	2392.37
731.685	2437.42
731.871	2343.22
732.057	2398.51
732.243	2414.9
732.429	2343.22
732.615	2394.42
732.801	2371.89
732.987	2462
733.173	2287.92
733.359	2177.33
733.545	2240.82
733.731	2382.13
733.917	2197.81
734.103	2300.21
734.289	2359.6
734.475	2351.41
734.661	2332.98
734.847	2261.3
735.033	2203.96
735.219	2382.13
735.404	2261.3
735.59	2328.88
735.776	2292.02
735.962	2269.49
736.148	2283.83
736.333	2312.5
736.519	2281.78
736.705	2281.78
736.89	2261.3
737.076	2214.2
737.262	2091.32
737.447	2134.32
737.633	2214.2
737.819	2179.38
738.004	2279.73
738.19	2148.66
738.375	2181.43
738.561	2191.67
738.747	2185.52
738.932	2163
739.118	2244.92
739.303	2214.2
739.489	2134.32
739.674	2076.98
739.859	2115.89
740.045	2111.8
740.23	2154.8
740.416	2027.83
740.601	2117.94
740.786	2169.14
740.972	2021.69
741.157	2107.7
741.342	2163
741.528	2062.65
741.713	2097.46
741.898	1968.44
742.084	2070.84
742.269	2109.75
742.454	2083.13
742.639	2021.69
742.824	2046.26
743.01	2083.13
743.195	2031.93
743.38	2040.12
743.565	1982.78
743.75	2029.88
743.935	1878.33
744.12	1995.06
744.305	1894.71
744.49	1892.66
744.675	2021.69
744.86	1823.03
745.045	1857.85
745.23	1863.99
745.415	1958.2
745.6	1941.82
745.785	1812.79
745.97	1820.99
746.155	1874.23
746.34	1982.78
746.525	1849.66
746.71	1796.41
746.895	1734.97
747.079	1734.97
747.264	1833.27
747.449	1749.31
747.634	1857.85
747.819	1696.06
748.003	1800.51
748.188	1831.23
748.373	1714.49
748.557	1663.29
748.742	1687.87
748.927	1655.1
749.111	1720.64
749.296	1669.44
749.481	1616.19
749.665	1618.24
749.85	1532.22
750.034	1841.47
750.219	1608
750.404	1694.01
750.588	1616.19
750.773	1562.94
750.957	1612.09
751.141	1542.46
751.326	1591.61
751.51	1544.51
751.695	1468.73
751.879	1536.32
752.064	1628.48
752.248	1515.84
752.432	1532.22
752.617	1491.26
752.801	1546.56
752.985	1612.09
753.17	1427.78
753.354	1462.59
753.538	1474.88
753.722	1425.73
753.907	1317.19
754.091	1341.76
754.275	1370.43
754.459	1446.21
754.643	1384.77
754.828	1466.69
755.012	1392.96
755.196	1317.19
755.38	1384.77
755.564	1349.95
755.748	1278.27
755.932	1374.53
756.116	1321.28
756.3	1259.84
756.484	1280.32
756.668	1345.86
756.852	1239.36
757.036	1374.53
757.22	1222.98
757.404	1188.16
757.588	1251.65
757.772	1227.07
757.956	1218.88
758.14	1190.21
758.323	1237.31
758.507	1206.59
758.691	1114.44
758.875	1120.58
759.059	1212.74
759.242	1171.78
759.426	1087.81
759.61	1079.62
759.794	1104.2
759.977	1089.86
760.161	1143.11
760.345	1134.92
760.528	1083.72
760.712	993.61
760.895	1124.68
761.079	1061.19
761.263	1096
761.446	1073.48
761.63	1149.25
761.813	1110.34
761.997	991.56
762.18	1038.66
762.364	1038.66
762.547	1073.48
762.731	1139.01
762.914	1063.24
763.098	1048.9
763.281	956.74
763.464	991.56
763.648	981.32
763.831	1007.94
764.015	1007.94
764.198	942.41
764.381	903.5
764.564	999.75
764.748	893.26
764.931	1005.89
765.114	942.41
765.297	975.17
765.481	919.88
765.664	837.96
765.847	885.06
766.03	911.69
766.213	899.4
766.397	934.22
766.58	850.25
766.763	940.36
766.946	905.54
767.129	876.87
767.312	936.26
767.495	866.63
767.678	848.2
767.861	956.74
768.044	903.5
768.227	948.55
768.41	923.98
768.593	936.26
768.776	885.06
768.959	901.45
769.142	915.78
769.324	848.2
769.507	926.02
769.69	891.21
769.873	854.34
770.056	858.44
770.239	768.33
770.421	780.62
770.604	788.81
770.787	866.63
770.97	784.71
771.152	813.38
771.335	776.52
771.518	794.95
771.7	780.62
771.883	778.57
772.066	778.57
772.248	772.43
772.431	772.43
772.613	817.48
772.796	719.18
772.978	817.48
773.161	719.18
773.343	762.19
773.526	737.61
773.708	749.9
773.891	700.75
774.073	719.18
774.256	663.88
774.438	794.95
774.621	739.66
774.803	686.41
774.985	721.23
775.168	741.71
775.35	735.56
775.532	723.27
775.715	686.41
775.897	803.15
776.079	674.12
776.261	665.93
776.444	651.6
776.626	680.27
776.808	678.22
776.99	620.88
777.173	686.41
777.355	665.93
777.537	577.87
777.719	667.98
777.901	633.16
778.083	606.54
778.265	581.96
778.447	538.96
778.629	608.59
778.811	655.69
778.993	653.64
779.175	567.63
779.357	584.01
779.539	586.06
779.721	565.58
779.903	575.82
780.085	598.35
780.267	606.54
780.449	616.78
780.631	506.19
780.812	614.73
780.994	465.23
781.176	502.09
781.358	604.49
781.54	518.48
781.721	567.63
781.903	563.53
782.085	463.18
782.267	502.09
782.448	498
782.63	571.72
782.812	467.28
782.993	596.3
783.175	506.19
783.357	522.57
783.538	465.23
783.72	506.19
783.901	407.89
784.083	434.51
784.264	516.43
784.446	411.98
784.627	383.31
784.809	426.32
784.99	457.04
785.172	457.04
785.353	432.46
785.535	397.65
785.716	448.85
785.897	489.81
786.079	407.89
786.26	377.17
786.441	483.66
786.623	440.65
786.804	432.46
786.985	399.7
787.167	444.75
787.348	418.13
787.529	385.36
787.71	446.8
787.891	465.23
788.073	424.27
788.254	346.45
788.435	346.45
788.616	393.55
788.797	305.49
788.978	401.74
789.159	328.02
789.34	432.46
789.522	256.34
789.703	371.02
789.884	375.12
790.065	395.6
790.246	383.31
790.427	317.78
790.607	428.37
790.788	401.74
790.969	342.35
791.15	420.17
791.331	287.06
791.512	328.02
791.693	360.78
791.874	362.83
792.054	362.83
792.235	309.58
792.416	266.58
792.597	391.5
792.778	360.78
792.958	293.2
793.139	368.98
793.32	301.39
793.5	328.02
793.681	352.59
793.862	321.87
794.042	330.06
794.223	282.96
794.404	280.91
794.584	285.01
794.765	297.3
794.945	317.78
795.126	266.58
795.306	246.1
795.487	371.02
795.667	325.97
795.848	301.39
796.028	278.87
796.209	287.06
796.389	334.16
796.57	272.72
796.75	305.49
796.93	215.38
797.111	260.43
797.291	338.26
797.471	301.39
797.652	276.82
797.832	186.71
798.012	383.31
798.192	223.57
798.373	293.2
798.553	211.28
798.733	366.93
798.913	252.24
799.093	207.19
799.274	264.53
799.454	311.63
799.634	303.44
799.814	227.67
799.994	239.95
800.174	350.54
800.354	231.76
800.534	215.38
800.714	260.43
800.894	342.35
801.074	237.91
801.254	235.86
801.434	237.91
801.614	188.75
801.794	254.29
801.974	797
802.154	186.71
802.334	227.67
802.514	221.52
802.693	250.19
802.873	235.86
803.053	219.47
803.233	248.15
803.413	207.19
803.592	237.91
803.772	158.03
803.952	203.09
804.131	293.2
804.311	194.9
804.491	211.28
804.67	203.09
804.85	227.67
805.03	209.23
805.209	205.14
805.389	276.82
805.568	252.24
805.748	211.28
805.928	174.42
806.107	100.69
806.287	223.57
806.466	174.42
806.646	147.8
806.825	180.56
807.004	205.14
807.184	217.43
807.363	223.57
807.543	246.1
807.722	170.32
807.901	227.67
808.081	180.56
808.26	112.98
808.439	145.75
808.619	174.42
808.798	260.43
808.977	184.66
809.156	213.33
809.336	180.56
809.515	205.14
809.694	129.36
809.873	149.84
810.052	221.52
810.231	180.56
810.411	194.9
810.59	153.94
810.769	112.98
810.948	182.61
811.127	51.54
811.306	115.03
811.485	180.56
811.664	147.8
811.843	84.31
812.022	162.13
812.201	121.17
812.38	129.36
812.559	117.08
812.737	151.89
812.916	57.68
813.095	153.94
813.274	194.9
813.453	147.8
813.632	145.75
813.811	186.71
813.989	176.47
814.168	170.32
814.347	133.46
814.526	106.84
814.704	155.99
814.883	170.32
815.062	80.21
815.24	141.65
815.419	96.6
815.598	92.5
815.776	31.06
815.955	104.79
816.133	88.4
816.312	121.17
816.49	80.21
816.669	86.36
816.847	72.02
817.026	147.8
817.204	164.18
817.383	112.98
817.561	145.75
817.74	174.42
817.918	137.56
818.097	155.99
818.275	137.56
818.453	123.22
818.632	215.38
818.81	117.08
818.988	78.16
819.167	153.94
819.345	125.27
819.523	96.6
819.701	90.45
819.879	143.7
820.058	166.23
820.236	112.98
820.414	176.47
820.592	121.17
820.77	123.22
820.948	65.88
821.127	98.64
821.305	178.51
821.483	137.56
821.661	129.36
821.839	141.65
822.017	98.64
822.195	115.03
822.373	108.88
822.551	137.56
822.729	117.08
822.907	84.31
823.085	137.56
823.262	55.64
823.44	10.58
823.618	82.26
823.796	112.98
823.974	80.21
824.152	94.55
824.329	108.88
824.507	72.02
824.685	84.31
824.863	74.07
825.04	106.84
825.218	135.51
825.396	88.4
825.574	151.89
825.751	55.64
825.929	149.84
826.107	133.46
826.284	106.84
826.462	147.8
826.639	149.84
826.817	121.17
826.994	110.93
827.172	112.98
827.349	123.22
827.527	96.6
827.704	112.98
827.882	96.6
828.059	82.26
828.237	72.02
828.414	88.4
828.591	2.39
828.769	8.53
828.946	69.97
829.124	121.17
829.301	147.8
829.478	123.22
829.655	96.6
829.833	72.02
830.01	47.44
830.187	82.26
830.364	166.23
830.542	76.12
830.719	72.02
830.896	47.44
831.073	160.08
831.25	57.68
831.427	96.6
831.604	61.78
831.782	74.07
831.959	82.26
832.136	47.44
832.313	74.07
832.49	84.31
832.667	117.08
832.844	55.64
833.021	170.32
833.198	18.77
833.374	53.59
833.551	65.88
833.728	55.64
833.905	90.45
834.082	22.87
834.259	180.56
834.436	47.44
834.612	115.03
834.789	10.58
834.966	96.6
835.143	98.64
835.319	76.12
835.496	125.27
835.673	80.21
835.85	72.02
836.026	63.83
836.203	98.64
836.38	90.45
836.556	55.64
836.733	51.54
836.909	104.79
837.086	86.36
837.262	22.87
837.439	31.06
837.616	121.17
837.792	190.8
837.968	94.55
838.145	26.96
838.321	108.88
838.498	26.96
838.674	112.98
838.851	72.02
839.027	80.21
839.203	-26.28
839.38	98.64
839.556	6.49
839.732	96.6
839.909	80.21
840.085	127.32
840.261	20.82
840.437	104.79
840.614	149.84
840.79	63.83
840.966	108.88
841.142	39.25
841.318	8.53
841.494	74.07
841.671	31.06
841.847	14.68
842.023	31.06
842.199	67.92
842.375	49.49
842.551	24.92
842.727	24.92
842.903	22.87
843.079	69.97
843.255	72.02
843.431	80.21
843.607	74.07
843.783	14.68
843.959	90.45
844.134	29.01
844.31	98.64
844.486	-24.23
844.662	18.77
844.838	31.06
845.013	84.31
845.189	14.68
845.365	74.07
845.541	59.73
845.716	41.3
845.892	172.37
846.068	24.92
846.244	55.64
846.419	-9.9
846.595	-32.43
846.77	-1.71
846.946	76.12
847.122	74.07
847.297	39.25
847.473	47.44
847.648	63.83
847.824	41.3
847.999	-26.28
848.175	125.27
848.35	57.68
848.526	92.5
848.701	37.2
848.876	96.6
849.052	80.21
849.227	49.49
849.403	33.11
849.578	145.75
849.753	65.88
849.929	10.58
850.104	6.49
850.279	82.26
850.454	6.49
850.63	72.02
850.805	6.49
850.98	20.82
851.155	47.44
851.33	8.53
851.505	10.58
851.681	82.26
851.856	-5.8
852.031	135.51
852.206	33.11
852.381	-22.19
852.556	88.4
852.731	31.06
852.906	31.06
853.081	82.26
853.256	74.07
853.431	20.82
853.606	-57
853.781	47.44
853.956	57.68
854.131	47.44
854.305	39.25
854.48	67.92
854.655	84.31
854.83	31.06
855.005	33.11
855.18	61.78
855.354	63.83
855.529	65.88
855.704	39.25
855.879	106.84
856.053	18.77
856.228	-13.99
856.403	-13.99
856.577	14.68
856.752	6.49
856.926	18.77
857.101	72.02
857.276	94.55
857.45	82.26
857.625	22.87
857.799	72.02
857.974	10.58
858.148	-42.67
858.323	16.73
858.497	22.87
858.672	22.87
858.846	-1.71
859.02	-5.8
859.195	55.64
859.369	4.44
859.543	63.83
859.718	47.44
859.892	43.35
860.066	20.82
860.241	-30.38
860.415	72.02
860.589	-16.04
860.763	22.87
860.938	-9.9
861.112	63.83
861.286	57.68
861.46	37.2
861.634	59.73
861.808	78.16
861.982	6.49
862.157	-13.99
862.331	-16.04
862.505	-7.85
862.679	33.11
862.853	47.44
863.027	22.87
863.201	149.84
863.375	6.49
863.549	18.77
863.722	22.87
863.896	84.31
864.07	47.44
864.244	-9.9
864.418	31.06
864.592	41.3
864.766	26.96
864.939	98.64
865.113	-7.85
865.287	31.06
865.461	14.68
865.634	41.3
865.808	47.44
865.982	51.54
866.156	20.82
866.329	-30.38
866.503	20.82
866.676	-63.15
866.85	51.54
867.024	18.77
867.197	45.4
867.371	80.21
867.544	-3.75
867.718	-30.38
867.891	76.12
868.065	-18.09
868.238	16.73
868.412	6.49
868.585	26.96
868.759	47.44
868.932	-26.28
869.105	33.11
869.279	-9.9
869.452	72.02
869.625	-28.33
869.799	-54.95
869.972	-32.43
870.145	14.68
870.319	26.96
870.492	43.35
870.665	-44.71
870.838	6.49
871.011	-1.71
871.185	-9.9
871.358	69.97
871.531	90.45
871.704	63.83
871.877	39.25
872.05	-18.09
872.223	-24.23
872.396	59.73
872.569	6.49
872.742	115.03
872.915	110.93
873.088	57.68
873.261	4.44
873.434	55.64
873.607	-7.85
873.78	55.64
873.953	-46.76
874.126	-9.9
874.299	-24.23
874.471	-11.95
874.644	6.49
874.817	102.74
874.99	22.87
875.163	31.06
875.335	14.68
875.508	37.2
875.681	2.39
875.853	-22.19
876.026	53.59
876.199	35.16
876.371	-40.62
876.544	-34.47
876.717	-18.09
876.889	43.35
877.062	49.49
877.234	-34.47
877.407	18.77
877.579	-42.67
877.752	108.88
877.924	59.73
878.097	49.49
878.269	-20.14
878.442	67.92
878.614	-30.38
878.786	43.35
878.959	-18.09
879.131	-13.99
879.303	24.92
879.476	41.3
879.648	33.11
879.82	8.53
879.993	-22.19
880.165	43.35
880.337	14.68
880.509	-1.71
880.681	-18.09
880.854	-3.75
881.026	20.82
881.198	90.45
881.37	35.16
881.542	57.68
881.714	31.06
881.886	57.68
882.058	18.77
882.23	6.49
882.402	45.4
882.574	51.54
882.746	88.4
882.918	10.58
883.09	61.78
883.262	-24.23
883.434	39.25
883.606	12.63
883.778	2.39
883.95	47.44
884.122	-7.85
884.293	-5.8
884.465	8.53
884.637	74.07
884.809	0.34
884.98	-7.85
885.152	-40.62
885.324	112.98
885.496	6.49
885.667	-48.81
885.839	-26.28
886.011	18.77
886.182	-5.8
886.354	-24.23
886.525	22.87
886.697	29.01
886.869	31.06
887.04	84.31
887.212	-16.04
887.383	80.21
887.555	61.78
887.726	-67.24
887.897	-32.43
888.069	-38.57
888.24	55.64
888.412	-24.23
888.583	-9.9
888.754	22.87
888.926	-11.95
889.097	10.58
889.268	0.34
889.44	29.01
889.611	39.25
889.782	14.68
889.953	-73.39
890.125	24.92
890.296	-50.86
890.467	31.06
890.638	22.87
890.809	22.87
890.98	4.44
891.151	-3.75
891.323	-30.38
891.494	90.45
891.665	-34.47
891.836	59.73
892.007	20.82
892.178	47.44
892.349	-9.9
892.52	-9.9
892.691	55.64
892.862	6.49
893.032	-32.43
893.203	-16.04
893.374	-1.71
893.545	72.02
893.716	-28.33
893.887	39.25
894.057	-30.38
894.228	63.83
894.399	39.25
894.57	2.39
894.74	63.83
894.911	47.44
895.082	14.68
895.253	-5.8
895.423	18.77
895.594	49.49
895.764	-24.23
895.935	-81.58
896.106	51.54
896.276	-18.09
896.447	31.06
896.617	31.06
896.788	22.87
896.958	33.11
897.129	-1.71
897.299	-13.99
897.47	51.54
897.64	47.44
897.81	-9.9
897.981	72.02
898.151	-65.19
898.322	-34.47
898.492	-26.28
898.662	22.87
898.832	-16.04
899.003	-9.9
899.173	-34.47
899.343	10.58
899.513	22.87
