Data from USB4F104151__215__14-21-13-371.txt Node

Date: Thu Mar 13 14:21:13 EDT 2025
User: louis
Spectrometer: USB4F10415
Trigger mode: 4
Integration Time (sec): 2.000000E-2
Scans to average: 1
Electric dark correction enabled: true
Nonlinearity correction enabled: false
Boxcar width: 0
XAxis mode: Wavelengths
Number of Pixels in Spectrum: 3648
>>>>>Begin Spectral Data<<<<<
178.204	-149.84
178.424	-149.84
178.644	-149.84
178.864	-143.7
179.084	-84.31
179.304	-2.39
179.524	-35.16
179.744	38.57
179.964	20.14
180.184	-20.82
180.404	-6.49
180.624	67.24
180.844	-29.01
181.064	-47.44
181.283	-0.34
181.503	-29.01
181.723	44.71
181.943	-14.68
182.163	52.91
182.383	-16.73
182.602	20.14
182.822	16.04
183.042	20.14
183.262	116.39
183.482	52.91
183.701	40.62
183.921	104.11
184.141	16.04
184.361	13.99
184.58	54.95
184.8	5.8
185.02	36.52
185.239	44.71
185.459	5.8
185.679	93.87
185.898	-12.63
186.118	36.52
186.338	13.99
186.557	54.95
186.777	48.81
186.997	120.49
187.216	-8.53
187.436	89.77
187.655	75.43
187.875	9.9
188.095	9.9
188.314	77.48
188.534	67.24
188.753	-2.39
188.973	44.71
189.192	57
189.412	3.75
189.631	61.1
189.851	57
190.07	81.58
190.29	-12.63
190.509	44.71
190.729	44.71
190.948	73.39
191.168	155.3
191.387	69.29
191.607	67.24
191.826	7.85
192.045	5.8
192.265	16.04
192.484	34.47
192.704	40.62
192.923	61.1
193.142	87.72
193.362	13.99
193.581	61.1
193.8	124.58
194.02	36.52
194.239	48.81
194.458	57
194.678	30.38
194.897	81.58
195.116	7.85
195.335	5.8
195.555	57
195.774	3.75
195.993	54.95
196.212	-10.58
196.432	-33.11
196.651	81.58
196.87	54.95
197.089	143.02
197.308	89.77
197.528	67.24
197.747	-69.97
197.966	145.06
198.185	136.87
198.404	50.86
198.623	61.1
198.842	20.14
199.062	28.33
199.281	59.05
199.5	44.71
199.719	-16.73
199.938	3.75
200.157	20.14
200.376	16.04
200.595	69.29
200.814	71.34
201.033	32.43
201.252	28.33
201.471	54.95
201.69	63.15
201.909	20.14
202.128	85.67
202.347	34.47
202.566	-45.4
202.785	3.75
203.004	-12.63
203.223	118.44
203.442	3.75
203.661	22.19
203.879	143.02
204.098	38.57
204.317	7.85
204.536	1.71
204.755	61.1
204.974	52.91
205.193	54.95
205.411	134.82
205.63	13.99
205.849	54.95
206.068	9.9
206.287	61.1
206.505	108.2
206.724	-16.73
206.943	38.57
207.162	11.95
207.381	42.67
207.599	79.53
207.818	-2.39
208.037	7.85
208.255	-2.39
208.474	110.25
208.693	52.91
208.911	13.99
209.13	79.53
209.349	38.57
209.567	3.75
209.786	108.2
210.005	40.62
210.223	28.33
210.442	11.95
210.661	42.67
210.879	-2.39
211.098	13.99
211.316	61.1
211.535	28.33
211.753	-65.88
211.972	85.67
212.191	69.29
212.409	120.49
212.628	102.06
212.846	50.86
213.065	61.1
213.283	59.05
213.502	110.25
213.72	118.44
213.938	18.09
214.157	65.19
214.375	69.29
214.594	30.38
214.812	79.53
215.031	11.95
215.249	30.38
215.467	11.95
215.686	3.75
215.904	34.47
216.122	36.52
216.341	87.72
216.559	69.29
216.778	79.53
216.996	13.99
217.214	63.15
217.432	73.39
217.651	-35.16
217.869	-61.78
218.087	38.57
218.306	28.33
218.524	20.14
218.742	-39.25
218.96	104.11
219.179	89.77
219.397	46.76
219.615	89.77
219.833	97.96
220.051	20.14
220.27	5.8
220.488	83.63
220.706	77.48
220.924	85.67
221.142	69.29
221.36	5.8
221.578	71.34
221.796	44.71
222.015	63.15
222.233	54.95
222.451	81.58
222.669	13.99
222.887	83.63
223.105	1.71
223.323	-33.11
223.541	63.15
223.759	50.86
223.977	-55.64
224.195	118.44
224.413	42.67
224.631	151.21
224.849	-31.06
225.067	134.82
225.285	38.57
225.503	48.81
225.721	26.28
225.939	46.76
226.157	61.1
226.375	104.11
226.592	-20.82
226.81	44.71
227.028	52.91
227.246	138.92
227.464	18.09
227.682	36.52
227.9	18.09
228.117	-8.53
228.335	77.48
228.553	36.52
228.771	3.75
228.989	73.39
229.206	-2.39
229.424	9.9
229.642	-45.4
229.86	54.95
230.077	5.8
230.295	32.43
230.513	16.04
230.731	26.28
230.948	-2.39
231.166	20.14
231.384	11.95
231.601	128.68
231.819	71.34
232.037	61.1
232.254	52.91
232.472	22.19
232.689	52.91
232.907	3.75
233.125	44.71
233.342	-0.34
233.56	24.23
233.777	32.43
233.995	42.67
234.213	3.75
234.43	26.28
234.648	81.58
234.865	34.47
235.083	63.15
235.3	79.53
235.518	-4.44
235.735	54.95
235.953	95.91
236.17	120.49
236.388	32.43
236.605	-12.63
236.822	104.11
237.04	7.85
237.257	11.95
237.475	38.57
237.692	28.33
237.909	46.76
238.127	5.8
238.344	89.77
238.562	57
238.779	30.38
238.996	20.14
239.214	11.95
239.431	20.14
239.648	-8.53
239.865	106.15
240.083	26.28
240.3	69.29
240.517	42.67
240.735	54.95
240.952	95.91
241.169	71.34
241.386	59.05
241.603	-0.34
241.821	67.24
242.038	106.15
242.255	54.95
242.472	-10.58
242.689	32.43
242.907	75.43
243.124	34.47
243.341	106.15
243.558	97.96
243.775	32.43
243.992	-4.44
244.209	95.91
244.426	18.09
244.643	89.77
244.86	-29.01
245.078	36.52
245.295	16.04
245.512	34.47
245.729	91.82
245.946	87.72
246.163	59.05
246.38	16.04
246.597	9.9
246.814	16.04
247.031	32.43
247.248	44.71
247.464	110.25
247.681	46.76
247.898	50.86
248.115	102.06
248.332	13.99
248.549	87.72
248.766	126.63
248.983	44.71
249.2	36.52
249.417	102.06
249.633	13.99
249.85	61.1
250.067	32.43
250.284	71.34
250.501	69.29
250.717	48.81
250.934	28.33
251.151	44.71
251.368	-18.77
251.585	69.29
251.801	24.23
252.018	48.81
252.235	85.67
252.451	-33.11
252.668	-8.53
252.885	71.34
253.102	95.91
253.318	36.52
253.535	32.43
253.752	77.48
253.968	65.19
254.185	-2.39
254.401	40.62
254.618	28.33
254.835	13.99
255.051	126.63
255.268	100.01
255.484	54.95
255.701	44.71
255.917	102.06
256.134	-2.39
256.351	34.47
256.567	-2.39
256.784	65.19
257	85.67
257.217	36.52
257.433	30.38
257.65	28.33
257.866	20.14
258.082	3.75
258.299	-29.01
258.515	42.67
258.732	61.1
258.948	-55.64
259.165	77.48
259.381	61.1
259.597	22.19
259.814	106.15
260.03	63.15
260.246	-20.82
260.463	61.1
260.679	52.91
260.895	24.23
261.112	71.34
261.328	7.85
261.544	20.14
261.761	116.39
261.977	77.48
262.193	24.23
262.409	3.75
262.626	77.48
262.842	44.71
263.058	32.43
263.274	59.05
263.49	61.1
263.707	-4.44
263.923	30.38
264.139	61.1
264.355	46.76
264.571	46.76
264.787	104.11
265.004	128.68
265.22	34.47
265.436	-0.34
265.652	73.39
265.868	11.95
266.084	5.8
266.3	-2.39
266.516	11.95
266.732	54.95
266.948	52.91
267.164	79.53
267.38	81.58
267.596	30.38
267.812	79.53
268.028	83.63
268.244	-47.44
268.46	16.04
268.676	38.57
268.892	61.1
269.108	42.67
269.324	22.19
269.54	44.71
269.756	-18.77
269.972	28.33
270.188	40.62
270.403	11.95
270.619	65.19
270.835	-0.34
271.051	48.81
271.267	9.9
271.483	28.33
271.698	79.53
271.914	108.2
272.13	87.72
272.346	79.53
272.562	-2.39
272.777	126.63
272.993	38.57
273.209	34.47
273.425	22.19
273.64	30.38
273.856	69.29
274.072	-4.44
274.287	-4.44
274.503	26.28
274.719	20.14
274.934	-12.63
275.15	-53.59
275.366	69.29
275.581	93.87
275.797	102.06
276.012	71.34
276.228	38.57
276.444	-20.82
276.659	85.67
276.875	52.91
277.09	28.33
277.306	11.95
277.521	54.95
277.737	-4.44
277.952	44.71
278.168	79.53
278.383	83.63
278.599	26.28
278.814	63.15
279.03	77.48
279.245	44.71
279.461	44.71
279.676	102.06
279.892	81.58
280.107	11.95
280.322	40.62
280.538	67.24
280.753	24.23
280.969	71.34
281.184	13.99
281.399	134.82
281.615	63.15
281.83	48.81
282.045	-45.4
282.26	-10.58
282.476	40.62
282.691	44.71
282.906	54.95
283.122	102.06
283.337	-35.16
283.552	77.48
283.767	26.28
283.983	46.76
284.198	11.95
284.413	93.87
284.628	79.53
284.843	69.29
285.058	102.06
285.274	36.52
285.489	36.52
285.704	67.24
285.919	20.14
286.134	40.62
286.349	91.82
286.564	3.75
286.779	104.11
286.995	52.91
287.21	20.14
287.425	126.63
287.64	22.19
287.855	-0.34
288.07	57
288.285	93.87
288.5	52.91
288.715	44.71
288.93	-31.06
289.145	-2.39
289.36	30.38
289.575	79.53
289.79	118.44
290.004	38.57
290.219	69.29
290.434	52.91
290.649	67.24
290.864	89.77
291.079	40.62
291.294	73.39
291.509	28.33
291.724	38.57
291.938	3.75
292.153	-37.2
292.368	36.52
292.583	83.63
292.798	-2.39
293.012	50.86
293.227	11.95
293.442	5.8
293.657	16.04
293.871	36.52
294.086	75.43
294.301	77.48
294.516	69.29
294.73	7.85
294.945	20.14
295.16	32.43
295.374	85.67
295.589	36.52
295.804	65.19
296.018	-53.59
296.233	67.24
296.447	108.2
296.662	24.23
296.877	20.14
297.091	44.71
297.306	48.81
297.52	46.76
297.735	77.48
297.949	28.33
298.164	97.96
298.378	61.1
298.593	71.34
298.807	52.91
299.022	-2.39
299.236	126.63
299.451	102.06
299.665	-0.34
299.88	93.87
300.094	50.86
300.309	122.54
300.523	93.87
300.737	57
300.952	7.85
301.166	61.1
301.381	22.19
301.595	59.05
301.809	57
302.024	5.8
302.238	77.48
302.452	161.45
302.667	34.47
302.881	61.1
303.095	5.8
303.309	112.3
303.524	5.8
303.738	67.24
303.952	-10.58
304.166	118.44
304.381	38.57
304.595	77.48
304.809	93.87
305.023	44.71
305.237	46.76
305.452	59.05
305.666	85.67
305.88	46.76
306.094	24.23
306.308	73.39
306.522	32.43
306.736	3.75
306.95	73.39
307.164	11.95
307.379	40.62
307.593	85.67
307.807	163.5
308.021	42.67
308.235	-0.34
308.449	-0.34
308.663	97.96
308.877	85.67
309.091	38.57
309.305	95.91
309.519	1.71
309.733	143.02
309.947	-49.49
310.161	18.09
310.374	71.34
310.588	65.19
310.802	-4.44
311.016	104.11
311.23	110.25
311.444	57
311.658	-14.68
311.872	69.29
312.085	77.48
312.299	93.87
312.513	77.48
312.727	69.29
312.941	-8.53
313.154	75.43
313.368	77.48
313.582	77.48
313.796	77.48
314.009	22.19
314.223	93.87
314.437	145.06
314.651	40.62
314.864	28.33
315.078	89.77
315.292	110.25
315.505	71.34
315.719	5.8
315.933	124.58
316.146	18.09
316.36	-63.83
316.573	77.48
316.787	-29.01
317.001	32.43
317.214	16.04
317.428	77.48
317.641	-4.44
317.855	-37.2
318.068	46.76
318.282	65.19
318.495	36.52
318.709	110.25
318.922	3.75
319.136	143.02
319.349	20.14
319.563	34.47
319.776	54.95
319.99	34.47
320.203	32.43
320.417	34.47
320.63	122.54
320.843	130.73
321.057	48.81
321.27	-10.58
321.483	46.76
321.697	7.85
321.91	61.1
322.124	3.75
322.337	40.62
322.55	112.3
322.763	85.67
322.977	38.57
323.19	-29.01
323.403	38.57
323.617	26.28
323.83	-0.34
324.043	44.71
324.256	71.34
324.469	42.67
324.683	69.29
324.896	42.67
325.109	5.8
325.322	3.75
325.535	-2.39
325.748	34.47
325.962	52.91
326.175	-10.58
326.388	52.91
326.601	93.87
326.814	-12.63
327.027	87.72
327.24	116.39
327.453	32.43
327.666	28.33
327.879	32.43
328.092	54.95
328.305	61.1
328.518	28.33
328.731	18.09
328.944	28.33
329.157	16.04
329.37	20.14
329.583	87.72
329.796	16.04
330.009	34.47
330.222	13.99
330.435	69.29
330.648	48.81
330.861	65.19
331.073	110.25
331.286	136.87
331.499	-12.63
331.712	81.58
331.925	-67.92
332.138	69.29
332.35	114.34
332.563	61.1
332.776	85.67
332.989	65.19
333.202	-24.92
333.414	112.3
333.627	81.58
333.84	65.19
334.053	13.99
334.265	106.15
334.478	11.95
334.691	36.52
334.903	79.53
335.116	5.8
335.329	-24.92
335.541	81.58
335.754	114.34
335.966	52.91
336.179	38.57
336.392	95.91
336.604	16.04
336.817	95.91
337.029	77.48
337.242	79.53
337.454	87.72
337.667	52.91
337.88	36.52
338.092	75.43
338.305	75.43
338.517	-14.68
338.729	28.33
338.942	81.58
339.154	28.33
339.367	-4.44
339.579	69.29
339.792	69.29
340.004	-2.39
340.217	30.38
340.429	120.49
340.641	-4.44
340.854	77.48
341.066	26.28
341.278	46.76
341.491	100.01
341.703	16.04
341.915	20.14
342.128	52.91
342.34	126.63
342.552	73.39
342.764	42.67
342.977	77.48
343.189	28.33
343.401	20.14
343.613	-41.3
343.826	120.49
344.038	54.95
344.25	11.95
344.462	38.57
344.674	77.48
344.886	42.67
345.099	106.15
345.311	124.58
345.523	110.25
345.735	20.14
345.947	57
346.159	108.2
346.371	57
346.583	48.81
346.795	120.49
347.007	44.71
347.219	54.95
347.431	54.95
347.643	112.3
347.855	28.33
348.067	34.47
348.279	28.33
348.491	81.58
348.703	59.05
348.915	73.39
349.127	87.72
349.339	18.09
349.551	67.24
349.763	40.62
349.975	63.15
350.187	36.52
350.399	46.76
350.61	65.19
350.822	59.05
351.034	42.67
351.246	134.82
351.458	75.43
351.669	52.91
351.881	151.21
352.093	44.71
352.305	44.71
352.517	-20.82
352.728	102.06
352.94	46.76
353.152	52.91
353.363	44.71
353.575	118.44
353.787	44.71
353.999	97.96
354.21	57
354.422	145.06
354.633	85.67
354.845	106.15
355.057	52.91
355.268	91.82
355.48	67.24
355.692	-6.49
355.903	24.23
356.115	85.67
356.326	34.47
356.538	122.54
356.749	36.52
356.961	106.15
357.172	69.29
357.384	38.57
357.595	50.86
357.807	20.14
358.018	24.23
358.23	85.67
358.441	-4.44
358.653	67.24
358.864	26.28
359.075	42.67
359.287	61.1
359.498	73.39
359.709	54.95
359.921	38.57
360.132	32.43
360.344	28.33
360.555	130.73
360.766	38.57
360.977	26.28
361.189	104.11
361.4	120.49
361.611	63.15
361.823	87.72
362.034	165.54
362.245	77.48
362.456	3.75
362.667	67.24
362.879	18.09
363.09	132.78
363.301	20.14
363.512	24.23
363.723	44.71
363.935	48.81
364.146	65.19
364.357	87.72
364.568	44.71
364.779	61.1
364.99	77.48
365.201	61.1
365.412	93.87
365.623	73.39
365.834	65.19
366.045	28.33
366.256	120.49
366.467	36.52
366.678	79.53
366.889	61.1
367.1	75.43
367.311	136.87
367.522	61.1
367.733	79.53
367.944	106.15
368.155	44.71
368.366	140.97
368.577	91.82
368.788	190.12
368.999	59.05
369.209	59.05
369.42	73.39
369.631	71.34
369.842	110.25
370.053	73.39
370.264	85.67
370.474	-29.01
370.685	100.01
370.896	-20.82
371.107	24.23
371.317	85.67
371.528	52.91
371.739	175.78
371.95	44.71
372.16	102.06
372.371	75.43
372.582	63.15
372.792	63.15
373.003	95.91
373.214	30.38
373.424	83.63
373.635	28.33
373.846	79.53
374.056	57
374.267	120.49
374.477	48.81
374.688	61.1
374.898	73.39
375.109	100.01
375.319	11.95
375.53	77.48
375.74	95.91
375.951	44.71
376.161	16.04
376.372	147.11
376.582	71.34
376.793	167.59
377.003	3.75
377.214	44.71
377.424	24.23
377.635	134.82
377.845	61.1
378.055	54.95
378.266	16.04
378.476	52.91
378.686	93.87
378.897	30.38
379.107	77.48
379.317	69.29
379.528	54.95
379.738	77.48
379.948	11.95
380.158	97.96
380.369	54.95
380.579	38.57
380.789	34.47
380.999	36.52
381.21	112.3
381.42	124.58
381.63	69.29
381.84	120.49
382.05	79.53
382.261	61.1
382.471	102.06
382.681	63.15
382.891	175.78
383.101	61.1
383.311	100.01
383.521	61.1
383.731	44.71
383.941	95.91
384.151	44.71
384.361	36.52
384.571	63.15
384.781	77.48
384.991	61.1
385.201	102.06
385.411	100.01
385.621	128.68
385.831	36.52
386.041	175.78
386.251	73.39
386.461	71.34
386.671	20.14
386.881	79.53
387.091	93.87
387.301	91.82
387.511	61.1
387.72	93.87
387.93	112.3
388.14	63.15
388.35	114.34
388.56	118.44
388.769	159.4
388.979	102.06
389.189	91.82
389.399	61.1
389.609	159.4
389.818	69.29
390.028	116.39
390.238	85.67
390.447	48.81
390.657	57
390.867	69.29
391.076	57
391.286	118.44
391.496	104.11
391.705	65.19
391.915	77.48
392.125	97.96
392.334	52.91
392.544	200.36
392.753	46.76
392.963	136.87
393.172	126.63
393.382	40.62
393.591	155.3
393.801	36.52
394.01	122.54
394.22	52.91
394.429	81.58
394.639	89.77
394.848	151.21
395.058	151.21
395.267	108.2
395.477	190.12
395.686	67.24
395.895	153.26
396.105	136.87
396.314	134.82
396.524	143.02
396.733	57
396.942	138.92
397.152	120.49
397.361	104.11
397.57	126.63
397.78	151.21
397.989	77.48
398.198	155.3
398.407	120.49
398.617	136.87
398.826	114.34
399.035	175.78
399.244	57
399.453	118.44
399.663	161.45
399.872	120.49
400.081	106.15
400.29	145.06
400.499	138.92
400.708	188.07
400.917	147.11
401.127	87.72
401.336	63.15
401.545	196.26
401.754	200.36
401.963	159.4
402.172	196.26
402.381	106.15
402.59	102.06
402.799	163.5
403.008	167.59
403.217	126.63
403.426	183.98
403.635	145.06
403.844	153.26
404.053	114.34
404.262	77.48
404.471	323.24
404.68	167.59
404.888	175.78
405.097	200.36
405.306	229.03
405.515	192.17
405.724	188.07
405.933	110.25
406.142	257.7
406.35	163.5
406.559	192.17
406.768	153.26
406.977	265.89
407.185	134.82
407.394	261.8
407.603	265.89
407.812	233.13
408.02	323.24
408.229	257.7
408.438	358.05
408.646	229.03
408.855	274.09
409.064	327.33
409.272	304.81
409.481	339.62
409.69	331.43
409.898	257.7
410.107	403.11
410.315	308.9
410.524	439.97
410.733	407.2
410.941	466.6
411.15	474.79
411.358	474.79
411.567	489.12
411.775	495.27
411.984	546.47
412.192	501.41
412.401	540.32
412.609	650.91
412.818	562.85
413.026	521.89
413.234	525.99
413.443	620.19
413.651	652.96
413.86	581.28
414.068	745.12
414.276	765.6
414.485	728.74
414.693	849.57
414.901	835.23
415.11	847.52
415.318	868
415.526	853.66
415.734	908.96
415.943	992.92
416.151	947.87
416.359	1035.93
416.567	997.02
416.776	1128.09
416.984	1101.47
417.192	1175.19
417.4	1146.52
417.608	1191.58
417.817	1169.05
418.025	1371.8
418.233	1332.89
418.441	1330.84
418.649	1349.27
418.857	1545.88
419.065	1564.31
419.273	1560.21
419.481	1642.13
419.689	1695.38
419.897	1773.2
420.105	1822.35
420.313	1828.49
420.521	1869.45
420.729	1965.71
420.937	1867.41
421.145	2135.69
421.353	2092.68
421.561	2231.94
421.769	2395.78
421.977	2471.56
422.185	2354.82
422.393	2547.33
422.601	2700.93
422.809	2674.31
423.017	2676.35
423.224	2952.83
423.432	2993.79
423.64	2786.94
423.848	3161.72
424.056	3061.37
424.263	3337.85
424.471	3339.9
424.679	3356.28
424.887	3522.16
425.094	3716.72
425.302	3741.3
425.51	3968.62
425.718	3921.52
425.925	3995.25
426.133	4083.31
426.341	4367.98
426.548	4628.07
426.756	4654.69
426.964	4640.36
427.171	4888.16
427.379	5037.66
427.586	4984.41
427.794	5437.02
428.001	5359.19
428.209	5795.41
428.417	5705.3
428.624	6151.76
428.832	6118.99
429.039	5887.57
429.247	6088.27
429.454	6557.25
429.662	6950.46
429.869	6526.54
430.076	7147.07
430.284	6983.23
430.491	7157.31
430.699	7552.57
430.906	7562.81
431.114	7644.73
431.321	8015.41
431.528	8140.33
431.736	8547.88
431.943	9172.51
432.15	8801.83
432.358	8691.24
432.565	9168.41
432.772	9117.22
432.979	9637.4
433.187	9936.4
433.394	9967.12
433.601	10739.21
433.808	10661.38
434.016	10653.19
434.223	11032.07
434.43	11746.81
434.637	11462.14
434.844	12262.9
435.052	12383.73
435.259	12365.29
435.466	12342.77
435.673	12627.43
435.88	13104.61
436.087	13811.16
436.294	13798.87
436.501	13340.13
436.708	13897.17
436.915	14122.45
437.122	15072.71
437.329	14982.6
437.537	15527.36
437.743	15674.81
437.95	15482.3
438.157	16209.33
438.364	16821.67
438.571	16780.71
438.778	16846.25
438.985	18533.78
439.192	17782.17
439.399	18365.84
439.606	17626.53
439.813	18945.42
440.02	20086.14
440.227	19336.58
440.433	19551.62
440.64	20286.84
440.847	19914.11
441.054	20456.82
441.261	21843.29
441.467	21392.74
441.674	21855.58
441.881	22711.63
442.088	22504.79
442.294	22424.92
442.501	23166.28
442.708	23323.97
442.914	24079.68
443.121	25212.2
443.328	24921.39
443.534	26260.76
443.741	25435.43
443.948	25195.82
444.154	27116.81
444.361	26873.1
444.568	27266.31
444.774	27006.22
444.981	27753.73
445.187	28476.66
445.394	29631.72
445.6	29213.93
445.807	32017.6
446.013	30627.03
446.22	30932.18
446.426	32238.78
446.633	32531.64
446.839	33846.44
447.046	31972.55
447.252	33842.34
447.459	33770.66
447.665	33580.2
447.871	34974.87
448.078	36813.94
448.284	34944.15
448.491	35996.81
448.697	37323.89
448.903	38143.08
449.11	38204.52
449.316	37405.81
449.522	38063.21
449.728	39226.45
449.935	39183.44
450.141	39701.58
450.347	39896.14
450.553	39216.21
450.76	39803.98
450.966	40711.23
451.172	40162.37
451.378	41407.54
451.584	40559.68
451.791	41751.6
451.997	41534.51
452.203	41774.13
452.409	41776.17
452.615	41704.49
452.821	40477.76
453.027	39451.73
453.233	41843.76
453.44	40182.85
453.646	40461.38
453.852	40840.25
454.058	41552.94
454.264	40461.38
454.47	41255.99
454.676	40256.58
454.882	41616.43
455.088	37909.61
455.294	38782.04
455.5	38913.11
455.705	39629.9
455.911	38110.31
456.117	37315.7
456.323	36740.22
456.529	35226.77
456.735	36555.9
456.941	35601.55
457.147	35001.49
457.352	33778.86
457.558	33721.51
457.764	33705.13
457.97	32869.56
458.176	32535.74
458.381	32142.53
458.587	30893.27
458.793	31020.24
458.999	29267.18
459.204	31341.77
459.41	30188.77
459.616	28495.1
459.821	28384.51
460.027	28460.28
460.233	27835.65
460.438	26561.81
460.644	26905.87
460.85	25175.34
461.055	25175.34
461.261	25081.13
461.466	23176.52
461.672	22721.87
461.878	24218.94
462.083	22652.24
462.289	22084.95
462.494	21964.12
462.7	21247.33
462.905	20587.89
463.111	21089.64
463.316	21075.31
463.522	20878.7
463.727	20831.6
463.932	20772.21
464.138	20407.67
464.343	20753.77
464.549	20000.12
464.754	20725.1
464.959	20268.41
465.165	20346.23
465.37	19367.3
465.575	19137.93
465.781	19914.11
465.986	19766.65
466.191	19182.98
466.397	18877.83
466.602	17935.77
466.807	18564.5
467.012	18662.8
467.218	18797.96
467.423	18075.03
467.628	18183.57
467.833	19189.13
468.038	18501.01
468.244	18152.85
468.449	18683.28
468.654	17806.75
468.859	17724.83
469.064	17524.13
469.269	17155.49
469.474	17161.64
469.679	17497.5
469.885	17044.9
470.09	17231.27
470.295	17218.98
470.5	16719.28
470.705	16913.83
470.91	16573.87
471.115	16647.6
471.32	16508.33
471.525	16528.81
471.73	16221.62
471.935	16125.36
472.139	15553.98
472.344	15650.24
472.549	15328.7
472.754	15316.42
472.959	14951.88
473.164	14841.29
473.369	14618.06
473.574	15318.46
473.778	15130.05
473.983	14837.19
474.188	14775.75
474.393	14261.71
474.598	14163.41
474.802	13925.85
475.007	13782.49
475.212	13882.84
475.417	13573.6
475.621	13432.29
475.826	13340.13
476.031	13090.27
476.235	13096.42
476.44	13278.69
476.645	13090.27
476.849	12948.97
477.054	13024.74
477.259	12596.71
477.463	12455.4
477.668	12420.59
477.872	12783.08
478.077	12041.71
478.282	11818.49
478.486	12080.63
478.691	11980.28
478.895	11798.01
479.1	11804.15
479.304	11726.33
479.509	11458.04
479.713	11550.2
479.918	11326.97
480.122	11146.75
480.326	11609.59
480.531	11279.87
480.735	11173.38
480.94	10987.01
481.144	11453.95
481.348	11023.87
481.553	11204.1
481.757	10753.54
481.961	11040.26
482.166	11116.03
482.37	10833.41
482.574	10548.75
482.778	10982.92
482.983	11118.08
483.187	11085.31
483.391	10905.09
483.595	10841.61
483.8	10671.62
484.004	11048.45
484.208	10882.56
484.412	10776.07
484.616	10741.25
484.821	10860.04
485.025	10745.35
485.229	10999.3
485.433	10794.5
485.637	10878.47
485.841	10745.35
486.045	10874.37
486.249	10837.51
486.453	10771.97
486.657	10761.73
486.861	10769.93
487.065	10567.18
487.269	10925.57
487.473	10831.37
487.677	10989.06
487.881	10925.57
488.085	10970.63
488.289	10909.19
488.493	10939.91
488.697	11175.42
488.901	10718.73
489.105	10927.62
489.309	11013.63
489.512	11064.83
489.716	10991.11
489.92	10827.27
490.124	10862.08
490.328	11150.85
490.531	10880.52
490.735	11265.53
490.939	11204.1
491.143	11300.35
491.346	11087.36
491.55	11656.7
491.754	11554.3
491.958	11449.85
492.161	11634.17
492.365	11496.96
492.569	11503.1
492.772	11554.3
492.976	11636.22
493.18	11771.38
493.383	11961.84
493.587	11720.18
493.79	12082.67
493.994	11685.37
494.197	11996.66
494.401	12223.98
494.605	12172.78
494.808	12252.66
495.012	12361.2
495.215	12426.73
495.419	12721.64
495.622	12422.64
495.825	12582.38
496.029	12633.58
496.232	13065.7
496.436	13012.45
496.639	13180.39
496.843	13258.21
497.046	13420
497.249	13508.06
497.453	13551.07
497.656	13592.03
497.859	13454.81
498.063	13884.89
498.266	14177.75
498.469	13872.6
498.673	14167.51
498.876	14618.06
499.079	14591.44
499.282	14575.05
499.485	15013.32
499.689	14796.23
499.892	15326.66
500.095	15281.6
500.298	15875.51
500.501	15515.07
500.705	15713.72
500.908	16049.59
501.111	16240.05
501.314	16496.05
501.517	16547.25
501.72	16829.87
501.923	16842.15
502.126	17225.12
502.329	17522.08
502.532	17313.19
502.735	17560.99
502.938	18001.3
503.141	18142.61
503.344	18343.31
503.547	18292.12
503.75	18742.67
503.953	18787.72
504.156	18879.88
504.359	19064.2
504.562	19279.24
504.765	19572.1
504.968	20041.08
505.17	20172.15
505.373	20082.04
505.576	20594.03
505.779	20581.74
505.982	20974.95
506.185	21101.93
506.387	20972.91
506.59	21409.12
506.793	21677.41
506.996	21517.67
507.198	22211.93
507.401	22039.9
507.604	22232.41
507.807	23141.71
508.009	22742.35
508.212	23215.43
508.415	23432.52
508.617	23676.23
508.82	23708.99
509.022	23704.9
509.225	24517.94
509.428	24327.48
509.63	24665.39
509.833	24585.52
510.035	25515.3
510.238	25388.33
510.44	25738.53
510.643	25851.17
510.845	26346.78
511.048	26096.92
511.25	26527
511.453	26588.44
511.655	27680
511.858	27135.24
512.06	27518.21
512.262	27837.7
512.465	27753.73
512.667	28333.31
512.87	28478.71
513.072	28626.17
513.274	29177.07
513.477	29476.07
513.679	29336.81
513.881	29664.49
514.084	30252.25
514.286	29979.87
514.488	30131.42
514.69	31065.3
514.893	31456.46
515.095	31313.1
515.297	31468.75
515.499	31708.36
515.701	32148.67
515.904	32638.14
516.106	32505.02
516.308	32849.08
516.51	33178.8
516.712	33270.96
516.914	33668.26
517.116	34206.88
517.318	34454.68
517.52	34196.64
517.722	34407.58
517.925	35368.08
518.127	35431.57
518.329	36019.33
518.531	35691.66
518.733	36340.86
518.935	36246.66
519.136	36582.52
519.338	37256.31
519.54	37248.11
519.742	37452.91
519.944	37672.04
520.146	38319.2
520.348	38485.09
520.55	38315.11
520.752	38528.09
520.954	39625.81
521.155	38866.01
521.357	39509.07
521.559	39734.35
521.761	40326.21
521.963	40293.44
522.164	40606.78
522.366	40555.58
522.568	40993.85
522.77	41167.93
522.971	41659.44
523.173	41718.83
523.375	41790.51
523.576	41993.26
523.778	41620.53
523.98	42769.44
524.181	43111.45
524.383	42812.45
524.584	43359.25
524.786	43541.52
524.988	43000.86
525.189	43887.63
525.391	44182.54
525.592	44135.43
525.794	43985.93
525.995	44246.02
526.197	44309.51
526.398	44571.65
526.6	44928
526.801	45399.03
527.003	45194.23
527.204	45442.04
527.406	45661.17
527.607	45663.22
527.808	45657.07
528.01	44944.38
528.211	45751.28
528.412	46318.57
528.614	46377.96
528.815	46277.61
529.016	46461.93
529.218	46162.92
529.419	46171.11
529.62	46633.96
529.822	46988.25
530.023	46402.53
530.224	46552.04
530.425	46644.19
530.626	46549.99
530.828	46564.32
531.029	47250.39
531.23	46818.27
531.431	46941.15
531.632	46943.2
531.833	47289.31
532.035	47260.63
532.236	47133.66
532.437	47440.85
532.638	47553.49
532.839	47631.32
533.04	47690.71
533.241	47080.41
533.442	47979.47
533.643	47623.12
533.844	47483.86
534.045	47807.44
534.246	47264.73
534.447	47678.42
534.648	47442.9
534.849	47889.36
535.05	47395.8
535.251	47797.2
535.451	47586.26
535.652	47778.77
535.853	48137.16
536.054	47766.48
536.255	47860.69
536.456	47565.78
536.657	48180.17
536.857	47666.13
537.058	47375.32
537.259	47969.23
537.46	48120.78
537.66	47430.61
537.861	47369.18
538.062	47479.77
538.263	47848.4
538.463	47692.75
538.664	47809.49
538.865	47313.88
539.065	47932.37
539.266	47578.07
539.466	47662.04
539.667	46777.31
539.868	47639.51
540.068	47799.25
540.269	47915.98
540.469	47956.94
540.67	47064.03
540.87	47664.08
541.071	47664.08
541.271	47915.98
541.472	47569.88
541.672	47748.05
541.873	47406.04
542.073	47133.66
542.274	47870.93
542.474	47244.25
542.675	47264.73
542.875	47616.98
543.075	47637.46
543.276	46982.11
543.476	47571.92
543.676	47148
543.877	47487.96
544.077	47305.69
544.277	47281.11
544.478	47272.92
544.678	47254.49
544.878	47121.37
545.078	47305.69
545.279	47178.71
545.479	47070.17
545.679	47506.39
545.879	47436.76
546.079	47182.81
546.28	47080.41
546.48	47076.32
546.68	47537.11
546.88	47035.36
547.08	47049.69
547.28	46916.57
547.48	46848.99
547.68	47244.25
547.88	46857.18
548.081	47307.74
548.281	47018.97
548.481	47033.31
548.681	47137.76
548.881	46615.52
549.081	47037.4
549.28	46519.27
549.48	47203.29
549.68	46396.39
549.88	47434.71
550.08	46769.12
550.28	47342.55
550.48	46412.77
550.68	47211.48
550.88	46287.85
551.08	46851.04
551.279	46959.58
551.479	46433.25
551.679	46748.64
551.879	46545.89
552.079	46947.29
552.278	46695.39
552.478	46816.22
552.678	47115.23
552.878	46859.23
553.077	46965.73
553.277	46384.1
553.477	47375.32
553.676	46101.48
553.876	46365.67
554.076	46466.02
554.275	46605.28
554.475	45980.65
554.674	46662.63
554.874	46687.2
555.074	46224.36
555.273	46326.76
555.473	46517.22
555.672	46013.42
555.872	46185.45
556.071	46265.32
556.271	46539.75
556.47	45986.8
556.67	45898.73
556.869	45911.02
557.068	46228.46
557.268	45456.37
557.467	46089.2
557.667	46144.49
557.866	45904.88
558.065	45798.38
558.265	45188.09
558.464	45827.06
558.663	45736.94
558.863	45222.9
559.062	46285.8
559.261	45216.76
559.461	45949.93
559.66	45091.83
559.859	45327.35
560.058	45044.73
560.258	45480.95
560.457	44944.38
560.656	45474.8
560.855	44993.53
561.054	45304.82
561.253	45030.4
561.453	45038.59
561.652	45175.8
561.851	45181.95
562.05	44903.42
562.249	44807.17
562.448	45407.22
562.647	45030.4
562.846	44745.73
563.045	44786.69
563.244	44026.89
563.443	44817.41
563.642	43918.35
563.841	44282.89
564.04	44088.33
564.239	44637.19
564.438	44043.27
564.637	44194.82
564.836	44385.29
565.035	44065.8
565.234	44166.15
565.432	43605.01
565.631	43807.76
565.83	44024.84
566.029	43457.56
566.228	43942.92
566.427	43605.01
566.625	43408.4
566.824	42882.08
567.023	43768.85
567.222	42925.08
567.42	43490.32
567.619	43207.7
567.818	43207.7
568.016	42853.4
568.215	43367.44
568.414	43054.11
568.612	43166.74
568.811	42484.77
569.01	42945.56
569.208	42075.18
569.407	42775.58
569.605	42081.32
569.804	42591.26
570.002	41933.87
570.201	42206.25
570.4	41511.99
570.598	41624.62
570.797	41499.7
570.995	41542.7
571.193	41686.06
571.392	41673.77
571.59	41212.98
571.789	41620.53
571.987	41200.69
572.186	41233.46
572.384	41122.87
572.582	41507.89
572.781	41296.95
572.979	40690.75
573.177	40944.7
573.376	40916.03
573.574	40379.46
573.772	40633.41
573.971	40924.22
574.169	40115.27
574.367	40027.21
574.565	40813.63
574.763	40123.46
574.962	40049.74
575.16	39703.63
575.358	39982.15
575.556	39713.87
575.754	39765.07
575.952	39488.59
576.151	39533.65
576.349	39658.57
576.547	39107.67
576.745	39629.9
576.943	39064.66
577.141	39386.19
577.339	39537.74
577.537	39193.68
577.735	38696.03
577.933	38843.48
578.131	38952.02
578.329	38714.46
578.527	38626.4
578.725	38804.57
578.923	38620.25
579.121	38245.48
579.319	37846.12
579.516	38478.94
579.714	38380.64
579.912	37899.37
580.11	37817.45
580.308	38362.21
580.506	38272.1
580.704	37256.31
580.901	37704.81
581.099	37903.46
581.297	37135.48
581.495	37692.52
581.692	37536.88
581.89	37221.49
582.088	37356.66
582.285	37008.5
582.483	37067.89
582.681	36885.62
582.878	36772.99
583.076	36539.52
583.274	37014.65
583.471	36324.48
583.669	36605.05
583.866	36289.66
584.064	36367.49
584.262	35906.69
584.459	36336.77
584.657	35687.56
584.854	36129.92
585.052	35437.71
585.249	35697.8
585.447	35757.19
585.644	35298.45
585.841	35294.35
586.039	35763.34
586.236	35460.24
586.434	35142.8
586.631	35224.72
586.828	35169.43
587.026	35024.02
587.223	35226.77
587.42	34948.25
587.618	34675.87
587.815	34473.12
588.012	34770.07
588.21	34466.97
588.407	34555.04
588.604	34274.46
588.801	34032.8
588.999	34022.56
589.196	34038.95
589.393	33883.3
589.59	34229.41
589.787	33959.08
589.984	33572.01
590.182	33356.97
590.379	33868.97
590.576	33090.74
590.773	33234.1
590.97	32988.34
591.167	33008.82
591.364	32847.03
591.561	33156.27
591.758	32812.21
591.955	32818.36
592.152	32943.28
592.349	32361.66
592.546	33000.63
592.743	32591.03
592.94	31913.16
593.137	32271.55
593.334	32480.44
593.531	31777.99
593.727	32025.79
593.924	32199.87
594.121	31395.02
594.318	31751.37
594.515	31210.7
594.712	31898.82
594.908	31466.7
595.105	31765.7
595.302	31194.32
595.499	31378.64
595.696	31179.98
595.892	31024.34
596.089	31096.02
596.286	31202.51
596.482	30647.51
596.679	30649.56
596.876	31034.58
597.072	30491.87
597.269	30792.92
597.466	30158.05
597.662	30393.56
597.859	30262.49
598.055	30033.12
598.252	29938.91
598.448	29959.39
598.645	29859.04
598.841	29437.16
599.038	29574.38
599.234	29662.44
599.431	29566.18
599.627	29312.24
599.824	29959.39
600.02	28953.84
600.217	29019.38
600.413	29177.07
600.609	28974.32
600.806	29033.71
601.002	29236.46
601.198	29142.25
601.395	28865.78
601.591	28423.42
601.787	28749.04
601.984	28486.9
602.18	28460.28
602.376	28339.45
602.572	28148.99
602.769	28198.14
602.965	27616.52
603.161	28079.36
603.357	27874.56
603.553	28359.93
603.75	27831.55
603.946	27563.27
604.142	27604.23
604.338	27370.76
604.534	27589.89
604.73	27378.95
604.926	27307.27
605.122	26873.1
605.318	27139.34
605.514	26834.19
605.71	26952.98
605.906	26840.34
606.102	27104.53
606.298	27038.99
606.494	26803.47
606.69	26891.54
606.886	26883.34
607.082	26408.22
607.278	26524.95
607.474	25920.8
607.67	26334.49
607.866	25957.66
608.062	26520.85
608.257	26025.25
608.453	26201.37
608.649	26076.44
608.845	25918.75
609.041	25781.54
609.236	26066.2
609.432	25699.62
609.628	25928.99
609.824	25781.54
610.019	25634.08
610.215	25629.99
610.411	25439.53
610.606	25509.16
610.802	25478.44
610.998	25607.46
611.193	25609.51
611.389	25509.16
611.584	25183.53
611.78	25234.73
611.976	25345.32
612.171	25167.15
612.367	25382.18
612.562	25042.22
612.758	24816.94
612.953	24945.97
613.149	24843.57
613.344	24685.87
613.539	25294.12
613.735	24591.67
613.93	24810.8
614.126	24847.66
614.321	24941.87
614.517	24892.72
614.712	24769.84
614.907	24239.42
615.103	24757.55
615.298	24386.87
615.493	24775.98
615.688	24278.33
615.884	24651.06
616.079	23928.13
616.274	24296.76
616.47	24220.99
616.665	24235.32
616.86	23926.08
617.055	24118.59
617.25	24077.63
617.445	23944.51
617.641	23496
617.836	23801.15
618.031	23739.71
618.226	23835.97
618.421	23252.3
618.616	23563.59
618.811	23131.47
619.006	23911.74
619.201	23094.6
619.396	22981.96
619.591	22852.94
619.786	23125.32
619.981	22832.46
620.176	22879.57
620.371	22809.93
620.566	22764.88
620.761	22416.72
620.956	22429.01
621.151	22463.83
621.346	22467.92
621.541	21769.57
621.735	22394.2
621.93	22013.27
622.125	21759.33
622.32	21693.79
622.515	21667.17
622.709	21523.81
622.904	21294.44
623.099	21308.77
623.294	21556.58
623.488	21118.31
623.683	21099.88
623.878	20977
624.072	20890.99
624.267	20821.36
624.462	20630.9
624.656	20419.96
624.851	20401.52
625.046	20223.35
625.24	19965.31
625.435	20206.97
625.629	20094.33
625.824	19936.63
626.018	19813.76
626.213	19326.34
626.407	19647.87
626.602	19307.91
626.796	19574.14
626.991	19553.66
627.185	19207.56
627.38	19031.43
627.574	18957.71
627.768	18849.16
627.963	18935.18
628.157	18750.86
628.352	18632.08
628.546	18353.55
628.74	18621.84
628.935	18374.03
629.129	17929.63
629.323	17857.95
629.517	18320.79
629.712	17968.54
629.906	17980.82
630.1	17579.42
630.294	17483.17
630.489	17261.99
630.683	17554.85
630.877	17192.36
631.071	17280.42
631.265	17393.06
631.459	17014.18
631.653	16911.78
631.848	17014.18
632.042	16696.75
632.236	16833.96
632.43	16598.45
632.624	16729.52
632.818	16569.77
633.012	16104.88
633.206	16584.11
633.4	16149.94
633.594	16025.01
633.788	16002.49
633.982	15941.05
634.176	15750.59
634.369	15912.38
634.563	15852.98
634.757	15748.54
634.951	15627.71
635.145	15465.92
635.339	15506.88
635.533	15553.98
635.726	15216.07
635.92	15009.22
636.114	15162.82
636.308	15183.3
636.501	15158.72
636.695	14751.18
636.889	14814.66
637.083	14548.43
637.276	14683.59
637.47	14697.93
637.664	14388.69
637.857	14673.35
638.051	14364.11
638.244	14493.13
638.438	14230.99
638.632	14230.99
638.825	14046.68
639.019	14024.15
639.212	13753.82
639.406	13786.58
639.599	13725.15
639.793	13630.94
639.986	13747.67
640.18	13594.08
640.373	13561.31
640.567	13258.21
640.76	13538.78
640.954	13415.9
641.147	13022.69
641.34	13217.25
641.534	12897.77
641.727	13051.36
641.92	12942.82
642.114	12778.98
642.307	12756.46
642.5	12940.77
642.694	12717.54
642.887	12565.99
643.08	12731.88
643.273	12447.21
643.467	12570.09
643.66	12475.88
643.853	12293.62
644.046	12211.7
644.239	12107.25
644.432	11920.88
644.626	11916.79
644.819	11941.36
645.012	11927.03
645.205	12004.85
645.398	11752.95
645.591	11701.75
645.784	11896.31
645.977	11427.32
646.17	11496.96
646.363	11548.15
646.556	11470.33
646.749	11253.25
646.942	11558.39
647.135	11574.78
647.328	11292.16
647.521	11208.19
647.714	11013.63
647.907	11105.79
648.099	11087.36
648.292	10874.37
648.485	10989.06
648.678	10591.75
648.871	10876.42
649.064	10671.62
649.256	10839.56
649.449	10464.78
649.642	10513.93
649.835	10485.26
650.027	10556.94
650.22	10282.51
650.413	10255.89
650.605	10243.6
650.798	10186.26
650.991	10028.56
651.183	10200.59
651.376	10071.57
651.568	10001.94
651.761	9942.55
651.954	9747.99
652.146	9805.33
652.339	9811.48
652.531	9795.09
652.724	9635.35
652.916	9547.29
653.109	9647.64
653.301	9580.06
653.494	9489.95
653.686	9260.57
653.879	9451.03
654.071	9485.85
654.263	9498.14
654.456	9293.34
654.648	9303.58
654.84	9076.26
655.033	9131.55
655.225	9033.25
655.417	8855.08
655.61	9090.59
655.802	8748.58
655.994	8748.58
656.186	8936.99
656.379	8869.41
656.571	8769.06
656.763	8619.56
656.955	8629.8
657.148	8744.49
657.34	8646.18
657.532	8687.14
657.724	8506.92
657.916	8619.56
658.108	8304.17
658.3	8244.78
658.492	8373.8
658.684	8287.79
658.876	8064.56
659.068	8146.48
659.26	8150.57
659.452	8146.48
659.644	8101.42
659.836	8121.9
660.028	8175.15
660.22	7857.71
660.412	7949.87
660.604	7980.59
660.796	7884.34
660.988	7851.57
661.18	7687.73
661.372	7515.7
661.563	7667.25
661.755	7568.95
661.947	7573.05
662.139	7618.1
662.331	7460.41
662.522	7415.35
662.714	7355.96
662.906	7228.99
663.097	7472.7
663.289	7274.04
663.481	7239.23
663.673	7280.19
663.864	7214.65
664.056	7134.78
664.247	7163.45
664.439	7181.89
664.631	7255.61
664.822	6886.98
665.014	6829.63
665.205	7030.34
665.397	6788.68
665.588	6999.62
665.78	6823.49
665.971	6821.44
666.163	6821.44
666.354	6727.24
666.546	6702.66
666.737	6622.79
666.929	6815.3
667.12	6590.02
667.311	6577.73
667.503	6534.73
667.694	6684.23
667.885	6491.72
668.077	6436.42
668.268	6278.73
668.459	6303.31
668.651	6327.88
668.842	6303.31
669.033	6393.42
669.224	6205
669.416	6280.78
669.607	6327.88
669.798	6063.69
669.989	6254.16
670.18	6172.24
670.371	6139.47
670.563	6041.17
670.754	6082.13
670.945	6032.97
671.136	5936.72
671.327	6037.07
671.518	5918.29
671.709	5832.27
671.9	5891.66
672.091	5762.64
672.282	5994.06
672.473	5731.92
672.664	5699.16
672.855	5697.11
673.046	5862.99
673.237	5627.48
673.428	5869.14
673.619	5656.15
673.809	5736.02
674	5541.46
674.191	5789.27
674.382	5555.8
674.573	5418.58
674.764	5555.8
674.954	5660.24
675.145	5426.78
675.336	5527.13
675.527	5437.02
675.717	5584.47
675.908	5389.91
676.099	5373.53
676.289	5330.52
676.48	5373.53
676.671	5244.51
676.861	5242.46
677.052	5232.22
677.243	5219.93
677.433	5170.78
677.624	5185.12
677.814	5131.87
678.005	5123.68
678.195	5129.82
678.386	4996.7
678.576	5039.71
678.767	5123.68
678.957	5039.71
679.148	5183.07
679.338	5054.05
679.529	5109.34
679.719	4986.46
679.909	4982.37
680.1	4939.36
680.29	5092.96
680.481	5125.72
680.671	5140.06
680.861	4871.78
681.052	5011.04
681.242	4894.3
681.432	4941.41
681.622	4845.15
681.813	4845.15
682.003	4705.89
682.193	4843.1
682.383	4705.89
682.573	4796
682.764	4804.19
682.954	4652.64
683.144	4875.87
683.334	4619.88
683.524	4626.02
683.714	4613.73
683.904	4718.18
684.094	4599.4
684.284	4419.18
684.474	4617.83
684.664	4714.08
684.854	4503.14
685.044	4460.13
685.234	4497
685.424	4644.45
685.614	4460.13
685.804	4451.94
685.994	4339.3
686.184	4404.84
686.374	4474.47
686.564	4382.31
686.753	4449.89
686.943	4509.29
687.133	4370.02
687.323	4245.1
687.513	4331.11
687.702	4376.17
687.892	4322.92
688.082	4359.78
688.272	4251.24
688.461	4365.93
688.651	4163.18
688.841	4025.97
689.03	4142.7
689.22	4075.12
689.41	4101.74
689.599	4118.12
689.789	4081.26
689.979	4091.5
690.168	3985.01
690.358	4021.87
690.547	4003.44
690.737	4040.3
690.926	3960.43
691.116	3993.2
691.305	4021.87
691.495	3919.47
691.684	3966.57
691.874	3933.81
692.063	3880.56
692.252	3855.98
692.442	3864.18
692.631	3823.22
692.82	3788.4
693.01	3724.91
693.199	3921.52
693.388	3747.44
693.578	3610.23
693.767	3690.1
693.956	3810.93
694.146	3638.9
694.335	3608.18
694.524	3690.1
694.713	3769.97
694.902	3616.37
695.092	3636.85
695.281	3446.39
695.47	3516.02
695.659	3554.93
695.848	3653.23
696.037	3497.59
696.226	3571.32
696.415	3427.96
696.604	3497.59
696.793	3395.19
696.982	3528.31
697.171	3468.92
697.36	3493.49
697.549	3485.3
697.738	3477.11
697.927	3374.71
698.116	3341.94
698.305	3585.65
698.494	3415.67
698.683	3452.53
698.872	3425.91
699.061	3282.55
699.25	3378.81
699.438	3460.73
699.627	3354.23
699.816	3360.38
700.005	3337.85
700.193	3204.73
700.382	3348.09
700.571	3380.86
700.76	3331.7
700.948	3200.63
701.137	3266.17
701.326	3188.35
701.514	3176.06
701.703	3329.66
701.892	3221.11
702.08	3378.81
702.269	3180.15
702.457	3296.89
702.646	3190.39
702.834	3100.28
703.023	3182.2
703.212	3341.94
703.4	3159.67
703.589	3192.44
703.777	3126.91
703.965	3231.35
704.154	3096.19
704.342	3108.48
704.531	3145.34
704.719	2977.41
704.907	3112.57
705.096	3094.14
705.284	2936.45
705.472	3116.67
705.661	3163.77
705.849	2975.36
706.037	3116.67
706.226	3110.52
706.414	3036.8
706.602	3155.58
706.79	3085.95
706.979	2991.74
707.167	3100.28
707.355	3024.51
707.543	2958.97
707.731	3157.63
707.919	3028.6
708.107	2961.02
708.296	2911.87
708.484	2979.45
708.672	2905.73
708.86	2993.79
709.048	2915.97
709.236	2950.78
709.424	3096.19
709.612	2823.81
709.8	2938.49
709.988	2774.66
710.176	2856.58
710.364	2903.68
710.551	2934.4
710.739	2852.48
710.927	2864.77
711.115	2993.79
711.303	2913.92
711.491	2956.93
711.679	2838.14
711.866	2897.53
712.054	2905.73
712.242	2776.7
712.43	2885.25
712.617	2997.88
712.805	2778.75
712.993	2895.49
713.181	2918.01
713.368	2821.76
713.556	2922.11
713.744	2774.66
713.931	2850.43
714.119	2870.91
714.306	2801.28
714.494	2791.04
714.682	2727.55
714.869	2659.97
715.057	2788.99
715.244	2616.96
715.432	2832
715.619	2817.66
715.807	2641.54
715.994	2809.47
716.182	2676.35
716.369	2637.44
716.556	2592.39
716.744	2758.27
716.931	2651.78
717.119	2721.41
717.306	2737.79
717.493	2612.87
717.681	2727.55
717.868	2612.87
718.055	2737.79
718.242	2662.02
718.43	2764.42
718.617	2700.93
718.804	2684.55
718.991	2510.47
719.179	2637.44
719.366	2635.39
719.553	2633.35
719.74	2743.94
719.927	2592.39
720.114	2510.47
720.301	2569.86
720.488	2535.04
720.676	2563.72
720.863	2670.21
721.05	2690.69
721.237	2616.96
721.424	2459.27
721.611	2520.71
721.798	2530.95
721.985	2608.77
722.172	2526.85
722.358	2537.09
722.545	2547.33
722.732	2600.58
722.919	2602.63
723.106	2614.91
723.293	2530.95
723.48	2545.28
723.667	2500.23
723.853	2444.93
724.04	2561.67
724.227	2559.62
724.414	2471.56
724.6	2453.13
724.787	2502.28
724.974	2551.43
725.161	2438.79
725.347	2514.56
725.534	2569.86
725.72	2406.02
725.907	2430.6
726.094	2379.4
726.28	2446.98
726.467	2403.97
726.653	2436.74
726.84	2438.79
727.027	2514.56
727.213	2438.79
727.4	2412.17
727.586	2397.83
727.773	2412.17
727.959	2502.28
728.145	2289.29
728.332	2350.73
728.518	2446.98
728.705	2485.89
728.891	2297.48
729.077	2365.06
729.264	2297.48
729.45	2305.67
729.636	2338.44
729.823	2420.36
730.009	2358.92
730.195	2379.4
730.382	2412.17
730.568	2387.59
730.754	2293.38
730.94	2391.69
731.126	2444.93
731.313	2354.82
731.499	2379.4
731.685	2135.69
731.871	2283.14
732.057	2446.98
732.243	2315.91
732.429	2281.1
732.615	2365.06
732.801	2281.1
732.987	2281.1
733.173	2324.1
733.359	2379.4
733.545	2287.24
733.731	2317.96
733.917	2332.3
734.103	2201.23
734.289	2324.1
734.475	2227.85
734.661	2332.3
734.847	2213.51
735.033	2201.23
735.219	2283.14
735.404	2201.23
735.59	2256.52
735.776	2250.38
735.962	2289.29
736.148	2233.99
736.333	2199.18
736.519	2156.17
736.705	2248.33
736.89	2133.64
737.076	2190.99
737.262	2131.59
737.447	2264.71
737.633	2250.38
737.819	2174.6
738.004	2231.94
738.19	2162.31
738.375	2027.15
738.561	2168.46
738.747	2141.83
738.932	2197.13
739.118	2213.51
739.303	2231.94
739.489	2125.45
739.674	2184.84
739.859	2117.26
740.045	2117.26
740.23	2104.97
740.416	1961.61
740.601	2182.79
740.786	2182.79
740.972	2117.26
741.157	2066.06
741.342	2002.57
741.528	2090.63
741.713	2162.31
741.898	2115.21
742.084	1975.95
742.269	1996.43
742.454	1881.74
742.639	1898.13
742.824	2043.53
743.01	2027.15
743.195	2008.72
743.38	2016.91
743.565	1969.8
743.75	2004.62
743.935	1949.32
744.12	1994.38
744.305	1947.28
744.49	1818.25
744.675	1998.48
744.86	1957.52
745.045	1791.63
745.23	1885.84
745.415	1894.03
745.6	1871.5
745.785	1779.34
745.97	1851.02
746.155	1822.35
746.34	1873.55
746.525	1781.39
746.71	1805.97
746.895	1775.25
747.079	1691.28
747.264	1822.35
747.449	1779.34
747.634	1834.64
747.819	1717.9
748.003	1738.38
748.188	1730.19
748.373	1808.02
748.557	1662.61
748.742	1693.33
748.927	1654.42
749.111	1709.71
749.296	1707.66
749.481	1644.18
749.665	1625.75
749.85	1642.13
750.034	1621.65
750.219	1715.86
750.404	1558.16
750.588	1592.98
750.773	1502.87
750.957	1576.59
751.141	1496.72
751.326	1463.96
751.51	1558.16
751.695	1572.5
751.879	1590.93
752.064	1599.12
752.248	1455.76
752.432	1572.5
752.617	1435.28
752.801	1535.64
752.985	1396.37
753.17	1488.53
753.354	1410.71
753.538	1478.29
753.722	1449.62
753.907	1386.13
754.091	1347.22
754.275	1265.3
754.459	1408.66
754.643	1316.5
754.828	1347.22
755.012	1318.55
755.196	1408.66
755.38	1341.08
755.564	1326.74
755.748	1300.12
755.932	1138.33
756.116	1226.39
756.3	1330.84
756.484	1216.15
756.668	1279.64
756.852	1257.11
757.036	1277.59
757.22	1175.19
757.404	1150.62
757.588	1236.63
757.772	1232.54
757.956	1117.85
758.14	1193.62
758.323	1142.43
758.507	1152.67
758.691	1240.73
758.875	1224.34
759.059	1218.2
759.242	1167
759.426	1152.67
759.61	1113.75
759.794	1146.52
759.977	1138.33
760.161	1158.81
760.345	1187.48
760.528	1216.15
760.712	1097.37
760.895	1093.27
761.079	1015.45
761.263	1013.4
761.446	1056.41
761.63	1001.12
761.813	1058.46
761.997	1027.74
762.18	988.83
762.364	1035.93
762.547	947.87
762.731	999.07
762.914	1058.46
763.098	949.92
763.281	1068.7
763.464	1031.83
763.648	1048.22
763.831	1023.64
764.015	970.4
764.198	984.73
764.381	1046.17
764.564	949.92
764.748	982.68
764.931	970.4
765.114	896.67
765.297	1070.75
765.481	1005.21
765.664	929.44
765.847	945.82
766.03	904.86
766.213	937.63
766.397	974.49
766.58	890.53
766.763	976.54
766.946	833.18
767.129	994.97
767.312	929.44
767.495	847.52
767.678	951.96
767.861	833.18
768.044	874.14
768.227	849.57
768.41	847.52
768.593	962.2
768.776	921.24
768.959	941.72
769.142	888.48
769.324	839.33
769.507	872.09
769.69	831.13
769.873	870.05
770.056	882.33
770.239	863.9
770.421	913.05
770.604	851.61
770.787	865.95
770.97	738.98
771.152	847.52
771.335	890.53
771.518	839.33
771.7	820.89
771.883	863.9
772.066	722.59
772.248	804.51
772.431	794.27
772.613	814.75
772.796	757.41
772.978	833.18
773.161	837.28
773.343	788.13
773.526	769.69
773.708	847.52
773.891	712.35
774.073	704.16
774.256	816.8
774.438	757.41
774.621	769.69
774.803	798.37
774.985	712.35
775.168	796.32
775.35	769.69
775.532	704.16
775.715	726.69
775.897	702.11
776.079	708.26
776.261	710.3
776.444	691.87
776.626	724.64
776.808	667.3
776.99	618.15
777.173	642.72
777.355	685.73
777.537	642.72
777.719	700.06
777.901	659.1
778.083	589.47
778.265	550.56
778.447	677.54
778.629	634.53
778.811	593.57
778.993	722.59
779.175	489.12
779.357	657.06
779.539	589.47
779.721	542.37
779.903	622.24
780.085	534.18
780.267	671.39
780.449	577.19
780.631	585.38
780.812	607.91
780.994	564.9
781.176	593.57
781.358	538.27
781.54	612
781.721	577.19
781.903	577.19
782.085	478.88
782.267	540.32
782.448	532.13
782.63	601.76
782.812	571.04
782.993	530.08
783.175	530.08
783.357	452.26
783.538	554.66
783.72	519.84
783.901	442.02
784.083	470.69
784.264	568.99
784.446	515.75
784.627	470.69
784.809	517.79
784.99	433.83
785.172	474.79
785.353	448.16
785.535	568.99
785.716	351.91
785.897	491.17
786.079	399.01
786.26	437.92
786.441	429.73
786.623	356.01
786.804	396.96
786.985	462.5
787.167	405.16
787.348	329.38
787.529	425.64
787.71	429.73
787.891	413.35
788.073	487.08
788.254	417.44
788.435	495.27
788.616	454.31
788.797	444.07
788.978	460.45
789.159	341.67
789.34	382.63
789.522	323.24
789.703	253.61
789.884	431.78
790.065	429.73
790.246	444.07
790.427	347.81
790.607	351.91
790.788	347.81
790.969	331.43
791.15	333.48
791.331	349.86
791.512	333.48
791.693	386.72
791.874	317.09
792.054	409.25
792.235	380.58
792.416	325.29
792.597	292.52
792.778	347.81
792.958	396.96
793.139	431.78
793.32	323.24
793.5	347.81
793.681	384.68
793.862	339.62
794.042	356.01
794.223	323.24
794.404	337.57
794.584	331.43
794.765	339.62
794.945	290.47
795.126	364.2
795.306	382.63
795.487	304.81
795.667	327.33
795.848	308.9
796.028	294.57
796.209	259.75
796.389	360.1
796.57	251.56
796.75	261.8
796.93	337.57
797.111	294.57
797.291	265.89
797.471	349.86
797.652	323.24
797.832	265.89
798.012	263.85
798.192	194.22
798.373	259.75
798.553	323.24
798.733	333.48
798.913	269.99
799.093	224.94
799.274	235.18
799.454	226.98
799.634	306.85
799.814	267.94
799.994	235.18
800.174	220.84
800.354	278.18
800.534	145.06
800.714	241.32
800.894	159.4
801.074	274.09
801.254	259.75
801.434	261.8
801.614	294.57
801.794	245.41
801.974	691.87
802.154	126.63
802.334	257.7
802.514	194.22
802.693	241.32
802.873	190.12
803.053	257.7
803.233	298.66
803.413	190.12
803.592	224.94
803.772	196.26
803.952	237.22
804.131	151.21
804.311	286.37
804.491	204.46
804.67	290.47
804.85	226.98
805.03	204.46
805.209	265.89
805.389	151.21
805.568	143.02
805.748	145.06
805.928	208.55
806.107	235.18
806.287	249.51
806.466	188.07
806.646	204.46
806.825	233.13
807.004	249.51
807.184	151.21
807.363	216.74
807.543	190.12
807.722	147.11
807.901	167.59
808.081	206.5
808.26	169.64
808.439	175.78
808.619	200.36
808.798	134.82
808.977	265.89
809.156	181.93
809.336	216.74
809.515	196.26
809.694	145.06
809.873	202.41
810.052	155.3
810.231	204.46
810.411	136.87
810.59	274.09
810.769	198.31
810.948	224.94
811.127	57
811.306	179.88
811.485	161.45
811.664	224.94
811.843	175.78
812.022	186.02
812.201	153.26
812.38	218.79
812.559	126.63
812.737	151.21
812.916	118.44
813.095	167.59
813.274	93.87
813.453	167.59
813.632	102.06
813.811	224.94
813.989	192.17
814.168	200.36
814.347	159.4
814.526	200.36
814.704	190.12
814.883	175.78
815.062	169.64
815.24	151.21
815.419	130.73
815.598	226.98
815.776	104.11
815.955	186.02
816.133	159.4
816.312	151.21
816.49	134.82
816.669	138.92
816.847	57
817.026	157.35
817.204	151.21
817.383	169.64
817.561	93.87
817.74	175.78
817.918	204.46
818.097	122.54
818.275	147.11
818.453	167.59
818.632	179.88
818.81	226.98
818.988	110.25
819.167	69.29
819.345	126.63
819.523	87.72
819.701	124.58
819.879	61.1
820.058	136.87
820.236	143.02
820.414	153.26
820.592	169.64
820.77	112.3
820.948	167.59
821.127	161.45
821.305	85.67
821.483	118.44
821.661	112.3
821.839	153.26
822.017	71.34
822.195	75.43
822.373	71.34
822.551	134.82
822.729	183.98
822.907	118.44
823.085	136.87
823.262	151.21
823.44	116.39
823.618	46.76
823.796	108.2
823.974	136.87
824.152	85.67
824.329	79.53
824.507	48.81
824.685	134.82
824.863	126.63
825.04	149.16
825.218	118.44
825.396	169.64
825.574	128.68
825.751	173.74
825.929	108.2
826.107	108.2
826.284	192.17
826.462	75.43
826.639	106.15
826.817	63.15
826.994	77.48
827.172	110.25
827.349	110.25
827.527	118.44
827.704	112.3
827.882	-37.2
828.059	42.67
828.237	108.2
828.414	145.06
828.591	120.49
828.769	54.95
828.946	138.92
829.124	104.11
829.301	116.39
829.478	126.63
829.655	153.26
829.833	155.3
830.01	46.76
830.187	63.15
830.364	73.39
830.542	89.77
830.719	155.3
830.896	69.29
831.073	179.88
831.25	3.75
831.427	147.11
831.604	126.63
831.782	69.29
831.959	87.72
832.136	61.1
832.313	134.82
832.49	52.91
832.667	95.91
832.844	61.1
833.021	87.72
833.198	67.24
833.374	165.54
833.551	95.91
833.728	91.82
833.905	79.53
834.082	87.72
834.259	108.2
834.436	159.4
834.612	46.76
834.789	134.82
834.966	112.3
835.143	63.15
835.319	40.62
835.496	42.67
835.673	67.24
835.85	151.21
836.026	93.87
836.203	77.48
836.38	97.96
836.556	104.11
836.733	102.06
836.909	100.01
837.086	145.06
837.262	118.44
837.439	85.67
837.616	143.02
837.792	159.4
837.968	44.71
838.145	22.19
838.321	126.63
838.498	104.11
838.674	85.67
838.851	65.19
839.027	48.81
839.203	34.47
839.38	102.06
839.556	59.05
839.732	79.53
839.909	85.67
840.085	44.71
840.261	52.91
840.437	22.19
840.614	36.52
840.79	126.63
840.966	97.96
841.142	112.3
841.318	30.38
841.494	130.73
841.671	69.29
841.847	71.34
842.023	69.29
842.199	112.3
842.375	73.39
842.551	61.1
842.727	16.04
842.903	192.17
843.079	50.86
843.255	73.39
843.431	20.14
843.607	3.75
843.783	-29.01
843.959	65.19
844.134	-4.44
844.31	93.87
844.486	24.23
844.662	79.53
844.838	136.87
845.013	128.68
845.189	114.34
845.365	44.71
845.541	-10.58
845.716	69.29
845.892	34.47
846.068	40.62
846.244	5.8
846.419	69.29
846.595	52.91
846.77	16.04
846.946	20.14
847.122	61.1
847.297	95.91
847.473	73.39
847.648	-24.92
847.824	69.29
847.999	16.04
848.175	13.99
848.35	87.72
848.526	75.43
848.701	42.67
848.876	134.82
849.052	54.95
849.227	-2.39
849.403	54.95
849.578	22.19
849.753	7.85
849.929	54.95
850.104	13.99
850.279	79.53
850.454	46.76
850.63	100.01
850.805	11.95
850.98	102.06
851.155	61.1
851.33	38.57
851.505	11.95
851.681	126.63
851.856	65.19
852.031	48.81
852.206	87.72
852.381	95.91
852.556	-61.78
852.731	87.72
852.906	54.95
853.081	81.58
853.256	147.11
853.431	79.53
853.606	18.09
853.781	32.43
853.956	-0.34
854.131	104.11
854.305	91.82
854.48	-37.2
854.655	32.43
854.83	36.52
855.005	16.04
855.18	118.44
855.354	13.99
855.529	36.52
855.704	-8.53
855.879	28.33
856.053	46.76
856.228	69.29
856.403	93.87
856.577	18.09
856.752	71.34
856.926	48.81
857.101	61.1
857.276	-14.68
857.45	34.47
857.625	32.43
857.799	65.19
857.974	11.95
858.148	-4.44
858.323	79.53
858.497	67.24
858.672	38.57
858.846	87.72
859.02	34.47
859.195	-37.2
859.369	30.38
859.543	50.86
859.718	20.14
859.892	65.19
860.066	3.75
860.241	-43.35
860.415	44.71
860.589	46.76
860.763	110.25
860.938	11.95
861.112	110.25
861.286	46.76
861.46	71.34
861.634	1.71
861.808	77.48
861.982	87.72
862.157	22.19
862.331	11.95
862.505	3.75
862.679	-18.77
862.853	13.99
863.027	26.28
863.201	114.34
863.375	44.71
863.549	20.14
863.722	28.33
863.896	93.87
864.07	5.8
864.244	-12.63
864.418	85.67
864.592	3.75
864.766	9.9
864.939	3.75
865.113	44.71
865.287	57
865.461	26.28
865.634	65.19
865.808	24.23
865.982	61.1
866.156	-41.3
866.329	20.14
866.503	-20.82
866.676	100.01
866.85	69.29
867.024	44.71
867.197	87.72
867.371	7.85
867.544	46.76
867.718	32.43
867.891	44.71
868.065	42.67
868.238	36.52
868.412	71.34
868.585	57
868.759	61.1
868.932	52.91
869.105	-45.4
869.279	57
869.452	-0.34
869.625	100.01
869.799	11.95
869.972	30.38
870.145	-43.35
870.319	-12.63
870.492	-0.34
870.665	-12.63
870.838	22.19
871.011	20.14
871.185	3.75
871.358	16.04
871.531	85.67
871.704	-35.16
871.877	61.1
872.05	22.19
872.223	63.15
872.396	95.91
872.569	52.91
872.742	-24.92
872.915	9.9
873.088	-37.2
873.261	20.14
873.434	-16.73
873.607	69.29
873.78	57
873.953	-26.96
874.126	7.85
874.299	36.52
874.471	-12.63
874.644	36.52
874.817	95.91
874.99	32.43
875.163	22.19
875.335	13.99
875.508	36.52
875.681	36.52
875.853	-29.01
876.026	87.72
876.199	46.76
876.371	28.33
876.544	5.8
876.717	48.81
876.889	-29.01
877.062	-26.96
877.234	11.95
877.407	48.81
877.579	-4.44
877.752	44.71
877.924	42.67
878.097	28.33
878.269	32.43
878.442	5.8
878.614	-4.44
878.786	63.15
878.959	28.33
879.131	16.04
879.303	20.14
879.476	61.1
879.648	34.47
879.82	-2.39
879.993	44.71
880.165	36.52
880.337	67.24
880.509	7.85
880.681	-65.88
880.854	36.52
881.026	36.52
881.198	38.57
881.37	-29.01
881.542	11.95
881.714	-12.63
881.886	9.9
882.058	108.2
882.23	114.34
882.402	44.71
882.574	102.06
882.746	36.52
882.918	85.67
883.09	1.71
883.262	26.28
883.434	13.99
883.606	7.85
883.778	1.71
883.95	77.48
884.122	26.28
884.293	-8.53
884.465	46.76
884.637	46.76
884.809	28.33
884.98	11.95
885.152	44.71
885.324	16.04
885.496	-8.53
885.667	-72.02
885.839	63.15
886.011	67.24
886.182	40.62
886.354	-12.63
886.525	77.48
886.697	79.53
886.869	-78.16
887.04	5.8
887.212	85.67
887.383	48.81
887.555	-4.44
887.726	61.1
887.897	28.33
888.069	-0.34
888.24	36.52
888.412	-57.68
888.583	26.28
888.754	7.85
888.926	26.28
889.097	20.14
889.268	-12.63
889.44	28.33
889.611	34.47
889.782	16.04
889.953	-4.44
890.125	7.85
890.296	3.75
890.467	65.19
890.638	-61.78
890.809	44.71
890.98	13.99
891.151	110.25
891.323	54.95
891.494	46.76
891.665	30.38
891.836	-8.53
892.007	65.19
892.178	11.95
892.349	38.57
892.52	-2.39
892.691	69.29
892.862	-2.39
893.032	-16.73
893.203	1.71
893.374	52.91
893.545	24.23
893.716	-14.68
893.887	65.19
894.057	11.95
894.228	11.95
894.399	-20.82
894.57	57
894.74	-57.68
894.911	24.23
895.082	34.47
895.253	-12.63
895.423	63.15
895.594	-8.53
895.764	57
895.935	3.75
896.106	46.76
896.276	3.75
896.447	11.95
896.617	11.95
896.788	20.14
896.958	24.23
897.129	13.99
897.299	11.95
897.47	32.43
897.64	48.81
897.81	52.91
897.981	24.23
898.151	1.71
898.322	-6.49
898.492	7.85
898.662	54.95
898.832	3.75
899.003	61.1
899.173	26.28
899.343	24.23
899.513	-0.34
