Data from USB4F104151__76__14-17-30-870.txt Node

Date: Thu Mar 13 14:17:30 EDT 2025
User: louis
Spectrometer: USB4F10415
Trigger mode: 4
Integration Time (sec): 2.000000E-2
Scans to average: 1
Electric dark correction enabled: true
Nonlinearity correction enabled: false
Boxcar width: 0
XAxis mode: Wavelengths
Number of Pixels in Spectrum: 3648
>>>>>Begin Spectral Data<<<<<
178.204	-169.3
178.424	-169.3
178.644	-169.3
178.864	-95.57
179.084	-75.09
179.304	-9.56
179.524	-30.04
179.744	31.4
179.964	27.31
180.184	6.83
180.404	2.73
180.624	-48.47
180.844	53.93
181.064	17.07
181.283	-21.85
181.503	-9.56
181.723	-19.8
181.943	-66.9
182.163	55.98
182.383	21.16
182.602	41.64
182.822	31.4
183.042	-1.37
183.262	6.83
183.482	-5.46
183.701	-15.7
183.921	47.79
184.141	-89.43
184.361	64.17
184.58	-15.7
184.8	23.21
185.02	27.31
185.239	-17.75
185.459	51.88
185.679	-32.08
185.898	-34.13
186.118	-17.75
186.338	31.4
186.557	92.84
186.777	-11.61
186.997	35.5
187.216	6.83
187.436	23.21
187.655	-17.75
187.875	21.16
188.095	-85.33
188.314	-23.89
188.534	72.36
188.753	-71
188.973	47.79
189.192	64.17
189.412	-17.75
189.631	6.83
189.851	33.45
190.07	33.45
190.29	-38.23
190.509	47.79
190.729	76.46
190.948	-13.65
191.168	146.09
191.387	-32.08
191.607	15.02
191.826	-34.13
192.045	27.31
192.265	-38.23
192.484	-42.32
192.704	-42.32
192.923	-48.47
193.142	60.07
193.362	-5.46
193.581	72.36
193.8	62.12
194.02	-9.56
194.239	37.55
194.458	17.07
194.678	-73.04
194.897	-52.56
195.116	2.73
195.335	55.98
195.555	-13.65
195.774	41.64
195.993	55.98
196.212	-9.56
196.432	-36.18
196.651	45.74
196.87	-48.47
197.089	39.59
197.308	23.21
197.528	125.61
197.747	-71
197.966	-48.47
198.185	8.87
198.404	-15.7
198.623	17.07
198.842	64.17
199.062	25.26
199.281	41.64
199.5	0.68
199.719	6.83
199.938	-30.04
200.157	8.87
200.376	-11.61
200.595	12.97
200.814	60.07
201.033	-9.56
201.252	72.36
201.471	27.31
201.69	12.97
201.909	27.31
202.128	-9.56
202.347	31.4
202.566	-58.71
202.785	-68.95
203.004	-25.94
203.223	78.51
203.442	33.45
203.661	-46.42
203.879	60.07
204.098	129.7
204.317	-11.61
204.536	103.08
204.755	41.64
204.974	51.88
205.193	8.87
205.411	49.83
205.63	49.83
205.849	-7.51
206.068	-9.56
206.287	35.5
206.505	-9.56
206.724	-34.13
206.943	17.07
207.162	8.87
207.381	43.69
207.599	-32.08
207.818	0.68
208.037	-50.52
208.255	-44.37
208.474	-25.94
208.693	-1.37
208.911	-21.85
209.13	15.02
209.349	49.83
209.567	-38.23
209.786	47.79
210.005	58.03
210.223	10.92
210.442	-17.75
210.661	-9.56
210.879	-50.52
211.098	2.73
211.316	0.68
211.535	23.21
211.753	-25.94
211.972	35.5
212.191	-13.65
212.409	25.26
212.628	17.07
212.846	-34.13
213.065	-32.08
213.283	-25.94
213.502	-34.13
213.72	-38.23
213.938	-9.56
214.157	-7.51
214.375	-17.75
214.594	-36.18
214.812	10.92
215.031	64.17
215.249	64.17
215.467	15.02
215.686	25.26
215.904	-21.85
216.122	-1.37
216.341	49.83
216.559	43.69
216.778	6.83
216.996	72.36
217.214	15.02
217.432	-58.71
217.651	66.22
217.869	-32.08
218.087	-21.85
218.306	37.55
218.524	0.68
218.742	-54.61
218.96	6.83
219.179	12.97
219.397	21.16
219.615	60.07
219.833	-7.51
220.051	15.02
220.27	27.31
220.488	105.13
220.706	68.27
220.924	-7.51
221.142	15.02
221.36	-21.85
221.578	19.11
221.796	0.68
222.015	-34.13
222.233	-25.94
222.451	-30.04
222.669	15.02
222.887	25.26
223.105	-15.7
223.323	23.21
223.541	-21.85
223.759	31.4
223.977	-48.47
224.195	35.5
224.413	-34.13
224.631	55.98
224.849	-1.37
225.067	39.59
225.285	41.64
225.503	-52.56
225.721	49.83
225.939	-9.56
226.157	17.07
226.375	19.11
226.592	39.59
226.81	23.21
227.028	6.83
227.246	27.31
227.464	2.73
227.682	25.26
227.9	2.73
228.117	45.74
228.335	98.99
228.553	-62.8
228.771	6.83
228.989	96.94
229.206	15.02
229.424	92.84
229.642	-46.42
229.86	31.4
230.077	-32.08
230.295	-13.65
230.513	31.4
230.731	-30.04
230.948	-36.18
231.166	31.4
231.384	-17.75
231.601	27.31
231.819	55.98
232.037	-120.15
232.254	-30.04
232.472	21.16
232.689	47.79
232.907	37.55
233.125	-1.37
233.342	21.16
233.56	17.07
233.777	17.07
233.995	-38.23
234.213	31.4
234.43	84.65
234.648	17.07
234.865	6.83
235.083	-58.71
235.3	-1.37
235.518	19.11
235.735	74.41
235.953	31.4
236.17	-9.56
236.388	-23.89
236.605	31.4
236.822	17.07
237.04	19.11
237.257	-7.51
237.475	17.07
237.692	47.79
237.909	-40.28
238.127	10.92
238.344	35.5
238.562	45.74
238.779	-34.13
238.996	25.26
239.214	39.59
239.431	55.98
239.648	-5.46
239.865	41.64
240.083	31.4
240.3	-9.56
240.517	25.26
240.735	8.87
240.952	47.79
241.169	25.26
241.386	0.68
241.603	-3.41
241.821	-58.71
242.038	64.17
242.255	35.5
242.472	-83.28
242.689	33.45
242.907	12.97
243.124	35.5
243.341	-17.75
243.558	-19.8
243.775	-3.41
243.992	37.55
244.209	6.83
244.426	66.22
244.643	-7.51
244.86	-7.51
245.078	66.22
245.295	31.4
245.512	25.26
245.729	55.98
245.946	64.17
246.163	-3.41
246.38	2.73
246.597	-7.51
246.814	23.21
247.031	-71
247.248	19.11
247.464	109.22
247.681	15.02
247.898	-21.85
248.115	41.64
248.332	-17.75
248.549	82.6
248.766	72.36
248.983	12.97
249.2	10.92
249.417	6.83
249.633	31.4
249.85	-32.08
250.067	-44.37
250.284	31.4
250.501	-34.13
250.717	15.02
250.934	-75.09
251.151	49.83
251.368	23.21
251.585	55.98
251.801	19.11
252.018	-50.52
252.235	-21.85
252.451	-23.89
252.668	15.02
252.885	-25.94
253.102	88.75
253.318	-50.52
253.535	-46.42
253.752	31.4
253.968	47.79
254.185	39.59
254.401	-27.99
254.618	15.02
254.835	47.79
255.051	27.31
255.268	0.68
255.484	6.83
255.701	10.92
255.917	66.22
256.134	6.83
256.351	47.79
256.567	-36.18
256.784	35.5
257	-7.51
257.217	55.98
257.433	31.4
257.65	31.4
257.866	2.73
258.082	-66.9
258.299	-9.56
258.515	10.92
258.732	-56.66
258.948	76.46
259.165	-40.28
259.381	15.02
259.597	6.83
259.814	47.79
260.03	-30.04
260.246	-9.56
260.463	35.5
260.679	23.21
260.895	-5.46
261.112	19.11
261.328	31.4
261.544	-42.32
261.761	27.31
261.977	4.78
262.193	31.4
262.409	35.5
262.626	-17.75
262.842	2.73
263.058	-48.47
263.274	80.55
263.49	-73.04
263.707	72.36
263.923	35.5
264.139	-62.8
264.355	49.83
264.571	66.22
264.787	-7.51
265.004	23.21
265.22	-11.61
265.436	-48.47
265.652	4.78
265.868	62.12
266.084	-25.94
266.3	25.26
266.516	-15.7
266.732	27.31
266.948	23.21
267.164	64.17
267.38	111.27
267.596	21.16
267.812	33.45
268.028	27.31
268.244	-105.81
268.46	23.21
268.676	-21.85
268.892	-17.75
269.108	21.16
269.324	27.31
269.54	6.83
269.756	49.83
269.972	17.07
270.188	6.83
270.403	2.73
270.619	47.79
270.835	21.16
271.051	55.98
271.267	-27.99
271.483	-21.85
271.698	72.36
271.914	39.59
272.13	4.78
272.346	94.89
272.562	-79.19
272.777	-3.41
272.993	-21.85
273.209	-15.7
273.425	84.65
273.64	2.73
273.856	107.18
274.072	-34.13
274.287	-13.65
274.503	21.16
274.719	17.07
274.934	33.45
275.15	-73.04
275.366	-30.04
275.581	8.87
275.797	55.98
276.012	-21.85
276.228	33.45
276.444	17.07
276.659	84.65
276.875	17.07
277.09	-7.51
277.306	55.98
277.521	39.59
277.737	23.21
277.952	35.5
278.168	43.69
278.383	6.83
278.599	-25.94
278.814	96.94
279.03	-27.99
279.245	78.51
279.461	-13.65
279.676	27.31
279.892	-17.75
280.107	72.36
280.322	2.73
280.538	72.36
280.753	6.83
280.969	72.36
281.184	23.21
281.399	-75.09
281.615	27.31
281.83	6.83
282.045	23.21
282.26	29.35
282.476	23.21
282.691	31.4
282.906	-66.9
283.122	66.22
283.337	58.03
283.552	55.98
283.767	-54.61
283.983	-15.7
284.198	8.87
284.413	29.35
284.628	-38.23
284.843	-42.32
285.058	33.45
285.274	27.31
285.489	-36.18
285.704	49.83
285.919	17.07
286.134	6.83
286.349	4.78
286.564	-15.7
286.779	74.41
286.995	-85.33
287.21	-40.28
287.425	80.55
287.64	-21.85
287.855	2.73
288.07	19.11
288.285	55.98
288.5	31.4
288.715	25.26
288.93	15.02
289.145	-40.28
289.36	37.55
289.575	25.26
289.79	33.45
290.004	-15.7
290.219	23.21
290.434	35.5
290.649	17.07
290.864	0.68
291.079	12.97
291.294	0.68
291.509	17.07
291.724	17.07
291.938	-40.28
292.153	-1.37
292.368	-1.37
292.583	-17.75
292.798	-7.51
293.012	0.68
293.227	43.69
293.442	-1.37
293.657	-7.51
293.871	96.94
294.086	6.83
294.301	141.99
294.516	-30.04
294.73	27.31
294.945	-36.18
295.16	-5.46
295.374	15.02
295.589	-7.51
295.804	53.93
296.018	-1.37
296.233	51.88
296.447	31.4
296.662	37.55
296.877	15.02
297.091	6.83
297.306	-17.75
297.52	15.02
297.735	68.27
297.949	68.27
298.164	55.98
298.378	29.35
298.593	17.07
298.807	-30.04
299.022	8.87
299.236	49.83
299.451	80.55
299.665	6.83
299.88	27.31
300.094	53.93
300.309	43.69
300.523	76.46
300.737	15.02
300.952	55.98
301.166	6.83
301.381	-1.37
301.595	15.02
301.809	-17.75
302.024	10.92
302.238	-19.8
302.452	6.83
302.667	-21.85
302.881	90.79
303.095	-25.94
303.309	2.73
303.524	2.73
303.738	25.26
303.952	10.92
304.166	70.31
304.381	-71
304.595	39.59
304.809	-17.75
305.023	58.03
305.237	-21.85
305.452	49.83
305.666	6.83
305.88	86.7
306.094	-7.51
306.308	60.07
306.522	25.26
306.736	47.79
306.95	6.83
307.164	15.02
307.379	12.97
307.593	-1.37
307.807	64.17
308.021	41.64
308.235	64.17
308.449	-25.94
308.663	19.11
308.877	98.99
309.091	70.31
309.305	74.41
309.519	-36.18
309.733	53.93
309.947	12.97
310.161	62.12
310.374	25.26
310.588	86.7
310.802	31.4
311.016	-7.51
311.23	-15.7
311.444	8.87
311.658	-25.94
311.872	19.11
312.085	-11.61
312.299	19.11
312.513	31.4
312.727	58.03
312.941	17.07
313.154	55.98
313.368	-7.51
313.582	23.21
313.796	43.69
314.009	33.45
314.223	72.36
314.437	-58.71
314.651	6.83
314.864	6.83
315.078	-40.28
315.292	27.31
315.505	72.36
315.719	58.03
315.933	19.11
316.146	17.07
316.36	31.4
316.573	45.74
316.787	-36.18
317.001	15.02
317.214	-9.56
317.428	-27.99
317.641	8.87
317.855	39.59
318.068	10.92
318.282	-3.41
318.495	51.88
318.709	74.41
318.922	17.07
319.136	96.94
319.349	55.98
319.563	-5.46
319.776	6.83
319.99	-50.52
320.203	88.75
320.417	4.78
320.63	55.98
320.843	41.64
321.057	39.59
321.27	31.4
321.483	64.17
321.697	76.46
321.91	-54.61
322.124	39.59
322.337	-7.51
322.55	0.68
322.763	17.07
322.977	6.83
323.19	39.59
323.403	49.83
323.617	72.36
323.83	21.16
324.043	-30.04
324.256	35.5
324.469	-7.51
324.683	19.11
324.896	27.31
325.109	21.16
325.322	21.16
325.535	64.17
325.748	47.79
325.962	64.17
326.175	-13.65
326.388	121.51
326.601	49.83
326.814	-25.94
327.027	74.41
327.24	23.21
327.453	15.02
327.666	41.64
327.879	6.83
328.092	19.11
328.305	55.98
328.518	-21.85
328.731	-7.51
328.944	31.4
329.157	35.5
329.37	31.4
329.583	119.46
329.796	96.94
330.009	-36.18
330.222	6.83
330.435	49.83
330.648	31.4
330.861	-30.04
331.073	49.83
331.286	35.5
331.499	37.55
331.712	-21.85
331.925	60.07
332.138	68.27
332.35	74.41
332.563	-42.32
332.776	98.99
332.989	-52.56
333.202	29.35
333.414	33.45
333.627	0.68
333.84	19.11
334.053	27.31
334.265	-7.51
334.478	66.22
334.691	55.98
334.903	72.36
335.116	17.07
335.329	35.5
335.541	2.73
335.754	80.55
335.966	25.26
336.179	72.36
336.392	60.07
336.604	25.26
336.817	55.98
337.029	25.26
337.242	43.69
337.454	43.69
337.667	19.11
337.88	47.79
338.092	31.4
338.305	92.84
338.517	-17.75
338.729	43.69
338.942	31.4
339.154	39.59
339.367	47.79
339.579	-71
339.792	-42.32
340.004	58.03
340.217	66.22
340.429	60.07
340.641	-17.75
340.854	-1.37
341.066	35.5
341.278	66.22
341.491	60.07
341.703	33.45
341.915	12.97
342.128	55.98
342.34	39.59
342.552	-62.8
342.764	17.07
342.977	17.07
343.189	6.83
343.401	31.4
343.613	15.02
343.826	88.75
344.038	-40.28
344.25	33.45
344.462	33.45
344.674	76.46
344.886	64.17
345.099	-1.37
345.311	-34.13
345.523	10.92
345.735	-9.56
345.947	80.55
346.159	-50.52
346.371	19.11
346.583	39.59
346.795	43.69
347.007	49.83
347.219	101.03
347.431	-5.46
347.643	55.98
347.855	-11.61
348.067	41.64
348.279	-32.08
348.491	49.83
348.703	66.22
348.915	47.79
349.127	35.5
349.339	49.83
349.551	43.69
349.763	55.98
349.975	-9.56
350.187	146.09
350.399	-5.46
350.61	62.12
350.822	35.5
351.034	10.92
351.246	-9.56
351.458	43.69
351.669	15.02
351.881	15.02
352.093	113.32
352.305	-15.7
352.517	8.87
352.728	113.32
352.94	23.21
353.152	94.89
353.363	-25.94
353.575	-11.61
353.787	88.75
353.999	15.02
354.21	105.13
354.422	15.02
354.633	74.41
354.845	64.17
355.057	82.6
355.268	6.83
355.48	64.17
355.692	-62.8
355.903	-15.7
356.115	19.11
356.326	-21.85
356.538	125.61
356.749	15.02
356.961	15.02
357.172	25.26
357.384	-9.56
357.595	55.98
357.807	51.88
358.018	23.21
358.23	53.93
358.441	58.03
358.653	25.26
358.864	-1.37
359.075	-13.65
359.287	4.78
359.498	-25.94
359.709	-1.37
359.921	6.83
360.132	29.35
360.344	33.45
360.555	-81.24
360.766	72.36
360.977	8.87
361.189	76.46
361.4	53.93
361.611	31.4
361.823	88.75
362.034	58.03
362.245	2.73
362.456	84.65
362.667	82.6
362.879	15.02
363.09	-3.41
363.301	47.79
363.512	19.11
363.723	6.83
363.935	-54.61
364.146	23.21
364.357	-23.89
364.568	72.36
364.779	21.16
364.99	55.98
365.201	4.78
365.412	23.21
365.623	2.73
365.834	72.36
366.045	45.74
366.256	-17.75
366.467	33.45
366.678	66.22
366.889	90.79
367.1	-34.13
367.311	-13.65
367.522	51.88
367.733	33.45
367.944	43.69
368.155	68.27
368.366	6.83
368.577	84.65
368.788	-25.94
368.999	19.11
369.209	101.03
369.42	15.02
369.631	139.94
369.842	39.59
370.053	33.45
370.264	49.83
370.474	-11.61
370.685	60.07
370.896	-9.56
371.107	23.21
371.317	49.83
371.528	-32.08
371.739	47.79
371.95	27.31
372.16	60.07
372.371	25.26
372.582	-50.52
372.792	23.21
373.003	23.21
373.214	33.45
373.424	82.6
373.635	21.16
373.846	25.26
374.056	17.07
374.267	-19.8
374.477	43.69
374.688	51.88
374.898	92.84
375.109	82.6
375.319	-13.65
375.53	55.98
375.74	15.02
375.951	-9.56
376.161	25.26
376.372	33.45
376.582	-25.94
376.793	-19.8
377.003	-50.52
377.214	27.31
377.424	2.73
377.635	72.36
377.845	64.17
378.055	62.12
378.266	51.88
378.476	15.02
378.686	15.02
378.897	129.7
379.107	-1.37
379.317	94.89
379.528	-30.04
379.738	96.94
379.948	27.31
380.158	19.11
380.369	23.21
380.579	43.69
380.789	10.92
380.999	74.41
381.21	55.98
381.42	121.51
381.63	37.55
381.84	86.7
382.05	-3.41
382.261	84.65
382.471	2.73
382.681	-15.7
382.891	82.6
383.101	-1.37
383.311	37.55
383.521	103.08
383.731	17.07
383.941	41.64
384.151	0.68
384.361	64.17
384.571	6.83
384.781	80.55
384.991	49.83
385.201	180.9
385.411	96.94
385.621	-7.51
385.831	72.36
386.041	35.5
386.251	33.45
386.461	111.27
386.671	2.73
386.881	117.42
387.091	64.17
387.301	74.41
387.511	23.21
387.72	47.79
387.93	51.88
388.14	23.21
388.35	31.4
388.56	35.5
388.769	92.84
388.979	125.61
389.189	4.78
389.399	45.74
389.609	58.03
389.818	-1.37
390.028	-58.71
390.238	51.88
390.447	33.45
390.657	111.27
390.867	49.83
391.076	72.36
391.286	117.42
391.496	47.79
391.705	31.4
391.915	49.83
392.125	101.03
392.334	113.32
392.544	72.36
392.753	60.07
392.963	64.17
393.172	101.03
393.382	41.64
393.591	72.36
393.801	47.79
394.01	131.75
394.22	88.75
394.429	35.5
394.639	109.22
394.848	74.41
395.058	72.36
395.267	17.07
395.477	113.32
395.686	80.55
395.895	158.38
396.105	82.6
396.314	66.22
396.524	41.64
396.733	49.83
396.942	127.66
397.152	156.33
397.361	115.37
397.57	105.13
397.78	119.46
397.989	49.83
398.198	168.62
398.407	49.83
398.617	119.46
398.826	43.69
399.035	72.36
399.244	121.51
399.453	84.65
399.663	111.27
399.872	137.9
400.081	111.27
400.29	113.32
400.499	41.64
400.708	133.8
400.917	76.46
401.127	47.79
401.336	72.36
401.545	88.75
401.754	113.32
401.963	178.86
402.172	135.85
402.381	129.7
402.59	154.28
402.799	103.08
403.008	113.32
403.217	117.42
403.426	98.99
403.635	123.56
403.844	129.7
404.053	135.85
404.262	117.42
404.471	221.86
404.68	156.33
404.888	146.09
405.097	137.9
405.306	232.1
405.515	205.48
405.724	96.94
405.933	180.9
406.142	197.29
406.35	246.44
406.559	195.24
406.768	178.86
406.977	240.29
407.185	207.53
407.394	221.86
407.603	162.47
407.812	195.24
408.02	230.06
408.229	228.01
408.438	289.45
408.646	174.76
408.855	273.06
409.064	314.02
409.272	234.15
409.481	383.65
409.69	324.26
409.898	291.49
410.107	344.74
410.315	328.36
410.524	369.32
410.733	416.42
410.941	377.51
411.15	410.28
411.358	379.56
411.567	459.43
411.775	557.73
411.984	467.62
412.192	498.34
412.401	506.53
412.609	543.39
412.818	580.26
413.026	580.26
413.234	656.03
413.443	629.41
413.651	563.87
413.86	596.64
414.068	721.57
414.276	705.18
414.485	703.14
414.693	768.67
414.901	817.82
415.11	809.63
415.318	813.73
415.526	924.32
415.734	856.73
415.943	936.6
416.151	903.84
416.359	918.17
416.567	965.28
416.776	1032.86
416.984	1131.16
417.192	1184.41
417.4	1100.44
417.608	1213.08
417.817	1202.84
418.025	1231.51
418.233	1383.06
418.441	1391.25
418.649	1442.45
418.857	1467.03
419.065	1467.03
419.273	1589.91
419.481	1653.39
419.689	1768.08
419.897	1792.66
420.105	1827.47
420.313	1942.16
420.521	1923.73
420.729	2007.69
420.937	2036.36
421.145	2101.9
421.353	2079.37
421.561	2185.87
421.769	2368.13
421.977	2462.34
422.185	2329.22
422.393	2611.84
422.601	2744.96
422.809	2654.85
423.017	2683.52
423.224	2894.46
423.432	2882.17
423.64	2990.72
423.848	3314.3
424.056	3095.16
424.263	3443.32
424.471	3283.58
424.679	3424.89
424.887	3580.53
425.094	3748.47
425.302	3654.26
425.51	3863.15
425.718	3920.49
425.925	3971.69
426.133	4336.23
426.341	4438.63
426.548	4760.16
426.756	4731.49
426.964	4678.24
427.171	5030.49
427.379	4969.05
427.586	5257.82
427.794	5323.35
428.001	5536.34
428.209	5853.78
428.417	5784.15
428.624	6183.5
428.832	5956.18
429.039	5890.64
429.247	6124.11
429.454	6765.12
429.662	7232.06
429.869	6664.77
430.076	7084.61
430.284	6961.73
430.491	7305.79
430.699	7531.06
430.906	7754.29
431.114	7604.79
431.321	8094.26
431.528	8311.34
431.736	8626.73
431.943	9058.85
432.15	8854.05
432.358	8858.15
432.565	9509.4
432.772	9337.37
432.979	9767.45
433.187	10000.91
433.394	10050.07
433.601	10607.11
433.808	10717.7
434.016	10641.93
434.223	11266.56
434.43	11837.94
434.637	11678.2
434.844	12337.65
435.052	12505.58
435.259	12616.17
435.466	12530.16
435.673	12573.16
435.88	13435.36
436.087	13963.73
436.294	14201.3
436.501	13793.75
436.708	13990.36
436.915	14455.25
437.122	15063.49
437.329	14993.86
437.537	15456.7
437.743	15507.9
437.95	15552.96
438.157	16458.16
438.364	16892.33
438.571	16853.42
438.778	16761.26
438.985	18778.51
439.192	17709.47
439.399	18258.32
439.606	17987.99
439.813	19048.84
440.02	19929.47
440.227	19788.16
440.433	19669.37
440.64	20310.39
440.847	19915.13
441.054	20781.42
441.261	22016.35
441.467	21559.65
441.674	22255.96
441.881	23193.93
442.088	22874.45
442.294	22708.56
442.501	23195.98
442.708	23779.65
442.914	24570.16
443.121	25678.11
443.328	24998.19
443.534	26620.18
443.741	25792.8
443.948	25436.45
444.154	27334.92
444.361	27316.49
444.568	27787.52
444.774	27400.46
444.981	27822.34
445.187	28686.58
445.394	29677.8
445.6	29204.72
445.807	32192.7
446.013	30591.19
446.22	31322.32
446.426	32671.93
446.633	33054.9
446.839	33771.69
447.046	32454.84
447.252	34447.52
447.459	34283.68
447.665	34085.03
447.871	35358.86
448.078	37156.98
448.284	35109.01
448.491	36247.68
448.697	37505.13
448.903	38326.37
449.11	38482.02
449.316	37929.06
449.522	38287.46
449.728	39608.4
449.935	39428.18
450.141	39559.25
450.347	40917.05
450.553	39315.54
450.76	39491.66
450.966	41523.25
451.172	40820.8
451.378	41834.54
451.584	41279.54
451.791	42111.02
451.997	41316.4
452.203	42491.94
452.409	42201.13
452.615	42309.67
452.821	40788.03
453.027	40179.78
453.233	42293.29
453.44	40927.29
453.646	41015.35
453.852	41304.12
454.058	42344.48
454.264	40685.63
454.47	41441.33
454.676	40699.97
454.882	42237.99
455.088	38529.12
455.294	38951
455.5	39385.17
455.705	39872.59
455.911	38223.97
456.117	37560.43
456.323	37382.26
456.529	35143.83
456.735	36882.55
456.941	35639.43
457.147	35508.36
457.352	34271.39
457.558	33992.87
457.764	34146.47
457.97	33593.51
458.176	32602.3
458.381	32829.62
458.587	30931.15
458.793	30757.08
458.999	29497.58
459.204	31482.06
459.41	30902.48
459.616	28500.22
459.821	28930.29
460.027	28612.85
460.233	27955.46
460.438	26523.93
460.644	27205.9
460.85	25405.73
461.055	25311.53
461.261	25344.3
461.466	23394.63
461.672	22837.58
461.878	24152.38
462.083	23058.76
462.289	21897.56
462.494	22321.49
462.7	21317.99
462.905	20707.69
463.111	21193.06
463.316	21100.9
463.522	20744.56
463.727	20740.46
463.932	20961.64
464.138	20506.99
464.343	20844.91
464.549	20085.11
464.754	20683.12
464.959	20449.65
465.165	20437.36
465.37	19704.19
465.575	19161.48
465.781	19739.01
465.986	19829.12
466.191	19024.26
466.397	18626.96
466.602	17676.7
466.807	18493.84
467.012	18651.53
467.218	18489.74
467.423	18088.34
467.628	18534.8
467.833	19106.18
468.038	18708.88
468.244	17971.61
468.449	18778.51
468.654	18092.44
468.859	18024.86
469.064	17764.76
469.269	16964.01
469.474	17306.02
469.679	17551.77
469.885	16898.47
470.09	17150.37
470.295	17240.48
470.5	16697.77
470.705	16859.56
470.91	16515.5
471.115	16314.8
471.32	16611.76
471.525	16386.48
471.73	16097.72
471.935	16050.61
472.139	15649.21
472.344	15622.59
472.549	15602.11
472.754	15180.23
472.959	14948.81
473.164	14707.15
473.369	14725.58
473.574	15229.38
473.778	14821.83
473.983	14692.81
474.188	14574.03
474.393	14047.7
474.598	14137.81
474.802	14090.71
475.007	14019.03
475.212	13881.81
475.417	13441.5
475.621	13754.84
475.826	13474.27
476.031	13156.83
476.235	13089.25
476.44	13152.74
476.645	12835.3
476.849	13056.48
477.054	12630.51
477.259	12458.48
477.463	12472.81
477.668	12245.49
477.872	12769.77
478.077	12136.95
478.282	11823.61
478.486	11739.64
478.691	11774.45
478.895	11885.05
479.1	11594.23
479.304	11489.79
479.509	11311.61
479.713	11510.27
479.918	11311.61
480.122	10979.84
480.326	11461.12
480.531	11485.69
480.735	11096.58
480.94	10750.47
481.144	11219.46
481.348	10832.39
481.553	10973.7
481.757	10639.88
481.961	10885.64
482.166	11061.76
482.37	10965.51
482.574	10797.57
482.778	10656.26
482.983	10959.36
483.187	10760.71
483.391	10854.92
483.595	10811.91
483.8	10676.74
484.004	10650.12
484.208	10807.81
484.412	10805.77
484.616	11010.56
484.821	10963.46
485.025	10672.65
485.229	10895.88
485.433	10707.46
485.637	10740.23
485.841	10666.5
486.045	10656.26
486.249	10791.43
486.453	10418.7
486.657	10828.29
486.861	10856.97
487.065	10537.48
487.269	10783.24
487.473	10729.99
487.677	10723.85
487.881	10846.73
488.085	10580.49
488.289	10881.54
488.493	10635.78
488.697	10836.49
488.901	10883.59
489.105	10779.14
489.309	11012.61
489.512	10689.03
489.716	10953.22
489.92	11151.87
490.124	10996.23
490.328	11094.53
490.531	10746.37
490.735	11000.32
490.939	11244.03
491.143	11125.25
491.346	11006.47
491.55	11221.5
491.754	11141.63
491.958	11203.07
492.161	11309.57
492.365	11090.43
492.569	11284.99
492.772	11360.77
492.976	11424.25
493.18	11409.92
493.383	11657.72
493.587	11811.32
493.79	11780.6
493.994	11782.65
494.197	11852.28
494.401	11815.41
494.605	12048.88
494.808	12118.51
495.012	12184.05
495.215	12204.53
495.419	12325.36
495.622	12403.18
495.825	12634.6
496.029	12384.75
496.232	13085.15
496.436	12712.42
496.639	13210.08
496.843	13046.24
497.046	13171.17
497.249	13251.04
497.453	13302.24
497.656	13373.92
497.859	13515.23
498.063	13943.25
498.266	14010.84
498.469	14041.56
498.673	14211.54
498.876	14377.42
499.079	14244.31
499.282	14432.72
499.485	14946.76
499.689	14989.77
499.892	15010.25
500.095	15096.26
500.298	15188.42
500.501	15204.8
500.705	15620.54
500.908	15837.62
501.111	15991.22
501.314	16177.59
501.517	16007.61
501.72	16417.2
501.923	16607.66
502.126	16982.44
502.329	16994.73
502.532	17154.47
502.735	17705.37
502.938	17619.36
503.141	17742.24
503.344	18114.97
503.547	18014.62
503.75	18254.23
503.953	18547.09
504.156	18698.64
504.359	18858.38
504.562	18966.92
504.765	19206.53
504.968	19616.13
505.17	19865.98
505.373	19603.84
505.576	20111.74
505.779	20445.55
505.982	20500.85
506.185	21152.1
506.387	20816.24
506.59	21158.25
506.793	21516.64
506.996	21504.35
507.198	21909.85
507.401	22040.92
507.604	22147.42
507.807	22704.46
508.009	22681.94
508.212	22991.18
508.415	23249.22
508.617	23263.56
508.82	23468.36
509.022	23388.49
509.225	24183.1
509.428	24420.66
509.63	24484.15
509.833	24564.02
510.035	25078.06
510.238	24811.82
510.44	25155.88
510.643	25784.61
510.845	25968.93
511.048	25757.99
511.25	26523.93
511.453	26566.93
511.655	27314.44
511.858	27203.85
512.06	26999.05
512.262	27470.09
512.465	27564.29
512.667	28109.05
512.87	28244.22
513.072	28528.89
513.274	28952.82
513.477	29212.91
513.679	29278.44
513.881	29790.44
514.084	29892.83
514.286	30095.58
514.488	30230.75
514.69	30771.41
514.893	31183.05
515.095	31119.57
515.297	31328.46
515.499	31189.2
515.701	31881.41
515.904	32436.41
516.106	32485.56
516.308	32858.29
516.51	33390.77
516.712	33241.26
516.914	33585.32
517.116	34424.99
517.318	34025.64
517.52	34160.8
517.722	34662.55
517.925	35209.36
518.127	35197.07
518.329	35623.05
518.531	35027.09
518.733	36411.52
518.935	36542.59
519.136	36264.07
519.338	36982.9
519.54	37165.17
519.742	37402.74
519.944	37466.22
520.146	38344.8
520.348	38318.18
520.55	38344.8
520.752	38580.32
520.954	39086.17
521.155	39024.73
521.357	39532.62
521.559	39575.63
521.761	40552.51
521.963	40368.19
522.164	40642.62
522.366	40906.81
522.568	41013.3
522.77	41781.29
522.971	41895.98
523.173	41699.37
523.375	41766.96
523.576	41885.74
523.778	42324
523.98	42764.32
524.181	42436.64
524.383	42891.29
524.584	43626.51
524.786	43520.02
524.988	43108.38
525.189	43724.82
525.391	44195.85
525.592	44453.89
525.794	44339.21
525.995	44634.11
526.197	44617.73
526.398	44625.92
526.6	45332.47
526.801	45238.26
527.003	45305.85
527.204	45455.35
527.406	45590.51
527.607	45750.26
527.808	46211.05
528.01	45004.8
528.211	45729.78
528.412	47071.2
528.614	46467.05
528.815	46395.37
529.016	46958.56
529.218	46421.99
529.419	46575.59
529.62	47073.24
529.822	46745.57
530.023	46985.18
530.224	47273.95
530.425	47103.96
530.626	46899.17
530.828	46784.48
531.029	47824.85
531.23	47325.14
531.431	46974.94
531.632	47411.16
531.833	47558.61
532.035	47650.77
532.236	47435.73
532.437	48054.22
532.638	47661.01
532.839	47704.02
533.04	47992.78
533.241	47392.73
533.442	48265.16
533.643	48089.04
533.844	47747.03
534.045	47622.1
534.246	47402.97
534.447	48285.64
534.648	47839.18
534.849	48216.01
535.05	47359.96
535.251	48242.63
535.451	47898.58
535.652	48115.66
535.853	47757.27
536.054	47943.63
536.255	48326.6
536.456	47744.98
536.657	48187.34
536.857	47933.39
537.058	47728.59
537.259	48293.83
537.46	48158.67
537.66	47912.91
537.861	48138.19
538.062	48066.51
538.263	48021.45
538.463	47673.3
538.664	47927.25
538.865	48056.27
539.065	48375.75
539.266	47712.21
539.466	48054.22
539.667	47214.55
539.868	48154.57
540.068	47812.56
540.269	47980.49
540.469	48306.12
540.67	47859.66
540.87	48000.97
541.071	48285.64
541.271	48156.62
541.472	48316.36
541.672	47607.76
541.873	47454.17
542.073	47165.4
542.274	48211.92
542.474	47722.45
542.675	47671.25
542.875	47966.16
543.075	47753.17
543.276	47620.05
543.476	48170.96
543.676	47591.38
543.877	48076.75
544.077	48000.97
544.277	47693.78
544.478	47613.91
544.678	47867.86
544.878	47734.74
545.078	47970.25
545.279	47189.98
545.479	47783.89
545.679	47566.8
545.879	47437.78
546.079	47837.14
546.28	47808.47
546.48	47286.23
546.68	47605.72
546.88	47900.62
547.08	48064.46
547.28	47556.57
547.48	47429.59
547.68	47828.94
547.88	47319
548.081	47775.7
548.281	47384.54
548.481	47286.23
548.681	47411.16
548.881	47603.67
549.081	47597.52
549.28	47384.54
549.48	47640.53
549.68	47294.43
549.88	47833.04
550.08	47017.95
550.28	47671.25
550.48	47286.23
550.68	47871.95
550.88	47026.14
551.08	47396.82
551.279	47630.29
551.479	47095.77
551.679	47595.48
551.879	47181.79
552.079	47466.45
552.278	46983.13
552.478	47591.38
552.678	47591.38
552.878	47595.48
553.077	47132.64
553.277	46743.52
553.477	47249.37
553.676	47265.75
553.876	47136.73
554.076	46737.38
554.275	47032.28
554.475	46104.56
554.674	46807.01
554.874	46774.24
555.074	46565.35
555.273	46862.3
555.473	47169.5
555.672	46702.56
555.872	47028.19
556.071	46974.94
556.271	46936.03
556.47	46602.21
556.67	46266.34
556.869	46477.29
557.068	46764
557.268	46264.3
557.467	46362.6
557.667	46594.02
557.866	46510.05
558.065	46354.41
558.265	46319.59
558.464	46082.03
558.663	46268.39
558.863	45785.07
559.062	46862.3
559.261	45971.44
559.461	46284.78
559.66	45672.43
559.859	46385.13
560.058	45707.25
560.258	46184.43
560.457	45580.28
560.656	45737.97
560.855	45524.98
561.054	45928.43
561.253	45191.16
561.453	45670.39
561.652	45344.76
561.851	45490.16
562.05	45441.01
562.249	44879.87
562.448	45395.96
562.647	45350.9
562.846	44949.5
563.045	45148.15
563.244	44857.34
563.443	45537.27
563.642	44711.94
563.841	44769.28
564.04	45021.18
564.239	44849.15
564.438	44396.55
564.637	44474.37
564.836	44961.79
565.035	44310.53
565.234	44150.79
565.432	44083.21
565.631	43974.67
565.83	44505.09
566.029	44167.18
566.228	44070.92
566.427	43761.68
566.625	43739.15
566.824	43694.1
567.023	44183.56
567.222	43102.23
567.42	43581.46
567.619	43388.95
567.818	43517.97
568.016	43059.23
568.215	43718.67
568.414	42938.4
568.612	43548.69
568.811	42876.96
569.01	43110.42
569.208	42377.25
569.407	43522.07
569.605	42596.38
569.804	43233.3
570.002	42598.43
570.201	42549.28
570.4	42520.61
570.598	42151.98
570.797	42278.95
570.995	42246.18
571.193	41812.01
571.392	42502.18
571.59	41513.01
571.789	41846.83
571.987	41902.12
572.186	41349.17
572.384	41130.04
572.582	41650.22
572.781	41746.48
572.979	40732.73
573.177	41109.56
573.376	41117.75
573.574	40874.04
573.772	41060.41
573.971	40464.45
574.169	40525.89
574.367	40542.27
574.565	40529.98
574.763	40628.29
574.962	39839.82
575.16	39815.24
575.358	40159.3
575.556	39776.33
575.754	40317
575.952	39934.03
576.151	39956.55
576.349	39434.32
576.547	39385.17
576.745	39530.58
576.943	39929.93
577.141	39506
577.339	39585.87
577.537	39424.08
577.735	38903.9
577.933	39063.64
578.131	38914.14
578.329	38789.21
578.527	38410.34
578.725	38430.82
578.923	39012.44
579.121	38664.28
579.319	38391.9
579.516	38617.18
579.714	38275.17
579.912	37787.75
580.11	37836.91
580.308	38105.19
580.506	37765.23
580.704	37505.13
580.901	37666.92
581.099	37783.66
581.297	37435.5
581.495	37435.5
581.692	37556.33
581.89	37079.16
582.088	37419.12
582.285	36982.9
582.483	37390.45
582.681	36952.18
582.878	36841.59
583.076	36532.35
583.274	37316.72
583.471	36405.38
583.669	36708.47
583.866	36345.98
584.064	36569.21
584.262	35940.49
584.459	36360.32
584.657	36120.71
584.854	36024.45
585.052	35494.03
585.249	36245.63
585.447	35721.35
585.644	35207.31
585.841	35459.21
586.039	35983.49
586.236	35311.76
586.434	35162.26
586.631	35238.03
586.828	35043.48
587.026	34926.74
587.223	35090.58
587.42	34697.37
587.618	34998.42
587.815	34664.6
588.012	34586.78
588.21	34029.73
588.407	34220.19
588.604	34404.51
588.801	33685.67
588.999	33966.24
589.196	33908.9
589.393	34168.99
589.59	33663.14
589.787	33896.61
589.984	33521.84
590.182	33077.43
590.379	33519.79
590.576	33609.9
590.773	33450.16
590.97	33177.78
591.167	33181.87
591.364	32809.14
591.561	33145.01
591.758	32817.33
591.955	32989.36
592.152	33046.71
592.349	32663.74
592.546	32729.27
592.743	32456.89
592.94	32374.97
593.137	32217.28
593.334	32669.88
593.531	31834.31
593.727	31973.57
593.924	32057.54
594.121	31862.98
594.318	32063.68
594.515	31408.33
594.712	31590.6
594.908	31748.29
595.105	31320.27
595.302	31226.06
595.499	31287.5
595.696	31301.84
595.892	30888.15
596.089	31232.21
596.286	30925.01
596.482	30767.32
596.679	30695.64
596.876	30972.11
597.072	30601.43
597.269	30587.1
597.466	30161.12
597.662	30286.04
597.859	30218.46
598.055	30378.2
598.252	30142.69
598.448	29999.33
598.645	30114.02
598.841	29466.86
599.038	29780.2
599.234	29778.15
599.431	29489.38
599.627	29450.47
599.824	29538.54
600.02	29255.92
600.217	29247.72
600.413	29155.57
600.609	29100.27
600.806	28991.73
601.002	28958.96
601.198	28596.47
601.395	28438.78
601.591	28451.06
601.787	28680.44
601.984	28170.49
602.18	28795.12
602.376	28172.54
602.572	28072.19
602.769	28375.29
602.965	28008.7
603.161	28338.43
603.357	27713.8
603.553	27941.12
603.75	27848.96
603.946	27789.57
604.142	28123.39
604.338	27074.83
604.534	27621.64
604.73	27361.55
604.926	27431.18
605.122	27371.78
605.318	27400.46
605.514	27058.45
605.71	27119.88
605.906	27228.43
606.102	26894.61
606.298	26958.1
606.494	26806.55
606.69	27173.13
606.886	27064.59
607.082	26546.45
607.278	26777.87
607.474	26568.98
607.67	26667.28
607.866	26067.23
608.062	26560.79
608.257	26118.43
608.453	26476.82
608.649	26482.97
608.845	25768.23
609.041	25751.84
609.236	26091.8
609.432	25893.15
609.628	25833.76
609.824	25854.24
610.019	25772.32
610.215	25772.32
610.411	25844
610.606	25495.85
610.802	25485.61
610.998	25497.89
611.193	25837.86
611.389	25491.75
611.584	25256.23
611.78	25315.62
611.976	25289
612.171	25338.15
612.367	25100.59
612.562	25141.55
612.758	24836.4
612.953	24756.53
613.149	25235.75
613.344	24719.67
613.539	25178.41
613.735	24830.26
613.93	25020.72
614.126	24690.99
614.321	24650.03
614.517	24631.6
614.712	24961.33
614.907	24701.23
615.103	24748.34
615.298	24324.41
615.493	24561.97
615.688	24219.96
615.884	24596.79
616.079	24240.44
616.274	24539.44
616.47	24213.82
616.665	24377.65
616.86	24469.81
617.055	24009.02
617.25	23927.1
617.445	24166.71
617.641	23515.46
617.836	23931.2
618.031	23386.44
618.226	23775.55
618.421	23673.15
618.616	23955.77
618.811	23427.4
619.006	23691.59
619.201	22962.51
619.396	23642.43
619.591	22919.5
619.786	23128.39
619.981	22714.7
620.176	23173.45
620.371	22753.62
620.566	22720.85
620.761	22323.54
620.956	22720.85
621.151	22399.32
621.346	22661.46
621.541	22124.89
621.735	22434.13
621.93	21938.52
622.125	21969.24
622.32	21854.56
622.515	21801.31
622.709	21367.14
622.904	21770.59
623.099	21242.21
623.294	21387.62
623.488	21240.17
623.683	21258.6
623.878	20885.87
624.072	20666.74
624.267	20820.33
624.462	20666.74
624.656	20416.88
624.851	20642.16
625.046	20337.01
625.24	20380.02
625.435	20167.03
625.629	20189.56
625.824	19775.87
626.018	19698.05
626.213	19505.54
626.407	19847.55
626.602	19470.72
626.796	19589.5
626.991	19249.54
627.185	19382.66
627.38	19302.79
627.574	18885
627.768	18762.12
627.963	18661.77
628.157	18659.73
628.352	18913.67
628.546	18579.86
628.74	18315.67
628.935	18221.46
629.129	18358.67
629.323	17983.9
629.517	18248.08
629.712	18119.06
629.906	17916.31
630.1	17619.36
630.294	17465.76
630.489	17234.34
630.683	17672.6
630.877	17295.78
631.071	17291.68
631.265	17506.72
631.459	17136.04
631.653	17119.65
631.848	17009.06
632.042	16804.27
632.236	16722.35
632.43	16744.88
632.624	16538.03
632.818	16550.32
633.012	16404.91
633.206	16273.84
633.4	16366
633.594	16097.72
633.788	16126.39
633.982	16144.82
634.176	15956.41
634.369	15702.46
634.563	15915.45
634.757	15858.1
634.951	15763.9
635.145	15364.54
635.339	15532.48
635.533	14963.14
635.726	15438.27
635.92	14987.72
636.114	15348.16
636.308	15129.03
636.501	15016.39
636.695	14928.33
636.889	14590.41
637.083	15069.64
637.276	14660.04
637.47	14809.54
637.664	14528.97
637.857	14539.21
638.051	14514.64
638.244	14440.91
638.438	14182.87
638.632	14242.26
638.825	14209.49
639.019	14029.27
639.212	13812.18
639.406	13902.29
639.599	13847
639.793	13769.18
639.986	13580.76
640.18	13599.2
640.373	13500.89
640.567	13089.25
640.76	13345.25
640.954	13257.18
641.147	13175.27
641.34	13281.76
641.534	13134.31
641.727	13081.06
641.92	12898.79
642.114	12855.78
642.307	12755.43
642.5	12896.74
642.694	12511.72
642.887	12427.76
643.08	12835.3
643.273	12550.64
643.467	12421.61
643.66	12061.17
643.853	12124.66
644.046	12114.42
644.239	12007.92
644.432	12028.4
644.626	11710.97
644.819	11733.5
645.012	11905.52
645.205	11839.99
645.398	11995.64
645.591	11647.48
645.784	11833.85
645.977	11459.07
646.17	11561.47
646.363	11330.05
646.556	11237.89
646.749	11635.19
646.942	11325.95
647.135	11104.77
647.328	11135.49
647.521	11088.39
647.714	10885.64
647.907	11076.1
648.099	10813.96
648.292	10873.35
648.485	10744.33
648.678	10822.15
648.871	10752.52
649.064	10551.82
649.256	10480.14
649.449	10412.56
649.642	10543.63
649.835	10344.97
650.027	10387.98
650.22	10314.25
650.413	10293.77
650.605	10189.33
650.798	10238.48
650.991	10064.4
651.183	9945.62
651.376	9701.91
651.568	9890.32
651.761	9896.47
651.954	9933.33
652.146	9912.85
652.339	9820.69
652.531	9544.22
652.724	9615.9
652.916	9527.83
653.109	9464.35
653.301	9517.59
653.494	9359.9
653.686	9443.87
653.879	9660.95
654.071	9361.95
654.263	9296.41
654.456	9290.27
654.648	9255.45
654.84	9019.94
655.033	9056.8
655.225	8942.11
655.417	8757.8
655.61	9034.27
655.802	8919.59
655.994	8622.63
656.186	8903.2
656.379	8780.32
656.571	8784.42
656.763	8634.92
656.955	8514.09
657.148	8624.68
657.34	8604.2
657.532	8413.74
657.724	8292.91
657.916	8403.5
658.108	8313.39
658.3	8313.39
658.492	8251.95
658.684	8018.48
658.876	8188.46
659.068	8098.35
659.26	8227.37
659.452	8036.91
659.644	8061.49
659.836	7842.35
660.028	8032.82
660.22	7823.92
660.412	7717.43
660.604	7926.32
660.796	7764.53
660.988	7594.55
661.18	7762.48
661.372	7422.52
661.563	7576.12
661.755	7496.25
661.947	7395.9
662.139	7518.78
662.331	7506.49
662.522	7350.84
662.714	7348.79
662.906	7234.11
663.097	7236.16
663.289	7133.76
663.481	7354.94
663.673	7084.61
663.864	7060.03
664.056	7096.89
664.247	6939.2
664.439	7080.51
664.631	6957.63
664.822	7004.74
665.014	6957.63
665.205	6855.23
665.397	6904.39
665.588	6691.4
665.78	6691.4
665.971	6732.36
666.163	6937.15
666.354	6589
666.546	6629.96
666.737	6705.73
666.929	6539.85
667.12	6634.05
667.311	6525.51
667.503	6470.22
667.694	6394.44
667.885	6398.54
668.077	6289.99
668.268	6337.1
668.459	6525.51
668.651	6339.15
668.842	6380.11
669.033	6232.65
669.224	6195.79
669.416	6341.19
669.607	6261.32
669.798	6224.46
669.989	6341.19
670.18	6062.67
670.371	6031.95
670.563	6064.72
670.754	5999.18
670.945	5864.02
671.136	5988.94
671.327	5896.78
671.518	5870.16
671.709	5859.92
671.9	5896.78
672.091	5814.87
672.282	5773.91
672.473	5618.26
672.664	5749.33
672.855	5669.46
673.046	5732.95
673.237	5661.27
673.428	5655.12
673.619	5599.83
673.809	5630.55
674	5655.12
674.191	5620.31
674.382	5603.93
674.573	5548.63
674.764	5483.1
674.954	5587.54
675.145	5479
675.336	5497.43
675.527	5425.75
675.717	5429.85
675.908	5419.61
676.099	5304.92
676.289	5309.02
676.48	5450.33
676.671	5282.39
676.861	5216.86
677.052	5253.72
677.243	5003.87
677.433	5069.41
677.624	5268.06
677.814	5210.72
678.005	5182.04
678.195	5032.54
678.386	5087.84
678.576	5100.12
678.767	5210.72
678.957	5063.26
679.148	5024.35
679.338	5089.89
679.529	5046.88
679.719	4930.14
679.909	5214.81
680.1	5079.65
680.29	4940.38
680.481	4815.46
680.671	4950.62
680.861	4872.8
681.052	4921.95
681.242	4917.86
681.432	4844.13
681.622	4862.56
681.813	4735.59
682.003	4932.19
682.193	4670.05
682.383	4786.79
682.573	4844.13
682.764	4682.34
682.954	4835.94
683.144	4665.96
683.334	4688.48
683.524	4702.82
683.714	4735.59
683.904	4768.35
684.094	4686.44
684.284	4661.86
684.474	4528.74
684.664	4569.7
684.854	4659.81
685.044	4422.25
685.234	4516.45
685.424	4610.66
685.614	4651.62
685.804	4577.89
685.994	4526.69
686.184	4586.08
686.374	4641.38
686.564	4287.08
686.753	4489.83
686.943	4371.05
687.133	4569.7
687.323	4518.5
687.513	4323.94
687.702	4508.26
687.892	4278.89
688.082	4360.81
688.272	4293.23
688.461	4143.72
688.651	4317.8
688.841	4209.26
689.03	4217.45
689.22	4348.52
689.41	4158.06
689.599	4065.9
689.789	4209.26
689.979	4080.24
690.168	4151.92
690.358	4090.48
690.547	4072.04
690.737	4145.77
690.926	4031.09
691.116	4053.61
691.305	3947.12
691.495	4039.28
691.684	3988.08
691.874	3930.73
692.063	4076.14
692.252	3891.82
692.442	3891.82
692.631	3875.44
692.82	3824.24
693.01	3873.39
693.199	3865.2
693.388	3883.63
693.578	3840.62
693.767	3768.95
693.956	3785.33
694.146	3809.9
694.335	3842.67
694.524	3578.48
694.713	3863.15
694.902	3844.72
695.092	3674.74
695.281	3766.9
695.47	3750.51
695.659	3545.72
695.848	3547.76
696.037	3717.75
696.226	3646.07
696.415	3615.35
696.604	3680.88
696.793	3568.24
696.982	3545.72
697.171	3609.2
697.36	3641.97
697.549	3551.86
697.738	3515
697.927	3564.15
698.116	3586.68
698.305	3678.83
698.494	3527.28
698.683	3504.76
698.872	3562.1
699.061	3541.62
699.25	3547.76
699.438	3482.23
699.627	3502.71
699.816	3420.79
700.005	3496.57
700.193	3357.3
700.382	3345.02
700.571	3451.51
700.76	3484.28
700.948	3418.74
701.137	3373.69
701.326	3398.26
701.514	3490.42
701.703	3504.76
701.892	3480.18
702.08	3287.67
702.269	3254.9
702.457	3465.85
702.646	3390.07
702.834	3250.81
703.023	3254.9
703.212	3390.07
703.4	3293.82
703.589	3252.86
703.777	3201.66
703.965	3299.96
704.154	3281.53
704.342	3222.14
704.531	3256.95
704.719	3324.54
704.907	3318.39
705.096	3242.62
705.284	3138.17
705.472	3046.01
705.661	3127.93
705.849	3291.77
706.037	3099.26
706.226	3160.7
706.414	3086.97
706.602	3127.93
706.79	3138.17
706.979	3185.27
707.167	3177.08
707.355	3121.79
707.543	3136.12
707.731	3215.99
707.919	2992.77
708.107	3078.78
708.296	3064.44
708.484	3072.64
708.672	3152.51
708.86	3029.63
709.048	3009.15
709.236	3127.93
709.424	3052.16
709.612	3101.31
709.8	3089.02
709.988	2943.61
710.176	2986.62
710.364	3115.64
710.551	2910.85
710.739	2968.19
710.927	2974.33
711.115	2853.5
711.303	2960
711.491	2982.53
711.679	2886.27
711.866	2953.85
712.054	2986.62
712.242	3003
712.43	2865.79
712.617	2955.9
712.805	3017.34
712.993	2830.98
713.181	2919.04
713.368	2957.95
713.556	2947.71
713.744	2839.17
713.931	2867.84
714.119	2849.41
714.306	2779.78
714.494	2826.88
714.682	2894.46
714.869	2828.93
715.057	2972.29
715.244	2816.64
715.432	2923.13
715.619	2910.85
715.807	2779.78
715.994	2720.39
716.182	2751.1
716.369	2890.37
716.556	2728.58
716.744	2683.52
716.931	2876.03
717.119	2726.53
717.306	2663.04
717.493	2765.44
717.681	2730.62
717.868	2663.04
718.055	2660.99
718.242	2775.68
718.43	2767.49
718.617	2663.04
718.804	2638.47
718.991	2722.43
719.179	2685.57
719.366	2646.66
719.553	2636.42
719.74	2636.42
719.927	2697.86
720.114	2507.4
720.301	2601.6
720.488	2677.38
720.676	2636.42
720.863	2751.1
721.05	2710.15
721.237	2546.31
721.424	2402.95
721.611	2564.74
721.798	2529.92
721.985	2630.27
722.172	2548.36
722.358	2423.43
722.545	2595.46
722.732	2531.97
722.919	2521.73
723.106	2478.72
723.293	2759.3
723.48	2597.51
723.667	2583.17
723.853	2579.08
724.04	2486.92
724.227	2488.96
724.414	2458.25
724.6	2327.18
724.787	2519.68
724.974	2550.4
725.161	2466.44
725.347	2519.68
725.534	2441.86
725.72	2439.81
725.907	2392.71
726.094	2388.61
726.28	2427.53
726.467	2390.66
726.653	2540.16
726.84	2431.62
727.027	2517.64
727.213	2445.96
727.4	2476.68
727.586	2374.28
727.773	2513.54
727.959	2382.47
728.145	2364.04
728.332	2339.46
728.518	2427.53
728.705	2435.72
728.891	2394.76
729.077	2407.05
729.264	2314.89
729.45	2456.2
729.636	2425.48
729.823	2366.09
730.009	2349.7
730.195	2345.61
730.382	2392.71
730.568	2269.83
730.754	2312.84
730.94	2368.13
731.126	2464.39
731.313	2304.65
731.499	2376.33
731.685	2349.7
731.871	2386.57
732.057	2333.32
732.243	2294.41
732.429	2243.21
732.615	2243.21
732.801	2439.81
732.987	2208.39
733.173	2189.96
733.359	2210.44
733.545	2327.18
733.731	2282.12
733.917	2144.91
734.103	2263.69
734.289	2343.56
734.475	2230.92
734.661	2214.54
734.847	2171.53
735.033	2202.25
735.219	2198.15
735.404	2294.41
735.59	2161.29
735.776	2286.22
735.962	2226.82
736.148	2153.1
736.333	2247.3
736.519	2237.06
736.705	2202.25
736.89	2144.91
737.076	2103.95
737.262	2105.99
737.447	2085.51
737.633	2157.19
737.819	2167.43
738.004	2015.88
738.19	2009.74
738.375	2079.37
738.561	2048.65
738.747	2024.08
738.932	2095.75
739.118	2071.18
739.303	2103.95
739.489	2042.51
739.674	1950.35
739.859	2034.32
740.045	2065.04
740.23	2062.99
740.416	1950.35
740.601	1983.12
740.786	1960.59
740.972	1999.5
741.157	1997.45
741.342	1813.13
741.528	1972.88
741.713	1931.92
741.898	1931.92
742.084	1993.36
742.269	1966.73
742.454	1972.88
742.639	1968.78
742.824	1833.61
743.01	1956.49
743.195	1993.36
743.38	1921.68
743.565	1843.85
743.75	1919.63
743.935	1882.77
744.12	1837.71
744.305	1845.9
744.49	1784.46
744.675	1757.84
744.86	1620.63
745.045	1819.28
745.23	1743.5
745.415	1792.66
745.6	1723.02
745.785	1702.54
745.97	1747.6
746.155	1819.28
746.34	1745.55
746.525	1694.35
746.71	1731.22
746.895	1661.59
747.079	1632.91
747.264	1831.57
747.449	1612.43
747.634	1718.93
747.819	1598.1
748.003	1649.3
748.188	1567.38
748.373	1639.06
748.557	1735.31
748.742	1587.86
748.927	1596.05
749.111	1606.29
749.296	1565.33
749.481	1522.32
749.665	1456.79
749.85	1507.99
750.034	1528.47
750.219	1520.28
750.404	1538.71
750.588	1477.27
750.773	1448.6
750.957	1489.56
751.141	1557.14
751.326	1456.79
751.51	1387.16
751.695	1469.08
751.879	1426.07
752.064	1473.17
752.248	1432.21
752.432	1354.39
752.617	1477.27
752.801	1362.58
752.985	1329.81
753.17	1424.02
753.354	1391.25
753.538	1350.29
753.722	1415.83
753.907	1366.68
754.091	1313.43
754.275	1303.19
754.459	1301.14
754.643	1305.24
754.828	1319.57
755.012	1260.18
755.196	1270.42
755.38	1243.8
755.564	1223.32
755.748	1168.02
755.932	1254.04
756.116	1254.04
756.3	1194.65
756.484	1186.46
756.668	1122.97
756.852	1047.19
757.036	1178.26
757.22	1184.41
757.404	1133.21
757.588	1125.02
757.772	1108.63
757.956	1139.35
758.14	1112.73
758.323	1114.78
758.507	1096.35
758.691	1082.01
758.875	1137.31
759.059	1120.92
759.242	1049.24
759.426	1082.01
759.61	1135.26
759.794	1030.81
759.977	1051.29
760.161	1006.24
760.345	1133.21
760.528	987.8
760.712	977.56
760.895	1002.14
761.079	975.52
761.263	1065.63
761.446	965.28
761.63	1065.63
761.813	963.23
761.997	991.9
762.18	991.9
762.364	991.9
762.547	1004.19
762.731	973.47
762.914	944.8
763.098	932.51
763.281	944.8
763.464	934.56
763.648	969.37
763.831	885.41
764.015	969.37
764.198	948.89
764.381	869.02
764.564	912.03
764.748	967.32
764.931	914.08
765.114	803.49
765.297	899.74
765.481	920.22
765.664	879.26
765.847	875.17
766.03	864.93
766.213	866.97
766.397	907.93
766.58	768.67
766.763	799.39
766.946	805.53
767.129	817.82
767.312	887.45
767.495	866.97
767.678	746.14
767.861	799.39
768.044	778.91
768.227	811.68
768.41	858.78
768.593	813.73
768.776	817.82
768.959	744.1
769.142	803.49
769.324	797.34
769.507	768.67
769.69	770.72
769.873	717.47
770.056	850.59
770.239	748.19
770.421	871.07
770.604	772.77
770.787	762.53
770.97	836.25
771.152	686.75
771.335	805.53
771.518	750.24
771.7	809.63
771.883	742.05
772.066	703.14
772.248	696.99
772.431	842.4
772.613	785.05
772.796	692.9
772.978	770.72
773.161	735.9
773.343	770.72
773.526	664.22
773.708	719.52
773.891	668.32
774.073	791.2
774.256	690.85
774.438	705.18
774.621	690.85
774.803	680.61
774.985	668.32
775.168	619.17
775.35	637.6
775.532	707.23
775.715	668.32
775.897	617.12
776.079	678.56
776.261	653.98
776.444	598.69
776.626	588.45
776.808	588.45
776.99	641.7
777.173	613.03
777.355	590.5
777.537	653.98
777.719	600.74
777.901	610.98
778.083	623.27
778.265	563.87
778.447	549.54
778.629	494.24
778.811	537.25
778.993	572.07
779.175	576.16
779.357	555.68
779.539	559.78
779.721	572.07
779.903	588.45
780.085	592.55
780.267	481.96
780.449	514.72
780.631	553.63
780.812	500.39
780.994	533.15
781.176	498.34
781.358	533.15
781.54	533.15
781.721	547.49
781.903	547.49
782.085	518.82
782.267	596.64
782.448	533.15
782.63	467.62
782.812	461.48
782.993	477.86
783.175	443.04
783.357	432.8
783.538	490.15
783.72	406.18
783.901	494.24
784.083	428.71
784.264	531.11
784.446	412.32
784.627	520.87
784.809	438.95
784.99	400.04
785.172	445.09
785.353	471.72
785.535	408.23
785.716	400.04
785.897	383.65
786.079	402.08
786.26	404.13
786.441	443.04
786.623	383.65
786.804	443.04
786.985	402.08
787.167	342.69
787.348	451.24
787.529	375.46
787.71	426.66
787.891	416.42
788.073	340.65
788.254	434.85
788.435	332.45
788.616	387.75
788.797	361.13
788.978	295.59
789.159	277.16
789.34	363.17
789.522	260.77
789.703	342.69
789.884	273.06
790.065	346.79
790.246	395.94
790.427	232.1
790.607	373.41
790.788	344.74
790.969	244.39
791.15	219.82
791.331	297.64
791.512	275.11
791.693	277.16
791.874	342.69
792.054	383.65
792.235	279.21
792.416	301.73
792.597	309.93
792.778	320.17
792.958	375.46
793.139	338.6
793.32	363.17
793.5	322.21
793.681	238.25
793.862	332.45
794.042	295.59
794.223	318.12
794.404	256.68
794.584	266.92
794.765	289.45
794.945	225.96
795.126	268.97
795.306	279.21
795.487	293.54
795.667	264.87
795.848	238.25
796.028	201.38
796.209	299.69
796.389	332.45
796.57	187.05
796.75	166.57
796.93	223.91
797.111	262.82
797.291	256.68
797.471	277.16
797.652	252.58
797.832	305.83
798.012	295.59
798.192	238.25
798.373	244.39
798.553	268.97
798.733	203.43
798.913	219.82
799.093	191.14
799.274	277.16
799.454	252.58
799.634	244.39
799.814	203.43
799.994	217.77
800.174	141.99
800.354	209.58
800.534	189.1
800.714	211.62
800.894	238.25
801.074	223.91
801.254	225.96
801.434	266.92
801.614	201.38
801.794	125.61
801.974	801.44
802.154	228.01
802.334	211.62
802.514	117.42
802.693	230.06
802.873	187.05
803.053	221.86
803.233	148.14
803.413	174.76
803.592	170.66
803.772	166.57
803.952	162.47
804.131	172.71
804.311	141.99
804.491	260.77
804.67	90.79
804.85	115.37
805.03	170.66
805.209	197.29
805.389	207.53
805.568	150.18
805.748	127.66
805.928	209.58
806.107	174.76
806.287	148.14
806.466	164.52
806.646	115.37
806.825	148.14
807.004	146.09
807.184	185
807.363	193.19
807.543	205.48
807.722	209.58
807.901	133.8
808.081	146.09
808.26	117.42
808.439	96.94
808.619	197.29
808.798	162.47
808.977	185
809.156	248.49
809.336	182.95
809.515	170.66
809.694	92.84
809.873	137.9
810.052	189.1
810.231	160.42
810.411	137.9
810.59	178.86
810.769	152.23
810.948	150.18
811.127	199.34
811.306	47.79
811.485	137.9
811.664	148.14
811.843	117.42
812.022	139.94
812.201	117.42
812.38	121.51
812.559	125.61
812.737	90.79
812.916	113.32
813.095	115.37
813.274	74.41
813.453	146.09
813.632	162.47
813.811	68.27
813.989	141.99
814.168	109.22
814.347	115.37
814.526	45.74
814.704	158.38
814.883	195.24
815.062	31.4
815.24	207.53
815.419	33.45
815.598	146.09
815.776	68.27
815.955	129.7
816.133	113.32
816.312	170.66
816.49	123.56
816.669	47.79
816.847	64.17
817.026	131.75
817.204	86.7
817.383	164.52
817.561	119.46
817.74	144.04
817.918	80.55
818.097	33.45
818.275	45.74
818.453	148.14
818.632	31.4
818.81	58.03
818.988	105.13
819.167	129.7
819.345	148.14
819.523	133.8
819.701	113.32
819.879	86.7
820.058	64.17
820.236	141.99
820.414	94.89
820.592	117.42
820.77	129.7
820.948	82.6
821.127	-30.04
821.305	51.88
821.483	74.41
821.661	64.17
821.839	141.99
822.017	60.07
822.195	109.22
822.373	172.71
822.551	64.17
822.729	148.14
822.907	55.98
823.085	96.94
823.262	74.41
823.44	80.55
823.618	47.79
823.796	64.17
823.974	68.27
824.152	53.93
824.329	74.41
824.507	17.07
824.685	82.6
824.863	74.41
825.04	6.83
825.218	0.68
825.396	84.65
825.574	64.17
825.751	133.8
825.929	80.55
826.107	94.89
826.284	35.5
826.462	119.46
826.639	17.07
826.817	148.14
826.994	76.46
827.172	43.69
827.349	129.7
827.527	76.46
827.704	105.13
827.882	107.18
828.059	74.41
828.237	25.26
828.414	139.94
828.591	21.16
828.769	103.08
828.946	37.55
829.124	47.79
829.301	64.17
829.478	58.03
829.655	94.89
829.833	47.79
830.01	33.45
830.187	66.22
830.364	31.4
830.542	80.55
830.719	39.59
830.896	78.51
831.073	6.83
831.25	76.46
831.427	33.45
831.604	31.4
831.782	78.51
831.959	47.79
832.136	53.93
832.313	33.45
832.49	23.21
832.667	84.65
832.844	60.07
833.021	80.55
833.198	33.45
833.374	72.36
833.551	2.73
833.728	27.31
833.905	19.11
834.082	19.11
834.259	60.07
834.436	64.17
834.612	29.35
834.789	37.55
834.966	15.02
835.143	80.55
835.319	-27.99
835.496	31.4
835.673	45.74
835.85	49.83
836.026	43.69
836.203	66.22
836.38	45.74
836.556	31.4
836.733	31.4
836.909	35.5
837.086	33.45
837.262	31.4
837.439	68.27
837.616	88.75
837.792	86.7
837.968	64.17
838.145	-7.51
838.321	64.17
838.498	23.21
838.674	53.93
838.851	10.92
839.027	23.21
839.203	-19.8
839.38	64.17
839.556	35.5
839.732	15.02
839.909	51.88
840.085	70.31
840.261	-11.61
840.437	53.93
840.614	-17.75
840.79	35.5
840.966	19.11
841.142	121.51
841.318	10.92
841.494	55.98
841.671	21.16
841.847	39.59
842.023	-34.13
842.199	23.21
842.375	2.73
842.551	41.64
842.727	12.97
842.903	141.99
843.079	-1.37
843.255	72.36
843.431	96.94
843.607	19.11
843.783	25.26
843.959	60.07
844.134	74.41
844.31	76.46
844.486	31.4
844.662	39.59
844.838	31.4
845.013	19.11
845.189	15.02
845.365	17.07
845.541	-17.75
845.716	55.98
845.892	51.88
846.068	19.11
846.244	70.31
846.419	47.79
846.595	58.03
846.77	-56.66
846.946	-7.51
847.122	-46.42
847.297	76.46
847.473	29.35
847.648	33.45
847.824	47.79
847.999	-15.7
848.175	64.17
848.35	31.4
848.526	15.02
848.701	58.03
848.876	51.88
849.052	86.7
849.227	39.59
849.403	-38.23
849.578	45.74
849.753	2.73
849.929	47.79
850.104	66.22
850.279	6.83
850.454	39.59
850.63	53.93
850.805	6.83
850.98	53.93
851.155	31.4
851.33	55.98
851.505	-32.08
851.681	45.74
851.856	-1.37
852.031	41.64
852.206	107.18
852.381	17.07
852.556	47.79
852.731	33.45
852.906	29.35
853.081	25.26
853.256	96.94
853.431	8.87
853.606	-42.32
853.781	47.79
853.956	-7.51
854.131	41.64
854.305	-42.32
854.48	47.79
854.655	-87.38
854.83	33.45
855.005	17.07
855.18	23.21
855.354	12.97
855.529	-7.51
855.704	23.21
855.879	58.03
856.053	35.5
856.228	-25.94
856.403	39.59
856.577	80.55
856.752	-81.24
856.926	-9.56
857.101	39.59
857.276	-23.89
857.45	17.07
857.625	-15.7
857.799	8.87
857.974	-7.51
858.148	23.21
858.323	35.5
858.497	4.78
858.672	35.5
858.846	58.03
859.02	25.26
859.195	-38.23
859.369	17.07
859.543	6.83
859.718	47.79
859.892	55.98
860.066	15.02
860.241	-23.89
860.415	-34.13
860.589	-21.85
860.763	-42.32
860.938	0.68
861.112	64.17
861.286	-95.57
861.46	-44.37
861.634	-42.32
861.808	74.41
861.982	6.83
862.157	-38.23
862.331	-13.65
862.505	-103.76
862.679	-1.37
862.853	-1.37
863.027	-56.66
863.201	60.07
863.375	-50.52
863.549	21.16
863.722	58.03
863.896	23.21
864.07	-3.41
864.244	4.78
864.418	-13.65
864.592	2.73
864.766	17.07
864.939	72.36
865.113	31.4
865.287	-13.65
865.461	19.11
865.634	-1.37
865.808	19.11
865.982	-21.85
866.156	-32.08
866.329	-62.8
866.503	-40.28
866.676	47.79
866.85	-13.65
867.024	33.45
867.197	-32.08
867.371	23.21
867.544	47.79
867.718	-23.89
867.891	-3.41
868.065	-1.37
868.238	-42.32
868.412	19.11
868.585	51.88
868.759	84.65
868.932	-30.04
869.105	53.93
869.279	-32.08
869.452	-64.85
869.625	-44.37
869.799	0.68
869.972	-83.28
870.145	31.4
870.319	-60.76
870.492	-48.47
870.665	-73.04
870.838	12.97
871.011	-54.61
871.185	15.02
871.358	-38.23
871.531	33.45
871.704	-73.04
871.877	47.79
872.05	-34.13
872.223	23.21
872.396	-56.66
872.569	-23.89
872.742	-38.23
872.915	-27.99
873.088	23.21
873.261	-17.75
873.434	-25.94
873.607	-5.46
873.78	12.97
873.953	-95.57
874.126	-52.56
874.299	-23.89
874.471	43.69
874.644	-54.61
874.817	115.37
874.99	86.7
875.163	-42.32
875.335	60.07
875.508	-5.46
875.681	82.6
875.853	-36.18
876.026	23.21
876.199	-42.32
876.371	-62.8
876.544	10.92
876.717	23.21
876.889	-3.41
877.062	-62.8
877.234	-68.95
877.407	-83.28
877.579	-15.7
877.752	33.45
877.924	23.21
878.097	23.21
878.269	19.11
878.442	17.07
878.614	4.78
878.786	39.59
878.959	17.07
879.131	-34.13
879.303	-13.65
879.476	-9.56
879.648	-1.37
879.82	33.45
879.993	-5.46
880.165	2.73
880.337	-50.52
880.509	27.31
880.681	-19.8
880.854	-34.13
881.026	23.21
881.198	80.55
881.37	23.21
881.542	31.4
881.714	55.98
881.886	45.74
882.058	10.92
882.23	31.4
882.402	-15.7
882.574	49.83
882.746	-3.41
882.918	-17.75
883.09	25.26
883.262	49.83
883.434	-3.41
883.606	15.02
883.778	-42.32
883.95	17.07
884.122	-34.13
884.293	6.83
884.465	-13.65
884.637	15.02
884.809	2.73
884.98	2.73
885.152	-34.13
885.324	-21.85
885.496	-54.61
885.667	39.59
885.839	-7.51
886.011	8.87
886.182	17.07
886.354	-27.99
886.525	49.83
886.697	-71
886.869	-38.23
887.04	37.55
887.212	-25.94
887.383	-25.94
887.555	-17.75
887.726	12.97
887.897	-130.39
888.069	-30.04
888.24	4.78
888.412	-32.08
888.583	10.92
888.754	-25.94
888.926	-42.32
889.097	2.73
889.268	-73.04
889.44	-56.66
889.611	-17.75
889.782	-9.56
889.953	2.73
890.125	17.07
890.296	-89.43
890.467	43.69
890.638	-21.85
890.809	-46.42
890.98	-25.94
891.151	-30.04
891.323	-19.8
891.494	-52.56
891.665	-36.18
891.836	29.35
892.007	-103.76
892.178	45.74
892.349	27.31
892.52	-34.13
892.691	-1.37
892.862	-56.66
893.032	-25.94
893.203	-23.89
893.374	-58.71
893.545	-23.89
893.716	-48.47
893.887	0.68
894.057	-40.28
894.228	-25.94
894.399	-17.75
894.57	-7.51
894.74	-64.85
894.911	15.02
895.082	41.64
895.253	-5.46
895.423	15.02
895.594	-75.09
895.764	-32.08
895.935	-58.71
896.106	-13.65
896.276	0.68
896.447	96.94
896.617	-50.52
896.788	-21.85
896.958	-54.61
897.129	2.73
897.299	-56.66
897.47	-17.75
897.64	23.21
897.81	47.79
897.981	8.87
898.151	-81.24
898.322	39.59
898.492	0.68
898.662	-15.7
898.832	-30.04
899.003	-64.85
899.173	-58.71
899.343	6.83
899.513	4.78
