Data from USB4F104151__209__14-21-06-953.txt Node

Date: Thu Mar 13 14:21:06 EDT 2025
User: louis
Spectrometer: USB4F10415
Trigger mode: 4
Integration Time (sec): 2.000000E-2
Scans to average: 1
Electric dark correction enabled: true
Nonlinearity correction enabled: false
Boxcar width: 0
XAxis mode: Wavelengths
Number of Pixels in Spectrum: 3648
>>>>>Begin Spectral Data<<<<<
178.204	-176.81
178.424	-176.81
178.644	-176.81
178.864	-90.79
179.084	-88.75
179.304	52.56
179.524	9.56
179.744	42.32
179.964	-19.11
180.184	-39.59
180.404	52.56
180.624	-21.16
180.844	-0.68
181.064	-58.03
181.283	48.47
181.503	-58.03
181.723	-8.87
181.943	-131.75
182.163	-27.31
182.383	-4.78
182.602	17.75
182.822	68.95
183.042	9.56
183.262	-51.88
183.482	17.75
183.701	27.99
183.921	38.23
184.141	-39.59
184.361	9.56
184.58	101.72
184.8	-23.21
185.02	-4.78
185.239	114
185.459	-41.64
185.679	48.47
185.898	3.41
186.118	44.37
186.338	-23.21
186.557	30.04
186.777	3.41
186.997	50.52
187.216	83.28
187.436	89.43
187.655	11.61
187.875	83.28
188.095	-6.83
188.314	32.08
188.534	58.71
188.753	40.28
188.973	42.32
189.192	23.89
189.412	-25.26
189.631	-4.78
189.851	56.66
190.07	-41.64
190.29	-23.21
190.509	17.75
190.729	-4.78
190.948	27.99
191.168	138.58
191.387	30.04
191.607	21.85
191.826	34.13
192.045	107.86
192.265	-15.02
192.484	5.46
192.704	-33.45
192.923	-4.78
193.142	46.42
193.362	11.61
193.581	38.23
193.8	21.85
194.02	132.44
194.239	99.67
194.458	11.61
194.678	-33.45
194.897	36.18
195.116	40.28
195.335	-6.83
195.555	48.47
195.774	71
195.993	44.37
196.212	-6.83
196.432	42.32
196.651	27.99
196.87	27.99
197.089	-12.97
197.308	38.23
197.528	15.7
197.747	-19.11
197.966	-41.64
198.185	23.89
198.404	5.46
198.623	40.28
198.842	36.18
199.062	25.94
199.281	11.61
199.5	40.28
199.719	-15.02
199.938	128.34
200.157	42.32
200.376	50.52
200.595	3.41
200.814	-8.87
201.033	7.51
201.252	7.51
201.471	71
201.69	77.14
201.909	23.89
202.128	109.91
202.347	23.89
202.566	23.89
202.785	32.08
203.004	36.18
203.223	71
203.442	40.28
203.661	56.66
203.879	89.43
204.098	52.56
204.317	36.18
204.536	54.61
204.755	7.51
204.974	15.7
205.193	-19.11
205.411	58.71
205.63	-2.73
205.849	-31.4
206.068	7.51
206.287	-31.4
206.505	-8.87
206.724	17.75
206.943	-53.93
207.162	40.28
207.381	25.94
207.599	23.89
207.818	56.66
208.037	30.04
208.255	-62.12
208.474	-17.07
208.693	89.43
208.911	75.09
209.13	-8.87
209.349	73.04
209.567	75.09
209.786	73.04
210.005	19.8
210.223	-58.03
210.442	32.08
210.661	64.85
210.879	5.46
211.098	64.85
211.316	-4.78
211.535	-41.64
211.753	11.61
211.972	-35.5
212.191	44.37
212.409	46.42
212.628	-98.99
212.846	23.89
213.065	36.18
213.283	-17.07
213.502	9.56
213.72	-55.98
213.938	-33.45
214.157	17.75
214.375	40.28
214.594	77.14
214.812	27.99
215.031	58.71
215.249	-41.64
215.467	97.62
215.686	52.56
215.904	27.99
216.122	-23.21
216.341	32.08
216.559	-0.68
216.778	66.9
216.996	7.51
217.214	9.56
217.432	-15.02
217.651	-25.26
217.869	-49.83
218.087	44.37
218.306	25.94
218.524	-45.74
218.742	-33.45
218.96	77.14
219.179	-39.59
219.397	-4.78
219.615	93.52
219.833	7.51
220.051	50.52
220.27	89.43
220.488	36.18
220.706	42.32
220.924	-27.31
221.142	32.08
221.36	15.7
221.578	40.28
221.796	17.75
222.015	32.08
222.233	89.43
222.451	89.43
222.669	40.28
222.887	89.43
223.105	42.32
223.323	-17.07
223.541	-33.45
223.759	15.7
223.977	-8.87
224.195	-0.68
224.413	58.71
224.631	17.75
224.849	73.04
225.067	60.76
225.285	13.65
225.503	-17.07
225.721	-45.74
225.939	-21.16
226.157	60.76
226.375	132.44
226.592	-12.97
226.81	46.42
227.028	114
227.246	-15.02
227.464	7.51
227.682	54.61
227.9	42.32
228.117	-4.78
228.335	1.37
228.553	48.47
228.771	11.61
228.989	58.71
229.206	7.51
229.424	50.52
229.642	58.71
229.86	23.89
230.077	7.51
230.295	77.14
230.513	77.14
230.731	81.24
230.948	42.32
231.166	116.05
231.384	44.37
231.601	36.18
231.819	60.76
232.037	40.28
232.254	-21.16
232.472	15.7
232.689	1.37
232.907	-23.21
233.125	23.89
233.342	40.28
233.56	13.65
233.777	-55.98
233.995	13.65
234.213	44.37
234.43	-27.31
234.648	25.94
234.865	-0.68
235.083	91.48
235.3	19.8
235.518	13.65
235.735	-15.02
235.953	36.18
236.17	-29.35
236.388	42.32
236.605	-12.97
236.822	107.86
237.04	44.37
237.257	11.61
237.475	23.89
237.692	83.28
237.909	-15.02
238.127	11.61
238.344	85.33
238.562	68.95
238.779	25.94
238.996	3.41
239.214	-0.68
239.431	13.65
239.648	-31.4
239.865	60.76
240.083	136.53
240.3	66.9
240.517	60.76
240.735	-45.74
240.952	23.89
241.169	56.66
241.386	-6.83
241.603	17.75
241.821	-6.83
242.038	54.61
242.255	32.08
242.472	17.75
242.689	-0.68
242.907	44.37
243.124	58.71
243.341	-41.64
243.558	56.66
243.775	85.33
243.992	-62.12
244.209	7.51
244.426	48.47
244.643	-45.74
244.86	-49.83
245.078	105.81
245.295	25.94
245.512	81.24
245.729	75.09
245.946	40.28
246.163	-0.68
246.38	-103.08
246.597	116.05
246.814	44.37
247.031	1.37
247.248	48.47
247.464	32.08
247.681	27.99
247.898	52.56
248.115	50.52
248.332	77.14
248.549	64.85
248.766	19.8
248.983	15.7
249.2	-25.26
249.417	40.28
249.633	30.04
249.85	48.47
250.067	48.47
250.284	-0.68
250.501	15.7
250.717	73.04
250.934	-33.45
251.151	1.37
251.368	34.13
251.585	146.77
251.801	81.24
252.018	21.85
252.235	-4.78
252.451	-27.31
252.668	19.8
252.885	50.52
253.102	60.76
253.318	-6.83
253.535	15.7
253.752	-4.78
253.968	-12.97
254.185	64.85
254.401	17.75
254.618	77.14
254.835	-101.03
255.051	101.72
255.268	34.13
255.484	40.28
255.701	134.48
255.917	62.8
256.134	15.7
256.351	11.61
256.567	73.04
256.784	40.28
257	27.99
257.217	25.94
257.433	19.8
257.65	-49.83
257.866	58.71
258.082	40.28
258.299	-17.07
258.515	97.62
258.732	-31.4
258.948	42.32
259.165	30.04
259.381	89.43
259.597	42.32
259.814	-21.16
260.03	-21.16
260.246	58.71
260.463	13.65
260.679	77.14
260.895	34.13
261.112	40.28
261.328	73.04
261.544	58.71
261.761	101.72
261.977	1.37
262.193	25.94
262.409	-4.78
262.626	42.32
262.842	1.37
263.058	1.37
263.274	68.95
263.49	-12.97
263.707	64.85
263.923	32.08
264.139	-51.88
264.355	73.04
264.571	44.37
264.787	13.65
265.004	48.47
265.22	56.66
265.436	38.23
265.652	7.51
265.868	23.89
266.084	15.7
266.3	9.56
266.516	23.89
266.732	25.94
266.948	5.46
267.164	11.61
267.38	-39.59
267.596	64.85
267.812	1.37
268.028	83.28
268.244	36.18
268.46	44.37
268.676	-15.02
268.892	62.8
269.108	19.8
269.324	25.94
269.54	-23.21
269.756	50.52
269.972	42.32
270.188	40.28
270.403	-8.87
270.619	32.08
270.835	34.13
271.051	15.7
271.267	89.43
271.483	73.04
271.698	75.09
271.914	64.85
272.13	36.18
272.346	27.99
272.562	23.89
272.777	60.76
272.993	5.46
273.209	34.13
273.425	85.33
273.64	-19.11
273.856	32.08
274.072	-4.78
274.287	-33.45
274.503	101.72
274.719	89.43
274.934	-31.4
275.15	-0.68
275.366	27.99
275.581	23.89
275.797	27.99
276.012	-23.21
276.228	7.51
276.444	27.99
276.659	109.91
276.875	-12.97
277.09	52.56
277.306	19.8
277.521	58.71
277.737	40.28
277.952	23.89
278.168	1.37
278.383	17.75
278.599	-21.16
278.814	42.32
279.03	-6.83
279.245	159.06
279.461	116.05
279.676	93.52
279.892	-72.36
280.107	58.71
280.322	-17.07
280.538	23.89
280.753	50.52
280.969	68.95
281.184	-27.31
281.399	21.85
281.615	79.19
281.83	73.04
282.045	-6.83
282.26	25.94
282.476	-23.21
282.691	122.2
282.906	42.32
283.122	27.99
283.337	32.08
283.552	77.14
283.767	58.71
283.983	42.32
284.198	-0.68
284.413	130.39
284.628	-2.73
284.843	-15.02
285.058	19.8
285.274	23.89
285.489	-25.26
285.704	60.76
285.919	40.28
286.134	-0.68
286.349	9.56
286.564	36.18
286.779	27.99
286.995	-8.87
287.21	-45.74
287.425	21.85
287.64	34.13
287.855	56.66
288.07	-49.83
288.285	15.7
288.5	9.56
288.715	54.61
288.93	-17.07
289.145	-0.68
289.36	124.24
289.575	42.32
289.79	77.14
290.004	23.89
290.219	11.61
290.434	-33.45
290.649	-31.4
290.864	-17.07
291.079	62.8
291.294	58.71
291.509	32.08
291.724	21.85
291.938	50.52
292.153	-6.83
292.368	17.75
292.583	50.52
292.798	23.89
293.012	42.32
293.227	27.99
293.442	38.23
293.657	-17.07
293.871	40.28
294.086	-25.26
294.301	85.33
294.516	-0.68
294.73	5.46
294.945	15.7
295.16	19.8
295.374	81.24
295.589	58.71
295.804	7.51
296.018	15.7
296.233	-8.87
296.447	13.65
296.662	42.32
296.877	32.08
297.091	48.47
297.306	68.95
297.52	46.42
297.735	17.75
297.949	73.04
298.164	58.71
298.378	34.13
298.593	-49.83
298.807	-17.07
299.022	73.04
299.236	42.32
299.451	-31.4
299.665	1.37
299.88	89.43
300.094	13.65
300.309	-8.87
300.523	50.52
300.737	34.13
300.952	34.13
301.166	-0.68
301.381	15.7
301.595	56.66
301.809	7.51
302.024	-0.68
302.238	73.04
302.452	68.95
302.667	-49.83
302.881	114
303.095	21.85
303.309	52.56
303.524	73.04
303.738	32.08
303.952	56.66
304.166	58.71
304.381	-25.26
304.595	89.43
304.809	-66.22
305.023	27.99
305.237	83.28
305.452	-55.98
305.666	11.61
305.88	48.47
306.094	-6.83
306.308	32.08
306.522	23.89
306.736	23.89
306.95	75.09
307.164	-29.35
307.379	42.32
307.593	101.72
307.807	60.76
308.021	52.56
308.235	23.89
308.449	-17.07
308.663	-39.59
308.877	52.56
309.091	-0.68
309.305	36.18
309.519	-23.21
309.733	-23.21
309.947	23.89
310.161	66.9
310.374	32.08
310.588	81.24
310.802	3.41
311.016	23.89
311.23	52.56
311.444	42.32
311.658	30.04
311.872	105.81
312.085	40.28
312.299	9.56
312.513	21.85
312.727	48.47
312.941	36.18
313.154	97.62
313.368	-0.68
313.582	9.56
313.796	93.52
314.009	-23.21
314.223	48.47
314.437	-8.87
314.651	64.85
314.864	-33.45
315.078	64.85
315.292	89.43
315.505	15.7
315.719	85.33
315.933	81.24
316.146	95.57
316.36	40.28
316.573	34.13
316.787	-8.87
317.001	52.56
317.214	-39.59
317.428	7.51
317.641	15.7
317.855	101.72
318.068	27.99
318.282	-6.83
318.495	52.56
318.709	48.47
318.922	48.47
319.136	105.81
319.349	40.28
319.563	9.56
319.776	40.28
319.99	7.51
320.203	34.13
320.417	85.33
320.63	-0.68
320.843	97.62
321.057	140.63
321.27	19.8
321.483	58.71
321.697	7.51
321.91	32.08
322.124	48.47
322.337	52.56
322.55	25.94
322.763	32.08
322.977	25.94
323.19	-29.35
323.403	-25.26
323.617	77.14
323.83	89.43
324.043	64.85
324.256	-0.68
324.469	-21.16
324.683	114
324.896	38.23
325.109	62.8
325.322	-31.4
325.535	60.76
325.748	-31.4
325.962	25.94
326.175	15.7
326.388	7.51
326.601	75.09
326.814	52.56
327.027	48.47
327.24	34.13
327.453	-17.07
327.666	56.66
327.879	19.8
328.092	19.8
328.305	101.72
328.518	-15.02
328.731	15.7
328.944	-19.11
329.157	81.24
329.37	34.13
329.583	66.9
329.796	85.33
330.009	-78.51
330.222	7.51
330.435	44.37
330.648	66.9
330.861	25.94
331.073	44.37
331.286	48.47
331.499	21.85
331.712	21.85
331.925	19.8
332.138	-17.07
332.35	60.76
332.563	52.56
332.776	58.71
332.989	25.94
333.202	34.13
333.414	56.66
333.627	85.33
333.84	48.47
334.053	23.89
334.265	-0.68
334.478	-0.68
334.691	-6.83
334.903	40.28
335.116	19.8
335.329	71
335.541	21.85
335.754	50.52
335.966	32.08
336.179	-0.68
336.392	36.18
336.604	91.48
336.817	23.89
337.029	40.28
337.242	30.04
337.454	3.41
337.667	101.72
337.88	128.34
338.092	48.47
338.305	25.94
338.517	13.65
338.729	25.94
338.942	-8.87
339.154	11.61
339.367	-25.26
339.579	62.8
339.792	-8.87
340.004	89.43
340.217	-4.78
340.429	64.85
340.641	-45.74
340.854	60.76
341.066	71
341.278	44.37
341.491	50.52
341.703	-8.87
341.915	-8.87
342.128	75.09
342.34	44.37
342.552	23.89
342.764	-31.4
342.977	64.85
343.189	15.7
343.401	50.52
343.613	-15.02
343.826	64.85
344.038	56.66
344.25	48.47
344.462	7.51
344.674	52.56
344.886	13.65
345.099	64.85
345.311	1.37
345.523	114
345.735	9.56
345.947	36.18
346.159	56.66
346.371	-78.51
346.583	73.04
346.795	97.62
347.007	19.8
347.219	27.99
347.431	89.43
347.643	34.13
347.855	-17.07
348.067	25.94
348.279	95.57
348.491	48.47
348.703	11.61
348.915	73.04
349.127	11.61
349.339	105.81
349.551	46.42
349.763	-41.64
349.975	75.09
350.187	52.56
350.399	-0.68
350.61	36.18
350.822	36.18
351.034	50.52
351.246	-51.88
351.458	19.8
351.669	9.56
351.881	97.62
352.093	11.61
352.305	56.66
352.517	114
352.728	118.1
352.94	60.76
353.152	79.19
353.363	-23.21
353.575	38.23
353.787	99.67
353.999	75.09
354.21	32.08
354.422	56.66
354.633	-12.97
354.845	48.47
355.057	36.18
355.268	21.85
355.48	15.7
355.692	-25.26
355.903	50.52
356.115	23.89
356.326	-58.03
356.538	13.65
356.749	-10.92
356.961	71
357.172	60.76
357.384	19.8
357.595	87.38
357.807	19.8
358.018	-2.73
358.23	101.72
358.441	89.43
358.653	64.85
358.864	-10.92
359.075	48.47
359.287	-0.68
359.498	89.43
359.709	-4.78
359.921	-49.83
360.132	-21.16
360.344	89.43
360.555	34.13
360.766	27.99
360.977	81.24
361.189	93.52
361.4	9.56
361.611	77.14
361.823	89.43
362.034	97.62
362.245	-17.07
362.456	1.37
362.667	-8.87
362.879	32.08
363.09	93.52
363.301	-17.07
363.512	58.71
363.723	32.08
363.935	58.71
364.146	15.7
364.357	25.94
364.568	36.18
364.779	34.13
364.99	42.32
365.201	64.85
365.412	56.66
365.623	46.42
365.834	50.52
366.045	89.43
366.256	81.24
366.467	50.52
366.678	40.28
366.889	9.56
367.1	38.23
367.311	56.66
367.522	122.2
367.733	46.42
367.944	56.66
368.155	48.47
368.366	97.62
368.577	15.7
368.788	116.05
368.999	48.47
369.209	9.56
369.42	68.95
369.631	81.24
369.842	85.33
370.053	-12.97
370.264	19.8
370.474	5.46
370.685	25.94
370.896	36.18
371.107	68.95
371.317	-39.59
371.528	11.61
371.739	124.24
371.95	89.43
372.16	60.76
372.371	21.85
372.582	1.37
372.792	19.8
373.003	114
373.214	-0.68
373.424	87.38
373.635	11.61
373.846	58.71
374.056	50.52
374.267	32.08
374.477	34.13
374.688	48.47
374.898	64.85
375.109	75.09
375.319	81.24
375.53	17.75
375.74	75.09
375.951	-23.21
376.161	19.8
376.372	71
376.582	-33.45
376.793	56.66
377.003	87.38
377.214	56.66
377.424	85.33
377.635	34.13
377.845	11.61
378.055	66.9
378.266	-25.26
378.476	-39.59
378.686	73.04
378.897	89.43
379.107	130.39
379.317	44.37
379.528	25.94
379.738	60.76
379.948	-33.45
380.158	142.68
380.369	-8.87
380.579	27.99
380.789	73.04
380.999	60.76
381.21	56.66
381.42	75.09
381.63	89.43
381.84	56.66
382.05	1.37
382.261	109.91
382.471	64.85
382.681	48.47
382.891	40.28
383.101	52.56
383.311	62.8
383.521	42.32
383.731	73.04
383.941	42.32
384.151	21.85
384.361	15.7
384.571	71
384.781	58.71
384.991	93.52
385.201	159.06
385.411	114
385.621	64.85
385.831	-23.21
386.041	58.71
386.251	-0.68
386.461	93.52
386.671	73.04
386.881	91.48
387.091	27.99
387.301	75.09
387.511	21.85
387.72	89.43
387.93	85.33
388.14	66.9
388.35	73.04
388.56	75.09
388.769	130.39
388.979	7.51
389.189	52.56
389.399	1.37
389.609	114
389.818	122.2
390.028	126.29
390.238	64.85
390.447	-37.55
390.657	73.04
390.867	32.08
391.076	15.7
391.286	89.43
391.496	48.47
391.705	118.1
391.915	122.2
392.125	36.18
392.334	-17.07
392.544	128.34
392.753	3.41
392.963	-4.78
393.172	97.62
393.382	85.33
393.591	91.48
393.801	62.8
394.01	89.43
394.22	66.9
394.429	40.28
394.639	52.56
394.848	56.66
395.058	105.81
395.267	87.38
395.477	36.18
395.686	15.7
395.895	23.89
396.105	126.29
396.314	68.95
396.524	71
396.733	44.37
396.942	146.77
397.152	97.62
397.361	62.8
397.57	114
397.78	130.39
397.989	75.09
398.198	191.83
398.407	54.61
398.617	130.39
398.826	64.85
399.035	99.67
399.244	40.28
399.453	109.91
399.663	68.95
399.872	85.33
400.081	73.04
400.29	195.92
400.499	56.66
400.708	48.47
400.917	56.66
401.127	101.72
401.336	83.28
401.545	99.67
401.754	189.78
401.963	187.73
402.172	56.66
402.381	146.77
402.59	68.95
402.799	189.78
403.008	130.39
403.217	124.24
403.426	83.28
403.635	27.99
403.844	93.52
404.053	116.05
404.262	114
404.471	269.65
404.68	154.96
404.888	77.14
405.097	105.81
405.306	138.58
405.515	89.43
405.724	89.43
405.933	165.2
406.142	187.73
406.35	126.29
406.559	122.2
406.768	159.06
406.977	165.2
407.185	208.21
407.394	195.92
407.603	109.91
407.812	202.07
408.02	181.59
408.229	185.68
408.438	255.31
408.646	148.82
408.855	208.21
409.064	257.36
409.272	220.5
409.481	218.45
409.69	208.21
409.898	191.83
410.107	269.65
410.315	255.31
410.524	261.46
410.733	326.99
410.941	302.42
411.15	345.42
411.358	335.18
411.567	347.47
411.775	306.51
411.984	417.1
412.192	413.01
412.401	343.38
412.609	456.01
412.818	419.15
413.026	413.01
413.234	511.31
413.443	421.2
413.651	451.92
413.86	460.11
414.068	482.64
414.276	564.56
414.485	542.03
414.693	580.94
414.901	662.86
415.11	660.81
415.318	654.67
415.526	605.52
415.734	673.1
415.943	712.01
416.151	646.48
416.359	732.49
416.567	738.63
416.776	906.57
416.984	791.88
417.192	855.37
417.4	808.27
417.608	877.9
417.817	900.42
418.025	957.77
418.233	1033.54
418.441	974.15
418.649	1056.07
418.857	1131.84
419.065	1174.85
419.273	1105.22
419.481	1211.71
419.689	1248.58
419.897	1252.67
420.105	1389.89
420.313	1377.6
420.521	1402.18
420.729	1439.04
420.937	1416.51
421.145	1504.57
421.353	1602.88
421.561	1668.41
421.769	1654.08
421.977	1783.1
422.185	1762.62
422.393	1828.15
422.601	2000.18
422.809	2022.71
423.017	1981.75
423.224	2116.92
423.432	2137.4
423.64	2196.79
423.848	2440.5
424.056	2268.47
424.263	2571.57
424.471	2426.16
424.679	2432.3
424.887	2792.75
425.094	2671.92
425.302	2743.6
425.51	2860.33
425.718	2962.73
425.925	2948.39
426.133	3007.78
426.341	3284.26
426.548	3292.45
426.756	3452.19
426.964	3429.67
427.171	3659.04
427.379	3675.42
427.586	3810.59
427.794	3939.61
428.001	3984.66
428.209	4279.57
428.417	4275.48
428.624	4482.32
428.832	4556.05
429.039	4410.64
429.247	4363.54
429.454	4861.2
429.662	5252.36
429.869	4834.57
430.076	5170.44
430.284	5090.57
430.491	5246.21
430.699	5514.5
430.906	5577.98
431.114	5684.48
431.321	5958.91
431.528	6053.11
431.736	6343.92
431.943	6675.7
432.15	6403.32
432.358	6474.99
432.565	6806.77
432.772	6950.12
432.979	7105.77
433.187	7433.44
433.394	7412.96
433.601	7924.96
433.808	7840.99
434.016	7742.69
434.223	8217.82
434.43	8699.09
434.637	8436.95
434.844	8953.04
435.052	9116.87
435.259	9088.2
435.466	9170.12
435.673	9110.73
435.88	9444.55
436.087	10175.67
436.294	10208.44
436.501	9974.97
436.708	10181.82
436.915	10640.56
437.122	10943.66
437.329	11052.2
437.537	11234.47
437.743	11439.27
437.95	11132.08
438.157	12041.37
438.364	12293.27
438.571	12315.8
438.778	12479.64
438.985	13749.38
439.192	13059.21
439.399	13456.52
439.606	13186.19
439.813	13921.41
440.02	14646.39
440.227	14335.1
440.433	14253.18
440.64	15008.88
440.847	14728.31
441.054	15115.37
441.261	15869.03
441.467	15842.4
441.674	16161.89
441.881	16841.81
442.088	16626.78
442.294	16505.95
442.501	16862.29
442.708	17214.54
442.914	17890.37
443.121	18734.14
443.328	18218.05
443.534	19553.32
443.741	18791.48
443.948	18422.84
444.154	20175.91
444.361	20147.23
444.568	20005.92
444.774	20173.86
444.981	20413.47
445.187	20751.38
445.394	21707.79
445.6	21572.62
445.807	23448.56
446.013	22356.99
446.22	22838.26
446.426	23643.12
446.633	23987.18
446.839	24759.26
447.046	23942.12
447.252	24882.14
447.459	25154.52
447.665	24937.43
447.871	25906.12
448.078	26964.92
448.284	26006.47
448.491	26651.58
448.697	27685.81
448.903	28179.37
449.11	28210.09
449.316	27677.62
449.522	28312.49
449.728	29055.9
449.935	28992.41
450.141	29053.85
450.347	30161.8
450.553	29158.3
450.76	29361.05
450.966	30268.3
451.172	30186.38
451.378	30831.49
451.584	30161.8
451.791	30933.89
451.997	30733.18
452.203	31372.15
452.409	31499.12
452.615	31308.66
452.821	29629.33
453.027	29594.51
453.233	31335.29
453.44	30016.4
453.646	30223.24
453.852	30481.28
454.058	31296.38
454.264	29760.4
454.47	30509.96
454.676	30034.83
454.882	30964.6
455.088	28267.43
455.294	28773.28
455.5	29549.46
455.705	29596.56
455.911	28175.27
456.117	27757.49
456.323	27134.9
456.529	25906.12
456.735	27132.86
456.941	26149.83
457.147	26006.47
457.352	25043.93
457.558	24736.73
457.764	24898.52
457.97	24286.18
458.176	24261.6
458.381	23866.35
458.587	22797.31
458.793	22914.04
458.999	21799.94
459.204	23405.55
459.41	22496.25
459.616	21158.93
459.821	21203.99
460.027	21343.25
460.233	20472.86
460.438	19733.54
460.644	19874.85
460.85	18838.58
461.055	18515
461.261	18428.99
461.466	17212.49
461.672	16708.69
461.878	18023.49
462.083	16827.48
462.289	16389.21
462.494	16247.9
462.7	15436.91
462.905	15189.1
463.111	15709.29
463.316	15819.88
463.522	15342.7
463.727	15309.93
463.932	15656.04
464.138	15215.73
464.343	15393.9
464.549	14834.8
464.754	15297.64
464.959	15238.25
465.165	15076.46
465.37	14195.84
465.575	14150.78
465.781	14789.75
465.986	14875.76
466.191	14003.33
466.397	13831.3
466.602	13046.93
466.807	13642.89
467.012	13806.72
467.218	13614.21
467.423	13515.91
467.628	13450.38
467.833	14140.54
468.038	13610.12
468.244	13155.47
468.449	13745.28
468.654	13399.18
468.859	13286.54
469.064	12950.67
469.269	12561.56
469.474	12975.25
469.679	12952.72
469.885	12401.82
470.09	12868.75
470.295	12674.2
470.5	12518.55
470.705	12508.31
470.91	12479.64
471.115	12192.92
471.32	12369.05
471.525	12414.1
471.73	11961.5
471.935	11621.54
472.139	11469.99
472.344	11672.74
472.549	11410.6
472.754	11394.22
472.959	11140.27
473.164	10945.71
473.369	10654.9
473.574	11068.59
473.778	11152.56
473.983	10661.04
474.188	10935.47
474.393	10304.7
474.598	10407.09
474.802	10499.25
475.007	10386.61
475.212	10194.11
475.417	9942.21
475.621	10001.6
475.826	10202.3
476.031	9786.56
476.235	9618.63
476.44	9749.7
476.645	9403.59
476.849	9460.93
477.054	9374.92
477.259	9422.02
477.463	9508.04
477.668	8901.84
477.872	9204.94
478.077	9088.2
478.282	8633.55
478.486	8774.86
478.691	8746.19
478.895	8729.81
479.1	8846.54
479.304	8723.66
479.509	8395.99
479.713	8514.77
479.918	8352.98
480.122	8228.06
480.326	8230.1
480.531	8320.21
480.735	8316.12
480.94	8139.99
481.144	8428.76
481.348	8193.24
481.553	8129.75
481.757	7953.63
481.961	8121.56
482.166	8174.81
482.37	8137.95
482.574	7863.52
482.778	7961.82
482.983	8232.15
483.187	8074.46
483.391	8226.01
483.595	7982.3
483.8	8168.66
484.004	8146.14
484.208	8015.07
484.412	8234.2
484.616	8135.9
484.821	8217.82
485.025	7840.99
485.229	8080.6
485.433	8035.55
485.637	7910.62
485.841	7773.41
486.045	8035.55
486.249	7937.24
486.453	8041.69
486.657	8056.03
486.861	8129.75
487.065	7875.81
487.269	8133.85
487.473	8043.74
487.677	8174.81
487.881	8076.51
488.085	8056.03
488.289	8131.8
488.493	8096.99
488.697	8105.18
488.901	8105.18
489.105	8103.13
489.309	8127.71
489.512	8211.67
489.716	8240.34
489.92	7994.59
490.124	8133.85
490.328	8201.43
490.531	8142.04
490.735	8228.06
490.939	8520.92
491.143	8277.21
491.346	8250.58
491.55	8482
491.754	8342.74
491.958	8549.59
492.161	8439
492.365	8363.22
492.569	8580.31
492.772	8395.99
492.976	8572.11
493.18	8676.56
493.383	8469.72
493.587	8635.6
493.79	8846.54
493.994	8676.56
494.197	8731.86
494.401	8883.41
494.605	8967.37
494.808	9037
495.012	9114.83
495.215	9157.83
495.419	9172.17
495.622	9217.22
495.825	9403.59
496.029	9610.43
496.232	9473.22
496.436	9489.6
496.639	9661.63
496.843	9581.76
497.046	9794.75
497.249	9876.67
497.453	10192.06
497.656	9997.5
497.859	10216.63
498.063	10132.67
498.266	10558.64
498.469	10462.39
498.673	10486.97
498.876	10634.42
499.079	10626.23
499.282	10620.08
499.485	11189.42
499.689	11052.2
499.892	11164.84
500.095	11273.39
500.298	11723.94
500.501	11441.32
500.705	11615.4
500.908	11996.32
501.111	11879.58
501.314	12139.68
501.517	12000.41
501.72	12297.37
501.923	12147.87
502.126	12639.38
502.329	12616.85
502.532	12799.12
502.735	12901.52
502.938	13063.31
503.141	13446.28
503.344	13524.1
503.547	13319.31
503.75	13757.57
503.953	13714.56
504.156	14001.28
504.359	14042.24
504.562	14068.86
504.765	14392.44
504.968	14429.31
505.17	14691.45
505.373	14513.27
505.576	15015.02
505.779	15025.26
505.982	15283.31
506.185	15481.96
506.387	15606.89
506.59	15797.35
506.793	15905.89
506.996	16112.74
507.198	16501.85
507.401	16321.63
507.604	16575.58
507.807	17040.47
508.009	17034.32
508.212	16960.59
508.415	17329.23
508.617	17368.14
508.82	17574.99
509.022	17871.94
509.225	17878.08
509.428	17783.88
509.63	18242.62
509.833	18056.26
510.035	18943.03
510.238	18666.55
510.44	18791.48
510.643	19166.26
510.845	19348.53
511.048	19538.99
511.25	19764.26
511.453	19741.74
511.655	20552.73
511.858	20218.91
512.06	20503.58
512.262	20407.33
512.465	20442.14
512.667	20964.37
512.87	20960.28
513.072	21263.38
513.274	21677.07
513.477	22045.7
513.679	21830.66
513.881	22209.54
514.084	22391.81
514.286	22447.1
514.488	22658.04
514.69	22993.91
514.893	23235.57
515.095	23139.32
515.297	23491.57
515.499	23935.98
515.701	23895.02
515.904	24163.3
516.106	24435.68
516.308	24507.36
516.51	24706.01
516.712	24880.09
516.914	24986.58
517.116	25576.4
517.318	25453.52
517.52	25740.24
517.722	25869.26
517.925	26151.88
518.127	26442.69
518.329	26672.06
518.531	26627.01
518.733	27157.43
518.935	27196.34
519.136	27022.26
519.338	27831.21
519.54	27874.22
519.742	28005.29
519.944	28253.09
520.146	28562.34
520.348	28599.2
520.55	28769.18
520.752	29229.98
520.954	29780.88
521.155	29293.46
521.357	29731.73
521.559	30006.16
521.761	30231.43
521.963	30387.08
522.164	30372.74
522.366	30618.5
522.568	31054.72
522.77	31316.86
522.971	31529.84
523.173	31323
523.375	31550.32
523.576	31642.48
523.778	31349.62
523.98	32484.2
524.181	32029.55
524.383	31978.35
524.584	32703.33
524.786	32680.8
524.988	32777.06
525.189	33035.1
525.391	33297.24
525.592	33571.67
525.794	33067.87
525.995	33407.83
526.197	33497.94
526.398	33872.72
526.6	33983.31
526.801	34042.7
527.003	34159.44
527.204	34265.93
527.406	34550.6
527.607	34472.78
527.808	34583.37
528.01	34288.46
528.211	34648.9
528.412	34900.8
528.614	35398.46
528.815	35068.73
529.016	35494.71
529.218	34925.38
529.419	35234.62
529.62	35441.46
529.822	35525.43
530.023	35443.51
530.224	35959.6
530.425	35738.42
530.626	35400.51
530.828	35431.22
531.029	36401.96
531.23	35525.43
531.431	35894.07
531.632	35846.96
531.833	36254.51
532.035	36068.14
532.236	36090.67
532.437	36195.12
532.638	35803.95
532.839	36172.59
533.04	36504.36
533.241	36023.09
533.442	36872.99
533.643	36088.62
533.844	36328.23
534.045	36752.16
534.246	35967.79
534.447	36365.1
534.648	36434.73
534.849	36623.14
535.05	36270.89
535.251	36393.77
535.451	36428.59
535.652	36129.58
535.853	36457.26
536.054	36152.11
536.255	36573.99
536.456	36672.29
536.657	37382.94
536.857	36498.22
537.058	36719.4
537.259	36905.76
537.46	36766.5
537.66	36514.6
537.861	36455.21
538.062	36617
538.263	36498.22
538.463	36358.95
538.664	36305.71
538.865	36764.45
539.065	36408.11
539.266	36397.87
539.466	36717.35
539.667	36055.86
539.868	36721.44
540.068	36420.39
540.269	36254.51
540.469	36680.49
540.67	36283.18
540.87	36549.42
541.071	36522.79
541.271	36287.28
541.472	36160.3
541.672	36213.55
541.873	36346.67
542.073	36131.63
542.274	36664.1
542.474	36256.56
542.675	36174.64
542.875	36776.74
543.075	36741.92
543.276	35838.77
543.476	36555.56
543.676	36375.34
543.877	36635.43
544.077	36477.74
544.277	36025.14
544.478	36092.72
544.678	36565.8
544.878	36457.26
545.078	36346.67
545.279	35769.14
545.479	36123.44
545.679	36199.21
545.879	36494.12
546.079	36348.71
546.28	36381.48
546.48	36074.29
546.68	36102.96
546.88	36033.33
547.08	36301.61
547.28	36299.56
547.48	35558.2
547.68	36410.15
547.88	36227.88
548.081	36219.69
548.281	36033.33
548.481	35937.07
548.681	36356.91
548.881	35941.17
549.081	36141.87
549.28	36231.98
549.48	36172.59
549.68	36121.39
549.88	36539.18
550.08	35648.31
550.28	35990.32
550.48	36309.8
550.68	36231.98
550.88	35709.75
551.08	36062
551.279	36207.4
551.479	35660.6
551.679	36164.4
551.879	36014.9
552.079	35978.03
552.278	35355.45
552.478	36039.47
552.678	35986.22
552.878	35941.17
553.077	35849.01
553.277	35412.79
553.477	36291.37
553.676	35775.28
553.876	35595.06
554.076	35836.72
554.275	35769.14
554.475	35408.7
554.674	35785.52
554.874	35490.62
555.074	35361.59
555.273	35558.2
555.473	36004.66
555.672	35095.36
555.872	35633.97
556.071	35584.82
556.271	35953.46
556.47	35451.7
556.67	34990.91
556.869	35289.91
557.068	35455.8
557.268	35287.87
557.467	35259.2
557.667	35330.87
557.866	35420.98
558.065	35251
558.265	34831.17
558.464	34585.41
558.663	35054.4
558.863	34653
559.062	35576.63
559.261	34575.17
559.461	34945.86
559.66	34587.46
559.859	34413.38
560.058	34497.35
560.258	34679.62
560.457	34483.02
560.656	34806.59
560.855	34790.21
561.054	34949.95
561.253	34538.31
561.453	34681.67
561.652	34704.2
561.851	34667.33
562.05	34511.69
562.249	34059.09
562.448	34294.6
562.647	34011.98
562.846	34145.1
563.045	34216.78
563.244	33825.62
563.443	34292.55
563.642	33549.14
563.841	33938.26
564.04	33721.17
564.239	34126.67
564.438	33528.66
564.637	33491.8
564.836	33819.47
565.035	33131.36
565.234	33418.07
565.432	33524.57
565.631	33252.19
565.83	33284.95
566.029	33151.84
566.228	33125.21
566.427	32648.04
566.625	32858.98
566.824	32760.67
567.023	32971.61
567.222	32379.75
567.42	33024.86
567.619	32777.06
567.818	32396.13
568.016	32326.5
568.215	32944.99
568.414	32535.4
568.612	32668.51
568.811	31986.54
569.01	32545.64
569.208	32027.5
569.407	32553.83
569.605	31886.19
569.804	32529.25
570.002	31894.38
570.201	31787.89
570.4	31773.55
570.598	31495.03
570.797	31116.15
570.995	31800.18
571.193	31230.84
571.392	31787.89
571.59	31400.82
571.789	31400.82
571.987	31275.9
572.186	31277.94
572.384	31024
572.582	31564.66
572.781	31472.5
572.979	30702.46
573.177	30968.7
573.376	31144.83
573.574	30569.35
573.772	30995.32
573.971	30817.15
574.169	30835.58
574.367	30434.18
574.565	30221.19
574.763	30620.55
574.962	30286.73
575.16	30086.03
575.358	30143.37
575.556	29567.89
575.754	30362.5
575.952	29809.55
576.151	29827.98
576.349	29674.38
576.547	29506.45
576.745	29903.76
576.943	29784.97
577.141	29660.05
577.339	29621.14
577.537	29481.88
577.735	29334.42
577.933	29330.33
578.131	29451.16
578.329	29203.35
578.527	29166.49
578.725	29152.15
578.923	28713.89
579.121	28537.76
579.319	28920.73
579.516	28820.38
579.714	28429.22
579.912	28529.57
580.11	28603.3
580.308	28613.54
580.506	28199.85
580.704	28109.74
580.901	28404.64
581.099	28619.68
581.297	27780.01
581.495	28101.54
581.692	28404.64
581.89	27810.73
582.088	28193.7
582.285	27675.57
582.483	28169.13
582.681	27775.92
582.878	27417.52
583.076	27495.35
583.274	27188.15
583.471	27327.41
583.669	27448.24
583.866	27288.5
584.064	27497.39
584.262	26854.33
584.459	27155.38
584.657	26989.5
584.854	27139
585.052	26465.22
585.249	26805.18
585.447	26885.05
585.644	26596.29
585.841	26479.55
586.039	26553.28
586.236	26397.63
586.434	26160.07
586.631	26432.45
586.828	26119.11
587.026	26592.19
587.223	26209.22
587.42	25975.75
587.618	26084.3
587.815	25625.55
588.012	25938.89
588.21	25684.94
588.407	25852.87
588.604	25525.2
588.801	25394.13
588.999	25447.38
589.196	25445.33
589.393	25461.71
589.59	25387.99
589.787	24919
589.984	25101.27
590.182	24978.39
590.379	25199.57
590.576	24863.71
590.773	24996.82
590.97	24708.06
591.167	24775.64
591.364	24464.35
591.561	24624.09
591.758	24007.65
591.955	24507.36
592.152	24822.75
592.349	24476.64
592.546	24151.01
592.743	24333.28
592.94	24003.56
593.137	24245.22
593.334	24142.82
593.531	23759.85
593.727	24075.24
593.924	23663.6
594.121	23739.37
594.318	23548.91
594.515	23364.59
594.712	23800.81
594.908	23389.17
595.105	23661.55
595.302	23198.71
595.499	23221.24
595.696	23251.95
595.892	22868.98
596.089	23043.06
596.286	23262.19
596.482	22516.73
596.679	23000.05
596.876	22924.28
597.072	22932.47
597.269	22645.76
597.466	22672.38
597.662	22428.67
597.859	22711.29
598.055	22582.27
598.252	22277.12
598.448	22522.88
598.645	22203.39
598.841	22240.26
599.038	22144
599.234	21945.35
599.431	22156.29
599.627	21797.9
599.824	21836.81
600.02	21818.38
600.217	21785.61
600.413	21855.24
600.609	21814.28
600.806	21427.21
601.002	21570.57
601.198	21470.22
601.395	21292.05
601.591	21128.21
601.787	21148.69
601.984	21150.74
602.18	21146.64
602.376	21025.81
602.572	20847.64
602.769	21081.11
602.965	20825.11
603.161	20974.61
603.357	20677.66
603.553	20618.27
603.75	20573.21
603.946	20474.91
604.142	20550.68
604.338	20249.63
604.534	20880.41
604.73	20489.24
604.926	20139.04
605.122	20593.69
605.318	20177.95
605.514	20104.23
605.71	20003.88
605.906	20028.45
606.102	20016.16
606.298	19835.94
606.494	19762.22
606.69	19944.49
606.886	19848.23
607.082	19676.2
607.278	19909.67
607.474	19313.71
607.67	19541.04
607.866	19463.21
608.062	19584.04
608.257	19196.98
608.453	19311.66
608.649	19612.71
608.845	19250.22
609.041	19194.93
609.236	19280.94
609.432	18893.88
609.628	19211.31
609.824	18900.02
610.019	18947.12
610.215	19051.57
610.411	18775.09
610.606	19110.96
610.802	18789.43
610.998	18857.01
611.193	18930.74
611.389	18906.16
611.584	18613.31
611.78	18607.16
611.976	18394.17
612.171	18658.36
612.367	18678.84
612.562	18625.59
612.758	18308.16
612.953	18328.64
613.149	18658.36
613.344	18445.37
613.539	18512.95
613.735	18226.24
613.93	18256.96
614.126	18267.2
614.321	18449.47
614.517	18304.06
614.712	18326.59
614.907	18277.44
615.103	18172.99
615.298	18156.61
615.493	17939.52
615.688	17941.57
615.884	18308.16
616.079	17718.34
616.274	17998.91
616.47	17669.19
616.665	18062.4
616.86	17974.34
617.055	17734.73
617.25	17488.97
617.445	17757.25
617.641	17380.43
617.836	17548.36
618.031	17484.87
618.226	17488.97
618.421	17204.3
618.616	17726.53
618.811	17173.58
619.006	17712.2
619.201	17200.21
619.396	17347.66
619.591	16741.46
619.786	17038.42
619.981	16784.47
620.176	17140.82
620.371	16510.04
620.566	16817.24
620.761	16700.5
620.956	16692.31
621.151	16364.64
621.346	16546.9
621.541	16172.13
621.735	16518.23
621.93	16114.78
622.125	16249.95
622.32	15836.26
622.515	15959.14
622.709	15688.81
622.904	15946.85
623.099	15631.46
623.294	16022.62
623.488	15426.67
623.683	15803.49
623.878	15275.12
624.072	15359.08
624.267	15309.93
624.462	15101.04
624.656	14937.2
624.851	15219.82
625.046	14832.75
625.24	15015.02
625.435	14908.53
625.629	14824.56
625.824	14664.82
626.018	14716.02
626.213	14314.62
626.407	14408.83
626.602	14304.38
626.796	14310.52
626.991	14087.29
627.185	14015.62
627.38	14138.49
627.574	13913.22
627.768	13786.24
627.963	13941.89
628.157	13769.86
628.352	13663.36
628.546	13544.58
628.74	13661.32
628.935	13413.51
629.129	13466.76
629.323	13302.92
629.517	13290.63
629.712	13194.38
629.906	13069.45
630.1	13055.12
630.294	12901.52
630.489	12872.85
630.683	12991.63
630.877	12635.28
631.071	12745.87
631.265	12792.98
631.459	12512.41
631.653	12491.93
631.848	12680.34
632.042	12403.86
632.236	12395.67
632.43	12252.31
632.624	12448.92
632.818	12319.9
633.012	12092.57
633.206	12002.46
633.4	11979.93
633.594	11893.92
633.788	11674.79
633.982	11807.91
634.176	11576.48
634.369	11748.51
634.563	11599.01
634.757	11781.28
634.951	11664.55
635.145	11664.55
635.339	11508.9
635.533	11150.51
635.726	11105.45
635.92	11177.13
636.114	11099.31
636.308	11166.89
636.501	11134.12
636.695	11111.6
636.889	10898.61
637.083	10867.89
637.276	10634.42
637.47	10763.44
637.664	10529.97
637.857	10517.68
638.051	10593.46
638.244	10468.53
638.438	10468.53
638.632	10554.55
638.825	10405.05
639.019	10079.42
639.212	10411.19
639.406	10157.24
639.599	10302.65
639.793	9999.55
639.986	9946.3
640.18	10198.2
640.373	9981.12
640.567	9891.01
640.76	9729.22
640.954	9862.33
641.147	9661.63
641.34	9823.42
641.534	9563.33
641.727	9567.43
641.92	9440.45
642.114	9624.77
642.307	9419.97
642.5	9297.1
642.694	9108.68
642.887	9200.84
643.08	9315.53
643.273	9161.93
643.467	9247.94
643.66	9094.35
643.853	9049.29
644.046	8907.98
644.239	8979.66
644.432	8922.32
644.626	9061.58
644.819	8895.69
645.012	8862.93
645.205	8719.57
645.398	8611.03
645.591	8723.66
645.784	8574.16
645.977	8639.7
646.17	8627.41
646.363	8256.73
646.556	8346.84
646.749	8312.02
646.942	8436.95
647.135	8240.34
647.328	8142.04
647.521	8285.4
647.714	8043.74
647.907	8174.81
648.099	8101.08
648.292	8068.31
648.485	8185.05
648.678	8072.41
648.871	8021.21
649.064	7724.26
649.256	7867.61
649.449	7584.99
649.642	7754.97
649.835	7652.58
650.027	7613.67
650.22	7634.14
650.413	7480.55
650.605	7572.71
650.798	7642.34
650.991	7349.48
651.183	7611.62
651.376	7372
651.568	7408.87
651.761	7283.94
651.954	7232.74
652.146	7208.17
652.339	7445.73
652.531	7126.25
652.724	7023.85
652.916	7005.42
653.109	7062.76
653.301	7046.38
653.494	7019.75
653.686	6874.35
653.879	6925.55
654.071	7007.47
654.263	6847.72
654.456	6837.48
654.648	6790.38
654.84	6837.48
655.033	6737.13
655.225	6776.05
655.417	6692.08
655.61	6610.16
655.802	6601.97
655.994	6511.86
656.186	6479.09
656.379	6540.53
656.571	6421.75
656.763	6493.43
656.955	6208.76
657.148	6292.73
657.34	6413.56
657.532	6077.69
657.724	6180.09
657.916	6225.14
658.108	6253.81
658.3	5977.34
658.492	6030.59
658.684	6014.2
658.876	6014.2
659.068	6071.54
659.26	5971.19
659.452	6063.35
659.644	6003.96
659.836	5924.09
660.028	5887.23
660.22	5790.97
660.412	5856.51
660.604	5655.81
660.796	5790.97
660.988	5643.52
661.18	5565.7
661.372	5707.01
661.563	5661.95
661.755	5526.79
661.947	5520.64
662.139	5524.74
662.331	5631.23
662.522	5526.79
662.714	5582.08
662.906	5381.38
663.097	5334.28
663.289	5416.19
663.481	5397.76
663.673	5274.88
663.864	5289.22
664.056	5301.51
664.247	5328.13
664.439	5168.39
664.631	5219.59
664.822	5190.92
665.014	5061.9
665.205	5176.58
665.397	5094.66
665.588	5164.29
665.78	5070.09
665.971	5121.29
666.163	5170.44
666.354	4996.36
666.546	4957.45
666.737	4910.35
666.929	5018.89
667.12	5000.46
667.311	4869.39
667.503	4742.41
667.694	4853
667.885	4879.63
668.077	4781.32
668.268	4797.71
668.459	4740.37
668.651	4709.65
668.842	4721.93
669.033	4646.16
669.224	4648.21
669.416	4738.32
669.607	4744.46
669.798	4476.18
669.989	4695.31
670.18	4594.96
670.371	4668.69
670.563	4353.3
670.754	4535.57
670.945	4416.79
671.136	4539.66
671.327	4345.11
671.518	4537.62
671.709	4435.22
671.9	4472.08
672.091	4488.46
672.282	4439.31
672.473	4347.16
672.664	4398.35
672.855	4422.93
673.046	4404.5
673.237	4394.26
673.428	4298
673.619	4365.59
673.809	4175.13
674	4130.07
674.191	4367.63
674.382	4115.73
674.573	4173.08
674.764	4156.69
674.954	4236.56
675.145	4240.66
675.336	4160.79
675.527	4164.89
675.717	4119.83
675.908	4072.73
676.099	4146.45
676.289	4283.67
676.48	3953.95
676.671	3970.33
676.861	4074.78
677.052	4037.91
677.243	4113.69
677.433	3927.32
677.624	4031.77
677.814	3892.51
678.005	3996.95
678.195	4113.69
678.386	3829.02
678.576	3986.71
678.767	3968.28
678.957	3890.46
679.148	4046.1
679.338	3923.23
679.529	3937.56
679.719	3874.07
679.909	3958.04
680.1	3872.03
680.29	3826.97
680.481	3896.6
680.671	3890.46
680.861	3882.27
681.052	3863.83
681.242	3853.59
681.432	3843.35
681.622	3841.31
681.813	3853.59
682.003	3849.5
682.193	3804.44
682.383	3919.13
682.573	3779.87
682.764	3712.28
682.954	3867.93
683.144	3671.33
683.334	3681.57
683.524	3704.09
683.714	3734.81
683.904	3745.05
684.094	3718.43
684.284	3857.69
684.474	3810.59
684.664	3661.09
684.854	3673.37
685.044	3607.84
685.234	3618.08
685.424	3669.28
685.614	3624.22
685.804	3648.8
685.994	3530.02
686.184	3616.03
686.374	3560.74
686.564	3628.32
686.753	3661.09
686.943	3536.16
687.133	3491.1
687.323	3400.99
687.513	3409.19
687.702	3474.72
687.892	3425.57
688.082	3396.9
688.272	3464.48
688.461	3448.1
688.651	3480.86
688.841	3300.64
689.03	3368.23
689.22	3218.72
689.41	3409.19
689.599	3390.75
689.789	3280.16
689.979	3314.98
690.168	3271.97
690.358	3218.72
690.547	3220.77
690.737	3177.76
690.926	3202.34
691.116	3128.61
691.305	3253.54
691.495	3087.65
691.684	3251.49
691.874	3145
692.063	3134.76
692.252	3153.19
692.442	3015.98
692.631	3169.57
692.82	3056.93
693.01	3009.83
693.199	3013.93
693.388	3003.69
693.578	3093.8
693.767	2981.16
693.956	3003.69
694.146	2952.49
694.335	2960.68
694.524	2811.18
694.713	3140.9
694.902	2940.2
695.092	2972.97
695.281	2915.62
695.47	3011.88
695.659	2811.18
695.848	2923.82
696.037	2716.97
696.226	2884.91
696.415	2827.56
696.604	2854.19
696.793	2817.32
696.982	2805.03
697.171	2860.33
697.36	2796.84
697.549	2735.4
697.738	2671.92
697.927	2759.98
698.116	2868.52
698.305	2841.9
698.494	2893.1
698.683	2882.86
698.872	2729.26
699.061	2903.34
699.25	2727.21
699.438	2702.64
699.627	2714.92
699.816	2747.69
700.005	2778.41
700.193	2669.87
700.382	2669.87
700.571	2630.96
700.76	2686.25
700.948	2620.72
701.137	2694.44
701.326	2645.29
701.514	2530.61
701.703	2766.12
701.892	2665.77
702.08	2731.31
702.269	2755.88
702.457	2643.25
702.646	2633.01
702.834	2583.85
703.023	2628.91
703.212	2628.91
703.4	2665.77
703.589	2721.07
703.777	2573.61
703.965	2569.52
704.154	2612.53
704.342	2633.01
704.531	2608.43
704.719	2579.76
704.907	2571.57
705.096	2708.78
705.284	2542.89
705.472	2497.84
705.661	2495.79
705.849	2620.72
706.037	2651.44
706.226	2522.41
706.414	2546.99
706.602	2436.4
706.79	2489.65
706.979	2585.9
707.167	2501.94
707.355	2559.28
707.543	2645.29
707.731	2628.91
707.919	2559.28
708.107	2360.63
708.296	2661.68
708.484	2524.46
708.672	2479.41
708.86	2403.63
709.048	2495.79
709.236	2475.31
709.424	2499.89
709.612	2553.13
709.8	2405.68
709.988	2608.43
710.176	2565.42
710.364	2411.82
710.551	2546.99
710.739	2477.36
710.927	2483.5
711.115	2567.47
711.303	2526.51
711.491	2442.54
711.679	2526.51
711.866	2585.9
712.054	2436.4
712.242	2448.69
712.43	2536.75
712.617	2366.77
712.805	2526.51
712.993	2342.19
713.181	2354.48
713.368	2444.59
713.556	2387.25
713.744	2336.05
713.931	2489.65
714.119	2413.87
714.306	2477.36
714.494	2465.07
714.682	2338.1
714.869	2366.77
715.057	2278.71
715.244	2409.78
715.432	2372.91
715.619	2426.16
715.807	2315.57
715.994	2336.05
716.182	2327.86
716.369	2399.54
716.556	2254.13
716.744	2440.5
716.931	2409.78
717.119	2432.3
717.306	2198.84
717.493	2358.58
717.681	2430.26
717.868	2315.57
718.055	2243.89
718.242	2254.13
718.43	2311.47
718.617	2575.66
718.804	2293.04
718.991	2350.39
719.179	2358.58
719.366	2321.71
719.553	2190.64
719.74	2377.01
719.927	2276.66
720.114	2223.41
720.301	2137.4
720.488	2254.13
720.676	2383.15
720.863	2268.47
721.05	2235.7
721.237	2336.05
721.424	2198.84
721.611	2303.28
721.798	2204.98
721.985	2252.08
722.172	2176.31
722.358	2204.98
722.545	2223.41
722.732	2198.84
722.919	2276.66
723.106	2278.71
723.293	2368.82
723.48	2387.25
723.667	2245.94
723.853	2262.32
724.04	2286.9
724.227	2252.08
724.414	2254.13
724.6	2266.42
724.787	2241.84
724.974	2247.99
725.161	2178.36
725.347	2235.7
725.534	2280.75
725.72	2280.75
725.907	2196.79
726.094	2098.49
726.28	2250.03
726.467	2268.47
726.653	2116.92
726.84	2247.99
727.027	2293.04
727.213	2178.36
727.4	2239.8
727.586	2243.89
727.773	2174.26
727.959	2293.04
728.145	2149.68
728.332	2092.34
728.518	2121.01
728.705	2204.98
728.891	2164.02
729.077	2299.19
729.264	2096.44
729.45	2268.47
729.636	2217.27
729.823	2188.6
730.009	2213.17
730.195	2366.77
730.382	2227.51
730.568	2149.68
730.754	2164.02
730.94	2211.12
731.126	2116.92
731.313	2270.51
731.499	2202.93
731.685	2264.37
731.871	2141.49
732.057	2188.6
732.243	2129.2
732.429	2215.22
732.615	2211.12
732.801	2104.63
732.987	2043.19
733.173	2073.91
733.359	2035
733.545	2084.15
733.731	1957.18
733.917	2121.01
734.103	2112.82
734.289	2157.88
734.475	2008.37
734.661	2092.34
734.847	2098.49
735.033	2178.36
735.219	2080.05
735.404	2104.63
735.59	2010.42
735.776	2139.44
735.962	1998.13
736.148	2030.9
736.333	2102.58
736.519	2032.95
736.705	2133.3
736.89	2161.97
737.076	2135.35
737.262	2000.18
737.447	1985.85
737.633	1953.08
737.819	2059.57
738.004	2094.39
738.19	1971.51
738.375	2049.33
738.561	2055.48
738.747	1928.5
738.932	2018.61
739.118	2026.81
739.303	2139.44
739.489	2057.53
739.674	1920.31
739.859	2016.57
740.045	1973.56
740.23	2022.71
740.416	1944.89
740.601	1998.13
740.786	1891.64
740.972	2008.37
741.157	2006.33
741.342	1951.03
741.528	1926.46
741.713	1942.84
741.898	1916.22
742.084	1899.83
742.269	1981.75
742.454	1867.06
742.639	1967.42
742.824	1856.83
743.01	2014.52
743.195	1926.46
743.38	1875.26
743.565	1862.97
743.75	1850.68
743.935	1852.73
744.12	1883.45
744.305	1856.83
744.49	1819.96
744.675	1819.96
744.86	1789.24
745.045	1858.87
745.23	1783.1
745.415	1781.05
745.6	1842.49
745.785	1791.29
745.97	1817.91
746.155	1756.47
746.34	1703.23
746.525	1678.65
746.71	1729.85
746.895	1738.04
747.079	1684.8
747.264	1568.06
747.449	1637.69
747.634	1606.97
747.819	1604.92
748.003	1588.54
748.188	1572.16
748.373	1535.29
748.557	1557.82
748.742	1559.87
748.927	1584.45
749.111	1422.66
749.296	1467.71
749.481	1492.29
749.665	1615.16
749.85	1545.53
750.034	1656.12
750.219	1629.5
750.404	1658.17
750.588	1457.47
750.773	1496.38
750.957	1441.09
751.141	1412.42
751.326	1467.71
751.51	1467.71
751.695	1410.37
751.879	1426.75
752.064	1502.53
752.248	1424.7
752.432	1428.8
752.617	1342.78
752.801	1400.13
752.985	1469.76
753.17	1369.41
753.354	1428.8
753.538	1391.94
753.722	1287.49
753.907	1287.49
754.091	1375.55
754.275	1334.59
754.459	1244.48
754.643	1197.38
754.828	1279.3
755.012	1316.16
755.196	1203.52
755.38	1293.63
755.564	1178.95
755.748	1183.04
755.932	1244.48
756.116	1189.19
756.3	1301.83
756.484	1211.71
756.668	1211.71
756.852	1226.05
757.036	1123.65
757.22	1203.52
757.404	1068.36
757.588	1189.19
757.772	1260.87
757.956	1150.28
758.14	1271.11
758.323	1066.31
758.507	1088.84
758.691	1115.46
758.875	1082.69
759.059	1150.28
759.242	1045.83
759.426	1031.49
759.61	1072.45
759.794	1047.88
759.977	1078.6
760.161	1119.56
760.345	1025.35
760.528	1049.93
760.712	1058.12
760.895	1107.27
761.079	1051.97
761.263	959.81
761.446	957.77
761.63	1015.11
761.813	1049.93
761.997	941.38
762.18	968.01
762.364	1066.31
762.547	886.09
762.731	1006.92
762.914	927.05
763.098	978.25
763.281	945.48
763.464	953.67
763.648	916.81
763.831	877.9
764.015	892.23
764.198	978.25
764.381	900.42
764.564	906.57
764.748	959.81
764.931	892.23
765.114	892.23
765.297	894.28
765.481	922.95
765.664	838.98
765.847	871.75
766.03	916.81
766.213	802.12
766.397	843.08
766.58	802.12
766.763	896.33
766.946	802.12
767.129	869.7
767.312	871.75
767.495	771.4
767.678	744.78
767.861	832.84
768.044	820.55
768.227	843.08
768.41	783.69
768.593	877.9
768.776	804.17
768.959	773.45
769.142	859.46
769.324	841.03
769.507	802.12
769.69	798.03
769.873	746.83
770.056	838.98
770.239	748.87
770.421	804.17
770.604	900.42
770.787	785.74
770.97	761.16
771.152	798.03
771.335	765.26
771.518	658.76
771.7	712.01
771.883	759.11
772.066	648.52
772.248	744.78
772.431	705.87
772.613	752.97
772.796	795.98
772.978	673.1
773.161	681.29
773.343	740.68
773.526	699.72
773.708	632.14
773.891	658.76
774.073	644.43
774.256	660.81
774.438	691.53
774.621	570.7
774.803	683.34
774.985	662.86
775.168	703.82
775.35	673.1
775.532	644.43
775.715	638.28
775.897	638.28
776.079	607.56
776.261	619.85
776.444	619.85
776.626	517.45
776.808	572.75
776.99	548.17
777.173	589.13
777.355	593.23
777.537	591.18
777.719	654.67
777.901	537.93
778.083	640.33
778.265	564.56
778.447	660.81
778.629	539.98
778.811	617.8
778.993	589.13
779.175	492.88
779.357	564.56
779.539	474.45
779.721	505.17
779.903	595.28
780.085	548.17
780.267	529.74
780.449	521.55
780.631	548.17
780.812	566.6
780.994	425.29
781.176	527.69
781.358	441.68
781.54	535.89
781.721	400.72
781.903	539.98
782.085	456.01
782.267	443.73
782.448	435.53
782.63	499.02
782.812	398.67
782.993	486.73
783.175	458.06
783.357	367.95
783.538	474.45
783.72	523.6
783.901	460.11
784.083	417.1
784.264	476.49
784.446	437.58
784.627	443.73
784.809	400.72
784.99	372.05
785.172	402.77
785.353	372.05
785.535	408.91
785.716	419.15
785.897	339.28
786.079	398.67
786.26	337.23
786.441	318.8
786.623	402.77
786.804	413.01
786.985	435.53
787.167	329.04
787.348	392.53
787.529	386.38
787.71	437.58
787.891	398.67
788.073	288.08
788.254	347.47
788.435	408.91
788.616	275.79
788.797	306.51
788.978	380.24
789.159	290.13
789.34	286.03
789.522	255.31
789.703	384.34
789.884	318.8
790.065	331.09
790.246	310.61
790.427	324.94
790.607	286.03
790.788	331.09
790.969	294.22
791.15	230.74
791.331	331.09
791.512	271.7
791.693	247.12
791.874	294.22
792.054	396.62
792.235	302.42
792.416	267.6
792.597	277.84
792.778	318.8
792.958	326.99
793.139	312.66
793.32	320.85
793.5	236.88
793.681	296.27
793.862	273.75
794.042	257.36
794.223	195.92
794.404	306.51
794.584	148.82
794.765	212.31
794.945	230.74
795.126	312.66
795.306	292.18
795.487	230.74
795.667	279.89
795.848	261.46
796.028	245.07
796.209	245.07
796.389	302.42
796.57	320.85
796.75	197.97
796.93	197.97
797.111	238.93
797.291	310.61
797.471	286.03
797.652	228.69
797.832	216.4
798.012	234.83
798.192	179.54
798.373	183.63
798.553	216.4
798.733	298.32
798.913	179.54
799.093	212.31
799.274	249.17
799.454	249.17
799.634	208.21
799.814	228.69
799.994	193.87
800.174	204.11
800.354	220.5
800.534	204.11
800.714	251.22
800.894	220.5
801.074	195.92
801.254	195.92
801.434	253.27
801.614	214.35
801.794	159.06
801.974	804.17
802.154	236.88
802.334	202.07
802.514	232.79
802.693	224.59
802.873	189.78
803.053	255.31
803.233	126.29
803.413	197.97
803.592	189.78
803.772	157.01
803.952	220.5
804.131	195.92
804.311	197.97
804.491	281.94
804.67	116.05
804.85	154.96
805.03	228.69
805.209	167.25
805.389	138.58
805.568	187.73
805.748	195.92
805.928	187.73
806.107	197.97
806.287	134.48
806.466	146.77
806.646	122.2
806.825	163.15
807.004	118.1
807.184	224.59
807.363	157.01
807.543	146.77
807.722	120.15
807.901	255.31
808.081	124.24
808.26	118.1
808.439	124.24
808.619	212.31
808.798	130.39
808.977	150.87
809.156	171.35
809.336	130.39
809.515	212.31
809.694	124.24
809.873	97.62
810.052	116.05
810.231	193.87
810.411	154.96
810.59	148.82
810.769	189.78
810.948	191.83
811.127	89.43
811.306	146.77
811.485	44.37
811.664	206.16
811.843	116.05
812.022	212.31
812.201	114
812.38	173.39
812.559	171.35
812.737	163.15
812.916	118.1
813.095	107.86
813.274	177.49
813.453	120.15
813.632	189.78
813.811	159.06
813.989	11.61
814.168	179.54
814.347	68.95
814.526	179.54
814.704	48.47
814.883	189.78
815.062	83.28
815.24	130.39
815.419	52.56
815.598	154.96
815.776	46.42
815.955	126.29
816.133	15.7
816.312	114
816.49	99.67
816.669	81.24
816.847	138.58
817.026	171.35
817.204	111.96
817.383	64.85
817.561	85.33
817.74	150.87
817.918	97.62
818.097	157.01
818.275	148.82
818.453	50.52
818.632	17.75
818.81	134.48
818.988	103.76
819.167	50.52
819.345	58.71
819.523	130.39
819.701	105.81
819.879	109.91
820.058	40.28
820.236	148.82
820.414	83.28
820.592	60.76
820.77	107.86
820.948	60.76
821.127	150.87
821.305	134.48
821.483	103.76
821.661	124.24
821.839	50.52
822.017	105.81
822.195	75.09
822.373	150.87
822.551	60.76
822.729	81.24
822.907	93.52
823.085	154.96
823.262	40.28
823.44	87.38
823.618	134.48
823.796	146.77
823.974	85.33
824.152	150.87
824.329	64.85
824.507	81.24
824.685	97.62
824.863	126.29
825.04	134.48
825.218	34.13
825.396	85.33
825.574	144.72
825.751	134.48
825.929	21.85
826.107	58.71
826.284	40.28
826.462	48.47
826.639	34.13
826.817	27.99
826.994	107.86
827.172	48.47
827.349	130.39
827.527	73.04
827.704	89.43
827.882	73.04
828.059	77.14
828.237	23.89
828.414	177.49
828.591	44.37
828.769	101.72
828.946	99.67
829.124	103.76
829.301	62.8
829.478	81.24
829.655	140.63
829.833	5.46
830.01	83.28
830.187	114
830.364	21.85
830.542	134.48
830.719	81.24
830.896	64.85
831.073	40.28
831.25	81.24
831.427	62.8
831.604	1.37
831.782	81.24
831.959	89.43
832.136	114
832.313	64.85
832.49	64.85
832.667	101.72
832.844	11.61
833.021	183.63
833.198	44.37
833.374	73.04
833.551	21.85
833.728	56.66
833.905	83.28
834.082	7.51
834.259	62.8
834.436	120.15
834.612	91.48
834.789	23.89
834.966	54.61
835.143	95.57
835.319	7.51
835.496	44.37
835.673	114
835.85	56.66
836.026	103.76
836.203	73.04
836.38	79.19
836.556	58.71
836.733	75.09
836.909	75.09
837.086	157.01
837.262	-17.07
837.439	101.72
837.616	36.18
837.792	93.52
837.968	81.24
838.145	-15.02
838.321	36.18
838.498	91.48
838.674	50.52
838.851	97.62
839.027	27.99
839.203	64.85
839.38	40.28
839.556	56.66
839.732	-29.35
839.909	101.72
840.085	73.04
840.261	54.61
840.437	40.28
840.614	15.7
840.79	52.56
840.966	136.53
841.142	89.43
841.318	79.19
841.494	1.37
841.671	58.71
841.847	27.99
842.023	-6.83
842.199	79.19
842.375	36.18
842.551	73.04
842.727	-39.59
842.903	81.24
843.079	105.81
843.255	64.85
843.431	-6.83
843.607	97.62
843.783	40.28
843.959	56.66
844.134	87.38
844.31	73.04
844.486	1.37
844.662	89.43
844.838	23.89
845.013	97.62
845.189	68.95
845.365	38.23
845.541	50.52
845.716	64.85
845.892	11.61
846.068	48.47
846.244	93.52
846.419	68.95
846.595	23.89
846.77	105.81
846.946	93.52
847.122	87.38
847.297	9.56
847.473	32.08
847.648	11.61
847.824	34.13
847.999	-12.97
848.175	73.04
848.35	-41.64
848.526	146.77
848.701	103.76
848.876	40.28
849.052	107.86
849.227	40.28
849.403	-41.64
849.578	89.43
849.753	71
849.929	56.66
850.104	15.7
850.279	75.09
850.454	54.61
850.63	48.47
850.805	40.28
850.98	58.71
851.155	73.04
851.33	85.33
851.505	52.56
851.681	44.37
851.856	7.51
852.031	46.42
852.206	23.89
852.381	-25.26
852.556	3.41
852.731	25.94
852.906	66.9
853.081	-8.87
853.256	38.23
853.431	19.8
853.606	62.8
853.781	7.51
853.956	-12.97
854.131	15.7
854.305	-4.78
854.48	79.19
854.655	-2.73
854.83	-15.02
855.005	38.23
855.18	25.94
855.354	-6.83
855.529	56.66
855.704	48.47
855.879	34.13
856.053	73.04
856.228	73.04
856.403	36.18
856.577	91.48
856.752	-6.83
856.926	-0.68
857.101	77.14
857.276	-17.07
857.45	40.28
857.625	64.85
857.799	50.52
857.974	19.8
858.148	9.56
858.323	68.95
858.497	50.52
858.672	-0.68
858.846	-92.84
859.02	99.67
859.195	-10.92
859.369	-0.68
859.543	89.43
859.718	52.56
859.892	56.66
860.066	17.75
860.241	42.32
860.415	71
860.589	1.37
860.763	23.89
860.938	19.8
861.112	56.66
861.286	56.66
861.46	-15.02
861.634	71
861.808	27.99
861.982	-12.97
862.157	-33.45
862.331	34.13
862.505	-43.69
862.679	-49.83
862.853	17.75
863.027	-25.26
863.201	91.48
863.375	-10.92
863.549	46.42
863.722	17.75
863.896	71
864.07	-12.97
864.244	-0.68
864.418	48.47
864.592	56.66
864.766	5.46
864.939	118.1
865.113	-17.07
865.287	32.08
865.461	48.47
865.634	32.08
865.808	50.52
865.982	-12.97
866.156	13.65
866.329	34.13
866.503	42.32
866.676	75.09
866.85	-70.31
867.024	93.52
867.197	15.7
867.371	89.43
867.544	32.08
867.718	15.7
867.891	15.7
868.065	-2.73
868.238	81.24
868.412	-8.87
868.585	-25.26
868.759	11.61
868.932	-21.16
869.105	1.37
869.279	56.66
869.452	-39.59
869.625	60.76
869.799	44.37
869.972	-17.07
870.145	25.94
870.319	23.89
870.492	-4.78
870.665	-17.07
870.838	-39.59
871.011	3.41
871.185	66.9
871.358	-53.93
871.531	93.52
871.704	73.04
871.877	66.9
872.05	-10.92
872.223	-66.22
872.396	32.08
872.569	15.7
872.742	34.13
872.915	-8.87
873.088	25.94
873.261	7.51
873.434	56.66
873.607	68.95
873.78	-4.78
873.953	42.32
874.126	-8.87
874.299	75.09
874.471	-31.4
874.644	-55.98
874.817	25.94
874.99	68.95
875.163	-8.87
875.335	46.42
875.508	-29.35
875.681	101.72
875.853	-21.16
876.026	-2.73
876.199	1.37
876.371	42.32
876.544	56.66
876.717	32.08
876.889	87.38
877.062	105.81
877.234	42.32
877.407	9.56
877.579	-55.98
877.752	-6.83
877.924	64.85
878.097	15.7
878.269	-17.07
878.442	-2.73
878.614	-21.16
878.786	52.56
878.959	1.37
879.131	-8.87
879.303	-29.35
879.476	-29.35
879.648	132.44
879.82	-6.83
879.993	-29.35
880.165	11.61
880.337	-12.97
880.509	-17.07
880.681	7.51
880.854	32.08
881.026	99.67
881.198	73.04
881.37	64.85
881.542	15.7
881.714	-35.5
881.886	32.08
882.058	-4.78
882.23	1.37
882.402	-10.92
882.574	27.99
882.746	-15.02
882.918	-25.26
883.09	-4.78
883.262	27.99
883.434	-23.21
883.606	-17.07
883.778	27.99
883.95	34.13
884.122	-45.74
884.293	38.23
884.465	-6.83
884.637	48.47
884.809	-33.45
884.98	-12.97
885.152	40.28
885.324	7.51
885.496	-6.83
885.667	40.28
885.839	-25.26
886.011	40.28
886.182	-8.87
886.354	1.37
886.525	52.56
886.697	3.41
886.869	-12.97
887.04	25.94
887.212	11.61
887.383	17.75
887.555	17.75
887.726	40.28
887.897	-21.16
888.069	44.37
888.24	17.75
888.412	-17.07
888.583	-0.68
888.754	-17.07
888.926	-78.51
889.097	-12.97
889.268	-41.64
889.44	-0.68
889.611	-0.68
889.782	-23.21
889.953	11.61
890.125	75.09
890.296	-74.41
890.467	9.56
890.638	36.18
890.809	-31.4
890.98	60.76
891.151	40.28
891.323	7.51
891.494	38.23
891.665	56.66
891.836	-33.45
892.007	40.28
892.178	40.28
892.349	36.18
892.52	-58.03
892.691	79.19
892.862	48.47
893.032	-58.03
893.203	83.28
893.374	17.75
893.545	40.28
893.716	52.56
893.887	-4.78
894.057	5.46
894.228	42.32
894.399	-47.79
894.57	50.52
894.74	23.89
894.911	-8.87
895.082	-49.83
895.253	19.8
895.423	-74.41
895.594	48.47
895.764	15.7
895.935	-12.97
896.106	-39.59
896.276	34.13
896.447	66.9
896.617	25.94
896.788	23.89
896.958	-8.87
897.129	44.37
897.299	-8.87
897.47	30.04
897.64	17.75
897.81	-55.98
897.981	73.04
898.151	13.65
898.322	9.56
898.492	-15.02
898.662	23.89
898.832	-4.78
899.003	-25.26
899.173	-31.4
899.343	-25.26
899.513	-53.93
