Data from USB4F104151__162__14-19-42-503.txt Node

Date: Thu Mar 13 14:19:42 EDT 2025
User: louis
Spectrometer: USB4F10415
Trigger mode: 4
Integration Time (sec): 2.000000E-2
Scans to average: 1
Electric dark correction enabled: true
Nonlinearity correction enabled: false
Boxcar width: 0
XAxis mode: Wavelengths
Number of Pixels in Spectrum: 3648
>>>>>Begin Spectral Data<<<<<
178.204	-68.95
178.424	-68.95
178.644	-68.95
178.864	-97.62
179.084	-81.24
179.304	-38.23
179.524	17.07
179.744	45.74
179.964	-11.61
180.184	4.78
180.404	-23.89
180.624	-7.51
180.844	-27.99
181.064	-7.51
181.283	2.73
181.503	-3.41
181.723	49.83
181.943	-46.42
182.163	37.55
182.383	-3.41
182.602	68.27
182.822	-3.41
183.042	12.97
183.262	23.21
183.482	64.17
183.701	-27.99
183.921	31.4
184.141	-79.19
184.361	74.41
184.58	-73.04
184.8	15.02
185.02	-15.7
185.239	2.73
185.459	-32.08
185.679	29.35
185.898	-46.42
186.118	74.41
186.338	19.11
186.557	17.07
186.777	76.46
186.997	23.21
187.216	-15.7
187.436	74.41
187.655	49.83
187.875	74.41
188.095	51.88
188.314	49.83
188.534	4.78
188.753	45.74
188.973	53.93
189.192	53.93
189.412	29.35
189.631	17.07
189.851	8.87
190.07	29.35
190.29	25.26
190.509	21.16
190.729	25.26
190.948	2.73
191.168	178.86
191.387	43.69
191.607	15.02
191.826	4.78
192.045	17.07
192.265	19.11
192.484	-58.71
192.704	-1.37
192.923	29.35
193.142	17.07
193.362	37.55
193.581	33.45
193.8	-25.94
194.02	-38.23
194.239	-40.28
194.458	8.87
194.678	-30.04
194.897	86.7
195.116	51.88
195.335	-7.51
195.555	23.21
195.774	51.88
195.993	-3.41
196.212	21.16
196.432	29.35
196.651	33.45
196.87	8.87
197.089	43.69
197.308	4.78
197.528	-3.41
197.747	29.35
197.966	15.02
198.185	41.64
198.404	-30.04
198.623	84.65
198.842	10.92
199.062	8.87
199.281	107.18
199.5	-21.85
199.719	62.12
199.938	8.87
200.157	45.74
200.376	-15.7
200.595	98.99
200.814	68.27
201.033	33.45
201.252	35.5
201.471	47.79
201.69	37.55
201.909	-9.56
202.128	-23.89
202.347	10.92
202.566	58.03
202.785	49.83
203.004	27.31
203.223	82.6
203.442	-64.85
203.661	74.41
203.879	74.41
204.098	137.9
204.317	-1.37
204.536	41.64
204.755	43.69
204.974	117.42
205.193	15.02
205.411	107.18
205.63	41.64
205.849	58.03
206.068	-27.99
206.287	4.78
206.505	101.03
206.724	84.65
206.943	0.68
207.162	15.02
207.381	-15.7
207.599	45.74
207.818	43.69
208.037	27.31
208.255	25.26
208.474	-5.46
208.693	66.22
208.911	55.98
209.13	82.6
209.349	98.99
209.567	33.45
209.786	43.69
210.005	103.08
210.223	43.69
210.442	4.78
210.661	25.26
210.879	41.64
211.098	-32.08
211.316	82.6
211.535	146.09
211.753	-11.61
211.972	60.07
212.191	51.88
212.409	49.83
212.628	-13.65
212.846	-3.41
213.065	60.07
213.283	37.55
213.502	8.87
213.72	43.69
213.938	17.07
214.157	-36.18
214.375	107.18
214.594	-25.94
214.812	27.31
215.031	74.41
215.249	25.26
215.467	51.88
215.686	35.5
215.904	8.87
216.122	70.31
216.341	53.93
216.559	62.12
216.778	90.79
216.996	74.41
217.214	74.41
217.432	21.16
217.651	-21.85
217.869	8.87
218.087	37.55
218.306	10.92
218.524	17.07
218.742	94.89
218.96	76.46
219.179	58.03
219.397	119.46
219.615	137.9
219.833	29.35
220.051	-52.56
220.27	51.88
220.488	66.22
220.706	27.31
220.924	41.64
221.142	49.83
221.36	33.45
221.578	17.07
221.796	-15.7
222.015	33.45
222.233	-15.7
222.451	119.46
222.669	-11.61
222.887	164.52
223.105	101.03
223.323	-79.19
223.541	-52.56
223.759	41.64
223.977	-15.7
224.195	58.03
224.413	64.17
224.631	17.07
224.849	58.03
225.067	-13.65
225.285	49.83
225.503	60.07
225.721	-23.89
225.939	-7.51
226.157	74.41
226.375	4.78
226.592	2.73
226.81	62.12
227.028	74.41
227.246	113.32
227.464	53.93
227.682	103.08
227.9	-9.56
228.117	10.92
228.335	8.87
228.553	2.73
228.771	49.83
228.989	-7.51
229.206	10.92
229.424	84.65
229.642	25.26
229.86	21.16
230.077	-7.51
230.295	41.64
230.513	78.51
230.731	68.27
230.948	45.74
231.166	49.83
231.384	33.45
231.601	58.03
231.819	66.22
232.037	4.78
232.254	-7.51
232.472	-19.8
232.689	0.68
232.907	74.41
233.125	-3.41
233.342	-30.04
233.56	-48.47
233.777	-5.46
233.995	60.07
234.213	25.26
234.43	70.31
234.648	29.35
234.865	-34.13
235.083	74.41
235.3	41.64
235.518	49.83
235.735	37.55
235.953	41.64
236.17	-21.85
236.388	17.07
236.605	33.45
236.822	70.31
237.04	8.87
237.257	49.83
237.475	-7.51
237.692	39.59
237.909	29.35
238.127	68.27
238.344	-3.41
238.562	45.74
238.779	-15.7
238.996	-64.85
239.214	29.35
239.431	-38.23
239.648	49.83
239.865	47.79
240.083	-13.65
240.3	58.03
240.517	-32.08
240.735	10.92
240.952	39.59
241.169	43.69
241.386	12.97
241.603	51.88
241.821	37.55
242.038	17.07
242.255	21.16
242.472	-48.47
242.689	-13.65
242.907	10.92
243.124	111.27
243.341	23.21
243.558	64.17
243.775	10.92
243.992	60.07
244.209	21.16
244.426	23.21
244.643	117.42
244.86	-3.41
245.078	58.03
245.295	90.79
245.512	0.68
245.729	-1.37
245.946	23.21
246.163	45.74
246.38	-32.08
246.597	90.79
246.814	2.73
247.031	41.64
247.248	-15.7
247.464	12.97
247.681	17.07
247.898	96.94
248.115	82.6
248.332	-21.85
248.549	-15.7
248.766	74.41
248.983	84.65
249.2	6.83
249.417	60.07
249.633	53.93
249.85	96.94
250.067	-25.94
250.284	-30.04
250.501	39.59
250.717	21.16
250.934	6.83
251.151	76.46
251.368	86.7
251.585	37.55
251.801	0.68
252.018	19.11
252.235	43.69
252.451	37.55
252.668	29.35
252.885	55.98
253.102	0.68
253.318	-19.8
253.535	10.92
253.752	58.03
253.968	-3.41
254.185	6.83
254.401	70.31
254.618	72.36
254.835	12.97
255.051	43.69
255.268	35.5
255.484	49.83
255.701	41.64
255.917	0.68
256.134	0.68
256.351	25.26
256.567	10.92
256.784	-19.8
257	35.5
257.217	92.84
257.433	62.12
257.65	45.74
257.866	60.07
258.082	-36.18
258.299	15.02
258.515	76.46
258.732	-9.56
258.948	25.26
259.165	25.26
259.381	-38.23
259.597	35.5
259.814	43.69
260.03	6.83
260.246	45.74
260.463	72.36
260.679	-3.41
260.895	70.31
261.112	27.31
261.328	2.73
261.544	131.75
261.761	41.64
261.977	51.88
262.193	76.46
262.409	-13.65
262.626	0.68
262.842	41.64
263.058	33.45
263.274	66.22
263.49	0.68
263.707	2.73
263.923	-5.46
264.139	-23.89
264.355	-1.37
264.571	90.79
264.787	84.65
265.004	55.98
265.22	10.92
265.436	76.46
265.652	-27.99
265.868	-9.56
266.084	-3.41
266.3	51.88
266.516	12.97
266.732	6.83
266.948	117.42
267.164	0.68
267.38	25.26
267.596	29.35
267.812	70.31
268.028	17.07
268.244	-13.65
268.46	76.46
268.676	107.18
268.892	82.6
269.108	-23.89
269.324	21.16
269.54	55.98
269.756	76.46
269.972	23.21
270.188	-30.04
270.403	4.78
270.619	35.5
270.835	15.02
271.051	58.03
271.267	23.21
271.483	-32.08
271.698	41.64
271.914	98.99
272.13	4.78
272.346	51.88
272.562	68.27
272.777	31.4
272.993	58.03
273.209	-11.61
273.425	82.6
273.64	33.45
273.856	51.88
274.072	27.31
274.287	43.69
274.503	119.46
274.719	115.37
274.934	29.35
275.15	-21.85
275.366	19.11
275.581	43.69
275.797	37.55
276.012	25.26
276.228	-1.37
276.444	33.45
276.659	68.27
276.875	29.35
277.09	4.78
277.306	19.11
277.521	25.26
277.737	45.74
277.952	82.6
278.168	49.83
278.383	62.12
278.599	17.07
278.814	47.79
279.03	17.07
279.245	47.79
279.461	29.35
279.676	10.92
279.892	-5.46
280.107	127.66
280.322	25.26
280.538	76.46
280.753	45.74
280.969	-15.7
281.184	82.6
281.399	129.7
281.615	68.27
281.83	-34.13
282.045	-9.56
282.26	82.6
282.476	-5.46
282.691	74.41
282.906	41.64
283.122	17.07
283.337	29.35
283.552	51.88
283.767	10.92
283.983	74.41
284.198	74.41
284.413	10.92
284.628	17.07
284.843	78.51
285.058	80.55
285.274	-42.32
285.489	53.93
285.704	98.99
285.919	-19.8
286.134	53.93
286.349	8.87
286.564	62.12
286.779	92.84
286.995	66.22
287.21	-21.85
287.425	92.84
287.64	53.93
287.855	58.03
288.07	-40.28
288.285	49.83
288.5	19.11
288.715	55.98
288.93	4.78
289.145	29.35
289.36	135.85
289.575	41.64
289.79	43.69
290.004	-7.51
290.219	37.55
290.434	84.65
290.649	58.03
290.864	49.83
291.079	53.93
291.294	-23.89
291.509	-9.56
291.724	55.98
291.938	8.87
292.153	43.69
292.368	-11.61
292.583	27.31
292.798	-7.51
293.012	6.83
293.227	86.7
293.442	8.87
293.657	17.07
293.871	117.42
294.086	17.07
294.301	45.74
294.516	70.31
294.73	123.56
294.945	12.97
295.16	98.99
295.374	90.79
295.589	8.87
295.804	0.68
296.018	17.07
296.233	115.37
296.447	53.93
296.662	115.37
296.877	92.84
297.091	35.5
297.306	80.55
297.52	58.03
297.735	37.55
297.949	-7.51
298.164	70.31
298.378	74.41
298.593	29.35
298.807	2.73
299.022	74.41
299.236	33.45
299.451	35.5
299.665	58.03
299.88	74.41
300.094	66.22
300.309	25.26
300.523	107.18
300.737	-5.46
300.952	15.02
301.166	86.7
301.381	0.68
301.595	-11.61
301.809	21.16
302.024	23.21
302.238	43.69
302.452	84.65
302.667	2.73
302.881	25.26
303.095	21.16
303.309	27.31
303.524	29.35
303.738	-32.08
303.952	10.92
304.166	19.11
304.381	19.11
304.595	78.51
304.809	41.64
305.023	58.03
305.237	90.79
305.452	55.98
305.666	33.45
305.88	45.74
306.094	53.93
306.308	-13.65
306.522	25.26
306.736	123.56
306.95	33.45
307.164	53.93
307.379	10.92
307.593	25.26
307.807	70.31
308.021	66.22
308.235	33.45
308.449	-3.41
308.663	51.88
308.877	121.51
309.091	62.12
309.305	25.26
309.519	0.68
309.733	101.03
309.947	58.03
310.161	72.36
310.374	72.36
310.588	58.03
310.802	33.45
311.016	0.68
311.23	51.88
311.444	49.83
311.658	12.97
311.872	119.46
312.085	66.22
312.299	113.32
312.513	78.51
312.727	111.27
312.941	62.12
313.154	-3.41
313.368	31.4
313.582	27.31
313.796	-23.89
314.009	68.27
314.223	98.99
314.437	17.07
314.651	21.16
314.864	-17.75
315.078	74.41
315.292	-11.61
315.505	21.16
315.719	-19.8
315.933	37.55
316.146	80.55
316.36	-3.41
316.573	53.93
316.787	35.5
317.001	141.99
317.214	29.35
317.428	86.7
317.641	12.97
317.855	78.51
318.068	10.92
318.282	66.22
318.495	78.51
318.709	33.45
318.922	86.7
319.136	-7.51
319.349	58.03
319.563	4.78
319.776	150.18
319.99	27.31
320.203	-7.51
320.417	109.22
320.63	-38.23
320.843	74.41
321.057	86.7
321.27	21.16
321.483	12.97
321.697	53.93
321.91	19.11
322.124	23.21
322.337	-7.51
322.55	4.78
322.763	86.7
322.977	37.55
323.19	-7.51
323.403	58.03
323.617	-34.13
323.83	68.27
324.043	-36.18
324.256	90.79
324.469	49.83
324.683	90.79
324.896	66.22
325.109	19.11
325.322	-81.24
325.535	51.88
325.748	58.03
325.962	-5.46
326.175	49.83
326.388	66.22
326.601	17.07
326.814	164.52
327.027	98.99
327.24	37.55
327.453	-64.85
327.666	68.27
327.879	58.03
328.092	27.31
328.305	90.79
328.518	21.16
328.731	31.4
328.944	49.83
329.157	31.4
329.37	92.84
329.583	137.9
329.796	31.4
330.009	72.36
330.222	74.41
330.435	39.59
330.648	41.64
330.861	4.78
331.073	17.07
331.286	74.41
331.499	29.35
331.712	41.64
331.925	17.07
332.138	62.12
332.35	55.98
332.563	19.11
332.776	66.22
332.989	8.87
333.202	66.22
333.414	6.83
333.627	33.45
333.84	76.46
334.053	-25.94
334.265	8.87
334.478	-13.65
334.691	-21.85
334.903	53.93
335.116	-42.32
335.329	12.97
335.541	51.88
335.754	43.69
335.966	21.16
336.179	-11.61
336.392	29.35
336.604	-13.65
336.817	12.97
337.029	62.12
337.242	-3.41
337.454	41.64
337.667	49.83
337.88	58.03
338.092	105.13
338.305	127.66
338.517	25.26
338.729	78.51
338.942	131.75
339.154	60.07
339.367	98.99
339.579	82.6
339.792	27.31
340.004	33.45
340.217	107.18
340.429	-17.75
340.641	25.26
340.854	55.98
341.066	-19.8
341.278	51.88
341.491	82.6
341.703	37.55
341.915	66.22
342.128	58.03
342.34	51.88
342.552	25.26
342.764	60.07
342.977	33.45
343.189	141.99
343.401	74.41
343.613	37.55
343.826	43.69
344.038	-11.61
344.25	-15.7
344.462	17.07
344.674	33.45
344.886	6.83
345.099	58.03
345.311	49.83
345.523	55.98
345.735	6.83
345.947	111.27
346.159	125.61
346.371	-15.7
346.583	19.11
346.795	117.42
347.007	90.79
347.219	60.07
347.431	60.07
347.643	41.64
347.855	60.07
348.067	88.75
348.279	0.68
348.491	76.46
348.703	21.16
348.915	27.31
349.127	94.89
349.339	150.18
349.551	47.79
349.763	74.41
349.975	92.84
350.187	158.38
350.399	2.73
350.61	37.55
350.822	47.79
351.034	43.69
351.246	25.26
351.458	78.51
351.669	25.26
351.881	103.08
352.093	49.83
352.305	12.97
352.517	27.31
352.728	94.89
352.94	115.37
353.152	90.79
353.363	17.07
353.575	-23.89
353.787	107.18
353.999	109.22
354.21	31.4
354.422	8.87
354.633	94.89
354.845	90.79
355.057	53.93
355.268	33.45
355.48	98.99
355.692	-17.75
355.903	12.97
356.115	12.97
356.326	33.45
356.538	58.03
356.749	17.07
356.961	127.66
357.172	105.13
357.384	74.41
357.595	119.46
357.807	23.21
358.018	49.83
358.23	49.83
358.441	103.08
358.653	70.31
358.864	68.27
359.075	115.37
359.287	10.92
359.498	58.03
359.709	84.65
359.921	80.55
360.132	90.79
360.344	94.89
360.555	51.88
360.766	29.35
360.977	74.41
361.189	8.87
361.4	47.79
361.611	107.18
361.823	82.6
362.034	72.36
362.245	33.45
362.456	98.99
362.667	84.65
362.879	64.17
363.09	0.68
363.301	123.56
363.512	-36.18
363.723	-15.7
363.935	-34.13
364.146	117.42
364.357	29.35
364.568	78.51
364.779	0.68
364.99	90.79
365.201	-1.37
365.412	127.66
365.623	-5.46
365.834	35.5
366.045	101.03
366.256	68.27
366.467	66.22
366.678	74.41
366.889	-7.51
367.1	35.5
367.311	123.56
367.522	4.78
367.733	33.45
367.944	90.79
368.155	-9.56
368.366	49.83
368.577	60.07
368.788	74.41
368.999	90.79
369.209	88.75
369.42	107.18
369.631	144.04
369.842	41.64
370.053	43.69
370.264	33.45
370.474	115.37
370.685	39.59
370.896	49.83
371.107	74.41
371.317	98.99
371.528	49.83
371.739	60.07
371.95	111.27
372.16	55.98
372.371	25.26
372.582	70.31
372.792	125.61
373.003	74.41
373.214	98.99
373.424	78.51
373.635	76.46
373.846	19.11
374.056	66.22
374.267	66.22
374.477	21.16
374.688	103.08
374.898	41.64
375.109	86.7
375.319	10.92
375.53	168.62
375.74	17.07
375.951	115.37
376.161	-32.08
376.372	58.03
376.582	78.51
376.793	49.83
377.003	-7.51
377.214	98.99
377.424	58.03
377.635	25.26
377.845	45.74
378.055	76.46
378.266	-7.51
378.476	29.35
378.686	111.27
378.897	92.84
379.107	64.17
379.317	66.22
379.528	94.89
379.738	-13.65
379.948	51.88
380.158	117.42
380.369	74.41
380.579	111.27
380.789	2.73
380.999	68.27
381.21	33.45
381.42	8.87
381.63	125.61
381.84	45.74
382.05	31.4
382.261	117.42
382.471	125.61
382.681	45.74
382.891	148.14
383.101	101.03
383.311	17.07
383.521	0.68
383.731	131.75
383.941	49.83
384.151	139.94
384.361	51.88
384.571	72.36
384.781	107.18
384.991	96.94
385.201	135.85
385.411	92.84
385.621	92.84
385.831	90.79
386.041	94.89
386.251	70.31
386.461	139.94
386.671	51.88
386.881	45.74
387.091	86.7
387.301	62.12
387.511	41.64
387.72	-21.85
387.93	117.42
388.14	37.55
388.35	33.45
388.56	96.94
388.769	107.18
388.979	45.74
389.189	51.88
389.399	123.56
389.609	74.41
389.818	84.65
390.028	98.99
390.238	82.6
390.447	101.03
390.657	133.8
390.867	154.28
391.076	-21.85
391.286	74.41
391.496	78.51
391.705	109.22
391.915	74.41
392.125	45.74
392.334	49.83
392.544	76.46
392.753	35.5
392.963	86.7
393.172	88.75
393.382	60.07
393.591	127.66
393.801	37.55
394.01	164.52
394.22	117.42
394.429	68.27
394.639	111.27
394.848	152.23
395.058	43.69
395.267	101.03
395.477	62.12
395.686	82.6
395.895	152.23
396.105	139.94
396.314	82.6
396.524	35.5
396.733	176.81
396.942	119.46
397.152	76.46
397.361	170.66
397.57	139.94
397.78	121.51
397.989	60.07
398.198	115.37
398.407	76.46
398.617	70.31
398.826	164.52
399.035	66.22
399.244	84.65
399.453	103.08
399.663	101.03
399.872	115.37
400.081	119.46
400.29	213.67
400.499	129.7
400.708	127.66
400.917	164.52
401.127	125.61
401.336	139.94
401.545	223.91
401.754	166.57
401.963	172.71
402.172	115.37
402.381	141.99
402.59	189.1
402.799	205.48
403.008	203.43
403.217	189.1
403.426	139.94
403.635	109.22
403.844	154.28
404.053	221.86
404.262	148.14
404.471	209.58
404.68	311.97
404.888	228.01
405.097	254.63
405.306	221.86
405.515	174.76
405.724	221.86
405.933	242.34
406.142	228.01
406.35	223.91
406.559	256.68
406.768	314.02
406.977	275.11
407.185	240.3
407.394	305.83
407.603	277.16
407.812	307.88
408.02	322.21
408.229	354.98
408.438	258.73
408.646	297.64
408.855	275.11
409.064	373.41
409.272	357.03
409.481	371.37
409.69	361.13
409.898	371.37
410.107	467.62
410.315	465.57
410.524	365.22
410.733	387.75
410.941	449.19
411.15	471.72
411.358	508.58
411.567	578.21
411.775	533.15
411.984	549.54
412.192	647.84
412.401	608.93
412.609	713.38
412.818	707.23
413.026	776.86
413.234	707.23
413.443	721.57
413.651	725.66
413.86	731.81
414.068	832.16
414.276	742.05
414.485	815.77
414.693	877.21
414.901	971.42
415.11	946.84
415.318	975.52
415.526	975.52
415.734	1016.48
415.943	1131.16
416.151	1184.41
416.359	1133.21
416.567	1174.17
416.776	1327.77
416.984	1358.49
417.192	1352.34
417.4	1307.29
417.608	1409.69
417.817	1407.64
418.025	1614.48
418.233	1589.91
418.441	1491.6
418.649	1665.68
418.857	1811.09
419.065	1843.85
419.273	1821.33
419.481	1852.05
419.689	1860.24
419.897	2204.3
420.105	2171.53
420.313	2196.11
420.521	2310.79
420.729	2366.09
420.937	2310.79
421.145	2482.82
421.353	2517.64
421.561	2591.36
421.769	2630.27
421.977	2820.74
422.185	2902.65
422.393	2929.28
422.601	3172.99
422.809	3181.18
423.017	3271.29
423.224	3394.17
423.432	3531.38
423.64	3623.54
423.848	3834.48
424.056	3736.18
424.263	4035.18
424.471	4031.09
424.679	3998.32
424.887	4344.42
425.094	4545.13
425.302	4506.21
425.51	4467.3
425.718	4760.16
425.925	4751.97
426.133	5114.46
426.341	5274.2
426.548	5458.52
426.756	5603.93
426.964	5411.42
427.171	5835.35
427.379	5988.94
427.586	6138.44
427.794	6234.7
428.001	6500.94
428.209	6863.43
428.417	6718.02
428.624	7207.48
428.832	7135.81
429.039	7096.89
429.247	7363.13
429.454	7916.08
429.662	8419.88
429.869	7811.64
430.076	8391.21
430.284	8286.76
430.491	8432.17
430.699	9048.61
430.906	8954.4
431.114	9183.77
431.321	9490.97
431.528	9685.53
431.736	10316.3
431.943	10725.89
432.15	10435.08
432.358	10629.64
432.565	10992.13
432.772	11043.33
432.979	11590.14
433.187	11864.57
433.394	11790.84
433.601	12607.98
433.808	12720.62
434.016	12689.9
434.223	13105.63
434.43	13959.64
434.637	13550.04
434.844	14688.71
435.052	14741.96
435.259	14551.5
435.466	14930.37
435.673	14664.14
435.88	15587.77
436.087	16503.21
436.294	16343.47
436.501	16069.05
436.708	16521.65
436.915	17013.16
437.122	17840.54
437.329	17498.53
437.537	18188.69
437.743	18604.43
437.95	17992.09
438.157	19448.19
438.364	19904.89
438.571	19878.27
438.778	19990.91
438.985	21793.12
439.192	20959.59
439.399	21885.28
439.606	20797.81
439.813	22384.98
440.02	23769.41
440.227	23529.8
440.433	22858.06
440.64	23703.87
440.847	23474.5
441.054	24316.22
441.261	25805.09
441.467	25395.5
441.674	25751.84
441.881	26835.22
442.088	26587.41
442.294	26734.87
442.501	27281.67
442.708	27783.43
442.914	28838.13
443.121	30003.42
443.328	29161.71
443.534	31193.29
443.741	30101.73
443.948	30150.88
444.154	32254.14
444.361	31606.98
444.568	32065.73
444.774	31932.61
444.981	32460.99
445.187	33431.72
445.394	34848.92
445.6	34343.07
445.807	37652.59
446.013	35930.25
446.22	36296.83
446.426	37990.5
446.633	37935.21
446.839	39561.29
447.046	37933.16
447.252	40099.91
447.459	39913.55
447.665	39786.57
447.871	41377.84
448.078	43257.88
448.284	41484.34
448.491	42242.09
448.697	44165.13
448.903	44683.26
449.11	44957.69
449.316	44126.22
449.522	45228.02
449.728	46122.99
449.935	46133.23
450.141	46634.98
450.347	47007.71
450.553	45602.8
450.76	46086.12
450.966	47550.42
451.172	47458.26
451.378	48601.03
451.584	47341.53
451.791	49041.34
451.997	48453.58
452.203	49147.84
452.409	49414.07
452.615	48986.05
452.821	47163.36
453.027	46976.99
453.233	49051.58
453.44	47362.01
453.646	48568.26
453.852	48553.93
454.058	48857.03
454.264	47280.09
454.47	48310.22
454.676	47441.88
454.882	48762.82
455.088	44777.47
455.294	45469.68
455.5	46454.76
455.705	46311.4
455.911	44390.41
456.117	43802.64
456.323	43391
456.529	41246.77
456.735	42852.38
456.941	41728.05
457.147	41605.17
457.352	39938.12
457.558	39516.24
457.764	39692.36
457.97	38604.89
458.176	38174.82
458.381	38097
458.587	35963.01
458.793	36401.28
458.999	34408.61
459.204	37107.83
459.41	35938.44
459.616	33493.16
459.821	33349.81
460.027	33351.85
460.233	32432.32
460.438	30918.87
460.644	31514.83
460.85	30009.57
461.055	29333.74
461.261	29325.55
461.466	27302.15
461.672	26687.76
461.878	28342.52
462.083	26487.06
462.289	25995.55
462.494	25944.35
462.7	24633.65
462.905	23910.72
463.111	24613.17
463.316	25168.17
463.522	24340.79
463.727	24486.2
463.932	24418.61
464.138	24097.08
464.343	24179
464.549	23437.64
464.754	24127.8
464.959	23660.87
465.165	23931.2
465.37	22905.17
465.575	22362.45
465.781	23116.11
465.986	23445.83
466.191	22186.33
466.397	21799.26
466.602	20750.7
466.807	21719.39
467.012	21797.21
467.218	21606.75
467.423	21270.89
467.628	21436.77
467.833	22210.9
468.038	21354.85
468.244	21031.27
468.449	21684.58
468.654	21164.39
468.859	21016.94
469.064	20879.72
469.269	19792.25
469.474	19943.8
469.679	20474.23
469.885	19671.42
470.09	20207.99
470.295	20070.78
470.5	19423.62
470.705	19655.04
470.91	18999.69
471.115	19063.18
471.32	19345.8
471.525	19167.62
471.73	18751.88
471.935	18696.59
472.139	18174.36
472.344	18188.69
472.549	18207.12
472.754	17822.11
472.959	17449.38
473.164	17119.65
473.369	16978.34
473.574	17635.74
473.778	17547.68
473.983	17170.85
474.188	17154.47
474.393	16337.33
474.598	16376.24
474.802	16034.23
475.007	16189.88
475.212	16361.9
475.417	15587.77
475.621	15882.68
475.826	15546.81
476.031	15542.72
476.235	15065.54
476.44	15229.38
476.645	14803.4
476.849	15258.05
477.054	14879.18
477.259	14574.03
477.463	14657.99
477.668	14195.15
477.872	14334.42
478.077	14238.16
478.282	13494.75
478.486	13705.69
478.691	13472.22
478.895	13533.66
479.1	13625.82
479.304	13697.5
479.509	13060.58
479.713	13347.29
479.918	13251.04
480.122	12980.71
480.326	12964.32
480.531	13052.39
480.735	12870.12
480.94	12700.14
481.144	13111.78
481.348	12743.14
481.553	12829.16
481.757	12648.94
481.961	12765.67
482.166	12734.95
482.37	12757.48
482.574	12247.54
482.778	12452.33
482.983	12773.86
483.187	12560.88
483.391	12567.02
483.595	12409.33
483.8	12214.77
484.004	12356.08
484.208	12536.3
484.412	12190.19
484.616	12530.16
484.821	12272.11
485.025	12239.34
485.229	12507.63
485.433	12323.31
485.637	12399.09
485.841	12354.03
486.045	12179.95
486.249	12423.66
486.453	12255.73
486.657	12284.4
486.861	12354.03
487.065	12022.26
487.269	12497.39
487.473	12286.45
487.677	12552.68
487.881	12419.57
488.085	12505.58
488.289	12519.92
488.493	12239.34
488.697	12620.27
488.901	12521.96
489.105	12321.26
489.309	12399.09
489.512	12476.91
489.716	12648.94
489.92	12358.13
490.124	12272.11
490.328	12534.25
490.531	12599.79
490.735	12583.4
490.939	12737
491.143	12595.69
491.346	12489.2
491.55	12751.34
491.754	12853.73
491.958	13025.76
492.161	13007.33
492.365	12820.97
492.569	13019.62
492.772	13130.21
492.976	13189.6
493.18	13156.83
493.383	13339.1
493.587	13271.52
493.79	13353.44
493.994	13322.72
494.197	13615.58
494.401	13615.58
494.605	13441.5
494.808	13963.73
495.012	13890.01
495.215	13914.58
495.419	14238.16
495.622	13988.31
495.825	14289.36
496.029	14297.55
496.232	14604.75
496.436	14455.25
496.639	14518.73
496.843	14817.74
497.046	15237.57
497.249	15100.36
497.453	14971.33
497.656	15473.09
497.859	15272.39
498.063	15626.68
498.266	16067
498.469	15876.54
498.673	16116.15
498.876	16302.51
499.079	16261.55
499.282	16212.4
499.485	16806.31
499.689	16832.94
499.892	17045.93
500.095	17148.32
500.298	17711.52
500.501	17342.88
500.705	17740.19
500.908	17899.93
501.111	18127.25
501.314	18147.73
501.517	18338.19
501.72	18858.38
501.923	18495.89
502.126	18997.64
502.329	19515.78
502.532	19356.04
502.735	19648.89
502.938	19859.84
503.141	19775.87
503.344	20337.01
503.547	20154.74
503.75	20619.63
503.953	20951.4
504.156	21059.95
504.359	21373.28
504.562	21170.54
504.765	21887.32
504.968	22157.66
505.17	22088.03
505.373	22073.69
505.576	22346.07
505.779	22905.17
505.982	22712.66
506.185	23298.38
506.387	23728.45
506.59	23497.03
506.793	24252.73
506.996	23880
507.198	24725.81
507.401	24451.38
507.604	24713.52
507.807	25080.11
508.009	25289
508.212	25665.83
508.415	25858.34
508.617	25934.11
508.82	26319.13
509.022	26267.93
509.225	26851.6
509.428	27439.37
509.63	27324.68
509.833	27410.7
510.035	27808
510.238	27941.12
510.44	28426.49
510.643	28842.23
510.845	29094.13
511.048	28588.28
511.25	29339.88
511.453	29155.57
511.655	30605.53
511.858	30114.02
512.06	30128.35
512.262	30800.08
512.465	30630.1
512.667	31213.77
512.87	31492.3
513.072	31772.87
513.274	32448.7
513.477	32436.41
513.679	32403.64
513.881	33153.2
514.084	33503.4
514.286	32817.33
514.488	33775.78
514.69	34277.54
514.893	34416.8
515.095	34478.24
515.297	34805.91
515.499	35002.52
515.701	35870.86
515.904	36042.88
516.106	36016.26
516.308	36395.14
516.51	36561.02
516.712	36644.99
516.914	37351.54
517.116	37191.8
517.318	37519.47
517.52	37937.26
517.722	38162.53
517.925	38709.34
518.127	38914.14
518.329	38969.43
518.531	39051.35
518.733	39827.53
518.935	39901.26
519.136	40040.52
519.338	40761.4
519.54	40837.18
519.742	41144.37
519.944	41486.39
520.146	42004.52
520.348	41660.46
520.55	42340.39
520.752	42344.48
520.954	43388.95
521.155	42821.66
521.357	43841.55
521.559	43954.19
521.761	44197.9
521.963	44161.03
522.164	44152.84
522.366	44439.56
522.568	44963.84
522.77	45185.02
522.971	45780.98
523.173	45348.85
523.375	45733.87
523.576	45877.23
523.778	45934.57
523.98	46813.15
524.181	46565.35
524.383	46843.87
524.584	47206.36
524.786	47179.74
524.988	47241.18
525.189	48320.46
525.391	48062.41
525.592	48048.08
525.794	48623.56
525.995	48566.21
526.197	48396.23
526.398	48496.58
526.6	49070.01
526.801	49158.08
527.003	49227.71
527.204	49371.07
527.406	49678.26
527.607	49807.28
527.808	50433.96
528.01	49227.71
528.211	50130.86
528.412	50818.98
528.614	50073.52
528.815	50364.33
529.016	50964.39
529.218	50433.96
529.419	50489.26
529.62	50669.48
529.822	50782.12
530.023	50886.56
530.224	50632.61
530.425	50884.51
530.626	50571.18
530.828	50651.05
531.029	51713.94
531.23	50796.45
531.431	51132.32
531.632	51345.31
531.833	51367.83
532.035	51275.68
532.236	51658.65
532.437	51259.29
532.638	51427.23
532.839	51840.92
533.04	52092.82
533.241	50892.71
533.442	51830.68
533.643	51546.01
533.844	51621.78
534.045	51806.1
534.246	50976.67
534.447	51621.78
534.648	51855.25
534.849	51840.92
535.05	51220.38
535.251	51310.49
535.451	51689.37
535.652	52002.71
535.853	51681.17
536.054	51656.6
536.255	51830.68
536.456	51228.57
536.657	52180.88
536.857	51441.56
537.058	51285.92
537.259	51963.79
537.46	51672.98
537.66	51320.73
537.861	51509.14
538.062	51376.03
538.263	51488.67
538.463	51410.84
538.664	51398.55
538.865	51314.59
539.065	51476.38
539.266	50999.2
539.466	51670.93
539.667	50724.77
539.868	51943.31
540.068	50833.32
540.269	51335.07
540.469	51998.61
540.67	50823.08
540.87	51478.43
541.071	51451.8
541.271	51617.69
541.472	50829.22
541.672	51089.31
541.873	51072.93
542.073	50558.89
542.274	51623.83
542.474	51066.78
542.675	50550.7
542.875	51697.56
543.075	51107.74
543.276	50702.25
543.476	51398.55
543.676	50923.43
543.877	51074.98
544.077	50597.8
544.277	50859.94
544.478	51103.65
544.678	51087.26
544.878	50794.4
545.078	50810.79
545.279	50444.2
545.479	50421.67
545.679	50692.01
545.879	50812.84
546.079	50698.15
546.28	50601.89
546.48	50255.79
546.68	50769.83
546.88	50837.41
547.08	50663.33
547.28	50358.19
547.48	49928.11
547.68	50692.01
547.88	50186.16
548.081	50884.51
548.281	50364.33
548.481	50403.24
548.681	51273.63
548.881	50524.07
549.081	50118.57
549.28	49866.67
549.48	50716.58
549.68	50378.67
549.88	50851.75
550.08	50278.32
550.28	50542.5
550.48	49698.74
550.68	50577.32
550.88	49807.28
551.08	50044.85
551.279	50499.5
551.479	49602.49
551.679	50182.06
551.879	49604.53
552.079	50038.7
552.278	49659.83
552.478	50208.68
552.678	49885.11
552.878	50388.91
553.077	49526.71
553.277	49543.09
553.477	50038.7
553.676	49723.32
553.876	49641.4
554.076	49727.41
554.275	49649.59
554.475	49412.02
554.674	49561.53
554.874	49416.12
555.074	49401.78
555.273	49674.16
555.473	49835.95
555.672	49502.14
555.872	49285.05
556.071	49672.12
556.271	49524.66
556.47	49063.87
556.67	48930.75
556.869	48965.57
557.068	49336.25
557.268	48617.41
557.467	48981.95
557.667	48758.72
557.866	48689.09
558.065	48707.52
558.265	48437.19
558.464	48766.91
558.663	49346.49
558.863	48254.92
559.062	49223.61
559.261	48148.43
559.461	49090.49
559.66	48345.03
559.859	48875.46
560.058	48295.88
560.258	48084.94
560.457	47886.29
560.656	48250.83
560.855	48166.86
561.054	48279.5
561.253	48005.07
561.453	47941.58
561.652	48142.28
561.851	48132.04
562.05	47830.99
562.249	47210.46
562.448	47882.19
562.647	47863.76
562.846	47165.4
563.045	47765.46
563.244	47167.45
563.443	47767.51
563.642	46938.08
563.841	46927.84
564.04	46919.65
564.239	47495.13
564.438	46798.82
564.637	47120.35
564.836	47339.48
565.035	46311.4
565.234	47022.05
565.432	46624.74
565.631	46755.81
565.83	46723.04
566.029	46489.57
566.228	46551.01
566.427	46397.41
566.625	46157.8
566.824	45506.55
567.023	46235.63
567.222	45594.61
567.42	46172.14
567.619	45889.52
567.818	45760.5
568.016	45658.1
568.215	46143.47
568.414	45320.18
568.612	45768.69
568.811	45588.47
569.01	45352.95
569.208	45035.52
569.407	45234.17
569.605	45012.99
569.804	45238.26
570.002	44793.86
570.201	44865.53
570.4	44742.66
570.598	44189.7
570.797	44421.12
570.995	44593.15
571.193	44013.58
571.392	44730.37
571.59	44285.96
571.789	44318.73
571.987	44060.68
572.186	44032.01
572.384	43477.01
572.582	43956.24
572.781	43892.75
572.979	43233.3
573.177	43556.88
573.376	43657.23
573.574	43202.58
573.772	43399.19
573.971	43411.48
574.169	42932.25
574.367	42792.99
574.565	43051.03
574.763	42602.53
574.962	42729.5
575.16	42399.78
575.358	42715.17
575.556	42061.86
575.754	42817.57
575.952	41947.18
576.151	42186.79
576.349	42072.1
576.547	41848.88
576.745	42340.39
576.943	42002.47
577.141	41437.23
577.339	41574.45
577.537	41273.4
577.735	41801.77
577.933	41244.73
578.131	41519.15
578.329	41136.18
578.527	40587.33
578.725	41007.16
578.923	41375.8
579.121	40925.24
579.319	40544.32
579.516	40988.73
579.714	40761.4
579.912	40826.94
580.11	40595.52
580.308	39985.22
580.506	40308.8
580.704	39884.87
580.901	40298.56
581.099	40038.47
581.297	39766.09
581.495	39850.06
581.692	40017.99
581.89	39471.18
582.088	39479.38
582.285	39192.66
582.483	39647.31
582.681	39434.32
582.878	38989.91
583.076	38778.97
583.274	39114.84
583.471	38303.84
583.669	38535.26
583.866	38692.96
584.064	38557.79
584.262	38289.51
584.459	38420.58
584.657	38023.27
584.854	38348.9
585.052	37849.19
585.249	37888.1
585.447	38074.47
585.644	37671.02
585.841	37804.14
586.039	38023.27
586.236	37421.17
586.434	37210.23
586.631	37488.75
586.828	37116.02
587.026	37443.7
587.223	37259.38
587.42	37025.91
587.618	36786.3
587.815	36587.64
588.012	36509.82
588.21	36485.25
588.407	36851.83
588.604	36348.03
588.801	36221.06
588.999	36178.05
589.196	36096.13
589.393	35790.98
589.59	35756.17
589.787	35721.35
589.984	35559.56
590.182	35213.46
590.379	35844.23
590.576	35246.22
590.773	35625.1
590.97	34955.41
591.167	35293.33
591.364	34832.54
591.561	35260.56
591.758	34586.78
591.955	34474.14
592.152	34826.39
592.349	34388.13
592.546	34302.11
592.743	34502.81
592.94	34119.84
593.137	34433.18
593.334	34287.78
593.531	33915.05
593.727	33964.2
593.924	34560.16
594.121	33702.06
594.318	33956
594.515	33609.9
594.712	33388.72
594.908	33104.05
595.105	33241.26
595.302	33218.74
595.499	33355.95
595.696	33061.04
595.892	32889.01
596.089	32987.32
596.286	33026.23
596.482	32649.4
596.679	32469.18
596.876	32530.62
597.072	32350.4
597.269	32295.1
597.466	32194.75
597.662	32276.67
597.859	32080.07
598.055	31893.7
598.252	31797.45
598.448	31506.63
598.645	31809.73
598.841	31703.24
599.038	31449.29
599.234	31709.38
599.431	31258.83
599.627	31561.93
599.824	31250.64
600.02	30732.5
600.217	31021.27
600.413	30820.56
600.609	31033.55
600.806	30693.59
601.002	30388.44
601.198	30384.35
601.395	30568.66
601.591	30396.63
601.787	30302.43
601.984	30400.73
602.18	30417.11
602.376	29976.8
602.572	30023.9
602.769	29640.93
602.965	29399.27
603.161	29677.8
603.357	29329.64
603.553	29489.38
603.75	29722.85
603.946	29559.02
604.142	29212.91
604.338	29016.3
604.534	28954.86
604.73	28827.89
604.926	28887.28
605.122	28918
605.318	28784.88
605.514	28426.49
605.71	28371.19
605.906	28598.52
606.102	28705.01
606.298	28442.87
606.494	28457.21
606.69	28184.83
606.886	28084.48
607.082	27523.33
607.278	27910.4
607.474	27328.78
607.67	28154.11
607.866	27525.38
608.062	27820.29
608.257	27668.74
608.453	27576.58
608.649	27762.95
608.845	27369.74
609.041	27607.3
609.236	27545.86
609.432	27216.14
609.628	27433.22
609.824	27162.89
610.019	27078.93
610.215	26988.81
610.411	27246.86
610.606	27140.36
610.802	27377.93
610.998	27068.69
611.193	27183.37
611.389	26972.43
611.584	26655
611.78	26634.52
611.976	26558.74
612.171	26679.57
612.367	26636.56
612.562	26501.4
612.758	25991.45
612.953	26224.92
613.149	26661.14
613.344	26132.76
613.539	26249.5
613.735	26241.31
613.93	26093.85
614.126	26136.86
614.321	26499.35
614.517	25954.59
614.712	25723.17
614.907	25708.83
615.103	25905.44
615.298	25805.09
615.493	25987.36
615.688	25657.64
615.884	25794.85
616.079	25694.5
616.274	25725.22
616.47	25342.25
616.665	25372.97
616.86	25397.54
617.055	25289
617.25	25344.3
617.445	25301.29
617.641	24850.74
617.836	24996.14
618.031	24557.88
618.226	25141.55
618.421	24932.65
618.616	25035.05
618.811	24453.43
619.006	25262.38
619.201	24410.42
619.396	24652.08
619.591	24092.99
619.786	24361.27
619.981	24021.31
620.176	24314.17
620.371	23800.13
620.566	23830.85
620.761	23941.44
620.956	23998.78
621.151	23288.14
621.346	23464.26
621.541	22976.84
621.735	23556.42
621.93	22903.12
622.125	23114.06
622.32	22747.47
622.515	22866.25
622.709	22610.26
622.904	22554.96
623.099	22597.97
623.294	22710.61
623.488	22176.09
623.683	22221.14
623.878	21899.61
624.072	21764.45
624.267	21805.41
624.462	21950.81
624.656	21506.4
624.851	21487.97
625.046	21545.31
625.24	21006.7
625.435	21225.83
625.629	21004.65
625.824	20836.72
626.018	20750.7
626.213	20463.99
626.407	20619.63
626.602	20138.36
626.796	20560.24
626.991	20466.03
627.185	20259.19
627.38	20062.58
627.574	19771.77
627.768	19646.85
627.963	19810.68
628.157	19313.03
628.352	19603.84
628.546	19175.81
628.74	19095.94
628.935	19048.84
629.129	19112.33
629.323	18999.69
629.517	18708.88
629.712	18901.39
629.906	18880.91
630.1	18178.45
630.294	18506.13
630.489	18049.43
630.683	18504.08
630.877	18006.42
631.071	18096.53
631.265	18043.29
631.459	18088.34
631.653	17555.87
631.848	17826.2
632.042	17297.83
632.236	17514.91
632.43	17207.72
632.624	17295.78
632.818	17310.11
633.012	17248.68
633.206	17121.7
633.4	17244.58
633.594	16890.28
633.788	16990.63
633.982	16640.43
634.176	16583.09
634.369	16617.9
634.563	16560.56
634.757	16386.48
634.951	16200.12
635.145	16224.69
635.339	16327.09
635.533	16165.3
635.726	16026.04
635.92	15772.09
636.114	15802.81
636.308	15423.94
636.501	15786.43
636.695	15552.96
636.889	15370.69
637.083	15368.64
637.276	15225.28
637.47	15110.6
637.664	15169.99
637.857	15153.6
638.051	15118.79
638.244	14959.05
638.438	14893.51
638.632	14674.38
638.825	14576.08
639.019	14496.21
639.212	14438.86
639.406	14549.45
639.599	14625.23
639.793	14514.64
639.986	14236.11
640.18	14205.39
640.373	14324.18
640.567	14068.18
640.76	14057.94
640.954	13717.98
641.147	13691.35
641.34	13638.11
641.534	13629.91
641.727	13500.89
641.92	13611.48
642.114	13406.69
642.307	13709.79
642.5	13314.53
642.694	13097.44
642.887	13048.29
643.08	13189.6
643.273	12954.08
643.467	12939.75
643.66	12575.21
643.853	12724.71
644.046	12704.23
644.239	12696.04
644.432	12632.55
644.626	12515.82
644.819	12618.22
645.012	12579.31
645.205	12489.2
645.398	12306.93
645.591	12321.26
645.784	12138.99
645.977	12042.74
646.17	12161.52
646.363	11923.96
646.556	11801.08
646.749	11823.61
646.942	11756.02
647.135	11766.26
647.328	11590.14
647.521	11614.71
647.714	11502.08
647.907	11231.74
648.099	11420.16
648.292	11682.3
648.485	11440.64
648.678	11090.43
648.871	11084.29
649.064	11117.06
649.256	11035.14
649.449	10979.84
649.642	10902.02
649.835	10807.81
650.027	10762.76
650.22	10617.35
650.413	10807.81
650.605	10662.41
650.798	10633.74
650.991	10572.3
651.183	10641.93
651.376	10523.15
651.568	10422.8
651.761	10265.1
651.954	10390.03
652.146	10267.15
652.339	10084.88
652.531	10209.81
652.724	10127.89
652.916	9800.21
653.109	9970.19
653.301	9904.66
653.494	10045.97
653.686	9710.1
653.879	9818.64
654.071	9568.79
654.263	9642.52
654.456	9560.6
654.648	9644.57
654.84	9542.17
655.033	9667.1
655.225	9486.87
655.417	9404.96
655.61	9327.13
655.802	9261.6
655.994	9226.78
656.186	9333.28
656.379	9314.84
656.571	9151.01
656.763	9085.47
656.955	9064.99
657.148	8909.35
657.34	9126.43
657.532	8774.18
657.724	8776.23
657.916	8706.6
658.108	8634.92
658.3	8731.17
658.492	8800.8
658.684	8563.24
658.876	8626.73
659.068	8477.23
659.26	8346.16
659.452	8274.48
659.644	8299.05
659.836	8290.86
660.028	8438.31
660.22	8254
660.412	8135.21
660.604	8268.33
660.796	8180.27
660.988	8053.3
661.18	8110.64
661.372	7785.01
661.563	8106.54
661.755	7920.18
661.947	7823.92
662.139	7924.27
662.331	7793.2
662.522	7625.27
662.714	7592.5
662.906	7674.42
663.097	7520.82
663.289	7588.41
663.481	7496.25
663.673	7641.65
663.864	7301.69
664.056	7436.86
664.247	7356.99
664.439	7387.71
664.631	7488.06
664.822	7234.11
665.014	7295.55
665.205	7205.44
665.397	7094.85
665.588	7221.82
665.78	7168.57
665.971	7127.61
666.163	7135.81
666.354	7074.37
666.546	6908.48
666.737	6795.84
666.929	7004.74
667.12	6900.29
667.311	6816.32
667.503	6728.26
667.694	6885.95
667.885	6638.15
668.077	6693.44
668.268	6627.91
668.459	6562.37
668.651	6558.28
668.842	6619.72
669.033	6527.56
669.224	6398.54
669.416	6507.08
669.607	6472.26
669.798	6400.58
669.989	6414.92
670.18	6300.23
670.371	6423.11
670.563	6367.82
670.754	6373.96
670.945	5958.22
671.136	6015.57
671.327	6206.03
671.518	6154.83
671.709	6130.25
671.9	6007.37
672.091	6029.9
672.282	6185.55
672.473	5964.37
672.664	6050.38
672.855	5976.66
673.046	5976.66
673.237	5882.45
673.428	5800.53
673.619	5843.54
673.809	5964.37
674	5931.6
674.191	5821.01
674.382	5704.28
674.573	5753.43
674.764	5691.99
674.954	5685.84
675.145	5562.97
675.336	5628.5
675.527	5638.74
675.717	5665.36
675.908	5466.71
676.099	5440.09
676.289	5411.42
676.48	5573.21
676.671	5286.49
676.861	5343.83
677.052	5427.8
677.243	5325.4
677.433	5325.4
677.624	5352.02
677.814	5200.48
678.005	5331.55
678.195	5325.4
678.386	5229.15
678.576	5157.47
678.767	5208.67
678.957	5145.18
679.148	5259.87
679.338	5096.03
679.529	5204.57
679.719	4958.81
679.909	5286.49
680.1	5046.88
680.29	5055.07
680.481	5093.98
680.671	5055.07
680.861	5036.64
681.052	5010.01
681.242	5071.45
681.432	5063.26
681.622	4997.73
681.813	4962.91
682.003	4850.27
682.193	4825.7
682.383	4852.32
682.573	4930.14
682.764	4895.33
682.954	4719.2
683.144	4858.46
683.334	4741.73
683.524	4876.9
683.714	4719.2
683.904	4819.55
684.094	4715.11
684.284	4739.68
684.474	4696.67
684.664	4696.67
684.854	4661.86
685.044	4657.76
685.234	4702.82
685.424	4661.86
685.614	4491.88
685.804	4702.82
685.994	4588.13
686.184	4469.35
686.374	4596.32
686.564	4534.89
686.753	4549.22
686.943	4266.6
687.133	4483.69
687.323	4440.68
687.513	4325.99
687.702	4334.18
687.892	4289.13
688.082	4319.85
688.272	4381.29
688.461	4305.51
688.651	4369
688.841	4336.23
689.03	4184.68
689.22	4117.1
689.41	4201.07
689.599	4117.1
689.789	4354.66
689.979	4041.32
690.168	4184.68
690.358	4149.87
690.547	4059.76
690.737	4031.09
690.926	4049.52
691.116	3924.59
691.305	4047.47
691.495	3924.59
691.684	3916.4
691.874	3965.55
692.063	3889.78
692.252	3986.03
692.442	3875.44
692.631	3826.29
692.82	3850.86
693.01	3854.96
693.199	3850.86
693.388	3830.38
693.578	3736.18
693.767	3900.02
693.956	3861.1
694.146	3781.23
694.335	3736.18
694.524	3676.79
694.713	3715.7
694.902	3744.37
695.092	3779.18
695.281	3674.74
695.47	3691.12
695.659	3539.57
695.848	3707.51
696.037	3568.24
696.226	3721.84
696.415	3580.53
696.604	3715.7
696.793	3562.1
696.982	3457.65
697.171	3523.19
697.36	3539.57
697.549	3609.2
697.738	3441.27
697.927	3416.69
698.116	3490.42
698.305	3537.52
698.494	3568.24
698.683	3369.59
698.872	3461.75
699.061	3449.46
699.25	3281.53
699.438	3449.46
699.627	3435.13
699.816	3453.56
700.005	3289.72
700.193	3351.16
700.382	3349.11
700.571	3482.23
700.76	3347.06
700.948	3277.43
701.137	3246.71
701.326	3310.2
701.514	3297.91
701.703	3275.38
701.892	3379.83
702.08	3295.86
702.269	3250.81
702.457	3187.32
702.646	3248.76
702.834	3195.51
703.023	3105.4
703.212	3261.05
703.4	3326.58
703.589	3238.52
703.777	3246.71
703.965	3215.99
704.154	3201.66
704.342	3121.79
704.531	3205.75
704.719	3097.21
704.907	3242.62
705.096	3076.73
705.284	3084.92
705.472	3017.34
705.661	3080.83
705.849	3066.49
706.037	3152.51
706.226	3084.92
706.414	3066.49
706.602	2972.29
706.79	3056.25
706.979	2933.37
707.167	2873.98
707.355	3091.07
707.543	2929.28
707.731	3082.88
707.919	2998.91
708.107	3066.49
708.296	3082.88
708.484	2974.33
708.672	2916.99
708.86	2890.37
709.048	2957.95
709.236	2966.14
709.424	3076.73
709.612	2919.04
709.8	2851.46
709.988	2804.35
710.176	2873.98
710.364	2970.24
710.551	2951.81
710.739	2892.41
710.927	2863.74
711.115	2845.31
711.303	2849.41
711.491	2904.7
711.679	2714.24
711.866	2687.62
712.054	2728.58
712.242	2724.48
712.43	2830.98
712.617	2749.06
712.805	2656.9
712.993	2697.86
713.181	2634.37
713.368	2790.02
713.556	2812.54
713.744	2771.58
713.931	2683.52
714.119	2622.08
714.306	2736.77
714.494	2781.82
714.682	2681.47
714.869	2605.7
715.057	2738.82
715.244	2658.95
715.432	2663.04
715.619	2736.77
715.807	2802.3
715.994	2593.41
716.182	2736.77
716.369	2607.75
716.556	2609.79
716.744	2597.51
716.931	2648.71
717.119	2556.55
717.306	2695.81
717.493	2482.82
717.681	2601.6
717.868	2585.22
718.055	2605.7
718.242	2581.12
718.43	2595.46
718.617	2568.84
718.804	2466.44
718.991	2517.64
719.179	2556.55
719.366	2491.01
719.553	2620.03
719.74	2536.07
719.927	2474.63
720.114	2517.64
720.301	2427.53
720.488	2538.12
720.676	2431.62
720.863	2521.73
721.05	2654.85
721.237	2376.33
721.424	2456.2
721.611	2531.97
721.798	2359.94
721.985	2515.59
722.172	2411.14
722.358	2396.81
722.545	2488.96
722.732	2384.52
722.919	2529.92
723.106	2437.77
723.293	2517.64
723.48	2368.13
723.667	2370.18
723.853	2353.8
724.04	2441.86
724.227	2243.21
724.414	2386.57
724.6	2310.79
724.787	2462.34
724.974	2343.56
725.161	2304.65
725.347	2149
725.534	2173.58
725.72	2392.71
725.907	2257.54
726.094	2298.5
726.28	2243.21
726.467	2241.16
726.653	2306.7
726.84	2302.6
727.027	2413.19
727.213	2138.76
727.4	2314.89
727.586	2138.76
727.773	2290.31
727.959	2110.09
728.145	2286.22
728.332	2294.41
728.518	2171.53
728.705	2159.24
728.891	2146.95
729.077	2249.35
729.264	2097.8
729.45	2290.31
729.636	2247.3
729.823	2212.49
730.009	2171.53
730.195	2146.95
730.382	2212.49
730.568	2079.37
730.754	2083.47
730.94	2144.91
731.126	2165.39
731.313	2105.99
731.499	2171.53
731.685	2171.53
731.871	2105.99
732.057	2230.92
732.243	2056.84
732.429	2124.43
732.615	2060.94
732.801	2116.23
732.987	2126.47
733.173	2167.43
733.359	2134.67
733.545	2067.08
733.731	2089.61
733.917	2083.47
734.103	2036.36
734.289	2091.66
734.475	2015.88
734.661	2065.04
734.847	2034.32
735.033	2079.37
735.219	2179.72
735.404	2120.33
735.59	2032.27
735.776	2128.52
735.962	1966.73
736.148	1999.5
736.333	2005.64
736.519	1974.92
736.705	1890.96
736.89	2017.93
737.076	1942.16
737.262	1968.78
737.447	1753.74
737.633	2034.32
737.819	1899.15
738.004	1983.12
738.19	1909.39
738.375	1778.32
738.561	1979.02
738.747	1933.97
738.932	2022.03
739.118	1991.31
739.303	1860.24
739.489	1985.16
739.674	1884.81
739.859	1946.25
740.045	1794.7
740.23	1854.09
740.416	1917.58
740.601	1954.44
740.786	1821.33
740.972	1817.23
741.157	1852.05
741.342	1860.24
741.528	1811.09
741.713	1806.99
741.898	1819.28
742.084	1835.66
742.269	1729.17
742.454	1731.22
742.639	1907.34
742.824	1770.13
743.01	1731.22
743.195	1733.26
743.38	1698.45
743.565	1747.6
743.75	1714.83
743.935	1821.33
744.12	1727.12
744.305	1706.64
744.49	1606.29
744.675	1626.77
744.86	1688.21
745.045	1704.59
745.23	1632.91
745.415	1637.01
745.6	1669.78
745.785	1579.67
745.97	1585.81
746.155	1692.3
746.34	1653.39
746.525	1501.84
746.71	1710.74
746.895	1569.43
747.079	1530.52
747.264	1649.3
747.449	1503.89
747.634	1542.8
747.819	1606.29
748.003	1585.81
748.188	1507.99
748.373	1403.54
748.557	1542.8
748.742	1440.4
748.927	1426.07
749.111	1458.84
749.296	1419.92
749.481	1548.95
749.665	1438.36
749.85	1460.88
750.034	1405.59
750.219	1520.28
750.404	1475.22
750.588	1333.91
750.773	1383.06
750.957	1475.22
751.141	1393.3
751.326	1368.73
751.51	1319.57
751.695	1325.72
751.879	1235.61
752.064	1438.36
752.248	1311.38
752.432	1401.49
752.617	1295
752.801	1258.14
752.985	1305.24
753.17	1284.76
753.354	1247.9
753.538	1317.53
753.722	1200.79
753.907	1243.8
754.091	1258.14
754.275	1352.34
754.459	1165.98
754.643	1196.7
754.828	1102.49
755.012	1172.12
755.196	1090.2
755.38	1192.6
755.564	1194.65
755.748	1100.44
755.932	1198.74
756.116	1120.92
756.3	1147.55
756.484	1196.7
756.668	1110.68
756.852	1014.43
757.036	1114.78
757.22	1086.11
757.404	1071.77
757.588	1030.81
757.772	981.66
757.956	1053.34
758.14	979.61
758.323	1049.24
758.507	1065.63
758.691	971.42
758.875	1073.82
759.059	1020.57
759.242	979.61
759.426	1049.24
759.61	1010.33
759.794	1008.28
759.977	977.56
760.161	977.56
760.345	1077.91
760.528	944.8
760.712	996
760.895	903.84
761.079	955.04
761.263	905.88
761.446	952.99
761.63	912.03
761.813	950.94
761.997	901.79
762.18	901.79
762.364	893.6
762.547	936.6
762.731	905.88
762.914	869.02
763.098	909.98
763.281	864.93
763.464	952.99
763.648	950.94
763.831	834.21
764.015	889.5
764.198	950.94
764.381	916.12
764.564	850.59
764.748	832.16
764.931	864.93
765.114	819.87
765.297	916.12
765.481	791.2
765.664	903.84
765.847	930.46
766.03	862.88
766.213	856.73
766.397	795.29
766.58	864.93
766.763	860.83
766.946	811.68
767.129	813.73
767.312	844.45
767.495	797.34
767.678	754.34
767.861	760.48
768.044	844.45
768.227	801.44
768.41	811.68
768.593	791.2
768.776	789.15
768.959	803.49
769.142	795.29
769.324	846.49
769.507	754.34
769.69	754.34
769.873	754.34
770.056	778.91
770.239	731.81
770.421	803.49
770.604	696.99
770.787	686.75
770.97	723.62
771.152	783.01
771.335	715.42
771.518	676.51
771.7	772.77
771.883	707.23
772.066	680.61
772.248	705.18
772.431	860.83
772.613	666.27
772.796	705.18
772.978	715.42
773.161	754.34
773.343	672.42
773.526	615.07
773.708	676.51
773.891	598.69
774.073	725.66
774.256	721.57
774.438	709.28
774.621	688.8
774.803	610.98
774.985	641.7
775.168	668.32
775.35	617.12
775.532	658.08
775.715	656.03
775.897	692.9
776.079	672.42
776.261	551.59
776.444	699.04
776.626	602.79
776.808	555.68
776.99	524.96
777.173	574.11
777.355	578.21
777.537	494.24
777.719	721.57
777.901	527.01
778.083	623.27
778.265	490.15
778.447	494.24
778.629	606.88
778.811	578.21
778.993	563.87
779.175	600.74
779.357	615.07
779.539	492.2
779.721	551.59
779.903	492.2
780.085	547.49
780.267	543.39
780.449	479.91
780.631	543.39
780.812	516.77
780.994	549.54
781.176	445.09
781.358	553.63
781.54	428.71
781.721	508.58
781.903	469.67
782.085	504.48
782.267	477.86
782.448	488.1
782.63	461.48
782.812	447.14
782.993	434.85
783.175	418.47
783.357	475.81
783.538	422.56
783.72	426.66
783.901	416.42
784.083	469.67
784.264	449.19
784.446	451.24
784.627	352.93
784.809	467.62
784.99	340.65
785.172	381.6
785.353	348.84
785.535	426.66
785.716	365.22
785.897	379.56
786.079	443.04
786.26	373.41
786.441	418.47
786.623	332.45
786.804	418.47
786.985	391.84
787.167	412.32
787.348	354.98
787.529	361.13
787.71	354.98
787.891	354.98
788.073	340.65
788.254	389.8
788.435	434.85
788.616	397.99
788.797	320.17
788.978	385.7
789.159	371.37
789.34	303.78
789.522	365.22
789.703	320.17
789.884	328.36
790.065	297.64
790.246	285.35
790.427	324.26
790.607	381.6
790.788	225.96
790.969	258.73
791.15	338.6
791.331	268.97
791.512	338.6
791.693	307.88
791.874	287.4
792.054	334.5
792.235	395.94
792.416	303.78
792.597	305.83
792.778	352.93
792.958	320.17
793.139	354.98
793.32	277.16
793.5	285.35
793.681	328.36
793.862	303.78
794.042	264.87
794.223	211.62
794.404	275.11
794.584	180.9
794.765	264.87
794.945	328.36
795.126	215.72
795.306	320.17
795.487	264.87
795.667	225.96
795.848	289.45
796.028	246.44
796.209	301.73
796.389	297.64
796.57	256.68
796.75	182.95
796.93	187.05
797.111	240.3
797.291	209.58
797.471	193.19
797.652	295.59
797.832	215.72
798.012	322.21
798.192	203.43
798.373	262.82
798.553	264.87
798.733	230.06
798.913	207.53
799.093	168.62
799.274	279.21
799.454	230.06
799.634	203.43
799.814	205.48
799.994	242.34
800.174	322.21
800.354	180.9
800.534	201.38
800.714	207.53
800.894	133.8
801.074	213.67
801.254	215.72
801.434	225.96
801.614	234.15
801.794	180.9
801.974	815.77
802.154	123.56
802.334	209.58
802.514	219.82
802.693	295.59
802.873	195.24
803.053	275.11
803.233	232.1
803.413	156.33
803.592	271.01
803.772	148.14
803.952	180.9
804.131	150.18
804.311	217.77
804.491	256.68
804.67	197.29
804.85	158.38
805.03	223.91
805.209	207.53
805.389	189.1
805.568	248.49
805.748	156.33
805.928	146.09
806.107	148.14
806.287	225.96
806.466	139.94
806.646	131.75
806.825	189.1
807.004	107.18
807.184	182.95
807.363	174.76
807.543	182.95
807.722	185
807.901	191.14
808.081	90.79
808.26	107.18
808.439	252.58
808.619	86.7
808.798	197.29
808.977	141.99
809.156	168.62
809.336	113.32
809.515	150.18
809.694	152.23
809.873	148.14
810.052	150.18
810.231	205.48
810.411	141.99
810.59	88.75
810.769	156.33
810.948	223.91
811.127	111.27
811.306	133.8
811.485	148.14
811.664	193.19
811.843	88.75
812.022	203.43
812.201	86.7
812.38	125.61
812.559	94.89
812.737	141.99
812.916	123.56
813.095	115.37
813.274	152.23
813.453	121.51
813.632	121.51
813.811	178.86
813.989	193.19
814.168	146.09
814.347	144.04
814.526	123.56
814.704	191.14
814.883	172.71
815.062	121.51
815.24	172.71
815.419	62.12
815.598	141.99
815.776	58.03
815.955	90.79
816.133	141.99
816.312	139.94
816.49	109.22
816.669	139.94
816.847	96.94
817.026	82.6
817.204	98.99
817.383	92.84
817.561	160.42
817.74	117.42
817.918	164.52
818.097	72.36
818.275	103.08
818.453	238.25
818.632	111.27
818.81	33.45
818.988	111.27
819.167	139.94
819.345	82.6
819.523	139.94
819.701	139.94
819.879	105.13
820.058	115.37
820.236	135.85
820.414	25.26
820.592	84.65
820.77	80.55
820.948	43.69
821.127	35.5
821.305	119.46
821.483	45.74
821.661	115.37
821.839	103.08
822.017	53.93
822.195	82.6
822.373	139.94
822.551	133.8
822.729	109.22
822.907	23.21
823.085	96.94
823.262	109.22
823.44	66.22
823.618	-30.04
823.796	105.13
823.974	101.03
824.152	107.18
824.329	37.55
824.507	82.6
824.685	66.22
824.863	144.04
825.04	86.7
825.218	66.22
825.396	135.85
825.574	66.22
825.751	78.51
825.929	141.99
826.107	55.98
826.284	45.74
826.462	23.21
826.639	158.38
826.817	78.51
826.994	43.69
827.172	19.11
827.349	115.37
827.527	168.62
827.704	66.22
827.882	133.8
828.059	133.8
828.237	92.84
828.414	131.75
828.591	92.84
828.769	86.7
828.946	133.8
829.124	86.7
829.301	80.55
829.478	94.89
829.655	123.56
829.833	51.88
830.01	72.36
830.187	96.94
830.364	98.99
830.542	148.14
830.719	129.7
830.896	115.37
831.073	98.99
831.25	74.41
831.427	62.12
831.604	78.51
831.782	8.87
831.959	137.9
832.136	92.84
832.313	135.85
832.49	2.73
832.667	101.03
832.844	62.12
833.021	131.75
833.198	53.93
833.374	82.6
833.551	17.07
833.728	98.99
833.905	60.07
834.082	-27.99
834.259	94.89
834.436	76.46
834.612	76.46
834.789	49.83
834.966	119.46
835.143	58.03
835.319	123.56
835.496	111.27
835.673	107.18
835.85	68.27
836.026	121.51
836.203	25.26
836.38	19.11
836.556	60.07
836.733	88.75
836.909	84.65
837.086	53.93
837.262	27.31
837.439	27.31
837.616	74.41
837.792	82.6
837.968	58.03
838.145	90.79
838.321	90.79
838.498	51.88
838.674	86.7
838.851	70.31
839.027	90.79
839.203	101.03
839.38	12.97
839.556	-1.37
839.732	74.41
839.909	17.07
840.085	117.42
840.261	35.5
840.437	107.18
840.614	17.07
840.79	107.18
840.966	78.51
841.142	90.79
841.318	64.17
841.494	55.98
841.671	47.79
841.847	49.83
842.023	86.7
842.199	35.5
842.375	123.56
842.551	29.35
842.727	19.11
842.903	25.26
843.079	62.12
843.255	35.5
843.431	45.74
843.607	66.22
843.783	-40.28
843.959	103.08
844.134	-13.65
844.31	62.12
844.486	49.83
844.662	109.22
844.838	53.93
845.013	72.36
845.189	86.7
845.365	10.92
845.541	19.11
845.716	141.99
845.892	86.7
846.068	17.07
846.244	66.22
846.419	158.38
846.595	2.73
846.77	17.07
846.946	12.97
847.122	101.03
847.297	17.07
847.473	41.64
847.648	23.21
847.824	60.07
847.999	2.73
848.175	70.31
848.35	70.31
848.526	19.11
848.701	37.55
848.876	43.69
849.052	4.78
849.227	90.79
849.403	-17.75
849.578	84.65
849.753	21.16
849.929	76.46
850.104	21.16
850.279	6.83
850.454	-52.56
850.63	27.31
850.805	53.93
850.98	74.41
851.155	-3.41
851.33	98.99
851.505	53.93
851.681	-30.04
851.856	41.64
852.031	39.59
852.206	66.22
852.381	-27.99
852.556	78.51
852.731	21.16
852.906	58.03
853.081	58.03
853.256	78.51
853.431	60.07
853.606	58.03
853.781	-11.61
853.956	-48.47
854.131	66.22
854.305	82.6
854.48	66.22
854.655	51.88
854.83	58.03
855.005	31.4
855.18	35.5
855.354	-13.65
855.529	62.12
855.704	-7.51
855.879	58.03
856.053	-46.42
856.228	82.6
856.403	-7.51
856.577	49.83
856.752	25.26
856.926	47.79
857.101	10.92
857.276	31.4
857.45	39.59
857.625	43.69
857.799	25.26
857.974	53.93
858.148	-32.08
858.323	39.59
858.497	64.17
858.672	10.92
858.846	-32.08
859.02	117.42
859.195	-15.7
859.369	-56.66
859.543	-48.47
859.718	-44.37
859.892	45.74
860.066	29.35
860.241	60.07
860.415	6.83
860.589	70.31
860.763	33.45
860.938	58.03
861.112	-27.99
861.286	45.74
861.46	49.83
861.634	43.69
861.808	60.07
861.982	25.26
862.157	-13.65
862.331	58.03
862.505	33.45
862.679	-32.08
862.853	8.87
863.027	-54.61
863.201	12.97
863.375	-27.99
863.549	101.03
863.722	-1.37
863.896	45.74
864.07	31.4
864.244	-9.56
864.418	66.22
864.592	25.26
864.766	35.5
864.939	37.55
865.113	-7.51
865.287	19.11
865.461	-62.8
865.634	53.93
865.808	-56.66
865.982	53.93
866.156	19.11
866.329	17.07
866.503	-52.56
866.676	105.13
866.85	82.6
867.024	-71
867.197	33.45
867.371	53.93
867.544	-19.8
867.718	43.69
867.891	10.92
868.065	39.59
868.238	-25.94
868.412	8.87
868.585	17.07
868.759	-23.89
868.932	17.07
869.105	-23.89
869.279	25.26
869.452	29.35
869.625	84.65
869.799	17.07
869.972	-9.56
870.145	0.68
870.319	39.59
870.492	-36.18
870.665	51.88
870.838	51.88
871.011	-87.38
871.185	-3.41
871.358	-64.85
871.531	47.79
871.704	19.11
871.877	41.64
872.05	-19.8
872.223	23.21
872.396	12.97
872.569	12.97
872.742	12.97
872.915	2.73
873.088	37.55
873.261	-38.23
873.434	6.83
873.607	60.07
873.78	55.98
873.953	4.78
874.126	90.79
874.299	17.07
874.471	8.87
874.644	-50.52
874.817	29.35
874.99	55.98
875.163	-50.52
875.335	29.35
875.508	70.31
875.681	47.79
875.853	-62.8
876.026	17.07
876.199	19.11
876.371	-23.89
876.544	62.12
876.717	17.07
876.889	37.55
877.062	21.16
877.234	-87.38
877.407	-21.85
877.579	15.02
877.752	-5.46
877.924	60.07
878.097	43.69
878.269	21.16
878.442	8.87
878.614	70.31
878.786	4.78
878.959	47.79
879.131	17.07
879.303	-38.23
879.476	12.97
879.648	43.69
879.82	62.12
879.993	-38.23
880.165	25.26
880.337	-32.08
880.509	-7.51
880.681	-36.18
880.854	-3.41
881.026	35.5
881.198	49.83
881.37	21.16
881.542	-56.66
881.714	6.83
881.886	-44.37
882.058	58.03
882.23	-56.66
882.402	0.68
882.574	-3.41
882.746	15.02
882.918	105.13
883.09	15.02
883.262	62.12
883.434	-40.28
883.606	-7.51
883.778	-21.85
883.95	58.03
884.122	-30.04
884.293	-38.23
884.465	-32.08
884.637	-3.41
884.809	-87.38
884.98	2.73
885.152	-9.56
885.324	10.92
885.496	-19.8
885.667	62.12
885.839	-48.47
886.011	123.56
886.182	2.73
886.354	-5.46
886.525	33.45
886.697	-9.56
886.869	27.31
887.04	-5.46
887.212	62.12
887.383	33.45
887.555	-27.99
887.726	-36.18
887.897	8.87
888.069	-21.85
888.24	49.83
888.412	2.73
888.583	-27.99
888.754	-27.99
888.926	-15.7
889.097	25.26
889.268	-19.8
889.44	0.68
889.611	0.68
889.782	41.64
889.953	8.87
890.125	43.69
890.296	-73.04
890.467	-56.66
890.638	4.78
890.809	0.68
890.98	-30.04
891.151	8.87
891.323	33.45
891.494	-21.85
891.665	10.92
891.836	-1.37
892.007	-27.99
892.178	25.26
892.349	62.12
892.52	-38.23
892.691	103.08
892.862	35.5
893.032	-3.41
893.203	-7.51
893.374	-1.37
893.545	45.74
893.716	-3.41
893.887	35.5
894.057	12.97
894.228	-19.8
894.399	-36.18
894.57	-40.28
894.74	-46.42
894.911	-7.51
895.082	33.45
895.253	-38.23
895.423	21.16
895.594	17.07
895.764	-11.61
895.935	-9.56
896.106	10.92
896.276	-7.51
896.447	49.83
896.617	-19.8
896.788	45.74
896.958	-7.51
897.129	19.11
897.299	25.26
897.47	66.22
897.64	43.69
897.81	-40.28
897.981	43.69
898.151	-36.18
898.322	60.07
898.492	29.35
898.662	-32.08
898.832	29.35
899.003	-13.65
899.173	-17.75
899.343	15.02
899.513	4.78
