Data from USB4F104151__206__14-20-39-963.txt Node

Date: Thu Mar 13 14:20:39 EDT 2025
User: louis
Spectrometer: USB4F10415
Trigger mode: 4
Integration Time (sec): 2.000000E-2
Scans to average: 1
Electric dark correction enabled: true
Nonlinearity correction enabled: false
Boxcar width: 0
XAxis mode: Wavelengths
Number of Pixels in Spectrum: 3648
>>>>>Begin Spectral Data<<<<<
178.204	-133.63
178.424	-133.63
178.644	-133.63
178.864	-84.48
179.084	-76.29
179.304	5.63
179.524	-25.09
179.744	-29.18
179.964	3.58
180.184	40.45
180.404	3.58
180.624	-0.51
180.844	3.58
181.064	-12.8
181.283	-27.14
181.503	46.59
181.723	-8.7
181.943	-51.71
182.163	85.5
182.383	73.21
182.602	44.54
182.822	34.3
183.042	73.21
183.262	11.78
183.482	34.3
183.701	-8.7
183.921	19.97
184.141	-37.38
184.361	13.82
184.58	22.02
184.8	36.35
185.02	-0.51
185.239	38.4
185.459	-0.51
185.679	24.06
185.898	32.26
186.118	60.93
186.338	48.64
186.557	81.41
186.777	44.54
186.997	-27.14
187.216	22.02
187.436	73.21
187.655	75.26
187.875	44.54
188.095	-6.66
188.314	52.74
188.534	85.5
188.753	52.74
188.973	32.26
189.192	77.31
189.412	77.31
189.631	32.26
189.851	38.4
190.07	62.98
190.29	-2.56
190.509	19.97
190.729	67.07
190.948	69.12
191.168	120.32
191.387	52.74
191.607	44.54
191.826	65.02
192.045	30.21
192.265	-27.14
192.484	-43.52
192.704	-8.7
192.923	71.17
193.142	120.32
193.362	112.13
193.581	101.89
193.8	73.21
194.02	52.74
194.239	60.93
194.458	54.78
194.678	62.98
194.897	56.83
195.116	40.45
195.335	-18.94
195.555	62.98
195.774	-12.8
195.993	-31.23
196.212	24.06
196.432	-92.67
196.651	11.78
196.87	-4.61
197.089	40.45
197.308	-0.51
197.528	46.59
197.747	11.78
197.966	15.87
198.185	60.93
198.404	30.21
198.623	-12.8
198.842	52.74
199.062	-10.75
199.281	52.74
199.5	26.11
199.719	40.45
199.938	69.12
200.157	44.54
200.376	-2.56
200.595	97.79
200.814	-31.23
201.033	5.63
201.252	52.74
201.471	130.56
201.69	30.21
201.909	-43.52
202.128	65.02
202.347	71.17
202.566	-6.66
202.785	-25.09
203.004	22.02
203.223	87.55
203.442	-31.23
203.661	-18.94
203.879	58.88
204.098	60.93
204.317	-4.61
204.536	-16.9
204.755	9.73
204.974	52.74
205.193	62.98
205.411	15.87
205.63	-53.76
205.849	52.74
206.068	87.55
206.287	-37.38
206.505	36.35
206.724	28.16
206.943	38.4
207.162	62.98
207.381	44.54
207.599	65.02
207.818	-10.75
208.037	-0.51
208.255	60.93
208.474	-16.9
208.693	38.4
208.911	73.21
209.13	97.79
209.349	42.5
209.567	50.69
209.786	36.35
210.005	52.74
210.223	24.06
210.442	-37.38
210.661	69.12
210.879	69.12
211.098	7.68
211.316	17.92
211.535	71.17
211.753	13.82
211.972	75.26
212.191	62.98
212.409	79.36
212.628	26.11
212.846	11.78
213.065	81.41
213.283	97.79
213.502	17.92
213.72	48.64
213.938	-0.51
214.157	65.02
214.375	56.83
214.594	-10.75
214.812	56.83
215.031	36.35
215.249	22.02
215.467	17.92
215.686	11.78
215.904	46.59
216.122	19.97
216.341	52.74
216.559	87.55
216.778	11.78
216.996	30.21
217.214	-6.66
217.432	-4.61
217.651	-41.47
217.869	93.69
218.087	-10.75
218.306	28.16
218.524	40.45
218.742	28.16
218.96	-41.47
219.179	32.26
219.397	103.93
219.615	97.79
219.833	46.59
220.051	-29.18
220.27	87.55
220.488	56.83
220.706	122.37
220.924	17.92
221.142	22.02
221.36	-20.99
221.578	73.21
221.796	-12.8
222.015	28.16
222.233	30.21
222.451	-31.23
222.669	5.63
222.887	19.97
223.105	15.87
223.323	97.79
223.541	-29.18
223.759	75.26
223.977	60.93
224.195	32.26
224.413	17.92
224.631	3.58
224.849	46.59
225.067	40.45
225.285	-41.47
225.503	60.93
225.721	-16.9
225.939	54.78
226.157	60.93
226.375	40.45
226.592	-12.8
226.81	46.59
227.028	128.51
227.246	81.41
227.464	-49.66
227.682	75.26
227.9	142.85
228.117	38.4
228.335	-4.61
228.553	-2.56
228.771	77.31
228.989	-18.94
229.206	9.73
229.424	-10.75
229.642	40.45
229.86	-4.61
230.077	52.74
230.295	65.02
230.513	28.16
230.731	85.5
230.948	165.37
231.166	118.27
231.384	44.54
231.601	7.68
231.819	40.45
232.037	46.59
232.254	-4.61
232.472	-16.9
232.689	36.35
232.907	97.79
233.125	110.08
233.342	26.11
233.56	5.63
233.777	54.78
233.995	3.58
234.213	19.97
234.43	3.58
234.648	38.4
234.865	48.64
235.083	97.79
235.3	44.54
235.518	124.41
235.735	56.83
235.953	46.59
236.17	52.74
236.388	-8.7
236.605	24.06
236.822	110.08
237.04	36.35
237.257	42.5
237.475	62.98
237.692	1.54
237.909	62.98
238.127	-18.94
238.344	48.64
238.562	40.45
238.779	24.06
238.996	-12.8
239.214	36.35
239.431	142.85
239.648	-68.09
239.865	110.08
240.083	44.54
240.3	58.88
240.517	-6.66
240.735	46.59
240.952	126.46
241.169	114.17
241.386	15.87
241.603	22.02
241.821	-6.66
242.038	95.74
242.255	44.54
242.472	28.16
242.689	126.46
242.907	42.5
243.124	15.87
243.341	28.16
243.558	28.16
243.775	44.54
243.992	11.78
244.209	58.88
244.426	85.5
244.643	26.11
244.86	79.36
245.078	60.93
245.295	15.87
245.512	13.82
245.729	24.06
245.946	-0.51
246.163	36.35
246.38	3.58
246.597	85.5
246.814	38.4
247.031	-12.8
247.248	93.69
247.464	58.88
247.681	54.78
247.898	44.54
248.115	54.78
248.332	-2.56
248.549	22.02
248.766	83.45
248.983	81.41
249.2	73.21
249.417	3.58
249.633	-4.61
249.85	87.55
250.067	28.16
250.284	101.89
250.501	60.93
250.717	77.31
250.934	7.68
251.151	15.87
251.368	48.64
251.585	24.06
251.801	9.73
252.018	42.5
252.235	71.17
252.451	-6.66
252.668	24.06
252.885	-68.09
253.102	112.13
253.318	9.73
253.535	42.5
253.752	101.89
253.968	42.5
254.185	30.21
254.401	99.84
254.618	62.98
254.835	114.17
255.051	50.69
255.268	24.06
255.484	52.74
255.701	15.87
255.917	22.02
256.134	-16.9
256.351	32.26
256.567	13.82
256.784	52.74
257	-31.23
257.217	13.82
257.433	77.31
257.65	7.68
257.866	28.16
258.082	-12.8
258.299	-29.18
258.515	40.45
258.732	11.78
258.948	54.78
259.165	-10.75
259.381	22.02
259.597	44.54
259.814	13.82
260.03	50.69
260.246	85.5
260.463	69.12
260.679	28.16
260.895	22.02
261.112	97.79
261.328	-33.28
261.544	26.11
261.761	28.16
261.977	32.26
262.193	32.26
262.409	54.78
262.626	11.78
262.842	69.12
263.058	13.82
263.274	-41.47
263.49	-4.61
263.707	138.75
263.923	69.12
264.139	-20.99
264.355	7.68
264.571	56.83
264.787	103.93
265.004	44.54
265.22	32.26
265.436	13.82
265.652	44.54
265.868	-12.8
266.084	22.02
266.3	73.21
266.516	28.16
266.732	-25.09
266.948	11.78
267.164	3.58
267.38	58.88
267.596	17.92
267.812	112.13
268.028	15.87
268.244	71.17
268.46	40.45
268.676	11.78
268.892	30.21
269.108	5.63
269.324	-4.61
269.54	85.5
269.756	48.64
269.972	-68.09
270.188	15.87
270.403	60.93
270.619	163.33
270.835	52.74
271.051	17.92
271.267	19.97
271.483	60.93
271.698	87.55
271.914	-4.61
272.13	60.93
272.346	22.02
272.562	11.78
272.777	60.93
272.993	81.41
273.209	26.11
273.425	40.45
273.64	19.97
273.856	56.83
274.072	54.78
274.287	13.82
274.503	118.27
274.719	65.02
274.934	30.21
275.15	38.4
275.366	62.98
275.581	46.59
275.797	44.54
276.012	24.06
276.228	60.93
276.444	19.97
276.659	24.06
276.875	44.54
277.09	-20.99
277.306	36.35
277.521	128.51
277.737	-12.8
277.952	93.69
278.168	48.64
278.383	38.4
278.599	9.73
278.814	15.87
279.03	-8.7
279.245	85.5
279.461	22.02
279.676	-4.61
279.892	5.63
280.107	38.4
280.322	7.68
280.538	17.92
280.753	46.59
280.969	40.45
281.184	36.35
281.399	42.5
281.615	22.02
281.83	81.41
282.045	13.82
282.26	19.97
282.476	5.63
282.691	97.79
282.906	32.26
283.122	85.5
283.337	62.98
283.552	48.64
283.767	56.83
283.983	85.5
284.198	46.59
284.413	60.93
284.628	26.11
284.843	17.92
285.058	22.02
285.274	79.36
285.489	13.82
285.704	22.02
285.919	48.64
286.134	69.12
286.349	42.5
286.564	44.54
286.779	50.69
286.995	52.74
287.21	60.93
287.425	65.02
287.64	-4.61
287.855	54.78
288.07	48.64
288.285	17.92
288.5	114.17
288.715	56.83
288.93	62.98
289.145	28.16
289.36	42.5
289.575	54.78
289.79	-4.61
290.004	19.97
290.219	56.83
290.434	32.26
290.649	46.59
290.864	11.78
291.079	73.21
291.294	175.61
291.509	60.93
291.724	11.78
291.938	19.97
292.153	87.55
292.368	26.11
292.583	62.98
292.798	52.74
293.012	58.88
293.227	15.87
293.442	77.31
293.657	85.5
293.871	138.75
294.086	105.98
294.301	130.56
294.516	-2.56
294.73	38.4
294.945	114.17
295.16	52.74
295.374	11.78
295.589	93.69
295.804	77.31
296.018	60.93
296.233	54.78
296.447	-29.18
296.662	11.78
296.877	112.13
297.091	52.74
297.306	89.6
297.52	52.74
297.735	42.5
297.949	46.59
298.164	75.26
298.378	73.21
298.593	67.07
298.807	13.82
299.022	-6.66
299.236	89.6
299.451	26.11
299.665	-0.51
299.88	38.4
300.094	15.87
300.309	58.88
300.523	11.78
300.737	5.63
300.952	77.31
301.166	28.16
301.381	60.93
301.595	3.58
301.809	48.64
302.024	46.59
302.238	50.69
302.452	85.5
302.667	79.36
302.881	95.74
303.095	103.93
303.309	87.55
303.524	67.07
303.738	32.26
303.952	54.78
304.166	112.13
304.381	36.35
304.595	122.37
304.809	17.92
305.023	120.32
305.237	69.12
305.452	85.5
305.666	120.32
305.88	95.74
306.094	67.07
306.308	97.79
306.522	112.13
306.736	52.74
306.95	19.97
307.164	-4.61
307.379	44.54
307.593	11.78
307.807	116.22
308.021	42.5
308.235	3.58
308.449	38.4
308.663	11.78
308.877	99.84
309.091	85.5
309.305	136.7
309.519	97.79
309.733	134.65
309.947	-16.9
310.161	118.27
310.374	85.5
310.588	32.26
310.802	11.78
311.016	71.17
311.23	60.93
311.444	-20.99
311.658	83.45
311.872	101.89
312.085	7.68
312.299	42.5
312.513	60.93
312.727	34.3
312.941	71.17
313.154	-2.56
313.368	69.12
313.582	32.26
313.796	118.27
314.009	32.26
314.223	58.88
314.437	116.22
314.651	77.31
314.864	-16.9
315.078	19.97
315.292	-12.8
315.505	-20.99
315.719	36.35
315.933	-102.91
316.146	-59.9
316.36	42.5
316.573	118.27
316.787	-2.56
317.001	52.74
317.214	-94.72
317.428	56.83
317.641	40.45
317.855	-4.61
318.068	69.12
318.282	19.97
318.495	40.45
318.709	85.5
318.922	28.16
319.136	93.69
319.349	73.21
319.563	19.97
319.776	32.26
319.99	77.31
320.203	24.06
320.417	-4.61
320.63	52.74
320.843	122.37
321.057	44.54
321.27	44.54
321.483	44.54
321.697	48.64
321.91	81.41
322.124	60.93
322.337	56.83
322.55	44.54
322.763	77.31
322.977	62.98
323.19	36.35
323.403	24.06
323.617	38.4
323.83	19.97
324.043	44.54
324.256	38.4
324.469	36.35
324.683	87.55
324.896	69.12
325.109	34.3
325.322	28.16
325.535	112.13
325.748	79.36
325.962	22.02
326.175	44.54
326.388	-27.14
326.601	85.5
326.814	44.54
327.027	112.13
327.24	79.36
327.453	48.64
327.666	50.69
327.879	44.54
328.092	36.35
328.305	26.11
328.518	83.45
328.731	52.74
328.944	34.3
329.157	32.26
329.37	24.06
329.583	108.03
329.796	34.3
330.009	58.88
330.222	44.54
330.435	-2.56
330.648	28.16
330.861	5.63
331.073	-25.09
331.286	-2.56
331.499	75.26
331.712	67.07
331.925	89.6
332.138	44.54
332.35	142.85
332.563	69.12
332.776	44.54
332.989	5.63
333.202	24.06
333.414	79.36
333.627	79.36
333.84	60.93
334.053	132.61
334.265	-2.56
334.478	83.45
334.691	15.87
334.903	13.82
335.116	-0.51
335.329	89.6
335.541	-59.9
335.754	91.65
335.966	69.12
336.179	36.35
336.392	75.26
336.604	28.16
336.817	36.35
337.029	24.06
337.242	52.74
337.454	-8.7
337.667	24.06
337.88	54.78
338.092	91.65
338.305	56.83
338.517	24.06
338.729	32.26
338.942	62.98
339.154	-12.8
339.367	1.54
339.579	126.46
339.792	24.06
340.004	1.54
340.217	71.17
340.429	120.32
340.641	-10.75
340.854	67.07
341.066	40.45
341.278	69.12
341.491	46.59
341.703	24.06
341.915	-4.61
342.128	60.93
342.34	38.4
342.552	26.11
342.764	15.87
342.977	-4.61
343.189	-6.66
343.401	73.21
343.613	60.93
343.826	13.82
344.038	44.54
344.25	126.46
344.462	17.92
344.674	54.78
344.886	89.6
345.099	77.31
345.311	103.93
345.523	62.98
345.735	36.35
345.947	62.98
346.159	54.78
346.371	95.74
346.583	56.83
346.795	101.89
347.007	40.45
347.219	99.84
347.431	54.78
347.643	103.93
347.855	3.58
348.067	175.61
348.279	38.4
348.491	54.78
348.703	75.26
348.915	71.17
349.127	46.59
349.339	32.26
349.551	19.97
349.763	81.41
349.975	69.12
350.187	38.4
350.399	1.54
350.61	3.58
350.822	97.79
351.034	93.69
351.246	101.89
351.458	48.64
351.669	54.78
351.881	69.12
352.093	138.75
352.305	114.17
352.517	48.64
352.728	75.26
352.94	-10.75
353.152	30.21
353.363	79.36
353.575	44.54
353.787	89.6
353.999	73.21
354.21	97.79
354.422	54.78
354.633	19.97
354.845	30.21
355.057	89.6
355.268	118.27
355.48	112.13
355.692	50.69
355.903	17.92
356.115	85.5
356.326	79.36
356.538	54.78
356.749	105.98
356.961	89.6
357.172	52.74
357.384	79.36
357.595	89.6
357.807	58.88
358.018	28.16
358.23	22.02
358.441	93.69
358.653	110.08
358.864	85.5
359.075	15.87
359.287	79.36
359.498	85.5
359.709	75.26
359.921	77.31
360.132	65.02
360.344	79.36
360.555	56.83
360.766	69.12
360.977	44.54
361.189	142.85
361.4	118.27
361.611	77.31
361.823	118.27
362.034	3.58
362.245	62.98
362.456	60.93
362.667	60.93
362.879	81.41
363.09	28.16
363.301	120.32
363.512	105.98
363.723	40.45
363.935	7.68
364.146	112.13
364.357	-10.75
364.568	56.83
364.779	22.02
364.99	30.21
365.201	44.54
365.412	44.54
365.623	11.78
365.834	118.27
366.045	32.26
366.256	52.74
366.467	52.74
366.678	40.45
366.889	44.54
367.1	56.83
367.311	93.69
367.522	56.83
367.733	44.54
367.944	69.12
368.155	-4.61
368.366	54.78
368.577	52.74
368.788	144.89
368.999	36.35
369.209	95.74
369.42	101.89
369.631	134.65
369.842	116.22
370.053	93.69
370.264	126.46
370.474	105.98
370.685	62.98
370.896	7.68
371.107	110.08
371.317	77.31
371.528	105.98
371.739	103.93
371.95	69.12
372.16	73.21
372.371	62.98
372.582	19.97
372.792	52.74
373.003	60.93
373.214	13.82
373.424	134.65
373.635	67.07
373.846	112.13
374.056	71.17
374.267	44.54
374.477	171.52
374.688	-4.61
374.898	93.69
375.109	108.03
375.319	110.08
375.53	79.36
375.74	56.83
375.951	60.93
376.161	65.02
376.372	93.69
376.582	40.45
376.793	28.16
377.003	28.16
377.214	62.98
377.424	65.02
377.635	24.06
377.845	44.54
378.055	69.12
378.266	38.4
378.476	93.69
378.686	42.5
378.897	87.55
379.107	110.08
379.317	73.21
379.528	52.74
379.738	30.21
379.948	-12.8
380.158	138.75
380.369	17.92
380.579	34.3
380.789	44.54
380.999	79.36
381.21	138.75
381.42	97.79
381.63	11.78
381.84	87.55
382.05	93.69
382.261	101.89
382.471	48.64
382.681	11.78
382.891	71.17
383.101	81.41
383.311	36.35
383.521	26.11
383.731	62.98
383.941	120.32
384.151	42.5
384.361	34.3
384.571	65.02
384.781	126.46
384.991	110.08
385.201	132.61
385.411	69.12
385.621	56.83
385.831	85.5
386.041	30.21
386.251	101.89
386.461	159.23
386.671	19.97
386.881	77.31
387.091	110.08
387.301	132.61
387.511	52.74
387.72	46.59
387.93	69.12
388.14	7.68
388.35	95.74
388.56	116.22
388.769	73.21
388.979	73.21
389.189	-16.9
389.399	91.65
389.609	85.5
389.818	85.5
390.028	62.98
390.238	36.35
390.447	19.97
390.657	73.21
390.867	101.89
391.076	85.5
391.286	-8.7
391.496	50.69
391.705	128.51
391.915	159.23
392.125	101.89
392.334	71.17
392.544	142.85
392.753	120.32
392.963	114.17
393.172	118.27
393.382	85.5
393.591	151.04
393.801	77.31
394.01	103.93
394.22	134.65
394.429	142.85
394.639	69.12
394.848	65.02
395.058	99.84
395.267	134.65
395.477	93.69
395.686	101.89
395.895	136.7
396.105	87.55
396.314	52.74
396.524	77.31
396.733	65.02
396.942	159.23
397.152	118.27
397.361	151.04
397.57	159.23
397.78	87.55
397.989	128.51
398.198	171.52
398.407	58.88
398.617	163.33
398.826	101.89
399.035	112.13
399.244	144.89
399.453	157.18
399.663	192
399.872	200.19
400.081	93.69
400.29	183.81
400.499	103.93
400.708	138.75
400.917	69.12
401.127	151.04
401.336	97.79
401.545	192
401.754	175.61
401.963	208.38
402.172	134.65
402.381	52.74
402.59	128.51
402.799	159.23
403.008	208.38
403.217	224.76
403.426	167.42
403.635	120.32
403.844	138.75
404.053	179.71
404.262	151.04
404.471	175.61
404.68	159.23
404.888	118.27
405.097	118.27
405.306	257.53
405.515	167.42
405.724	192
405.933	224.76
406.142	194.05
406.35	167.42
406.559	153.09
406.768	202.24
406.977	241.15
407.185	275.96
407.394	228.86
407.603	208.38
407.812	282.11
408.02	394.75
408.229	241.15
408.438	282.11
408.646	259.58
408.855	380.41
409.064	400.89
409.272	325.12
409.481	388.6
409.69	359.93
409.898	364.03
410.107	321.02
410.315	443.9
410.524	413.18
410.733	421.37
410.941	396.79
411.15	450.04
411.358	560.63
411.567	486.9
411.775	601.59
411.984	513.53
412.192	544.25
412.401	527.86
412.609	617.97
412.818	577.02
413.026	622.07
413.234	591.35
413.443	667.13
413.651	691.7
413.86	736.76
414.068	734.71
414.276	785.91
414.485	806.39
414.693	857.59
414.901	867.83
415.11	916.98
415.318	896.5
415.526	968.18
415.734	1068.53
415.943	996.85
416.151	1060.34
416.359	1043.95
416.567	959.99
416.776	1177.07
416.984	1172.97
417.192	1261.04
417.4	1267.18
417.608	1289.71
417.817	1367.53
418.025	1297.9
418.233	1500.65
418.441	1453.55
418.649	1482.22
418.857	1682.92
419.065	1693.16
419.273	1623.53
419.481	1816.04
419.689	1945.06
419.897	1834.47
420.105	1940.96
420.313	1971.68
420.521	2100.7
420.729	2045.41
420.937	2174.43
421.145	2180.57
421.353	2366.94
421.561	2424.28
421.769	2518.49
421.977	2584.02
422.185	2579.93
422.393	2772.44
422.601	2913.75
422.809	2891.22
423.017	2997.71
423.224	3030.48
423.432	3175.89
423.64	3282.38
423.848	3397.07
424.056	3237.33
424.263	3575.24
424.471	3657.16
424.679	3714.5
424.887	3952.07
425.094	3995.08
425.302	4212.16
425.51	4156.86
425.718	4425.15
425.925	4412.86
426.133	4498.88
426.341	4808.12
426.548	4967.86
426.756	4926.9
426.964	4996.53
427.171	5283.25
427.379	5494.19
427.586	5688.75
427.794	5819.82
428.001	5997.99
428.209	6397.34
428.417	6165.92
428.624	6600.09
428.832	6686.11
429.039	6727.07
429.247	6565.28
429.454	7196.05
429.662	7650.7
429.869	7214.48
430.076	7720.33
430.284	7447.95
430.491	7822.73
430.699	8158.6
430.906	8250.75
431.114	8277.38
431.321	8588.67
431.528	8916.34
431.736	9317.75
431.943	9835.88
432.15	9301.36
432.358	9577.84
432.565	10077.54
432.772	10284.39
432.979	10835.29
433.187	10591.58
433.394	10806.62
433.601	11578.7
433.808	11707.73
434.016	11537.74
434.223	11875.66
434.43	12690.75
434.637	12488
434.844	13260.09
435.052	13503.79
435.259	13270.33
435.466	13509.94
435.673	13505.84
435.88	14232.87
436.087	14968.09
436.294	15023.39
436.501	14664.99
436.708	15007
436.915	15271.19
437.122	16274.7
437.329	16063.75
437.537	16686.34
437.743	17024.25
437.95	16751.87
438.157	17532.15
438.364	18451.69
438.571	18154.73
438.778	18263.27
438.985	19834.07
439.192	18992.35
439.399	19748.05
439.606	19363.03
439.813	20477.13
440.02	21832.88
440.227	21331.13
440.433	21007.55
440.64	21580.98
440.847	21343.42
441.054	22191.28
441.261	23129.25
441.467	23166.11
441.674	23594.14
441.881	24650.89
442.088	24583.3
442.294	24562.83
442.501	24980.61
442.708	25549.95
442.914	26082.42
443.121	27352.16
443.328	26600.55
443.534	28372.05
443.741	27808.86
443.948	27391.07
444.154	29570.11
444.361	29119.56
444.568	29240.39
444.774	29240.39
444.981	29719.61
445.187	30626.86
445.394	32113.69
445.6	31421.47
445.807	34540.53
446.013	32801.8
446.22	33342.47
446.426	34583.54
446.633	34874.35
446.839	36262.87
447.046	34546.67
447.252	36547.54
447.459	36514.77
447.665	36297.69
447.871	38210.49
448.078	39859.1
448.284	37884.86
448.491	38874.03
448.697	40514.45
448.903	41042.83
449.11	40868.75
449.316	40235.93
449.522	41204.62
449.728	41763.71
449.935	42650.49
450.141	42838.9
450.347	43043.7
450.553	42230.65
450.76	42740.6
450.966	43783.01
451.172	43346.79
451.378	44516.18
451.584	43602.79
451.791	44893.01
451.997	44704.6
452.203	45511.5
452.409	45091.66
452.615	45058.9
452.821	43422.57
453.027	43199.34
453.233	45458.25
453.44	44055.39
453.646	44372.83
453.852	43787.11
454.058	45065.04
454.264	43342.7
454.47	44553.05
454.676	43303.79
454.882	44757.85
455.088	41278.35
455.294	41802.63
455.5	42523.51
455.705	43164.53
455.911	40868.75
456.117	40377.24
456.323	40166.3
456.529	37807.04
456.735	39433.13
456.941	38335.42
457.147	37675.97
457.352	36883.41
457.558	36576.21
457.764	36197.34
457.97	35902.43
458.176	35019.75
458.381	34984.94
458.587	33152.01
458.793	33405.95
458.999	31101.99
459.204	33707.01
459.41	32855.05
459.616	30970.92
459.821	30905.38
460.027	30655.53
460.233	29959.22
460.438	28613.71
460.644	29246.53
460.85	27202.66
461.055	26963.04
461.261	26803.3
461.466	24802.44
461.672	24233.1
461.878	26092.66
462.083	24138.9
462.289	23995.54
462.494	23800.98
462.7	22531.24
462.905	22119.6
463.111	22754.47
463.316	22815.91
463.522	22342.83
463.727	22260.91
463.932	22351.02
464.138	21904.56
464.343	22088.88
464.549	21488.82
464.754	22240.43
464.959	22162.61
465.165	21826.74
465.37	20907.2
465.575	20595.91
465.781	21228.73
465.986	21472.44
466.191	20481.22
466.397	20219.08
466.602	19117.28
466.807	20090.06
467.012	19918.03
467.218	19834.07
467.423	19567.83
467.628	19922.13
467.833	20759.75
468.038	19991.76
468.244	19184.86
468.449	19719.38
468.654	19311.83
468.859	19350.74
469.064	18709.73
469.269	18183.4
469.474	18656.48
469.679	18773.22
469.885	18222.31
470.09	18588.9
470.295	18400.49
470.5	17708.27
470.705	18076.91
470.91	17554.68
471.115	17319.16
471.32	17659.12
471.525	17747.19
471.73	17095.93
471.935	16997.63
472.139	16493.83
472.344	16772.35
472.549	16530.69
472.754	16444.68
472.959	16010.51
473.164	15584.53
473.369	15836.43
473.574	16299.27
473.778	16071.95
473.983	15938.83
474.188	15987.98
474.393	15076.63
474.598	14988.57
474.802	14910.75
475.007	14937.37
475.212	14791.97
475.417	14568.74
475.621	14288.17
475.826	14439.72
476.031	14146.86
476.235	14140.71
476.44	14015.79
476.645	13614.38
476.849	13747.5
477.054	13618.48
477.259	13419.83
477.463	13456.69
477.668	12987.71
477.872	13266.23
478.077	13065.53
478.282	12821.82
478.486	12670.27
478.691	12467.52
478.895	12694.85
479.1	12479.81
479.304	12451.14
479.509	11937.1
479.713	12303.68
479.918	12217.67
480.122	11760.97
480.326	12283.2
480.531	12029.26
480.735	12049.74
480.94	11701.58
481.144	11992.39
481.348	11341.14
481.553	11670.86
481.757	11416.91
481.961	11619.66
482.166	11720.01
482.37	11629.9
482.574	11244.88
482.778	11631.95
482.983	11570.51
483.187	11545.94
483.391	11545.94
483.595	11246.93
483.8	11328.85
484.004	11470.16
484.208	11539.79
484.412	11480.4
484.616	11746.64
484.821	11447.63
485.025	11267.41
485.229	11603.28
485.433	11392.34
485.637	11371.86
485.841	11382.1
486.045	11173.21
486.249	11308.37
486.453	11257.17
486.657	11312.47
486.861	11380.05
487.065	11062.62
487.269	11316.56
487.473	11275.6
487.677	11724.11
487.881	11730.25
488.085	11199.83
488.289	11672.91
488.493	11203.93
488.697	11459.92
488.901	11605.33
489.105	11449.68
489.309	11613.52
489.512	11507.02
489.716	11654.48
489.92	11554.13
490.124	11658.57
490.328	11689.29
490.531	11611.47
490.735	11801.93
490.939	11668.81
491.143	11865.42
491.346	11679.05
491.55	11928.91
491.754	11756.88
491.958	11994.44
492.161	11939.15
492.365	12084.55
492.569	11992.39
492.772	12076.36
492.976	12102.98
493.18	12250.44
493.383	12410.18
493.587	12494.15
493.79	12414.27
493.994	12326.21
494.197	12430.66
494.401	12547.39
494.605	12580.16
494.808	12598.59
495.012	12789.05
495.215	12997.95
495.419	12944.7
495.622	13086.01
495.825	13110.58
496.029	13161.78
496.232	13511.99
496.436	13554.99
496.639	13868.33
496.843	13532.47
497.046	14042.41
497.249	14064.94
497.453	14175.53
497.656	14306.6
497.859	14077.23
498.063	14132.52
498.266	14525.73
498.469	14685.47
498.673	14714.14
498.876	14939.42
499.079	15078.68
499.282	15121.69
499.485	15709.46
499.689	15461.65
499.892	15805.71
500.095	15969.55
500.298	16188.68
500.501	16026.89
500.705	16577.8
500.908	16678.15
501.111	16798.98
501.314	16870.65
501.517	17106.17
501.72	17480.95
501.923	17358.07
502.126	17497.33
502.329	17915.12
502.532	18087.15
502.735	18212.07
502.938	18593
503.141	18656.48
503.344	18812.13
503.547	18926.82
503.75	19133.66
503.953	19504.34
504.156	19510.49
504.359	19952.85
504.562	19657.94
504.765	20448.46
504.968	20247.76
505.17	20757.7
505.373	20729.03
505.576	21206.2
505.779	21093.57
505.982	21480.63
506.185	21853.36
506.387	21623.99
506.59	22160.56
506.793	22322.35
506.996	22672.55
507.198	23022.75
507.401	22936.74
507.604	22975.65
507.807	23596.18
508.009	23827.6
508.212	24046.74
508.415	24415.37
508.617	24462.47
508.82	24571.02
509.022	24564.87
509.225	25310.33
509.428	25173.12
509.63	25517.18
509.833	25885.81
510.035	26528.88
510.238	26229.87
510.44	26403.95
510.643	26772.58
510.845	26973.28
511.048	26965.09
511.25	27452.51
511.453	27282.53
511.655	28652.62
511.858	28036.18
512.06	28746.83
512.262	28636.24
512.465	28370
512.667	29137.99
512.87	29144.13
513.072	29480
513.274	30225.46
513.477	30559.28
513.679	30436.4
513.881	30684.2
514.084	31171.62
514.286	30944.3
514.488	31294.5
514.69	32046.1
514.893	31974.42
515.095	32072.73
515.297	32361.49
515.499	32836.62
515.701	33135.62
515.904	33422.34
516.106	33483.78
516.308	34159.61
516.51	34116.6
516.712	34368.5
516.914	34833.39
517.116	35099.62
517.318	35316.71
517.52	35767.26
517.722	35822.56
517.925	35959.77
518.127	36512.72
518.329	36957.13
518.531	36660.18
518.733	37327.81
518.935	37266.38
519.136	37583.81
519.338	38331.32
519.54	38177.72
519.742	38556.6
519.944	38745.01
520.146	39207.85
520.348	39271.34
520.55	39551.91
520.752	39779.23
520.954	40579.99
521.155	40268.7
521.357	40954.77
521.559	41102.22
521.761	41427.85
521.963	41350.03
522.164	41597.83
522.366	41931.65
522.568	42064.77
522.77	42306.43
522.971	42892.15
523.173	42560.37
523.375	42728.31
523.576	43094.89
523.778	42806.13
523.98	43615.08
524.181	43842.4
524.383	44079.97
524.584	44467.03
524.786	44561.24
524.988	44608.34
525.189	44880.72
525.391	45097.81
525.592	44979.03
525.794	45335.37
525.995	45185.87
526.197	45574.98
526.398	45892.42
526.6	45671.24
526.801	45970.24
527.003	46459.71
527.204	45982.53
527.406	46687.03
527.607	46607.16
527.808	47080.24
528.01	46228.29
528.211	47242.03
528.412	47459.12
528.614	47072.05
528.815	46988.08
529.016	47551.27
529.218	47117.11
529.419	47311.66
529.62	47579.95
529.822	46852.92
530.023	47418.16
530.224	47569.71
530.425	47588.14
530.626	47227.7
530.828	47252.27
531.029	48708.38
531.23	47665.96
531.431	48087.84
531.632	47794.98
531.833	48456.48
532.035	48063.27
532.236	47969.06
532.437	48280.35
532.638	48018.21
532.839	48231.2
533.04	48810.78
533.241	47850.28
533.442	49156.88
533.643	48290.59
533.844	48218.91
534.045	48395.04
534.246	47665.96
534.447	48493.34
534.648	48028.45
534.849	48470.81
535.05	48098.08
535.251	48509.72
535.451	48075.55
535.652	48677.66
535.853	48452.38
536.054	48481.05
536.255	48464.67
536.456	48067.36
536.657	48775.96
536.857	48268.06
537.058	48048.93
537.259	48608.03
537.46	48339.74
537.66	48474.91
537.861	48384.8
538.062	48343.84
538.263	48380.7
538.463	47885.09
538.664	48380.7
538.865	48255.78
539.065	48368.41
539.266	47921.96
539.466	48814.87
539.667	47729.45
539.868	48083.75
540.068	48028.45
540.269	47862.57
540.469	48415.52
540.67	47940.39
540.87	48147.23
541.071	47897.38
541.271	48204.58
541.472	47985.44
541.672	47850.28
541.873	47788.84
542.073	47364.91
542.274	48298.78
542.474	47625
542.675	47543.08
542.875	48462.62
543.075	47649.58
543.276	47207.22
543.476	48546.59
543.676	47600.43
543.877	48188.19
544.077	47719.21
544.277	47751.98
544.478	47788.84
544.678	47768.36
544.878	47680.3
545.078	47954.72
545.279	47352.62
545.479	47491.88
545.679	47659.82
545.879	47606.57
546.079	47242.03
546.28	47534.89
546.48	47315.76
546.68	47450.92
546.88	47663.91
547.08	47532.84
547.28	47420.2
547.48	46820.15
547.68	47162.16
547.88	47274.8
548.081	47588.14
548.281	47391.53
548.481	47248.18
548.681	47694.63
548.881	47645.48
549.081	47264.56
549.28	47213.36
549.48	47895.33
549.68	47504.17
549.88	47403.82
550.08	47133.49
550.28	47559.47
550.48	47401.77
550.68	47473.45
550.88	47326
551.08	47053.62
551.279	47512.36
551.479	46943.03
551.679	47465.26
551.879	47096.63
552.079	47180.59
552.278	47139.63
552.478	47194.93
552.678	47020.85
552.878	47536.94
553.077	47475.5
553.277	47178.54
553.477	47563.56
553.676	47098.67
553.876	47067.95
554.076	46740.28
554.275	46834.49
554.475	46175.04
554.674	46920.5
554.874	47133.49
555.074	46601.02
555.273	47024.95
555.473	47147.82
555.672	46822.2
555.872	46576.44
556.071	47102.77
556.271	46953.27
556.47	46732.09
556.67	46357.31
556.869	46353.21
557.068	46725.94
557.268	46631.74
557.467	46392.12
557.667	46564.15
557.866	46631.74
558.065	46457.66
558.265	46197.57
558.464	46000.96
558.663	46269.25
558.863	45673.29
559.062	46793.53
559.261	45857.6
559.461	46545.72
559.66	45486.92
559.859	45876.04
560.058	45794.12
560.258	45966.15
560.457	45177.68
560.656	45982.53
560.855	45294.41
561.054	45806.41
561.253	45171.53
561.453	45658.95
561.652	45589.32
561.851	45761.35
562.05	45022.03
562.249	44780.37
562.448	45769.54
562.647	45157.2
562.846	45538.12
563.045	45251.41
563.244	45022.03
563.443	45359.95
563.642	44759.89
563.841	45022.03
564.04	44542.81
564.239	45183.82
564.438	44843.86
564.637	44733.27
564.836	44997.46
565.035	44397.4
565.234	44802.9
565.432	44077.92
565.631	44383.07
565.83	44591.96
566.029	44352.35
566.228	44110.69
566.427	44264.28
566.625	44034.91
566.824	43529.06
567.023	43809.64
567.222	43289.45
567.42	43697
567.619	43699.05
567.818	43570.02
568.016	43250.54
568.215	43815.78
568.414	43545.45
568.612	43977.57
568.811	43125.61
569.01	43254.64
569.208	42822.51
569.407	43617.13
569.605	42632.05
569.804	43354.99
570.002	42543.99
570.201	43113.33
570.4	42582.9
570.598	42484.6
570.797	42615.67
570.995	42550.13
571.193	42075.01
571.392	42505.08
571.59	41642.88
571.789	42337.15
571.987	42124.16
572.186	41810.82
572.384	42007.42
572.582	42261.37
572.781	42316.67
572.979	41311.11
573.177	41536.39
573.376	41667.46
573.574	41321.35
573.772	41608.07
573.971	40993.68
574.169	40903.57
574.367	41091.98
574.565	41048.97
574.763	40958.86
574.962	40532.89
575.16	40362.9
575.358	40711.06
575.556	39904.16
575.754	40885.14
575.952	40442.77
576.151	40520.6
576.349	39910.3
576.547	39916.45
576.745	40154.01
576.943	40305.56
577.141	39941.02
577.339	39963.55
577.537	39904.16
577.735	39717.79
577.933	39306.15
578.131	39680.93
578.329	39609.25
578.527	38923.18
578.725	39451.56
578.923	39394.21
579.121	38775.73
579.319	39056.3
579.516	38757.3
579.714	38814.64
579.912	38546.36
580.11	38706.1
580.308	38650.8
580.506	38933.42
580.704	38071.23
580.901	38843.31
581.099	38607.79
581.297	38276.02
581.495	38083.51
581.692	38259.64
581.89	37299.14
582.088	38304.7
582.285	37839.81
582.483	38187.96
582.681	37540.8
582.878	37551.04
583.076	37450.69
583.274	37692.35
583.471	36893.65
583.669	37288.9
583.866	37094.35
584.064	36869.07
584.262	36647.89
584.459	37065.67
584.657	36522.96
584.854	36914.12
585.052	36334.55
585.249	36475.86
585.447	36451.28
585.644	36045.79
585.841	36115.42
586.039	36623.31
586.236	35996.63
586.434	35658.72
586.631	35816.41
586.828	35681.25
587.026	35664.86
587.223	35797.98
587.42	35259.37
587.618	35570.66
587.815	35038.19
588.012	34972.65
588.21	34724.85
588.407	35394.53
588.604	35210.21
588.801	34722.8
588.999	34515.95
589.196	34495.47
589.393	34886.64
589.59	34563.06
589.787	34448.37
589.984	34118.65
590.182	34077.69
590.379	34178.04
590.576	34122.74
590.773	34112.5
590.97	33670.14
591.167	33594.37
591.364	33528.83
591.561	33711.1
591.758	33276.93
591.955	33516.54
592.152	33403.91
592.349	33221.64
592.546	33692.67
592.743	33145.86
592.94	32732.17
593.137	32838.67
593.334	32850.95
593.531	32719.88
593.727	32853
593.924	32586.77
594.121	32541.71
594.318	32623.63
594.515	32197.65
594.712	32650.25
594.908	32367.63
595.105	32203.8
595.302	31616.03
595.499	31974.42
595.696	31579.17
595.892	31747.1
596.089	31779.87
596.286	31714.33
596.482	31339.55
596.679	31300.64
596.876	31568.93
597.072	31319.07
597.269	31274.02
597.466	31110.18
597.662	30866.47
597.859	31110.18
598.055	31278.11
598.252	30667.82
598.448	30741.55
598.645	30268.47
598.841	30340.15
599.038	30471.22
599.234	30610.48
599.431	29938.74
599.627	30121.01
599.824	30456.88
600.02	30065.72
600.217	30200.88
600.413	29733.95
600.609	29754.43
600.806	29574.2
601.002	29735.99
601.198	29299.78
601.395	29619.26
601.591	29301.82
601.787	29379.65
601.984	29287.49
602.18	29637.69
602.376	28906.57
602.572	28726.35
602.769	29000.77
602.965	28986.44
603.161	29037.64
603.357	28417.1
603.553	28714.06
603.75	28841.03
603.946	28472.4
604.142	28714.06
604.338	27915.35
604.534	28519.5
604.73	27780.18
604.926	27567.2
605.122	28044.37
605.318	28066.9
605.514	27733.08
605.71	27405.41
605.906	27444.32
606.102	27681.88
606.298	27403.36
606.494	27157.6
606.69	27464.8
606.886	27528.28
607.082	27391.07
607.278	27485.28
607.474	26612.84
607.67	27014.24
607.866	26492.01
608.062	27090.02
608.257	26854.5
608.453	26944.61
608.649	26930.28
608.845	26449
609.041	26850.41
609.236	26442.86
609.432	26661.99
609.628	26674.28
609.824	26463.34
610.019	26559.59
610.215	26449
610.411	26860.65
610.606	26088.56
610.802	26231.92
610.998	26356.85
611.193	26223.73
611.389	26086.51
611.584	26025.07
611.78	25678.97
611.976	26016.88
612.171	25818.23
612.367	25977.97
612.562	26066.03
612.758	25248.89
612.953	25379.96
613.149	25554.04
613.344	25353.34
613.539	25932.92
613.735	25244.8
613.93	25386.11
614.126	25263.23
614.321	25853.05
614.517	25586.81
614.712	25341.05
614.907	25033.86
615.103	25205.89
615.298	25060.48
615.493	25451.64
615.688	24853.64
615.884	25228.42
616.079	24894.6
616.274	25031.81
616.47	24806.53
616.665	25076.87
616.86	24648.84
617.055	24452.23
617.25	24634.5
617.445	24839.3
617.641	24206.48
617.836	24800.39
618.031	24259.73
618.226	24521.87
618.421	23923.86
618.616	24548.49
618.811	24059.02
619.006	24245.39
619.201	23387.29
619.396	24128.66
619.591	23590.04
619.786	23866.52
619.981	23336.09
620.176	23798.93
620.371	23516.31
620.566	23377.05
620.761	23123.1
620.956	23321.76
621.151	22793.38
621.346	23012.51
621.541	22779.04
621.735	22967.46
621.93	22385.83
622.125	22406.31
622.32	22027.44
622.515	22369.45
622.709	21945.52
622.904	22160.56
623.099	21769.4
623.294	22119.6
623.488	21615.8
623.683	21787.83
623.878	21091.52
624.072	21355.71
624.267	21269.69
624.462	21165.25
624.656	20962.5
624.851	21173.44
625.046	20952.26
625.24	20825.28
625.435	20784.32
625.629	20673.73
625.824	20468.94
626.018	20303.05
626.213	19918.03
626.407	19913.94
626.602	19877.07
626.796	19993.81
626.991	19883.22
627.185	19545.3
627.38	19727.57
627.574	19436.76
627.768	19238.11
627.963	19283.16
628.157	19082.46
628.352	19076.32
628.546	19094.75
628.74	18885.86
628.935	18930.91
629.129	19133.66
629.323	18416.87
629.517	18435.3
629.712	18384.1
629.906	18361.58
630.1	18009.33
630.294	18226.41
630.489	17851.63
630.683	18156.78
630.877	17784.05
631.071	17743.09
631.265	17700.08
631.459	17470.71
631.653	17480.95
631.848	17503.48
632.042	17425.65
632.236	17196.28
632.43	17063.16
632.624	17138.94
632.818	16921.85
633.012	16837.89
633.206	16952.57
633.4	16766.21
633.594	16841.98
633.788	16667.91
633.982	16551.17
634.176	16440.58
634.369	16256.26
634.563	16243.98
634.757	16375.05
634.951	15951.12
635.145	16137.48
635.339	16076.04
635.533	15678.74
635.726	15916.3
635.92	15478.04
636.114	15625.49
636.308	15516.95
636.501	15592.72
636.695	15557.91
636.889	15260.95
637.083	15133.98
637.276	15183.13
637.47	15025.43
637.664	15021.34
637.857	15140.12
638.051	15054.11
638.244	14775.58
638.438	14685.47
638.632	14603.55
638.825	14714.14
639.019	14372.13
639.212	14363.94
639.406	14314.79
639.599	14071.08
639.793	14196.01
639.986	14099.75
640.18	14056.75
640.373	13815.09
640.567	13708.59
640.76	13860.14
640.954	13841.71
641.147	13448.5
641.34	13540.66
641.534	13198.65
641.727	13733.17
641.92	13210.93
642.114	13155.64
642.307	13360.44
642.5	13157.69
642.694	13200.69
642.887	13083.96
643.08	12866.88
643.273	12891.45
643.467	13018.43
643.66	12756.29
643.853	12893.5
644.046	12580.16
644.239	12627.26
644.432	12467.52
644.626	12229.96
644.819	12543.3
645.012	12391.75
645.205	12197.19
645.398	12467.52
645.591	12201.29
645.784	12072.26
645.977	11863.37
646.17	12082.5
646.363	11900.23
646.556	11672.91
646.749	11750.73
646.942	11967.82
647.135	11590.99
647.328	11357.52
647.521	11560.27
647.714	11369.81
647.907	11472.21
648.099	11281.75
648.292	11355.47
648.485	11197.78
648.678	11060.57
648.871	11091.29
649.064	11138.39
649.256	11167.06
649.449	10827.1
649.642	10859.87
649.835	10767.71
650.027	10599.77
650.22	10601.82
650.413	10712.41
650.605	10622.3
650.798	10761.56
650.991	10446.18
651.183	10450.27
651.376	10407.27
651.568	10446.18
651.761	10382.69
651.954	10206.56
652.146	10302.82
652.339	10145.13
652.531	10112.36
652.724	10075.49
652.916	9758.06
653.109	9909.61
653.301	9842.03
653.494	9796.97
653.686	9592.17
653.879	9860.46
654.071	9715.05
654.263	9727.34
654.456	9743.72
654.648	9567.6
654.84	9469.3
655.033	9485.68
655.225	9450.86
655.417	9282.93
655.61	9305.46
655.802	9295.22
655.994	9383.28
656.186	9248.11
656.379	9082.23
656.571	9125.24
656.763	8930.68
656.955	9006.45
657.148	8981.88
657.34	8942.97
657.532	8928.63
657.724	8775.03
657.916	8777.08
658.108	8822.14
658.3	8621.44
658.492	8670.59
658.684	8623.48
658.876	8463.74
659.068	8484.22
659.26	8498.56
659.452	8301.95
659.644	8367.49
659.836	8134.02
660.028	8273.28
660.22	8101.25
660.412	8162.69
660.604	8127.88
660.796	8093.06
660.988	8048.01
661.18	7990.66
661.372	8070.53
661.563	7808.39
661.755	7787.91
661.947	7783.82
662.139	7857.54
662.331	7933.32
662.522	7765.39
662.714	7662.99
662.906	7615.88
663.097	7712.14
663.289	7603.6
663.481	7544.2
663.673	7576.97
663.864	7421.33
664.056	7523.73
664.247	7388.56
664.439	7277.97
664.631	7345.55
664.822	7316.88
665.014	7030.16
665.205	7187.86
665.397	7232.91
665.588	7058.84
665.78	6886.81
665.971	7040.4
666.163	7099.8
666.354	7034.26
666.546	7036.31
666.737	6753.69
666.929	7013.78
667.12	7032.21
667.311	6944.15
667.503	6757.78
667.694	6858.14
667.885	6645.15
668.077	6710.68
668.268	6557.08
668.459	6735.26
668.651	6548.89
668.842	6557.08
669.033	6557.08
669.224	6487.45
669.416	6602.14
669.607	6473.12
669.798	6397.34
669.989	6458.78
670.18	6417.82
670.371	6270.37
670.563	6141.35
670.754	6344.1
670.945	6249.89
671.136	6141.35
671.327	6184.35
671.518	5991.84
671.709	6098.34
671.9	6131.11
672.091	6145.44
672.282	6075.81
672.473	6147.49
672.664	6102.43
672.855	5997.99
673.046	6100.39
673.237	6229.41
673.428	5932.45
673.619	5938.6
673.809	5858.73
674	5893.54
674.191	5952.93
674.382	5852.58
674.573	5879.21
674.764	5778.86
674.954	5744.04
675.145	5893.54
675.336	5635.5
675.527	5549.48
675.717	5707.18
675.908	5547.44
676.099	5643.69
676.289	5524.91
676.48	5649.83
676.671	5473.71
676.861	5533.1
677.052	5354.93
677.243	5467.56
677.433	5397.93
677.624	5600.68
677.814	5447.08
678.005	5526.96
678.195	5449.13
678.386	5387.69
678.576	5348.78
678.767	5311.92
678.957	5385.65
679.148	5453.23
679.338	5096.88
679.529	5268.91
679.719	5199.28
679.909	5053.87
680.1	5295.54
680.29	5164.47
680.481	5324.21
680.671	5154.23
680.861	5166.51
681.052	5084.59
681.242	5141.94
681.432	5199.28
681.622	5150.13
681.813	4961.72
682.003	4904.37
682.193	4951.48
682.383	5164.47
682.573	4963.76
682.764	5092.79
682.954	5076.4
683.144	5033.4
683.334	4951.48
683.524	5119.41
683.714	4957.62
683.904	4869.56
684.094	4822.45
684.284	4783.54
684.474	4953.52
684.664	4910.52
684.854	4920.76
685.044	4857.27
685.234	4980.15
685.424	4709.82
685.614	4801.97
685.804	4773.3
685.994	4767.16
686.184	4740.54
686.374	4783.54
686.564	4672.95
686.753	4650.43
686.943	4591.03
687.133	4552.12
687.323	4656.57
687.513	4631.99
687.702	4552.12
687.892	4634.04
688.082	4648.38
688.272	4439.48
688.461	4490.68
688.651	4423.1
688.841	4369.85
689.03	4339.13
689.22	4386.24
689.41	4509.12
689.599	4345.28
689.789	4431.29
689.979	4158.91
690.168	4142.53
690.358	4179.39
690.547	4312.51
690.737	4124.1
690.926	4257.22
691.116	4154.82
691.305	4347.33
691.495	4132.29
691.684	4093.38
691.874	4148.67
692.063	4259.26
692.252	4117.95
692.442	4175.3
692.631	3980.74
692.82	3993.03
693.01	4091.33
693.199	3968.45
693.388	3909.06
693.578	3988.93
693.767	3847.62
693.956	3771.85
694.146	4011.46
694.335	4009.41
694.524	3864.01
694.713	3790.28
694.902	3730.89
695.092	3851.72
695.281	3915.2
695.47	3761.61
695.659	3685.83
695.848	3665.35
696.037	3730.89
696.226	3702.22
696.415	3698.12
696.604	3722.7
696.793	3708.36
696.982	3716.55
697.171	3724.74
697.36	3634.63
697.549	3698.12
697.738	3880.39
697.927	3677.64
698.116	3530.19
698.305	3651.02
698.494	3737.03
698.683	3544.52
698.872	3673.54
699.061	3401.16
699.25	3640.78
699.438	3536.33
699.627	3526.09
699.816	3567.05
700.005	3657.16
700.193	3573.19
700.382	3517.9
700.571	3388.88
700.76	3526.09
700.948	3587.53
701.137	3470.8
701.326	3468.75
701.514	3313.1
701.703	3528.14
701.892	3421.64
702.08	3526.09
702.269	3395.02
702.457	3415.5
702.646	3354.06
702.834	3364.3
703.023	3388.88
703.212	3464.65
703.4	3399.12
703.589	3317.2
703.777	3435.98
703.965	3413.45
704.154	3319.25
704.342	3286.48
704.531	3143.12
704.719	3145.17
704.907	3288.53
705.096	3243.47
705.284	3294.67
705.472	3313.1
705.661	3257.81
705.849	3198.42
706.037	3339.73
706.226	3251.66
706.414	3184.08
706.602	3198.42
706.79	3067.35
706.979	3145.17
707.167	3317.2
707.355	3274.19
707.543	3198.42
707.731	3255.76
707.919	3276.24
708.107	3153.36
708.296	3108.3
708.484	3061.2
708.672	3110.35
708.86	3091.92
709.048	3192.27
709.236	3108.3
709.424	3157.46
709.612	3042.77
709.8	3012.05
709.988	3053.01
710.176	2989.52
710.364	3055.06
710.551	3055.06
710.739	2969.04
710.927	2973.14
711.115	3018.19
711.303	3087.82
711.491	2964.95
711.679	3010
711.866	3026.39
712.054	3034.58
712.242	2981.33
712.43	2993.62
712.617	3026.39
712.805	2962.9
712.993	3001.81
713.181	2932.18
713.368	3038.67
713.556	3001.81
713.744	2940.37
713.931	3034.58
714.119	3016.15
714.306	2977.23
714.494	2880.98
714.682	2887.12
714.869	2854.36
715.057	2831.83
715.244	2854.36
715.432	2891.22
715.619	2960.85
715.807	2971.09
715.994	2854.36
716.182	2932.18
716.369	2837.97
716.556	2852.31
716.744	2758.1
716.931	2831.83
717.119	2858.45
717.306	2821.59
717.493	2667.99
717.681	2657.75
717.868	2772.44
718.055	2944.47
718.242	2754.01
718.43	2940.37
718.617	2749.91
718.804	2784.73
718.991	2696.66
719.179	2831.83
719.366	2698.71
719.553	2805.21
719.74	2758.1
719.927	2723.29
720.114	2708.95
720.301	2700.76
720.488	2739.67
720.676	2667.99
720.863	2684.38
721.05	2749.91
721.237	2674.14
721.424	2676.18
721.611	2618.84
721.798	2659.8
721.985	2649.56
722.172	2692.57
722.358	2665.94
722.545	2696.66
722.732	2647.51
722.919	2667.99
723.106	2586.07
723.293	2686.42
723.48	2606.55
723.667	2651.61
723.853	2504.15
724.04	2577.88
724.227	2567.64
724.414	2635.22
724.6	2586.07
724.787	2563.54
724.974	2561.5
725.161	2655.7
725.347	2649.56
725.534	2627.03
725.72	2661.85
725.907	2592.22
726.094	2530.78
726.28	2584.02
726.467	2522.59
726.653	2563.54
726.84	2719.19
727.027	2534.87
727.213	2487.77
727.4	2520.54
727.586	2485.72
727.773	2538.97
727.959	2495.96
728.145	2586.07
728.332	2461.15
728.518	2600.41
728.705	2663.9
728.891	2362.84
729.077	2584.02
729.264	2633.18
729.45	2588.12
729.636	2477.53
729.823	2446.81
730.009	2473.43
730.195	2549.21
730.382	2493.91
730.568	2534.87
730.754	2475.48
730.94	2504.15
731.126	2608.6
731.313	2395.61
731.499	2461.15
731.685	2457.05
731.871	2514.39
732.057	2526.68
732.243	2444.76
732.429	2407.9
732.615	2502.11
732.801	2407.9
732.987	2414.04
733.173	2455
733.359	2420.19
733.545	2430.43
733.731	2373.08
733.917	2356.7
734.103	2436.57
734.289	2389.47
734.475	2360.8
734.661	2424.28
734.847	2295.26
735.033	2364.89
735.219	2323.93
735.404	2479.58
735.59	2325.98
735.776	2346.46
735.962	2403.8
736.148	2452.95
736.333	2254.3
736.519	2362.84
736.705	2297.31
736.89	2280.93
737.076	2293.21
737.262	2282.97
737.447	2387.42
737.633	2356.7
737.819	2323.93
738.004	2289.12
738.19	2313.69
738.375	2280.93
738.561	2313.69
738.747	2242.01
738.932	2319.84
739.118	2242.01
739.303	2274.78
739.489	2246.11
739.674	2141.66
739.859	2158.05
740.045	2244.06
740.23	2311.64
740.416	2201.05
740.601	2209.25
740.786	2106.85
740.972	2133.47
741.157	2129.38
741.342	2162.14
741.528	2057.7
741.713	2059.74
741.898	2115.04
742.084	2201.05
742.269	2076.13
742.454	2047.46
742.639	2047.46
742.824	2100.7
743.01	2176.48
743.195	2051.55
743.38	2037.22
743.565	1961.44
743.75	2016.74
743.935	2029.03
744.12	1945.06
744.305	1977.83
744.49	1951.2
744.675	2026.98
744.86	1979.87
745.045	1859.04
745.23	1938.91
745.415	1969.63
745.6	1986.02
745.785	1922.53
745.97	1959.39
746.155	1871.33
746.34	1865.19
746.525	1951.2
746.71	1871.33
746.895	1832.42
747.079	1820.13
747.264	1871.33
747.449	1879.52
747.634	1748.45
747.819	1836.52
748.003	1762.79
748.188	1883.62
748.373	1797.6
748.557	1801.7
748.742	1744.36
748.927	1734.12
749.111	1684.97
749.296	1773.03
749.481	1707.49
749.665	1682.92
749.85	1691.11
750.034	1701.35
750.219	1584.62
750.404	1596.9
750.588	1637.86
750.773	1695.21
750.957	1625.58
751.141	1609.19
751.326	1592.81
751.51	1584.62
751.695	1529.32
751.879	1601
752.064	1658.34
752.248	1582.57
752.432	1635.82
752.617	1496.55
752.801	1545.7
752.985	1527.27
753.17	1529.32
753.354	1500.65
753.538	1478.12
753.722	1422.83
753.907	1506.79
754.091	1521.13
754.275	1535.46
754.459	1420.78
754.643	1367.53
754.828	1459.69
755.012	1273.32
755.196	1355.24
755.38	1338.86
755.564	1365.48
755.748	1232.37
755.932	1388.01
756.116	1256.94
756.3	1308.14
756.484	1390.06
756.668	1256.94
756.852	1302
757.036	1207.79
757.22	1269.23
757.404	1265.13
757.588	1211.89
757.772	1269.23
757.956	1295.85
758.14	1232.37
758.323	1224.17
758.507	1154.54
758.691	1211.89
758.875	1189.36
759.059	1203.69
759.242	1138.16
759.426	1164.78
759.61	1095.15
759.794	1152.49
759.977	1232.37
760.161	1132.01
760.345	1230.32
760.528	1150.45
760.712	1154.54
760.895	1150.45
761.079	1035.76
761.263	1076.72
761.446	1080.82
761.63	1142.25
761.813	1072.62
761.997	1086.96
762.18	1043.95
762.364	1086.96
762.547	1066.48
762.731	1046
762.914	1015.28
763.098	1066.48
763.281	1019.38
763.464	980.47
763.648	1013.23
763.831	1035.76
764.015	1023.47
764.198	1023.47
764.381	970.23
764.564	1068.53
764.748	1015.28
764.931	945.65
765.114	982.51
765.297	1043.95
765.481	912.88
765.664	990.7
765.847	966.13
766.03	978.42
766.213	880.11
766.397	966.13
766.58	953.84
766.763	931.31
766.946	912.88
767.129	949.75
767.312	882.16
767.495	980.47
767.678	830.96
767.861	951.79
768.044	935.41
768.227	902.64
768.41	914.93
768.593	949.75
768.776	974.32
768.959	843.25
769.142	896.5
769.324	867.83
769.507	970.23
769.69	873.97
769.873	888.31
770.056	867.83
770.239	923.12
770.421	921.07
770.604	830.96
770.787	839.16
770.97	869.87
771.152	849.4
771.335	871.92
771.518	822.77
771.7	835.06
771.883	826.87
772.066	871.92
772.248	796.15
772.431	744.95
772.613	757.24
772.796	736.76
772.978	847.35
773.161	880.11
773.343	787.96
773.526	747
773.708	783.86
773.891	669.17
774.073	701.94
774.256	708.09
774.438	818.68
774.621	759.28
774.803	792.05
774.985	814.58
775.168	675.32
775.35	634.36
775.532	685.56
775.715	767.48
775.897	726.52
776.079	716.28
776.261	697.85
776.444	712.18
776.626	724.47
776.808	646.65
776.99	636.41
777.173	687.61
777.355	660.98
777.537	675.32
777.719	663.03
777.901	609.78
778.083	626.17
778.265	605.69
778.447	650.74
778.629	669.17
778.811	595.45
778.993	691.7
779.175	605.69
779.357	679.41
779.539	593.4
779.721	630.26
779.903	697.85
780.085	546.3
780.267	589.3
780.449	601.59
780.631	495.1
780.812	564.73
780.994	607.73
781.176	503.29
781.358	613.88
781.54	603.64
781.721	548.34
781.903	542.2
782.085	495.1
782.267	603.64
782.448	484.86
782.63	556.54
782.812	548.34
782.993	552.44
783.175	536.06
783.357	560.63
783.538	445.95
783.72	396.79
783.901	497.14
784.083	505.34
784.264	529.91
784.446	437.75
784.627	454.14
784.809	439.8
784.99	450.04
785.172	515.58
785.353	447.99
785.535	497.14
785.716	515.58
785.897	478.71
786.079	562.68
786.26	491
786.441	456.19
786.623	384.51
786.804	376.31
786.985	394.75
787.167	505.34
787.348	407.03
787.529	359.93
787.71	462.33
787.891	357.88
788.073	466.42
788.254	439.8
788.435	429.56
788.616	409.08
788.797	364.03
788.978	372.22
789.159	413.18
789.34	380.41
789.522	349.69
789.703	447.99
789.884	421.37
790.065	388.6
790.246	407.03
790.427	357.88
790.607	372.22
790.788	452.09
790.969	345.59
791.15	409.08
791.331	331.26
791.512	364.03
791.693	355.83
791.874	396.79
792.054	409.08
792.235	325.12
792.416	278.01
792.597	347.64
792.778	390.65
792.958	259.58
793.139	323.07
793.32	306.68
793.5	351.74
793.681	339.45
793.862	355.83
794.042	372.22
794.223	273.92
794.404	257.53
794.584	251.39
794.765	327.16
794.945	224.76
795.126	372.22
795.306	226.81
795.487	220.67
795.667	249.34
795.848	257.53
796.028	333.31
796.209	314.88
796.389	284.16
796.57	331.26
796.75	261.63
796.93	202.24
797.111	241.15
797.291	355.83
797.471	181.76
797.652	212.48
797.832	220.67
798.012	316.92
798.192	290.3
798.373	290.3
798.553	308.73
798.733	329.21
798.913	208.38
799.093	275.96
799.274	288.25
799.454	271.87
799.634	259.58
799.814	204.28
799.994	265.72
800.174	278.01
800.354	220.67
800.534	194.05
800.714	198.14
800.894	232.96
801.074	179.71
801.254	216.57
801.434	151.04
801.614	273.92
801.794	239.1
801.974	785.91
802.154	187.9
802.334	288.25
802.514	171.52
802.693	224.76
802.873	192
803.053	202.24
803.233	220.67
803.413	222.72
803.592	202.24
803.772	259.58
803.952	237.05
804.131	134.65
804.311	173.57
804.491	220.67
804.67	210.43
804.85	226.81
805.03	206.33
805.209	216.57
805.389	232.96
805.568	192
805.748	226.81
805.928	159.23
806.107	208.38
806.287	249.34
806.466	232.96
806.646	163.33
806.825	269.82
807.004	183.81
807.184	243.2
807.363	273.92
807.543	196.09
807.722	187.9
807.901	204.28
808.081	232.96
808.26	146.94
808.439	151.04
808.619	177.66
808.798	192
808.977	222.72
809.156	192
809.336	155.13
809.515	208.38
809.694	208.38
809.873	204.28
810.052	212.48
810.231	187.9
810.411	200.19
810.59	214.52
810.769	204.28
810.948	146.94
811.127	101.89
811.306	177.66
811.485	151.04
811.664	282.11
811.843	124.41
812.022	187.9
812.201	167.42
812.38	237.05
812.559	159.23
812.737	183.81
812.916	247.29
813.095	159.23
813.274	241.15
813.453	153.09
813.632	75.26
813.811	202.24
813.989	161.28
814.168	200.19
814.347	95.74
814.526	101.89
814.704	171.52
814.883	249.34
815.062	157.18
815.24	161.28
815.419	110.08
815.598	134.65
815.776	93.69
815.955	173.57
816.133	38.4
816.312	136.7
816.49	126.46
816.669	93.69
816.847	75.26
817.026	175.61
817.204	161.28
817.383	189.95
817.561	114.17
817.74	153.09
817.918	153.09
818.097	136.7
818.275	50.69
818.453	228.86
818.632	175.61
818.81	146.94
818.988	118.27
819.167	126.46
819.345	85.5
819.523	89.6
819.701	126.46
819.879	118.27
820.058	114.17
820.236	99.84
820.414	112.13
820.592	65.02
820.77	151.04
820.948	112.13
821.127	120.32
821.305	118.27
821.483	83.45
821.661	151.04
821.839	97.79
822.017	112.13
822.195	60.93
822.373	116.22
822.551	85.5
822.729	157.18
822.907	108.03
823.085	208.38
823.262	93.69
823.44	105.98
823.618	167.42
823.796	114.17
823.974	83.45
824.152	54.78
824.329	134.65
824.507	202.24
824.685	122.37
824.863	140.8
825.04	81.41
825.218	93.69
825.396	60.93
825.574	144.89
825.751	101.89
825.929	105.98
826.107	93.69
826.284	124.41
826.462	165.37
826.639	81.41
826.817	44.54
826.994	112.13
827.172	101.89
827.349	167.42
827.527	157.18
827.704	118.27
827.882	110.08
828.059	52.74
828.237	79.36
828.414	97.79
828.591	44.54
828.769	77.31
828.946	19.97
829.124	130.56
829.301	110.08
829.478	85.5
829.655	85.5
829.833	30.21
830.01	118.27
830.187	126.46
830.364	93.69
830.542	46.59
830.719	60.93
830.896	120.32
831.073	114.17
831.25	65.02
831.427	93.69
831.604	95.74
831.782	79.36
831.959	73.21
832.136	62.98
832.313	87.55
832.49	52.74
832.667	112.13
832.844	9.73
833.021	134.65
833.198	44.54
833.374	44.54
833.551	69.12
833.728	52.74
833.905	151.04
834.082	38.4
834.259	44.54
834.436	71.17
834.612	17.92
834.789	67.07
834.966	87.55
835.143	142.85
835.319	-27.14
835.496	48.64
835.673	85.5
835.85	26.11
836.026	52.74
836.203	128.51
836.38	56.83
836.556	124.41
836.733	114.17
836.909	171.52
837.086	32.26
837.262	15.87
837.439	28.16
837.616	1.54
837.792	22.02
837.968	83.45
838.145	48.64
838.321	97.79
838.498	103.93
838.674	101.89
838.851	56.83
839.027	50.69
839.203	60.93
839.38	42.5
839.556	46.59
839.732	77.31
839.909	71.17
840.085	93.69
840.261	-12.8
840.437	93.69
840.614	69.12
840.79	24.06
840.966	101.89
841.142	56.83
841.318	56.83
841.494	101.89
841.671	99.84
841.847	-4.61
842.023	91.65
842.199	-16.9
842.375	85.5
842.551	44.54
842.727	71.17
842.903	52.74
843.079	3.58
843.255	103.93
843.431	44.54
843.607	26.11
843.783	52.74
843.959	120.32
844.134	44.54
844.31	26.11
844.486	85.5
844.662	58.88
844.838	13.82
845.013	60.93
845.189	69.12
845.365	11.78
845.541	19.97
845.716	36.35
845.892	77.31
846.068	-2.56
846.244	36.35
846.419	112.13
846.595	-51.71
846.77	5.63
846.946	54.78
847.122	54.78
847.297	-14.85
847.473	118.27
847.648	44.54
847.824	40.45
847.999	-16.9
848.175	38.4
848.35	42.5
848.526	75.26
848.701	-0.51
848.876	101.89
849.052	99.84
849.227	54.78
849.403	67.07
849.578	54.78
849.753	126.46
849.929	101.89
850.104	40.45
850.279	-20.99
850.454	60.93
850.63	56.83
850.805	-61.95
850.98	34.3
851.155	-23.04
851.33	60.93
851.505	5.63
851.681	161.28
851.856	65.02
852.031	126.46
852.206	48.64
852.381	58.88
852.556	3.58
852.731	44.54
852.906	3.58
853.081	-8.7
853.256	42.5
853.431	62.98
853.606	40.45
853.781	-16.9
853.956	-37.38
854.131	67.07
854.305	19.97
854.48	93.69
854.655	-20.99
854.83	56.83
855.005	22.02
855.18	65.02
855.354	69.12
855.529	15.87
855.704	28.16
855.879	19.97
856.053	3.58
856.228	22.02
856.403	-10.75
856.577	79.36
856.752	36.35
856.926	22.02
857.101	28.16
857.276	52.74
857.45	46.59
857.625	26.11
857.799	22.02
857.974	3.58
858.148	-45.57
858.323	13.82
858.497	11.78
858.672	19.97
858.846	1.54
859.02	36.35
859.195	7.68
859.369	-12.8
859.543	-23.04
859.718	-23.04
859.892	89.6
860.066	52.74
860.241	24.06
860.415	50.69
860.589	-12.8
860.763	38.4
860.938	50.69
861.112	48.64
861.286	5.63
861.46	40.45
861.634	50.69
861.808	52.74
861.982	-4.61
862.157	3.58
862.331	-31.23
862.505	3.58
862.679	9.73
862.853	62.98
863.027	-2.56
863.201	3.58
863.375	-25.09
863.549	36.35
863.722	19.97
863.896	-35.33
864.07	73.21
864.244	32.26
864.418	28.16
864.592	-41.47
864.766	-20.99
864.939	-0.51
865.113	24.06
865.287	5.63
865.461	-4.61
865.634	36.35
865.808	-16.9
865.982	-27.14
866.156	-35.33
866.329	-4.61
866.503	32.26
866.676	30.21
866.85	17.92
867.024	30.21
867.197	36.35
867.371	28.16
867.544	5.63
867.718	-2.56
867.891	69.12
868.065	65.02
868.238	3.58
868.412	85.5
868.585	56.83
868.759	-18.94
868.932	69.12
869.105	28.16
869.279	3.58
869.452	3.58
869.625	11.78
869.799	5.63
869.972	62.98
870.145	73.21
870.319	11.78
870.492	110.08
870.665	11.78
870.838	3.58
871.011	-31.23
871.185	93.69
871.358	-14.85
871.531	-4.61
871.704	22.02
871.877	46.59
872.05	-45.57
872.223	3.58
872.396	60.93
872.569	52.74
872.742	-25.09
872.915	97.79
873.088	-61.95
873.261	48.64
873.434	9.73
873.607	-12.8
873.78	13.82
873.953	52.74
874.126	13.82
874.299	34.3
874.471	-10.75
874.644	-25.09
874.817	-27.14
874.99	97.79
875.163	36.35
875.335	24.06
875.508	15.87
875.681	112.13
875.853	5.63
876.026	26.11
876.199	38.4
876.371	24.06
876.544	-31.23
876.717	44.54
876.889	50.69
877.062	19.97
877.234	28.16
877.407	-37.38
877.579	-92.67
877.752	9.73
877.924	73.21
878.097	5.63
878.269	11.78
878.442	22.02
878.614	-39.42
878.786	-2.56
878.959	-0.51
879.131	69.12
879.303	-51.71
879.476	30.21
879.648	40.45
879.82	58.88
879.993	3.58
880.165	3.58
880.337	44.54
880.509	77.31
880.681	13.82
880.854	44.54
881.026	11.78
881.198	116.22
881.37	7.68
881.542	32.26
881.714	32.26
881.886	32.26
882.058	-14.85
882.23	3.58
882.402	-10.75
882.574	7.68
882.746	-18.94
882.918	13.82
883.09	-2.56
883.262	-29.18
883.434	19.97
883.606	-27.14
883.778	-25.09
883.95	118.27
884.122	-49.66
884.293	-16.9
884.465	38.4
884.637	50.69
884.809	-68.09
884.98	38.4
885.152	54.78
885.324	44.54
885.496	-16.9
885.667	-51.71
885.839	7.68
886.011	69.12
886.182	19.97
886.354	30.21
886.525	11.78
886.697	30.21
886.869	-2.56
887.04	-4.61
887.212	28.16
887.383	5.63
887.555	40.45
887.726	71.17
887.897	-0.51
888.069	-0.51
888.24	54.78
888.412	-4.61
888.583	-96.77
888.754	-10.75
888.926	-61.95
889.097	-35.33
889.268	-57.86
889.44	7.68
889.611	-20.99
889.782	-8.7
889.953	-2.56
890.125	52.74
890.296	34.3
890.467	103.93
890.638	17.92
890.809	65.02
890.98	36.35
891.151	13.82
891.323	75.26
891.494	56.83
891.665	-20.99
891.836	3.58
892.007	11.78
892.178	-0.51
892.349	30.21
892.52	-53.76
892.691	-2.56
892.862	-33.28
893.032	-20.99
893.203	-8.7
893.374	32.26
893.545	-8.7
893.716	3.58
893.887	54.78
894.057	-64
894.228	-4.61
894.399	3.58
894.57	26.11
894.74	24.06
894.911	-53.76
895.082	48.64
895.253	30.21
895.423	83.45
895.594	34.3
895.764	11.78
895.935	73.21
896.106	56.83
896.276	9.73
896.447	-0.51
896.617	13.82
896.788	44.54
896.958	-12.8
897.129	-29.18
897.299	32.26
897.47	28.16
897.64	-39.42
897.81	5.63
897.981	40.45
898.151	3.58
898.322	5.63
898.492	54.78
898.662	-61.95
898.832	-12.8
899.003	28.16
899.173	19.97
899.343	-33.28
899.513	-18.94
