Data from USB4F104151__86__14-17-50-844.txt Node

Date: Thu Mar 13 14:17:50 EDT 2025
User: louis
Spectrometer: USB4F10415
Trigger mode: 4
Integration Time (sec): 2.000000E-2
Scans to average: 1
Electric dark correction enabled: true
Nonlinearity correction enabled: false
Boxcar width: 0
XAxis mode: Wavelengths
Number of Pixels in Spectrum: 3648
>>>>>Begin Spectral Data<<<<<
178.204	-104.28
178.424	-104.28
178.644	-104.28
178.864	-124.76
179.084	-141.14
179.304	-83.8
179.524	-36.69
179.744	-40.79
179.964	16.55
180.184	22.7
180.404	57.51
180.624	6.31
180.844	32.94
181.064	-18.26
181.283	22.7
181.503	-22.36
181.723	43.18
181.943	-83.8
182.163	8.36
182.383	59.56
182.602	37.03
182.822	37.03
183.042	37.03
183.262	-14.17
183.482	32.94
183.701	84.14
183.921	8.36
184.141	39.08
184.361	18.6
184.58	28.84
184.8	18.6
185.02	92.33
185.239	32.94
185.459	37.03
185.679	65.71
185.898	-1.88
186.118	24.75
186.338	47.27
186.557	14.51
186.777	-30.55
186.997	-38.74
187.216	14.51
187.436	77.99
187.655	57.51
187.875	51.37
188.095	49.32
188.314	55.47
188.534	32.94
188.753	14.51
188.973	6.31
189.192	114.86
189.412	110.76
189.631	65.71
189.851	8.36
190.07	39.08
190.29	-51.03
190.509	6.31
190.729	-1.88
190.948	104.62
191.168	125.1
191.387	39.08
191.607	2.22
191.826	-14.17
192.045	-85.84
192.265	-18.26
192.484	-28.5
192.704	63.66
192.923	0.17
193.142	129.19
193.362	41.13
193.581	41.13
193.8	-16.21
194.02	2.22
194.239	4.27
194.458	20.65
194.678	6.31
194.897	118.95
195.116	22.7
195.335	14.51
195.555	-12.12
195.774	2.22
195.993	-16.21
196.212	57.51
196.432	104.62
196.651	-10.07
196.87	10.41
197.089	43.18
197.308	22.7
197.528	24.75
197.747	-18.26
197.966	-8.02
198.185	41.13
198.404	43.18
198.623	32.94
198.842	63.66
199.062	49.32
199.281	-3.93
199.5	22.7
199.719	22.7
199.938	49.32
200.157	65.71
200.376	104.62
200.595	47.27
200.814	-5.97
201.033	32.94
201.252	32.94
201.471	-51.03
201.69	73.9
201.909	43.18
202.128	51.37
202.347	49.32
202.566	24.75
202.785	37.03
203.004	22.7
203.223	94.38
203.442	6.31
203.661	12.46
203.879	-16.21
204.098	96.43
204.317	-12.12
204.536	32.94
204.755	41.13
204.974	-5.97
205.193	14.51
205.411	-1.88
205.63	-67.41
205.849	-36.69
206.068	-14.17
206.287	-8.02
206.505	30.89
206.724	6.31
206.943	-46.93
207.162	24.75
207.381	18.6
207.599	0.17
207.818	-18.26
208.037	-75.6
208.255	6.31
208.474	6.31
208.693	92.33
208.911	55.47
209.13	12.46
209.349	-30.55
209.567	112.81
209.786	84.14
210.005	43.18
210.223	57.51
210.442	14.51
210.661	55.47
210.879	24.75
211.098	8.36
211.316	-10.07
211.535	-18.26
211.753	-51.03
211.972	-3.93
212.191	49.32
212.409	16.55
212.628	-53.08
212.846	-16.21
213.065	47.27
213.283	22.7
213.502	37.03
213.72	-16.21
213.938	22.7
214.157	24.75
214.375	39.08
214.594	-36.69
214.812	16.55
215.031	14.51
215.249	61.61
215.467	-51.03
215.686	22.7
215.904	18.6
216.122	-18.26
216.341	65.71
216.559	-18.26
216.778	22.7
216.996	22.7
217.214	-14.17
217.432	6.31
217.651	-26.45
217.869	-16.21
218.087	39.08
218.306	28.84
218.524	0.17
218.742	-8.02
218.96	22.7
219.179	12.46
219.397	-14.17
219.615	39.08
219.833	55.47
220.051	14.51
220.27	0.17
220.488	88.23
220.706	43.18
220.924	16.55
221.142	-5.97
221.36	2.22
221.578	-1.88
221.796	-26.45
222.015	39.08
222.233	8.36
222.451	96.43
222.669	49.32
222.887	67.75
223.105	-18.26
223.323	-26.45
223.541	-1.88
223.759	80.04
223.977	37.03
224.195	135.34
224.413	-8.02
224.631	73.9
224.849	75.95
225.067	129.19
225.285	18.6
225.503	-30.55
225.721	-55.12
225.939	6.31
226.157	-10.07
226.375	106.67
226.592	-53.08
226.81	-8.02
227.028	63.66
227.246	55.47
227.464	10.41
227.682	100.52
227.9	-18.26
228.117	39.08
228.335	14.51
228.553	22.7
228.771	6.31
228.989	32.94
229.206	14.51
229.424	-24.4
229.642	-10.07
229.86	-73.56
230.077	90.28
230.295	43.18
230.513	63.66
230.731	-18.26
230.948	92.33
231.166	63.66
231.384	80.04
231.601	55.47
231.819	80.04
232.037	14.51
232.254	22.7
232.472	65.71
232.689	-14.17
232.907	2.22
233.125	-10.07
233.342	-38.74
233.56	57.51
233.777	-57.17
233.995	32.94
234.213	108.71
234.43	-3.93
234.648	30.89
234.865	-79.7
235.083	-1.88
235.3	30.89
235.518	-42.84
235.735	45.23
235.953	75.95
236.17	65.71
236.388	39.08
236.605	0.17
236.822	55.47
237.04	71.85
237.257	-36.69
237.475	39.08
237.692	22.7
237.909	28.84
238.127	55.47
238.344	55.47
238.562	-10.07
238.779	43.18
238.996	10.41
239.214	-3.93
239.431	37.03
239.648	-28.5
239.865	-18.26
240.083	-14.17
240.3	51.37
240.517	-106.32
240.735	8.36
240.952	55.47
241.169	88.23
241.386	-10.07
241.603	10.41
241.821	-16.21
242.038	65.71
242.255	47.27
242.472	-75.6
242.689	30.89
242.907	30.89
243.124	-8.02
243.341	47.27
243.558	14.51
243.775	-26.45
243.992	-40.79
244.209	30.89
244.426	73.9
244.643	39.08
244.86	4.27
245.078	16.55
245.295	-59.22
245.512	-22.36
245.729	-42.84
245.946	30.89
246.163	-63.32
246.38	34.99
246.597	-48.98
246.814	37.03
247.031	88.23
247.248	-1.88
247.464	55.47
247.681	16.55
247.898	6.31
248.115	-40.79
248.332	34.99
248.549	-18.26
248.766	47.27
248.983	63.66
249.2	-24.4
249.417	16.55
249.633	-14.17
249.85	84.14
250.067	24.75
250.284	-34.64
250.501	22.7
250.717	59.56
250.934	-53.08
251.151	10.41
251.368	-5.97
251.585	24.75
251.801	55.47
252.018	-36.69
252.235	63.66
252.451	-22.36
252.668	-1.88
252.885	20.65
253.102	63.66
253.318	30.89
253.535	-38.74
253.752	0.17
253.968	2.22
254.185	22.7
254.401	-22.36
254.618	-16.21
254.835	22.7
255.051	6.31
255.268	-28.5
255.484	77.99
255.701	-57.17
255.917	65.71
256.134	43.18
256.351	-32.6
256.567	2.22
256.784	57.51
257	47.27
257.217	47.27
257.433	112.81
257.65	0.17
257.866	26.79
258.082	51.37
258.299	-51.03
258.515	-1.88
258.732	47.27
258.948	8.36
259.165	10.41
259.381	0.17
259.597	65.71
259.814	47.27
260.03	-24.4
260.246	16.55
260.463	-24.4
260.679	71.85
260.895	84.14
261.112	90.28
261.328	-22.36
261.544	20.65
261.761	22.7
261.977	-51.03
262.193	-67.41
262.409	45.23
262.626	41.13
262.842	-14.17
263.058	30.89
263.274	47.27
263.49	24.75
263.707	-40.79
263.923	-22.36
264.139	8.36
264.355	69.8
264.571	37.03
264.787	-26.45
265.004	-1.88
265.22	30.89
265.436	51.37
265.652	41.13
265.868	39.08
266.084	4.27
266.3	24.75
266.516	-61.27
266.732	6.31
266.948	-10.07
267.164	28.84
267.38	69.8
267.596	6.31
267.812	69.8
268.028	-36.69
268.244	67.75
268.46	24.75
268.676	114.86
268.892	55.47
269.108	-44.88
269.324	-18.26
269.54	-16.21
269.756	49.32
269.972	6.31
270.188	-44.88
270.403	14.51
270.619	57.51
270.835	24.75
271.051	84.14
271.267	2.22
271.483	24.75
271.698	22.7
271.914	65.71
272.13	10.41
272.346	-18.26
272.562	39.08
272.777	53.42
272.993	-51.03
273.209	-18.26
273.425	-18.26
273.64	55.47
273.856	53.42
274.072	14.51
274.287	2.22
274.503	75.95
274.719	0.17
274.934	-42.84
275.15	43.18
275.366	41.13
275.581	-34.64
275.797	6.31
276.012	34.99
276.228	-32.6
276.444	8.36
276.659	73.9
276.875	18.6
277.09	10.41
277.306	-3.93
277.521	65.71
277.737	34.99
277.952	104.62
278.168	-24.4
278.383	47.27
278.599	14.51
278.814	98.47
279.03	47.27
279.245	71.85
279.461	18.6
279.676	16.55
279.892	-18.26
280.107	8.36
280.322	-3.93
280.538	47.27
280.753	59.56
280.969	-5.97
281.184	45.23
281.399	-5.97
281.615	-1.88
281.83	37.03
282.045	0.17
282.26	26.79
282.476	0.17
282.691	59.56
282.906	71.85
283.122	-20.31
283.337	47.27
283.552	-8.02
283.767	47.27
283.983	67.75
284.198	32.94
284.413	51.37
284.628	-46.93
284.843	47.27
285.058	18.6
285.274	-14.17
285.489	-79.7
285.704	57.51
285.919	-65.36
286.134	-44.88
286.349	14.51
286.564	80.04
286.779	82.09
286.995	71.85
287.21	10.41
287.425	24.75
287.64	16.55
287.855	20.65
288.07	71.85
288.285	112.81
288.5	-3.93
288.715	121
288.93	0.17
289.145	-26.45
289.36	71.85
289.575	37.03
289.79	18.6
290.004	-16.21
290.219	-63.32
290.434	14.51
290.649	53.42
290.864	2.22
291.079	-26.45
291.294	32.94
291.509	-16.21
291.724	24.75
291.938	18.6
292.153	28.84
292.368	-10.07
292.583	10.41
292.798	84.14
293.012	12.46
293.227	6.31
293.442	-8.02
293.657	8.36
293.871	61.61
294.086	6.31
294.301	51.37
294.516	-14.17
294.73	-8.02
294.945	39.08
295.16	45.23
295.374	32.94
295.589	6.31
295.804	73.9
296.018	28.84
296.233	32.94
296.447	57.51
296.662	-5.97
296.877	47.27
297.091	32.94
297.306	67.75
297.52	-5.97
297.735	63.66
297.949	39.08
298.164	-10.07
298.378	41.13
298.593	-55.12
298.807	-8.02
299.022	-26.45
299.236	39.08
299.451	-1.88
299.665	-57.17
299.88	-10.07
300.094	57.51
300.309	30.89
300.523	26.79
300.737	57.51
300.952	-1.88
301.166	-79.7
301.381	-75.6
301.595	61.61
301.809	80.04
302.024	-55.12
302.238	-42.84
302.452	-22.36
302.667	4.27
302.881	55.47
303.095	8.36
303.309	24.75
303.524	14.51
303.738	71.85
303.952	43.18
304.166	90.28
304.381	-46.93
304.595	57.51
304.809	2.22
305.023	-3.93
305.237	32.94
305.452	18.6
305.666	41.13
305.88	65.71
306.094	39.08
306.308	63.66
306.522	98.47
306.736	8.36
306.95	39.08
307.164	63.66
307.379	26.79
307.593	32.94
307.807	20.65
308.021	8.36
308.235	32.94
308.449	39.08
308.663	45.23
308.877	88.23
309.091	-24.4
309.305	67.75
309.519	-53.08
309.733	10.41
309.947	71.85
310.161	14.51
310.374	16.55
310.588	55.47
310.802	-8.02
311.016	47.27
311.23	-38.74
311.444	55.47
311.658	-8.02
311.872	73.9
312.085	90.28
312.299	63.66
312.513	-40.79
312.727	-71.51
312.941	-18.26
313.154	51.37
313.368	41.13
313.582	28.84
313.796	-57.17
314.009	39.08
314.223	55.47
314.437	0.17
314.651	47.27
314.864	43.18
315.078	-26.45
315.292	-1.88
315.505	10.41
315.719	28.84
315.933	12.46
316.146	73.9
316.36	-24.4
316.573	-51.03
316.787	63.66
317.001	20.65
317.214	-10.07
317.428	10.41
317.641	-34.64
317.855	-10.07
318.068	43.18
318.282	-10.07
318.495	55.47
318.709	57.51
318.922	-3.93
319.136	73.9
319.349	18.6
319.563	-12.12
319.776	57.51
319.99	-22.36
320.203	57.51
320.417	16.55
320.63	34.99
320.843	14.51
321.057	16.55
321.27	30.89
321.483	55.47
321.697	14.51
321.91	69.8
322.124	0.17
322.337	-16.21
322.55	-8.02
322.763	30.89
322.977	16.55
323.19	2.22
323.403	96.43
323.617	2.22
323.83	49.32
324.043	43.18
324.256	67.75
324.469	-3.93
324.683	20.65
324.896	39.08
325.109	-24.4
325.322	-57.17
325.535	10.41
325.748	39.08
325.962	100.52
326.175	82.09
326.388	67.75
326.601	-24.4
326.814	-63.32
327.027	41.13
327.24	22.7
327.453	-10.07
327.666	55.47
327.879	108.71
328.092	8.36
328.305	65.71
328.518	14.51
328.731	65.71
328.944	8.36
329.157	32.94
329.37	-5.97
329.583	14.51
329.796	157.86
330.009	39.08
330.222	39.08
330.435	71.85
330.648	12.46
330.861	-8.02
331.073	94.38
331.286	88.23
331.499	28.84
331.712	-18.26
331.925	84.14
332.138	65.71
332.35	84.14
332.563	18.6
332.776	55.47
332.989	-1.88
333.202	59.56
333.414	16.55
333.627	49.32
333.84	24.75
334.053	-10.07
334.265	47.27
334.478	-10.07
334.691	73.9
334.903	41.13
335.116	-38.74
335.329	0.17
335.541	-1.88
335.754	18.6
335.966	-10.07
336.179	-42.84
336.392	32.94
336.604	43.18
336.817	55.47
337.029	22.7
337.242	16.55
337.454	16.55
337.667	-26.45
337.88	84.14
338.092	-8.02
338.305	18.6
338.517	-10.07
338.729	39.08
338.942	30.89
339.154	55.47
339.367	10.41
339.579	-20.31
339.792	-42.84
340.004	88.23
340.217	-10.07
340.429	86.19
340.641	24.75
340.854	80.04
341.066	-10.07
341.278	-16.21
341.491	88.23
341.703	37.03
341.915	-3.93
342.128	32.94
342.34	63.66
342.552	-46.93
342.764	-32.6
342.977	30.89
343.189	61.61
343.401	22.7
343.613	45.23
343.826	2.22
344.038	61.61
344.25	71.85
344.462	-59.22
344.674	161.96
344.886	14.51
345.099	108.71
345.311	-1.88
345.523	-8.02
345.735	-46.93
345.947	6.31
346.159	30.89
346.371	24.75
346.583	77.99
346.795	92.33
347.007	75.95
347.219	10.41
347.431	18.6
347.643	114.86
347.855	2.22
348.067	67.75
348.279	2.22
348.491	47.27
348.703	71.85
348.915	4.27
349.127	41.13
349.339	39.08
349.551	30.89
349.763	47.27
349.975	39.08
350.187	133.29
350.399	30.89
350.61	96.43
350.822	-18.26
351.034	63.66
351.246	18.6
351.458	98.47
351.669	57.51
351.881	-16.21
352.093	129.19
352.305	67.75
352.517	37.03
352.728	51.37
352.94	6.31
353.152	22.7
353.363	55.47
353.575	65.71
353.787	110.76
353.999	69.8
354.21	-22.36
354.422	30.89
354.633	2.22
354.845	73.9
355.057	28.84
355.268	18.6
355.48	84.14
355.692	-75.6
355.903	-83.8
356.115	49.32
356.326	-30.55
356.538	141.48
356.749	-10.07
356.961	149.67
357.172	75.95
357.384	55.47
357.595	63.66
357.807	6.31
358.018	55.47
358.23	55.47
358.441	121
358.653	63.66
358.864	-18.26
359.075	71.85
359.287	71.85
359.498	39.08
359.709	28.84
359.921	61.61
360.132	-5.97
360.344	45.23
360.555	-18.26
360.766	137.38
360.977	-5.97
361.189	104.62
361.4	10.41
361.611	94.38
361.823	118.95
362.034	43.18
362.245	8.36
362.456	34.99
362.667	104.62
362.879	4.27
363.09	110.76
363.301	37.03
363.512	47.27
363.723	10.41
363.935	-3.93
364.146	63.66
364.357	8.36
364.568	37.03
364.779	-16.21
364.99	112.81
365.201	16.55
365.412	47.27
365.623	24.75
365.834	34.99
366.045	47.27
366.256	24.75
366.467	63.66
366.678	-48.98
366.889	14.51
367.1	30.89
367.311	-8.02
367.522	-46.93
367.733	75.95
367.944	24.75
368.155	18.6
368.366	106.67
368.577	73.9
368.788	161.96
368.999	16.55
369.209	30.89
369.42	75.95
369.631	133.29
369.842	26.79
370.053	28.84
370.264	47.27
370.474	6.31
370.685	59.56
370.896	49.32
371.107	137.38
371.317	0.17
371.528	57.51
371.739	92.33
371.95	24.75
372.16	82.09
372.371	-1.88
372.582	65.71
372.792	-1.88
373.003	98.47
373.214	-30.55
373.424	-32.6
373.635	55.47
373.846	28.84
374.056	28.84
374.267	51.37
374.477	34.99
374.688	24.75
374.898	39.08
375.109	-12.12
375.319	59.56
375.53	53.42
375.74	55.47
375.951	-3.93
376.161	90.28
376.372	6.31
376.582	24.75
376.793	-40.79
377.003	86.19
377.214	26.79
377.424	2.22
377.635	73.9
377.845	41.13
378.055	88.23
378.266	59.56
378.476	22.7
378.686	69.8
378.897	92.33
379.107	41.13
379.317	14.51
379.528	71.85
379.738	80.04
379.948	-18.26
380.158	41.13
380.369	63.66
380.579	49.32
380.789	-48.98
380.999	51.37
381.21	86.19
381.42	80.04
381.63	-34.64
381.84	57.51
382.05	47.27
382.261	114.86
382.471	63.66
382.681	63.66
382.891	49.32
383.101	98.47
383.311	0.17
383.521	49.32
383.731	59.56
383.941	49.32
384.151	8.36
384.361	-8.02
384.571	30.89
384.781	39.08
384.991	92.33
385.201	30.89
385.411	8.36
385.621	51.37
385.831	-32.6
386.041	10.41
386.251	0.17
386.461	110.76
386.671	14.51
386.881	67.75
387.091	90.28
387.301	53.42
387.511	32.94
387.72	112.81
387.93	47.27
388.14	41.13
388.35	6.31
388.56	139.43
388.769	37.03
388.979	37.03
389.189	-32.6
389.399	22.7
389.609	77.99
389.818	2.22
390.028	53.42
390.238	116.9
390.447	104.62
390.657	-14.17
390.867	121
391.076	55.47
391.286	34.99
391.496	53.42
391.705	-24.4
391.915	90.28
392.125	114.86
392.334	100.52
392.544	14.51
392.753	-1.88
392.963	-1.88
393.172	141.48
393.382	-26.45
393.591	51.37
393.801	41.13
394.01	104.62
394.22	30.89
394.429	102.57
394.639	82.09
394.848	63.66
395.058	51.37
395.267	22.7
395.477	86.19
395.686	57.51
395.895	55.47
396.105	125.1
396.314	104.62
396.524	14.51
396.733	88.23
396.942	84.14
397.152	51.37
397.361	90.28
397.57	51.37
397.78	92.33
397.989	71.85
398.198	84.14
398.407	102.57
398.617	77.99
398.826	16.55
399.035	71.85
399.244	43.18
399.453	55.47
399.663	71.85
399.872	112.81
400.081	65.71
400.29	20.65
400.499	30.89
400.708	164.01
400.917	57.51
401.127	41.13
401.336	41.13
401.545	114.86
401.754	96.43
401.963	71.85
402.172	98.47
402.381	6.31
402.59	125.1
402.799	53.42
403.008	-12.12
403.217	137.38
403.426	129.19
403.635	49.32
403.844	82.09
404.053	121
404.262	22.7
404.471	112.81
404.68	161.96
404.888	34.99
405.097	123.05
405.306	135.34
405.515	170.15
405.724	118.95
405.933	235.69
406.142	-16.21
406.35	63.66
406.559	104.62
406.768	170.15
406.977	239.78
407.185	166.06
407.394	153.77
407.603	211.11
407.812	182.44
408.02	231.59
408.229	235.69
408.438	198.82
408.646	186.54
408.855	172.2
409.064	194.73
409.272	225.45
409.481	188.58
409.69	221.35
409.898	268.45
410.107	331.94
410.315	237.74
410.524	250.02
410.733	243.88
410.941	278.69
411.15	262.31
411.358	254.12
411.567	237.74
411.775	342.18
411.984	331.94
412.192	360.61
412.401	329.89
412.609	407.72
412.818	405.67
413.026	374.95
413.234	397.48
413.443	370.85
413.651	358.57
413.86	489.64
414.068	477.35
414.276	463.01
414.485	465.06
414.693	467.11
414.901	673.95
415.11	555.17
415.318	557.22
415.526	614.56
415.734	632.99
415.943	669.86
416.151	663.71
416.359	628.9
416.567	678.05
416.776	712.86
416.984	796.83
417.192	807.07
417.4	805.02
417.608	807.07
417.817	833.69
418.025	854.17
418.233	956.57
418.441	919.71
418.649	952.48
418.857	1030.3
419.065	1114.27
419.273	1022.11
419.481	1144.99
419.689	1204.38
419.897	1149.08
420.105	1177.75
420.313	1355.93
420.521	1329.3
420.729	1439.89
420.937	1390.74
421.145	1484.95
421.353	1558.67
421.561	1546.39
421.769	1652.88
421.977	1810.58
422.185	1718.42
422.393	1755.28
422.601	1859.73
422.809	1874.06
423.017	1935.5
423.224	1917.07
423.432	2115.72
423.64	2138.25
423.848	2259.08
424.056	2209.93
424.263	2246.79
424.471	2359.43
424.679	2300.04
424.887	2390.15
425.094	2553.99
425.302	2488.45
425.51	2775.17
425.718	2756.74
425.925	2910.33
426.133	2928.77
426.341	3004.54
426.548	3242.11
426.756	3209.34
426.964	3031.16
427.171	3391.61
427.379	3520.63
427.586	3545.2
427.794	3674.23
428.001	3598.45
428.209	3868.78
428.417	3917.93
428.624	4298.86
428.832	4227.18
429.039	4210.79
429.247	4081.77
429.454	4571.24
429.662	4905.06
429.869	4694.12
430.076	4915.3
430.284	4808.8
430.491	4939.87
430.699	5159
430.906	5259.35
431.114	5335.13
431.321	5501.01
431.528	5634.13
431.736	5970
431.943	6365.26
432.15	6068.3
432.358	6199.37
432.565	6651.97
432.772	6348.87
432.979	6797.38
433.187	7028.8
433.394	6953.02
433.601	7346.23
433.808	7534.65
434.016	7381.05
434.223	7684.15
434.43	8067.12
434.637	8071.22
434.844	8456.23
435.052	8759.33
435.259	8509.48
435.466	8642.6
435.673	8581.16
435.88	9013.28
436.087	9660.44
436.294	9648.15
436.501	9480.22
436.708	9541.66
436.915	9895.96
437.122	10504.2
437.329	10424.33
437.537	10704.9
437.743	10776.58
437.95	10633.22
438.157	11182.08
438.364	11747.32
438.571	11585.53
438.778	11941.88
438.985	12836.84
439.192	12255.22
439.399	12699.62
439.606	12427.25
439.813	13033.44
440.02	13834.2
440.227	13737.95
440.433	13686.75
440.64	14067.67
440.847	13801.43
441.054	14342.1
441.261	15298.5
441.467	14884.81
441.674	15431.62
441.881	15763.39
442.088	15773.63
442.294	15613.88
442.501	16168.88
442.708	16476.08
442.914	17039.27
443.121	17917.85
443.328	17299.36
443.534	18558.86
443.741	18028.44
443.948	17825.69
444.154	19148.68
444.361	18839.44
444.568	19318.66
444.774	18921.35
444.981	19208.07
445.187	19414.91
445.394	20862.83
445.6	20404.08
445.807	22396.76
446.013	21469.03
446.22	21606.24
446.426	22286.17
446.633	22716.24
446.839	23717.7
447.046	22509.4
447.252	23899.97
447.459	23740.22
447.665	23633.73
447.871	24721.2
448.078	26064.67
448.284	24622.9
448.491	25458.47
448.697	26187.55
448.903	26941.2
449.11	26896.14
449.316	26421.02
449.522	26863.38
449.728	27774.72
449.935	27649.8
450.141	27965.18
450.347	28608.25
450.553	27461.38
450.76	27846.4
450.966	28743.41
451.172	28223.23
451.378	29284.08
451.584	28856.05
451.791	29820.64
451.997	29621.99
452.203	29810.4
452.409	29845.22
452.615	29941.47
452.821	28555
453.027	28509.94
453.233	29726.44
453.44	28421.88
453.646	29114.09
453.852	28974.83
454.058	29724.39
454.264	28499.7
454.47	29327.08
454.676	28485.37
454.882	29572.84
455.088	26930.96
455.294	27160.33
455.5	27696.9
455.705	28503.8
455.911	27062.03
456.117	26541.85
456.323	26447.64
456.529	24786.74
456.735	26359.58
456.941	25360.17
457.147	24938.29
457.352	24229.69
457.558	23803.71
457.764	23777.09
457.97	23723.84
458.176	23273.29
458.381	22880.08
458.587	21895
458.793	21845.85
458.999	20965.23
459.204	22517.59
459.41	21725.02
459.616	20483.95
459.821	20115.32
460.027	20256.63
460.233	19689.34
460.438	19095.43
460.644	19330.95
460.85	18347.92
461.055	18046.87
461.261	18079.64
461.466	16332.72
461.672	16039.86
461.878	17104.81
462.083	16107.44
462.289	15880.12
462.494	15574.97
462.7	14997.45
462.905	14604.24
463.111	15171.52
463.316	14972.87
463.522	14587.85
463.727	14751.69
463.932	14979.01
464.138	14411.73
464.343	14841.8
464.549	14313.42
464.754	14800.84
464.959	14712.78
465.165	14358.48
465.37	13817.82
465.575	13580.25
465.781	14002.13
465.986	14176.21
466.191	13477.85
466.397	13522.91
466.602	12748.78
466.807	13305.82
467.012	13262.82
467.218	13240.29
467.423	13006.82
467.628	13193.19
467.833	13764.57
468.038	13101.03
468.244	13033.44
468.449	13342.69
468.654	12806.12
468.859	12689.39
469.064	12439.53
469.269	12257.26
469.474	12335.09
469.679	12466.16
469.885	12011.51
470.09	12328.94
470.295	12124.15
470.5	11984.88
470.705	12005.36
470.91	11763.7
471.115	11788.28
471.32	11991.03
471.525	11771.9
471.73	11374.59
471.935	11526.14
472.139	11030.53
472.344	11237.38
472.549	10919.94
472.754	11067.39
472.959	10825.73
473.164	10526.73
473.369	10436.62
473.574	10795.01
473.778	10586.12
473.983	10633.22
474.188	10493.96
474.393	10086.42
474.598	10135.57
474.802	10082.32
475.007	9908.24
475.212	10082.32
475.417	9713.69
475.621	9691.16
475.826	9523.23
476.031	9383.96
476.235	9353.24
476.44	9523.23
476.645	9125.92
476.849	9234.46
477.054	8929.31
477.259	8935.46
477.463	9291.8
477.668	8800.29
477.872	9148.45
478.077	8769.57
478.282	8513.58
478.486	8624.17
478.691	8450.09
478.895	8448.04
479.1	8345.64
479.304	8384.55
479.509	8345.64
479.713	8226.86
479.918	8140.85
480.122	8003.63
480.326	8321.07
480.531	8286.25
480.735	8028.21
480.94	7860.27
481.144	8280.11
481.348	7804.98
481.553	7835.7
481.757	7725.11
481.961	7878.71
482.166	7964.72
482.37	7917.62
482.574	7759.92
482.778	7843.89
482.983	7993.39
483.187	7841.84
483.391	7825.46
483.595	7809.08
483.8	7796.79
484.004	7850.03
484.208	7952.43
484.412	7708.73
484.616	8007.73
484.821	8017.97
485.025	7714.87
485.229	7981.1
485.433	7817.27
485.637	7948.34
485.841	7798.84
486.045	7731.25
486.249	8003.63
486.453	7706.68
486.657	7813.17
486.861	7874.61
487.065	7594.04
487.269	7985.2
487.473	7776.31
487.677	7931.95
487.881	7921.71
488.085	7983.15
488.289	7782.45
488.493	7815.22
488.697	7843.89
488.901	7882.8
489.105	7882.8
489.309	7813.17
489.512	8015.92
489.716	7927.86
489.92	7827.51
490.124	7739.44
490.328	8044.59
490.531	7876.66
490.735	7776.31
490.939	8103.98
491.143	8011.82
491.346	8044.59
491.55	8130.61
491.754	8169.52
491.958	8192.05
492.161	8116.27
492.365	8300.59
492.569	8165.42
492.772	7995.44
492.976	8312.88
493.18	8443.95
493.383	8634.41
493.587	8706.09
493.79	8570.92
493.994	8599.59
494.197	8790.05
494.401	8581.16
494.605	8759.33
494.808	9021.47
495.012	8714.28
495.215	8935.46
495.419	9218.08
495.622	9009.19
495.825	9136.16
496.029	9177.12
496.232	9250.85
496.436	9314.33
496.639	9580.57
496.843	9494.55
497.046	9543.71
497.249	9660.44
497.453	9818.13
497.656	10022.93
497.859	9744.41
498.063	10092.56
498.266	10295.31
498.469	10154
498.673	10397.71
498.876	10508.3
499.079	10872.84
499.282	10614.79
499.485	10846.21
499.689	10795.01
499.892	11143.17
500.095	11134.98
500.298	11388.92
500.501	11386.88
500.705	11444.22
500.908	11814.9
501.111	11843.57
501.314	11845.62
501.517	12029.94
501.72	12034.04
501.923	12128.24
502.126	12472.3
502.329	12705.77
502.532	12810.22
502.735	12861.41
502.938	12945.38
503.141	13088.74
503.344	13213.67
503.547	13160.42
503.75	13574.11
503.953	13404.13
504.156	13862.87
504.359	14010.32
504.562	13832.15
504.765	14323.66
504.968	14446.54
505.17	14471.12
505.373	14430.16
505.576	14794.7
505.779	14925.77
505.982	14972.87
506.185	15685.56
506.387	15359.94
506.59	15638.46
506.793	15740.86
506.996	16080.82
507.198	16398.26
507.401	16189.36
507.604	16359.35
507.807	16732.08
508.009	16963.5
508.212	16988.07
508.415	17117.09
508.617	17532.83
508.82	17450.91
509.022	17371.04
509.225	17944.47
509.428	17979.29
509.63	18175.89
509.833	18306.96
510.035	18700.17
510.238	18626.45
510.44	18726.8
510.643	19036.04
510.845	19369.86
511.048	19117.96
511.25	19685.25
511.453	19771.26
511.655	20100.98
511.858	20137.85
512.06	20426.61
512.262	20651.89
512.465	20619.12
512.667	21165.93
512.87	21178.22
513.072	21251.94
513.274	21817.18
513.477	21559.14
513.679	21972.83
513.881	22304.6
514.084	22509.4
514.286	22316.89
514.488	22550.35
514.69	23445.32
514.893	23396.17
515.095	23248.71
515.297	23691.07
515.499	23742.27
515.701	24227.64
515.904	24235.83
516.106	24430.39
516.308	24670
516.51	24721.2
516.712	24823.6
516.914	25278.25
517.116	25456.42
517.318	25663.27
517.52	25874.21
517.722	26023.71
517.925	26263.32
518.127	26881.81
518.329	26916.62
518.531	26642.2
518.733	27102.99
518.935	27424.52
519.136	27428.62
519.338	27942.66
519.54	27932.42
519.742	28421.88
519.944	28391.16
520.146	28600.05
520.348	29046.51
520.55	28794.61
520.752	29134.57
520.954	29955.81
521.155	29914.85
521.357	29779.68
521.559	30189.28
521.761	30881.49
521.963	30461.66
522.164	30654.17
522.366	31049.42
522.568	31182.54
522.77	31280.85
522.971	31987.39
523.173	31579.85
523.375	31798.98
523.576	31856.32
523.778	31934.15
523.98	32396.99
524.181	32476.86
524.383	32495.29
524.584	33095.35
524.786	33066.67
524.988	32859.83
525.189	33556.14
525.391	33283.76
525.592	33828.52
525.794	33699.5
525.995	33861.29
526.197	33832.61
526.398	33935.01
526.6	34262.69
526.801	34526.88
527.003	34598.55
527.204	34528.92
527.406	35024.53
527.607	35124.88
527.808	35499.66
528.01	34614.94
528.211	34926.23
528.412	35667.59
528.614	35227.28
528.815	35751.56
529.016	35874.44
529.218	35614.35
529.419	35835.53
529.62	35569.29
529.822	35643.02
530.023	36058.76
530.224	35606.16
530.425	36216.45
530.626	36005.51
530.828	35720.84
531.029	36867.7
531.23	35985.03
531.431	36193.92
531.632	36427.39
531.833	36431.49
532.035	36261.51
532.236	36513.41
532.437	36490.88
532.638	36494.97
532.839	37031.54
533.04	36798.07
533.241	36361.86
533.442	36705.91
533.643	36384.38
533.844	36607.61
534.045	36685.43
534.246	36624
534.447	36699.77
534.648	36253.31
534.849	36789.88
535.05	36611.71
535.251	36834.94
535.451	36761.21
535.652	36775.55
535.853	36591.23
536.054	36933.24
536.255	36982.39
536.456	36781.69
536.657	37465.71
536.857	37019.25
537.058	36540.03
537.259	37011.06
537.46	36783.74
537.66	36642.43
537.861	36994.68
538.062	36376.19
538.263	36888.18
538.463	36570.75
538.664	36707.96
538.865	36748.92
539.065	37084.79
539.266	36238.98
539.466	36998.77
539.667	36527.74
539.868	37377.65
540.068	36591.23
540.269	36943.48
540.469	37211.76
540.67	36441.73
540.87	36988.53
541.071	36550.27
541.271	36906.62
541.472	36746.87
541.672	36589.18
541.873	36628.09
542.073	36445.82
542.274	37000.82
542.474	36953.72
542.675	36656.76
542.875	37006.97
543.075	36640.38
543.276	36243.07
543.476	36736.63
543.676	36632.19
543.877	36759.16
544.077	36632.19
544.277	36824.7
544.478	36693.63
544.678	36890.23
544.878	36937.34
545.078	36494.97
545.279	36476.54
545.479	36216.45
545.679	36744.83
545.879	36488.83
546.079	36470.4
546.28	36480.64
546.48	36458.11
546.68	36908.66
546.88	36648.57
547.08	36339.33
547.28	36449.92
547.48	36144.77
547.68	36679.29
547.88	36648.57
548.081	36640.38
548.281	36718.2
548.481	36511.36
548.681	36945.53
548.881	36710.01
549.081	36679.29
549.28	36392.58
549.48	36605.56
549.68	36466.3
549.88	36904.57
550.08	36542.08
550.28	36820.6
550.48	36259.46
550.68	36298.37
550.88	35972.74
551.08	36474.49
551.279	36707.96
551.479	36408.96
551.679	36501.12
551.879	36634.24
552.079	36548.22
552.278	35866.25
552.478	35991.17
552.678	36216.45
552.878	36558.46
553.077	36101.76
553.277	36531.84
553.477	36757.11
553.676	36238.98
553.876	36230.79
554.076	36105.86
554.275	36015.75
554.475	35862.15
554.674	36114.05
554.874	36265.6
555.074	36009.61
555.273	36363.9
555.473	36374.14
555.672	35858.06
555.872	36171.39
556.071	35956.36
556.271	36257.41
556.47	36069
556.67	35894.92
556.869	36023.94
557.068	35884.68
557.268	35962.5
557.467	35765.9
557.667	35851.91
557.866	35952.26
558.065	36265.6
558.265	35835.53
558.464	35845.77
558.663	35976.84
558.863	35282.58
559.062	36169.35
559.261	35380.88
559.461	35595.92
559.66	35063.44
559.859	35671.69
560.058	35446.41
560.258	35573.39
560.457	35245.71
560.656	35860.1
560.855	35495.57
561.054	35425.93
561.253	35022.48
561.453	35380.88
561.652	35415.69
561.851	35563.15
562.05	34963.09
562.249	34934.42
562.448	35321.49
562.647	34946.71
562.846	35065.49
563.045	34760.34
563.244	34481.82
563.443	35165.84
563.642	34569.88
563.841	34588.31
564.04	34778.78
564.239	34973.33
564.438	34584.22
564.637	34985.62
564.836	34641.56
565.035	34401.95
565.234	34412.19
565.432	34447.01
565.631	34590.36
565.83	34328.22
566.029	33986.21
566.228	34227.87
566.427	34354.85
566.625	33842.85
566.824	33707.69
567.023	34248.35
567.222	33603.24
567.42	33849
567.619	34002.6
567.818	33869.48
568.016	33519.28
568.215	34148
568.414	33642.15
568.612	33836.71
568.811	33410.73
569.01	33355.44
569.208	33300.14
569.407	33711.78
569.605	32933.56
569.804	33650.35
570.002	33230.51
570.201	32818.87
570.4	33050.29
570.598	32644.79
570.797	33222.32
570.995	33220.27
571.193	32569.02
571.392	32986.8
571.59	32224.96
571.789	32474.81
571.987	32589.5
572.186	32165.57
572.384	31993.54
572.582	32456.38
572.781	32581.31
572.979	31827.65
573.177	32364.22
573.376	32272.06
573.574	31669.96
573.772	32353.98
573.971	32001.73
574.169	31770.31
574.367	31727.3
574.565	31837.89
574.763	31805.13
574.962	31696.58
575.16	31356.62
575.358	31493.83
575.556	31467.21
575.754	31600.33
575.952	30811.86
576.151	31200.97
576.349	30918.35
576.547	30856.92
576.745	30783.19
576.943	30932.69
577.141	30668.5
577.339	31065.81
577.537	30799.57
577.735	30893.78
577.933	30209.76
578.131	30054.11
578.329	30531.29
578.527	30291.68
578.725	29994.72
578.923	30289.63
579.121	30023.39
579.319	29988.58
579.516	30019.3
579.714	29925.09
579.912	29794.02
580.11	29761.25
580.308	29935.33
580.506	29640.42
580.704	29110
580.901	29284.08
581.099	29746.92
581.297	28995.31
581.495	29136.62
581.692	29202.16
581.89	29019.89
582.088	29032.18
582.285	28919.54
582.483	29073.14
582.681	29095.66
582.878	28899.06
583.076	28409.59
583.274	29095.66
583.471	28354.3
583.669	28696.31
583.866	28528.38
584.064	28499.7
584.262	27997.95
584.459	28577.53
584.657	28284.67
584.854	28421.88
585.052	28030.72
585.249	28153.6
585.447	28043.01
585.644	27778.82
585.841	27813.63
586.039	28045.05
586.236	27358.99
586.434	27832.07
586.631	27506.44
586.828	27236.11
587.026	27408.14
587.223	27297.55
587.42	27182.86
587.618	27414.28
587.815	26820.37
588.012	26959.63
588.21	27090.7
588.407	27211.53
588.604	26822.42
588.801	26421.02
588.999	26705.68
589.196	26646.29
589.393	26707.73
589.59	26187.55
589.787	26552.09
589.984	26445.59
590.182	26326.81
590.379	26375.96
590.576	26173.21
590.773	26271.51
590.97	25890.59
591.167	26191.64
591.364	25734.95
591.561	26060.57
591.758	25806.62
591.955	25585.44
592.152	25755.43
592.349	25556.77
592.546	25648.93
592.743	25542.44
592.94	25198.38
593.137	25091.88
593.334	25204.52
593.531	24809.26
593.727	25147.18
593.924	25046.83
594.121	24661.81
594.318	24969.01
594.515	24465.21
594.712	25278.25
594.908	24561.46
595.105	24661.81
595.302	24338.23
595.499	25005.87
595.696	24500.02
595.892	24207.16
596.089	24268.6
596.286	24399.67
596.482	24084.28
596.679	24112.95
596.876	24061.76
597.072	23545.67
597.269	24035.13
597.466	23441.22
597.662	23697.22
597.859	23439.17
598.055	23875.39
598.252	23174.99
598.448	23660.35
598.645	23252.81
598.841	23498.56
599.038	23586.63
599.234	23394.12
599.431	23031.63
599.627	23338.82
599.824	23091.02
600.02	23289.67
600.217	23136.07
600.413	22757.2
600.609	22622.03
600.806	22699.86
601.002	22761.3
601.198	22816.59
601.395	22206.3
601.591	22427.48
601.787	22357.85
601.984	22361.94
602.18	22753.1
602.376	22413.14
602.572	22343.51
602.769	22130.52
602.965	21815.13
603.161	22015.83
603.357	21940.06
603.553	21886.81
603.75	21958.49
603.946	21813.09
604.142	21778.27
604.338	21759.84
604.534	21911.39
604.73	21671.78
604.926	21278.57
605.122	21591.91
605.318	21217.13
605.514	21055.34
605.71	21317.48
605.906	21051.24
606.102	21227.37
606.298	21411.68
606.494	21344.1
606.69	21170.02
606.886	21290.85
607.082	20789.1
607.278	21272.42
607.474	20529.01
607.67	20711.28
607.866	20692.85
608.062	21036.91
608.257	20529.01
608.453	20479.86
608.649	20651.89
608.845	20354.93
609.041	20455.28
609.236	20602.74
609.432	20399.99
609.628	20391.8
609.824	20580.21
610.019	20375.41
610.215	20227.96
610.411	20193.14
610.606	20459.38
610.802	20008.83
610.998	19916.67
611.193	20143.99
611.389	19980.15
611.584	19896.19
611.78	19799.93
611.976	19984.25
612.171	19971.96
612.367	19632
612.562	19976.06
612.758	19613.57
612.953	19462.02
613.149	19910.52
613.344	19593.09
613.539	19789.69
613.735	19652.48
613.93	19617.66
614.126	19470.21
614.321	19554.18
614.517	19550.08
614.712	19513.22
614.907	18990.98
615.103	19470.21
615.298	19455.87
615.493	19363.72
615.688	19029.9
615.884	19480.45
616.079	18900.87
616.274	19285.89
616.47	18950.03
616.665	18839.44
616.86	18896.78
617.055	18642.83
617.25	18691.98
617.445	19105.67
617.641	18839.44
617.836	18667.41
618.031	18554.77
618.226	18921.35
618.421	18476.94
618.616	18769.8
618.811	18464.66
619.006	18573.2
619.201	18163.61
619.396	18423.7
619.591	18040.73
619.786	18169.75
619.981	17731.48
620.176	18141.08
620.371	17557.41
620.566	17938.33
620.761	17670.05
620.956	18020.25
621.151	17868.7
621.346	17856.41
621.541	17405.86
621.735	17620.89
621.93	17121.19
622.125	17162.15
622.32	16807.85
622.515	17276.84
622.709	16754.6
622.904	17008.55
623.099	17012.65
623.294	16867.24
623.488	16652.2
623.683	16779.18
623.878	16443.31
624.072	16660.4
624.267	16302
624.462	16383.92
624.656	16369.58
624.851	16027.57
625.046	15716.28
625.24	15876.02
625.435	15939.51
625.629	16029.62
625.824	15970.23
626.018	15761.34
626.213	15456.19
626.407	15753.15
626.602	15235.01
626.796	15316.93
626.991	15341.5
627.185	15073.22
627.38	14854.09
627.574	15046.6
627.768	15077.32
627.963	15089.6
628.157	14671.82
628.352	14710.73
628.546	14432.21
628.74	14682.06
628.935	14641.1
629.129	14473.17
629.323	14362.58
629.517	13971.41
629.712	14147.54
629.906	14143.44
630.1	14059.48
630.294	14053.33
630.489	13801.43
630.683	14022.61
630.877	13629.4
631.071	13627.35
631.265	13678.55
631.459	13463.52
631.653	13662.17
631.848	13408.22
632.042	13414.37
632.236	13238.24
632.43	13236.19
632.624	13025.25
632.818	13096.93
633.012	13058.02
633.206	13002.72
633.4	12806.12
633.594	12761.06
633.788	12791.78
633.982	12826.6
634.176	12566.51
634.369	12402.67
634.563	12531.69
634.757	12281.84
634.951	12482.54
635.145	12328.94
635.339	12380.14
635.533	12326.89
635.726	12306.41
635.92	12060.66
636.114	12134.39
636.308	11927.54
636.501	11823.09
636.695	11943.92
636.889	11681.78
637.083	11614.2
637.276	11712.5
637.47	11565.05
637.664	11378.69
637.857	11438.08
638.051	11440.12
638.244	11139.07
638.438	11487.23
638.632	11231.23
638.825	11190.27
639.019	11110.4
639.212	10864.64
639.406	10831.88
639.599	11196.42
639.793	10993.67
639.986	10930.18
640.18	10913.8
640.373	10717.19
640.567	10567.69
640.76	10809.35
640.954	10434.57
641.147	10594.31
641.34	10526.73
641.534	10563.59
641.727	10410
641.92	10416.14
642.114	10174.48
642.307	10338.32
642.5	10156.05
642.694	9990.16
642.887	9877.52
643.08	10117.14
643.273	9898
643.467	9840.66
643.66	9740.31
643.853	9861.14
644.046	9644.06
644.239	9828.37
644.432	9615.38
644.626	9463.83
644.819	9500.7
645.012	9386.01
645.205	9543.71
645.398	9439.26
645.591	9306.14
645.784	9418.78
645.977	9295.9
646.17	9207.84
646.363	8859.68
646.556	9107.49
646.749	9064.48
646.942	9062.43
647.135	8996.9
647.328	8933.41
647.521	8845.35
647.714	8775.72
647.907	8566.82
648.099	8650.79
648.292	8765.48
648.485	8708.13
648.678	8626.22
648.871	8554.54
649.064	8450.09
649.256	8595.5
649.449	8386.6
649.642	8198.19
649.835	8198.19
650.027	8286.25
650.22	7999.54
650.413	8128.56
650.605	8093.74
650.798	8146.99
650.991	8134.7
651.183	7991.34
651.376	7837.75
651.568	7807.03
651.761	7653.43
651.954	7972.91
652.146	7698.49
652.339	7772.21
652.531	7774.26
652.724	7505.98
652.916	7540.79
653.109	7430.2
653.301	7520.31
653.494	7563.32
653.686	7370.81
653.879	7395.39
654.071	7467.06
654.263	7043.14
654.456	7452.73
654.648	7415.87
654.84	7084.09
655.033	7108.67
655.225	7211.07
655.417	7196.73
655.61	7231.55
655.802	7243.84
655.994	6832.19
656.186	7004.22
656.379	6899.78
656.571	6750.28
656.763	6781
656.955	6916.16
657.148	6899.78
657.34	6697.03
657.532	6641.73
657.724	6658.12
657.916	6764.61
658.108	6670.4
658.3	6412.36
658.492	6381.64
658.684	6305.87
658.876	6342.73
659.068	6424.65
659.26	6373.45
659.452	6369.35
659.644	6436.94
659.836	6139.98
660.028	6322.25
660.22	6172.75
660.412	6232.14
660.604	6199.37
660.796	6000.72
660.988	6168.65
661.18	6150.22
661.372	6131.79
661.563	6137.93
661.755	6062.16
661.947	5955.66
662.139	5937.23
662.331	5904.46
662.522	5931.09
662.714	5840.98
662.906	5677.14
663.097	5685.33
663.289	5447.77
663.481	5746.77
663.673	5707.86
663.864	5634.13
664.056	5630.04
664.247	5546.07
664.439	5531.73
664.631	5472.34
664.822	5640.28
665.014	5353.56
665.205	5523.54
665.397	5408.86
665.588	5406.81
665.78	5290.07
665.971	5283.93
666.163	5408.86
666.354	5339.23
666.546	5343.32
666.737	5068.89
666.929	5318.75
667.12	5212.25
667.311	5146.72
667.503	5062.75
667.694	5128.28
667.885	5111.9
668.077	5163.1
668.268	5046.37
668.459	5011.55
668.651	5013.6
668.842	4929.63
669.033	4855.9
669.224	4905.06
669.416	4935.78
669.607	4866.14
669.798	4876.38
669.989	4855.9
670.18	4900.96
670.371	4851.81
670.563	4667.49
670.754	4780.13
670.945	4708.45
671.136	4810.85
671.327	4679.78
671.518	4665.44
671.709	4569.19
671.9	4757.6
672.091	4790.37
672.282	4663.4
672.473	4593.76
672.664	4669.54
672.855	4352.1
673.046	4528.23
673.237	4487.27
673.428	4405.35
673.619	4421.74
673.809	4538.47
674	4417.64
674.191	4366.44
674.382	4409.45
674.573	4372.58
674.764	4333.67
674.954	4431.98
675.145	4229.23
675.336	4401.26
675.527	4300.91
675.717	4425.83
675.908	4311.14
676.099	4235.37
676.289	4157.55
676.48	4184.17
676.671	4210.79
676.861	4218.99
677.052	4079.72
677.243	4210.79
677.433	4122.73
677.624	4221.03
677.814	4098.16
678.005	4102.25
678.195	4198.51
678.386	4143.21
678.576	4040.81
678.767	4077.68
678.957	4089.96
679.148	4077.68
679.338	4063.34
679.529	3926.13
679.719	3950.7
679.909	4132.97
680.1	3776.63
680.29	3905.65
680.481	3876.98
680.671	3983.47
680.861	4001.9
681.052	3995.76
681.242	3862.64
681.432	3967.09
681.622	4001.9
681.813	3844.21
682.003	3801.2
682.193	3866.74
682.383	3913.84
682.573	3840.11
682.764	3809.39
682.954	3866.74
683.144	3903.6
683.334	3836.02
683.524	3799.15
683.714	3797.1
683.904	3817.58
684.094	3735.67
684.284	3686.51
684.474	3750
684.664	3815.54
684.854	3823.73
685.044	3842.16
685.234	3670.13
685.424	3606.64
685.614	3625.08
685.804	3577.97
685.994	3500.15
686.184	3721.33
686.374	3594.36
686.564	3653.75
686.753	3557.49
686.943	3487.86
687.133	3635.32
687.323	3514.49
687.513	3602.55
687.702	3405.94
687.892	3391.61
688.082	3594.36
688.272	3541.11
688.461	3438.71
688.651	3457.14
688.841	3352.7
689.03	3358.84
689.22	3481.72
689.41	3274.87
689.599	3364.98
689.789	3422.33
689.979	3373.18
690.168	3301.5
690.358	3254.39
690.547	3180.67
690.737	3352.7
690.926	3270.78
691.116	3248.25
691.305	3250.3
691.495	3332.22
691.684	3209.34
691.874	3242.11
692.063	3104.89
692.252	3129.47
692.442	3192.95
692.631	3113.08
692.82	3227.77
693.01	3190.91
693.199	3111.04
693.388	3100.8
693.578	3141.75
693.767	3209.34
693.956	3041.4
694.146	3139.71
694.335	3209.34
694.524	3047.55
694.713	3025.02
694.902	3016.83
695.092	3074.17
695.281	3004.54
695.47	2869.37
695.659	3014.78
695.848	2949.25
696.037	2963.58
696.226	2928.77
696.415	3053.69
696.604	2867.33
696.793	2807.94
696.982	2918.53
697.171	2936.96
697.36	2910.33
697.549	2910.33
697.738	2973.82
697.927	2898.05
698.116	2861.18
698.305	2762.88
698.494	2799.74
698.683	2760.83
698.872	2932.86
699.061	2861.18
699.25	2807.94
699.438	2930.81
699.627	2861.18
699.816	2861.18
700.005	2834.56
700.193	2865.28
700.382	2775.17
700.571	2791.55
700.76	2807.94
700.948	2816.13
701.137	2820.22
701.326	2818.18
701.514	2623.62
701.703	2726.02
701.892	2662.53
702.08	2783.36
702.269	2738.3
702.457	2619.52
702.646	2820.22
702.834	2775.17
703.023	2723.97
703.212	2674.82
703.4	2685.06
703.589	2580.61
703.777	2777.22
703.965	2652.29
704.154	2797.7
704.342	2656.39
704.531	2676.87
704.719	2594.95
704.907	2621.57
705.096	2648.19
705.284	2613.38
705.472	2588.8
705.661	2611.33
705.849	2728.07
706.037	2541.7
706.226	2652.29
706.414	2613.38
706.602	2558.08
706.79	2580.61
706.979	2633.86
707.167	2642.05
707.355	2533.51
707.543	2494.6
707.731	2510.98
707.919	2599.04
708.107	2357.38
708.296	2414.73
708.484	2660.48
708.672	2523.27
708.86	2560.13
709.048	2551.94
709.236	2384.01
709.424	2496.64
709.612	2392.2
709.8	2500.74
709.988	2406.53
710.176	2300.04
710.364	2480.26
710.551	2416.77
710.739	2551.94
710.927	2472.07
711.115	2441.35
711.303	2384.01
711.491	2373.77
711.679	2367.62
711.866	2259.08
712.054	2246.79
712.242	2300.04
712.43	2394.25
712.617	2355.33
712.805	2275.46
712.993	2345.09
713.181	2345.09
713.368	2308.23
713.556	2310.28
713.744	2355.33
713.931	2418.82
714.119	2371.72
714.306	2236.55
714.494	2136.2
714.682	2287.75
714.869	2259.08
715.057	2334.86
715.244	2146.44
715.432	2228.36
715.619	2275.46
715.807	2195.59
715.994	2334.86
716.182	2171.02
716.369	2267.27
716.556	2240.65
716.744	2252.94
716.931	2128.01
717.119	2189.45
717.306	2238.6
717.493	2162.83
717.681	2103.43
717.868	2197.64
718.055	2218.12
718.242	2134.15
718.43	2171.02
718.617	2209.93
718.804	2193.55
718.991	2103.43
719.179	2259.08
719.366	2111.63
719.553	2080.91
719.74	2234.5
719.927	2076.81
720.114	1933.45
720.301	2044.04
720.488	2189.45
720.676	2152.59
720.863	2007.18
721.05	2181.26
721.237	2218.12
721.424	2199.69
721.611	2027.66
721.798	2050.19
721.985	2162.83
722.172	2042
722.358	1992.84
722.545	2021.52
722.732	2064.52
722.919	2103.43
723.106	2005.13
723.293	1968.27
723.48	1937.55
723.667	1972.36
723.853	1978.51
724.04	2019.47
724.227	2027.66
724.414	1947.79
724.6	1937.55
724.787	1915.02
724.974	1927.31
725.161	1915.02
725.347	1931.41
725.534	1953.93
725.72	1978.51
725.907	1990.8
726.094	1931.41
726.28	1968.27
726.467	1874.06
726.653	1783.95
726.84	1972.36
727.027	1843.34
727.213	1892.49
727.4	1800.34
727.586	1857.68
727.773	1843.34
727.959	1915.02
728.145	1902.73
728.332	1747.09
728.518	1837.2
728.705	1783.95
728.891	1964.17
729.077	1820.81
729.264	1833.1
729.45	1917.07
729.636	1859.73
729.823	1851.53
730.009	1953.93
730.195	1851.53
730.382	1966.22
730.568	1841.29
730.754	1761.42
730.94	1808.53
731.126	1876.11
731.313	1808.53
731.499	1800.34
731.685	1841.29
731.871	1851.53
732.057	1859.73
732.243	1747.09
732.429	1763.47
732.615	1851.53
732.801	1728.66
732.987	1753.23
733.173	1824.91
733.359	1759.38
733.545	1708.18
733.731	1740.94
733.917	1745.04
734.103	1710.22
734.289	1816.72
734.475	1628.31
734.661	1724.56
734.847	1800.34
735.033	1722.51
735.219	1683.6
735.404	1648.79
735.59	1783.95
735.776	1648.79
735.962	1747.09
736.148	1669.27
736.333	1597.59
736.519	1712.27
736.705	1769.62
736.89	1769.62
737.076	1597.59
737.262	1677.46
737.447	1763.47
737.633	1611.92
737.819	1652.88
738.004	1677.46
738.19	1562.77
738.375	1587.35
738.561	1644.69
738.747	1616.02
738.932	1585.3
739.118	1595.54
739.303	1609.87
739.489	1589.39
739.674	1581.2
739.859	1695.89
740.045	1538.2
740.23	1530
740.416	1626.26
740.601	1530
740.786	1587.35
740.972	1570.96
741.157	1570.96
741.342	1376.41
741.528	1554.58
741.713	1472.66
741.898	1474.71
742.084	1550.48
742.269	1478.8
742.454	1530
742.639	1429.65
742.824	1460.37
743.01	1605.78
743.195	1530
743.38	1415.32
743.565	1530
743.75	1493.14
743.935	1353.88
744.12	1431.7
744.305	1398.93
744.49	1489.04
744.675	1431.7
744.86	1417.37
745.045	1427.6
745.23	1384.6
745.415	1421.46
745.6	1530
745.785	1239.19
745.97	1368.21
746.155	1382.55
746.34	1382.55
746.525	1409.17
746.71	1366.17
746.895	1243.29
747.079	1360.02
747.264	1357.97
747.449	1349.78
747.634	1335.45
747.819	1366.17
748.003	1235.1
748.188	1169.56
748.373	1226.9
748.557	1296.53
748.742	1235.1
748.927	1302.68
749.111	1159.32
749.296	1206.42
749.481	1251.48
749.665	1265.82
749.85	1210.52
750.034	1233.05
750.219	1194.14
750.404	1251.48
750.588	1171.61
750.773	1177.75
750.957	1243.29
751.141	1190.04
751.326	1144.99
751.51	1114.27
751.695	1177.75
751.879	1101.98
752.064	1155.23
752.248	1136.79
752.432	1005.72
752.617	1177.75
752.801	1116.31
752.985	1077.4
753.17	1116.31
753.354	1052.83
753.538	1144.99
753.722	1009.82
753.907	1058.97
754.091	921.76
754.275	1063.07
754.459	983.2
754.643	901.28
754.828	946.33
755.012	1003.68
755.196	966.81
755.38	870.56
755.564	975
755.748	901.28
755.932	1007.77
756.116	975
756.3	966.81
756.484	882.85
756.668	932
756.852	948.38
757.036	936.09
757.22	942.24
757.404	888.99
757.588	862.37
757.772	944.28
757.956	858.27
758.14	893.09
758.323	759.97
758.507	825.5
758.691	835.74
758.875	807.07
759.059	915.61
759.242	833.69
759.426	850.08
759.61	827.55
759.794	827.55
759.977	825.5
760.161	809.12
760.345	833.69
760.528	913.56
760.712	788.64
760.895	661.66
761.079	780.45
761.263	766.11
761.446	702.62
761.63	743.58
761.813	827.55
761.997	743.58
762.18	794.78
762.364	845.98
762.547	735.39
762.731	727.2
762.914	811.17
763.098	743.58
763.281	704.67
763.464	729.25
763.648	751.78
763.831	768.16
764.015	678.05
764.198	716.96
764.381	776.35
764.564	749.73
764.748	696.48
764.931	727.2
765.114	737.44
765.297	690.34
765.481	776.35
765.664	680.1
765.847	739.49
766.03	741.54
766.213	620.71
766.397	731.3
766.58	596.13
766.763	673.95
766.946	678.05
767.129	776.35
767.312	655.52
767.495	710.82
767.678	727.2
767.861	653.47
768.044	608.42
768.227	620.71
768.41	704.67
768.593	630.95
768.776	716.96
768.959	598.18
769.142	645.28
769.324	546.98
769.507	620.71
769.69	626.85
769.873	622.75
770.056	702.62
770.239	546.98
770.421	710.82
770.604	651.42
770.787	540.83
770.97	622.75
771.152	538.79
771.335	632.99
771.518	606.37
771.7	579.75
771.883	583.84
772.066	575.65
772.248	632.99
772.431	571.55
772.613	604.32
772.796	501.92
772.978	565.41
773.161	612.51
773.343	602.27
773.526	567.46
773.708	606.37
773.891	479.4
774.073	475.3
774.256	600.23
774.438	579.75
774.621	565.41
774.803	467.11
774.985	489.64
775.168	598.18
775.35	536.74
775.532	534.69
775.715	483.49
775.897	538.79
776.079	473.25
776.261	508.07
776.444	565.41
776.626	514.21
776.808	585.89
776.99	454.82
777.173	454.82
777.355	481.44
777.537	516.26
777.719	438.44
777.901	473.25
778.083	508.07
778.265	456.87
778.447	524.45
778.629	473.25
778.811	448.68
778.993	503.97
779.175	518.31
779.357	499.88
779.539	432.29
779.721	391.33
779.903	465.06
780.085	465.06
780.267	407.72
780.449	391.33
780.631	495.78
780.812	366.76
780.994	436.39
781.176	508.07
781.358	407.72
781.54	387.24
781.721	401.57
781.903	405.67
782.085	354.47
782.267	432.29
782.448	352.42
782.63	293.03
782.812	317.61
782.993	448.68
783.175	399.52
783.357	424.1
783.538	387.24
783.72	329.89
783.901	465.06
784.083	379.04
784.264	313.51
784.446	354.47
784.627	313.51
784.809	323.75
784.99	309.41
785.172	352.42
785.353	407.72
785.535	284.84
785.716	311.46
785.897	327.85
786.079	333.99
786.26	311.46
786.441	362.66
786.623	280.74
786.804	270.5
786.985	268.45
787.167	217.26
787.348	288.93
787.529	252.07
787.71	295.08
787.891	327.85
788.073	317.61
788.254	202.92
788.435	325.8
788.616	262.31
788.797	286.89
788.978	293.03
789.159	258.21
789.34	235.69
789.522	270.5
789.703	276.65
789.884	237.74
790.065	276.65
790.246	288.93
790.427	282.79
790.607	333.99
790.788	311.46
790.969	217.26
791.15	284.84
791.331	202.92
791.512	245.93
791.693	243.88
791.874	245.93
792.054	333.99
792.235	211.11
792.416	227.5
792.597	243.88
792.778	268.45
792.958	268.45
793.139	229.54
793.32	239.78
793.5	215.21
793.681	233.64
793.862	221.35
794.042	215.21
794.223	166.06
794.404	211.11
794.584	247.97
794.765	108.71
794.945	178.34
795.126	184.49
795.306	256.17
795.487	235.69
795.667	194.73
795.848	196.78
796.028	211.11
796.209	239.78
796.389	233.64
796.57	155.82
796.75	96.43
796.93	237.74
797.111	116.9
797.291	178.34
797.471	202.92
797.652	149.67
797.832	241.83
798.012	174.25
798.192	204.97
798.373	178.34
798.553	151.72
798.733	219.3
798.913	198.82
799.093	153.77
799.274	153.77
799.454	188.58
799.634	219.3
799.814	231.59
799.994	139.43
800.174	180.39
800.354	164.01
800.534	180.39
800.714	143.53
800.894	161.96
801.074	106.67
801.254	92.33
801.434	215.21
801.614	157.86
801.794	127.14
801.974	665.76
802.154	129.19
802.334	170.15
802.514	217.26
802.693	104.62
802.873	112.81
803.053	237.74
803.233	155.82
803.413	137.38
803.592	180.39
803.772	149.67
803.952	53.42
804.131	157.86
804.311	133.29
804.491	211.11
804.67	137.38
804.85	63.66
805.03	186.54
805.209	198.82
805.389	153.77
805.568	94.38
805.748	182.44
805.928	145.58
806.107	82.09
806.287	112.81
806.466	90.28
806.646	90.28
806.825	182.44
807.004	123.05
807.184	164.01
807.363	204.97
807.543	125.1
807.722	153.77
807.901	180.39
808.081	149.67
808.26	82.09
808.439	114.86
808.619	71.85
808.798	112.81
808.977	112.81
809.156	94.38
809.336	221.35
809.515	204.97
809.694	112.81
809.873	75.95
810.052	98.47
810.231	137.38
810.411	118.95
810.59	145.58
810.769	94.38
810.948	41.13
811.127	92.33
811.306	92.33
811.485	84.14
811.664	157.86
811.843	190.63
812.022	155.82
812.201	63.66
812.38	125.1
812.559	133.29
812.737	106.67
812.916	88.23
813.095	30.89
813.274	80.04
813.453	123.05
813.632	121
813.811	166.06
813.989	53.42
814.168	80.04
814.347	55.47
814.526	80.04
814.704	137.38
814.883	149.67
815.062	57.51
815.24	133.29
815.419	14.51
815.598	202.92
815.776	67.75
815.955	71.85
816.133	57.51
816.312	149.67
816.49	121
816.669	96.43
816.847	82.09
817.026	100.52
817.204	104.62
817.383	92.33
817.561	6.31
817.74	157.86
817.918	55.47
818.097	121
818.275	39.08
818.453	127.14
818.632	82.09
818.81	39.08
818.988	47.27
819.167	106.67
819.345	30.89
819.523	71.85
819.701	125.1
819.879	121
820.058	47.27
820.236	22.7
820.414	84.14
820.592	71.85
820.77	98.47
820.948	49.32
821.127	112.81
821.305	112.81
821.483	82.09
821.661	145.58
821.839	53.42
822.017	75.95
822.195	65.71
822.373	98.47
822.551	51.37
822.729	86.19
822.907	71.85
823.085	55.47
823.262	24.75
823.44	114.86
823.618	41.13
823.796	32.94
823.974	102.57
824.152	43.18
824.329	77.99
824.507	100.52
824.685	73.9
824.863	106.67
825.04	73.9
825.218	86.19
825.396	55.47
825.574	102.57
825.751	41.13
825.929	94.38
826.107	28.84
826.284	131.24
826.462	45.23
826.639	18.6
826.817	-18.26
826.994	14.51
827.172	39.08
827.349	121
827.527	106.67
827.704	139.43
827.882	43.18
828.059	55.47
828.237	8.36
828.414	100.52
828.591	-42.84
828.769	22.7
828.946	22.7
829.124	18.6
829.301	80.04
829.478	47.27
829.655	145.58
829.833	34.99
830.01	32.94
830.187	106.67
830.364	34.99
830.542	63.66
830.719	90.28
830.896	67.75
831.073	73.9
831.25	-57.17
831.427	100.52
831.604	57.51
831.782	47.27
831.959	73.9
832.136	65.71
832.313	-8.02
832.49	47.27
832.667	71.85
832.844	14.51
833.021	131.24
833.198	147.62
833.374	22.7
833.551	26.79
833.728	-14.17
833.905	77.99
834.082	-32.6
834.259	90.28
834.436	129.19
834.612	63.66
834.789	75.95
834.966	55.47
835.143	82.09
835.319	-5.97
835.496	96.43
835.673	18.6
835.85	12.46
836.026	22.7
836.203	71.85
836.38	34.99
836.556	-5.97
836.733	51.37
836.909	26.79
837.086	-3.93
837.262	4.27
837.439	49.32
837.616	41.13
837.792	123.05
837.968	69.8
838.145	41.13
838.321	73.9
838.498	47.27
838.674	84.14
838.851	12.46
839.027	-14.17
839.203	6.31
839.38	71.85
839.556	-32.6
839.732	55.47
839.909	10.41
840.085	82.09
840.261	-3.93
840.437	104.62
840.614	71.85
840.79	80.04
840.966	63.66
841.142	59.56
841.318	-28.5
841.494	90.28
841.671	59.56
841.847	32.94
842.023	-20.31
842.199	41.13
842.375	-34.64
842.551	-26.45
842.727	-3.93
842.903	65.71
843.079	-42.84
843.255	121
843.431	-63.32
843.607	73.9
843.783	8.36
843.959	51.37
844.134	30.89
844.31	63.66
844.486	57.51
844.662	6.31
844.838	34.99
845.013	18.6
845.189	63.66
845.365	-16.21
845.541	57.51
845.716	63.66
845.892	6.31
846.068	6.31
846.244	-1.88
846.419	-18.26
846.595	0.17
846.77	-26.45
846.946	39.08
847.122	39.08
847.297	49.32
847.473	-3.93
847.648	37.03
847.824	-32.6
847.999	4.27
848.175	34.99
848.35	14.51
848.526	102.57
848.701	41.13
848.876	71.85
849.052	55.47
849.227	-26.45
849.403	6.31
849.578	118.95
849.753	22.7
849.929	59.56
850.104	-69.46
850.279	67.75
850.454	43.18
850.63	45.23
850.805	71.85
850.98	67.75
851.155	-55.12
851.33	22.7
851.505	-5.97
851.681	8.36
851.856	-40.79
852.031	16.55
852.206	71.85
852.381	4.27
852.556	-26.45
852.731	82.09
852.906	41.13
853.081	-16.21
853.256	43.18
853.431	30.89
853.606	57.51
853.781	-18.26
853.956	18.6
854.131	-38.74
854.305	-24.4
854.48	-30.55
854.655	34.99
854.83	-61.27
855.005	-1.88
855.18	-57.17
855.354	47.27
855.529	96.43
855.704	-24.4
855.879	-26.45
856.053	-40.79
856.228	-16.21
856.403	69.8
856.577	-16.21
856.752	22.7
856.926	8.36
857.101	61.61
857.276	2.22
857.45	14.51
857.625	-14.17
857.799	-24.4
857.974	-22.36
858.148	-79.7
858.323	22.7
858.497	-61.27
858.672	32.94
858.846	-63.32
859.02	6.31
859.195	39.08
859.369	-14.17
859.543	49.32
859.718	-61.27
859.892	-42.84
860.066	-10.07
860.241	-67.41
860.415	6.31
860.589	53.42
860.763	14.51
860.938	47.27
861.112	-5.97
861.286	12.46
861.46	2.22
861.634	47.27
861.808	71.85
861.982	67.75
862.157	-63.32
862.331	-12.12
862.505	18.6
862.679	-14.17
862.853	-1.88
863.027	-108.37
863.201	121
863.375	6.31
863.549	-42.84
863.722	30.89
863.896	82.09
864.07	32.94
864.244	-26.45
864.418	6.31
864.592	6.31
864.766	71.85
864.939	63.66
865.113	49.32
865.287	10.41
865.461	-1.88
865.634	-8.02
865.808	20.65
865.982	-32.6
866.156	-30.55
866.329	-1.88
866.503	63.66
866.676	14.51
866.85	-14.17
867.024	37.03
867.197	-59.22
867.371	14.51
867.544	14.51
867.718	-1.88
867.891	14.51
868.065	-34.64
868.238	18.6
868.412	63.66
868.585	-36.69
868.759	-3.93
868.932	24.75
869.105	26.79
869.279	28.84
869.452	-51.03
869.625	2.22
869.799	-38.74
869.972	22.7
870.145	34.99
870.319	-40.79
870.492	-10.07
870.665	43.18
870.838	-18.26
871.011	26.79
871.185	39.08
871.358	-18.26
871.531	51.37
871.704	-14.17
871.877	10.41
872.05	22.7
872.223	-24.4
872.396	65.71
872.569	53.42
872.742	-34.64
872.915	55.47
873.088	8.36
873.261	-46.93
873.434	6.31
873.607	114.86
873.78	63.66
873.953	-26.45
874.126	22.7
874.299	43.18
874.471	-24.4
874.644	-18.26
874.817	10.41
874.99	2.22
875.163	-14.17
875.335	20.65
875.508	-40.79
875.681	0.17
875.853	-57.17
876.026	-10.07
876.199	43.18
876.371	-3.93
876.544	0.17
876.717	18.6
876.889	37.03
877.062	-57.17
877.234	-63.32
877.407	-18.26
877.579	16.55
877.752	16.55
877.924	43.18
878.097	32.94
878.269	-91.99
878.442	49.32
878.614	-55.12
878.786	12.46
878.959	41.13
879.131	102.57
879.303	-26.45
879.476	-34.64
879.648	-18.26
879.82	-14.17
879.993	-65.36
880.165	-22.36
880.337	22.7
880.509	49.32
880.681	-1.88
880.854	47.27
881.026	75.95
881.198	12.46
881.37	14.51
881.542	-10.07
881.714	69.8
881.886	-40.79
882.058	20.65
882.23	-5.97
882.402	34.99
882.574	-24.4
882.746	-63.32
882.918	16.55
883.09	-32.6
883.262	-81.75
883.434	2.22
883.606	-8.02
883.778	6.31
883.95	16.55
884.122	-10.07
884.293	-38.74
884.465	-10.07
884.637	71.85
884.809	-40.79
884.98	-38.74
885.152	41.13
885.324	39.08
885.496	2.22
885.667	-22.36
885.839	22.7
886.011	55.47
886.182	-8.02
886.354	-38.74
886.525	10.41
886.697	0.17
886.869	-46.93
887.04	-10.07
887.212	-40.79
887.383	75.95
887.555	16.55
887.726	6.31
887.897	24.75
888.069	-30.55
888.24	-24.4
888.412	2.22
888.583	-57.17
888.754	12.46
888.926	-132.95
889.097	20.65
889.268	-12.12
889.44	-16.21
889.611	10.41
889.782	39.08
889.953	-10.07
890.125	14.51
890.296	-24.4
890.467	-73.56
890.638	-22.36
890.809	32.94
890.98	0.17
891.151	-59.22
891.323	-18.26
891.494	-42.84
891.665	6.31
891.836	14.51
892.007	-14.17
892.178	-24.4
892.349	-38.74
892.52	10.41
892.691	12.46
892.862	-55.12
893.032	-130.9
893.203	-38.74
893.374	-59.22
893.545	-10.07
893.716	-20.31
893.887	32.94
894.057	28.84
894.228	57.51
894.399	-81.75
894.57	24.75
894.74	55.47
894.911	8.36
895.082	24.75
895.253	34.99
895.423	-53.08
895.594	41.13
895.764	-1.88
895.935	8.36
896.106	39.08
896.276	-24.4
896.447	-51.03
896.617	-83.8
896.788	-10.07
896.958	-89.94
897.129	-26.45
897.299	-46.93
897.47	-55.12
897.64	-38.74
897.81	-51.03
897.981	-18.26
898.151	-26.45
898.322	45.23
898.492	-32.6
898.662	-1.88
898.832	-5.97
899.003	14.51
899.173	55.47
899.343	-26.45
899.513	-46.93
