Data from USB4F104151__296__14-23-54-673.txt Node

Date: Thu Mar 13 14:23:54 EDT 2025
User: louis
Spectrometer: USB4F10415
Trigger mode: 4
Integration Time (sec): 2.000000E-2
Scans to average: 1
Electric dark correction enabled: true
Nonlinearity correction enabled: false
Boxcar width: 0
XAxis mode: Wavelengths
Number of Pixels in Spectrum: 3648
>>>>>Begin Spectral Data<<<<<
178.204	-159.74
178.424	-159.74
178.644	-159.74
178.864	-137.21
179.084	-110.59
179.304	8.19
179.524	2.05
179.744	-94.21
179.964	45.06
180.184	20.48
180.404	6.14
180.624	38.91
180.844	10.24
181.064	-20.48
181.283	-59.39
181.503	30.72
181.723	12.29
181.943	-77.82
182.163	63.49
182.383	-36.86
182.602	38.91
182.822	8.19
183.042	20.48
183.262	4.1
183.482	-12.29
183.701	10.24
183.921	28.67
184.141	-4.1
184.361	90.11
184.58	14.34
184.8	36.86
185.02	-10.24
185.239	45.06
185.459	75.77
185.679	28.67
185.898	-6.14
186.118	34.82
186.338	6.14
186.557	4.1
186.777	61.44
186.997	14.34
187.216	20.48
187.436	129.02
187.655	20.48
187.875	69.63
188.095	49.15
188.314	79.87
188.534	53.25
188.753	45.06
188.973	0
189.192	-10.24
189.412	12.29
189.631	4.1
189.851	-24.58
190.07	77.82
190.29	28.67
190.509	79.87
190.729	14.34
190.948	88.06
191.168	65.54
191.387	71.68
191.607	6.14
191.826	4.1
192.045	-18.43
192.265	-20.48
192.484	-4.1
192.704	-20.48
192.923	-22.53
193.142	86.01
193.362	40.96
193.581	106.49
193.8	69.63
194.02	61.44
194.239	40.96
194.458	30.72
194.678	-2.05
194.897	40.96
195.116	45.06
195.335	34.82
195.555	-4.1
195.774	69.63
195.993	110.59
196.212	77.82
196.432	36.86
196.651	-45.06
196.87	-4.1
197.089	178.17
197.308	83.97
197.528	-4.1
197.747	4.1
197.966	14.34
198.185	36.86
198.404	45.06
198.623	0
198.842	86.01
199.062	32.77
199.281	-8.19
199.5	57.34
199.719	20.48
199.938	86.01
200.157	71.68
200.376	-12.29
200.595	98.3
200.814	4.1
201.033	20.48
201.252	0
201.471	-4.1
201.69	10.24
201.909	53.25
202.128	49.15
202.347	38.91
202.566	-36.86
202.785	40.96
203.004	-38.91
203.223	126.97
203.442	-6.14
203.661	69.63
203.879	26.62
204.098	47.1
204.317	-43.01
204.536	86.01
204.755	45.06
204.974	38.91
205.193	61.44
205.411	124.93
205.63	65.54
205.849	94.21
206.068	49.15
206.287	4.1
206.505	49.15
206.724	81.92
206.943	16.38
207.162	86.01
207.381	8.19
207.599	45.06
207.818	104.45
208.037	94.21
208.255	43.01
208.474	69.63
208.693	81.92
208.911	55.3
209.13	57.34
209.349	36.86
209.567	126.97
209.786	18.43
210.005	86.01
210.223	2.05
210.442	-16.38
210.661	12.29
210.879	-14.34
211.098	18.43
211.316	51.2
211.535	8.19
211.753	6.14
211.972	6.14
212.191	8.19
212.409	24.58
212.628	-4.1
212.846	34.82
213.065	4.1
213.283	122.88
213.502	-28.67
213.72	-20.48
213.938	65.54
214.157	28.67
214.375	61.44
214.594	20.48
214.812	-49.15
215.031	55.3
215.249	-6.14
215.467	71.68
215.686	30.72
215.904	34.82
216.122	12.29
216.341	4.1
216.559	28.67
216.778	94.21
216.996	4.1
217.214	57.34
217.432	-36.86
217.651	-2.05
217.869	24.58
218.087	53.25
218.306	-8.19
218.524	18.43
218.742	-30.72
218.96	47.1
219.179	24.58
219.397	6.14
219.615	88.06
219.833	88.06
220.051	26.62
220.27	79.87
220.488	96.25
220.706	71.68
220.924	94.21
221.142	30.72
221.36	57.34
221.578	96.25
221.796	28.67
222.015	-18.43
222.233	18.43
222.451	96.25
222.669	10.24
222.887	96.25
223.105	-6.14
223.323	38.91
223.541	75.77
223.759	-4.1
223.977	65.54
224.195	16.38
224.413	24.58
224.631	22.53
224.849	36.86
225.067	110.59
225.285	12.29
225.503	22.53
225.721	-26.62
225.939	22.53
226.157	73.73
226.375	55.3
226.592	-34.82
226.81	32.77
227.028	63.49
227.246	45.06
227.464	96.25
227.682	4.1
227.9	28.67
228.117	34.82
228.335	45.06
228.553	16.38
228.771	77.82
228.989	53.25
229.206	49.15
229.424	36.86
229.642	59.39
229.86	-8.19
230.077	53.25
230.295	-49.15
230.513	55.3
230.731	12.29
230.948	14.34
231.166	63.49
231.384	88.06
231.601	102.4
231.819	86.01
232.037	22.53
232.254	10.24
232.472	34.82
232.689	63.49
232.907	92.16
233.125	55.3
233.342	32.77
233.56	-4.1
233.777	-20.48
233.995	49.15
234.213	26.62
234.43	6.14
234.648	22.53
234.865	-61.44
235.083	59.39
235.3	-28.67
235.518	16.38
235.735	71.68
235.953	12.29
236.17	20.48
236.388	-4.1
236.605	45.06
236.822	126.97
237.04	40.96
237.257	30.72
237.475	2.05
237.692	38.91
237.909	57.34
238.127	-4.1
238.344	-8.19
238.562	47.1
238.779	-65.53
238.996	40.96
239.214	55.3
239.431	2.05
239.648	45.06
239.865	77.82
240.083	-6.14
240.3	12.29
240.517	-36.86
240.735	-20.48
240.952	47.1
241.169	-16.38
241.386	20.48
241.603	4.1
241.821	12.29
242.038	40.96
242.255	-10.24
242.472	0
242.689	14.34
242.907	63.49
243.124	65.54
243.341	28.67
243.558	28.67
243.775	-20.48
243.992	-49.15
244.209	57.34
244.426	28.67
244.643	-4.1
244.86	-38.91
245.078	77.82
245.295	16.38
245.512	6.14
245.729	36.86
245.946	53.25
246.163	77.82
246.38	38.91
246.597	45.06
246.814	36.86
247.031	-10.24
247.248	-81.92
247.464	-4.1
247.681	8.19
247.898	-12.29
248.115	96.25
248.332	47.1
248.549	0
248.766	36.86
248.983	14.34
249.2	143.36
249.417	67.58
249.633	6.14
249.85	20.48
250.067	6.14
250.284	61.44
250.501	55.3
250.717	40.96
250.934	28.67
251.151	24.58
251.368	79.87
251.585	61.44
251.801	12.29
252.018	61.44
252.235	73.73
252.451	-24.58
252.668	-6.14
252.885	53.25
253.102	53.25
253.318	20.48
253.535	94.21
253.752	75.77
253.968	-2.05
254.185	12.29
254.401	53.25
254.618	16.38
254.835	45.06
255.051	36.86
255.268	55.3
255.484	12.29
255.701	57.34
255.917	53.25
256.134	-40.96
256.351	22.53
256.567	-26.62
256.784	45.06
257	-2.05
257.217	47.1
257.433	40.96
257.65	32.77
257.866	71.68
258.082	28.67
258.299	10.24
258.515	77.82
258.732	-36.86
258.948	2.05
259.165	43.01
259.381	69.63
259.597	71.68
259.814	118.78
260.03	40.96
260.246	77.82
260.463	47.1
260.679	28.67
260.895	77.82
261.112	65.54
261.328	12.29
261.544	2.05
261.761	90.11
261.977	83.97
262.193	-26.62
262.409	71.68
262.626	45.06
262.842	-20.48
263.058	12.29
263.274	67.58
263.49	45.06
263.707	55.3
263.923	8.19
264.139	65.54
264.355	14.34
264.571	16.38
264.787	-16.38
265.004	-28.67
265.22	20.48
265.436	94.21
265.652	-14.34
265.868	-6.14
266.084	-40.96
266.3	55.3
266.516	-53.25
266.732	65.54
266.948	18.43
267.164	73.73
267.38	65.54
267.596	55.3
267.812	40.96
268.028	55.3
268.244	8.19
268.46	88.06
268.676	32.77
268.892	55.3
269.108	-22.53
269.324	4.1
269.54	22.53
269.756	22.53
269.972	4.1
270.188	8.19
270.403	79.87
270.619	53.25
270.835	16.38
271.051	53.25
271.267	-30.72
271.483	-40.96
271.698	45.06
271.914	-12.29
272.13	53.25
272.346	-34.82
272.562	45.06
272.777	81.92
272.993	-10.24
273.209	4.1
273.425	-8.19
273.64	-12.29
273.856	32.77
274.072	24.58
274.287	-16.38
274.503	63.49
274.719	14.34
274.934	-10.24
275.15	-43.01
275.366	53.25
275.581	38.91
275.797	20.48
276.012	24.58
276.228	55.3
276.444	-8.19
276.659	94.21
276.875	22.53
277.09	8.19
277.306	79.87
277.521	47.1
277.737	12.29
277.952	61.44
278.168	63.49
278.383	-4.1
278.599	-32.77
278.814	-6.14
279.03	32.77
279.245	22.53
279.461	-79.87
279.676	88.06
279.892	22.53
280.107	45.06
280.322	-20.48
280.538	22.53
280.753	18.43
280.969	20.48
281.184	-30.72
281.399	122.88
281.615	6.14
281.83	94.21
282.045	6.14
282.26	-77.82
282.476	49.15
282.691	153.6
282.906	32.77
283.122	6.14
283.337	-20.48
283.552	20.48
283.767	-28.67
283.983	92.16
284.198	12.29
284.413	38.91
284.628	-43.01
284.843	6.14
285.058	22.53
285.274	69.63
285.489	-40.96
285.704	12.29
285.919	28.67
286.134	-10.24
286.349	-12.29
286.564	-67.58
286.779	-6.14
286.995	24.58
287.21	-24.58
287.425	-4.1
287.64	94.21
287.855	22.53
288.07	2.05
288.285	47.1
288.5	92.16
288.715	32.77
288.93	51.2
289.145	8.19
289.36	88.06
289.575	40.96
289.79	86.01
290.004	8.19
290.219	49.15
290.434	61.44
290.649	59.39
290.864	-30.72
291.079	12.29
291.294	-45.06
291.509	12.29
291.724	-2.05
291.938	-26.62
292.153	47.1
292.368	-36.86
292.583	26.62
292.798	77.82
293.012	79.87
293.227	24.58
293.442	55.3
293.657	69.63
293.871	131.07
294.086	-26.62
294.301	63.49
294.516	-10.24
294.73	20.48
294.945	18.43
295.16	61.44
295.374	81.92
295.589	-6.14
295.804	-8.19
296.018	-28.67
296.233	8.19
296.447	45.06
296.662	32.77
296.877	139.26
297.091	86.01
297.306	47.1
297.52	10.24
297.735	-2.05
297.949	53.25
298.164	12.29
298.378	38.91
298.593	32.77
298.807	28.67
299.022	36.86
299.236	53.25
299.451	88.06
299.665	14.34
299.88	16.38
300.094	28.67
300.309	-20.48
300.523	40.96
300.737	45.06
300.952	36.86
301.166	20.48
301.381	-14.34
301.595	77.82
301.809	55.3
302.024	114.69
302.238	32.77
302.452	102.4
302.667	26.62
302.881	77.82
303.095	71.68
303.309	51.2
303.524	36.86
303.738	-34.82
303.952	40.96
304.166	47.1
304.381	4.1
304.595	71.68
304.809	45.06
305.023	28.67
305.237	53.25
305.452	24.58
305.666	71.68
305.88	100.35
306.094	65.54
306.308	61.44
306.522	24.58
306.736	36.86
306.95	77.82
307.164	-69.63
307.379	12.29
307.593	73.73
307.807	61.44
308.021	57.34
308.235	73.73
308.449	63.49
308.663	-8.19
308.877	172.03
309.091	73.73
309.305	30.72
309.519	-16.38
309.733	94.21
309.947	-2.05
310.161	22.53
310.374	38.91
310.588	69.63
310.802	-10.24
311.016	6.14
311.23	-20.48
311.444	28.67
311.658	-12.29
311.872	45.06
312.085	57.34
312.299	36.86
312.513	116.73
312.727	100.35
312.941	43.01
313.154	-8.19
313.368	-2.05
313.582	38.91
313.796	38.91
314.009	40.96
314.223	53.25
314.437	61.44
314.651	73.73
314.864	16.38
315.078	26.62
315.292	26.62
315.505	26.62
315.719	61.44
315.933	28.67
316.146	55.3
316.36	-2.05
316.573	-2.05
316.787	28.67
317.001	28.67
317.214	-12.29
317.428	45.06
317.641	79.87
317.855	75.77
318.068	47.1
318.282	108.54
318.495	36.86
318.709	98.3
318.922	24.58
319.136	94.21
319.349	73.73
319.563	45.06
319.776	-16.38
319.99	51.2
320.203	-83.97
320.417	32.77
320.63	30.72
320.843	110.59
321.057	14.34
321.27	53.25
321.483	47.1
321.697	139.26
321.91	12.29
322.124	90.11
322.337	94.21
322.55	45.06
322.763	61.44
322.977	-43.01
323.19	-12.29
323.403	43.01
323.617	63.49
323.83	92.16
324.043	47.1
324.256	104.45
324.469	-2.05
324.683	126.97
324.896	-20.48
325.109	32.77
325.322	-22.53
325.535	36.86
325.748	40.96
325.962	36.86
326.175	108.54
326.388	79.87
326.601	67.58
326.814	53.25
327.027	-28.67
327.24	14.34
327.453	-20.48
327.666	53.25
327.879	24.58
328.092	71.68
328.305	77.82
328.518	36.86
328.731	77.82
328.944	40.96
329.157	81.92
329.37	47.1
329.583	75.77
329.796	79.87
330.009	28.67
330.222	36.86
330.435	20.48
330.648	71.68
330.861	81.92
331.073	79.87
331.286	20.48
331.499	-28.67
331.712	32.77
331.925	16.38
332.138	-2.05
332.35	12.29
332.563	12.29
332.776	24.58
332.989	-20.48
333.202	38.91
333.414	116.73
333.627	69.63
333.84	30.72
334.053	-14.34
334.265	-2.05
334.478	67.58
334.691	32.77
334.903	69.63
335.116	26.62
335.329	38.91
335.541	61.44
335.754	98.3
335.966	69.63
336.179	47.1
336.392	12.29
336.604	28.67
336.817	-4.1
337.029	102.4
337.242	77.82
337.454	49.15
337.667	65.54
337.88	92.16
338.092	-12.29
338.305	53.25
338.517	-20.48
338.729	69.63
338.942	88.06
339.154	10.24
339.367	77.82
339.579	104.45
339.792	24.58
340.004	151.55
340.217	77.82
340.429	40.96
340.641	57.34
340.854	10.24
341.066	16.38
341.278	61.44
341.491	102.4
341.703	28.67
341.915	28.67
342.128	86.01
342.34	-51.2
342.552	86.01
342.764	88.06
342.977	0
343.189	36.86
343.401	73.73
343.613	-2.05
343.826	71.68
344.038	-55.3
344.25	49.15
344.462	-2.05
344.674	90.11
344.886	38.91
345.099	102.4
345.311	43.01
345.523	-22.53
345.735	28.67
345.947	6.14
346.159	-45.06
346.371	49.15
346.583	69.63
346.795	145.41
347.007	-24.58
347.219	71.68
347.431	22.53
347.643	61.44
347.855	71.68
348.067	69.63
348.279	57.34
348.491	61.44
348.703	83.97
348.915	63.49
349.127	77.82
349.339	32.77
349.551	-32.77
349.763	65.54
349.975	22.53
350.187	49.15
350.399	32.77
350.61	86.01
350.822	63.49
351.034	30.72
351.246	34.82
351.458	63.49
351.669	73.73
351.881	98.3
352.093	69.63
352.305	22.53
352.517	32.77
352.728	18.43
352.94	30.72
353.152	98.3
353.363	28.67
353.575	-2.05
353.787	71.68
353.999	40.96
354.21	135.17
354.422	-16.38
354.633	102.4
354.845	45.06
355.057	28.67
355.268	28.67
355.48	45.06
355.692	81.92
355.903	30.72
356.115	90.11
356.326	-22.53
356.538	-24.58
356.749	96.25
356.961	12.29
357.172	81.92
357.384	34.82
357.595	114.69
357.807	88.06
358.018	-45.06
358.23	77.82
358.441	145.41
358.653	6.14
358.864	0
359.075	-43.01
359.287	38.91
359.498	79.87
359.709	61.44
359.921	67.58
360.132	-34.82
360.344	53.25
360.555	6.14
360.766	45.06
360.977	14.34
361.189	57.34
361.4	-36.86
361.611	59.39
361.823	159.74
362.034	-28.67
362.245	-40.96
362.456	102.4
362.667	57.34
362.879	36.86
363.09	36.86
363.301	96.25
363.512	6.14
363.723	26.62
363.935	38.91
364.146	81.92
364.357	92.16
364.568	28.67
364.779	18.43
364.99	55.3
365.201	43.01
365.412	83.97
365.623	-6.14
365.834	-4.1
366.045	-6.14
366.256	30.72
366.467	71.68
366.678	4.1
366.889	38.91
367.1	-10.24
367.311	112.64
367.522	20.48
367.733	53.25
367.944	69.63
368.155	-2.05
368.366	104.45
368.577	104.45
368.788	137.21
368.999	61.44
369.209	53.25
369.42	45.06
369.631	92.16
369.842	40.96
370.053	40.96
370.264	57.34
370.474	-8.19
370.685	32.77
370.896	53.25
371.107	32.77
371.317	55.3
371.528	96.25
371.739	135.17
371.95	36.86
372.16	104.45
372.371	55.3
372.582	-10.24
372.792	61.44
373.003	83.97
373.214	98.3
373.424	45.06
373.635	8.19
373.846	94.21
374.056	55.3
374.267	57.34
374.477	73.73
374.688	4.1
374.898	-14.34
375.109	49.15
375.319	61.44
375.53	55.3
375.74	18.43
375.951	43.01
376.161	53.25
376.372	67.58
376.582	75.77
376.793	94.21
377.003	126.97
377.214	96.25
377.424	20.48
377.635	69.63
377.845	26.62
378.055	73.73
378.266	36.86
378.476	26.62
378.686	32.77
378.897	22.53
379.107	73.73
379.317	110.59
379.528	65.54
379.738	55.3
379.948	88.06
380.158	147.45
380.369	143.36
380.579	65.54
380.789	49.15
380.999	81.92
381.21	63.49
381.42	83.97
381.63	45.06
381.84	86.01
382.05	86.01
382.261	30.72
382.471	53.25
382.681	38.91
382.891	126.97
383.101	75.77
383.311	36.86
383.521	40.96
383.731	-16.38
383.941	71.68
384.151	14.34
384.361	51.2
384.571	4.1
384.781	12.29
384.991	96.25
385.201	104.45
385.411	94.21
385.621	61.44
385.831	151.55
386.041	-16.38
386.251	40.96
386.461	61.44
386.671	53.25
386.881	-36.86
387.091	94.21
387.301	110.59
387.511	0
387.72	157.69
387.93	53.25
388.14	65.54
388.35	118.78
388.56	129.02
388.769	55.3
388.979	36.86
389.189	102.4
389.399	67.58
389.609	57.34
389.818	98.3
390.028	12.29
390.238	83.97
390.447	77.82
390.657	118.78
390.867	98.3
391.076	20.48
391.286	67.58
391.496	12.29
391.705	47.1
391.915	51.2
392.125	151.55
392.334	4.1
392.544	100.35
392.753	110.59
392.963	65.54
393.172	94.21
393.382	53.25
393.591	126.97
393.801	106.49
394.01	61.44
394.22	79.87
394.429	36.86
394.639	98.3
394.848	79.87
395.058	45.06
395.267	92.16
395.477	108.54
395.686	73.73
395.895	116.73
396.105	102.4
396.314	10.24
396.524	77.82
396.733	61.44
396.942	118.78
397.152	88.06
397.361	178.17
397.57	79.87
397.78	98.3
397.989	153.6
398.198	98.3
398.407	83.97
398.617	86.01
398.826	61.44
399.035	86.01
399.244	143.36
399.453	96.25
399.663	110.59
399.872	120.83
400.081	65.54
400.29	145.41
400.499	102.4
400.708	143.36
400.917	102.4
401.127	122.88
401.336	137.21
401.545	155.65
401.754	182.27
401.963	141.31
402.172	81.92
402.381	69.63
402.59	94.21
402.799	63.49
403.008	88.06
403.217	126.97
403.426	110.59
403.635	96.25
403.844	180.22
404.053	167.93
404.262	147.45
404.471	143.36
404.68	143.36
404.888	157.69
405.097	202.75
405.306	210.94
405.515	184.32
405.724	141.31
405.933	212.99
406.142	217.08
406.35	235.52
406.559	176.13
406.768	219.13
406.977	231.42
407.185	176.13
407.394	268.28
407.603	124.93
407.812	249.85
408.02	249.85
408.229	235.52
408.438	323.58
408.646	305.15
408.855	215.04
409.064	270.33
409.272	272.38
409.481	282.62
409.69	280.57
409.898	258.04
410.107	342.01
410.315	380.92
410.524	292.86
410.733	360.44
410.941	446.46
411.15	411.64
411.358	434.17
411.567	421.88
411.775	450.55
411.984	380.92
412.192	454.65
412.401	477.18
412.609	475.13
412.818	569.34
413.026	610.29
413.234	544.76
413.443	591.86
413.651	509.94
413.86	577.53
414.068	585.72
414.276	602.1
414.485	663.54
414.693	692.21
414.901	745.46
415.11	665.59
415.318	739.32
415.526	759.8
415.734	759.8
415.943	800.76
416.151	772.08
416.359	913.39
416.567	954.35
416.776	907.25
416.984	942.07
417.192	989.17
417.4	1042.42
417.608	1040.37
417.817	989.17
418.025	1146.86
418.233	1153.01
418.441	1159.15
418.649	1163.25
418.857	1361.9
419.065	1347.56
419.273	1249.26
419.481	1361.9
419.689	1507.31
419.897	1531.88
420.105	1593.32
420.313	1667.05
420.521	1597.42
420.729	1572.84
420.937	1761.25
421.145	1865.7
421.353	1994.72
421.561	1890.28
421.769	2041.82
421.977	2078.69
422.185	2068.45
422.393	2183.13
422.601	2365.4
422.809	2297.82
423.017	2306.01
423.224	2490.33
423.432	2547.67
423.64	2486.23
423.848	2703.32
424.056	2775
424.263	2981.84
424.471	2994.13
424.679	2850.77
424.887	3065.81
425.094	3221.45
425.302	3252.17
425.51	3381.2
425.718	3430.35
425.925	3594.19
426.133	3727.3
426.341	3882.95
426.548	3887.04
426.756	3997.64
426.964	4124.61
427.171	4261.82
427.379	4394.94
427.586	4483
427.794	4577.21
428.001	4739
428.209	4976.56
428.417	4890.55
428.624	5279.66
428.832	5306.29
429.039	5195.7
429.247	5298.1
429.454	5873.57
429.662	6186.91
429.869	5797.8
430.076	6262.69
430.284	5717.93
430.491	6201.25
430.699	6623.13
430.906	6590.36
431.114	6756.25
431.321	6954.9
431.528	7022.48
431.736	7458.7
431.943	7833.48
432.15	7460.75
432.358	7667.59
432.565	8030.09
432.772	7966.6
432.979	8535.93
433.187	8824.7
433.394	8738.68
433.601	9408.37
433.808	9285.49
434.016	9351.03
434.223	9604.97
434.43	10092.39
434.637	9965.42
434.844	10479.46
435.052	10800.99
435.259	10803.04
435.466	10821.47
435.673	10651.49
435.88	11521.87
436.087	12113.74
436.294	12011.34
436.501	11646.8
436.708	12068.68
436.915	12414.79
437.122	13135.67
437.329	12599.1
437.537	13180.73
437.743	13487.92
437.95	13377.33
438.157	14126.89
438.364	14460.71
438.571	14548.77
438.778	14487.33
438.985	16074.51
439.192	15355.67
439.399	15648.53
439.606	15406.87
439.813	16432.9
440.02	17456.89
440.227	17094.4
440.433	16903.93
440.64	17444.6
440.847	17207.03
441.054	17612.53
441.261	18444.01
441.467	18525.93
441.674	18867.94
441.881	19658.45
442.088	19549.91
442.294	19377.88
442.501	19953.36
442.708	20066
442.914	20958.91
443.121	22148.78
443.328	21370.55
443.534	22767.27
443.741	22286
443.948	21984.94
444.154	23334.56
444.361	23262.88
444.568	23316.12
444.774	23582.36
444.981	23715.48
445.187	24360.59
445.394	25687.67
445.6	24809.09
445.807	27577.95
446.013	26005.11
446.22	26603.11
446.426	27811.42
446.633	28261.97
446.839	29263.43
447.046	27788.89
447.252	29273.67
447.459	29609.53
447.665	29537.85
447.871	30473.77
448.078	31972.89
448.284	30543.41
448.491	31096.36
448.697	32337.43
448.903	33150.47
449.11	33136.13
449.316	32488.98
449.522	33287.68
449.728	34059.77
449.935	34049.53
450.141	34131.45
450.347	34653.68
450.553	34049.53
450.76	34160.12
450.966	35517.92
451.172	35040.75
451.378	35999.19
451.584	35182.06
451.791	36150.74
451.997	36208.09
452.203	36607.44
452.409	36953.55
452.615	36490.71
452.821	34975.21
453.027	34985.45
453.233	36791.76
453.44	35636.7
453.646	35599.84
453.852	35599.84
454.058	36505.04
454.264	35325.41
454.47	36208.09
454.676	35403.24
454.882	36525.52
455.088	33498.62
455.294	33666.56
455.5	34514.42
455.705	34944.49
455.911	33183.24
456.117	32630.29
456.323	32398.87
456.529	30318.13
456.735	32161.3
456.941	31272.48
457.147	30836.27
457.352	29978.17
457.558	29271.62
457.764	29691.45
457.97	29210.18
458.176	28618.32
458.381	28589.64
458.587	27076.19
458.793	26900.07
458.999	25542.27
459.204	27367.01
459.41	26895.97
459.616	25126.53
459.821	25343.61
460.027	25194.11
460.233	24505.99
460.438	23449.24
460.644	23352.99
460.85	22437.55
461.055	22367.91
461.261	22075.06
461.466	20365
461.672	20074.19
461.878	21524.15
462.083	20033.23
462.289	19388.12
462.494	19238.62
462.7	18439.91
462.905	18185.96
463.111	18624.23
463.316	18697.95
463.522	18302.7
463.727	18274.03
463.932	18099.95
464.138	18192.11
464.343	18235.11
464.549	17557.24
464.754	18274.03
464.959	17839.86
465.165	17807.09
465.37	17364.73
465.575	16615.17
465.781	17557.24
465.986	17303.29
466.191	16744.19
466.397	16555.78
466.602	15634.19
466.807	16258.82
467.012	16228.1
467.218	16174.86
467.423	16154.38
467.628	15961.87
467.833	16666.37
468.038	16135.95
468.244	15628.05
468.449	16355.08
468.654	15638.29
468.859	15666.96
469.064	15445.78
469.269	14855.97
469.474	15095.58
469.679	15712.02
469.885	14864.16
470.09	15144.73
470.295	15380.25
470.5	14470.95
470.705	14860.06
470.91	14413.6
471.115	14243.62
471.32	14593.83
471.525	14491.43
471.73	14030.63
471.935	13958.95
472.139	13551.41
472.344	13776.69
472.549	13756.21
472.754	13459.25
472.959	13514.55
473.164	12937.02
473.369	12824.38
473.574	13268.79
473.778	13100.86
473.983	13115.19
474.188	13150.01
474.393	12627.78
474.598	12517.18
474.802	12220.23
475.007	12115.78
475.212	12382.02
475.417	11751.24
475.621	11884.36
475.826	11859.79
476.031	11853.64
476.235	11433.81
476.44	11507.54
476.645	11280.21
476.849	11474.77
477.054	11163.48
477.259	11186.01
477.463	11099.99
477.668	10739.55
477.872	10985.3
478.077	10809.18
478.282	10393.44
478.486	10352.48
478.691	10362.72
478.895	10340.19
479.1	10436.45
479.304	10192.74
479.509	9869.16
479.713	10102.63
479.918	9906.02
480.122	9703.28
480.326	9961.32
480.531	10071.91
480.735	9736.04
480.94	9564.01
481.144	10127.21
481.348	9670.51
481.553	9633.65
481.757	9412.46
481.961	9840.49
482.166	9768.81
482.37	9713.52
482.574	9514.86
482.778	9373.55
482.983	9543.53
483.187	9478
483.391	9555.82
483.595	9426.8
483.8	9428.85
484.004	9697.13
484.208	9607.02
484.412	9330.55
484.616	9533.29
484.821	9492.34
485.025	9434.99
485.229	9441.14
485.433	9416.56
485.637	9504.62
485.841	9469.81
486.045	9432.94
486.249	9500.53
486.453	9416.56
486.657	9506.67
486.861	9529.2
487.065	9316.21
487.269	9566.06
487.473	9197.43
487.677	9428.85
487.881	9598.83
488.085	9473.9
488.289	9465.71
488.493	9338.74
488.697	9594.73
488.901	9363.31
489.105	9676.65
489.309	9727.85
489.512	9465.71
489.716	9707.37
489.92	9555.82
490.124	9492.34
490.328	9787.24
490.531	9416.56
490.735	9785.19
490.939	9682.8
491.143	9891.69
491.346	9705.32
491.55	9924.46
491.754	9822.06
491.958	9920.36
492.161	9856.87
492.365	10084.2
492.569	9891.69
492.772	9951.08
492.976	9989.99
493.18	10090.34
493.383	10432.35
493.587	10129.25
493.79	10465.12
493.994	10196.84
494.197	10409.83
494.401	10442.59
494.605	10450.78
494.808	10409.83
495.012	10624.86
495.215	10721.12
495.419	10807.13
495.622	10608.48
495.825	11001.69
496.029	10846.04
496.232	11366.23
496.436	10999.64
496.639	11372.37
496.843	11368.27
497.046	11405.14
497.249	11769.68
497.453	11667.28
497.656	11958.09
497.859	12037.96
498.063	12283.72
498.266	12283.72
498.469	12298.05
498.673	12218.18
498.876	12498.75
499.079	12623.68
499.282	12422.98
499.485	12982.07
499.689	12957.5
499.892	13158.2
500.095	13426.48
500.298	13475.63
500.501	13348.66
500.705	13512.5
500.908	13979.43
501.111	13901.61
501.314	14077.74
501.517	14303.01
501.72	14372.64
501.923	14272.29
502.126	14665.5
502.329	14851.87
502.532	14974.75
502.735	15163.16
502.938	15349.53
503.141	15501.08
503.344	15781.65
503.547	15834.89
503.75	16008.97
503.953	15916.81
504.156	16269.06
504.359	16439.05
504.562	16551.68
504.765	16801.54
504.968	16844.54
505.17	17473.27
505.373	17297.14
505.576	17463.03
505.779	17729.27
505.982	17712.88
506.185	18202.35
506.387	18089.71
506.59	18435.81
506.793	18775.78
506.996	18677.47
507.198	19185.37
507.401	19386.07
507.604	19422.94
507.807	19801.81
508.009	19908.3
508.212	19764.95
508.415	20012.75
508.617	20410.06
508.82	20735.68
509.022	20362.95
509.225	20903.62
509.428	20975.3
509.63	21255.87
509.833	21616.31
510.035	22136.49
510.238	22048.43
510.44	22304.43
510.643	22636.2
510.845	22744.74
511.048	22619.81
511.25	22892.19
511.453	23086.75
511.655	24067.73
511.858	23920.27
512.06	24170.13
512.262	23957.14
512.465	23998.1
512.667	24536.71
512.87	24714.89
513.072	24761.99
513.274	25091.71
513.477	25708.15
513.679	25759.35
513.881	25798.26
514.084	26056.31
514.286	26451.56
514.488	26625.64
514.69	27088.48
514.893	27346.53
515.095	27586.14
515.297	27653.72
515.499	27719.26
515.701	28145.23
515.904	28280.4
516.106	28548.68
516.308	28786.25
516.51	29081.16
516.712	29255.23
516.914	29648.44
517.116	29943.35
517.318	30117.43
517.52	30223.92
517.722	30252.59
517.925	30699.05
518.127	31108.65
518.329	31178.28
518.531	31059.49
518.733	31614.49
518.935	32013.85
519.136	32351.76
519.338	32429.59
519.54	32638.48
519.742	32990.73
519.944	33134.09
520.146	33443.33
520.348	33912.31
520.55	33625.6
520.752	34070.01
520.954	34285.04
521.155	34307.57
521.357	34895.34
521.559	35237.35
521.761	35638.75
521.963	35542.5
522.164	35589.6
522.366	36042.2
522.568	36210.14
522.77	36423.12
522.971	36945.36
523.173	37008.84
523.375	36814.29
523.576	37121.48
523.778	37324.23
523.98	37662.15
524.181	37791.17
524.383	37617.09
524.584	38303.16
524.786	38260.15
524.988	38135.23
525.189	39034.28
525.391	38899.12
525.592	39232.94
525.794	39196.07
525.995	39357.86
526.197	39726.5
526.398	38929.84
526.6	39777.7
526.801	39638.44
527.003	40156.57
527.204	40146.33
527.406	40344.98
527.607	40572.31
527.808	40734.1
528.01	39953.82
528.211	40773.01
528.412	41246.09
528.614	41088.4
528.815	41051.53
529.016	41184.65
529.218	41414.02
529.419	41387.4
529.62	41782.66
529.822	41440.65
530.023	41536.9
530.224	41782.66
530.425	41434.5
530.626	41790.85
530.828	41102.73
531.029	42220.92
531.23	41682.31
531.431	41899.39
531.632	41602.44
531.833	42186.11
532.035	42057.09
532.236	41643.4
532.437	42462.58
532.638	42005.89
532.839	42351.99
533.04	42102.14
533.241	41772.42
533.442	42683.76
533.643	41801.09
533.844	42159.48
534.045	42296.7
534.246	41911.68
534.447	42278.27
534.648	41747.84
534.849	42124.67
535.05	42012.03
535.251	42599.8
535.451	41788.8
535.652	41866.63
535.853	42036.61
536.054	42243.45
536.255	42311.03
536.456	41686.4
536.657	42491.26
536.857	41866.63
537.058	42112.38
537.259	41977.22
537.46	42065.28
537.66	41801.09
537.861	42339.71
538.062	42001.79
538.263	42016.13
538.463	41960.83
538.664	41780.61
538.865	42278.27
539.065	42050.94
539.266	41620.87
539.466	42102.14
539.667	41799.04
539.868	42255.74
540.068	42040.7
540.269	41909.63
540.469	41985.41
540.67	42059.13
540.87	41837.95
541.071	41942.4
541.271	42018.17
541.472	41729.41
541.672	41436.55
541.873	41897.34
542.073	41258.38
542.274	41952.64
542.474	41764.23
542.675	41131.4
542.875	41700.74
543.075	41495.94
543.276	41342.35
543.476	41917.82
543.676	41446.79
543.877	41543.05
544.077	41340.3
544.277	41493.89
544.478	41147.79
544.678	41885.06
544.878	41512.33
545.078	41110.92
545.279	41067.92
545.479	40961.42
545.679	41592.2
545.879	41489.8
546.079	41336.2
546.28	41373.06
546.48	40553.88
546.68	41452.94
546.88	41432.46
547.08	41387.4
547.28	41209.23
547.48	41170.32
547.68	41244.04
547.88	41012.62
548.081	41315.72
548.281	41307.53
548.481	40799.63
548.681	41057.68
548.881	41180.56
549.081	41139.6
549.28	40951.18
549.48	41026.96
549.68	41059.73
549.88	41473.42
550.08	40963.47
550.28	41291.15
550.48	41528.71
550.68	41502.09
550.88	40715.67
551.08	40687
551.279	41248.14
551.479	40955.28
551.679	41352.58
551.879	41256.33
552.079	40768.91
552.278	40656.28
552.478	40877.46
552.678	40836.5
552.878	40934.8
553.077	40988.05
553.277	40641.94
553.477	41176.46
553.676	40813.97
553.876	40885.65
554.076	40594.84
554.275	40584.6
554.475	40363.42
554.674	40695.19
554.874	40707.47
555.074	40166.81
555.273	40807.83
555.473	41002.38
555.672	40582.55
555.872	40383.9
556.071	40793.49
556.271	40824.21
556.47	40248.73
556.67	40353.18
556.869	40213.91
557.068	40549.78
557.268	40355.22
557.467	40183.19
557.667	40412.57
557.866	40232.35
558.065	40226.2
558.265	39771.55
558.464	40218.01
558.663	40320.41
558.863	39400.87
559.062	40359.32
559.261	39806.37
559.461	40127.9
559.66	39476.65
559.859	40056.22
560.058	39667.11
560.258	39673.25
560.457	39706.02
560.656	39679.39
560.855	39894.43
561.054	39413.16
561.253	39292.33
561.453	39505.32
561.652	39562.66
561.851	39667.11
562.05	39384.49
562.249	39118.25
562.448	39515.56
562.647	39232.94
562.846	39009.71
563.045	39282.09
563.244	38901.17
563.443	39296.42
563.642	38919.6
563.841	38811.06
564.04	38737.33
564.239	39065
564.438	38376.89
564.637	38710.71
564.836	38782.38
565.035	37998.01
565.234	38811.06
565.432	38393.27
565.631	38383.03
565.83	38585.78
566.029	38294.97
566.228	38366.65
566.427	38030.78
566.625	37924.29
566.824	37707.2
567.023	38127.03
567.222	37412.29
567.42	37995.96
567.619	37871.04
567.818	37502.4
568.016	37504.45
568.215	37699.01
568.414	37225.93
568.612	37860.8
568.811	37217.74
569.01	37057.99
569.208	36715.98
569.407	37373.38
569.605	36658.64
569.804	37295.56
570.002	36742.61
570.201	36857.29
570.4	36349.4
570.598	36513.23
570.797	36369.88
570.995	36515.28
571.193	36187.61
571.392	36865.49
571.59	35782.11
571.789	36337.11
571.987	35886.56
572.186	35954.14
572.384	35784.16
572.582	35745.25
572.781	36068.83
572.979	35388.9
573.177	35810.78
573.376	35892.7
573.574	35249.64
573.772	35458.53
573.971	35300.84
574.169	35096.04
574.367	35118.57
574.565	35227.11
574.763	34946.54
574.962	34921.96
575.16	34633.2
575.358	35020.27
575.556	34555.38
575.754	34958.83
575.952	34041.34
576.151	34385.4
576.349	34399.73
576.547	34301.43
576.745	34291.19
576.943	34452.98
577.141	34153.97
577.339	34471.41
577.537	34129.4
577.735	33840.64
577.933	33478.15
578.131	33816.06
578.329	33885.69
578.527	33474.05
578.725	33324.55
578.923	33779.2
579.121	33146.37
579.319	33107.46
579.516	33185.29
579.714	33109.51
579.912	32654.86
580.11	33011.21
580.308	33117.7
580.506	33123.85
580.704	32480.78
580.901	32646.67
581.099	32873.99
581.297	32400.91
581.495	32341.52
581.692	32599.57
581.89	32183.83
582.088	31938.07
582.285	32130.58
582.483	32343.57
582.681	32085.53
582.878	31675.93
583.076	31215.14
583.274	31927.83
583.471	31481.38
583.669	31751.71
583.866	31387.17
584.064	31757.85
584.262	31260.19
584.459	31548.96
584.657	31131.17
584.854	31344.16
585.052	30690.86
585.249	31282.72
585.447	30971.43
585.644	30588.46
585.841	30797.35
586.039	30750.25
586.236	30242.35
586.434	30318.13
586.631	30160.44
586.828	30508.59
587.026	30221.87
587.223	30187.06
587.42	30062.13
587.618	30053.94
587.815	29609.53
588.012	30047.8
588.21	29802.04
588.407	30029.37
588.604	29648.44
588.801	29601.34
588.999	29517.37
589.196	29122.12
589.393	29541.95
589.59	29304.38
589.787	29392.45
589.984	29025.86
590.182	28556.88
590.379	29070.92
590.576	28759.63
590.773	28710.47
590.97	28728.91
591.167	28882.5
591.364	28692.04
591.561	28339.79
591.758	28284.5
591.955	28300.88
592.152	28421.71
592.349	28200.53
592.546	28106.32
592.743	28544.59
592.94	28018.26
593.137	27797.08
593.334	27842.14
593.531	27502.17
593.727	27807.32
593.924	27682.39
594.121	27623
594.318	27772.5
594.515	27455.07
594.712	27432.54
594.908	27262.56
595.105	27158.11
595.302	26730.09
595.499	27260.51
595.696	26762.86
595.892	26680.94
596.089	27020.9
596.286	26740.33
596.482	26414.7
596.679	26678.89
596.876	26562.15
597.072	26408.56
597.269	26349.17
597.466	26121.84
597.662	26211.95
597.859	26113.65
598.055	26091.12
598.252	25890.42
598.448	25958
598.645	25949.81
598.841	25609.85
599.038	25927.28
599.234	25712.25
599.431	25646.71
599.627	25427.58
599.824	25671.29
600.02	24931.97
600.217	25349.76
600.413	25196.16
600.609	24831.62
600.806	25364.09
601.002	25071.23
601.198	24987.27
601.395	24786.57
601.591	24571.53
601.787	24604.3
601.984	24637.06
602.18	24651.4
602.376	24655.5
602.572	24297.1
602.769	24387.21
602.965	24409.74
603.161	24385.16
603.357	23793.3
603.553	24059.54
603.75	24526.47
603.946	23721.62
604.142	24034.96
604.338	23770.77
604.534	23766.68
604.73	23783.06
604.926	23578.26
605.122	23715.48
605.318	23416.47
605.514	23477.91
605.71	23221.92
605.906	23205.53
606.102	23193.25
606.298	23367.32
606.494	22961.83
606.69	23260.83
606.886	23191.2
607.082	22699.69
607.278	23086.75
607.474	22470.31
607.67	23006.88
607.866	22554.28
608.062	22951.59
608.257	22605.48
608.453	22378.15
608.649	22570.66
608.845	22591.14
609.041	22513.32
609.236	22302.38
609.432	22392.49
609.628	22052.53
609.824	22365.87
610.019	22331.05
610.215	22056.62
610.411	22300.33
610.606	21874.35
610.802	22148.78
610.998	21980.85
611.193	22017.71
611.389	21573.3
611.584	21958.32
611.78	21606.07
611.976	21761.72
612.171	21720.76
612.367	21753.52
612.562	21743.28
612.758	21323.45
612.953	21595.83
613.149	21630.65
613.344	21147.33
613.539	21776.05
613.735	21620.41
613.93	21692.08
614.126	21098.17
614.321	21491.38
614.517	21337.79
614.712	21393.08
614.907	20838.08
615.103	21374.65
615.298	21173.95
615.493	21374.65
615.688	20870.85
615.884	21337.79
616.079	20831.94
616.274	21315.26
616.47	20764.36
616.665	20541.13
616.86	20696.77
617.055	20764.36
617.25	20745.92
617.445	20803.27
617.641	20387.53
617.836	20516.55
618.031	20229.84
618.226	20393.67
618.421	20287.18
618.616	20418.25
618.811	20145.87
619.006	20575.94
619.201	19848.91
619.396	19846.87
619.591	19998.41
619.786	19971.79
619.981	19717.84
620.176	19824.34
620.371	19543.77
620.566	19625.68
620.761	19416.79
620.956	19406.55
621.151	19058.4
621.346	19453.66
621.541	19033.82
621.735	19189.47
621.93	18736.87
622.125	19095.26
622.32	18898.66
622.515	18544.36
622.709	18417.38
622.904	18390.76
623.099	18298.6
623.294	18392.81
623.488	18050.8
623.683	17989.36
623.878	17856.24
624.072	17977.07
624.267	17729.27
624.462	17786.61
624.656	17796.85
624.851	17581.81
625.046	17370.87
625.24	17331.96
625.435	17172.22
625.629	16881.41
625.824	17047.29
626.018	17051.39
626.213	16740.1
626.407	16828.16
626.602	16494.34
626.796	16797.44
626.991	16561.92
627.185	16404.23
627.38	16428.81
627.574	16123.66
627.768	16068.36
627.963	16148.23
628.157	15765.26
628.352	15826.7
628.546	15859.47
628.74	15795.98
628.935	15685.39
629.129	15732.5
629.323	15525.65
629.517	15380.25
629.712	15605.52
629.906	15177.5
630.1	15017.75
630.294	14960.41
630.489	15089.43
630.683	15030.04
630.877	14624.54
631.071	14694.18
631.265	14776.09
631.459	14634.78
631.653	14491.43
631.848	14401.32
632.042	14571.3
632.236	14470.95
632.43	14313.25
632.624	14161.7
632.818	14346.02
633.012	14124.84
633.206	14024.49
633.4	13823.79
633.594	13713.2
633.788	13694.77
633.982	13885.23
634.176	13733.68
634.369	13514.55
634.563	13530.93
634.757	13403.96
634.951	13422.39
635.145	13203.25
635.339	13625.14
635.533	13193.01
635.726	13059.9
635.92	12808
636.114	12855.1
636.308	12822.33
636.501	12967.74
636.695	12805.95
636.889	12613.44
637.083	12627.78
637.276	12365.64
637.47	12275.52
637.664	12308.29
637.857	12304.2
638.051	12310.34
638.244	12234.57
638.438	12181.32
638.632	12078.92
638.825	12037.96
639.019	11964.23
639.212	11935.56
639.406	11921.23
639.599	11845.45
639.793	11829.07
639.986	11478.86
640.18	11652.94
640.373	11700.05
640.567	11390.8
640.76	11661.13
640.954	11312.98
641.147	11153.24
641.34	11034.46
641.534	11200.34
641.727	11218.77
641.92	11083.61
642.114	10954.58
642.307	10729.31
642.5	11018.07
642.694	10717.02
642.887	10553.18
643.08	10919.77
643.273	10547.04
643.467	10579.81
643.66	10469.22
643.853	10426.21
644.046	10399.59
644.239	10514.27
644.432	10391.39
644.626	10139.49
644.819	10229.6
645.012	10030.95
645.205	10016.62
645.398	10022.76
645.591	10108.77
645.784	10194.79
645.977	9787.24
646.17	9953.13
646.363	9717.61
646.556	9779.05
646.749	9805.67
646.942	9639.79
647.135	9678.7
647.328	9404.27
647.521	9400.18
647.714	9361.27
647.907	9424.75
648.099	9277.3
648.292	9244.53
648.485	9277.3
648.678	9043.83
648.871	9191.28
649.064	9113.46
649.256	9097.08
649.449	8947.58
649.642	8816.51
649.835	8783.74
650.027	8746.87
650.22	8630.14
650.413	8812.41
650.605	8630.14
650.798	8736.63
650.991	8531.84
651.183	8640.38
651.376	8458.11
651.568	8597.37
651.761	8300.42
651.954	8363.9
652.146	8351.62
652.339	8312.71
652.531	8232.83
652.724	8150.92
652.916	8075.14
653.109	8015.75
653.301	8097.67
653.494	8265.6
653.686	7823.24
653.879	7985.03
654.071	8015.75
654.263	7823.24
654.456	7864.2
654.648	7868.3
654.84	7710.6
655.033	7583.63
655.225	7567.24
655.417	7464.85
655.61	7802.76
655.802	7399.31
655.994	7499.66
656.186	7475.09
656.379	7378.83
656.571	7405.45
656.763	7364.5
656.955	7278.48
657.148	7229.33
657.34	7401.36
657.532	7118.74
657.724	7040.92
657.916	7042.96
658.108	7135.12
658.3	7102.36
658.492	7118.74
658.684	6977.43
658.876	6936.47
659.068	7008.15
659.26	6856.6
659.452	6883.22
659.644	6700.95
659.836	6832.02
660.028	6750.1
660.22	6680.47
660.412	6838.17
660.604	6600.6
660.796	6651.8
660.988	6803.35
661.18	6516.64
661.372	6379.42
661.563	6530.97
661.755	6401.95
661.947	6500.25
662.139	6426.53
662.331	6426.53
662.522	6244.26
662.714	6287.26
662.906	6283.17
663.097	6238.11
663.289	6051.75
663.481	6100.9
663.673	6109.09
663.864	5957.54
664.056	5996.45
664.247	5963.69
664.439	5951.4
664.631	5967.78
664.822	6033.32
665.014	6057.89
665.205	5930.92
665.397	5812.14
665.588	5978.02
665.78	5709.74
665.971	5812.14
666.163	5814.18
666.354	5572.52
666.546	5633.96
666.737	5658.54
666.929	5558.19
667.12	5668.78
667.311	5683.11
667.503	5599.15
667.694	5582.76
667.885	5478.32
668.077	5506.99
668.268	5615.53
668.459	5433.26
668.651	5388.21
668.842	5353.39
669.033	5476.27
669.224	5197.74
669.416	5513.13
669.607	5314.48
669.798	5289.9
669.989	5334.96
670.18	5236.66
670.371	5269.42
670.563	5015.48
670.754	5197.74
670.945	5193.65
671.136	5326.77
671.327	5035.96
671.518	5126.07
671.709	5150.64
671.9	5185.46
672.091	5136.31
672.282	5230.51
672.473	4939.7
672.664	5015.48
672.855	5062.58
673.046	5027.76
673.237	4798.39
673.428	4829.11
673.619	4890.55
673.809	4739
674	4829.11
674.191	4898.74
674.382	4722.62
674.573	4816.82
674.764	4931.51
674.954	4773.82
675.145	4775.86
675.336	4673.46
675.527	4648.89
675.717	4698.04
675.908	4534.2
676.099	4562.87
676.289	4751.29
676.48	4698.04
676.671	4509.63
676.861	4659.13
677.052	4509.63
677.243	4505.53
677.433	4446.14
677.624	4583.35
677.814	4540.35
678.005	4562.87
678.195	4429.76
678.386	4530.11
678.576	4366.27
678.767	4472.76
678.957	4370.37
679.148	4464.57
679.338	4440
679.529	4341.69
679.719	4419.52
679.909	4429.76
680.1	4394.94
680.29	4415.42
680.481	4509.63
680.671	4427.71
680.861	4411.32
681.052	4313.02
681.242	4358.08
681.432	4351.93
681.622	4286.4
681.813	4171.71
682.003	4224.96
682.193	4249.54
682.383	4280.25
682.573	4138.94
682.764	4274.11
682.954	4276.16
683.144	4290.49
683.334	4255.68
683.524	4278.21
683.714	4169.66
683.904	4112.32
684.094	4161.47
684.284	4200.38
684.474	4198.34
684.664	4140.99
684.854	4173.76
685.044	4020.16
685.234	4132.8
685.424	4272.06
685.614	3999.68
685.804	4030.4
685.994	3899.33
686.184	4022.21
686.374	4038.59
686.564	3964.87
686.753	3999.68
686.943	3850.18
687.133	3872.71
687.323	3801.03
687.513	3954.63
687.702	3889.09
687.892	4022.21
688.082	3870.66
688.272	3905.48
688.461	3833.8
688.651	3844.04
688.841	3784.65
689.03	3715.02
689.22	3755.97
689.41	3819.46
689.599	3696.58
689.789	3657.67
689.979	3661.77
690.168	3735.49
690.358	3672.01
690.547	3624.9
690.737	3594.19
690.926	3661.77
691.116	3545.03
691.305	3643.34
691.495	3538.89
691.684	3567.56
691.874	3669.96
692.063	3448.78
692.252	3596.23
692.442	3534.79
692.631	3473.36
692.82	3416.01
693.01	3436.49
693.199	3649.48
693.388	3370.96
693.578	3440.59
693.767	3340.24
693.956	3504.07
694.146	3233.74
694.335	3325.9
694.524	3502.03
694.713	3375.05
694.902	3358.67
695.092	3438.54
695.281	3440.59
695.47	3520.46
695.659	3268.56
695.848	3354.57
696.037	3321.81
696.226	3479.5
696.415	3323.85
696.604	3403.72
696.793	3274.7
696.982	3219.41
697.171	3264.46
697.36	3110.86
697.549	3231.69
697.738	3176.4
697.927	3112.91
698.116	3299.28
698.305	3225.55
698.494	3301.33
698.683	3330
698.872	3121.1
699.061	3207.12
699.25	3198.93
699.438	3149.78
699.627	3162.06
699.816	3215.31
700.005	3028.95
700.193	3203.02
700.382	3207.12
700.571	3289.04
700.76	3250.13
700.948	3172.3
701.137	3076.05
701.326	3166.16
701.514	3162.06
701.703	3141.58
701.892	3186.64
702.08	3194.83
702.269	3151.82
702.457	3166.16
702.646	3059.67
702.834	3137.49
703.023	3149.78
703.212	3217.36
703.4	3155.92
703.589	3063.76
703.777	3043.28
703.965	2928.6
704.154	3110.86
704.342	2977.75
704.531	3067.86
704.719	3112.91
704.907	3174.35
705.096	3059.67
705.284	3030.99
705.472	3067.86
705.661	2934.74
705.849	3004.37
706.037	2934.74
706.226	2996.18
706.414	2922.45
706.602	3004.37
706.79	2908.12
706.979	2881.49
707.167	2998.23
707.355	2979.79
707.543	2949.07
707.731	3051.47
707.919	2983.89
708.107	2987.99
708.296	2895.83
708.484	2953.17
708.672	2856.92
708.86	2922.45
709.048	2951.12
709.236	2889.68
709.424	2965.46
709.612	2875.35
709.8	2848.72
709.988	2846.68
710.176	2942.93
710.364	2834.39
710.551	2863.06
710.739	2863.06
710.927	2863.06
711.115	2783.19
711.303	2957.27
711.491	2994.13
711.679	2762.71
711.866	2838.48
712.054	2906.07
712.242	2824.15
712.43	2916.31
712.617	2863.06
712.805	2775
712.993	2799.57
713.181	2768.85
713.368	2715.61
713.556	2815.96
713.744	2686.94
713.931	2906.07
714.119	2856.92
714.306	2832.34
714.494	2830.29
714.682	2650.07
714.869	2731.99
715.057	2734.04
715.244	2742.23
715.432	2777.05
715.619	2715.61
715.807	2752.47
715.994	2852.82
716.182	2768.85
716.369	2777.05
716.556	2740.18
716.744	2766.81
716.931	2639.83
717.119	2740.18
717.306	2758.61
717.493	2678.74
717.681	2748.37
717.868	2617.3
718.055	2648.02
718.242	2654.17
718.43	2588.63
718.617	2684.89
718.804	2662.36
718.991	2756.57
719.179	2625.5
719.366	2602.97
719.553	2682.84
719.74	2641.88
719.927	2605.02
720.114	2543.58
720.301	2533.34
720.488	2615.26
720.676	2643.93
720.863	2643.93
721.05	2611.16
721.237	2590.68
721.424	2611.16
721.611	2666.46
721.798	2531.29
721.985	2600.92
722.172	2568.15
722.358	2486.23
722.545	2516.95
722.732	2527.19
722.919	2674.65
723.106	2578.39
723.293	2447.32
723.48	2424.8
723.667	2512.86
723.853	2389.98
724.04	2633.69
724.227	2555.87
724.414	2568.15
724.6	2480.09
724.787	2504.67
724.974	2455.51
725.161	2461.66
725.347	2568.15
725.534	2514.91
725.72	2531.29
725.907	2402.27
726.094	2461.66
726.28	2398.17
726.467	2426.84
726.653	2365.4
726.84	2590.68
727.027	2519
727.213	2398.17
727.4	2453.47
727.586	2437.08
727.773	2486.23
727.959	2445.27
728.145	2326.49
728.332	2357.21
728.518	2387.93
728.705	2396.12
728.891	2469.85
729.077	2375.64
729.264	2371.55
729.45	2420.7
729.636	2414.56
729.823	2412.51
730.009	2398.17
730.195	2488.28
730.382	2353.12
730.568	2404.32
730.754	2408.41
730.94	2379.74
731.126	2447.32
731.313	2326.49
731.499	2265.05
731.685	2346.97
731.871	2373.6
732.057	2269.15
732.243	2336.73
732.429	2379.74
732.615	2322.4
732.801	2338.78
732.987	2291.68
733.173	2220
733.359	2258.91
733.545	2133.98
733.731	2254.81
733.917	2387.93
734.103	2168.8
734.289	2285.53
734.475	2318.3
734.661	2381.79
734.847	2248.67
735.033	2299.87
735.219	2281.44
735.404	2293.73
735.59	2191.33
735.776	2176.99
735.962	2322.4
736.148	2334.68
736.333	2195.42
736.519	2234.33
736.705	2289.63
736.89	2220
737.076	2199.52
737.262	2183.13
737.447	2244.57
737.633	2199.52
737.819	2234.33
738.004	2179.04
738.19	2242.53
738.375	2142.18
738.561	2332.64
738.747	2150.37
738.932	2086.88
739.118	2232.29
739.303	2125.79
739.489	2211.81
739.674	2043.87
739.859	2058.21
740.045	2160.61
740.23	2080.74
740.416	2088.93
740.601	2086.88
740.786	2045.92
740.972	2021.35
741.157	2144.22
741.342	2062.3
741.528	2043.87
741.713	2021.35
741.898	2017.25
742.084	1957.86
742.269	2047.97
742.454	1976.29
742.639	2138.08
742.824	2060.26
743.01	2115.55
743.195	2002.91
743.38	1982.43
743.565	2011.11
743.75	2021.35
743.935	1937.38
744.12	1974.24
744.305	1902.56
744.49	1937.38
744.675	1970.15
744.86	1886.18
745.045	2029.54
745.23	1867.75
745.415	1871.84
745.6	1943.52
745.785	1814.5
745.97	1996.77
746.155	1857.51
746.34	1847.27
746.525	1751.01
746.71	1898.47
746.895	1830.88
747.079	1726.44
747.264	1660.9
747.449	1824.74
747.634	1769.44
747.819	1728.49
748.003	1728.49
748.188	1757.16
748.373	1751.01
748.557	1658.85
748.742	1708.01
748.927	1576.94
749.111	1683.43
749.296	1701.86
749.481	1703.91
749.665	1726.44
749.85	1617.9
750.034	1593.32
750.219	1568.74
750.404	1589.22
750.588	1585.13
750.773	1552.36
750.957	1556.46
751.141	1544.17
751.326	1511.4
751.51	1466.35
751.695	1519.59
751.879	1554.41
752.064	1587.18
752.248	1535.98
752.432	1505.26
752.617	1466.35
752.801	1486.83
752.985	1380.33
753.17	1511.4
753.354	1429.48
753.538	1423.34
753.722	1415.15
753.907	1353.71
754.091	1413.1
754.275	1333.23
754.459	1351.66
754.643	1370.09
754.828	1361.9
755.012	1331.18
755.196	1314.8
755.38	1343.47
755.564	1335.28
755.748	1255.4
755.932	1322.99
756.116	1284.08
756.3	1308.65
756.484	1349.61
756.668	1218.54
756.852	1110
757.036	1300.46
757.22	1181.68
757.404	1202.16
757.588	1210.35
757.772	1247.21
757.956	1167.34
758.14	1193.97
758.323	1144.81
758.507	1259.5
758.691	1232.88
758.875	1216.49
759.059	1177.58
759.242	1142.77
759.426	1163.25
759.61	1112.05
759.794	1183.73
759.977	1200.11
760.161	1159.15
760.345	1069.04
760.528	1130.48
760.712	1175.53
760.895	1134.57
761.079	1046.51
761.263	1071.09
761.446	978.93
761.63	1044.46
761.813	1028.08
761.997	966.64
762.18	1060.85
762.364	1028.08
762.547	974.83
762.731	989.17
762.914	999.41
763.098	1112.05
763.281	874.48
763.464	946.16
763.648	1019.89
763.831	905.2
764.015	921.59
764.198	1003.5
764.381	1032.18
764.564	1001.46
764.748	864.24
764.931	978.93
765.114	1017.84
765.297	989.17
765.481	937.97
765.664	962.55
765.847	929.78
766.03	993.26
766.213	987.12
766.397	884.72
766.58	946.16
766.763	937.97
766.946	937.97
767.129	868.34
767.312	872.43
767.495	847.86
767.678	876.53
767.861	899.06
768.044	841.72
768.227	933.87
768.41	899.06
768.593	884.72
768.776	882.67
768.959	835.57
769.142	942.07
769.324	845.81
769.507	823.28
769.69	866.29
769.873	831.48
770.056	903.15
770.239	819.19
770.421	874.48
770.604	823.28
770.787	786.42
770.97	888.82
771.152	808.95
771.335	876.53
771.518	892.91
771.7	849.91
771.883	792.56
772.066	751.6
772.248	778.23
772.431	815.09
772.613	776.18
772.796	749.56
772.978	716.79
773.161	823.28
773.343	782.32
773.526	753.65
773.708	698.36
773.891	720.88
774.073	727.03
774.256	792.56
774.438	817.14
774.621	716.79
774.803	735.22
774.985	677.88
775.168	796.66
775.35	743.41
775.532	643.06
775.715	735.22
775.897	661.49
776.079	688.12
776.261	737.27
776.444	686.07
776.626	684.02
776.808	718.84
776.99	651.25
777.173	692.21
777.355	643.06
777.537	638.97
777.719	636.92
777.901	622.58
778.083	651.25
778.265	606.2
778.447	634.87
778.629	647.16
778.811	610.29
778.993	630.77
779.175	702.45
779.357	636.92
779.539	514.04
779.721	559.1
779.903	591.86
780.085	688.12
780.267	561.14
780.449	581.62
780.631	569.34
780.812	573.43
780.994	520.18
781.176	591.86
781.358	595.96
781.54	536.57
781.721	487.42
781.903	610.29
782.085	499.7
782.267	565.24
782.448	511.99
782.63	546.81
782.812	538.62
782.993	501.75
783.175	458.75
783.357	458.75
783.538	483.32
783.72	522.23
783.901	481.27
784.083	487.42
784.264	438.27
784.446	438.27
784.627	514.04
784.809	491.51
784.99	497.66
785.172	434.17
785.353	421.88
785.535	499.7
785.716	464.89
785.897	421.88
786.079	446.46
786.26	440.31
786.441	448.51
786.623	360.44
786.804	466.94
786.985	487.42
787.167	432.12
787.348	399.35
787.529	407.55
787.71	489.46
787.891	376.83
788.073	335.87
788.254	374.78
788.435	430.07
788.616	444.41
788.797	368.63
788.978	430.07
789.159	339.96
789.34	415.74
789.522	311.29
789.703	315.39
789.884	356.35
790.065	399.35
790.246	413.69
790.427	311.29
790.607	391.16
790.788	419.83
790.969	356.35
791.15	372.73
791.331	356.35
791.512	323.58
791.693	331.77
791.874	268.28
792.054	354.3
792.235	378.87
792.416	321.53
792.597	284.67
792.778	356.35
792.958	296.96
793.139	286.72
793.32	331.77
793.5	317.44
793.681	282.62
793.862	276.48
794.042	307.2
794.223	337.91
794.404	290.81
794.584	292.86
794.765	247.8
794.945	221.18
795.126	321.53
795.306	311.29
795.487	376.83
795.667	249.85
795.848	307.2
796.028	284.67
796.209	274.43
796.389	296.96
796.57	272.38
796.75	245.76
796.93	348.15
797.111	268.28
797.291	223.23
797.471	227.32
797.652	299
797.832	260.09
798.012	315.39
798.192	229.37
798.373	258.04
798.553	233.47
798.733	270.33
798.913	251.9
799.093	325.63
799.274	266.24
799.454	227.32
799.634	243.71
799.814	253.95
799.994	319.48
800.174	280.57
800.354	303.1
800.534	137.21
800.714	270.33
800.894	212.99
801.074	212.99
801.254	233.47
801.434	219.13
801.614	206.84
801.794	202.75
801.974	802.8
802.154	219.13
802.334	258.04
802.514	163.84
802.693	217.08
802.873	210.94
803.053	231.42
803.233	165.89
803.413	167.93
803.592	225.28
803.772	229.37
803.952	217.08
804.131	243.71
804.311	221.18
804.491	198.65
804.67	266.24
804.85	169.98
805.03	227.32
805.209	194.56
805.389	120.83
805.568	282.62
805.748	210.94
805.928	210.94
806.107	245.76
806.287	151.55
806.466	151.55
806.646	155.65
806.825	208.89
807.004	233.47
807.184	284.67
807.363	145.41
807.543	210.94
807.722	96.25
807.901	243.71
808.081	258.04
808.26	114.69
808.439	206.84
808.619	151.55
808.798	161.79
808.977	169.98
809.156	147.45
809.336	122.88
809.515	198.65
809.694	94.21
809.873	143.36
810.052	110.59
810.231	131.07
810.411	184.32
810.59	169.98
810.769	188.41
810.948	217.08
811.127	88.06
811.306	161.79
811.485	124.93
811.664	184.32
811.843	151.55
812.022	174.08
812.201	86.01
812.38	153.6
812.559	122.88
812.737	194.56
812.916	126.97
813.095	67.58
813.274	167.93
813.453	131.07
813.632	161.79
813.811	167.93
813.989	227.32
814.168	116.73
814.347	77.82
814.526	118.78
814.704	200.7
814.883	126.97
815.062	77.82
815.24	94.21
815.419	167.93
815.598	143.36
815.776	104.45
815.955	192.51
816.133	96.25
816.312	167.93
816.49	94.21
816.669	112.64
816.847	133.12
817.026	129.02
817.204	102.4
817.383	155.65
817.561	71.68
817.74	135.17
817.918	75.77
818.097	90.11
818.275	77.82
818.453	163.84
818.632	102.4
818.81	81.92
818.988	118.78
819.167	126.97
819.345	180.22
819.523	202.75
819.701	163.84
819.879	110.59
820.058	147.45
820.236	120.83
820.414	40.96
820.592	118.78
820.77	102.4
820.948	47.1
821.127	104.45
821.305	112.64
821.483	86.01
821.661	178.17
821.839	163.84
822.017	61.44
822.195	75.77
822.373	114.69
822.551	110.59
822.729	165.89
822.907	18.43
823.085	102.4
823.262	98.3
823.44	145.41
823.618	77.82
823.796	63.49
823.974	79.87
824.152	69.63
824.329	57.34
824.507	75.77
824.685	110.59
824.863	59.39
825.04	116.73
825.218	102.4
825.396	104.45
825.574	55.3
825.751	118.78
825.929	137.21
826.107	86.01
826.284	69.63
826.462	104.45
826.639	200.7
826.817	94.21
826.994	81.92
827.172	110.59
827.349	126.97
827.527	24.58
827.704	102.4
827.882	53.25
828.059	126.97
828.237	126.97
828.414	38.91
828.591	59.39
828.769	96.25
828.946	36.86
829.124	77.82
829.301	106.49
829.478	112.64
829.655	131.07
829.833	122.88
830.01	-40.96
830.187	71.68
830.364	71.68
830.542	86.01
830.719	20.48
830.896	81.92
831.073	63.49
831.25	77.82
831.427	116.73
831.604	81.92
831.782	28.67
831.959	108.54
832.136	67.58
832.313	106.49
832.49	114.69
832.667	-2.05
832.844	-16.38
833.021	106.49
833.198	65.54
833.374	-6.14
833.551	73.73
833.728	79.87
833.905	53.25
834.082	22.53
834.259	96.25
834.436	133.12
834.612	65.54
834.789	79.87
834.966	63.49
835.143	114.69
835.319	-2.05
835.496	57.34
835.673	61.44
835.85	61.44
836.026	112.64
836.203	96.25
836.38	118.78
836.556	40.96
836.733	-2.05
836.909	114.69
837.086	118.78
837.262	-20.48
837.439	12.29
837.616	120.83
837.792	77.82
837.968	194.56
838.145	8.19
838.321	77.82
838.498	22.53
838.674	65.54
838.851	86.01
839.027	12.29
839.203	110.59
839.38	69.63
839.556	57.34
839.732	24.58
839.909	61.44
840.085	61.44
840.261	53.25
840.437	86.01
840.614	69.63
840.79	143.36
840.966	32.77
841.142	63.49
841.318	-53.25
841.494	32.77
841.671	88.06
841.847	67.58
842.023	75.77
842.199	102.4
842.375	79.87
842.551	30.72
842.727	55.3
842.903	94.21
843.079	77.82
843.255	110.59
843.431	114.69
843.607	28.67
843.783	-8.19
843.959	53.25
844.134	47.1
844.31	81.92
844.486	24.58
844.662	102.4
844.838	120.83
845.013	45.06
845.189	55.3
845.365	81.92
845.541	4.1
845.716	69.63
845.892	86.01
846.068	30.72
846.244	86.01
846.419	49.15
846.595	53.25
846.77	-4.1
846.946	47.1
847.122	32.77
847.297	24.58
847.473	65.54
847.648	22.53
847.824	65.54
847.999	12.29
848.175	-12.29
848.35	-18.43
848.526	98.3
848.701	73.73
848.876	53.25
849.052	55.3
849.227	45.06
849.403	12.29
849.578	69.63
849.753	69.63
849.929	16.38
850.104	92.16
850.279	55.3
850.454	88.06
850.63	96.25
850.805	8.19
850.98	61.44
851.155	30.72
851.33	79.87
851.505	8.19
851.681	112.64
851.856	-28.67
852.031	73.73
852.206	77.82
852.381	-4.1
852.556	-45.06
852.731	69.63
852.906	28.67
853.081	81.92
853.256	38.91
853.431	40.96
853.606	-28.67
853.781	16.38
853.956	-45.06
854.131	69.63
854.305	49.15
854.48	45.06
854.655	98.3
854.83	-57.34
855.005	6.14
855.18	-4.1
855.354	4.1
855.529	112.64
855.704	67.58
855.879	139.26
856.053	-4.1
856.228	12.29
856.403	24.58
856.577	53.25
856.752	-59.39
856.926	36.86
857.101	16.38
857.276	2.05
857.45	20.48
857.625	16.38
857.799	28.67
857.974	45.06
858.148	-77.82
858.323	49.15
858.497	77.82
858.672	12.29
858.846	14.34
859.02	61.44
859.195	-20.48
859.369	45.06
859.543	12.29
859.718	40.96
859.892	6.14
860.066	28.67
860.241	-88.06
860.415	-2.05
860.589	20.48
860.763	36.86
860.938	32.77
861.112	22.53
861.286	-24.58
861.46	112.64
861.634	69.63
861.808	92.16
861.982	-12.29
862.157	-32.77
862.331	32.77
862.505	-69.63
862.679	12.29
862.853	-32.77
863.027	24.58
863.201	-20.48
863.375	4.1
863.549	77.82
863.722	-18.43
863.896	-10.24
864.07	-26.62
864.244	6.14
864.418	100.35
864.592	63.49
864.766	51.2
864.939	-12.29
865.113	8.19
865.287	63.49
865.461	49.15
865.634	40.96
865.808	32.77
865.982	-10.24
866.156	0
866.329	-18.43
866.503	-8.19
866.676	43.01
866.85	6.14
867.024	-26.62
867.197	4.1
867.371	-28.67
867.544	4.1
867.718	-43.01
867.891	18.43
868.065	51.2
868.238	-14.34
868.412	-36.86
868.585	16.38
868.759	69.63
868.932	47.1
869.105	94.21
869.279	-2.05
869.452	-24.58
869.625	-43.01
869.799	55.3
869.972	-55.3
870.145	8.19
870.319	49.15
870.492	-14.34
870.665	69.63
870.838	16.38
871.011	4.1
871.185	-10.24
871.358	12.29
871.531	28.67
871.704	6.14
871.877	16.38
872.05	4.1
872.223	12.29
872.396	53.25
872.569	-4.1
872.742	-53.25
872.915	8.19
873.088	24.58
873.261	-12.29
873.434	-22.53
873.607	4.1
873.78	12.29
873.953	6.14
874.126	51.2
874.299	-30.72
874.471	-12.29
874.644	-32.77
874.817	40.96
874.99	36.86
875.163	10.24
875.335	6.14
875.508	20.48
875.681	102.4
875.853	92.16
876.026	8.19
876.199	12.29
876.371	32.77
876.544	12.29
876.717	57.34
876.889	-36.86
877.062	-2.05
877.234	-30.72
877.407	-45.06
877.579	-10.24
877.752	69.63
877.924	-8.19
878.097	12.29
878.269	-2.05
878.442	65.54
878.614	61.44
878.786	14.34
878.959	32.77
879.131	-49.15
879.303	0
879.476	53.25
879.648	4.1
879.82	73.73
879.993	-12.29
880.165	16.38
880.337	-2.05
880.509	40.96
880.681	-26.62
880.854	28.67
881.026	45.06
881.198	22.53
881.37	4.1
881.542	53.25
881.714	0
881.886	-40.96
882.058	28.67
882.23	55.3
882.402	36.86
882.574	36.86
882.746	-36.86
882.918	40.96
883.09	6.14
883.262	4.1
883.434	38.91
883.606	22.53
883.778	-20.48
883.95	47.1
884.122	-8.19
884.293	38.91
884.465	36.86
884.637	38.91
884.809	22.53
884.98	32.77
885.152	14.34
885.324	69.63
885.496	-55.3
885.667	69.63
885.839	-20.48
886.011	55.3
886.182	-12.29
886.354	34.82
886.525	57.34
886.697	22.53
886.869	30.72
887.04	36.86
887.212	22.53
887.383	0
887.555	-2.05
887.726	-4.1
887.897	18.43
888.069	77.82
888.24	28.67
888.412	-2.05
888.583	-2.05
888.754	0
888.926	-36.86
889.097	-16.38
889.268	-8.19
889.44	-36.86
889.611	22.53
889.782	-2.05
889.953	22.53
890.125	-4.1
890.296	-18.43
890.467	4.1
890.638	10.24
890.809	24.58
890.98	-2.05
891.151	28.67
891.323	100.35
891.494	-43.01
891.665	26.62
891.836	24.58
892.007	-53.25
892.178	32.77
892.349	0
892.52	-4.1
892.691	26.62
892.862	-6.14
893.032	4.1
893.203	0
893.374	71.68
893.545	45.06
893.716	45.06
893.887	-16.38
894.057	36.86
894.228	6.14
894.399	22.53
894.57	-12.29
894.74	-12.29
894.911	0
895.082	-12.29
895.253	20.48
895.423	65.54
895.594	6.14
895.764	-67.58
895.935	-2.05
896.106	-18.43
896.276	22.53
896.447	4.1
896.617	45.06
896.788	6.14
896.958	18.43
897.129	-34.82
897.299	-61.44
897.47	-14.34
897.64	-10.24
897.81	-10.24
897.981	-2.05
898.151	-28.67
898.322	2.05
898.492	98.3
898.662	-14.34
898.832	38.91
899.003	22.53
899.173	28.67
899.343	-110.59
899.513	-6.14
