Data from USB4F104151__132__14-19-06-576.txt Node

Date: Thu Mar 13 14:19:06 EDT 2025
User: louis
Spectrometer: USB4F10415
Trigger mode: 4
Integration Time (sec): 2.000000E-2
Scans to average: 1
Electric dark correction enabled: true
Nonlinearity correction enabled: false
Boxcar width: 0
XAxis mode: Wavelengths
Number of Pixels in Spectrum: 3648
>>>>>Begin Spectral Data<<<<<
178.204	-133.97
178.424	-133.97
178.644	-133.97
178.864	-125.78
179.084	-64.34
179.304	23.72
179.524	23.72
179.744	15.53
179.964	-25.43
180.184	-52.05
180.404	-33.62
180.624	19.63
180.844	31.91
181.064	-33.62
181.283	23.72
181.503	-50
181.723	56.49
181.943	11.43
182.163	89.26
182.383	27.82
182.602	17.58
182.822	79.02
183.042	68.78
183.262	1.19
183.482	29.87
183.701	-29.52
183.921	36.01
184.141	-25.43
184.361	103.59
184.58	27.82
184.8	44.2
185.02	7.34
185.239	31.91
185.459	-50
185.679	19.63
185.898	9.39
186.118	7.34
186.338	44.2
186.557	48.3
186.777	13.48
186.997	48.3
187.216	40.11
187.436	17.58
187.655	23.72
187.875	79.02
188.095	-37.72
188.314	60.59
188.534	66.73
188.753	1.19
188.973	-0.85
189.192	23.72
189.412	3.24
189.631	52.39
189.851	7.34
190.07	5.29
190.29	3.24
190.509	-58.2
190.729	158.89
190.948	-9.05
191.168	111.78
191.387	70.83
191.607	54.44
191.826	89.26
192.045	-0.85
192.265	1.19
192.484	76.97
192.704	-15.19
192.923	-29.52
193.142	132.26
193.362	7.34
193.581	64.68
193.8	17.58
194.02	15.53
194.239	-11.09
194.458	31.91
194.678	27.82
194.897	25.77
195.116	-13.14
195.335	60.59
195.555	-11.09
195.774	-21.33
195.993	97.45
196.212	-0.85
196.432	76.97
196.651	58.54
196.87	15.53
197.089	68.78
197.308	31.91
197.528	83.11
197.747	81.07
197.966	9.39
198.185	58.54
198.404	9.39
198.623	36.01
198.842	68.78
199.062	76.97
199.281	62.63
199.5	-60.24
199.719	81.07
199.938	56.49
200.157	105.64
200.376	33.96
200.595	17.58
200.814	-4.95
201.033	85.16
201.252	-17.24
201.471	-37.72
201.69	68.78
201.909	64.68
202.128	-64.34
202.347	23.72
202.566	29.87
202.785	11.43
203.004	-45.91
203.223	134.31
203.442	64.68
203.661	33.96
203.879	27.82
204.098	42.15
204.317	-9.05
204.536	48.3
204.755	-19.29
204.974	23.72
205.193	-17.24
205.411	148.65
205.63	31.91
205.849	-0.85
206.068	56.49
206.287	58.54
206.505	48.3
206.724	64.68
206.943	81.07
207.162	58.54
207.381	105.64
207.599	23.72
207.818	52.39
208.037	58.54
208.255	-15.19
208.474	-17.24
208.693	91.31
208.911	23.72
209.13	15.53
209.349	74.92
209.567	25.77
209.786	89.26
210.005	40.11
210.223	64.68
210.442	-70.48
210.661	81.07
210.879	9.39
211.098	-56.15
211.316	40.11
211.535	97.45
211.753	-2.9
211.972	64.68
212.191	-11.09
212.409	64.68
212.628	74.92
212.846	42.15
213.065	68.78
213.283	74.92
213.502	-4.95
213.72	38.06
213.938	-4.95
214.157	-17.24
214.375	-7
214.594	5.29
214.812	58.54
215.031	-31.57
215.249	72.87
215.467	46.25
215.686	9.39
215.904	31.91
216.122	56.49
216.341	58.54
216.559	44.2
216.778	105.64
216.996	122.02
217.214	-23.38
217.432	13.48
217.651	-9.05
217.869	48.3
218.087	21.67
218.306	50.35
218.524	31.91
218.742	7.34
218.96	48.3
219.179	60.59
219.397	13.48
219.615	31.91
219.833	134.31
220.051	33.96
220.27	66.73
220.488	48.3
220.706	79.02
220.924	9.39
221.142	62.63
221.36	5.29
221.578	56.49
221.796	-13.14
222.015	81.07
222.233	7.34
222.451	130.22
222.669	72.87
222.887	70.83
223.105	-47.96
223.323	107.69
223.541	44.2
223.759	7.34
223.977	9.39
224.195	148.65
224.413	64.68
224.631	117.93
224.849	-43.86
225.067	74.92
225.285	58.54
225.503	40.11
225.721	23.72
225.939	1.19
226.157	15.53
226.375	101.55
226.592	15.53
226.81	56.49
227.028	64.68
227.246	46.25
227.464	13.48
227.682	105.64
227.9	15.53
228.117	33.96
228.335	-21.33
228.553	-29.52
228.771	5.29
228.989	79.02
229.206	38.06
229.424	7.34
229.642	17.58
229.86	9.39
230.077	72.87
230.295	-25.43
230.513	9.39
230.731	40.11
230.948	146.6
231.166	52.39
231.384	11.43
231.601	64.68
231.819	130.22
232.037	-7
232.254	-47.96
232.472	-7
232.689	-19.29
232.907	-25.43
233.125	-17.24
233.342	9.39
233.56	17.58
233.777	52.39
233.995	-25.43
234.213	117.93
234.43	-33.62
234.648	9.39
234.865	54.44
235.083	3.24
235.3	56.49
235.518	1.19
235.735	31.91
235.953	72.87
236.17	23.72
236.388	74.92
236.605	64.68
236.822	85.16
237.04	122.02
237.257	56.49
237.475	-50
237.692	107.69
237.909	42.15
238.127	56.49
238.344	-25.43
238.562	68.78
238.779	40.11
238.996	33.96
239.214	74.92
239.431	66.73
239.648	11.43
239.865	40.11
240.083	134.31
240.3	1.19
240.517	17.58
240.735	31.91
240.952	48.3
241.169	48.3
241.386	-25.43
241.603	7.34
241.821	-33.62
242.038	99.5
242.255	42.15
242.472	48.3
242.689	44.2
242.907	48.3
243.124	19.63
243.341	5.29
243.558	-15.19
243.775	40.11
243.992	-0.85
244.209	31.91
244.426	101.55
244.643	81.07
244.86	-23.38
245.078	27.82
245.295	54.44
245.512	3.24
245.729	15.53
245.946	25.77
246.163	-11.09
246.38	40.11
246.597	33.96
246.814	97.45
247.031	-4.95
247.248	21.67
247.464	23.72
247.681	-17.24
247.898	97.45
248.115	46.25
248.332	7.34
248.549	15.53
248.766	52.39
248.983	115.88
249.2	33.96
249.417	48.3
249.633	85.16
249.85	9.39
250.067	29.87
250.284	38.06
250.501	-17.24
250.717	25.77
250.934	23.72
251.151	1.19
251.368	15.53
251.585	7.34
251.801	-7
252.018	-7
252.235	83.11
252.451	-9.05
252.668	-74.58
252.885	83.11
253.102	56.49
253.318	66.73
253.535	81.07
253.752	44.2
253.968	66.73
254.185	91.31
254.401	-54.1
254.618	48.3
254.835	-47.96
255.051	11.43
255.268	60.59
255.484	11.43
255.701	40.11
255.917	52.39
256.134	38.06
256.351	42.15
256.567	-13.14
256.784	23.72
257	33.96
257.217	-15.19
257.433	50.35
257.65	99.5
257.866	40.11
258.082	23.72
258.299	-17.24
258.515	42.15
258.732	72.87
258.948	40.11
259.165	87.21
259.381	17.58
259.597	-17.24
259.814	56.49
260.03	44.2
260.246	15.53
260.463	117.93
260.679	31.91
260.895	-11.09
261.112	56.49
261.328	48.3
261.544	31.91
261.761	91.31
261.977	52.39
262.193	56.49
262.409	42.15
262.626	46.25
262.842	-27.48
263.058	11.43
263.274	107.69
263.49	17.58
263.707	48.3
263.923	29.87
264.139	-15.19
264.355	42.15
264.571	76.97
264.787	-41.81
265.004	36.01
265.22	36.01
265.436	48.3
265.652	56.49
265.868	85.16
266.084	15.53
266.3	-9.05
266.516	-25.43
266.732	25.77
266.948	91.31
267.164	36.01
267.38	95.4
267.596	68.78
267.812	19.63
268.028	40.11
268.244	33.96
268.46	40.11
268.676	-11.09
268.892	56.49
269.108	-58.2
269.324	31.91
269.54	7.34
269.756	56.49
269.972	64.68
270.188	40.11
270.403	31.91
270.619	58.54
270.835	19.63
271.051	46.25
271.267	105.64
271.483	70.83
271.698	111.78
271.914	15.53
272.13	-4.95
272.346	40.11
272.562	13.48
272.777	48.3
272.993	25.77
273.209	60.59
273.425	113.83
273.64	17.58
273.856	91.31
274.072	81.07
274.287	54.44
274.503	15.53
274.719	79.02
274.934	58.54
275.15	5.29
275.366	17.58
275.581	-23.38
275.797	19.63
276.012	74.92
276.228	33.96
276.444	17.58
276.659	19.63
276.875	56.49
277.09	74.92
277.306	7.34
277.521	74.92
277.737	40.11
277.952	87.21
278.168	-4.95
278.383	56.49
278.599	3.24
278.814	-43.86
279.03	1.19
279.245	19.63
279.461	36.01
279.676	50.35
279.892	44.2
280.107	44.2
280.322	3.24
280.538	66.73
280.753	66.73
280.969	58.54
281.184	70.83
281.399	81.07
281.615	-17.24
281.83	33.96
282.045	-17.24
282.26	7.34
282.476	-9.05
282.691	58.54
282.906	13.48
283.122	17.58
283.337	44.2
283.552	33.96
283.767	33.96
283.983	124.07
284.198	23.72
284.413	38.06
284.628	-25.43
284.843	58.54
285.058	97.45
285.274	68.78
285.489	1.19
285.704	83.11
285.919	-41.81
286.134	68.78
286.349	-31.57
286.564	1.19
286.779	132.26
286.995	-29.52
287.21	-13.14
287.425	42.15
287.64	74.92
287.855	58.54
288.07	-2.9
288.285	85.16
288.5	97.45
288.715	76.97
288.93	-33.62
289.145	-9.05
289.36	58.54
289.575	91.31
289.79	99.5
290.004	44.2
290.219	17.58
290.434	89.26
290.649	52.39
290.864	15.53
291.079	126.12
291.294	40.11
291.509	-27.48
291.724	25.77
291.938	-7
292.153	5.29
292.368	50.35
292.583	101.55
292.798	64.68
293.012	33.96
293.227	64.68
293.442	87.21
293.657	128.17
293.871	81.07
294.086	134.31
294.301	109.74
294.516	62.63
294.73	74.92
294.945	-33.62
295.16	119.98
295.374	9.39
295.589	29.87
295.804	58.54
296.018	52.39
296.233	76.97
296.447	25.77
296.662	19.63
296.877	31.91
297.091	42.15
297.306	27.82
297.52	72.87
297.735	1.19
297.949	44.2
298.164	58.54
298.378	3.24
298.593	25.77
298.807	-19.29
299.022	42.15
299.236	83.11
299.451	113.83
299.665	68.78
299.88	42.15
300.094	44.2
300.309	42.15
300.523	36.01
300.737	50.35
300.952	36.01
301.166	56.49
301.381	56.49
301.595	91.31
301.809	68.78
302.024	74.92
302.238	-4.95
302.452	72.87
302.667	9.39
302.881	54.44
303.095	13.48
303.309	31.91
303.524	52.39
303.738	-0.85
303.952	-15.19
304.166	56.49
304.381	-35.67
304.595	150.7
304.809	7.34
305.023	70.83
305.237	50.35
305.452	91.31
305.666	33.96
305.88	122.02
306.094	23.72
306.308	36.01
306.522	29.87
306.736	23.72
306.95	27.82
307.164	58.54
307.379	58.54
307.593	58.54
307.807	150.7
308.021	105.64
308.235	60.59
308.449	40.11
308.663	-31.57
308.877	52.39
309.091	11.43
309.305	-13.14
309.519	-66.39
309.733	134.31
309.947	-4.95
310.161	9.39
310.374	99.5
310.588	101.55
310.802	-29.52
311.016	38.06
311.23	36.01
311.444	83.11
311.658	107.69
311.872	-29.52
312.085	31.91
312.299	109.74
312.513	56.49
312.727	79.02
312.941	1.19
313.154	107.69
313.368	64.68
313.582	72.87
313.796	7.34
314.009	56.49
314.223	64.68
314.437	70.83
314.651	85.16
314.864	-9.05
315.078	21.67
315.292	-35.67
315.505	42.15
315.719	101.55
315.933	31.91
316.146	11.43
316.36	50.35
316.573	101.55
316.787	95.4
317.001	33.96
317.214	33.96
317.428	132.26
317.641	64.68
317.855	36.01
318.068	128.17
318.282	89.26
318.495	232.62
318.709	74.92
318.922	-33.62
319.136	72.87
319.349	136.36
319.563	48.3
319.776	29.87
319.99	-7
320.203	50.35
320.417	148.65
320.63	70.83
320.843	105.64
321.057	79.02
321.27	83.11
321.483	60.59
321.697	66.73
321.91	101.55
322.124	85.16
322.337	-4.95
322.55	-35.67
322.763	-54.1
322.977	72.87
323.19	36.01
323.403	44.2
323.617	76.97
323.83	58.54
324.043	-21.33
324.256	91.31
324.469	-52.05
324.683	-9.05
324.896	50.35
325.109	72.87
325.322	-78.68
325.535	56.49
325.748	33.96
325.962	-33.62
326.175	31.91
326.388	122.02
326.601	138.41
326.814	134.31
327.027	7.34
327.24	85.16
327.453	-47.96
327.666	48.3
327.879	50.35
328.092	97.45
328.305	33.96
328.518	52.39
328.731	56.49
328.944	62.63
329.157	11.43
329.37	36.01
329.583	62.63
329.796	107.69
330.009	-13.14
330.222	56.49
330.435	5.29
330.648	40.11
330.861	66.73
331.073	-9.05
331.286	72.87
331.499	52.39
331.712	-33.62
331.925	25.77
332.138	85.16
332.35	101.55
332.563	48.3
332.776	89.26
332.989	27.82
333.202	81.07
333.414	87.21
333.627	44.2
333.84	17.58
334.053	60.59
334.265	103.59
334.478	105.64
334.691	40.11
334.903	58.54
335.116	1.19
335.329	38.06
335.541	97.45
335.754	-0.85
335.966	52.39
336.179	72.87
336.392	-15.19
336.604	64.68
336.817	72.87
337.029	40.11
337.242	31.91
337.454	64.68
337.667	56.49
337.88	109.74
338.092	99.5
338.305	-2.9
338.517	72.87
338.729	68.78
338.942	85.16
339.154	99.5
339.367	31.91
339.579	54.44
339.792	99.5
340.004	87.21
340.217	38.06
340.429	68.78
340.641	29.87
340.854	31.91
341.066	79.02
341.278	89.26
341.491	23.72
341.703	19.63
341.915	62.63
342.128	50.35
342.34	64.68
342.552	-0.85
342.764	101.55
342.977	64.68
343.189	101.55
343.401	74.92
343.613	-29.52
343.826	52.39
344.038	13.48
344.25	99.5
344.462	-4.95
344.674	152.74
344.886	3.24
345.099	46.25
345.311	81.07
345.523	52.39
345.735	-13.14
345.947	68.78
346.159	60.59
346.371	93.35
346.583	19.63
346.795	124.07
347.007	13.48
347.219	58.54
347.431	-0.85
347.643	-0.85
347.855	-23.38
348.067	52.39
348.279	36.01
348.491	89.26
348.703	60.59
348.915	1.19
349.127	68.78
349.339	48.3
349.551	81.07
349.763	113.83
349.975	-2.9
350.187	25.77
350.399	89.26
350.61	-4.95
350.822	-25.43
351.034	25.77
351.246	62.63
351.458	119.98
351.669	95.4
351.881	103.59
352.093	93.35
352.305	124.07
352.517	11.43
352.728	138.41
352.94	58.54
353.152	136.36
353.363	-4.95
353.575	99.5
353.787	-21.33
353.999	68.78
354.21	105.64
354.422	48.3
354.633	44.2
354.845	25.77
355.057	52.39
355.268	27.82
355.48	66.73
355.692	33.96
355.903	76.97
356.115	23.72
356.326	42.15
356.538	140.46
356.749	15.53
356.961	87.21
357.172	17.58
357.384	7.34
357.595	97.45
357.807	91.31
358.018	29.87
358.23	11.43
358.441	72.87
358.653	79.02
358.864	50.35
359.075	9.39
359.287	15.53
359.498	83.11
359.709	40.11
359.921	7.34
360.132	70.83
360.344	15.53
360.555	9.39
360.766	-7
360.977	36.01
361.189	95.4
361.4	23.72
361.611	5.29
361.823	31.91
362.034	87.21
362.245	27.82
362.456	64.68
362.667	25.77
362.879	66.73
363.09	81.07
363.301	130.22
363.512	-11.09
363.723	19.63
363.935	40.11
364.146	76.97
364.357	50.35
364.568	33.96
364.779	42.15
364.99	171.18
365.201	-23.38
365.412	138.41
365.623	3.24
365.834	33.96
366.045	60.59
366.256	52.39
366.467	31.91
366.678	42.15
366.889	17.58
367.1	48.3
367.311	142.5
367.522	21.67
367.733	83.11
367.944	89.26
368.155	36.01
368.366	122.02
368.577	68.78
368.788	72.87
368.999	72.87
369.209	48.3
369.42	95.4
369.631	89.26
369.842	76.97
370.053	60.59
370.264	48.3
370.474	-15.19
370.685	40.11
370.896	15.53
371.107	93.35
371.317	109.74
371.528	36.01
371.739	58.54
371.95	91.31
372.16	74.92
372.371	-41.81
372.582	-7
372.792	60.59
373.003	99.5
373.214	7.34
373.424	42.15
373.635	38.06
373.846	74.92
374.056	64.68
374.267	66.73
374.477	97.45
374.688	-72.53
374.898	70.83
375.109	62.63
375.319	68.78
375.53	97.45
375.74	93.35
375.951	91.31
376.161	17.58
376.372	19.63
376.582	101.55
376.793	56.49
377.003	31.91
377.214	27.82
377.424	52.39
377.635	40.11
377.845	19.63
378.055	87.21
378.266	85.16
378.476	72.87
378.686	97.45
378.897	70.83
379.107	91.31
379.317	40.11
379.528	17.58
379.738	95.4
379.948	-15.19
380.158	113.83
380.369	29.87
380.579	87.21
380.789	15.53
380.999	40.11
381.21	58.54
381.42	68.78
381.63	87.21
381.84	-31.57
382.05	68.78
382.261	27.82
382.471	89.26
382.681	113.83
382.891	83.11
383.101	72.87
383.311	33.96
383.521	56.49
383.731	-2.9
383.941	93.35
384.151	56.49
384.361	72.87
384.571	42.15
384.781	74.92
384.991	56.49
385.201	89.26
385.411	115.88
385.621	66.73
385.831	64.68
386.041	66.73
386.251	72.87
386.461	48.3
386.671	89.26
386.881	91.31
387.091	50.35
387.301	158.89
387.511	7.34
387.72	74.92
387.93	27.82
388.14	66.73
388.35	76.97
388.56	21.67
388.769	17.58
388.979	113.83
389.189	66.73
389.399	40.11
389.609	60.59
389.818	130.22
390.028	56.49
390.238	64.68
390.447	113.83
390.657	68.78
390.867	21.67
391.076	64.68
391.286	119.98
391.496	122.02
391.705	81.07
391.915	107.69
392.125	83.11
392.334	-17.24
392.544	140.46
392.753	40.11
392.963	62.63
393.172	52.39
393.382	79.02
393.591	72.87
393.801	27.82
394.01	146.6
394.22	48.3
394.429	124.07
394.639	109.74
394.848	107.69
395.058	-7
395.267	113.83
395.477	50.35
395.686	101.55
395.895	132.26
396.105	109.74
396.314	64.68
396.524	76.97
396.733	109.74
396.942	81.07
397.152	173.22
397.361	105.64
397.57	148.65
397.78	31.91
397.989	89.26
398.198	115.88
398.407	103.59
398.617	48.3
398.826	68.78
399.035	113.83
399.244	60.59
399.453	113.83
399.663	128.17
399.872	81.07
400.081	15.53
400.29	154.79
400.499	148.65
400.708	146.6
400.917	130.22
401.127	60.59
401.336	126.12
401.545	201.9
401.754	87.21
401.963	124.07
402.172	136.36
402.381	167.08
402.59	54.44
402.799	216.23
403.008	195.75
403.217	72.87
403.426	138.41
403.635	95.4
403.844	156.84
404.053	126.12
404.262	146.6
404.471	175.27
404.68	31.91
404.888	76.97
405.097	117.93
405.306	162.98
405.515	222.38
405.724	109.74
405.933	132.26
406.142	220.33
406.35	269.48
406.559	236.71
406.768	154.79
406.977	175.27
407.185	201.9
407.394	279.72
407.603	203.94
407.812	261.29
408.02	273.57
408.229	210.09
408.438	205.99
408.646	238.76
408.855	175.27
409.064	302.25
409.272	312.49
409.481	246.95
409.69	263.33
409.898	322.73
410.107	320.68
410.315	314.53
410.524	236.71
410.733	365.73
410.941	339.11
411.15	351.4
411.358	367.78
411.567	337.06
411.775	326.82
411.984	355.49
412.192	418.98
412.401	392.36
412.609	474.28
412.818	486.56
413.026	406.69
413.234	568.48
413.443	492.71
413.651	550.05
413.86	494.76
414.068	517.28
414.276	617.63
414.485	564.39
414.693	650.4
414.901	728.22
415.11	679.07
415.318	748.7
415.526	654.5
415.734	720.03
415.943	724.13
416.151	922.78
416.359	775.33
416.567	789.66
416.776	787.61
416.984	949.4
417.192	941.21
417.4	924.83
417.608	933.02
417.817	933.02
418.025	1031.32
418.233	1059.99
418.441	1033.37
418.649	1148.06
418.857	1152.15
419.065	1180.82
419.273	1229.98
419.481	1246.36
419.689	1399.96
419.897	1391.77
420.105	1424.53
420.313	1442.96
420.521	1561.75
420.729	1442.96
420.937	1551.51
421.145	1617.04
421.353	1744.02
421.561	1772.69
421.769	1793.17
421.977	1885.33
422.185	1877.13
422.393	1891.47
422.601	2022.54
422.809	2010.25
423.017	2118.79
423.224	2210.95
423.432	2327.69
423.64	2346.12
423.848	2436.23
424.056	2268.3
424.263	2595.97
424.471	2557.06
424.679	2581.64
424.887	2661.51
425.094	2843.78
425.302	2866.3
425.51	2907.26
425.718	3030.14
425.925	3091.58
426.133	3220.6
426.341	3286.14
426.548	3560.56
426.756	3482.74
426.964	3540.08
427.171	3867.76
427.379	3865.71
427.586	4019.31
427.794	4156.52
428.001	4287.59
428.209	4496.49
428.417	4301.93
428.624	4746.34
428.832	4791.39
429.039	4684.9
429.247	4717.67
429.454	5162.08
429.662	5332.06
429.869	5024.86
430.076	5549.14
430.284	5110.88
430.491	5506.13
430.699	5915.73
430.906	5842
431.114	5993.55
431.321	6181.96
431.528	6227.02
431.736	6661.19
431.943	6863.94
432.15	6618.18
432.358	6827.07
432.565	7361.59
432.772	7167.04
432.979	7566.39
433.187	7734.32
433.394	7365.69
433.601	8143.92
433.808	8182.83
434.016	8105.01
434.223	8600.62
434.43	8977.44
434.637	8596.52
434.844	9452.57
435.052	9606.17
435.259	9358.36
435.466	9528.35
435.673	9632.79
435.88	9985.04
436.087	10636.3
436.294	10773.51
436.501	10441.74
436.708	10632.2
436.915	10996.74
437.122	11363.33
437.329	11416.57
437.537	11777.01
437.743	11820.02
437.95	12061.68
438.157	12389.36
438.364	12909.54
438.571	12594.15
438.778	13081.57
438.985	14040.02
439.192	13775.83
439.399	14064.6
439.606	13671.39
439.813	14494.67
440.02	15285.19
440.227	15096.77
440.433	14982.09
440.64	15465.41
440.847	15315.9
441.054	15762.36
441.261	16747.44
441.467	16368.56
441.674	16933.8
441.881	17269.67
442.088	17480.61
442.294	17073.06
442.501	17669.02
442.708	18008.98
442.914	18623.37
443.121	19424.13
443.328	18924.43
443.534	20446.07
443.741	19725.18
443.948	19598.21
444.154	20910.96
444.361	20484.98
444.568	21355.36
444.774	20697.97
444.981	21189.48
445.187	21656.42
445.394	22711.12
445.6	22405.97
445.807	24365.88
446.013	23219.02
446.22	24083.26
446.426	24533.81
446.633	24884.01
446.839	25727.78
447.046	24935.21
447.252	26104.6
447.459	26090.27
447.665	26364.7
447.871	27370.25
448.078	28269.31
448.284	26827.54
448.491	27953.92
448.697	28785.4
448.903	29311.72
449.11	29450.99
449.316	28963.57
449.522	29453.03
449.728	30444.25
449.935	30196.45
450.141	30816.98
450.347	31050.45
450.553	30460.63
450.76	30759.64
450.966	31374.03
451.172	31251.15
451.378	31877.83
451.584	31234.77
451.791	31865.54
451.997	31972.03
452.203	32461.5
452.409	32795.32
452.615	32352.96
452.821	31234.77
453.027	30630.62
453.233	32637.62
453.44	31529.67
453.646	32010.95
453.852	31865.54
454.058	32477.88
454.264	31371.98
454.47	32264.89
454.676	31294.16
454.882	32346.81
455.088	29752.04
455.294	30178.01
455.5	30784.21
455.705	31044.3
455.911	29749.99
456.117	29221.61
456.323	28773.11
456.529	27251.47
456.735	28162.81
456.941	27501.32
457.147	27333.39
457.352	26346.26
457.558	25914.14
457.764	26387.22
457.97	25916.19
458.176	25445.16
458.381	25565.99
458.587	23638.85
458.793	24083.26
458.999	22737.74
459.204	24501.04
459.41	23425.86
459.616	22176.6
459.821	22113.11
460.027	22164.31
460.233	21496.67
460.438	20470.64
460.644	20691.82
460.85	19800.96
461.055	19641.21
461.261	19553.15
461.466	17851.29
461.672	17476.51
461.878	18817.93
462.083	17320.87
462.289	17284
462.494	16968.62
462.7	16325.55
462.905	15973.3
463.111	16462.77
463.316	16671.66
463.522	16032.69
463.727	16235.44
463.932	16163.76
464.138	16155.57
464.343	16083.89
464.549	15313.86
464.754	15926.2
464.959	15659.96
465.165	15694.78
465.37	15174.6
465.575	14676.94
465.781	15213.51
465.986	15680.44
466.191	14539.72
466.397	14384.08
466.602	13790.17
466.807	14334.93
467.012	14521.29
467.218	14212.05
467.423	14074.84
467.628	13956.05
467.833	14642.12
468.038	14166.99
468.244	13986.77
468.449	14171.09
468.654	13847.51
468.859	13958.1
469.064	13714.39
469.269	13091.81
469.474	13249.5
469.679	13515.74
469.885	13196.26
470.09	13423.58
470.295	13548.51
470.5	12747.75
470.705	12950.5
470.91	12487.66
471.115	12575.72
471.32	12635.11
471.525	12600.3
471.73	12350.45
471.935	12184.56
472.139	11889.65
472.344	12176.37
472.549	12102.64
472.754	11699.19
472.959	11639.8
473.164	11328.51
473.369	11084.8
473.574	11533.31
473.778	11533.31
473.983	11590.65
474.188	11236.35
474.393	10959.88
474.598	10796.04
474.802	10800.13
475.007	10654.73
475.212	10812.42
475.417	10316.81
475.621	10525.71
475.826	10507.27
476.031	10165.26
476.235	10185.74
476.44	10216.46
476.645	9911.32
476.849	10079.25
477.054	9925.65
477.259	9749.53
477.463	9780.25
477.668	9462.81
477.872	9653.27
478.077	9380.89
478.282	8969.25
478.486	9245.73
478.691	9049.12
478.895	9034.78
479.1	8905.76
479.304	9047.07
479.509	8643.62
479.713	8952.87
479.918	8717.35
480.122	8662.05
480.326	8696.87
480.531	8797.22
480.735	8612.9
480.94	8383.53
481.144	8774.69
481.348	8318
481.553	8332.33
481.757	8369.19
481.961	8496.17
482.166	8369.19
482.37	8367.15
482.574	8193.07
482.778	8356.91
482.983	8340.52
483.187	8361
483.391	8358.96
483.595	8305.71
483.8	8127.53
484.004	8399.91
484.208	8447.02
484.412	8248.36
484.616	8348.72
484.821	8502.31
485.025	8186.93
485.229	8399.91
485.433	8186.93
485.637	8332.33
485.841	8313.9
486.045	8145.97
486.249	8373.29
486.453	8244.27
486.657	8322.09
486.861	8365.1
487.065	8107.05
487.269	8207.41
487.473	8092.72
487.677	8500.26
487.881	8444.97
488.085	8365.1
488.289	8451.11
488.493	8244.27
488.697	8375.34
488.901	8344.62
489.105	8219.69
489.309	8328.24
489.512	8430.63
489.716	8297.52
489.92	8342.57
490.124	8330.28
490.328	8436.78
490.531	8485.93
490.735	8535.08
490.939	8711.21
491.143	8455.21
491.346	8449.07
491.55	8774.69
491.754	8805.41
491.958	8715.3
492.161	8651.81
492.365	8797.22
492.569	8559.66
492.772	8741.93
492.976	8612.9
493.18	8842.28
493.383	8985.63
493.587	8887.33
493.79	9069.6
493.994	9030.69
494.197	9200.67
494.401	9063.46
494.605	9020.45
494.808	9174.05
495.012	9270.3
495.215	9288.73
495.419	9493.53
495.622	9280.54
495.825	9296.92
496.029	9538.59
496.232	9694.23
496.436	9710.61
496.639	9952.27
496.843	9952.27
497.046	9907.22
497.249	10290.19
497.453	10265.61
497.656	10335.24
497.859	10419.21
498.063	10468.36
498.266	10716.17
498.469	10724.36
498.673	10804.23
498.876	10968.07
499.079	11131.9
499.282	10781.7
499.485	11439.1
499.689	11348.99
499.892	11365.37
500.095	11586.55
500.298	11725.82
500.501	11502.59
500.705	11817.97
500.908	12194.8
501.111	12188.66
501.314	12213.23
501.517	12221.42
501.72	12616.68
501.923	12235.76
502.126	12897.25
502.329	13122.53
502.532	13102.05
502.735	13237.22
502.938	13319.14
503.141	13255.65
503.344	13665.24
503.547	13659.1
503.75	13986.77
503.953	14228.43
504.156	14076.88
504.359	14302.16
504.562	14517.2
504.765	14826.44
504.968	14848.97
505.17	15244.23
505.373	14758.86
505.576	15111.11
505.779	15436.74
505.982	15600.57
506.185	15854.52
506.387	15915.96
506.59	15891.38
506.793	16087.99
506.996	16296.88
507.198	16604.08
507.401	16638.89
507.604	16898.98
507.807	17195.94
508.009	17408.93
508.212	17267.62
508.415	17517.47
508.617	17722.27
508.82	17603.49
509.022	17951.64
509.225	18324.37
509.428	18217.88
509.63	18703.25
509.833	18772.88
510.035	19219.33
510.238	18918.28
510.44	19358.6
510.643	19532.67
510.845	19633.02
511.048	19499.91
511.25	19999.61
511.453	19815.29
511.655	20714.35
511.858	20503.41
512.06	20822.89
512.262	20802.41
512.465	20810.61
512.667	21343.08
512.87	21601.12
513.072	21504.87
513.274	21879.64
513.477	22117.21
513.679	22281.05
513.881	22272.85
514.084	22715.22
514.286	22504.28
514.488	22756.18
514.69	23632.71
514.893	23743.3
515.095	23483.2
515.297	23518.02
515.499	24019.77
515.701	24159.03
515.904	24759.09
516.106	24427.32
516.308	24642.35
516.51	25303.85
516.712	25056.04
516.914	25254.7
517.116	25701.15
517.318	25774.88
517.52	26233.63
517.722	26077.98
517.925	26133.28
518.127	26714.9
518.329	26858.26
518.531	26931.98
518.733	27308.81
518.935	27937.54
519.136	27736.84
519.338	27996.93
519.54	28031.74
519.742	28099.33
519.944	28482.3
520.146	28971.76
520.348	28912.37
520.55	29223.66
520.752	28967.66
520.954	29604.58
521.155	29227.76
521.357	30100.19
521.559	30247.65
521.761	30661.33
521.963	30655.19
522.164	30808.79
522.366	30806.74
522.568	30956.24
522.77	31277.77
522.971	31990.47
523.173	31627.98
523.375	31615.69
523.576	31642.31
523.778	31720.13
523.98	32508.6
524.181	32443.07
524.383	32637.62
524.584	32682.68
524.786	32979.64
524.988	32606.91
525.189	33098.42
525.391	33428.14
525.592	33440.43
525.794	33977
525.995	33813.16
526.197	34146.98
526.398	33919.65
526.6	34278.05
526.801	34710.17
527.003	34529.95
527.204	34425.5
527.406	35091.09
527.607	34718.36
527.808	35134.1
528.01	34542.24
528.211	35246.74
528.412	35420.81
528.614	35414.67
528.815	35115.67
529.016	35736.2
529.218	35269.26
529.419	35793.54
529.62	35588.75
529.822	35476.11
530.023	35742.35
530.224	36016.77
530.425	35877.51
530.626	35299.98
530.828	35431.05
531.029	36104.84
531.23	36049.54
531.431	35584.65
531.632	36364.93
531.833	36274.82
532.035	36084.36
532.236	36219.52
532.437	36608.64
532.638	35981.96
532.839	36326.02
533.04	36643.45
533.241	35664.52
533.442	36510.33
533.643	36293.25
533.844	36221.57
534.045	36520.57
534.246	36166.27
534.447	36739.71
534.648	36756.09
534.849	36283.01
535.05	36532.86
535.251	36569.72
535.451	36436.61
535.652	36397.7
535.853	36240
536.054	36336.26
536.255	36526.72
536.456	36289.15
536.657	36932.22
536.857	36342.4
537.058	36080.26
537.259	36727.42
537.46	36651.64
537.66	36061.83
537.861	36350.59
538.062	36422.27
538.263	36504.19
538.463	36375.17
538.664	36311.68
538.865	36506.24
539.065	36539.01
539.266	36145.8
539.466	36747.9
539.667	36489.85
539.868	36381.31
540.068	36260.48
540.269	35992.2
540.469	36475.52
540.67	36452.99
540.87	36297.34
541.071	36088.45
541.271	36280.96
541.472	36473.47
541.672	35992.2
541.873	35916.42
542.073	35711.63
542.274	36309.63
542.474	36579.96
542.675	35992.2
542.875	36344.45
543.075	36291.2
543.276	35750.54
543.476	36721.27
543.676	35865.22
543.877	36321.92
544.077	36063.88
544.277	36205.19
544.478	36039.3
544.678	36168.32
544.878	36258.43
545.078	36481.66
545.279	35973.77
545.479	36035.2
545.679	36432.51
545.879	36104.84
546.079	36233.86
546.28	36022.92
546.48	35351.18
546.68	36053.64
546.88	36139.65
547.08	36153.99
547.28	35875.46
547.48	35412.62
547.68	36104.84
547.88	35879.56
548.081	35742.35
548.281	35984.01
548.481	35879.56
548.681	36057.73
548.881	35771.02
549.081	35869.32
549.28	35461.77
549.48	36049.54
549.68	35478.16
549.88	36352.64
550.08	35478.16
550.28	35850.89
550.48	35609.23
550.68	35998.34
550.88	35445.39
551.08	35574.41
551.279	35844.74
551.479	35515.02
551.679	35476.11
551.879	35574.41
552.079	35830.41
552.278	35623.56
552.478	35541.64
552.678	35685
552.878	35633.8
553.077	35801.74
553.277	35547.79
553.477	35904.13
553.676	35320.46
553.876	35211.92
554.076	35125.91
554.275	35379.85
554.475	35175.06
554.674	35715.72
554.874	35322.51
555.074	34927.25
555.273	35353.23
555.473	35609.23
555.672	34921.11
555.872	35037.84
556.071	35115.67
556.271	35447.44
556.47	34665.11
556.67	34933.4
556.869	34910.87
557.068	35289.74
557.268	34818.71
557.467	34849.43
557.667	34900.63
557.866	34845.33
558.065	34865.81
558.265	34523.8
558.464	34368.16
558.663	35277.46
558.863	34405.02
559.062	35121.81
559.261	34271.9
559.461	34820.76
559.66	34304.67
559.859	34689.69
560.058	34235.04
560.258	34392.73
560.457	34296.48
560.656	34392.73
560.855	34222.75
561.054	34384.54
561.253	33936.04
561.453	34337.44
561.652	34173.6
561.851	34020
562.05	34224.8
562.249	33682.09
562.448	34364.06
562.647	33878.69
562.846	33956.52
563.045	33979.04
563.244	33510.06
563.443	33909.41
563.642	33424.04
563.841	33622.7
564.04	33315.5
564.239	33682.09
564.438	33428.14
564.637	33551.02
564.836	33426.09
565.035	33012.4
565.234	33579.69
565.432	33176.24
565.631	33184.43
565.83	33129.14
566.029	33079.99
566.228	32567.99
566.427	32963.25
566.625	32649.91
566.824	32604.86
567.023	32938.68
567.222	32295.61
567.42	32742.07
567.619	32455.36
567.818	32223.93
568.016	32510.65
568.215	32565.95
568.414	32303.81
568.612	32309.95
568.811	32019.14
569.01	31935.17
569.208	31818.44
569.407	32041.67
569.605	31314.64
569.804	31984.32
570.002	31883.97
570.201	31752.9
570.4	31249.1
570.598	31419.08
570.797	31476.43
570.995	31517.39
571.193	31148.75
571.392	31470.28
571.59	30993.11
571.789	31191.76
571.987	31150.8
572.186	31034.07
572.384	31019.73
572.582	31249.1
572.781	31040.21
572.979	30556.89
573.177	30612.18
573.376	30948.05
573.574	30477.02
573.772	30788.31
573.971	30395.1
574.169	30102.24
574.367	30319.32
574.565	30638.81
574.763	29811.43
574.962	30132.96
575.16	30010.08
575.358	30108.38
575.556	29510.38
575.754	30184.16
575.952	29647.59
576.151	29946.59
576.349	29283.05
576.547	29446.89
576.745	29592.3
576.943	29811.43
577.141	29211.37
577.339	29684.45
577.537	29506.28
577.735	29162.22
577.933	28846.83
578.131	28895.99
578.329	28814.07
578.527	28568.31
578.725	28951.28
578.923	28791.54
579.121	28650.23
579.319	28662.52
579.516	28631.8
579.714	28764.92
579.912	28644.09
580.11	28123.9
580.308	28500.73
580.506	28220.16
580.704	28033.79
580.901	28001.02
581.099	28257.02
581.297	27726.6
581.495	27982.59
581.692	27804.42
581.89	27339.53
582.088	27912.96
582.285	27466.5
582.483	27912.96
582.681	27253.51
582.878	27357.96
583.076	27298.57
583.274	27458.31
583.471	26936.08
583.669	27304.71
583.866	26835.73
584.064	27132.68
584.262	26608.4
584.459	26929.94
584.657	26438.42
584.854	27003.66
585.052	26626.84
585.249	26632.98
585.447	27120.4
585.644	26198.81
585.841	26718.99
586.039	26393.37
586.236	26241.82
586.434	26075.93
586.631	26366.74
586.828	26088.22
587.026	26284.83
587.223	25862.94
587.42	25598.76
587.618	25887.52
587.815	25490.21
588.012	25269.03
588.21	25578.28
588.407	25733.92
588.604	25676.58
588.801	25269.03
588.999	25297.7
589.196	25508.65
589.393	25314.09
589.59	25269.03
589.787	24861.49
589.984	25051.95
590.182	24396.6
590.379	24961.84
590.576	24666.93
590.773	24572.72
590.97	24361.78
591.167	24931.12
591.364	24240.95
591.561	24769.33
591.758	24120.12
591.955	24314.68
592.152	24310.58
592.349	24007.48
592.546	24199.99
592.743	24308.54
592.94	23661.38
593.137	24089.4
593.334	23767.87
593.531	23659.33
593.727	23843.65
593.924	23900.99
594.121	23544.64
594.318	23698.24
594.515	23360.33
594.712	23249.74
594.908	23020.36
595.105	23395.14
595.302	23196.49
595.499	22885.2
595.696	23257.93
595.892	22920.01
596.089	23051.08
596.286	22741.84
596.482	22616.91
596.679	22764.37
596.876	22692.69
597.072	22434.64
597.269	22526.8
597.466	22373.21
597.662	22127.45
597.859	22346.58
598.055	22420.31
598.252	22297.43
598.448	22186.84
598.645	22238.04
598.841	22018.91
599.038	22309.72
599.234	22192.98
599.431	21719.9
599.627	21879.64
599.824	22168.41
600.02	21418.85
600.217	21885.79
600.413	21355.36
600.609	21535.59
600.806	21191.53
601.002	21576.55
601.198	21355.36
601.395	21070.7
601.591	21138.28
601.787	21191.53
601.984	21064.55
602.18	21144.42
602.376	20783.98
602.572	20724.59
602.769	20966.25
602.965	20794.22
603.161	20800.37
603.357	20714.35
603.553	20714.35
603.75	20570.99
603.946	20392.82
604.142	20454.26
604.338	20050.81
604.534	20181.88
604.73	20020.09
604.926	20083.58
605.122	20183.93
605.318	20061.05
605.514	19850.11
605.71	19862.4
605.906	19860.35
606.102	19886.97
606.298	19743.61
606.494	19665.79
606.69	19690.37
606.886	19809.15
607.082	19196.81
607.278	19659.65
607.474	19106.7
607.67	19538.82
607.866	19190.66
608.062	19479.43
608.257	19188.61
608.453	19381.12
608.649	19452.8
608.845	19166.09
609.041	18994.06
609.236	19202.95
609.432	19313.54
609.628	19047.3
609.824	18922.38
610.019	19086.22
610.215	18865.03
610.411	18850.7
610.606	18895.75
610.802	18760.59
610.998	18811.79
611.193	18758.54
611.389	18717.58
611.584	18660.24
611.78	18606.99
611.976	18506.64
612.171	18477.97
612.367	18705.29
612.562	18502.54
612.758	18095
612.953	18135.96
613.149	18488.21
613.344	18035.61
613.539	18377.62
613.735	18113.43
613.93	18389.91
614.126	18101.14
614.321	18537.36
614.517	18154.39
614.712	18275.22
614.907	18013.08
615.103	18428.82
615.298	17898.39
615.493	18150.29
615.688	17726.36
615.884	18215.83
616.079	17814.43
616.274	18029.46
616.47	17750.94
616.665	17849.24
616.86	17511.33
617.055	17585.05
617.25	17648.54
617.445	17630.11
617.641	17417.12
617.836	17820.57
618.031	17300.39
618.226	17589.15
618.421	17255.33
618.616	17363.87
618.811	17214.37
619.006	17439.65
619.201	17060.77
619.396	17103.78
619.591	16712.62
619.786	17148.84
619.981	16802.73
620.176	16888.74
620.371	16753.58
620.566	16524.21
620.761	16554.93
620.956	16737.2
621.151	16704.43
621.346	16597.93
621.541	16085.94
621.735	16415.66
621.93	16012.21
622.125	16124.85
622.32	15915.96
622.515	16139.19
622.709	16186.29
622.904	15807.42
623.099	15975.35
623.294	15913.91
623.488	15604.67
623.683	15457.21
623.878	15422.4
624.072	15365.06
624.267	15383.49
624.462	15363.01
624.656	15125.44
624.851	15010.76
625.046	14912.46
625.24	14930.89
625.435	14652.36
625.629	14574.54
625.824	14625.74
626.018	14523.34
626.213	14291.92
626.407	14482.38
626.602	14363.6
626.796	14371.79
626.991	14244.82
627.185	14273.49
627.38	14050.26
627.574	13986.77
627.768	13775.83
627.963	13804.5
628.157	13681.63
628.352	13624.28
628.546	13300.7
628.74	13317.09
628.935	13577.18
629.129	13657.05
629.323	13345.76
629.517	13183.97
629.712	12977.12
629.906	12993.51
630.1	12731.37
630.294	12864.49
630.489	12776.42
630.683	12893.16
630.877	12526.57
631.071	12538.86
631.265	12485.61
631.459	12573.67
631.653	12332.01
631.848	12299.25
632.042	12395.5
632.236	12282.86
632.43	12309.49
632.624	12213.23
632.818	12321.77
633.012	12067.83
633.206	11949.04
633.4	11916.28
633.594	11854.84
633.788	11789.3
633.982	11957.24
634.176	11611.13
634.369	11506.68
634.563	11635.71
634.757	11576.31
634.951	11385.85
635.145	11303.93
635.339	11344.89
635.533	11412.48
635.726	11348.99
635.92	11041.79
636.114	11185.15
636.308	11062.27
636.501	11033.6
636.695	11011.07
636.889	10826.76
637.083	10863.62
637.276	10595.34
637.47	10576.91
637.664	10542.09
637.857	10685.45
638.051	10656.78
638.244	10507.27
638.438	10671.11
638.632	10329.1
638.825	10236.94
639.019	10439.69
639.212	10177.55
639.406	10183.7
639.599	10126.35
639.793	9894.93
639.986	9976.85
640.18	10114.06
640.373	9808.92
640.567	9829.4
640.76	9872.4
640.954	9774.1
641.147	9608.22
641.34	9614.36
641.534	9524.25
641.727	9653.27
641.92	9520.15
642.114	9487.39
642.307	9423.9
642.5	9464.86
642.694	9262.11
642.887	9223.2
643.08	9165.85
643.273	9233.44
643.467	9006.11
643.66	9051.17
643.853	9055.26
644.046	8737.83
644.239	8838.18
644.432	8881.19
644.626	8692.77
644.819	8723.49
645.012	8819.75
645.205	8604.71
645.398	8793.12
645.591	8453.16
645.784	8602.66
645.977	8449.07
646.17	8545.32
646.363	8301.61
646.556	8264.75
646.749	8266.8
646.942	8225.84
647.135	8127.53
647.328	8289.32
647.521	8274.99
647.714	8043.57
647.907	8031.28
648.099	8006.7
648.292	8102.96
648.485	7943.22
648.678	7834.68
648.871	7812.15
649.064	7906.35
649.256	7941.17
649.449	7881.78
649.642	7629.88
649.835	7744.56
650.027	7676.98
650.22	7523.38
650.413	7558.2
650.605	7572.54
650.798	7490.62
650.991	7470.14
651.183	7248.96
651.376	7210.04
651.568	7345.21
651.761	7185.47
651.954	7377.98
652.146	7160.89
652.339	7328.83
652.531	7013.44
652.724	6980.67
652.916	6978.62
653.109	7048.26
653.301	6980.67
653.494	6964.29
653.686	6915.14
653.879	7007.3
654.071	6710.34
654.263	6806.59
654.456	6853.7
654.648	6853.7
654.84	6554.69
655.033	6745.16
655.225	6636.61
655.417	6601.8
655.61	6444.1
655.802	6591.56
655.994	6564.93
656.186	6442.06
656.379	6476.87
656.571	6431.82
656.763	6364.23
656.955	6241.36
657.148	6278.22
657.34	6386.76
657.532	6085.71
657.724	6128.72
657.916	6171.72
658.108	6220.88
658.3	6048.85
658.492	6163.53
658.684	5983.31
658.876	6036.56
659.068	5985.36
659.26	5930.06
659.452	6038.61
659.644	6077.52
659.836	5917.78
660.028	5784.66
660.22	5696.6
660.412	5811.28
660.604	5559.38
660.796	5788.75
660.988	5819.47
661.18	5731.41
661.372	5579.86
661.563	5655.64
661.755	5479.51
661.947	5647.44
662.139	5368.92
662.331	5502.04
662.522	5452.89
662.714	5366.87
662.906	5340.25
663.097	5373.02
663.289	5426.26
663.481	5430.36
663.673	5379.16
663.864	5225.56
664.056	5274.71
664.247	5078.11
664.439	5112.92
664.631	5182.56
664.822	5184.6
665.014	5160.03
665.205	5057.63
665.397	5078.11
665.588	5094.49
665.78	4969.57
665.971	5055.58
666.163	5014.62
666.354	4934.75
666.546	5020.77
666.737	4947.04
666.929	4865.12
667.12	4779.11
667.311	4920.42
667.503	4717.67
667.694	4738.15
667.885	4734.05
668.077	4760.67
668.268	4586.6
668.459	4689
668.651	4580.45
668.842	4707.43
669.033	4725.86
669.224	4459.62
669.416	4680.8
669.607	4570.21
669.798	4590.69
669.989	4459.62
670.18	4508.77
670.371	4529.25
670.563	4443.24
670.754	4570.21
670.945	4344.94
671.136	4463.72
671.327	4308.07
671.518	4463.72
671.709	4424.81
671.9	4365.42
672.091	4389.99
672.282	4412.52
672.473	4283.5
672.664	4299.88
672.855	4254.83
673.046	4217.96
673.237	4324.46
673.428	4326.5
673.619	4301.93
673.809	4242.54
674	4179.05
674.191	4299.88
674.382	4156.52
674.573	4105.32
674.764	4240.49
674.954	4004.97
675.145	4054.12
675.336	4027.5
675.527	4015.21
675.717	4199.53
675.908	3990.64
676.099	4031.6
676.289	4013.17
676.48	4004.97
676.671	3923.05
676.861	3906.67
677.052	3882.1
677.243	3869.81
677.433	4019.31
677.624	3824.75
677.814	3861.62
678.005	3873.9
678.195	3931.25
678.386	3849.33
678.576	3925.1
678.767	3900.53
678.957	3773.55
679.148	3955.82
679.338	3640.44
679.529	3765.36
679.719	3839.09
679.909	3853.42
680.1	3818.61
680.29	3730.55
680.481	3822.7
680.671	3785.84
680.861	3648.63
681.052	3615.86
681.242	3603.57
681.432	3673.2
681.622	3552.37
681.813	3599.48
682.003	3636.34
682.193	3587.19
682.383	3720.31
682.573	3712.11
682.764	3538.04
682.954	3636.34
683.144	3632.24
683.334	3675.25
683.524	3638.39
683.714	3415.16
683.904	3466.36
684.094	3521.65
684.284	3599.48
684.474	3579
684.664	3495.03
684.854	3402.87
685.044	3439.73
685.234	3345.53
685.424	3497.08
685.614	3509.37
685.804	3359.86
685.994	3533.94
686.184	3456.12
686.374	3333.24
686.564	3349.62
686.753	3226.75
686.943	3390.58
687.133	3402.87
687.323	3263.61
687.513	3325.05
687.702	3398.77
687.892	3335.29
688.082	3277.94
688.272	3335.29
688.461	3314.81
688.651	3310.71
688.841	3198.07
689.03	3241.08
689.22	3208.31
689.41	3310.71
689.599	3193.98
689.789	3202.17
689.979	3206.27
690.168	3077.24
690.358	3239.03
690.547	3058.81
690.737	3073.15
690.926	3079.29
691.116	2989.18
691.305	2956.41
691.495	2919.55
691.684	3181.69
691.874	3007.61
692.063	3030.14
692.252	2933.89
692.442	2901.12
692.631	2985.09
692.82	2874.49
693.01	2929.79
693.199	2907.26
693.388	2901.12
693.578	2841.73
693.767	2802.82
693.956	3001.47
694.146	2792.58
694.335	2880.64
694.524	2770.05
694.713	2866.3
694.902	2845.82
695.092	2854.02
695.281	2794.62
695.47	2759.81
695.659	2817.15
695.848	2759.81
696.037	2634.88
696.226	2710.66
696.415	2821.25
696.604	2716.8
696.793	2792.58
696.982	2727.04
697.171	2686.08
697.36	2706.56
697.549	2612.35
697.738	2663.55
697.927	2696.32
698.116	2657.41
698.305	2718.85
698.494	2647.17
698.683	2706.56
698.872	2724.99
699.061	2573.44
699.25	2595.97
699.438	2718.85
699.627	2630.79
699.816	2718.85
700.005	2649.22
700.193	2655.36
700.382	2595.97
700.571	2616.45
700.76	2643.07
700.948	2452.61
701.137	2628.74
701.326	2546.82
701.514	2759.81
701.703	2638.98
701.892	2552.96
702.08	2690.18
702.269	2417.8
702.457	2575.49
702.646	2540.68
702.834	2497.67
703.023	2614.4
703.212	2571.4
703.4	2485.38
703.589	2464.9
703.777	2469
703.965	2397.32
704.154	2452.61
704.342	2417.8
704.531	2444.42
704.719	2487.43
704.907	2481.28
705.096	2385.03
705.284	2544.77
705.472	2491.52
705.661	2493.57
705.849	2444.42
706.037	2460.81
706.226	2407.56
706.414	2512
706.602	2337.93
706.79	2491.52
706.979	2442.37
707.167	2497.67
707.355	2368.65
707.543	2454.66
707.731	2432.13
707.919	2430.09
708.107	2368.65
708.296	2473.09
708.484	2354.31
708.672	2401.41
708.86	2415.75
709.048	2399.37
709.236	2335.88
709.424	2419.85
709.612	2354.31
709.8	2313.35
709.988	2333.83
710.176	2325.64
710.364	2385.03
710.551	2391.17
710.739	2428.04
710.927	2432.13
711.115	2333.83
711.303	2301.06
711.491	2333.83
711.679	2395.27
711.866	2385.03
712.054	2362.5
712.242	2241.67
712.43	2368.65
712.617	2333.83
712.805	2348.17
712.993	2325.64
713.181	2198.67
713.368	2282.63
713.556	2391.17
713.744	2360.45
713.931	2350.21
714.119	2315.4
714.306	2307.21
714.494	2272.39
714.682	2284.68
714.869	2354.31
715.057	2208.9
715.244	2260.1
715.432	2229.38
715.619	2278.54
715.807	2376.84
715.994	2223.24
716.182	2313.35
716.369	2374.79
716.556	2235.53
716.744	2321.54
716.931	2292.87
717.119	2251.91
717.306	2249.86
717.493	2241.67
717.681	2313.35
717.868	2278.54
718.055	2278.54
718.242	2126.99
718.43	2133.13
718.617	2370.69
718.804	2258.06
718.991	2481.28
719.179	2290.82
719.366	2145.42
719.553	2282.63
719.74	2286.73
719.927	2278.54
720.114	2268.3
720.301	2284.68
720.488	2196.62
720.676	2215.05
720.863	2088.07
721.05	2249.86
721.237	2155.66
721.424	2258.06
721.611	2219.14
721.798	2180.23
721.985	2192.52
722.172	2243.72
722.358	2301.06
722.545	2256.01
722.732	2210.95
722.919	2237.58
723.106	2147.47
723.293	2223.24
723.48	2294.92
723.667	2272.39
723.853	2153.61
724.04	2233.48
724.227	2221.19
724.414	2178.19
724.6	2169.99
724.787	2178.19
724.974	2182.28
725.161	2176.14
725.347	2245.77
725.534	2178.19
725.72	2276.49
725.907	2253.96
726.094	2122.89
726.28	2145.42
726.467	2153.61
726.653	2096.27
726.84	2153.61
727.027	2204.81
727.213	2215.05
727.4	2139.27
727.586	2157.71
727.773	2223.24
727.959	2165.9
728.145	2249.86
728.332	2260.1
728.518	2196.62
728.705	2147.47
728.891	2110.6
729.077	2155.66
729.264	2079.88
729.45	2178.19
729.636	2253.96
729.823	2178.19
730.009	2169.99
730.195	2129.03
730.382	2294.92
730.568	2165.9
730.754	2159.75
730.94	2301.06
731.126	2030.73
731.313	2253.96
731.499	2114.7
731.685	2100.36
731.871	2192.52
732.057	2206.86
732.243	2196.62
732.429	2110.6
732.615	2110.6
732.801	2333.83
732.987	2129.03
733.173	2083.98
733.359	2161.8
733.545	2227.34
733.731	2036.88
733.917	2139.27
734.103	2286.73
734.289	2260.1
734.475	2122.89
734.661	2186.38
734.847	2022.54
735.033	2124.94
735.219	2215.05
735.404	2069.64
735.59	2088.07
735.776	2071.69
735.962	2120.84
736.148	2133.13
736.333	2122.89
736.519	2071.69
736.705	2147.47
736.89	2094.22
737.076	2081.93
737.262	1979.53
737.447	2055.31
737.633	2045.07
737.819	2153.61
738.004	2028.68
738.19	2188.43
738.375	2100.36
738.561	2133.13
738.747	2067.6
738.932	2014.35
739.118	2081.93
739.303	2049.16
739.489	2049.16
739.674	2178.19
739.859	1987.72
740.045	2036.88
740.23	2032.78
740.416	2010.25
740.601	2022.54
740.786	1957
740.972	1950.86
741.157	2038.92
741.342	1873.04
741.528	2006.16
741.713	1981.58
741.898	1897.61
742.084	1893.52
742.269	1911.95
742.454	1997.96
742.639	1907.85
742.824	1950.86
743.01	1889.42
743.195	1875.09
743.38	1895.57
743.565	2018.44
743.75	1887.37
743.935	1938.57
744.12	1899.66
744.305	1840.27
744.49	1907.85
744.675	1989.77
744.86	1825.93
745.045	1840.27
745.23	1813.65
745.415	1764.5
745.6	1770.64
745.785	1834.13
745.97	1778.83
746.155	1680.53
746.34	1877.13
746.525	1752.21
746.71	1735.82
746.895	1735.82
747.079	1727.63
747.264	1664.15
747.449	1731.73
747.634	1682.58
747.819	1797.26
748.003	1653.91
748.188	1752.21
748.373	1713.3
748.557	1776.78
748.742	1635.47
748.927	1647.76
749.111	1662.1
749.296	1547.41
749.481	1692.82
749.665	1653.91
749.85	1612.95
750.034	1541.27
750.219	1473.68
750.404	1559.7
750.588	1488.02
750.773	1383.57
750.957	1549.46
751.141	1500.31
751.326	1555.6
751.51	1418.39
751.695	1506.45
751.879	1567.89
752.064	1494.16
752.248	1457.3
752.432	1557.65
752.617	1457.3
752.801	1416.34
752.985	1426.58
753.17	1426.58
753.354	1465.49
753.538	1418.39
753.722	1449.11
753.907	1350.81
754.091	1324.18
754.275	1418.39
754.459	1305.75
754.643	1221.78
754.828	1309.85
755.012	1383.57
755.196	1303.7
755.38	1264.79
755.564	1309.85
755.748	1285.27
755.932	1328.28
756.116	1320.09
756.3	1318.04
756.484	1334.42
756.668	1260.7
756.852	1244.31
757.036	1078.43
757.22	1135.77
757.404	1152.15
757.588	1248.41
757.772	1215.64
757.956	1139.87
758.14	1113.24
758.323	1178.78
758.507	1148.06
758.691	1152.15
758.875	1137.82
759.059	1066.14
759.242	1023.13
759.426	1152.15
759.61	1047.71
759.794	1023.13
759.977	1090.71
760.161	1156.25
760.345	1025.18
760.528	1088.67
760.712	1162.39
760.895	1066.14
761.079	1068.19
761.263	1039.51
761.446	924.83
761.63	1082.52
761.813	992.41
761.997	1039.51
762.18	949.4
762.364	1088.67
762.547	1014.94
762.731	943.26
762.914	1033.37
763.098	990.36
763.281	951.45
763.464	988.32
763.648	904.35
763.831	943.26
764.015	902.3
764.198	1064.09
764.381	967.84
764.564	933.02
764.748	947.36
764.931	922.78
765.114	945.31
765.297	910.49
765.481	941.21
765.664	892.06
765.847	935.07
766.03	877.73
766.213	875.68
766.397	1029.27
766.58	801.95
766.763	955.55
766.946	908.44
767.129	836.77
767.312	924.83
767.495	869.53
767.678	877.73
767.861	842.91
768.044	885.92
768.227	810.14
768.41	834.72
768.593	859.29
768.776	904.35
768.959	836.77
769.142	851.1
769.324	859.29
769.507	883.87
769.69	867.49
769.873	777.37
770.056	859.29
770.239	748.7
770.421	838.81
770.604	697.5
770.787	789.66
770.97	785.57
771.152	687.26
771.335	756.9
771.518	879.77
771.7	855.2
771.883	779.42
772.066	746.66
772.248	769.18
772.431	703.65
772.613	666.78
772.796	826.53
772.978	844.96
773.161	804
773.343	679.07
773.526	746.66
773.708	728.22
773.891	808.09
774.073	683.17
774.256	619.68
774.438	687.26
774.621	687.26
774.803	670.88
774.985	662.69
775.168	703.65
775.35	640.16
775.532	672.93
775.715	642.21
775.897	662.69
776.079	646.3
776.261	638.11
776.444	625.83
776.626	631.97
776.808	720.03
776.99	689.31
777.173	613.54
777.355	648.35
777.537	580.77
777.719	646.3
777.901	615.59
778.083	588.96
778.265	529.57
778.447	588.96
778.629	623.78
778.811	513.19
778.993	550.05
779.175	638.11
779.357	588.96
779.539	539.81
779.721	527.52
779.903	535.71
780.085	511.14
780.267	634.02
780.449	515.23
780.631	519.33
780.812	556.19
780.994	476.32
781.176	509.09
781.358	435.36
781.54	527.52
781.721	500.9
781.903	572.58
782.085	552.1
782.267	543.91
782.448	351.4
782.63	476.32
782.812	498.85
782.993	564.39
783.175	451.75
783.357	457.89
783.538	408.74
783.72	455.84
783.901	502.95
784.083	500.9
784.264	408.74
784.446	355.49
784.627	455.84
784.809	459.94
784.99	484.52
785.172	449.7
785.353	363.69
785.535	482.47
785.716	435.36
785.897	408.74
786.079	408.74
786.26	392.36
786.441	478.37
786.623	312.49
786.804	326.82
786.985	375.97
787.167	423.08
787.348	335.01
787.529	386.21
787.71	353.45
787.891	349.35
788.073	375.97
788.254	357.54
788.435	353.45
788.616	412.84
788.797	310.44
788.978	361.64
789.159	306.34
789.34	289.96
789.522	375.97
789.703	318.63
789.884	335.01
790.065	314.53
790.246	388.26
790.427	271.53
790.607	349.35
790.788	367.78
790.969	359.59
791.15	310.44
791.331	326.82
791.512	328.87
791.693	351.4
791.874	312.49
792.054	380.07
792.235	281.77
792.416	335.01
792.597	275.62
792.778	310.44
792.958	347.3
793.139	296.1
793.32	326.82
793.5	343.21
793.681	367.78
793.862	287.91
794.042	343.21
794.223	205.99
794.404	277.67
794.584	285.86
794.765	261.29
794.945	345.25
795.126	326.82
795.306	320.68
795.487	285.86
795.667	294.05
795.848	351.4
796.028	271.53
796.209	259.24
796.389	271.53
796.57	320.68
796.75	251.05
796.93	263.33
797.111	199.85
797.291	287.91
797.471	285.86
797.652	238.76
797.832	263.33
798.012	193.7
798.192	205.99
798.373	195.75
798.553	222.38
798.733	261.29
798.913	232.62
799.093	261.29
799.274	257.19
799.454	242.85
799.634	271.53
799.814	246.95
799.994	205.99
800.174	308.39
800.354	281.77
800.534	208.04
800.714	203.94
800.894	187.56
801.074	224.42
801.254	191.66
801.434	203.94
801.614	263.33
801.794	249
801.974	773.28
802.154	156.84
802.334	210.09
802.514	240.81
802.693	281.77
802.873	189.61
803.053	244.9
803.233	289.96
803.413	212.14
803.592	222.38
803.772	220.33
803.952	228.52
804.131	156.84
804.311	191.66
804.491	261.29
804.67	183.46
804.85	160.94
805.03	175.27
805.209	232.62
805.389	222.38
805.568	228.52
805.748	208.04
805.928	173.22
806.107	173.22
806.287	162.98
806.466	187.56
806.646	191.66
806.825	205.99
807.004	199.85
807.184	216.23
807.363	228.52
807.543	183.46
807.722	64.68
807.901	150.7
808.081	177.32
808.26	138.41
808.439	138.41
808.619	230.57
808.798	169.13
808.977	158.89
809.156	122.02
809.336	167.08
809.515	132.26
809.694	205.99
809.873	162.98
810.052	197.8
810.231	119.98
810.411	160.94
810.59	150.7
810.769	185.51
810.948	150.7
811.127	203.94
811.306	162.98
811.485	193.7
811.664	169.13
811.843	199.85
812.022	146.6
812.201	152.74
812.38	271.53
812.559	113.83
812.737	173.22
812.916	142.5
813.095	138.41
813.274	160.94
813.453	195.75
813.632	220.33
813.811	179.37
813.989	46.25
814.168	154.79
814.347	132.26
814.526	140.46
814.704	162.98
814.883	187.56
815.062	132.26
815.24	234.66
815.419	101.55
815.598	162.98
815.776	99.5
815.955	197.8
816.133	81.07
816.312	105.64
816.49	158.89
816.669	58.54
816.847	105.64
817.026	148.65
817.204	152.74
817.383	142.5
817.561	93.35
817.74	134.31
817.918	128.17
818.097	113.83
818.275	72.87
818.453	138.41
818.632	85.16
818.81	64.68
818.988	97.45
819.167	113.83
819.345	85.16
819.523	142.5
819.701	130.22
819.879	128.17
820.058	134.31
820.236	115.88
820.414	91.31
820.592	138.41
820.77	109.74
820.948	124.07
821.127	66.73
821.305	122.02
821.483	216.23
821.661	89.26
821.839	158.89
822.017	122.02
822.195	101.55
822.373	72.87
822.551	171.18
822.729	167.08
822.907	107.69
823.085	140.46
823.262	83.11
823.44	115.88
823.618	83.11
823.796	101.55
823.974	101.55
824.152	60.59
824.329	105.64
824.507	109.74
824.685	175.27
824.863	130.22
825.04	74.92
825.218	101.55
825.396	173.22
825.574	3.24
825.751	117.93
825.929	122.02
826.107	64.68
826.284	144.55
826.462	89.26
826.639	134.31
826.817	38.06
826.994	111.78
827.172	40.11
827.349	142.5
827.527	111.78
827.704	87.21
827.882	119.98
828.059	33.96
828.237	56.49
828.414	117.93
828.591	15.53
828.769	189.61
828.946	-9.05
829.124	150.7
829.301	119.98
829.478	83.11
829.655	117.93
829.833	48.3
830.01	19.63
830.187	142.5
830.364	97.45
830.542	72.87
830.719	68.78
830.896	89.26
831.073	113.83
831.25	72.87
831.427	109.74
831.604	64.68
831.782	36.01
831.959	48.3
832.136	60.59
832.313	105.64
832.49	81.07
832.667	56.49
832.844	64.68
833.021	95.4
833.198	52.39
833.374	122.02
833.551	40.11
833.728	97.45
833.905	81.07
834.082	9.39
834.259	62.63
834.436	130.22
834.612	3.24
834.789	109.74
834.966	74.92
835.143	56.49
835.319	101.55
835.496	124.07
835.673	68.78
835.85	44.2
836.026	27.82
836.203	115.88
836.38	58.54
836.556	60.59
836.733	52.39
836.909	95.4
837.086	40.11
837.262	27.82
837.439	48.3
837.616	115.88
837.792	27.82
837.968	40.11
838.145	-7
838.321	62.63
838.498	99.5
838.674	36.01
838.851	87.21
839.027	42.15
839.203	50.35
839.38	76.97
839.556	15.53
839.732	-9.05
839.909	3.24
840.085	56.49
840.261	72.87
840.437	97.45
840.614	97.45
840.79	31.91
840.966	-45.91
841.142	48.3
841.318	-21.33
841.494	64.68
841.671	66.73
841.847	91.31
842.023	83.11
842.199	15.53
842.375	50.35
842.551	-0.85
842.727	33.96
842.903	72.87
843.079	89.26
843.255	93.35
843.431	23.72
843.607	91.31
843.783	15.53
843.959	101.55
844.134	58.54
844.31	70.83
844.486	23.72
844.662	97.45
844.838	76.97
845.013	25.77
845.189	31.91
845.365	50.35
845.541	-0.85
845.716	83.11
845.892	107.69
846.068	9.39
846.244	23.72
846.419	79.02
846.595	40.11
846.77	31.91
846.946	64.68
847.122	17.58
847.297	103.59
847.473	109.74
847.648	64.68
847.824	40.11
847.999	54.44
848.175	50.35
848.35	31.91
848.526	142.5
848.701	-0.85
848.876	76.97
849.052	29.87
849.227	36.01
849.403	89.26
849.578	89.26
849.753	-23.38
849.929	146.6
850.104	19.63
850.279	48.3
850.454	11.43
850.63	132.26
850.805	-50
850.98	50.35
851.155	7.34
851.33	-7
851.505	5.29
851.681	105.64
851.856	54.44
852.031	56.49
852.206	36.01
852.381	21.67
852.556	31.91
852.731	33.96
852.906	101.55
853.081	-23.38
853.256	85.16
853.431	48.3
853.606	19.63
853.781	42.15
853.956	40.11
854.131	31.91
854.305	52.39
854.48	95.4
854.655	101.55
854.83	-31.57
855.005	66.73
855.18	81.07
855.354	7.34
855.529	83.11
855.704	9.39
855.879	97.45
856.053	85.16
856.228	50.35
856.403	-9.05
856.577	60.59
856.752	56.49
856.926	48.3
857.101	89.26
857.276	-39.76
857.45	52.39
857.625	126.12
857.799	42.15
857.974	138.41
858.148	-72.53
858.323	-17.24
858.497	-4.95
858.672	42.15
858.846	-13.14
859.02	52.39
859.195	7.34
859.369	101.55
859.543	40.11
859.718	17.58
859.892	68.78
860.066	42.15
860.241	-0.85
860.415	-9.05
860.589	46.25
860.763	50.35
860.938	15.53
861.112	48.3
861.286	11.43
861.46	68.78
861.634	-0.85
861.808	38.06
861.982	36.01
862.157	1.19
862.331	74.92
862.505	58.54
862.679	9.39
862.853	89.26
863.027	31.91
863.201	60.59
863.375	-9.05
863.549	48.3
863.722	48.3
863.896	76.97
864.07	72.87
864.244	105.64
864.418	72.87
864.592	134.31
864.766	23.72
864.939	48.3
865.113	5.29
865.287	7.34
865.461	23.72
865.634	66.73
865.808	68.78
865.982	-45.91
866.156	60.59
866.329	-13.14
866.503	36.01
866.676	146.6
866.85	-15.19
867.024	66.73
867.197	-31.57
867.371	-13.14
867.544	-0.85
867.718	54.44
867.891	36.01
868.065	56.49
868.238	-2.9
868.412	68.78
868.585	21.67
868.759	25.77
868.932	44.2
869.105	-15.19
869.279	-25.43
869.452	23.72
869.625	42.15
869.799	3.24
869.972	25.77
870.145	7.34
870.319	117.93
870.492	64.68
870.665	21.67
870.838	11.43
871.011	33.96
871.185	93.35
871.358	-7
871.531	81.07
871.704	-9.05
871.877	-11.09
872.05	1.19
872.223	11.43
872.396	-9.05
872.569	3.24
872.742	-29.52
872.915	-47.96
873.088	-9.05
873.261	-27.48
873.434	56.49
873.607	81.07
873.78	81.07
873.953	1.19
874.126	89.26
874.299	38.06
874.471	72.87
874.644	19.63
874.817	58.54
874.99	60.59
875.163	72.87
875.335	48.3
875.508	7.34
875.681	33.96
875.853	-56.15
876.026	42.15
876.199	-31.57
876.371	42.15
876.544	58.54
876.717	-23.38
876.889	-72.53
877.062	36.01
877.234	15.53
877.407	11.43
877.579	-50
877.752	46.25
877.924	83.11
878.097	29.87
878.269	60.59
878.442	-0.85
878.614	58.54
878.786	52.39
878.959	54.44
879.131	40.11
879.303	-47.96
879.476	-0.85
879.648	-86.87
879.82	42.15
879.993	19.63
880.165	56.49
880.337	-74.58
880.509	21.67
880.681	19.63
880.854	56.49
881.026	48.3
881.198	64.68
881.37	60.59
881.542	81.07
881.714	17.58
881.886	-33.62
882.058	74.92
882.23	-43.86
882.402	48.3
882.574	-9.05
882.746	72.87
882.918	23.72
883.09	52.39
883.262	36.01
883.434	1.19
883.606	15.53
883.778	1.19
883.95	89.26
884.122	7.34
884.293	72.87
884.465	48.3
884.637	-17.24
884.809	-41.81
884.98	54.44
885.152	21.67
885.324	40.11
885.496	-13.14
885.667	44.2
885.839	-2.9
886.011	81.07
886.182	97.45
886.354	-25.43
886.525	17.58
886.697	72.87
886.869	31.91
887.04	-64.34
887.212	-23.38
887.383	89.26
887.555	-0.85
887.726	48.3
887.897	70.83
888.069	5.29
888.24	15.53
888.412	60.59
888.583	-13.14
888.754	-7
888.926	-70.48
889.097	13.48
889.268	27.82
889.44	56.49
889.611	3.24
889.782	-17.24
889.953	-33.62
890.125	54.44
890.296	31.91
890.467	52.39
890.638	56.49
890.809	9.39
890.98	15.53
891.151	74.92
891.323	56.49
891.494	-99.16
891.665	-37.72
891.836	19.63
892.007	11.43
892.178	64.68
892.349	23.72
892.52	-15.19
892.691	42.15
892.862	-82.77
893.032	11.43
893.203	36.01
893.374	-25.43
893.545	-9.05
893.716	-13.14
893.887	107.69
894.057	9.39
894.228	17.58
894.399	-43.86
894.57	54.44
894.74	-0.85
894.911	-4.95
895.082	3.24
895.253	31.91
895.423	15.53
895.594	46.25
895.764	81.07
895.935	-7
896.106	40.11
896.276	29.87
896.447	-7
896.617	-15.19
896.788	-23.38
896.958	74.92
897.129	-11.09
897.299	19.63
897.47	56.49
897.64	40.11
897.81	40.11
897.981	72.87
898.151	-25.43
898.322	38.06
898.492	7.34
898.662	-25.43
898.832	-33.62
899.003	42.15
899.173	46.25
899.343	56.49
899.513	7.34
