Data from USB4F104151__261__14-22-45-978.txt Node

Date: Thu Mar 13 14:22:45 EDT 2025
User: louis
Spectrometer: USB4F10415
Trigger mode: 4
Integration Time (sec): 2.000000E-2
Scans to average: 1
Electric dark correction enabled: true
Nonlinearity correction enabled: false
Boxcar width: 0
XAxis mode: Wavelengths
Number of Pixels in Spectrum: 3648
>>>>>Begin Spectral Data<<<<<
178.204	-50
178.424	-50
178.644	-50
178.864	-50
179.084	-82.77
179.304	-17.24
179.524	15.53
179.744	36.01
179.964	-13.14
180.184	52.39
180.404	-17.24
180.624	-33.62
180.844	15.53
181.064	-4.95
181.283	-29.52
181.503	-29.52
181.723	25.77
181.943	-13.14
182.163	93.35
182.383	19.63
182.602	107.69
182.822	44.2
183.042	54.44
183.262	62.63
183.482	122.02
183.701	9.39
183.921	99.5
184.141	-23.38
184.361	81.07
184.58	68.78
184.8	42.15
185.02	27.82
185.239	-9.05
185.459	31.91
185.679	27.82
185.898	19.63
186.118	62.63
186.338	46.25
186.557	23.72
186.777	-2.9
186.997	44.2
187.216	60.59
187.436	105.64
187.655	33.96
187.875	42.15
188.095	56.49
188.314	72.87
188.534	165.03
188.753	83.11
188.973	48.3
189.192	44.2
189.412	27.82
189.631	64.68
189.851	-17.24
190.07	113.83
190.29	17.58
190.509	27.82
190.729	85.16
190.948	33.96
191.168	122.02
191.387	64.68
191.607	1.19
191.826	-25.43
192.045	56.49
192.265	7.34
192.484	-54.1
192.704	33.96
192.923	-25.43
193.142	50.35
193.362	-7
193.581	40.11
193.8	11.43
194.02	117.93
194.239	76.97
194.458	50.35
194.678	83.11
194.897	81.07
195.116	21.67
195.335	87.21
195.555	91.31
195.774	140.46
195.993	103.59
196.212	33.96
196.432	31.91
196.651	17.58
196.87	-17.24
197.089	19.63
197.308	50.35
197.528	17.58
197.747	-7
197.966	76.97
198.185	15.53
198.404	31.91
198.623	-15.19
198.842	107.69
199.062	76.97
199.281	-21.33
199.5	-13.14
199.719	38.06
199.938	68.78
200.157	23.72
200.376	5.29
200.595	126.12
200.814	74.92
201.033	40.11
201.252	142.5
201.471	33.96
201.69	52.39
201.909	40.11
202.128	50.35
202.347	89.26
202.566	62.63
202.785	-27.48
203.004	5.29
203.223	74.92
203.442	134.31
203.661	40.11
203.879	81.07
204.098	3.24
204.317	15.53
204.536	68.78
204.755	70.83
204.974	140.46
205.193	36.01
205.411	79.02
205.63	58.54
205.849	72.87
206.068	31.91
206.287	42.15
206.505	48.3
206.724	79.02
206.943	42.15
207.162	74.92
207.381	99.5
207.599	-74.58
207.818	-0.85
208.037	79.02
208.255	15.53
208.474	107.69
208.693	15.53
208.911	15.53
209.13	-21.33
209.349	17.58
209.567	48.3
209.786	31.91
210.005	109.74
210.223	74.92
210.442	29.87
210.661	89.26
210.879	11.43
211.098	72.87
211.316	42.15
211.535	7.34
211.753	48.3
211.972	146.6
212.191	56.49
212.409	23.72
212.628	64.68
212.846	-15.19
213.065	119.98
213.283	109.74
213.502	60.59
213.72	56.49
213.938	52.39
214.157	81.07
214.375	13.48
214.594	15.53
214.812	36.01
215.031	95.4
215.249	33.96
215.467	29.87
215.686	60.59
215.904	89.26
216.122	60.59
216.341	119.98
216.559	68.78
216.778	79.02
216.996	115.88
217.214	40.11
217.432	1.19
217.651	1.19
217.869	17.58
218.087	44.2
218.306	7.34
218.524	76.97
218.742	50.35
218.96	58.54
219.179	33.96
219.397	126.12
219.615	105.64
219.833	83.11
220.051	1.19
220.27	60.59
220.488	7.34
220.706	36.01
220.924	74.92
221.142	107.69
221.36	56.49
221.578	101.55
221.796	50.35
222.015	58.54
222.233	54.44
222.451	-27.48
222.669	46.25
222.887	124.07
223.105	-9.05
223.323	31.91
223.541	48.3
223.759	52.39
223.977	97.45
224.195	54.44
224.413	-21.33
224.631	130.22
224.849	105.64
225.067	146.6
225.285	1.19
225.503	7.34
225.721	-35.67
225.939	-11.09
226.157	31.91
226.375	64.68
226.592	70.83
226.81	44.2
227.028	3.24
227.246	97.45
227.464	60.59
227.682	83.11
227.9	68.78
228.117	64.68
228.335	76.97
228.553	124.07
228.771	19.63
228.989	58.54
229.206	81.07
229.424	83.11
229.642	7.34
229.86	46.25
230.077	81.07
230.295	11.43
230.513	117.93
230.731	23.72
230.948	81.07
231.166	93.35
231.384	48.3
231.601	91.31
231.819	62.63
232.037	23.72
232.254	15.53
232.472	15.53
232.689	15.53
232.907	50.35
233.125	36.01
233.342	146.6
233.56	-7
233.777	99.5
233.995	13.48
234.213	175.27
234.43	-4.95
234.648	15.53
234.865	21.67
235.083	64.68
235.3	66.73
235.518	11.43
235.735	62.63
235.953	113.83
236.17	48.3
236.388	13.48
236.605	-9.05
236.822	44.2
237.04	31.91
237.257	29.87
237.475	9.39
237.692	105.64
237.909	95.4
238.127	91.31
238.344	40.11
238.562	93.35
238.779	-64.34
238.996	-0.85
239.214	15.53
239.431	148.65
239.648	42.15
239.865	103.59
240.083	7.34
240.3	42.15
240.517	-31.57
240.735	40.11
240.952	68.78
241.169	117.93
241.386	33.96
241.603	68.78
241.821	-37.72
242.038	76.97
242.255	48.3
242.472	25.77
242.689	7.34
242.907	109.74
243.124	56.49
243.341	36.01
243.558	-45.91
243.775	48.3
243.992	17.58
244.209	81.07
244.426	15.53
244.643	33.96
244.86	-25.43
245.078	72.87
245.295	-25.43
245.512	91.31
245.729	25.77
245.946	33.96
246.163	56.49
246.38	17.58
246.597	33.96
246.814	50.35
247.031	46.25
247.248	15.53
247.464	9.39
247.681	64.68
247.898	101.55
248.115	13.48
248.332	54.44
248.549	56.49
248.766	115.88
248.983	109.74
249.2	85.16
249.417	119.98
249.633	-11.09
249.85	97.45
250.067	15.53
250.284	89.26
250.501	76.97
250.717	68.78
250.934	11.43
251.151	56.49
251.368	-17.24
251.585	81.07
251.801	115.88
252.018	79.02
252.235	52.39
252.451	-27.48
252.668	81.07
252.885	27.82
253.102	-15.19
253.318	7.34
253.535	74.92
253.752	7.34
253.968	9.39
254.185	9.39
254.401	-13.14
254.618	40.11
254.835	70.83
255.051	122.02
255.268	13.48
255.484	17.58
255.701	46.25
255.917	44.2
256.134	-4.95
256.351	56.49
256.567	25.77
256.784	83.11
257	-2.9
257.217	83.11
257.433	11.43
257.65	76.97
257.866	56.49
258.082	33.96
258.299	29.87
258.515	85.16
258.732	-17.24
258.948	72.87
259.165	-11.09
259.381	-0.85
259.597	148.65
259.814	76.97
260.03	27.82
260.246	56.49
260.463	56.49
260.679	46.25
260.895	23.72
261.112	56.49
261.328	9.39
261.544	44.2
261.761	66.73
261.977	21.67
262.193	-15.19
262.409	42.15
262.626	89.26
262.842	15.53
263.058	48.3
263.274	74.92
263.49	38.06
263.707	25.77
263.923	31.91
264.139	56.49
264.355	76.97
264.571	44.2
264.787	31.91
265.004	81.07
265.22	19.63
265.436	33.96
265.652	42.15
265.868	93.35
266.084	-66.39
266.3	23.72
266.516	27.82
266.732	81.07
266.948	40.11
267.164	-17.24
267.38	40.11
267.596	23.72
267.812	113.83
268.028	1.19
268.244	109.74
268.46	68.78
268.676	70.83
268.892	17.58
269.108	72.87
269.324	-4.95
269.54	50.35
269.756	64.68
269.972	58.54
270.188	113.83
270.403	29.87
270.619	-31.57
270.835	105.64
271.051	72.87
271.267	40.11
271.483	-25.43
271.698	31.91
271.914	40.11
272.13	58.54
272.346	105.64
272.562	23.72
272.777	89.26
272.993	54.44
273.209	38.06
273.425	44.2
273.64	31.91
273.856	31.91
274.072	23.72
274.287	93.35
274.503	150.7
274.719	66.73
274.934	68.78
275.15	81.07
275.366	113.83
275.581	7.34
275.797	9.39
276.012	68.78
276.228	44.2
276.444	33.96
276.659	7.34
276.875	-31.57
277.09	113.83
277.306	56.49
277.521	3.24
277.737	-2.9
277.952	48.3
278.168	40.11
278.383	40.11
278.599	-21.33
278.814	93.35
279.03	33.96
279.245	93.35
279.461	64.68
279.676	-17.24
279.892	99.5
280.107	-23.38
280.322	31.91
280.538	60.59
280.753	11.43
280.969	91.31
281.184	19.63
281.399	99.5
281.615	64.68
281.83	60.59
282.045	31.91
282.26	23.72
282.476	38.06
282.691	130.22
282.906	-7
283.122	89.26
283.337	64.68
283.552	3.24
283.767	64.68
283.983	50.35
284.198	85.16
284.413	76.97
284.628	-31.57
284.843	89.26
285.058	64.68
285.274	5.29
285.489	13.48
285.704	15.53
285.919	-7
286.134	-29.52
286.349	44.2
286.564	60.59
286.779	33.96
286.995	52.39
287.21	19.63
287.425	62.63
287.64	-35.67
287.855	56.49
288.07	-39.76
288.285	52.39
288.5	122.02
288.715	105.64
288.93	48.3
289.145	23.72
289.36	40.11
289.575	-0.85
289.79	81.07
290.004	81.07
290.219	50.35
290.434	-9.05
290.649	44.2
290.864	79.02
291.079	-17.24
291.294	89.26
291.509	93.35
291.724	-23.38
291.938	38.06
292.153	44.2
292.368	64.68
292.583	66.73
292.798	-0.85
293.012	-37.72
293.227	27.82
293.442	44.2
293.657	136.36
293.871	81.07
294.086	38.06
294.301	89.26
294.516	44.2
294.73	87.21
294.945	50.35
295.16	70.83
295.374	40.11
295.589	89.26
295.804	40.11
296.018	33.96
296.233	52.39
296.447	113.83
296.662	23.72
296.877	25.77
297.091	1.19
297.306	72.87
297.52	72.87
297.735	58.54
297.949	23.72
298.164	81.07
298.378	7.34
298.593	97.45
298.807	31.91
299.022	72.87
299.236	-2.9
299.451	-29.52
299.665	89.26
299.88	44.2
300.094	44.2
300.309	81.07
300.523	46.25
300.737	60.59
300.952	70.83
301.166	50.35
301.381	-15.19
301.595	7.34
301.809	64.68
302.024	29.87
302.238	93.35
302.452	33.96
302.667	23.72
302.881	81.07
303.095	48.3
303.309	33.96
303.524	40.11
303.738	23.72
303.952	68.78
304.166	52.39
304.381	11.43
304.595	113.83
304.809	15.53
305.023	74.92
305.237	15.53
305.452	101.55
305.666	72.87
305.88	50.35
306.094	17.58
306.308	62.63
306.522	23.72
306.736	124.07
306.95	79.02
307.164	9.39
307.379	-35.67
307.593	79.02
307.807	42.15
308.021	83.11
308.235	66.73
308.449	48.3
308.663	15.53
308.877	101.55
309.091	46.25
309.305	113.83
309.519	-31.57
309.733	48.3
309.947	72.87
310.161	-41.81
310.374	33.96
310.588	99.5
310.802	70.83
311.016	54.44
311.23	62.63
311.444	52.39
311.658	48.3
311.872	81.07
312.085	33.96
312.299	54.44
312.513	15.53
312.727	25.77
312.941	62.63
313.154	64.68
313.368	21.67
313.582	33.96
313.796	87.21
314.009	-11.09
314.223	74.92
314.437	11.43
314.651	7.34
314.864	5.29
315.078	101.55
315.292	7.34
315.505	64.68
315.719	3.24
315.933	105.64
316.146	89.26
316.36	87.21
316.573	83.11
316.787	38.06
317.001	58.54
317.214	40.11
317.428	23.72
317.641	15.53
317.855	44.2
318.068	74.92
318.282	31.91
318.495	122.02
318.709	-0.85
318.922	-25.43
319.136	64.68
319.349	21.67
319.563	113.83
319.776	85.16
319.99	66.73
320.203	101.55
320.417	85.16
320.63	11.43
320.843	76.97
321.057	72.87
321.27	-33.62
321.483	99.5
321.697	91.31
321.91	83.11
322.124	64.68
322.337	38.06
322.55	-45.91
322.763	99.5
322.977	74.92
323.19	109.74
323.403	27.82
323.617	62.63
323.83	138.41
324.043	97.45
324.256	27.82
324.469	23.72
324.683	40.11
324.896	105.64
325.109	7.34
325.322	-7
325.535	72.87
325.748	85.16
325.962	66.73
326.175	105.64
326.388	124.07
326.601	124.07
326.814	31.91
327.027	11.43
327.24	52.39
327.453	-21.33
327.666	99.5
327.879	40.11
328.092	23.72
328.305	3.24
328.518	31.91
328.731	-13.14
328.944	48.3
329.157	101.55
329.37	17.58
329.583	72.87
329.796	95.4
330.009	40.11
330.222	66.73
330.435	66.73
330.648	72.87
330.861	15.53
331.073	83.11
331.286	68.78
331.499	27.82
331.712	62.63
331.925	44.2
332.138	126.12
332.35	83.11
332.563	5.29
332.776	103.59
332.989	60.59
333.202	48.3
333.414	99.5
333.627	68.78
333.84	83.11
334.053	76.97
334.265	1.19
334.478	13.48
334.691	1.19
334.903	33.96
335.116	15.53
335.329	33.96
335.541	52.39
335.754	40.11
335.966	-25.43
336.179	66.73
336.392	68.78
336.604	81.07
336.817	60.59
337.029	64.68
337.242	-7
337.454	56.49
337.667	42.15
337.88	56.49
338.092	23.72
338.305	21.67
338.517	25.77
338.729	64.68
338.942	31.91
339.154	74.92
339.367	50.35
339.579	115.88
339.792	23.72
340.004	103.59
340.217	27.82
340.429	109.74
340.641	3.24
340.854	17.58
341.066	74.92
341.278	113.83
341.491	85.16
341.703	60.59
341.915	105.64
342.128	31.91
342.34	9.39
342.552	-19.29
342.764	58.54
342.977	-4.95
343.189	15.53
343.401	103.59
343.613	58.54
343.826	50.35
344.038	-15.19
344.25	72.87
344.462	48.3
344.674	29.87
344.886	44.2
345.099	76.97
345.311	33.96
345.523	-15.19
345.735	-4.95
345.947	64.68
346.159	107.69
346.371	1.19
346.583	-15.19
346.795	74.92
347.007	15.53
347.219	99.5
347.431	-0.85
347.643	64.68
347.855	19.63
348.067	89.26
348.279	56.49
348.491	132.26
348.703	52.39
348.915	66.73
349.127	91.31
349.339	44.2
349.551	56.49
349.763	60.59
349.975	-33.62
350.187	74.92
350.399	83.11
350.61	3.24
350.822	97.45
351.034	169.13
351.246	-0.85
351.458	-0.85
351.669	33.96
351.881	97.45
352.093	99.5
352.305	64.68
352.517	81.07
352.728	70.83
352.94	52.39
353.152	64.68
353.363	58.54
353.575	122.02
353.787	-0.85
353.999	95.4
354.21	74.92
354.422	76.97
354.633	44.2
354.845	-52.05
355.057	64.68
355.268	11.43
355.48	109.74
355.692	-13.14
355.903	81.07
356.115	11.43
356.326	-17.24
356.538	54.44
356.749	115.88
356.961	105.64
357.172	-7
357.384	9.39
357.595	70.83
357.807	62.63
358.018	40.11
358.23	81.07
358.441	89.26
358.653	48.3
358.864	5.29
359.075	83.11
359.287	42.15
359.498	44.2
359.709	89.26
359.921	64.68
360.132	62.63
360.344	130.22
360.555	27.82
360.766	46.25
360.977	7.34
361.189	99.5
361.4	33.96
361.611	42.15
361.823	70.83
362.034	74.92
362.245	58.54
362.456	48.3
362.667	58.54
362.879	9.39
363.09	19.63
363.301	128.17
363.512	148.65
363.723	-13.14
363.935	56.49
364.146	130.22
364.357	7.34
364.568	109.74
364.779	-27.48
364.99	134.31
365.201	50.35
365.412	105.64
365.623	44.2
365.834	93.35
366.045	72.87
366.256	68.78
366.467	109.74
366.678	31.91
366.889	17.58
367.1	50.35
367.311	85.16
367.522	7.34
367.733	48.3
367.944	81.07
368.155	11.43
368.366	111.78
368.577	40.11
368.788	66.73
368.999	27.82
369.209	46.25
369.42	74.92
369.631	60.59
369.842	97.45
370.053	31.91
370.264	95.4
370.474	-15.19
370.685	33.96
370.896	89.26
371.107	23.72
371.317	40.11
371.528	64.68
371.739	105.64
371.95	50.35
372.16	117.93
372.371	95.4
372.582	-9.05
372.792	3.24
373.003	7.34
373.214	107.69
373.424	40.11
373.635	19.63
373.846	89.26
374.056	44.2
374.267	105.64
374.477	42.15
374.688	31.91
374.898	64.68
375.109	83.11
375.319	89.26
375.53	46.25
375.74	40.11
375.951	36.01
376.161	19.63
376.372	93.35
376.582	74.92
376.793	48.3
377.003	-9.05
377.214	81.07
377.424	97.45
377.635	17.58
377.845	15.53
378.055	113.83
378.266	31.91
378.476	31.91
378.686	64.68
378.897	68.78
379.107	64.68
379.317	27.82
379.528	89.26
379.738	81.07
379.948	11.43
380.158	115.88
380.369	97.45
380.579	97.45
380.789	48.3
380.999	74.92
381.21	15.53
381.42	136.36
381.63	64.68
381.84	56.49
382.05	48.3
382.261	109.74
382.471	9.39
382.681	99.5
382.891	64.68
383.101	95.4
383.311	60.59
383.521	111.78
383.731	64.68
383.941	130.22
384.151	7.34
384.361	105.64
384.571	64.68
384.781	95.4
384.991	144.55
385.201	122.02
385.411	-23.38
385.621	89.26
385.831	81.07
386.041	83.11
386.251	85.16
386.461	93.35
386.671	56.49
386.881	23.72
387.091	64.68
387.301	74.92
387.511	40.11
387.72	56.49
387.93	130.22
388.14	48.3
388.35	23.72
388.56	54.44
388.769	83.11
388.979	64.68
389.189	48.3
389.399	79.02
389.609	27.82
389.818	64.68
390.028	-9.05
390.238	62.63
390.447	52.39
390.657	68.78
390.867	72.87
391.076	5.29
391.286	97.45
391.496	64.68
391.705	64.68
391.915	99.5
392.125	70.83
392.334	23.72
392.544	72.87
392.753	72.87
392.963	44.2
393.172	99.5
393.382	81.07
393.591	81.07
393.801	122.02
394.01	91.31
394.22	19.63
394.429	109.74
394.639	64.68
394.848	119.98
395.058	72.87
395.267	31.91
395.477	97.45
395.686	42.15
395.895	150.7
396.105	140.46
396.314	44.2
396.524	44.2
396.733	74.92
396.942	138.41
397.152	130.22
397.361	93.35
397.57	60.59
397.78	97.45
397.989	97.45
398.198	93.35
398.407	72.87
398.617	101.55
398.826	105.64
399.035	56.49
399.244	122.02
399.453	122.02
399.663	107.69
399.872	138.41
400.081	74.92
400.29	189.61
400.499	17.58
400.708	146.6
400.917	76.97
401.127	130.22
401.336	91.31
401.545	162.98
401.754	126.12
401.963	97.45
402.172	85.16
402.381	54.44
402.59	76.97
402.799	52.39
403.008	197.8
403.217	132.26
403.426	66.73
403.635	124.07
403.844	105.64
404.053	52.39
404.262	68.78
404.471	97.45
404.68	124.07
404.888	83.11
405.097	105.64
405.306	74.92
405.515	85.16
405.724	113.83
405.933	130.22
406.142	107.69
406.35	138.41
406.559	144.55
406.768	130.22
406.977	142.5
407.185	224.42
407.394	165.03
407.603	115.88
407.812	109.74
408.02	52.39
408.229	154.79
408.438	185.51
408.646	181.42
408.855	214.18
409.064	138.41
409.272	183.46
409.481	146.6
409.69	89.26
409.898	232.62
410.107	238.76
410.315	212.14
410.524	140.46
410.733	261.29
410.941	232.62
411.15	257.19
411.358	294.05
411.567	269.48
411.775	167.08
411.984	294.05
412.192	314.53
412.401	261.29
412.609	294.05
412.818	320.68
413.026	396.45
413.234	267.43
413.443	230.57
413.651	345.25
413.86	416.93
414.068	320.68
414.276	408.74
414.485	365.73
414.693	363.69
414.901	425.12
415.11	431.27
415.318	373.92
415.526	425.12
415.734	515.23
415.943	523.43
416.151	457.89
416.359	478.37
416.567	539.81
416.776	539.81
416.984	517.28
417.192	537.76
417.4	597.15
417.608	599.2
417.817	654.5
418.025	531.62
418.233	760.99
418.441	607.39
418.649	711.84
418.857	720.03
419.065	779.42
419.273	732.32
419.481	787.61
419.689	812.19
419.897	973.98
420.105	830.62
420.313	877.73
420.521	916.64
420.729	855.2
420.937	1002.65
421.145	973.98
421.353	982.17
421.561	1047.71
421.769	1100.95
421.977	1098.91
422.185	1146.01
422.393	1215.64
422.601	1250.46
422.809	1285.27
423.017	1252.5
423.224	1391.77
423.432	1361.05
423.64	1344.66
423.848	1481.88
424.056	1490.07
424.263	1623.19
424.471	1647.76
424.679	1719.44
424.887	1703.06
425.094	1711.25
425.302	1721.49
425.51	1688.72
425.718	1866.89
425.925	1891.47
426.133	2000.01
426.341	1920.14
426.548	2131.08
426.756	2032.78
426.964	2145.42
427.171	2194.57
427.379	2391.17
427.586	2397.32
427.794	2473.09
428.001	2546.82
428.209	2604.16
428.417	2579.59
428.624	2802.82
428.832	2858.11
429.039	2694.27
429.247	2751.62
429.454	3034.24
429.662	3234.94
429.869	2880.64
430.076	3122.3
430.284	3167.35
430.491	3304.57
430.699	3558.52
430.906	3443.83
431.114	3554.42
431.321	3800.18
431.528	3714.16
431.736	3925.1
431.943	4093.04
432.15	3959.92
432.358	3931.25
432.565	4260.97
432.772	4179.05
432.979	4406.38
433.187	4611.17
433.394	4531.3
433.601	4861.02
433.808	4955.23
434.016	4908.13
434.223	5033.05
434.43	5229.66
434.637	5209.18
434.844	5710.93
435.052	5768.27
435.259	5559.38
435.466	5586.01
435.673	5674.07
435.88	5997.65
436.087	6341.71
436.294	6388.81
436.501	6093.9
436.708	6413.38
436.915	6507.59
437.122	7003.2
437.329	6734.92
437.537	6906.95
437.743	7203.9
437.95	7101.5
438.157	7400.51
438.364	7441.47
438.571	7619.64
438.778	7521.34
438.985	8346.67
439.192	8102.96
439.399	8223.79
439.606	8035.38
439.813	8535.08
440.02	9022.5
440.227	8997.92
440.433	8840.23
440.64	9176.09
440.847	8932.39
441.054	9118.75
441.261	9612.31
441.467	9727
441.674	10023.95
441.881	10296.33
442.088	10200.08
442.294	10058.77
442.501	10271.76
442.708	10697.74
442.914	11092.99
443.121	11402.24
443.328	11080.71
443.534	12205.04
443.741	11529.21
443.948	11430.91
444.154	12260.34
444.361	12309.49
444.568	12440.56
444.774	12555.24
444.981	12321.77
445.187	12860.39
445.394	13231.07
445.6	13093.86
445.807	14384.08
446.013	13810.65
446.22	14040.02
446.426	14246.87
446.633	14998.47
446.839	15383.49
447.046	14588.88
447.252	15281.09
447.459	15387.58
447.665	15481.79
447.871	16073.65
448.078	16513.97
448.284	15932.34
448.491	16552.88
448.697	16925.61
448.903	17499.04
449.11	17351.59
449.316	16991.14
449.522	17423.26
449.728	18185.11
449.935	18021.27
450.141	17945.5
450.347	18389.91
450.553	17738.65
450.76	18027.42
450.966	18967.43
451.172	18686.86
451.378	19131.27
451.584	18729.87
451.791	19002.25
451.997	19143.56
452.203	19137.41
452.409	19295.11
452.615	19512.19
452.821	18877.32
453.027	18322.32
453.233	19553.15
453.44	18650
453.646	19102.6
453.852	18873.23
454.058	19129.22
454.264	18731.92
454.47	19311.49
454.676	18502.54
454.882	19258.24
455.088	17550.24
455.294	17898.39
455.5	18084.76
455.705	18705.29
455.911	17849.24
456.117	17601.44
456.323	17124.26
456.529	16352.18
456.735	17046.44
456.941	16419.76
457.147	16354.23
457.352	15844.28
457.558	15883.19
457.764	15768.51
457.97	15498.17
458.176	15227.84
458.381	15221.7
458.587	14369.74
458.793	14605.26
458.999	13829.08
459.204	14900.17
459.41	14162.9
459.616	13261.79
459.821	13353.95
460.027	13294.56
460.233	12995.56
460.438	12360.69
460.644	12422.13
460.85	11791.35
461.055	11764.73
461.261	11736.06
461.466	10941.44
461.672	10427.4
461.878	11181.06
462.083	10615.82
462.289	10429.45
462.494	10435.6
462.7	9851.92
462.905	9718.81
463.111	10013.71
463.316	9993.23
463.522	9511.96
463.727	9675.8
463.932	9616.41
464.138	9600.02
464.343	9526.3
464.549	9360.41
464.754	9761.81
464.959	9417.75
465.165	9354.27
465.37	9178.14
465.575	8789.03
465.781	9149.47
465.986	9356.32
466.191	8879.14
466.397	8782.88
466.602	8201.26
466.807	8588.33
467.012	8588.33
467.218	8469.55
467.423	8324.14
467.628	8545.32
467.833	8791.08
468.038	8404.01
468.244	8133.68
468.449	8641.57
468.654	8350.76
468.859	8492.07
469.064	8117.29
469.269	7855.15
469.474	8131.63
469.679	8123.44
469.885	7793.72
470.09	8074.29
470.295	8068.14
470.5	7617.59
470.705	7715.89
470.91	7648.31
471.115	7515.19
471.32	7816.24
471.525	7660.6
471.73	7646.26
471.935	7404.6
472.139	7265.34
472.344	7197.76
472.549	7353.4
472.754	7064.64
472.959	6818.88
473.164	6816.83
473.369	6782.02
473.574	6921.28
473.778	6888.51
473.983	6831.17
474.188	6997.06
474.393	6456.39
474.598	6732.87
474.802	6433.86
475.007	6519.88
475.212	6468.68
475.417	6319.18
475.621	6407.24
475.826	6349.9
476.031	6224.97
476.235	6206.54
476.44	6052.94
476.645	5930.06
476.849	6173.77
477.054	5688.4
477.259	5864.53
477.463	5708.88
477.668	5643.35
477.872	5618.77
478.077	5676.12
478.282	5463.13
478.486	5499.99
478.691	5555.29
478.895	5368.92
479.1	5528.66
479.304	5465.18
479.509	5319.77
479.713	5364.82
479.918	5348.44
480.122	5178.46
480.326	5319.77
480.531	5270.62
480.735	5180.51
480.94	5135.45
481.144	5211.23
481.348	4979.81
481.553	5069.92
481.757	5078.11
481.961	5074.01
482.166	5153.88
482.37	5102.68
482.574	4908.13
482.778	4901.98
482.983	5053.53
483.187	5069.92
483.391	5092.44
483.595	4793.44
483.8	4971.61
484.004	4908.13
484.208	5037.15
484.412	5035.1
484.616	5002.33
484.821	5051.49
485.025	4912.22
485.229	4916.32
485.433	5098.59
485.637	4990.05
485.841	4807.78
486.045	4906.08
486.249	4979.81
486.453	4918.37
486.657	4897.89
486.861	4963.42
487.065	4828.26
487.269	4990.05
487.473	4797.54
487.677	5069.92
487.881	4885.6
488.085	4885.6
488.289	5026.91
488.493	4723.81
488.697	5049.44
488.901	4988
489.105	4865.12
489.309	5014.62
489.512	5211.23
489.716	5117.02
489.92	5012.57
490.124	5028.96
490.328	5082.21
490.531	5004.38
490.735	4979.81
490.939	5039.2
491.143	5074.01
491.346	5055.58
491.55	5137.5
491.754	5071.97
491.958	5098.59
492.161	5102.68
492.365	5291.1
492.569	5143.64
492.772	5112.92
492.976	5399.64
493.18	5303.39
493.383	5413.98
493.587	5291.1
493.79	5370.97
493.994	5422.17
494.197	5465.18
494.401	5409.88
494.605	5442.65
494.808	5549.14
495.012	5547.09
495.215	5643.35
495.419	5700.69
495.622	5594.2
495.825	5504.09
496.029	5839.95
496.232	5897.3
496.436	5905.49
496.639	5844.05
496.843	5827.67
497.046	5987.41
497.249	6044.75
497.453	6167.63
497.656	6020.17
497.859	6218.83
498.063	5930.06
498.266	6263.88
498.469	6384.71
498.673	6397
498.876	6515.78
499.079	6528.07
499.282	6558.79
499.485	6831.17
499.689	6700.1
499.892	6745.16
500.095	6839.36
500.298	7017.54
500.501	7019.58
500.705	7148.61
500.908	7185.47
501.111	7156.8
501.314	7408.7
501.517	7306.3
501.72	7371.83
501.923	7300.16
502.126	7543.86
502.329	7707.7
502.532	7763
502.735	7875.63
502.938	7916.59
503.141	8105.01
503.344	8182.83
503.547	8145.97
503.75	8223.79
503.953	8352.81
504.156	8477.74
504.359	8602.66
504.562	8520.74
504.765	8721.45
504.968	8895.52
505.17	8741.93
505.373	8956.96
505.576	8924.19
505.779	9047.07
505.982	9110.56
506.185	9442.33
506.387	9462.81
506.59	9389.08
506.793	9694.23
506.996	9516.06
507.198	9993.23
507.401	10011.67
507.604	10028.05
507.807	10093.58
508.009	10232.85
508.212	10290.19
508.415	10396.68
508.617	10671.11
508.82	10472.46
509.022	10640.39
509.225	10937.35
509.428	10779.65
509.63	11103.23
509.833	11052.03
510.035	11301.89
510.238	11099.14
510.44	11355.13
510.643	11617.27
510.845	11637.75
511.048	11496.44
511.25	11846.65
511.453	11877.37
511.655	12397.55
511.858	12254.19
512.06	12235.76
512.262	12422.13
512.465	12297.2
512.667	12368.88
512.87	12706.79
513.072	12635.11
513.274	12927.97
513.477	12913.64
513.679	13302.75
513.881	13306.85
514.084	13411.29
514.286	13507.55
514.488	13368.29
514.69	14113.75
514.893	13845.46
515.095	13974.49
515.297	13900.76
515.499	14392.27
515.701	14484.43
515.904	14439.37
516.106	14681.03
516.308	14824.39
516.51	14930.89
516.712	14963.65
516.914	15121.35
517.116	15375.3
517.318	15215.55
517.52	15287.23
517.722	15604.67
517.925	16040.89
518.127	15946.68
518.329	15817.66
518.531	15788.99
518.733	16346.03
518.935	16552.88
519.136	16284.59
519.338	16624.56
519.54	16690.09
519.742	16870.31
519.944	16921.51
520.146	17138.6
520.348	17374.11
520.55	17220.52
520.752	17718.17
520.954	17820.57
521.155	17941.4
521.357	18140.05
521.559	18140.05
521.761	18441.11
521.963	18508.69
522.164	18545.55
522.366	18432.91
522.568	18813.84
522.77	18760.59
522.971	19078.02
523.173	18871.18
523.375	19073.93
523.576	19303.3
523.778	19020.68
523.98	19606.4
524.181	19481.47
524.383	19504
524.584	19788.67
524.786	19667.84
524.988	19704.7
525.189	20282.23
525.391	19958.65
525.592	20194.17
525.794	20112.25
525.995	20507.51
526.197	20546.42
526.398	20779.89
526.6	20401.01
526.801	20810.61
527.003	20618.1
527.204	20747.12
527.406	20687.73
527.607	20945.77
527.808	21220.2
528.01	20933.48
528.211	21062.51
528.412	21457.76
528.614	21445.48
528.815	21381.99
529.016	21597.03
529.218	21506.91
529.419	21486.43
529.62	21646.18
529.822	21642.08
530.023	21861.21
530.224	21601.12
530.425	21615.46
530.626	21609.31
530.828	21920.6
531.029	21932.89
531.23	21697.38
531.431	21889.88
531.632	22076.25
531.833	22182.74
532.035	22152.02
532.236	22096.73
532.437	21969.76
532.638	21746.53
532.839	22250.33
533.04	22244.18
533.241	22180.7
533.442	22545.23
533.643	22106.97
533.844	22315.86
534.045	22455.12
534.246	21965.66
534.447	22553.43
534.648	22047.58
534.849	22276.95
535.05	22106.97
535.251	22235.99
535.451	22160.22
535.652	22287.19
535.853	22092.63
536.054	22129.5
536.255	22432.6
536.456	22074.2
536.657	22309.72
536.857	22141.78
537.058	22061.91
537.259	22154.07
537.46	22035.29
537.66	22254.42
537.861	22111.07
538.062	22354.77
538.263	22084.44
538.463	22092.63
538.664	22532.95
538.865	22082.39
539.065	22248.28
539.266	21953.37
539.466	22307.67
539.667	21914.46
539.868	22147.93
540.068	22045.53
540.269	22168.41
540.469	22190.94
540.67	22092.63
540.87	22184.79
541.071	21967.71
541.271	21859.17
541.472	21934.94
541.672	21779.29
541.873	21963.61
542.073	21511.01
542.274	21971.8
542.474	22184.79
542.675	21629.79
542.875	22248.28
543.075	22000.47
543.276	21515.11
543.476	22174.55
543.676	21941.08
543.877	21971.8
544.077	21625.7
544.277	21805.92
544.478	21908.32
544.678	22399.83
544.878	21777.25
545.078	22145.88
545.279	21721.95
545.479	21738.33
545.679	22066.01
545.879	21789.53
546.079	21775.2
546.28	21715.81
546.48	21605.22
546.68	21713.76
546.88	21803.87
547.08	21959.52
547.28	21703.52
547.48	21629.79
547.68	21980
547.88	21609.31
548.081	22020.95
548.281	21764.96
548.481	21375.84
548.681	21945.18
548.881	21785.44
549.081	21545.83
549.28	21541.73
549.48	21709.66
549.68	21691.23
549.88	22111.07
550.08	21527.39
550.28	21832.54
550.48	21836.64
550.68	21842.78
550.88	21574.5
551.08	21359.46
551.279	21678.94
551.479	21494.63
551.679	21902.17
551.879	21885.79
552.079	21787.49
552.278	21414.76
552.478	21734.24
552.678	21298.02
552.878	21965.66
553.077	21865.31
553.277	21345.12
553.477	21967.71
553.676	21683.04
553.876	21441.38
554.076	21457.76
554.275	21334.89
554.475	21119.85
554.674	21635.94
554.874	21537.63
555.074	21369.7
555.273	21500.77
555.473	21648.22
555.672	21461.86
555.872	21384.04
556.071	21193.58
556.271	21646.18
556.47	21115.75
556.67	21326.69
556.869	21046.12
557.068	21375.84
557.268	21130.09
557.467	21021.55
557.667	21082.98
557.866	21017.45
558.065	21113.7
558.265	20822.89
558.464	21234.53
558.663	21306.21
558.863	20853.61
559.062	21195.62
559.261	20685.68
559.461	21103.46
559.66	20718.45
559.859	20847.47
560.058	20597.62
560.258	21048.17
560.457	20657.01
560.656	20820.84
560.855	20577.14
561.054	20749.17
561.253	20603.76
561.453	20685.68
561.652	20706.16
561.851	20677.49
562.05	20601.71
562.249	20325.24
562.448	20587.38
562.647	20521.84
562.846	20087.67
563.045	20417.4
563.244	20052.86
563.443	20089.72
563.642	19819.39
563.841	20226.93
564.04	20046.71
564.239	20364.15
564.438	19919.74
564.637	20173.69
564.836	20032.38
565.035	19641.21
565.234	19776.38
565.432	19725.18
565.631	19929.98
565.83	19958.65
566.029	19919.74
566.228	19874.68
566.427	19624.83
566.625	19696.51
566.824	19454.85
567.023	19671.93
567.222	19137.41
567.42	19655.55
567.619	19448.71
567.818	19716.99
568.016	19186.57
568.215	19389.31
568.414	19493.76
568.612	19708.8
568.811	19358.6
569.01	19026.82
569.208	19008.39
569.407	19012.49
569.605	18815.88
569.804	19444.61
570.002	18654.09
570.201	19020.68
570.4	18873.23
570.598	19002.25
570.797	18652.05
570.995	18832.27
571.193	18650
571.392	18740.11
571.59	18695.05
571.789	18725.77
571.987	18592.65
572.186	18394
572.384	18416.53
572.582	18396.05
572.781	18615.18
572.979	18189.21
573.177	18133.91
573.376	18193.3
573.574	17986.46
573.772	18226.07
573.971	18056.09
574.169	18213.78
574.367	17759.13
574.565	18066.33
574.763	18015.13
574.962	17804.19
575.16	17720.22
575.358	17882.01
575.556	17675.16
575.754	17849.24
575.952	17419.17
576.151	17687.45
576.349	17429.41
576.547	17562.53
576.745	17580.96
576.943	17540
577.141	17365.92
577.339	17300.39
577.537	17200.04
577.735	17273.76
577.933	17079.21
578.131	17132.45
578.329	17175.46
578.527	16898.98
578.725	17142.69
578.923	17099.69
579.121	16927.66
579.319	16972.71
579.516	16862.12
579.714	16821.16
579.912	16776.11
580.11	16792.49
580.308	16778.15
580.506	16573.36
580.704	16280.5
580.901	16636.84
581.099	16798.63
581.297	16518.06
581.495	16311.22
581.692	16763.82
581.89	16194.48
582.088	16348.08
582.285	16333.75
582.483	16319.41
582.681	16188.34
582.878	16112.56
583.076	16131
583.274	16321.46
583.471	16020.41
583.669	15928.25
583.866	15797.18
584.064	16257.97
584.262	15860.66
584.459	15743.93
584.657	15608.76
584.854	15829.95
585.052	15635.39
585.249	15492.03
585.447	15731.64
585.644	15358.91
585.841	15778.75
586.039	15461.31
586.236	15403.97
586.434	15561.66
586.631	15539.13
586.828	15406.02
587.026	15532.99
587.223	15293.38
587.42	15199.17
587.618	15195.07
587.815	15207.36
588.012	14980.04
588.21	14910.41
588.407	15256.51
588.604	14973.89
588.801	14777.29
588.999	14943.17
589.196	14926.79
589.393	14711.75
589.59	14603.21
589.787	14754.76
589.984	14562.25
590.182	14492.62
590.379	14822.34
590.576	14382.03
590.773	14767.05
590.97	14537.68
591.167	14347.22
591.364	14369.74
591.561	14244.82
591.758	14064.6
591.955	14293.97
592.152	14345.17
592.349	14052.31
592.546	14402.51
592.743	14205.91
592.94	13894.61
593.137	14459.85
593.334	14242.77
593.531	13671.39
593.727	14017.49
593.924	13747.16
594.121	13599.71
594.318	13898.71
594.515	13616.09
594.712	13663.19
594.908	13542.36
595.105	13835.22
595.302	13364.19
595.499	13480.92
595.696	13687.77
595.892	13188.07
596.089	13431.77
596.286	13487.07
596.482	13167.59
596.679	13493.21
596.876	13374.43
597.072	13235.17
597.269	13390.81
597.466	13087.71
597.662	13073.38
597.859	13128.67
598.055	13272.03
598.252	13220.83
598.448	13057
598.645	12844.01
598.841	12583.91
599.038	12915.69
599.234	12819.43
599.431	12551.15
599.627	12846.05
599.824	12735.46
600.02	12731.37
600.217	12680.17
600.413	12563.43
600.609	12540.91
600.806	12651.5
601.002	12436.46
601.198	12420.08
601.395	12575.72
601.591	12444.65
601.787	12192.75
601.984	12026.87
602.18	12250.1
602.376	12213.23
602.572	12139.51
602.769	12213.23
602.965	12123.12
603.161	12094.45
603.357	11916.28
603.553	12119.03
603.75	12205.04
603.946	11807.73
604.142	11895.8
604.338	12037.11
604.534	12008.44
604.73	11658.23
604.926	11717.62
605.122	11643.9
605.318	11873.27
605.514	11676.66
605.71	11619.32
605.906	11713.53
606.102	11496.44
606.298	11623.42
606.494	11654.14
606.69	11660.28
606.886	11619.32
607.082	11279.36
607.278	11545.59
607.474	11496.44
607.67	11475.96
607.866	11013.12
608.062	11443.2
608.257	11004.93
608.453	11398.14
608.649	11275.26
608.845	11142.14
609.041	11009.03
609.236	11308.03
609.432	11170.82
609.628	10875.91
609.824	10963.97
610.019	10873.86
610.215	11125.76
610.411	11002.88
610.606	10830.85
610.802	11015.17
610.998	10988.55
611.193	10896.39
611.389	10824.71
611.584	11074.56
611.78	10720.26
611.976	10693.64
612.171	10837
612.367	10628.1
612.562	10509.32
612.758	10505.23
612.953	10560.52
613.149	10828.81
613.344	10505.23
613.539	10873.86
613.735	10736.65
613.93	10923.01
614.126	10656.78
614.321	10869.76
614.517	10660.87
614.712	10583.05
614.907	10593.29
615.103	10509.32
615.298	10191.89
615.493	10605.58
615.688	10437.64
615.884	10765.32
616.079	10306.57
616.274	10402.83
616.47	10279.95
616.665	10316.81
616.86	10316.81
617.055	10365.96
617.25	10222.61
617.445	10333.2
617.641	10003.47
617.836	10286.09
618.031	10144.78
618.226	10232.85
618.421	9960.47
618.616	10386.44
618.811	10069.01
619.006	9882.64
619.201	9980.95
619.396	10191.89
619.591	9821.2
619.786	9841.68
619.981	9731.09
620.176	9749.53
620.371	9653.27
620.566	9770.01
620.761	9833.49
620.956	9980.95
621.151	9577.5
621.346	9835.54
621.541	9309.21
621.735	9399.32
621.93	9184.29
622.125	9366.56
622.32	9231.39
622.515	9190.43
622.709	9131.04
622.904	9092.13
623.099	9055.26
623.294	9190.43
623.488	9198.62
623.683	9075.74
623.878	8866.85
624.072	8944.67
624.267	8852.52
624.462	8588.33
624.656	8768.55
624.851	8944.67
625.046	8580.14
625.24	8653.86
625.435	8576.04
625.629	8522.79
625.824	8518.7
626.018	8617
626.213	8285.23
626.407	8637.48
626.602	8274.99
626.796	8291.37
626.991	8361
627.185	8121.39
627.38	7937.07
627.574	8055.86
627.768	8231.98
627.963	8002.61
628.157	7939.12
628.352	7902.26
628.546	7699.51
628.74	7711.8
628.935	7707.7
629.129	7836.72
629.323	7695.41
629.517	7715.89
629.712	7478.33
629.906	7611.45
630.1	7470.14
630.294	7478.33
630.489	7363.64
630.683	7519.29
630.877	7523.38
631.071	7392.31
631.265	7380.03
631.459	7242.81
631.653	7126.08
631.848	7337.02
632.042	7101.5
632.236	7038.02
632.43	6941.76
632.624	7064.64
632.818	7068.73
633.012	7038.02
633.206	6814.79
633.4	6827.07
633.594	6675.52
633.788	6808.64
633.982	6741.06
634.176	6675.52
634.369	6855.75
634.563	6829.12
634.757	6712.39
634.951	6587.46
635.145	6587.46
635.339	6708.29
635.533	6523.98
635.726	6597.7
635.92	6427.72
636.114	6425.67
636.308	6519.88
636.501	6544.45
636.695	6237.26
636.889	6286.41
637.083	6267.98
637.276	5989.46
637.47	6192.2
637.664	6181.96
637.857	6372.43
638.051	6300.75
638.244	5956.69
638.438	5891.15
638.632	5925.97
638.825	5966.93
639.019	5909.58
639.212	6014.03
639.406	5897.3
639.599	5692.5
639.793	5909.58
639.986	5667.92
640.18	5868.63
640.373	5680.21
640.567	5635.16
640.76	5586.01
640.954	5616.72
641.147	5407.83
641.34	5473.37
641.534	5495.89
641.727	5588.05
641.92	5573.72
642.114	5418.07
642.307	5483.61
642.5	5444.7
642.694	5416.02
642.887	5319.77
643.08	5459.03
643.273	5272.67
643.467	5354.58
643.66	5231.71
643.853	5307.48
644.046	5033.05
644.239	5168.22
644.432	5172.32
644.626	5045.34
644.819	4957.28
645.012	5307.48
645.205	4983.9
645.398	5016.67
645.591	5002.33
645.784	4850.78
645.977	4867.17
646.17	4891.74
646.363	4988
646.556	4873.31
646.749	4777.06
646.942	4883.55
647.135	4785.25
647.328	4721.76
647.521	4793.44
647.714	4752.48
647.907	4736.1
648.099	4639.84
648.292	4791.39
648.485	4768.87
648.678	4496.49
648.871	4488.29
649.064	4572.26
649.256	4578.4
649.449	4500.58
649.642	4371.56
649.835	4549.73
650.027	4449.38
650.22	4426.86
650.413	4490.34
650.605	4258.92
650.798	4211.82
650.991	4127.85
651.183	4377.7
651.376	4197.48
651.568	4242.54
651.761	4260.97
651.954	4238.44
652.146	4086.89
652.339	4050.03
652.531	4103.28
652.724	4199.53
652.916	4078.7
653.109	4029.55
653.301	4179.05
653.494	4166.76
653.686	3966.06
653.879	3992.69
654.071	3843.18
654.263	3904.62
654.456	3968.11
654.648	3880.05
654.84	3937.39
655.033	3855.47
655.225	3964.01
655.417	3800.18
655.61	3921.01
655.802	3818.61
655.994	3785.84
656.186	3921.01
656.379	3837.04
656.571	3769.46
656.763	3581.04
656.955	3675.25
657.148	3652.72
657.34	3521.65
657.532	3587.19
657.724	3550.32
657.916	3544.18
658.108	3652.72
658.3	3613.81
658.492	3484.79
658.684	3490.93
658.876	3523.7
659.068	3525.75
659.26	3456.12
659.452	3421.3
659.644	3374.2
659.836	3333.24
660.028	3343.48
660.22	3525.75
660.412	3327.1
660.604	3425.4
660.796	3349.62
660.988	3316.86
661.18	3308.66
661.372	3357.82
661.563	3277.94
661.755	3308.66
661.947	3132.54
662.139	3325.05
662.331	3210.36
662.522	3220.6
662.714	3228.79
662.906	3017.85
663.097	3261.56
663.289	3077.24
663.481	3064.96
663.673	3140.73
663.864	3054.72
664.056	2987.13
664.247	3099.77
664.439	3161.21
664.631	3105.92
664.822	2876.54
665.014	2958.46
665.205	2980.99
665.397	3019.9
665.588	2954.37
665.78	2743.42
665.971	2944.13
666.163	2942.08
666.354	2964.61
666.546	2946.17
666.737	2878.59
666.929	2878.59
667.12	2847.87
667.311	2839.68
667.503	2866.3
667.694	2903.17
667.885	2833.54
668.077	2845.82
668.268	2784.38
668.459	2794.62
668.651	2759.81
668.842	2745.47
669.033	2780.29
669.224	2731.14
669.416	2899.07
669.607	2606.21
669.798	2661.51
669.989	2684.03
670.18	2673.79
670.371	2710.66
670.563	2604.16
670.754	2729.09
670.945	2587.78
671.136	2618.5
671.327	2679.94
671.518	2710.66
671.709	2677.89
671.9	2589.83
672.091	2540.68
672.282	2552.96
672.473	2571.4
672.664	2591.88
672.855	2612.35
673.046	2505.86
673.237	2542.72
673.428	2475.14
673.619	2645.12
673.809	2370.69
674	2643.07
674.191	2481.28
674.382	2432.13
674.573	2425.99
674.764	2391.17
674.954	2460.81
675.145	2458.76
675.336	2579.59
675.527	2516.1
675.717	2550.92
675.908	2425.99
676.099	2487.43
676.289	2415.75
676.48	2413.7
676.671	2434.18
676.861	2421.89
677.052	2358.41
677.243	2415.75
677.433	2356.36
677.624	2376.84
677.814	2397.32
678.005	2329.74
678.195	2417.8
678.386	2462.85
678.576	2344.07
678.767	2335.88
678.957	2372.74
679.148	2284.68
679.338	2391.17
679.529	2399.37
679.719	2448.52
679.909	2309.26
680.1	2491.52
680.29	2456.71
680.481	2344.07
680.671	2329.74
680.861	2407.56
681.052	2262.15
681.242	2432.13
681.432	2370.69
681.622	2382.98
681.813	2362.5
682.003	2342.02
682.193	2299.02
682.383	2354.31
682.573	2313.35
682.764	2196.62
682.954	2221.19
683.144	2358.41
683.334	2206.86
683.524	2217.1
683.714	2286.73
683.904	2247.82
684.094	2274.44
684.284	2335.88
684.474	2325.64
684.664	2423.94
684.854	2307.21
685.044	2253.96
685.234	2247.82
685.424	2270.34
685.614	2169.99
685.804	2221.19
685.994	2342.02
686.184	2239.62
686.374	2266.25
686.564	2182.28
686.753	2186.38
686.943	2186.38
687.133	2219.14
687.323	2172.04
687.513	2186.38
687.702	2165.9
687.892	2176.14
688.082	2217.1
688.272	2213
688.461	2081.93
688.651	2159.75
688.841	2145.42
689.03	2010.25
689.22	2049.16
689.41	2063.5
689.599	1997.96
689.789	2057.36
689.979	2206.86
690.168	2116.75
690.358	2120.84
690.547	2010.25
690.737	2043.02
690.926	1977.48
691.116	1924.24
691.305	2122.89
691.495	1985.68
691.684	1891.47
691.874	2088.07
692.063	1950.86
692.252	1858.7
692.442	1973.39
692.631	1993.87
692.82	1860.75
693.01	2045.07
693.199	1924.24
693.388	1870.99
693.578	1911.95
693.767	1885.33
693.956	1952.91
694.146	1813.65
694.335	1784.98
694.524	1920.14
694.713	1840.27
694.902	1934.48
695.092	1809.55
695.281	1893.52
695.47	1858.7
695.659	1807.5
695.848	1858.7
696.037	1791.12
696.226	1940.62
696.415	1735.82
696.604	1797.26
696.793	1844.37
696.982	1768.59
697.171	1858.7
697.36	1678.48
697.549	1768.59
697.738	1729.68
697.927	1719.44
698.116	1744.02
698.305	1688.72
698.494	1801.36
698.683	1711.25
698.872	1852.56
699.061	1819.79
699.25	1721.49
699.438	1813.65
699.627	1645.71
699.816	1729.68
700.005	1778.83
700.193	1809.55
700.382	1846.41
700.571	1752.21
700.76	1793.17
700.948	1746.06
701.137	1819.79
701.326	1658
701.514	1670.29
701.703	1729.68
701.892	1625.23
702.08	1737.87
702.269	1707.15
702.457	1612.95
702.646	1723.54
702.834	1721.49
703.023	1662.1
703.212	1752.21
703.4	1582.23
703.589	1756.3
703.777	1737.87
703.965	1623.19
704.154	1748.11
704.342	1717.39
704.531	1698.96
704.719	1565.84
704.907	1793.17
705.096	1713.3
705.284	1850.51
705.472	1621.14
705.661	1647.76
705.849	1809.55
706.037	1748.11
706.226	1721.49
706.414	1768.59
706.602	1653.91
706.79	1662.1
706.979	1633.43
707.167	1682.58
707.355	1617.04
707.543	1711.25
707.731	1598.61
707.919	1784.98
708.107	1735.82
708.296	1778.83
708.484	1692.82
708.672	1801.36
708.86	1639.57
709.048	1688.72
709.236	1639.57
709.424	1772.69
709.612	1664.15
709.8	1651.86
709.988	1776.78
710.176	1701.01
710.364	1817.74
710.551	1705.1
710.739	1647.76
710.927	1768.59
711.115	1719.44
711.303	1787.02
711.491	1682.58
711.679	1750.16
711.866	1711.25
712.054	1813.65
712.242	1713.3
712.43	1834.13
712.617	1735.82
712.805	1721.49
712.993	1723.54
713.181	1518.74
713.368	1737.87
713.556	1643.67
713.744	1608.85
713.931	1780.88
714.119	1625.23
714.306	1637.52
714.494	1606.8
714.682	1709.2
714.869	1760.4
715.057	1709.2
715.244	1703.06
715.432	1750.16
715.619	1778.83
715.807	1729.68
715.994	1774.74
716.182	1647.76
716.369	1746.06
716.556	1678.48
716.744	1639.57
716.931	1670.29
717.119	1715.34
717.306	1746.06
717.493	1596.56
717.681	1744.02
717.868	1725.58
718.055	1789.07
718.242	1744.02
718.43	1725.58
718.617	1588.37
718.804	1680.53
718.991	1746.06
719.179	1746.06
719.366	1668.24
719.553	1717.39
719.74	1705.1
719.927	1705.1
720.114	1658
720.301	1774.74
720.488	1678.48
720.676	1639.57
720.863	1737.87
721.05	1752.21
721.237	1817.74
721.424	1645.71
721.611	1770.64
721.798	1752.21
721.985	1678.48
722.172	1830.03
722.358	1774.74
722.545	1733.78
722.732	1801.36
722.919	1842.32
723.106	1787.02
723.293	1780.88
723.48	1709.2
723.667	1705.1
723.853	1655.95
724.04	1713.3
724.227	1672.34
724.414	1606.8
724.6	1842.32
724.787	1793.17
724.974	1817.74
725.161	1703.06
725.347	1664.15
725.534	1703.06
725.72	1744.02
725.907	1709.2
726.094	1748.11
726.28	1680.53
726.467	1682.58
726.653	1776.78
726.84	1752.21
727.027	1703.06
727.213	1729.68
727.4	1676.43
727.586	1756.3
727.773	1762.45
727.959	1752.21
728.145	1719.44
728.332	1637.52
728.518	1662.1
728.705	1658
728.891	1776.78
729.077	1715.34
729.264	1854.61
729.45	1741.97
729.636	1768.59
729.823	1678.48
730.009	1729.68
730.195	1719.44
730.382	1719.44
730.568	1764.5
730.754	1713.3
730.94	1635.47
731.126	1660.05
731.313	1809.55
731.499	1739.92
731.685	1676.43
731.871	1842.32
732.057	1840.27
732.243	1725.58
732.429	1739.92
732.615	1875.09
732.801	1660.05
732.987	1760.4
733.173	1717.39
733.359	1830.03
733.545	1735.82
733.731	1649.81
733.917	1737.87
734.103	1694.86
734.289	1645.71
734.475	1666.19
734.661	1809.55
734.847	1672.34
735.033	1721.49
735.219	1768.59
735.404	1737.87
735.59	1721.49
735.776	1778.83
735.962	1713.3
736.148	1678.48
736.333	1776.78
736.519	1776.78
736.705	1694.86
736.89	1608.85
737.076	1731.73
737.262	1703.06
737.447	1574.03
737.633	1764.5
737.819	1727.63
738.004	1688.72
738.19	1645.71
738.375	1684.62
738.561	1817.74
738.747	1674.39
738.932	1600.66
739.118	1694.86
739.303	1590.42
739.489	1612.95
739.674	1682.58
739.859	1764.5
740.045	1744.02
740.23	1604.75
740.416	1617.04
740.601	1629.33
740.786	1653.91
740.972	1721.49
741.157	1672.34
741.342	1678.48
741.528	1606.8
741.713	1612.95
741.898	1604.75
742.084	1584.27
742.269	1662.1
742.454	1606.8
742.639	1670.29
742.824	1569.94
743.01	1594.51
743.195	1649.81
743.38	1541.27
743.565	1653.91
743.75	1594.51
743.935	1563.79
744.12	1610.9
744.305	1533.08
744.49	1555.6
744.675	1604.75
744.86	1440.92
745.045	1453.2
745.23	1379.48
745.415	1483.92
745.6	1543.32
745.785	1481.88
745.97	1655.95
746.155	1352.85
746.34	1393.81
746.525	1408.15
746.71	1514.64
746.895	1352.85
747.079	1369.24
747.264	1408.15
747.449	1404.05
747.634	1399.96
747.819	1391.77
748.003	1416.34
748.188	1449.11
748.373	1473.68
748.557	1391.77
748.742	1365.14
748.927	1369.24
749.111	1344.66
749.296	1391.77
749.481	1379.48
749.665	1350.81
749.85	1371.29
750.034	1381.53
750.219	1268.89
750.404	1238.17
750.588	1342.61
750.773	1244.31
750.957	1252.5
751.141	1270.94
751.326	1291.41
751.51	1334.42
751.695	1315.99
751.879	1291.41
752.064	1203.35
752.248	1150.11
752.432	1256.6
752.617	1186.97
752.801	1064.09
752.985	1135.77
753.17	1207.45
753.354	1203.35
753.538	1313.94
753.722	1162.39
753.907	1084.57
754.091	1107.1
754.275	1170.58
754.459	1066.14
754.643	1176.73
754.828	1068.19
755.012	1064.09
755.196	1027.23
755.38	1055.9
755.564	1184.92
755.748	1025.18
755.932	1131.67
756.116	1066.14
756.3	1090.71
756.484	1014.94
756.668	1033.37
756.852	986.27
757.036	976.03
757.22	990.36
757.404	971.93
757.588	935.07
757.772	924.83
757.956	1014.94
758.14	1023.13
758.323	967.84
758.507	965.79
758.691	998.56
758.875	941.21
759.059	937.12
759.242	935.07
759.426	914.59
759.61	916.64
759.794	883.87
759.977	904.35
760.161	990.36
760.345	859.29
760.528	900.25
760.712	941.21
760.895	896.16
761.079	804
761.263	871.58
761.446	855.2
761.63	777.37
761.813	965.79
761.997	814.24
762.18	879.77
762.364	855.2
762.547	775.33
762.731	834.72
762.914	863.39
763.098	849.05
763.281	842.91
763.464	779.42
763.648	779.42
763.831	767.13
764.015	771.23
764.198	785.57
764.381	830.62
764.564	826.53
764.748	797.85
764.931	810.14
765.114	758.94
765.297	713.89
765.481	711.84
765.664	660.64
765.847	668.83
766.03	773.28
766.213	744.61
766.397	666.78
766.58	900.25
766.763	793.76
766.946	664.74
767.129	738.46
767.312	736.42
767.495	709.79
767.678	709.79
767.861	783.52
768.044	679.07
768.227	666.78
768.41	648.35
768.593	646.3
768.776	693.41
768.959	677.02
769.142	728.22
769.324	697.5
769.507	697.5
769.69	742.56
769.873	697.5
770.056	775.33
770.239	640.16
770.421	728.22
770.604	687.26
770.787	660.64
770.97	697.5
771.152	597.15
771.335	625.83
771.518	687.26
771.7	664.74
771.883	654.5
772.066	656.54
772.248	662.69
772.431	685.22
772.613	564.39
772.796	564.39
772.978	572.58
773.161	560.29
773.343	609.44
773.526	670.88
773.708	634.02
773.891	556.19
774.073	523.43
774.256	539.81
774.438	582.82
774.621	564.39
774.803	609.44
774.985	566.43
775.168	566.43
775.35	545.95
775.532	541.86
775.715	498.85
775.897	519.33
776.079	517.28
776.261	599.2
776.444	541.86
776.626	564.39
776.808	455.84
776.99	533.67
777.173	539.81
777.355	478.37
777.537	476.32
777.719	517.28
777.901	509.09
778.083	529.57
778.265	449.7
778.447	548
778.629	517.28
778.811	490.66
778.993	470.18
779.175	482.47
779.357	474.28
779.539	457.89
779.721	468.13
779.903	527.52
780.085	433.32
780.267	427.17
780.449	429.22
780.631	418.98
780.812	511.14
780.994	461.99
781.176	425.12
781.358	408.74
781.54	490.66
781.721	408.74
781.903	482.47
782.085	468.13
782.267	441.51
782.448	425.12
782.63	421.03
782.812	380.07
782.993	437.41
783.175	453.8
783.357	373.92
783.538	486.56
783.72	396.45
783.901	390.31
784.083	369.83
784.264	449.7
784.446	394.4
784.627	386.21
784.809	461.99
784.99	296.1
785.172	449.7
785.353	298.15
785.535	359.59
785.716	355.49
785.897	410.79
786.079	375.97
786.26	300.2
786.441	367.78
786.623	371.88
786.804	353.45
786.985	353.45
787.167	345.25
787.348	357.54
787.529	318.63
787.71	361.64
787.891	304.29
788.073	322.73
788.254	345.25
788.435	384.16
788.616	339.11
788.797	285.86
788.978	296.1
789.159	281.77
789.34	339.11
789.522	277.67
789.703	289.96
789.884	335.01
790.065	246.95
790.246	343.21
790.427	244.9
790.607	384.16
790.788	384.16
790.969	259.24
791.15	224.42
791.331	339.11
791.512	189.61
791.693	236.71
791.874	285.86
792.054	269.48
792.235	279.72
792.416	246.95
792.597	267.43
792.778	310.44
792.958	236.71
793.139	328.87
793.32	269.48
793.5	244.9
793.681	273.57
793.862	289.96
794.042	269.48
794.223	181.42
794.404	269.48
794.584	212.14
794.765	277.67
794.945	306.34
795.126	257.19
795.306	279.72
795.487	187.56
795.667	335.01
795.848	236.71
796.028	294.05
796.209	287.91
796.389	208.04
796.57	228.52
796.75	173.22
796.93	162.98
797.111	244.9
797.291	189.61
797.471	189.61
797.652	228.52
797.832	218.28
798.012	236.71
798.192	201.9
798.373	173.22
798.553	203.94
798.733	281.77
798.913	232.62
799.093	203.94
799.274	212.14
799.454	287.91
799.634	249
799.814	203.94
799.994	226.47
800.174	244.9
800.354	181.42
800.534	132.26
800.714	203.94
800.894	156.84
801.074	240.81
801.254	171.18
801.434	271.53
801.614	294.05
801.794	173.22
801.974	687.26
802.154	171.18
802.334	205.99
802.514	113.83
802.693	105.64
802.873	193.7
803.053	232.62
803.233	220.33
803.413	175.27
803.592	173.22
803.772	238.76
803.952	236.71
804.131	193.7
804.311	218.28
804.491	212.14
804.67	134.31
804.85	173.22
805.03	197.8
805.209	154.79
805.389	101.55
805.568	179.37
805.748	205.99
805.928	191.66
806.107	138.41
806.287	193.7
806.466	154.79
806.646	154.79
806.825	160.94
807.004	154.79
807.184	224.42
807.363	214.18
807.543	130.22
807.722	109.74
807.901	224.42
808.081	236.71
808.26	130.22
808.439	171.18
808.619	220.33
808.798	191.66
808.977	236.71
809.156	175.27
809.336	210.09
809.515	230.57
809.694	144.55
809.873	187.56
810.052	181.42
810.231	146.6
810.411	212.14
810.59	195.75
810.769	76.97
810.948	220.33
811.127	103.59
811.306	134.31
811.485	162.98
811.664	173.22
811.843	179.37
812.022	220.33
812.201	146.6
812.38	117.93
812.559	74.92
812.737	146.6
812.916	113.83
813.095	128.17
813.274	187.56
813.453	191.66
813.632	210.09
813.811	171.18
813.989	146.6
814.168	158.89
814.347	113.83
814.526	138.41
814.704	95.4
814.883	208.04
815.062	162.98
815.24	179.37
815.419	109.74
815.598	165.03
815.776	85.16
815.955	83.11
816.133	72.87
816.312	185.51
816.49	113.83
816.669	103.59
816.847	109.74
817.026	89.26
817.204	85.16
817.383	95.4
817.561	56.49
817.74	158.89
817.918	117.93
818.097	81.07
818.275	150.7
818.453	105.64
818.632	115.88
818.81	126.12
818.988	66.73
819.167	162.98
819.345	144.55
819.523	81.07
819.701	183.46
819.879	72.87
820.058	60.59
820.236	113.83
820.414	122.02
820.592	-0.85
820.77	64.68
820.948	95.4
821.127	95.4
821.305	97.45
821.483	40.11
821.661	146.6
821.839	130.22
822.017	44.2
822.195	68.78
822.373	156.84
822.551	60.59
822.729	134.31
822.907	148.65
823.085	179.37
823.262	76.97
823.44	60.59
823.618	52.39
823.796	91.31
823.974	46.25
824.152	62.63
824.329	60.59
824.507	140.46
824.685	136.36
824.863	76.97
825.04	15.53
825.218	97.45
825.396	119.98
825.574	109.74
825.751	76.97
825.929	162.98
826.107	64.68
826.284	83.11
826.462	105.64
826.639	95.4
826.817	83.11
826.994	99.5
827.172	91.31
827.349	167.08
827.527	87.21
827.704	91.31
827.882	85.16
828.059	89.26
828.237	81.07
828.414	124.07
828.591	11.43
828.769	117.93
828.946	85.16
829.124	64.68
829.301	87.21
829.478	105.64
829.655	74.92
829.833	60.59
830.01	58.54
830.187	72.87
830.364	66.73
830.542	89.26
830.719	74.92
830.896	60.59
831.073	79.02
831.25	64.68
831.427	87.21
831.604	146.6
831.782	85.16
831.959	107.69
832.136	83.11
832.313	25.77
832.49	-31.57
832.667	140.46
832.844	74.92
833.021	105.64
833.198	122.02
833.374	117.93
833.551	68.78
833.728	113.83
833.905	105.64
834.082	93.35
834.259	66.73
834.436	101.55
834.612	72.87
834.789	64.68
834.966	42.15
835.143	105.64
835.319	15.53
835.496	66.73
835.673	38.06
835.85	138.41
836.026	101.55
836.203	62.63
836.38	7.34
836.556	60.59
836.733	105.64
836.909	132.26
837.086	89.26
837.262	54.44
837.439	97.45
837.616	15.53
837.792	89.26
837.968	72.87
838.145	27.82
838.321	36.01
838.498	89.26
838.674	42.15
838.851	85.16
839.027	13.48
839.203	107.69
839.38	68.78
839.556	85.16
839.732	52.39
839.909	93.35
840.085	83.11
840.261	138.41
840.437	7.34
840.614	48.3
840.79	81.07
840.966	-4.95
841.142	97.45
841.318	83.11
841.494	48.3
841.671	50.35
841.847	79.02
842.023	52.39
842.199	72.87
842.375	54.44
842.551	19.63
842.727	83.11
842.903	148.65
843.079	46.25
843.255	76.97
843.431	60.59
843.607	58.54
843.783	1.19
843.959	126.12
844.134	81.07
844.31	105.64
844.486	50.35
844.662	64.68
844.838	23.72
845.013	36.01
845.189	113.83
845.365	124.07
845.541	-2.9
845.716	42.15
845.892	93.35
846.068	29.87
846.244	7.34
846.419	122.02
846.595	44.2
846.77	93.35
846.946	130.22
847.122	11.43
847.297	122.02
847.473	103.59
847.648	50.35
847.824	50.35
847.999	122.02
848.175	81.07
848.35	111.78
848.526	25.77
848.701	72.87
848.876	89.26
849.052	83.11
849.227	64.68
849.403	109.74
849.578	31.91
849.753	91.31
849.929	76.97
850.104	29.87
850.279	83.11
850.454	85.16
850.63	25.77
850.805	93.35
850.98	36.01
851.155	40.11
851.33	31.91
851.505	1.19
851.681	99.5
851.856	38.06
852.031	99.5
852.206	85.16
852.381	7.34
852.556	79.02
852.731	40.11
852.906	-15.19
853.081	46.25
853.256	52.39
853.431	23.72
853.606	146.6
853.781	-9.05
853.956	-47.96
854.131	64.68
854.305	60.59
854.48	36.01
854.655	64.68
854.83	56.49
855.005	48.3
855.18	33.96
855.354	38.06
855.529	58.54
855.704	-9.05
855.879	68.78
856.053	72.87
856.228	111.78
856.403	31.91
856.577	122.02
856.752	-17.24
856.926	42.15
857.101	107.69
857.276	7.34
857.45	-4.95
857.625	31.91
857.799	13.48
857.974	-7
858.148	58.54
858.323	72.87
858.497	-0.85
858.672	19.63
858.846	36.01
859.02	91.31
859.195	38.06
859.369	38.06
859.543	25.77
859.718	113.83
859.892	58.54
860.066	48.3
860.241	36.01
860.415	-13.14
860.589	60.59
860.763	29.87
860.938	-37.72
861.112	93.35
861.286	56.49
861.46	122.02
861.634	-7
861.808	89.26
861.982	27.82
862.157	48.3
862.331	9.39
862.505	54.44
862.679	1.19
862.853	-66.39
863.027	56.49
863.201	89.26
863.375	81.07
863.549	93.35
863.722	31.91
863.896	36.01
864.07	-2.9
864.244	1.19
864.418	5.29
864.592	44.2
864.766	31.91
864.939	117.93
865.113	31.91
865.287	64.68
865.461	119.98
865.634	56.49
865.808	21.67
865.982	68.78
866.156	-15.19
866.329	-58.2
866.503	31.91
866.676	13.48
866.85	60.59
867.024	-0.85
867.197	-0.85
867.371	60.59
867.544	64.68
867.718	58.54
867.891	142.5
868.065	17.58
868.238	11.43
868.412	93.35
868.585	44.2
868.759	15.53
868.932	40.11
869.105	97.45
869.279	48.3
869.452	46.25
869.625	83.11
869.799	-64.34
869.972	46.25
870.145	33.96
870.319	40.11
870.492	-17.24
870.665	-17.24
870.838	-31.57
871.011	-7
871.185	52.39
871.358	48.3
871.531	79.02
871.704	3.24
871.877	36.01
872.05	83.11
872.223	29.87
872.396	81.07
872.569	54.44
872.742	-19.29
872.915	42.15
873.088	64.68
873.261	11.43
873.434	44.2
873.607	17.58
873.78	48.3
873.953	83.11
874.126	36.01
874.299	70.83
874.471	72.87
874.644	33.96
874.817	66.73
874.99	62.63
875.163	64.68
875.335	117.93
875.508	72.87
875.681	81.07
875.853	95.4
876.026	56.49
876.199	15.53
876.371	33.96
876.544	31.91
876.717	15.53
876.889	115.88
877.062	83.11
877.234	46.25
877.407	-9.05
877.579	64.68
877.752	19.63
877.924	83.11
878.097	-17.24
878.269	36.01
878.442	64.68
878.614	31.91
878.786	15.53
878.959	40.11
879.131	-4.95
879.303	-13.14
879.476	17.58
879.648	-4.95
879.82	-52.05
879.993	42.15
880.165	46.25
880.337	62.63
880.509	36.01
880.681	17.58
880.854	13.48
881.026	-7
881.198	97.45
881.37	81.07
881.542	-13.14
881.714	56.49
881.886	101.55
882.058	21.67
882.23	62.63
882.402	76.97
882.574	91.31
882.746	-2.9
882.918	115.88
883.09	93.35
883.262	64.68
883.434	13.48
883.606	56.49
883.778	-58.2
883.95	115.88
884.122	-41.81
884.293	-21.33
884.465	64.68
884.637	40.11
884.809	83.11
884.98	29.87
885.152	36.01
885.324	60.59
885.496	15.53
885.667	15.53
885.839	25.77
886.011	52.39
886.182	9.39
886.354	70.83
886.525	33.96
886.697	72.87
886.869	7.34
887.04	33.96
887.212	-4.95
887.383	105.64
887.555	15.53
887.726	-56.15
887.897	74.92
888.069	-60.24
888.24	126.12
888.412	33.96
888.583	-54.1
888.754	15.53
888.926	91.31
889.097	64.68
889.268	25.77
889.44	31.91
889.611	-13.14
889.782	68.78
889.953	-29.52
890.125	27.82
890.296	-88.92
890.467	40.11
890.638	9.39
890.809	15.53
890.98	-17.24
891.151	7.34
891.323	85.16
891.494	107.69
891.665	-4.95
891.836	-0.85
892.007	60.59
892.178	-17.24
892.349	52.39
892.52	33.96
892.691	-25.43
892.862	40.11
893.032	50.35
893.203	50.35
893.374	72.87
893.545	25.77
893.716	-11.09
893.887	23.72
894.057	54.44
894.228	23.72
894.399	19.63
894.57	109.74
894.74	79.02
894.911	76.97
895.082	-45.91
895.253	23.72
895.423	15.53
895.594	117.93
895.764	48.3
895.935	48.3
896.106	-21.33
896.276	52.39
896.447	15.53
896.617	-37.72
896.788	-13.14
896.958	-13.14
897.129	42.15
897.299	81.07
897.47	7.34
897.64	58.54
897.81	40.11
897.981	56.49
898.151	-50
898.322	66.73
898.492	-4.95
898.662	31.91
898.832	31.91
899.003	48.3
899.173	81.07
899.343	23.72
899.513	-2.9
