Data from USB4F104151__225__14-21-38-010.txt Node

Date: Thu Mar 13 14:21:38 EDT 2025
User: louis
Spectrometer: USB4F10415
Trigger mode: 4
Integration Time (sec): 2.000000E-2
Scans to average: 1
Electric dark correction enabled: true
Nonlinearity correction enabled: false
Boxcar width: 0
XAxis mode: Wavelengths
Number of Pixels in Spectrum: 3648
>>>>>Begin Spectral Data<<<<<
178.204	-110.08
178.424	-110.08
178.644	-110.08
178.864	-87.55
179.084	-185.85
179.304	-52.74
179.524	-30.21
179.744	-13.82
179.964	68.09
180.184	59.9
180.404	-13.82
180.624	12.8
180.844	-46.59
181.064	-44.54
181.283	18.94
181.503	-13.82
181.723	55.81
181.943	-46.59
182.163	53.76
182.383	29.18
182.602	-19.97
182.822	59.9
183.042	39.42
183.262	-22.02
183.482	-40.45
183.701	18.94
183.921	113.15
184.141	18.94
184.361	53.76
184.58	8.7
184.8	-5.63
185.02	2.56
185.239	4.61
185.459	14.85
185.679	86.53
185.898	35.33
186.118	70.14
186.338	37.38
186.557	59.9
186.777	35.33
186.997	59.9
187.216	-13.82
187.436	-11.78
187.655	-5.63
187.875	98.81
188.095	14.85
188.314	51.71
188.534	88.57
188.753	84.48
188.973	0.51
189.192	27.14
189.412	-24.06
189.631	18.94
189.851	23.04
190.07	68.09
190.29	-13.82
190.509	29.18
190.729	23.04
190.948	84.48
191.168	137.73
191.387	-11.78
191.607	10.75
191.826	92.67
192.045	68.09
192.265	76.29
192.484	10.75
192.704	-13.82
192.923	-28.16
193.142	61.95
193.362	43.52
193.581	47.62
193.8	35.33
194.02	-22.02
194.239	12.8
194.458	51.71
194.678	92.67
194.897	80.38
195.116	-11.78
195.335	18.94
195.555	68.09
195.774	-62.98
195.993	51.71
196.212	70.14
196.432	4.61
196.651	78.33
196.87	-5.63
197.089	100.86
197.308	45.57
197.528	27.14
197.747	-13.82
197.966	25.09
198.185	-1.54
198.404	68.09
198.623	104.96
198.842	72.19
199.062	-5.63
199.281	84.48
199.5	0.51
199.719	2.56
199.938	64
200.157	53.76
200.376	92.67
200.595	76.29
200.814	39.42
201.033	57.86
201.252	41.47
201.471	20.99
201.69	59.9
201.909	51.71
202.128	16.9
202.347	-11.78
202.566	2.56
202.785	-5.63
203.004	-7.68
203.223	61.95
203.442	45.57
203.661	39.42
203.879	12.8
204.098	78.33
204.317	10.75
204.536	80.38
204.755	-19.97
204.974	72.19
205.193	51.71
205.411	94.72
205.63	51.71
205.849	-1.54
206.068	74.24
206.287	-9.73
206.505	55.81
206.724	2.56
206.943	10.75
207.162	66.05
207.381	37.38
207.599	-44.54
207.818	35.33
208.037	64
208.255	-28.16
208.474	102.91
208.693	61.95
208.911	-22.02
209.13	45.57
209.349	-19.97
209.567	8.7
209.786	109.05
210.005	55.81
210.223	72.19
210.442	-17.92
210.661	-9.73
210.879	92.67
211.098	29.18
211.316	-19.97
211.535	-1.54
211.753	27.14
211.972	47.62
212.191	49.66
212.409	35.33
212.628	76.29
212.846	18.94
213.065	29.18
213.283	72.19
213.502	2.56
213.72	16.9
213.938	12.8
214.157	100.86
214.375	12.8
214.594	-7.68
214.812	74.24
215.031	88.57
215.249	-46.59
215.467	61.95
215.686	-17.92
215.904	119.29
216.122	74.24
216.341	86.53
216.559	-13.82
216.778	-13.82
216.996	92.67
217.214	59.9
217.432	2.56
217.651	51.71
217.869	39.42
218.087	27.14
218.306	12.8
218.524	74.24
218.742	-13.82
218.96	109.05
219.179	33.28
219.397	10.75
219.615	10.75
219.833	18.94
220.051	-19.97
220.27	100.86
220.488	59.9
220.706	59.9
220.924	10.75
221.142	20.99
221.36	-13.82
221.578	31.23
221.796	18.94
222.015	92.67
222.233	33.28
222.451	96.77
222.669	12.8
222.887	18.94
223.105	-22.02
223.323	18.94
223.541	-19.97
223.759	68.09
223.977	45.57
224.195	86.53
224.413	14.85
224.631	86.53
224.849	23.04
225.067	98.81
225.285	-17.92
225.503	53.76
225.721	-46.59
225.939	43.52
226.157	18.94
226.375	86.53
226.592	14.85
226.81	35.33
227.028	-28.16
227.246	162.3
227.464	10.75
227.682	55.81
227.9	35.33
228.117	78.33
228.335	47.62
228.553	45.57
228.771	-54.78
228.989	129.53
229.206	-30.21
229.424	35.33
229.642	43.52
229.86	-11.78
230.077	43.52
230.295	96.77
230.513	145.92
230.731	33.28
230.948	43.52
231.166	59.9
231.384	37.38
231.601	78.33
231.819	70.14
232.037	18.94
232.254	51.71
232.472	80.38
232.689	-46.59
232.907	33.28
233.125	41.47
233.342	39.42
233.56	27.14
233.777	37.38
233.995	35.33
234.213	86.53
234.43	61.95
234.648	68.09
234.865	92.67
235.083	43.52
235.3	47.62
235.518	27.14
235.735	78.33
235.953	2.56
236.17	59.9
236.388	41.47
236.605	25.09
236.822	55.81
237.04	14.85
237.257	45.57
237.475	59.9
237.692	102.91
237.909	78.33
238.127	43.52
238.344	35.33
238.562	20.99
238.779	-5.63
238.996	35.33
239.214	66.05
239.431	88.57
239.648	27.14
239.865	-19.97
240.083	68.09
240.3	104.96
240.517	-30.21
240.735	86.53
240.952	51.71
241.169	68.09
241.386	2.56
241.603	70.14
241.821	51.71
242.038	70.14
242.255	141.82
242.472	51.71
242.689	-3.58
242.907	78.33
243.124	35.33
243.341	-3.58
243.558	-5.63
243.775	86.53
243.992	88.57
244.209	-87.55
244.426	59.9
244.643	43.52
244.86	27.14
245.078	78.33
245.295	29.18
245.512	70.14
245.729	27.14
245.946	70.14
246.163	51.71
246.38	53.76
246.597	4.61
246.814	51.71
247.031	18.94
247.248	43.52
247.464	10.75
247.681	51.71
247.898	-13.82
248.115	64
248.332	27.14
248.549	88.57
248.766	6.66
248.983	111.1
249.2	45.57
249.417	51.71
249.633	100.86
249.85	59.9
250.067	-38.4
250.284	0.51
250.501	51.71
250.717	94.72
250.934	-38.4
251.151	59.9
251.368	59.9
251.585	43.52
251.801	12.8
252.018	-62.98
252.235	72.19
252.451	61.95
252.668	35.33
252.885	84.48
253.102	-3.58
253.318	-5.63
253.535	8.7
253.752	47.62
253.968	35.33
254.185	-3.58
254.401	-22.02
254.618	27.14
254.835	27.14
255.051	18.94
255.268	-5.63
255.484	29.18
255.701	29.18
255.917	55.81
256.134	6.66
256.351	-5.63
256.567	37.38
256.784	-110.08
257	18.94
257.217	145.92
257.433	14.85
257.65	68.09
257.866	49.66
258.082	-22.02
258.299	84.48
258.515	4.61
258.732	-13.82
258.948	-60.93
259.165	23.04
259.381	70.14
259.597	78.33
259.814	102.91
260.03	-15.87
260.246	27.14
260.463	35.33
260.679	43.52
260.895	18.94
261.112	74.24
261.328	8.7
261.544	20.99
261.761	160.25
261.977	-7.68
262.193	29.18
262.409	25.09
262.626	4.61
262.842	61.95
263.058	35.33
263.274	59.9
263.49	39.42
263.707	16.9
263.923	-1.54
264.139	76.29
264.355	49.66
264.571	90.62
264.787	82.43
265.004	74.24
265.22	-1.54
265.436	31.23
265.652	2.56
265.868	45.57
266.084	104.96
266.3	125.44
266.516	37.38
266.732	2.56
266.948	18.94
267.164	47.62
267.38	45.57
267.596	51.71
267.812	33.28
268.028	53.76
268.244	23.04
268.46	20.99
268.676	57.86
268.892	18.94
269.108	43.52
269.324	-19.97
269.54	43.52
269.756	23.04
269.972	10.75
270.188	-13.82
270.403	37.38
270.619	92.67
270.835	59.9
271.051	55.81
271.267	-38.4
271.483	84.48
271.698	31.23
271.914	96.77
272.13	-26.11
272.346	4.61
272.562	16.9
272.777	78.33
272.993	29.18
273.209	43.52
273.425	125.44
273.64	-67.07
273.856	-19.97
274.072	-9.73
274.287	4.61
274.503	66.05
274.719	8.7
274.934	51.71
275.15	29.18
275.366	76.29
275.581	111.1
275.797	20.99
276.012	154.11
276.228	10.75
276.444	4.61
276.659	39.42
276.875	-11.78
277.09	35.33
277.306	59.9
277.521	104.96
277.737	61.95
277.952	100.86
278.168	-17.92
278.383	27.14
278.599	45.57
278.814	37.38
279.03	59.9
279.245	123.39
279.461	74.24
279.676	20.99
279.892	127.49
280.107	70.14
280.322	-19.97
280.538	35.33
280.753	16.9
280.969	-5.63
281.184	72.19
281.399	109.05
281.615	-11.78
281.83	84.48
282.045	27.14
282.26	14.85
282.476	-24.06
282.691	96.77
282.906	14.85
283.122	51.71
283.337	-15.87
283.552	98.81
283.767	43.52
283.983	27.14
284.198	16.9
284.413	10.75
284.628	31.23
284.843	35.33
285.058	23.04
285.274	41.47
285.489	14.85
285.704	39.42
285.919	27.14
286.134	-15.87
286.349	6.66
286.564	31.23
286.779	-44.54
286.995	12.8
287.21	27.14
287.425	-5.63
287.64	33.28
287.855	133.63
288.07	25.09
288.285	92.67
288.5	55.81
288.715	76.29
288.93	61.95
289.145	23.04
289.36	51.71
289.575	-3.58
289.79	-13.82
290.004	51.71
290.219	139.77
290.434	51.71
290.649	-5.63
290.864	2.56
291.079	12.8
291.294	47.62
291.509	-30.21
291.724	35.33
291.938	18.94
292.153	47.62
292.368	-75.26
292.583	37.38
292.798	51.71
293.012	23.04
293.227	-13.82
293.442	43.52
293.657	76.29
293.871	76.29
294.086	2.56
294.301	133.63
294.516	68.09
294.73	4.61
294.945	53.76
295.16	51.71
295.374	61.95
295.589	59.9
295.804	-69.12
296.018	-30.21
296.233	59.9
296.447	72.19
296.662	-3.58
296.877	10.75
297.091	94.72
297.306	59.9
297.52	-17.92
297.735	39.42
297.949	70.14
298.164	84.48
298.378	8.7
298.593	-75.26
298.807	59.9
299.022	10.75
299.236	59.9
299.451	37.38
299.665	68.09
299.88	12.8
300.094	160.25
300.309	70.14
300.523	59.9
300.737	20.99
300.952	68.09
301.166	68.09
301.381	-9.73
301.595	94.72
301.809	51.71
302.024	80.38
302.238	31.23
302.452	27.14
302.667	43.52
302.881	92.67
303.095	78.33
303.309	20.99
303.524	18.94
303.738	10.75
303.952	18.94
304.166	68.09
304.381	14.85
304.595	64
304.809	49.66
305.023	55.81
305.237	18.94
305.452	43.52
305.666	-3.58
305.88	88.57
306.094	61.95
306.308	141.82
306.522	8.7
306.736	64
306.95	53.76
307.164	84.48
307.379	4.61
307.593	102.91
307.807	107.01
308.021	43.52
308.235	45.57
308.449	-69.12
308.663	-5.63
308.877	133.63
309.091	-5.63
309.305	45.57
309.519	10.75
309.733	20.99
309.947	68.09
310.161	43.52
310.374	119.29
310.588	135.68
310.802	-32.26
311.016	-19.97
311.23	27.14
311.444	-34.3
311.658	27.14
311.872	43.52
312.085	96.77
312.299	178.69
312.513	84.48
312.727	47.62
312.941	68.09
313.154	53.76
313.368	41.47
313.582	-30.21
313.796	61.95
314.009	49.66
314.223	29.18
314.437	-5.63
314.651	72.19
314.864	59.9
315.078	82.43
315.292	47.62
315.505	72.19
315.719	86.53
315.933	80.38
316.146	59.9
316.36	-3.58
316.573	84.48
316.787	39.42
317.001	-5.63
317.214	6.66
317.428	53.76
317.641	-19.97
317.855	47.62
318.068	31.23
318.282	80.38
318.495	113.15
318.709	25.09
318.922	59.9
319.136	90.62
319.349	76.29
319.563	-60.93
319.776	61.95
319.99	10.75
320.203	59.9
320.417	-44.54
320.63	16.9
320.843	51.71
321.057	88.57
321.27	4.61
321.483	41.47
321.697	76.29
321.91	2.56
322.124	59.9
322.337	96.77
322.55	25.09
322.763	-5.63
322.977	4.61
323.19	-26.11
323.403	27.14
323.617	-5.63
323.83	96.77
324.043	51.71
324.256	84.48
324.469	31.23
324.683	39.42
324.896	-5.63
325.109	86.53
325.322	31.23
325.535	84.48
325.748	53.76
325.962	10.75
326.175	23.04
326.388	43.52
326.601	61.95
326.814	37.38
327.027	61.95
327.24	49.66
327.453	-11.78
327.666	43.52
327.879	109.05
328.092	86.53
328.305	35.33
328.518	37.38
328.731	41.47
328.944	2.56
329.157	70.14
329.37	43.52
329.583	111.1
329.796	86.53
330.009	27.14
330.222	16.9
330.435	37.38
330.648	53.76
330.861	88.57
331.073	-46.59
331.286	164.35
331.499	0.51
331.712	55.81
331.925	117.25
332.138	-17.92
332.35	102.91
332.563	12.8
332.776	45.57
332.989	-34.3
333.202	51.71
333.414	29.18
333.627	74.24
333.84	27.14
334.053	107.01
334.265	55.81
334.478	43.52
334.691	-19.97
334.903	98.81
335.116	-3.58
335.329	12.8
335.541	47.62
335.754	78.33
335.966	41.47
336.179	-30.21
336.392	53.76
336.604	47.62
336.817	78.33
337.029	33.28
337.242	-11.78
337.454	25.09
337.667	-9.73
337.88	68.09
338.092	90.62
338.305	100.86
338.517	-5.63
338.729	10.75
338.942	100.86
339.154	4.61
339.367	-22.02
339.579	43.52
339.792	14.85
340.004	125.44
340.217	14.85
340.429	39.42
340.641	96.77
340.854	72.19
341.066	-17.92
341.278	43.52
341.491	107.01
341.703	18.94
341.915	78.33
342.128	-5.63
342.34	59.9
342.552	4.61
342.764	0.51
342.977	37.38
343.189	92.67
343.401	55.81
343.613	55.81
343.826	31.23
344.038	20.99
344.25	45.57
344.462	-89.6
344.674	43.52
344.886	39.42
345.099	33.28
345.311	47.62
345.523	18.94
345.735	29.18
345.947	68.09
346.159	55.81
346.371	55.81
346.583	109.05
346.795	84.48
347.007	41.47
347.219	51.71
347.431	-38.4
347.643	64
347.855	88.57
348.067	119.29
348.279	29.18
348.491	-3.58
348.703	20.99
348.915	-34.3
349.127	20.99
349.339	64
349.551	25.09
349.763	117.25
349.975	41.47
350.187	113.15
350.399	141.82
350.61	96.77
350.822	45.57
351.034	115.2
351.246	68.09
351.458	84.48
351.669	137.73
351.881	55.81
352.093	45.57
352.305	100.86
352.517	16.9
352.728	29.18
352.94	55.81
353.152	12.8
353.363	8.7
353.575	72.19
353.787	51.71
353.999	41.47
354.21	141.82
354.422	68.09
354.633	20.99
354.845	10.75
355.057	53.76
355.268	35.33
355.48	51.71
355.692	14.85
355.903	92.67
356.115	51.71
356.326	-13.82
356.538	82.43
356.749	61.95
356.961	61.95
357.172	-11.78
357.384	59.9
357.595	35.33
357.807	29.18
358.018	20.99
358.23	76.29
358.441	96.77
358.653	16.9
358.864	84.48
359.075	33.28
359.287	43.52
359.498	115.2
359.709	96.77
359.921	39.42
360.132	55.81
360.344	27.14
360.555	-9.73
360.766	18.94
360.977	64
361.189	80.38
361.4	43.52
361.611	76.29
361.823	43.52
362.034	70.14
362.245	51.71
362.456	45.57
362.667	88.57
362.879	51.71
363.09	109.05
363.301	39.42
363.512	27.14
363.723	35.33
363.935	70.14
364.146	94.72
364.357	-7.68
364.568	-9.73
364.779	2.56
364.99	55.81
365.201	68.09
365.412	74.24
365.623	2.56
365.834	72.19
366.045	37.38
366.256	84.48
366.467	64
366.678	104.96
366.889	51.71
367.1	96.77
367.311	47.62
367.522	66.05
367.733	-30.21
367.944	68.09
368.155	8.7
368.366	31.23
368.577	51.71
368.788	53.76
368.999	-3.58
369.209	10.75
369.42	72.19
369.631	94.72
369.842	39.42
370.053	35.33
370.264	0.51
370.474	94.72
370.685	109.05
370.896	45.57
371.107	-1.54
371.317	37.38
371.528	127.49
371.739	86.53
371.95	70.14
372.16	88.57
372.371	41.47
372.582	182.78
372.792	119.29
373.003	88.57
373.214	100.86
373.424	125.44
373.635	-9.73
373.846	127.49
374.056	-13.82
374.267	-9.73
374.477	88.57
374.688	59.9
374.898	125.44
375.109	37.38
375.319	53.76
375.53	133.63
375.74	45.57
375.951	88.57
376.161	66.05
376.372	61.95
376.582	100.86
376.793	61.95
377.003	98.81
377.214	64
377.424	113.15
377.635	61.95
377.845	2.56
378.055	29.18
378.266	45.57
378.476	51.71
378.686	18.94
378.897	59.9
379.107	39.42
379.317	39.42
379.528	100.86
379.738	141.82
379.948	61.95
380.158	76.29
380.369	43.52
380.579	137.73
380.789	43.52
380.999	100.86
381.21	68.09
381.42	96.77
381.63	-46.59
381.84	43.52
382.05	70.14
382.261	131.58
382.471	18.94
382.681	160.25
382.891	139.77
383.101	115.2
383.311	98.81
383.521	84.48
383.731	113.15
383.941	119.29
384.151	53.76
384.361	4.61
384.571	70.14
384.781	27.14
384.991	109.05
385.201	86.53
385.411	92.67
385.621	29.18
385.831	100.86
386.041	76.29
386.251	-28.16
386.461	80.38
386.671	57.86
386.881	43.52
387.091	86.53
387.301	47.62
387.511	39.42
387.72	111.1
387.93	23.04
388.14	39.42
388.35	23.04
388.56	88.57
388.769	18.94
388.979	64
389.189	25.09
389.399	27.14
389.609	109.05
389.818	100.86
390.028	82.43
390.238	45.57
390.447	37.38
390.657	18.94
390.867	27.14
391.076	53.76
391.286	59.9
391.496	70.14
391.705	96.77
391.915	131.58
392.125	88.57
392.334	104.96
392.544	117.25
392.753	51.71
392.963	70.14
393.172	23.04
393.382	-38.4
393.591	111.1
393.801	125.44
394.01	121.34
394.22	10.75
394.429	78.33
394.639	55.81
394.848	76.29
395.058	88.57
395.267	109.05
395.477	27.14
395.686	84.48
395.895	190.97
396.105	92.67
396.314	152.06
396.524	156.16
396.733	86.53
396.942	84.48
397.152	119.29
397.361	152.06
397.57	92.67
397.78	117.25
397.989	119.29
398.198	168.45
398.407	96.77
398.617	76.29
398.826	35.33
399.035	72.19
399.244	121.34
399.453	96.77
399.663	143.87
399.872	182.78
400.081	123.39
400.29	113.15
400.499	100.86
400.708	121.34
400.917	121.34
401.127	80.38
401.336	113.15
401.545	133.63
401.754	121.34
401.963	141.82
402.172	152.06
402.381	190.97
402.59	152.06
402.799	145.92
403.008	88.57
403.217	129.53
403.426	186.88
403.635	141.82
403.844	143.87
404.053	176.64
404.262	119.29
404.471	246.27
404.68	233.98
404.888	186.88
405.097	260.6
405.306	213.5
405.515	209.4
405.724	203.26
405.933	188.93
406.142	215.55
406.35	229.88
406.559	174.59
406.768	244.22
406.977	252.41
407.185	272.89
407.394	166.4
407.603	213.5
407.812	248.32
408.02	301.56
408.229	190.97
408.438	283.13
408.646	225.79
408.855	207.36
409.064	305.66
409.272	248.32
409.481	356.86
409.69	303.61
409.898	303.61
410.107	358.91
410.315	395.77
410.524	412.15
410.733	436.73
410.941	375.29
411.15	406.01
411.358	416.25
411.567	387.58
411.775	383.48
411.984	422.39
412.192	510.46
412.401	455.16
412.609	463.35
412.818	512.5
413.026	602.61
413.234	561.66
413.443	590.33
413.651	616.95
413.86	633.33
414.068	668.15
414.276	686.58
414.485	647.67
414.693	762.36
414.901	782.84
415.11	815.6
415.318	784.88
415.526	707.06
415.734	840.18
415.943	862.71
416.151	913.91
416.359	887.28
416.567	991.73
416.776	995.82
416.984	1100.27
417.192	1083.89
417.4	1149.42
417.608	1014.26
417.817	1255.92
418.025	1282.54
418.233	1288.68
418.441	1331.69
418.649	1307.12
418.857	1450.47
419.065	1489.39
419.273	1415.66
419.481	1356.27
419.689	1552.87
419.897	1653.22
420.105	1688.04
420.313	1659.37
420.521	1821.16
420.729	1755.62
420.937	1833.44
421.145	1896.93
421.353	2054.62
421.561	2173.41
421.769	2148.83
421.977	2189.79
422.185	2275.81
422.393	2329.05
422.601	2417.12
422.809	2361.82
423.017	2560.47
423.224	2476.51
423.432	2787.8
423.64	2793.94
423.848	2935.25
424.056	2886.1
424.263	2990.55
424.471	3164.62
424.679	3244.49
424.887	3445.2
425.094	3373.52
425.302	3459.53
425.51	3568.07
425.718	3606.98
425.925	3750.34
426.133	4037.06
426.341	4049.35
426.548	4368.83
426.756	4235.71
426.964	4299.2
427.171	4551.1
427.379	4784.57
427.586	4776.38
427.794	4893.11
428.001	5284.27
428.209	5403.05
428.417	5327.28
428.624	5710.25
428.832	5540.27
429.039	5511.6
429.247	5734.82
429.454	6115.75
429.662	6500.76
429.869	5935.53
430.076	6513.05
430.284	6375.84
430.491	6779.29
430.699	6934.93
430.906	7203.22
431.114	6920.6
431.321	7152.02
431.528	7375.25
431.736	7956.87
431.943	8440.19
432.15	8108.42
432.358	8225.15
432.565	8788.35
432.772	8671.61
432.979	9060.73
433.187	9126.26
433.394	9154.93
433.601	9841
433.808	10070.37
434.016	9658.73
434.223	10248.55
434.43	10940.76
434.637	10647.9
434.844	11540.82
435.052	11438.42
435.259	11604.3
435.466	11549.01
435.673	11520.34
435.88	12126.53
436.087	12749.12
436.294	12572.99
436.501	12544.32
436.708	12828.99
436.915	13207.86
437.122	13756.72
437.329	13771.05
437.537	14305.57
437.743	14518.56
437.95	14403.88
438.157	15096.09
438.364	15509.78
438.571	15534.35
438.778	15784.21
438.985	16943.36
439.192	16273.67
439.399	16974.08
439.606	16445.7
439.813	17615.09
440.02	18493.67
440.227	18129.13
440.433	17936.62
440.64	18510.05
440.847	18258.15
441.054	18761.95
441.261	20130
441.467	19812.56
441.674	20379.85
441.881	20877.51
442.088	20764.87
442.294	20613.32
442.501	21274.81
442.708	21899.44
442.914	22870.18
443.121	23593.11
443.328	22773.92
443.534	24514.7
443.741	23990.42
443.948	23517.34
444.154	25145.47
444.361	24803.46
444.568	25208.96
444.774	25153.66
444.981	25434.24
445.187	25960.56
445.394	27097.19
445.6	26583.15
445.807	29067.33
446.013	28139.6
446.22	28837.96
446.426	29550.65
446.633	30038.07
446.839	31000.61
447.046	29481.02
447.252	31436.83
447.459	31158.31
447.665	31080.49
447.871	32716.81
448.078	34047.99
448.284	32411.67
448.491	33536
448.697	34215.93
448.903	35506.15
449.11	34977.77
449.316	34789.36
449.522	35264.49
449.728	36575.19
449.935	36425.68
450.141	36546.51
450.347	37367.75
450.553	36423.64
450.76	36923.34
450.966	38141.88
451.172	37484.48
451.378	38485.94
451.584	37367.75
451.791	38647.73
451.997	38340.53
452.203	39223.21
452.409	39194.54
452.615	38952.88
452.821	37048.27
453.027	36970.44
453.233	39053.23
453.44	37605.31
453.646	37740.48
453.852	37851.07
454.058	38672.31
454.264	37205.96
454.47	38657.97
454.676	37175.24
454.882	38449.08
455.088	35188.71
455.294	36267.99
455.5	36190.17
455.705	36655.06
455.911	35039.21
456.117	34600.94
456.323	34131.96
456.529	32143.38
456.735	33597.44
456.941	33159.17
457.147	32385.04
457.352	31709.21
457.558	30693.42
457.764	31217.7
457.97	30480.43
458.176	29673.53
458.381	29907
458.587	28371.02
458.793	28633.16
458.999	26966.12
459.204	28899.4
459.41	28282.96
459.616	26118.26
459.821	26335.34
460.027	26312.81
460.233	25858.17
460.438	24447.11
460.644	25061.51
460.85	23658.65
461.055	23273.63
461.261	23335.07
461.466	21633.21
461.672	21031.1
461.878	22315.18
462.083	20879.55
462.289	20656.32
462.494	20451.53
462.7	19280.09
462.905	18909.41
463.111	19712.21
463.316	19605.72
463.522	19232.99
463.727	19249.37
463.932	19429.59
464.138	18940.13
464.343	19101.92
464.549	18321.64
464.754	19325.15
464.959	19228.89
465.165	18780.39
465.37	17961.2
465.575	17727.73
465.781	18362.6
465.986	18249.96
466.191	17627.38
466.397	17340.66
466.602	16445.7
466.807	17158.39
467.012	17260.79
467.218	16974.08
467.423	17049.85
467.628	17185.02
467.833	17715.44
468.038	17096.96
468.244	16523.52
468.449	17058.04
468.654	16564.48
468.859	16496.9
469.064	16281.86
469.269	15909.13
469.474	15833.36
469.679	16079.11
469.885	15894.8
470.09	15929.61
470.295	15939.85
470.5	15382.81
470.705	15528.21
470.91	15251.74
471.115	15196.44
471.32	15382.81
471.525	15161.62
471.73	14899.48
471.935	14811.42
472.139	14367.01
472.344	14657.82
472.549	14278.95
472.754	14172.46
472.959	14012.71
473.164	13785.39
473.369	13629.74
473.574	14086.44
473.778	13740.33
473.983	13799.73
474.188	13635.89
474.393	13021.5
474.598	13171
474.802	13046.07
475.007	12894.52
475.212	12994.87
475.417	12317
475.621	12433.73
475.826	12581.18
476.031	12292.42
476.235	12218.69
476.44	12562.75
476.645	11983.18
476.849	12052.81
477.054	11723.09
477.259	11729.23
477.463	11833.68
477.668	11381.07
477.872	11577.68
478.077	11430.23
478.282	11114.84
478.486	10994.01
478.691	11174.23
478.895	11002.2
479.1	10922.33
479.304	10824.03
479.509	10445.15
479.713	10676.57
479.918	10570.08
480.122	10482.02
480.326	10457.44
480.531	10725.72
480.735	10389.86
480.94	10346.85
481.144	10873.18
481.348	10148.2
481.553	10121.57
481.757	9963.88
481.961	10344.8
482.166	10324.32
482.37	10250.6
482.574	9990.5
482.778	9939.3
482.983	10168.68
483.187	10074.47
483.391	10240.36
483.595	10180.96
483.8	9998.7
484.004	10119.53
484.208	10221.92
484.412	10146.15
484.616	10269.03
484.821	10256.74
485.025	9746.8
485.229	10221.92
485.433	9961.83
485.637	9931.11
485.841	10215.78
486.045	9982.31
486.249	10135.91
486.453	9937.26
486.657	10068.33
486.861	10101.09
487.065	9855.34
487.269	10201.44
487.473	9742.7
487.677	10107.24
487.881	10281.32
488.085	9998.7
488.289	10068.33
488.493	10066.28
488.697	10234.21
488.901	10291.55
489.105	10029.41
489.309	10269.03
489.512	10332.51
489.716	10406.24
489.92	10144.1
490.124	10176.87
490.328	10398.05
490.531	10332.51
490.735	10367.33
490.939	10496.35
491.143	10428.77
491.346	10283.36
491.55	10606.94
491.754	10482.02
491.958	10623.33
492.161	10580.32
492.365	10602.85
492.569	10731.87
492.772	10604.89
492.976	10881.37
493.18	10479.97
493.383	11010.39
493.587	11028.82
493.79	11231.57
493.994	10869.08
494.197	11030.87
494.401	11237.72
494.605	11180.37
494.808	11495.76
495.012	11354.45
495.215	11553.1
495.419	11723.09
495.622	11700.56
495.825	11702.61
496.029	11675.98
496.232	11913.55
496.436	12020.04
496.639	12214.6
496.843	12149.06
497.046	12441.92
497.249	12503.36
497.453	12675.39
497.656	12841.28
497.859	12753.21
498.063	12933.43
498.266	13230.39
498.469	13306.16
498.673	13087.03
498.876	13273.4
499.079	13467.95
499.282	13633.84
499.485	13904.17
499.689	13824.3
499.892	14135.59
500.095	14133.54
500.298	14496.03
500.501	14262.57
500.705	14756.13
500.908	14965.02
501.111	15046.94
501.314	15042.84
501.517	15612.18
501.72	15601.94
501.923	15638.8
502.126	15913.23
502.329	15929.61
502.532	16212.23
502.735	16201.99
502.938	16533.76
503.141	16836.86
503.344	16904.45
503.547	16881.92
503.75	17279.22
503.953	17496.31
504.156	17371.38
504.359	17961.2
504.562	17764.59
504.765	18204.91
504.968	18598.12
505.17	18176.23
505.373	18720.99
505.576	19149.02
505.779	19001.57
505.982	19089.63
506.185	19550.42
506.387	19302.62
506.59	19728.59
506.793	20154.57
506.996	20181.2
507.198	20596.93
507.401	20330.7
507.604	21096.64
507.807	21301.43
508.009	21323.96
508.212	21383.35
508.415	21526.71
508.617	21924.02
508.82	21899.44
509.022	21936.31
509.225	22610.09
509.428	22810.79
509.63	22870.18
509.833	23240.86
510.035	23804.05
510.238	23580.82
510.44	23711.89
510.643	24207.5
510.845	24314
511.048	24193.17
511.25	24799.37
511.453	24815.75
511.655	25714.81
511.858	24977.54
512.06	25583.74
512.262	25983.09
512.465	25731.19
512.667	26132.59
512.87	26554.47
513.072	26167.41
513.274	27193.44
513.477	27533.4
513.679	27308.13
513.881	27826.26
514.084	27936.85
514.286	28041.3
514.488	28301.39
514.69	28891.21
514.893	28919.88
515.095	28844.1
515.297	29515.84
515.499	29626.43
515.701	29622.33
515.904	30175.28
516.106	30468.14
516.308	30658.6
516.51	30947.37
516.712	31158.31
516.914	31160.36
517.116	31907.87
517.318	31543.33
517.52	32241.68
517.722	32129.05
517.925	32405.52
518.127	32905.23
518.329	33210.37
518.531	33476.61
518.733	33548.29
518.935	34017.27
519.136	34199.54
519.338	34543.6
519.54	35016.68
519.742	34838.51
519.944	34871.28
520.146	35368.93
520.348	35702.75
520.55	35788.77
520.752	36202.46
520.954	36278.23
521.155	36235.22
521.357	36909
521.559	37261.26
521.761	37711.81
521.963	37611.46
522.164	38057.92
522.366	37699.52
522.568	38082.49
522.77	38485.94
522.971	39028.65
523.173	38614.96
523.375	38868.91
523.576	39288.74
523.778	39501.73
523.98	39968.67
524.181	39860.13
524.383	40239
524.584	40525.72
524.786	40138.65
524.988	40073.12
525.189	40656.79
525.391	41224.07
525.592	40898.45
525.794	41414.54
525.995	41373.58
526.197	41375.62
526.398	41181.07
526.6	41709.44
526.801	42151.8
527.003	42276.73
527.204	42047.36
527.406	42495.86
527.607	42346.36
527.808	42792.82
528.01	42133.37
528.211	42549.11
528.412	43149.17
528.614	43046.77
528.815	42907.51
529.016	43155.31
529.218	43132.78
529.419	43210.6
529.62	43323.24
529.822	43304.81
530.023	43736.93
530.224	43644.77
530.425	43478.89
530.626	43151.21
530.828	43462.5
531.029	44306.27
531.23	43759.46
531.431	43784.04
531.632	44392.28
531.833	43890.53
532.035	44195.68
532.236	44326.75
532.437	44076.9
532.638	44021.6
532.839	44377.95
533.04	44513.11
533.241	43732.84
533.442	44748.63
533.643	44455.77
533.844	44369.75
534.045	44193.63
534.246	43898.72
534.447	45021.01
534.648	44474.2
534.849	44769.11
535.05	44169.05
535.251	44840.79
535.451	44177.25
535.652	44482.39
535.853	44048.22
536.054	44382.04
536.255	44805.97
536.456	44193.63
536.657	44498.78
536.857	44289.88
537.058	44253.02
537.259	44736.34
537.46	44644.18
537.66	44937.04
537.861	44656.47
538.062	44679
538.263	44705.62
538.463	44545.88
538.664	44400.47
538.865	44834.64
539.065	44822.36
539.266	44146.53
539.466	44883.8
539.667	43896.67
539.868	44863.32
540.068	44760.92
540.269	44384.09
540.469	44547.93
540.67	44326.75
540.87	44302.17
541.071	44277.6
541.271	44531.54
541.472	44592.98
541.672	43933.54
541.873	43868
542.073	43925.35
542.274	44685.14
542.474	44330.84
542.675	44005.22
542.875	44486.49
543.075	44130.14
543.276	43626.34
543.476	44414.81
543.676	43927.39
543.877	44193.63
544.077	44175.2
544.277	43966.31
544.478	43939.68
544.678	44449.63
544.878	44150.62
545.078	44169.05
545.279	43847.52
545.479	44160.86
545.679	44179.29
545.879	43888.48
546.079	44162.91
546.28	43949.92
546.48	43716.45
546.68	44255.07
546.88	44031.84
547.08	44382.04
547.28	43917.15
547.48	43495.27
547.68	44119.9
547.88	43913.06
548.081	44023.65
548.281	44199.77
548.481	43859.81
548.681	44128.09
548.881	44367.71
549.081	44037.98
549.28	43659.11
549.48	43673.45
549.68	43583.33
549.88	44312.41
550.08	43657.06
550.28	44056.42
550.48	43630.44
550.68	44023.65
550.88	43743.08
551.08	44195.68
551.279	43663.21
551.479	43214.7
551.679	43874.15
551.879	43779.94
552.079	43687.78
552.278	43587.43
552.478	43714.4
552.678	43183.98
552.878	43949.92
553.077	43581.29
553.277	43290.48
553.477	43958.11
553.676	43378.54
553.876	43730.79
554.076	43464.55
554.275	43503.46
554.475	43116.4
554.674	43528.04
554.874	43347.82
555.074	43396.97
555.273	43718.5
555.473	43679.59
555.672	43093.87
555.872	43110.25
556.071	43171.69
556.271	43370.35
556.47	42766.2
556.67	42884.98
556.869	43026.29
557.068	43274.09
557.268	43059.05
557.467	42979.18
557.667	42715
557.866	43048.82
558.065	42862.45
558.265	42657.65
558.464	42467.19
558.663	43294.57
558.863	42418.04
559.062	42815.35
559.261	42205.05
559.461	43278.19
559.66	42039.17
559.859	42354.55
560.058	42409.85
560.258	42499.96
560.457	41875.33
560.656	42434.42
560.855	42207.1
561.054	42041.21
561.253	41508.74
561.453	41932.67
561.652	42160
561.851	41981.82
562.05	41725.83
562.249	41525.13
562.448	41957.25
562.647	41940.86
562.846	41643.91
563.045	41860.99
563.244	41508.74
563.443	41756.55
563.642	41041.81
563.841	41512.84
564.04	40880.02
564.239	41471.88
564.438	40904.59
564.637	41197.45
564.836	41498.5
565.035	40730.51
565.234	41002.89
565.432	40832.91
565.631	40247.19
565.83	41086.86
566.029	40992.65
566.228	40607.64
566.427	40333.21
566.625	40484.76
566.824	40007.58
567.023	40814.48
567.222	39813.02
567.42	40540.05
567.619	40273.82
567.818	40279.96
568.016	39952.29
568.215	40521.62
568.414	39888.8
568.612	39993.25
568.811	39464.87
569.01	40007.58
569.208	39235.5
569.407	39913.37
569.605	39114.67
569.804	39507.88
570.002	39059.37
570.201	39679.91
570.4	39047.08
570.598	38870.96
570.797	38864.81
570.995	39243.69
571.193	38901.68
571.392	39141.29
571.59	38748.08
571.789	38727.6
571.987	38547.38
572.186	38412.21
572.384	38309.82
572.582	38338.49
572.781	38647.73
572.979	37695.42
573.177	38213.56
573.376	37861.31
573.574	37676.99
573.772	38070.2
573.971	37638.08
574.169	37765.06
574.367	37740.48
574.565	37957.56
574.763	37396.42
574.962	37414.85
575.16	37347.27
575.358	37259.21
575.556	36906.96
575.754	37584.83
575.952	37177.29
576.151	36927.44
576.349	36796.37
576.547	36939.72
576.745	37044.17
576.943	36765.65
577.141	37013.45
577.339	36691.92
577.537	36650.96
577.735	36141.02
577.933	36087.77
578.131	36798.41
578.329	35770.33
578.527	35858.4
578.725	35979.23
578.923	35958.75
579.121	35231.72
579.319	35825.63
579.516	36011.99
579.714	35657.7
579.912	35401.7
580.11	35332.07
580.308	35516.39
580.506	35309.54
580.704	34877.42
580.901	35096.55
581.099	35405.8
581.297	34568.18
581.495	34705.39
581.692	34805.74
581.89	34596.85
582.088	34734.06
582.285	34785.26
582.483	34070.52
582.681	34473.97
582.878	34271.22
583.076	33912.83
583.274	34404.34
583.471	33542.14
583.669	33828.86
583.866	33683.45
584.064	34197.49
584.262	33576.96
584.459	34004.99
584.657	33572.86
584.854	34045.94
585.052	32989.19
585.249	33200.13
585.447	33318.92
585.644	32917.51
585.841	33099.78
586.039	33507.33
586.236	32698.38
586.434	32784.4
586.631	32690.19
586.828	32581.65
587.026	32536.59
587.223	32604.17
587.42	32159.77
587.618	32727.05
587.815	31823.9
588.012	32110.61
588.21	32020.5
588.407	31889.43
588.604	32307.22
588.801	31387.68
588.999	31668.25
589.196	31827.99
589.393	31682.59
589.59	31447.07
589.787	31498.27
589.984	31078.44
590.182	31125.54
590.379	31186.98
590.576	30867.5
590.773	30855.21
590.97	30935.08
591.167	31008.81
591.364	30599.21
591.561	30625.84
591.758	30378.03
591.955	30249.01
592.152	30543.92
592.349	30490.67
592.546	30216.24
592.743	30255.15
592.94	29820.98
593.137	30218.29
593.334	30029.88
593.531	29386.82
593.727	30173.24
593.924	29773.88
594.121	29628.48
594.318	29743.16
594.515	29106.24
594.712	29624.38
594.908	29079.62
595.105	29675.58
595.302	28784.71
595.499	29151.3
595.696	28952.65
595.892	28819.53
596.089	29059.14
596.286	28919.88
596.482	28708.94
596.679	29184.07
596.876	28645.45
597.072	28424.27
597.269	28778.57
597.466	27893.85
597.662	28170.32
597.859	27996.24
598.055	28233.81
598.252	27762.78
598.448	27736.15
598.645	27848.79
598.841	27811.93
599.038	27488.35
599.234	27584.6
599.431	27238.5
599.627	27228.26
599.824	27586.65
600.02	27379.81
600.217	27441.25
600.413	26746.98
600.609	26800.23
600.806	27007.08
601.002	26931.3
601.198	26785.9
601.395	26542.19
601.591	26740.84
601.787	26521.71
601.984	26239.09
602.18	26761.32
602.376	26275.95
602.572	26214.51
602.769	26368.11
602.965	25931.89
603.161	26351.73
603.357	26046.58
603.553	25704.57
603.75	25913.46
603.946	25540.73
604.142	25788.53
604.338	25548.92
604.534	25413.76
604.73	25198.72
604.926	25364.6
605.122	25358.46
605.318	25204.86
605.514	25112.7
605.71	25047.17
605.906	25352.32
606.102	25223.3
606.298	25258.11
606.494	25194.62
606.69	24746.12
606.886	24846.47
607.082	24602.76
607.278	24729.73
607.474	24373.39
607.67	24979.59
607.866	24131.73
608.062	24438.92
608.257	24365.2
608.453	24027.28
608.649	24350.86
608.845	24092.82
609.041	24268.94
609.236	24131.73
609.432	23974.03
609.628	24172.69
609.824	23707.8
610.019	23443.61
610.215	23820.44
610.411	23783.57
610.606	23820.44
610.802	23697.56
610.998	23615.64
611.193	23722.13
611.389	23177.37
611.584	23550.1
611.78	23392.41
611.976	23554.2
612.171	23535.77
612.367	23376.03
612.562	23255.2
612.758	23038.11
612.953	23128.22
613.149	23564.44
613.344	22931.62
613.539	23464.09
613.735	23136.41
613.93	23019.68
614.126	22694.05
614.321	23021.73
614.517	22765.73
614.712	22956.19
614.907	22673.57
615.103	22911.14
615.298	22374.57
615.493	22937.76
615.688	22554.79
615.884	22898.85
616.079	22456.49
616.274	22485.16
616.47	22419.63
616.665	22427.82
616.86	22116.53
617.055	22212.78
617.25	22141.1
617.445	22460.59
617.641	21792.95
617.836	22354.09
618.031	21835.95
618.226	21991.6
618.421	21883.06
618.616	22036.66
618.811	21686.45
619.006	21760.18
619.201	21485.75
619.396	21434.55
619.591	21104.83
619.786	21833.91
619.981	20979.9
620.176	21510.33
620.371	21063.87
620.566	21010.62
620.761	20963.52
620.956	20797.63
621.151	20347.08
621.346	20885.7
621.541	20332.75
621.735	20629.7
621.93	20291.79
622.125	20592.84
622.32	19972.3
622.515	20109.52
622.709	20273.35
622.904	20136.14
623.099	19955.92
623.294	19970.26
623.488	19468.5
623.683	19583.19
623.878	19513.56
624.072	19216.6
624.267	19235.03
624.462	18981.09
624.656	18981.09
624.851	18999.52
625.046	18866.4
625.24	18751.71
625.435	18735.33
625.629	18516.2
625.824	18315.5
626.018	18266.35
626.213	18045.16
626.407	18350.31
626.602	17756.4
626.796	17797.36
626.991	17682.67
627.185	17746.16
627.38	17735.92
627.574	17670.39
627.768	17416.44
627.963	17422.58
628.157	17307.9
628.352	17285.37
628.546	17119.48
628.74	17305.85
628.935	16922.88
629.129	16867.58
629.323	16636.16
629.517	16554.24
629.712	16806.14
629.906	16611.59
630.1	16433.41
630.294	16355.59
630.489	16222.47
630.683	16191.75
630.877	15941.9
631.071	15935.76
631.265	15718.67
631.459	16042.25
631.653	15698.19
631.848	15640.85
632.042	15542.55
632.236	15778.06
632.43	15264.02
632.624	15323.41
632.818	15391
633.012	15288.6
633.206	15100.19
633.4	15046.94
633.594	14936.35
633.788	14960.92
633.982	15003.93
634.176	14700.83
634.369	14749.98
634.563	14657.82
634.757	14493.99
634.951	14487.84
635.145	14391.59
635.339	14342.44
635.533	14496.03
635.726	14078.25
635.92	13986.09
636.114	14217.51
636.308	13990.19
636.501	13682.99
636.695	13904.17
636.889	13998.38
637.083	13648.18
637.276	13580.59
637.47	13467.95
637.664	13723.95
637.857	13635.89
638.051	13351.22
638.244	13476.15
638.438	13314.36
638.632	13216.05
638.825	12917.05
639.019	12935.48
639.212	12800.32
639.406	12796.22
639.599	13035.83
639.793	12845.37
639.986	12681.53
640.18	12659.01
640.373	12605.76
640.567	12532.03
640.76	12560.7
640.954	12187.97
641.147	12163.4
641.34	12161.35
641.534	12175.69
641.727	12136.77
641.92	12149.06
642.114	11981.13
642.307	11833.68
642.5	12061
642.694	11430.23
642.887	11643.21
643.08	11872.59
643.273	11639.12
643.467	11450.71
643.66	11569.49
643.853	11508.05
644.046	11264.34
644.239	11465.04
644.432	11096.41
644.626	11055.45
644.819	11090.26
645.012	11057.5
645.205	11168.09
645.398	11000.15
645.591	10864.99
645.784	10897.75
645.977	10713.44
646.17	11069.78
646.363	10864.99
646.556	10570.08
646.749	10510.69
646.942	10545.5
647.135	10455.39
647.328	10488.16
647.521	10355.04
647.714	10094.95
647.907	10307.94
648.099	10297.7
648.292	10125.67
648.485	9847.15
648.678	9918.82
648.871	9886.06
649.064	10004.84
649.256	10027.37
649.449	9838.95
649.642	9683.31
649.835	9515.37
650.027	9716.08
650.22	9482.61
650.413	9468.27
650.605	9673.07
650.798	9507.18
650.991	9310.58
651.183	9447.79
651.376	9357.68
651.568	9347.44
651.761	9341.3
651.954	9267.57
652.146	9214.32
652.339	9189.75
652.531	8991.09
652.724	9070.97
652.916	8804.73
653.109	8913.27
653.301	8825.21
653.494	8900.98
653.686	8788.35
653.879	8974.71
654.071	8499.58
654.263	8601.98
654.456	8685.95
654.648	8700.28
654.84	8413.57
655.033	8337.79
655.225	8440.19
655.417	8446.34
655.61	8464.77
655.802	8171.91
655.994	7977.35
656.186	8190.34
656.379	7940.49
656.571	8100.23
656.763	8049.03
656.955	8106.37
657.148	8171.91
657.34	7874.95
657.532	7842.18
657.724	7729.55
657.916	7811.46
658.108	7713.16
658.3	7655.82
658.492	7696.78
658.684	7522.7
658.876	7809.42
659.068	7469.45
659.26	7377.3
659.452	7465.36
659.644	7522.7
659.836	7203.22
660.028	7434.64
660.22	7250.32
660.412	7219.6
660.604	7104.92
660.796	7190.93
660.988	7113.11
661.18	7084.44
661.372	7033.24
661.563	7219.6
661.755	7096.72
661.947	7023
662.139	6984.09
662.331	7010.71
662.522	6918.55
662.714	6801.82
662.906	6658.46
663.097	6953.37
663.289	6607.26
663.481	6603.16
663.673	6771.1
663.864	6541.72
664.056	6740.38
664.247	6613.4
664.439	6408.61
664.631	6578.59
664.822	6547.87
665.014	6537.63
665.205	6328.74
665.397	6295.97
665.588	6371.74
665.78	6232.48
665.971	6261.15
666.163	6171.04
666.354	6039.97
666.546	6375.84
666.737	6162.85
666.929	6093.22
667.12	5982.63
667.311	6119.84
667.503	5974.44
667.694	5970.34
667.885	5990.82
668.077	5898.66
668.268	5874.09
668.459	5927.33
668.651	5802.41
668.842	6048.16
669.033	5706.15
669.224	5695.91
669.416	5810.6
669.607	5659.05
669.798	5732.78
669.989	5654.95
670.18	5511.6
670.371	5495.21
670.563	5499.31
670.754	5515.69
670.945	5482.92
671.136	5591.47
671.327	5466.54
671.518	5458.35
671.709	5405.1
671.9	5466.54
672.091	5378.48
672.282	5323.18
672.473	5198.26
672.664	5296.56
672.855	5292.46
673.046	5210.54
673.237	5380.53
673.428	5226.93
673.619	5220.78
673.809	5206.45
674	5026.23
674.191	5011.89
674.382	5034.42
674.573	5149.11
674.764	4944.31
674.954	4966.84
675.145	4934.07
675.336	4950.45
675.527	4872.63
675.717	4977.08
675.908	4805.05
676.099	4889.01
676.289	4884.92
676.48	4774.33
676.671	4704.7
676.861	4725.18
677.052	4655.54
677.243	4657.59
677.433	4762.04
677.624	4721.08
677.814	4673.98
678.005	4635.07
678.195	4522.43
678.386	4577.72
678.576	4401.6
678.767	4592.06
678.957	4501.95
679.148	4561.34
679.338	4368.83
679.529	4551.1
679.719	4551.1
679.909	4501.95
680.1	4434.36
680.29	4434.36
680.481	4364.73
680.671	4379.07
680.861	4370.88
681.052	4389.31
681.242	4426.17
681.432	4301.25
681.622	4204.99
681.813	4268.48
682.003	4346.3
682.193	4229.57
682.383	4192.7
682.573	4374.97
682.764	4223.42
682.954	4170.18
683.144	4106.69
683.334	4133.31
683.524	4186.56
683.714	4321.73
683.904	4106.69
684.094	4098.5
684.284	3922.37
684.474	4164.03
684.664	4075.97
684.854	4082.11
685.044	4012.48
685.234	4043.2
685.424	3967.43
685.614	3979.72
685.804	3922.37
685.994	3914.18
686.184	4010.43
686.374	3895.75
686.564	3844.55
686.753	3762.63
686.943	3674.57
687.133	3803.59
687.323	3805.64
687.513	3776.97
687.702	3693
687.892	3746.25
688.082	3690.95
688.272	3606.98
688.461	3693
688.651	3742.15
688.841	3680.71
689.03	3625.42
689.22	3559.88
689.41	3598.79
689.599	3574.22
689.789	3566.03
689.979	3572.17
690.168	3518.92
690.358	3541.45
690.547	3520.97
690.737	3434.96
690.926	3445.2
691.116	3408.33
691.305	3490.25
691.495	3394
691.684	3514.83
691.874	3502.54
692.063	3314.13
692.252	3490.25
692.442	3396.04
692.631	3443.15
692.82	3455.44
693.01	3303.89
693.199	3236.3
693.388	3234.25
693.578	3289.55
693.767	3461.58
693.956	3084.75
694.146	3303.89
694.335	3181.01
694.524	3252.69
694.713	3314.13
694.902	3148.24
695.092	3201.49
695.281	3146.19
695.47	3125.71
695.659	3056.08
695.848	3066.32
696.037	3230.16
696.226	3062.23
696.415	3199.44
696.604	3217.87
696.793	3041.75
696.982	3107.28
697.171	3115.47
697.36	3150.29
697.549	2961.87
697.738	3015.12
697.927	2910.68
698.116	3088.85
698.305	2988.5
698.494	3074.51
698.683	3099.09
698.872	2976.21
699.061	3002.83
699.25	2861.52
699.438	2927.06
699.627	2910.68
699.816	3017.17
700.005	3033.55
700.193	2982.35
700.382	2953.68
700.571	2931.16
700.76	2961.87
700.948	2978.26
701.137	2871.76
701.326	2894.29
701.514	2779.61
701.703	2820.56
701.892	2820.56
702.08	2988.5
702.269	2804.18
702.457	2795.99
702.646	2935.25
702.834	2730.45
703.023	2841.04
703.212	2931.16
703.4	2814.42
703.589	2738.65
703.777	2687.45
703.965	2865.62
704.154	2845.14
704.342	2738.65
704.531	2787.8
704.719	2644.44
704.907	2804.18
705.096	2701.78
705.284	2775.51
705.472	2748.89
705.661	2750.93
705.849	2814.42
706.037	2675.16
706.226	2705.88
706.414	2791.89
706.602	2693.59
706.79	2673.11
706.979	2630.1
707.167	2615.77
707.355	2703.83
707.543	2634.2
707.731	2748.89
707.919	2636.25
708.107	2562.52
708.296	2572.76
708.484	2599.38
708.672	2574.81
708.86	2599.38
709.048	2685.4
709.236	2599.38
709.424	2482.65
709.612	2634.2
709.8	2535.9
709.988	2517.47
710.176	2589.14
710.364	2597.34
710.551	2404.83
710.739	2644.44
710.927	2537.95
711.115	2587.1
711.303	2621.91
711.491	2574.81
711.679	2318.81
711.866	2597.34
712.054	2437.59
712.242	2511.32
712.43	2597.34
712.617	2527.71
712.805	2402.78
712.993	2468.31
713.181	2392.54
713.368	2437.59
713.556	2372.06
713.744	2392.54
713.931	2570.71
714.119	2486.75
714.306	2435.55
714.494	2535.9
714.682	2410.97
714.869	2394.59
715.057	2296.28
715.244	2394.59
715.432	2294.24
715.619	2398.68
715.807	2517.47
715.994	2372.06
716.182	2298.33
716.369	2394.59
716.556	2396.64
716.744	2298.33
716.931	2200.03
717.119	2384.35
717.306	2255.33
717.493	2304.48
717.681	2310.62
717.868	2378.2
718.055	2337.24
718.242	2226.65
718.43	2298.33
718.617	2365.92
718.804	2222.56
718.991	2337.24
719.179	2230.75
719.366	2245.09
719.553	2310.62
719.74	2294.24
719.927	2240.99
720.114	2249.18
720.301	2154.98
720.488	2218.46
720.676	2236.89
720.863	2247.13
721.05	2216.41
721.237	2161.12
721.424	2177.5
721.611	2157.02
721.798	2288.09
721.985	2167.26
722.172	2236.89
722.358	2185.69
722.545	2210.27
722.732	2288.09
722.919	2193.89
723.106	2263.52
723.293	2173.41
723.48	2126.3
723.667	2120.16
723.853	2265.57
724.04	2165.21
724.227	2109.92
724.414	2118.11
724.6	1991.14
724.787	2234.85
724.974	2200.03
725.161	2068.96
725.347	2132.45
725.534	2093.54
725.72	2120.16
725.907	2126.3
726.094	2081.25
726.28	2038.24
726.467	2025.95
726.653	2116.06
726.84	2050.53
727.027	2052.58
727.213	1976.8
727.4	2075.1
727.586	2101.73
727.773	2079.2
727.959	1984.99
728.145	2036.19
728.332	2073.06
728.518	1970.66
728.705	2042.34
728.891	2105.82
729.077	2060.77
729.264	2093.54
729.45	2054.62
729.636	2050.53
729.823	2005.47
730.009	2011.62
730.195	1976.8
730.382	2001.38
730.568	2017.76
730.754	1982.95
730.94	2036.19
731.126	1878.5
731.313	2054.62
731.499	2017.76
731.685	1915.36
731.871	1905.12
732.057	1933.79
732.243	1901.03
732.429	1839.59
732.615	1982.95
732.801	2019.81
732.987	1982.95
733.173	1931.75
733.359	1923.55
733.545	1878.5
733.731	1927.65
733.917	1894.88
734.103	1935.84
734.289	2007.52
734.475	1835.49
734.661	1952.23
734.847	1952.23
735.033	1880.55
735.219	1927.65
735.404	1837.54
735.59	1815.01
735.776	1905.12
735.962	1790.44
736.148	1817.06
736.333	1845.73
736.519	1798.63
736.705	1694.18
736.89	1782.24
737.076	1825.25
737.262	1716.71
737.447	1753.57
737.633	1821.16
737.819	1821.16
738.004	1761.77
738.19	1825.25
738.375	1776.1
738.561	1896.93
738.747	1737.19
738.932	1706.47
739.118	1675.75
739.303	1745.38
739.489	1724.9
739.674	1759.72
739.859	1645.03
740.045	1716.71
740.23	1747.43
740.416	1638.89
740.601	1763.81
740.786	1751.53
740.972	1632.74
741.157	1751.53
741.342	1665.51
741.528	1602.02
741.713	1731.05
741.898	1690.09
742.084	1577.45
742.269	1679.85
742.454	1657.32
742.639	1587.69
742.824	1632.74
743.01	1649.13
743.195	1690.09
743.38	1610.22
743.565	1604.07
743.75	1595.88
743.935	1657.32
744.12	1653.22
744.305	1460.71
744.49	1540.58
744.675	1552.87
744.86	1546.73
745.045	1548.78
745.23	1565.16
745.415	1534.44
745.6	1552.87
745.785	1495.53
745.97	1548.78
746.155	1518.06
746.34	1444.33
746.525	1403.37
746.71	1495.53
746.895	1520.1
747.079	1497.58
747.264	1399.27
747.449	1466.86
747.634	1477.1
747.819	1470.95
748.003	1356.27
748.188	1364.46
748.373	1378.79
748.557	1393.13
748.742	1317.36
748.927	1323.5
749.111	1393.13
749.296	1333.74
749.481	1298.92
749.665	1257.96
749.85	1292.78
750.034	1292.78
750.219	1270.25
750.404	1260.01
750.588	1247.72
750.773	1294.83
750.957	1282.54
751.141	1255.92
751.326	1235.44
751.51	1339.88
751.695	1202.67
751.879	1288.68
752.064	1354.22
752.248	1143.28
752.432	1214.96
752.617	1194.48
752.801	1239.53
752.985	1214.96
753.17	1102.32
753.354	1120.75
753.538	1198.57
753.722	1137.13
753.907	1124.85
754.091	1190.38
754.275	1178.09
754.459	1077.74
754.643	1139.18
754.828	1083.89
755.012	1057.26
755.196	999.92
755.38	1053.17
755.564	1077.74
755.748	995.82
755.932	1010.16
756.116	1059.31
756.3	1075.7
756.484	956.91
756.668	1026.54
756.852	981.49
757.036	1012.21
757.22	973.3
757.404	1022.45
757.588	961.01
757.772	997.87
757.956	961.01
758.14	985.58
758.323	952.82
758.507	1004.02
758.691	944.63
758.875	1092.08
759.059	952.82
759.242	872.95
759.426	928.24
759.61	930.29
759.794	915.95
759.977	874.99
760.161	911.86
760.345	920.05
760.528	911.86
760.712	954.87
760.895	862.71
761.079	870.9
761.263	817.65
761.446	874.99
761.63	868.85
761.813	786.93
761.997	854.51
762.18	944.63
762.364	829.94
762.547	801.27
762.731	846.32
762.914	788.98
763.098	782.84
763.281	846.32
763.464	879.09
763.648	823.8
763.831	844.28
764.015	709.11
764.198	862.71
764.381	840.18
764.564	829.94
764.748	854.51
764.931	907.76
765.114	702.97
765.297	829.94
765.481	764.4
765.664	848.37
765.847	870.9
766.03	803.32
766.213	731.64
766.397	774.64
766.58	729.59
766.763	793.08
766.946	815.6
767.129	838.13
767.312	678.39
767.495	754.16
767.678	762.36
767.861	678.39
768.044	791.03
768.227	764.4
768.41	739.83
768.593	748.02
768.776	729.59
768.959	748.02
769.142	782.84
769.324	698.87
769.507	774.64
769.69	764.4
769.873	752.12
770.056	754.16
770.239	707.06
770.421	721.4
770.604	643.57
770.787	735.73
770.97	696.82
771.152	688.63
771.335	698.87
771.518	635.38
771.7	766.45
771.883	688.63
772.066	633.33
772.248	676.34
772.431	616.95
772.613	750.07
772.796	715.25
772.978	670.2
773.161	733.68
773.343	698.87
773.526	639.48
773.708	682.49
773.891	578.04
774.073	662.01
774.256	659.96
774.438	739.83
774.621	621.05
774.803	625.14
774.985	596.47
775.168	676.34
775.35	582.14
775.532	569.85
775.715	535.03
775.897	616.95
776.079	541.18
776.261	535.03
776.444	643.57
776.626	551.42
776.808	594.42
776.99	520.7
777.173	559.61
777.355	559.61
777.537	528.89
777.719	641.53
777.901	551.42
778.083	567.8
778.265	561.66
778.447	592.37
778.629	539.13
778.811	561.66
778.993	567.8
779.175	571.9
779.357	543.22
779.539	528.89
779.721	635.38
779.903	473.59
780.085	457.21
780.267	504.31
780.449	487.93
780.631	459.26
780.812	485.88
780.994	410.11
781.176	434.68
781.358	481.78
781.54	537.08
781.721	449.02
781.903	500.22
782.085	475.64
782.267	451.07
782.448	446.97
782.63	467.45
782.812	453.11
782.993	465.4
783.175	471.54
783.357	473.59
783.538	438.78
783.72	412.15
783.901	408.06
784.083	481.78
784.264	430.59
784.446	330.23
784.627	324.09
784.809	449.02
784.99	365.05
785.172	438.78
785.353	475.64
785.535	344.57
785.716	391.67
785.897	475.64
786.079	403.96
786.26	391.67
786.441	406.01
786.623	371.19
786.804	346.62
786.985	307.71
787.167	403.96
787.348	377.34
787.529	346.62
787.71	420.35
787.891	356.86
788.073	360.95
788.254	387.58
788.435	373.24
788.616	395.77
788.797	352.76
788.978	346.62
789.159	393.72
789.34	305.66
789.522	320
789.703	313.85
789.884	358.91
790.065	356.86
790.246	371.19
790.427	293.37
790.607	379.39
790.788	369.15
790.969	340.47
791.15	320
791.331	375.29
791.512	289.28
791.693	348.67
791.874	307.71
792.054	313.85
792.235	346.62
792.416	313.85
792.597	283.13
792.778	322.04
792.958	330.23
793.139	266.75
793.32	313.85
793.5	213.5
793.681	338.43
793.862	207.36
794.042	240.12
794.223	289.28
794.404	184.83
794.584	287.23
794.765	285.18
794.945	276.99
795.126	207.36
795.306	258.56
795.487	227.84
795.667	322.04
795.848	287.23
796.028	246.27
796.209	250.36
796.389	195.07
796.57	340.47
796.75	252.41
796.93	209.4
797.111	231.93
797.291	227.84
797.471	186.88
797.652	176.64
797.832	174.59
798.012	281.08
798.192	225.79
798.373	195.07
798.553	276.99
798.733	233.98
798.913	242.17
799.093	225.79
799.274	279.04
799.454	322.04
799.634	274.94
799.814	299.52
799.994	231.93
800.174	236.03
800.354	240.12
800.534	215.55
800.714	233.98
800.894	190.97
801.074	119.29
801.254	272.89
801.434	244.22
801.614	236.03
801.794	104.96
801.974	717.3
802.154	246.27
802.334	225.79
802.514	154.11
802.693	207.36
802.873	195.07
803.053	203.26
803.233	199.16
803.413	242.17
803.592	199.16
803.772	242.17
803.952	227.84
804.131	104.96
804.311	166.4
804.491	250.36
804.67	133.63
804.85	203.26
805.03	109.05
805.209	229.88
805.389	145.92
805.568	178.69
805.748	219.64
805.928	264.7
806.107	215.55
806.287	199.16
806.466	170.49
806.646	195.07
806.825	133.63
807.004	129.53
807.184	150.01
807.363	231.93
807.543	190.97
807.722	160.25
807.901	195.07
808.081	233.98
808.26	76.29
808.439	131.58
808.619	186.88
808.798	174.59
808.977	150.01
809.156	225.79
809.336	233.98
809.515	176.64
809.694	152.06
809.873	147.97
810.052	193.02
810.231	168.45
810.411	94.72
810.59	150.01
810.769	219.64
810.948	150.01
811.127	104.96
811.306	182.78
811.485	84.48
811.664	150.01
811.843	174.59
812.022	131.58
812.201	121.34
812.38	176.64
812.559	152.06
812.737	66.05
812.916	109.05
813.095	127.49
813.274	86.53
813.453	135.68
813.632	168.45
813.811	231.93
813.989	43.52
814.168	182.78
814.347	31.23
814.526	166.4
814.704	102.91
814.883	193.02
815.062	109.05
815.24	195.07
815.419	113.15
815.598	107.01
815.776	59.9
815.955	143.87
816.133	107.01
816.312	92.67
816.49	111.1
816.669	152.06
816.847	100.86
817.026	107.01
817.204	176.64
817.383	102.91
817.561	92.67
817.74	121.34
817.918	145.92
818.097	49.66
818.275	82.43
818.453	160.25
818.632	102.91
818.81	150.01
818.988	141.82
819.167	20.99
819.345	203.26
819.523	133.63
819.701	145.92
819.879	121.34
820.058	119.29
820.236	174.59
820.414	109.05
820.592	20.99
820.77	96.77
820.948	100.86
821.127	158.21
821.305	82.43
821.483	70.14
821.661	143.87
821.839	76.29
822.017	72.19
822.195	86.53
822.373	186.88
822.551	160.25
822.729	135.68
822.907	74.24
823.085	176.64
823.262	66.05
823.44	94.72
823.618	61.95
823.796	135.68
823.974	88.57
824.152	102.91
824.329	78.33
824.507	195.07
824.685	90.62
824.863	102.91
825.04	104.96
825.218	203.26
825.396	49.66
825.574	72.19
825.751	72.19
825.929	135.68
826.107	-1.54
826.284	170.49
826.462	96.77
826.639	45.57
826.817	-5.63
826.994	78.33
827.172	45.57
827.349	166.4
827.527	68.09
827.704	78.33
827.882	51.71
828.059	78.33
828.237	129.53
828.414	43.52
828.591	55.81
828.769	14.85
828.946	-17.92
829.124	86.53
829.301	92.67
829.478	84.48
829.655	68.09
829.833	111.1
830.01	68.09
830.187	109.05
830.364	117.25
830.542	94.72
830.719	141.82
830.896	68.09
831.073	127.49
831.25	-13.82
831.427	68.09
831.604	164.35
831.782	31.23
831.959	158.21
832.136	72.19
832.313	20.99
832.49	166.4
832.667	68.09
832.844	94.72
833.021	59.9
833.198	33.28
833.374	39.42
833.551	29.18
833.728	-9.73
833.905	25.09
834.082	76.29
834.259	137.73
834.436	84.48
834.612	-28.16
834.789	111.1
834.966	-11.78
835.143	78.33
835.319	-38.4
835.496	6.66
835.673	55.81
835.85	92.67
836.026	-11.78
836.203	39.42
836.38	51.71
836.556	27.14
836.733	27.14
836.909	61.95
837.086	27.14
837.262	55.81
837.439	18.94
837.616	-3.58
837.792	-15.87
837.968	61.95
838.145	2.56
838.321	61.95
838.498	74.24
838.674	6.66
838.851	76.29
839.027	57.86
839.203	18.94
839.38	92.67
839.556	16.9
839.732	84.48
839.909	23.04
840.085	113.15
840.261	-17.92
840.437	29.18
840.614	76.29
840.79	94.72
840.966	-50.69
841.142	109.05
841.318	86.53
841.494	137.73
841.671	96.77
841.847	82.43
842.023	45.57
842.199	111.1
842.375	61.95
842.551	51.71
842.727	33.28
842.903	55.81
843.079	-58.88
843.255	96.77
843.431	18.94
843.607	64
843.783	-79.36
843.959	104.96
844.134	31.23
844.31	92.67
844.486	-69.12
844.662	10.75
844.838	61.95
845.013	100.86
845.189	143.87
845.365	-28.16
845.541	18.94
845.716	127.49
845.892	20.99
846.068	68.09
846.244	2.56
846.419	111.1
846.595	64
846.77	51.71
846.946	35.33
847.122	35.33
847.297	119.29
847.473	133.63
847.648	23.04
847.824	51.71
847.999	64
848.175	4.61
848.35	86.53
848.526	27.14
848.701	29.18
848.876	57.86
849.052	45.57
849.227	-5.63
849.403	39.42
849.578	6.66
849.753	10.75
849.929	16.9
850.104	23.04
850.279	98.81
850.454	57.86
850.63	51.71
850.805	14.85
850.98	82.43
851.155	104.96
851.33	41.47
851.505	88.57
851.681	29.18
851.856	-3.58
852.031	90.62
852.206	53.76
852.381	-44.54
852.556	27.14
852.731	37.38
852.906	100.86
853.081	18.94
853.256	6.66
853.431	29.18
853.606	70.14
853.781	-22.02
853.956	-42.5
854.131	57.86
854.305	31.23
854.48	76.29
854.655	43.52
854.83	-34.3
855.005	51.71
855.18	64
855.354	29.18
855.529	59.9
855.704	-11.78
855.879	29.18
856.053	0.51
856.228	4.61
856.403	12.8
856.577	-34.3
856.752	68.09
856.926	84.48
857.101	43.52
857.276	59.9
857.45	47.62
857.625	-7.68
857.799	4.61
857.974	72.19
858.148	-9.73
858.323	39.42
858.497	35.33
858.672	31.23
858.846	4.61
859.02	88.57
859.195	-22.02
859.369	39.42
859.543	-91.65
859.718	20.99
859.892	18.94
860.066	12.8
860.241	-128.51
860.415	33.28
860.589	14.85
860.763	117.25
860.938	31.23
861.112	59.9
861.286	61.95
861.46	18.94
861.634	-5.63
861.808	35.33
861.982	23.04
862.157	68.09
862.331	35.33
862.505	-5.63
862.679	27.14
862.853	18.94
863.027	-75.26
863.201	53.76
863.375	-36.35
863.549	51.71
863.722	2.56
863.896	78.33
864.07	35.33
864.244	-17.92
864.418	59.9
864.592	72.19
864.766	-54.78
864.939	64
865.113	43.52
865.287	68.09
865.461	18.94
865.634	6.66
865.808	29.18
865.982	59.9
866.156	-5.63
866.329	-22.02
866.503	10.75
866.676	76.29
866.85	64
867.024	104.96
867.197	61.95
867.371	4.61
867.544	37.38
867.718	-19.97
867.891	37.38
868.065	39.42
868.238	-50.69
868.412	-26.11
868.585	59.9
868.759	39.42
868.932	-5.63
869.105	-30.21
869.279	8.7
869.452	53.76
869.625	20.99
869.799	27.14
869.972	57.86
870.145	12.8
870.319	-67.07
870.492	64
870.665	-3.58
870.838	-38.4
871.011	-38.4
871.185	12.8
871.358	2.56
871.531	14.85
871.704	0.51
871.877	27.14
872.05	-87.55
872.223	47.62
872.396	4.61
872.569	113.15
872.742	-28.16
872.915	-24.06
873.088	70.14
873.261	27.14
873.434	-28.16
873.607	98.81
873.78	74.24
873.953	51.71
874.126	29.18
874.299	80.38
874.471	12.8
874.644	-19.97
874.817	35.33
874.99	25.09
875.163	64
875.335	55.81
875.508	55.81
875.681	70.14
875.853	59.9
876.026	53.76
876.199	59.9
876.371	59.9
876.544	4.61
876.717	35.33
876.889	10.75
877.062	20.99
877.234	-19.97
877.407	-95.74
877.579	55.81
877.752	47.62
877.924	8.7
878.097	43.52
878.269	43.52
878.442	14.85
878.614	29.18
878.786	27.14
878.959	61.95
879.131	-17.92
879.303	-22.02
879.476	23.04
879.648	-3.58
879.82	43.52
879.993	-17.92
880.165	-46.59
880.337	0.51
880.509	35.33
880.681	-46.59
880.854	29.18
881.026	31.23
881.198	168.45
881.37	8.7
881.542	20.99
881.714	35.33
881.886	57.86
882.058	49.66
882.23	-54.78
882.402	-46.59
882.574	92.67
882.746	43.52
882.918	18.94
883.09	16.9
883.262	20.99
883.434	55.81
883.606	47.62
883.778	-28.16
883.95	64
884.122	57.86
884.293	43.52
884.465	10.75
884.637	49.66
884.809	55.81
884.98	-1.54
885.152	43.52
885.324	20.99
885.496	-13.82
885.667	8.7
885.839	23.04
886.011	29.18
886.182	18.94
886.354	47.62
886.525	-19.97
886.697	2.56
886.869	35.33
887.04	-17.92
887.212	84.48
887.383	57.86
887.555	18.94
887.726	43.52
887.897	-46.59
888.069	23.04
888.24	45.57
888.412	4.61
888.583	33.28
888.754	-13.82
888.926	-38.4
889.097	-44.54
889.268	-11.78
889.44	45.57
889.611	39.42
889.782	-42.5
889.953	20.99
890.125	-36.35
890.296	-7.68
890.467	-40.45
890.638	2.56
890.809	2.56
890.98	31.23
891.151	2.56
891.323	84.48
891.494	14.85
891.665	35.33
891.836	66.05
892.007	45.57
892.178	12.8
892.349	-13.82
892.52	-19.97
892.691	80.38
892.862	-52.74
893.032	-13.82
893.203	2.56
893.374	-7.68
893.545	88.57
893.716	51.71
893.887	23.04
894.057	31.23
894.228	2.56
894.399	-17.92
894.57	59.9
894.74	-52.74
894.911	2.56
895.082	-24.06
895.253	-28.16
895.423	-52.74
895.594	25.09
895.764	2.56
895.935	-3.58
896.106	27.14
896.276	64
896.447	12.8
896.617	-5.63
896.788	-69.12
896.958	88.57
897.129	39.42
897.299	35.33
897.47	-5.63
897.64	6.66
897.81	6.66
897.981	2.56
898.151	-24.06
898.322	55.81
898.492	45.57
898.662	-44.54
898.832	-22.02
899.003	61.95
899.173	2.56
899.343	-65.02
899.513	-3.58
