Data from USB4F104151__190__14-20-20-430.txt Node

Date: Thu Mar 13 14:20:20 EDT 2025
User: louis
Spectrometer: USB4F10415
Trigger mode: 4
Integration Time (sec): 2.000000E-2
Scans to average: 1
Electric dark correction enabled: true
Nonlinearity correction enabled: false
Boxcar width: 0
XAxis mode: Wavelengths
Number of Pixels in Spectrum: 3648
>>>>>Begin Spectral Data<<<<<
178.204	-63.66
178.424	-63.66
178.644	-63.66
178.864	-75.95
179.084	-116.9
179.304	-59.56
179.524	5.97
179.744	1.88
179.964	-6.31
180.184	-26.79
180.404	42.84
180.624	34.64
180.844	51.03
181.064	-34.99
181.283	-20.65
181.503	12.12
181.723	-0.17
181.943	18.26
182.163	42.84
182.383	-4.27
182.602	106.32
182.822	67.41
183.042	28.5
183.262	34.64
183.482	108.37
183.701	-28.84
183.921	20.31
184.141	18.26
184.361	67.41
184.58	5.97
184.8	18.26
185.02	-0.17
185.239	100.18
185.459	51.03
185.679	-20.65
185.898	-47.27
186.118	38.74
186.338	5.97
186.557	46.93
186.777	79.7
186.997	89.94
187.216	46.93
187.436	69.46
187.655	44.88
187.875	42.84
188.095	26.45
188.314	116.56
188.534	110.42
188.753	57.17
188.973	55.12
189.192	-6.31
189.412	-12.46
189.631	51.03
189.851	96.08
190.07	55.12
190.29	18.26
190.509	-41.13
190.729	8.02
190.948	-24.75
191.168	161.62
191.387	77.65
191.607	-53.42
191.826	26.45
192.045	42.84
192.265	18.26
192.484	75.6
192.704	10.07
192.923	71.51
193.142	102.23
193.362	-10.41
193.581	98.13
193.8	59.22
194.02	28.5
194.239	42.84
194.458	46.93
194.678	65.36
194.897	55.12
195.116	-4.27
195.335	85.84
195.555	40.79
195.774	61.27
195.993	22.36
196.212	34.64
196.432	89.94
196.651	94.04
196.87	36.69
197.089	61.27
197.308	61.27
197.528	91.99
197.747	83.8
197.966	14.17
198.185	53.08
198.404	18.26
198.623	71.51
198.842	3.93
199.062	91.99
199.281	91.99
199.5	26.45
199.719	83.8
199.938	44.88
200.157	79.7
200.376	59.22
200.595	85.84
200.814	24.4
201.033	18.26
201.252	55.12
201.471	-22.7
201.69	10.07
201.909	3.93
202.128	12.12
202.347	18.26
202.566	38.74
202.785	28.5
203.004	8.02
203.223	116.56
203.442	75.6
203.661	124.76
203.879	14.17
204.098	61.27
204.317	42.84
204.536	85.84
204.755	44.88
204.974	34.64
205.193	79.7
205.411	159.57
205.63	-0.17
205.849	57.17
206.068	22.36
206.287	89.94
206.505	91.99
206.724	22.36
206.943	20.31
207.162	65.36
207.381	20.31
207.599	28.5
207.818	51.03
208.037	32.6
208.255	18.26
208.474	-6.31
208.693	16.21
208.911	12.12
209.13	141.14
209.349	63.32
209.567	59.22
209.786	-45.23
210.005	106.32
210.223	34.64
210.442	-30.89
210.661	-0.17
210.879	26.45
211.098	26.45
211.316	42.84
211.535	67.41
211.753	100.18
211.972	59.22
212.191	48.98
212.409	124.76
212.628	124.76
212.846	-30.89
213.065	-6.31
213.283	46.93
213.502	1.88
213.72	-30.89
213.938	112.47
214.157	100.18
214.375	38.74
214.594	55.12
214.812	79.7
215.031	20.31
215.249	75.6
215.467	32.6
215.686	65.36
215.904	26.45
216.122	18.26
216.341	42.84
216.559	3.93
216.778	1.88
216.996	28.5
217.214	83.8
217.432	69.46
217.651	-49.32
217.869	24.4
218.087	73.56
218.306	69.46
218.524	-14.51
218.742	1.88
218.96	12.12
219.179	65.36
219.397	96.08
219.615	94.04
219.833	-2.22
220.051	26.45
220.27	106.32
220.488	71.51
220.706	44.88
220.924	98.13
221.142	30.55
221.36	55.12
221.578	79.7
221.796	73.56
222.015	65.36
222.233	42.84
222.451	85.84
222.669	59.22
222.887	-4.27
223.105	28.5
223.323	87.89
223.541	38.74
223.759	51.03
223.977	51.03
224.195	163.67
224.413	55.12
224.631	20.31
224.849	-6.31
225.067	75.6
225.285	55.12
225.503	53.08
225.721	-4.27
225.939	83.8
226.157	77.65
226.375	91.99
226.592	42.84
226.81	-14.51
227.028	30.55
227.246	20.31
227.464	46.93
227.682	77.65
227.9	-2.22
228.117	91.99
228.335	104.28
228.553	-41.13
228.771	30.55
228.989	55.12
229.206	96.08
229.424	75.6
229.642	-6.31
229.86	55.12
230.077	124.76
230.295	26.45
230.513	69.46
230.731	34.64
230.948	100.18
231.166	65.36
231.384	-26.79
231.601	42.84
231.819	30.55
232.037	12.12
232.254	42.84
232.472	55.12
232.689	36.69
232.907	104.28
233.125	26.45
233.342	14.17
233.56	1.88
233.777	44.88
233.995	12.12
234.213	141.14
234.43	75.6
234.648	63.32
234.865	42.84
235.083	10.07
235.3	75.6
235.518	26.45
235.735	77.65
235.953	83.8
236.17	141.14
236.388	-104.62
236.605	53.08
236.822	18.26
237.04	28.5
237.257	63.32
237.475	1.88
237.692	94.04
237.909	36.69
238.127	163.67
238.344	-2.22
238.562	124.76
238.779	51.03
238.996	5.97
239.214	-14.51
239.431	116.56
239.648	44.88
239.865	94.04
240.083	3.93
240.3	69.46
240.517	36.69
240.735	108.37
240.952	61.27
241.169	192.34
241.386	79.7
241.603	53.08
241.821	-10.41
242.038	42.84
242.255	36.69
242.472	-6.31
242.689	48.98
242.907	112.47
243.124	44.88
243.341	-12.46
243.558	-22.7
243.775	59.22
243.992	42.84
244.209	8.02
244.426	85.84
244.643	1.88
244.86	57.17
245.078	44.88
245.295	44.88
245.512	55.12
245.729	-14.51
245.946	38.74
246.163	-0.17
246.38	10.07
246.597	-22.7
246.814	59.22
247.031	1.88
247.248	91.99
247.464	8.02
247.681	108.37
247.898	61.27
248.115	85.84
248.332	-34.99
248.549	75.6
248.766	67.41
248.983	151.38
249.2	79.7
249.417	59.22
249.633	1.88
249.85	-14.51
250.067	12.12
250.284	34.64
250.501	-30.89
250.717	26.45
250.934	-57.51
251.151	91.99
251.368	42.84
251.585	69.46
251.801	79.7
252.018	-18.6
252.235	108.37
252.451	55.12
252.668	55.12
252.885	108.37
253.102	22.36
253.318	44.88
253.535	75.6
253.752	34.64
253.968	59.22
254.185	42.84
254.401	10.07
254.618	91.99
254.835	59.22
255.051	61.27
255.268	53.08
255.484	102.23
255.701	14.17
255.917	34.64
256.134	77.65
256.351	69.46
256.567	36.69
256.784	112.47
257	20.31
257.217	12.12
257.433	104.28
257.65	102.23
257.866	83.8
258.082	1.88
258.299	67.41
258.515	71.51
258.732	67.41
258.948	108.37
259.165	24.4
259.381	38.74
259.597	38.74
259.814	53.08
260.03	20.31
260.246	42.84
260.463	20.31
260.679	42.84
260.895	38.74
261.112	89.94
261.328	71.51
261.544	36.69
261.761	36.69
261.977	53.08
262.193	10.07
262.409	46.93
262.626	108.37
262.842	145.24
263.058	55.12
263.274	59.22
263.49	71.51
263.707	40.79
263.923	18.26
264.139	114.52
264.355	8.02
264.571	116.56
264.787	75.6
265.004	104.28
265.22	85.84
265.436	69.46
265.652	-6.31
265.868	77.65
266.084	26.45
266.3	30.55
266.516	3.93
266.732	85.84
266.948	57.17
267.164	71.51
267.38	38.74
267.596	55.12
267.812	87.89
268.028	132.95
268.244	20.31
268.46	5.97
268.676	26.45
268.892	1.88
269.108	65.36
269.324	83.8
269.54	26.45
269.756	59.22
269.972	71.51
270.188	22.36
270.403	132.95
270.619	91.99
270.835	83.8
271.051	34.64
271.267	59.22
271.483	34.64
271.698	63.32
271.914	24.4
272.13	32.6
272.346	83.8
272.562	22.36
272.777	75.6
272.993	46.93
273.209	77.65
273.425	85.84
273.64	12.12
273.856	44.88
274.072	75.6
274.287	-26.79
274.503	67.41
274.719	89.94
274.934	44.88
275.15	38.74
275.366	108.37
275.581	22.36
275.797	-0.17
276.012	34.64
276.228	18.26
276.444	61.27
276.659	59.22
276.875	14.17
277.09	77.65
277.306	34.64
277.521	85.84
277.737	71.51
277.952	36.69
278.168	34.64
278.383	22.36
278.599	124.76
278.814	-26.79
279.03	67.41
279.245	116.56
279.461	-30.89
279.676	91.99
279.892	42.84
280.107	75.6
280.322	-22.7
280.538	46.93
280.753	3.93
280.969	110.42
281.184	100.18
281.399	42.84
281.615	75.6
281.83	26.45
282.045	-28.84
282.26	12.12
282.476	108.37
282.691	46.93
282.906	59.22
283.122	67.41
283.337	38.74
283.552	141.14
283.767	-26.79
283.983	3.93
284.198	-10.41
284.413	91.99
284.628	5.97
284.843	102.23
285.058	46.93
285.274	-20.65
285.489	44.88
285.704	67.41
285.919	14.17
286.134	53.08
286.349	26.45
286.564	26.45
286.779	67.41
286.995	69.46
287.21	-39.08
287.425	91.99
287.64	55.12
287.855	-30.89
288.07	-6.31
288.285	53.08
288.5	79.7
288.715	67.41
288.93	100.18
289.145	57.17
289.36	-16.55
289.575	100.18
289.79	22.36
290.004	24.4
290.219	94.04
290.434	61.27
290.649	14.17
290.864	18.26
291.079	14.17
291.294	118.61
291.509	18.26
291.724	89.94
291.938	91.99
292.153	-18.6
292.368	-4.27
292.583	-8.36
292.798	63.32
293.012	77.65
293.227	-6.31
293.442	34.64
293.657	42.84
293.871	30.55
294.086	87.89
294.301	34.64
294.516	53.08
294.73	-22.7
294.945	30.55
295.16	18.26
295.374	57.17
295.589	42.84
295.804	51.03
296.018	34.64
296.233	57.17
296.447	42.84
296.662	-2.22
296.877	126.8
297.091	91.99
297.306	83.8
297.52	26.45
297.735	20.31
297.949	5.97
298.164	-6.31
298.378	34.64
298.593	3.93
298.807	53.08
299.022	124.76
299.236	53.08
299.451	26.45
299.665	51.03
299.88	44.88
300.094	14.17
300.309	28.5
300.523	61.27
300.737	71.51
300.952	46.93
301.166	36.69
301.381	-18.6
301.595	38.74
301.809	48.98
302.024	38.74
302.238	36.69
302.452	87.89
302.667	69.46
302.881	102.23
303.095	75.6
303.309	143.19
303.524	83.8
303.738	14.17
303.952	55.12
304.166	73.56
304.381	-86.19
304.595	55.12
304.809	81.75
305.023	59.22
305.237	12.12
305.452	36.69
305.666	10.07
305.88	26.45
306.094	18.26
306.308	38.74
306.522	67.41
306.736	124.76
306.95	40.79
307.164	91.99
307.379	91.99
307.593	89.94
307.807	20.31
308.021	61.27
308.235	55.12
308.449	79.7
308.663	89.94
308.877	91.99
309.091	63.32
309.305	110.42
309.519	-14.51
309.733	51.03
309.947	1.88
310.161	57.17
310.374	55.12
310.588	126.8
310.802	34.64
311.016	-20.65
311.23	-10.41
311.444	100.18
311.658	38.74
311.872	126.8
312.085	67.41
312.299	83.8
312.513	81.75
312.727	61.27
312.941	18.26
313.154	102.23
313.368	55.12
313.582	53.08
313.796	87.89
314.009	63.32
314.223	77.65
314.437	20.31
314.651	-12.46
314.864	-18.6
315.078	42.84
315.292	36.69
315.505	73.56
315.719	30.55
315.933	108.37
316.146	59.22
316.36	34.64
316.573	67.41
316.787	30.55
317.001	34.64
317.214	98.13
317.428	44.88
317.641	108.37
317.855	51.03
318.068	24.4
318.282	53.08
318.495	91.99
318.709	110.42
318.922	3.93
319.136	108.37
319.349	46.93
319.563	75.6
319.776	46.93
319.99	59.22
320.203	102.23
320.417	71.51
320.63	-2.22
320.843	77.65
321.057	89.94
321.27	91.99
321.483	40.79
321.697	51.03
321.91	51.03
322.124	42.84
322.337	14.17
322.55	-28.84
322.763	63.32
322.977	20.31
323.19	1.88
323.403	73.56
323.617	1.88
323.83	116.56
324.043	40.79
324.256	65.36
324.469	96.08
324.683	55.12
324.896	36.69
325.109	77.65
325.322	108.37
325.535	108.37
325.748	53.08
325.962	14.17
326.175	34.64
326.388	112.47
326.601	61.27
326.814	89.94
327.027	40.79
327.24	83.8
327.453	30.55
327.666	57.17
327.879	135
328.092	91.99
328.305	34.64
328.518	73.56
328.731	100.18
328.944	69.46
329.157	73.56
329.37	24.4
329.583	34.64
329.796	110.42
330.009	38.74
330.222	8.02
330.435	24.4
330.648	110.42
330.861	26.45
331.073	83.8
331.286	81.75
331.499	44.88
331.712	42.84
331.925	-22.7
332.138	122.71
332.35	110.42
332.563	46.93
332.776	124.76
332.989	5.97
333.202	30.55
333.414	12.12
333.627	61.27
333.84	30.55
334.053	75.6
334.265	34.64
334.478	96.08
334.691	18.26
334.903	59.22
335.116	42.84
335.329	108.37
335.541	36.69
335.754	210.77
335.966	-41.13
336.179	34.64
336.392	12.12
336.604	16.21
336.817	-0.17
337.029	124.76
337.242	75.6
337.454	24.4
337.667	5.97
337.88	104.28
338.092	71.51
338.305	132.95
338.517	-63.66
338.729	157.52
338.942	57.17
339.154	53.08
339.367	22.36
339.579	83.8
339.792	1.88
340.004	28.5
340.217	40.79
340.429	118.61
340.641	89.94
340.854	46.93
341.066	48.98
341.278	85.84
341.491	55.12
341.703	61.27
341.915	26.45
342.128	91.99
342.34	22.36
342.552	-20.65
342.764	42.84
342.977	124.76
343.189	116.56
343.401	69.46
343.613	8.02
343.826	30.55
344.038	59.22
344.25	46.93
344.462	42.84
344.674	65.36
344.886	100.18
345.099	75.6
345.311	20.31
345.523	81.75
345.735	3.93
345.947	-22.7
346.159	-37.03
346.371	91.99
346.583	112.47
346.795	91.99
347.007	75.6
347.219	83.8
347.431	26.45
347.643	65.36
347.855	20.31
348.067	63.32
348.279	-53.42
348.491	59.22
348.703	71.51
348.915	77.65
349.127	34.64
349.339	63.32
349.551	30.55
349.763	34.64
349.975	36.69
350.187	143.19
350.399	85.84
350.61	128.85
350.822	-45.23
351.034	75.6
351.246	42.84
351.458	96.08
351.669	102.23
351.881	143.19
352.093	42.84
352.305	57.17
352.517	75.6
352.728	128.85
352.94	5.97
353.152	149.33
353.363	91.99
353.575	73.56
353.787	120.66
353.999	91.99
354.21	77.65
354.422	34.64
354.633	51.03
354.845	16.21
355.057	28.5
355.268	75.6
355.48	182.1
355.692	51.03
355.903	83.8
356.115	75.6
356.326	48.98
356.538	98.13
356.749	44.88
356.961	75.6
357.172	-47.27
357.384	18.26
357.595	94.04
357.807	69.46
358.018	28.5
358.23	73.56
358.441	59.22
358.653	51.03
358.864	61.27
359.075	44.88
359.287	67.41
359.498	59.22
359.709	28.5
359.921	40.79
360.132	124.76
360.344	79.7
360.555	67.41
360.766	141.14
360.977	42.84
361.189	34.64
361.4	94.04
361.611	110.42
361.823	104.28
362.034	59.22
362.245	42.84
362.456	44.88
362.667	51.03
362.879	116.56
363.09	75.6
363.301	110.42
363.512	42.84
363.723	79.7
363.935	44.88
364.146	36.69
364.357	53.08
364.568	173.91
364.779	34.64
364.99	87.89
365.201	51.03
365.412	61.27
365.623	28.5
365.834	14.17
366.045	77.65
366.256	55.12
366.467	87.89
366.678	34.64
366.889	89.94
367.1	104.28
367.311	36.69
367.522	81.75
367.733	1.88
367.944	75.6
368.155	96.08
368.366	51.03
368.577	155.47
368.788	81.75
368.999	124.76
369.209	79.7
369.42	116.56
369.631	96.08
369.842	63.32
370.053	87.89
370.264	10.07
370.474	87.89
370.685	63.32
370.896	51.03
371.107	96.08
371.317	104.28
371.528	51.03
371.739	75.6
371.95	87.89
372.16	67.41
372.371	22.36
372.582	73.56
372.792	36.69
373.003	157.52
373.214	83.8
373.424	28.5
373.635	100.18
373.846	110.42
374.056	108.37
374.267	75.6
374.477	106.32
374.688	1.88
374.898	102.23
375.109	46.93
375.319	89.94
375.53	135
375.74	79.7
375.951	91.99
376.161	61.27
376.372	151.38
376.582	77.65
376.793	124.76
377.003	-18.6
377.214	104.28
377.424	67.41
377.635	59.22
377.845	67.41
378.055	132.95
378.266	30.55
378.476	102.23
378.686	77.65
378.897	67.41
379.107	77.65
379.317	77.65
379.528	18.26
379.738	145.24
379.948	53.08
380.158	63.32
380.369	20.31
380.579	57.17
380.789	20.31
380.999	94.04
381.21	106.32
381.42	128.85
381.63	67.41
381.84	-14.51
382.05	65.36
382.261	91.99
382.471	36.69
382.681	79.7
382.891	110.42
383.101	63.32
383.311	-12.46
383.521	63.32
383.731	71.51
383.941	71.51
384.151	61.27
384.361	116.56
384.571	85.84
384.781	143.19
384.991	122.71
385.201	122.71
385.411	118.61
385.621	67.41
385.831	57.17
386.041	71.51
386.251	143.19
386.461	130.9
386.671	89.94
386.881	128.85
387.091	51.03
387.301	-0.17
387.511	63.32
387.72	157.52
387.93	38.74
388.14	94.04
388.35	112.47
388.56	120.66
388.769	63.32
388.979	139.09
389.189	18.26
389.399	77.65
389.609	-12.46
389.818	38.74
390.028	83.8
390.238	34.64
390.447	147.28
390.657	79.7
390.867	108.37
391.076	87.89
391.286	30.55
391.496	26.45
391.705	14.17
391.915	186.19
392.125	112.47
392.334	71.51
392.544	18.26
392.753	83.8
392.963	34.64
393.172	106.32
393.382	104.28
393.591	116.56
393.801	139.09
394.01	118.61
394.22	169.81
394.429	108.37
394.639	100.18
394.848	139.09
395.058	67.41
395.267	69.46
395.477	71.51
395.686	137.04
395.895	161.62
396.105	87.89
396.314	132.95
396.524	122.71
396.733	161.62
396.942	157.52
397.152	122.71
397.361	157.52
397.57	173.91
397.78	100.18
397.989	96.08
398.198	143.19
398.407	163.67
398.617	157.52
398.826	96.08
399.035	141.14
399.244	100.18
399.453	106.32
399.663	135
399.872	157.52
400.081	112.47
400.29	143.19
400.499	87.89
400.708	91.99
400.917	110.42
401.127	100.18
401.336	91.99
401.545	108.37
401.754	116.56
401.963	188.24
402.172	143.19
402.381	120.66
402.59	108.37
402.799	157.52
403.008	124.76
403.217	159.57
403.426	143.19
403.635	147.28
403.844	161.62
404.053	173.91
404.262	165.71
404.471	182.1
404.68	122.71
404.888	108.37
405.097	139.09
405.306	190.29
405.515	194.39
405.724	196.43
405.933	169.81
406.142	296.78
406.35	192.34
406.559	223.06
406.768	132.95
406.977	282.45
407.185	221.01
407.394	270.16
407.603	221.01
407.812	169.81
408.02	235.35
408.229	198.48
408.438	315.22
408.646	290.64
408.855	255.83
409.064	317.26
409.272	261.97
409.481	307.02
409.69	210.77
409.898	300.88
410.107	429.9
410.315	382.8
410.524	282.45
410.733	468.81
410.941	374.61
411.15	423.76
411.358	417.61
411.567	413.52
411.775	438.09
411.984	485.2
412.192	477.01
412.401	472.91
412.609	544.59
412.818	530.25
413.026	601.93
413.234	546.64
413.443	528.21
413.651	571.21
413.86	563.02
414.068	683.85
414.276	612.17
414.485	651.08
414.693	712.52
414.901	782.15
415.11	765.77
415.318	749.39
415.526	743.24
415.734	800.59
415.943	886.6
416.151	902.98
416.359	821.06
416.567	993.09
416.776	882.5
416.984	1038.15
417.192	925.51
417.4	972.61
417.608	935.75
417.817	1115.97
418.025	1173.32
418.233	1269.57
418.441	1236.8
418.649	1279.81
418.857	1347.39
419.065	1353.54
419.273	1320.77
419.481	1400.64
419.689	1488.7
419.897	1650.49
420.105	1558.33
420.313	1617.72
420.521	1730.36
420.729	1756.99
420.937	1625.92
421.145	1797.95
421.353	1945.4
421.561	1949.5
421.769	2008.89
421.977	2221.88
422.185	2133.81
422.393	2238.26
422.601	2357.04
422.809	2369.33
423.017	2336.56
423.224	2430.77
423.432	2484.02
423.64	2561.84
423.848	2762.54
424.056	2731.82
424.263	2860.84
424.471	2944.81
424.679	2991.91
424.887	3213.09
425.094	3217.19
425.302	3305.25
425.51	3387.17
425.718	3567.39
425.925	3651.36
426.133	3819.29
426.341	3872.54
426.548	4015.9
426.756	3962.65
426.964	4081.43
427.171	4339.48
427.379	4515.6
427.586	4501.26
427.794	4714.25
428.001	4945.67
428.209	5052.17
428.417	4810.51
428.624	5437.19
428.832	5342.98
429.039	5377.8
429.247	5367.56
429.454	5883.64
429.662	6233.85
429.869	5926.65
430.076	6223.61
430.284	6067.96
430.491	6346.48
430.699	6643.44
430.906	6831.85
431.114	6940.4
431.321	7137
431.528	7186.15
431.736	7648.99
431.943	8087.26
432.15	7765.73
432.358	7767.77
432.565	8251.1
432.772	8242.9
432.979	8734.42
433.187	8922.83
433.394	8734.42
433.601	9424.58
433.808	9324.23
434.016	9457.35
434.223	9778.88
434.43	10262.2
434.637	10268.34
434.844	10819.25
435.052	10837.68
435.259	11046.57
435.466	11042.48
435.673	10948.27
435.88	11511.46
436.087	12236.44
436.294	12091.04
436.501	11945.63
436.708	12091.04
436.915	12557.97
437.122	12924.56
437.329	13127.31
437.537	13280.91
437.743	13661.83
437.95	13629.06
438.157	14306.94
438.364	14704.24
438.571	14401.15
438.778	14902.9
438.985	16199.26
439.192	15498.86
439.399	16289.37
439.606	15502.95
439.813	16803.41
440.02	17811.01
440.227	17380.94
440.433	17233.49
440.64	17602.12
440.847	17616.46
441.054	17978.95
441.261	19162.67
441.467	18849.33
441.674	19023.41
441.881	20041.25
442.088	19787.3
442.294	19695.14
442.501	20141.6
442.708	20786.71
442.914	21577.23
443.121	22382.08
443.328	21513.74
443.534	23705.07
443.741	22406.66
443.948	22251.01
444.154	24051.17
444.361	23954.92
444.568	23854.57
444.774	23999.98
444.981	24129
445.187	24974.81
445.394	25959.88
445.6	25746.89
445.807	28118.44
446.013	26963.39
446.22	27350.45
446.426	28112.3
446.633	28671.39
446.839	29707.66
447.046	28249.51
447.252	29848.97
447.459	30002.57
447.665	29781.39
447.871	31047.04
448.078	32562.53
448.284	30784.9
448.491	31774.06
448.697	32963.93
448.903	33627.48
449.11	33559.89
449.316	33258.84
449.522	33785.17
449.728	35138.88
449.935	34678.08
450.141	34901.31
450.347	35550.52
450.553	34239.82
450.76	35130.69
450.966	36027.7
451.172	35783.99
451.378	36422.95
451.584	35773.75
451.791	37035.3
451.997	36846.88
452.203	37297.44
452.409	37340.44
452.615	36975.91
452.821	35577.14
453.027	35532.09
453.233	37168.41
453.44	35747.12
453.646	36349.23
453.852	36611.37
454.058	36977.95
454.264	35790.13
454.47	36814.12
454.676	35648.82
454.882	37133.6
455.088	33490.26
455.294	34127.18
455.5	35067.2
455.705	34811.2
455.911	33471.83
456.117	33215.83
456.323	32660.83
456.529	30690.69
456.735	32277.86
456.941	31583.6
457.147	31264.12
457.352	30102.92
457.558	29865.36
457.764	29875.6
457.97	29044.12
458.176	28642.72
458.381	28685.73
458.587	27065.78
458.793	27504.05
458.999	25961.93
459.204	28097.96
459.41	27022.78
459.616	25189.84
459.821	25343.44
460.027	25167.32
460.233	24489.44
460.438	23508.46
460.644	23873
460.85	22595.07
461.055	22492.67
461.261	22124.04
461.466	20471.32
461.672	19863.08
461.878	21251.6
462.083	19891.75
462.289	19609.13
462.494	19355.18
462.7	18404.92
462.905	18067.01
463.111	18556.47
463.316	18630.2
463.522	18503.23
463.727	18179.65
463.932	18306.62
464.138	18175.55
464.343	18349.63
464.549	17600.07
464.754	18523.71
464.959	17919.56
465.165	17862.21
465.37	17192.53
465.575	16664.15
465.781	17593.93
465.986	17616.46
466.191	16881.24
466.397	16500.31
466.602	15685.22
466.807	16397.92
467.012	16627.29
467.218	16297.56
467.423	16072.29
467.628	16195.17
467.833	16545.37
468.038	16223.84
468.244	15660.65
468.449	16289.37
468.654	15709.8
468.859	15709.8
469.064	15629.93
469.269	14829.17
469.474	15285.87
469.679	15738.47
469.885	14945.91
470.09	15050.35
470.295	15124.08
470.5	14495.35
470.705	14816.88
470.91	14552.7
471.115	14462.58
471.32	14773.88
471.525	14724.72
471.73	14368.38
471.935	14087.81
472.139	13837.95
472.344	13893.25
472.549	13858.43
472.754	13579.91
472.959	13233.8
473.164	13063.82
473.369	12842.64
473.574	13381.26
473.778	13059.73
473.983	12988.05
474.188	12945.04
474.393	12267.16
474.598	12580.5
474.802	12381.85
475.007	12111.52
475.212	12252.83
475.417	11896.48
475.621	12023.45
475.826	11964.06
476.031	11699.87
476.235	11511.46
476.44	11669.16
476.645	11314.86
476.849	11544.23
477.054	11333.29
477.259	11013.81
477.463	10997.42
477.668	10925.74
477.872	11011.76
478.077	10610.36
478.282	10383.03
478.486	10417.85
478.691	10206.91
478.895	10356.41
479.1	10135.23
479.304	10430.13
479.509	9801.41
479.713	10249.91
479.918	9975.49
480.122	9922.24
480.326	9916.09
480.531	10020.54
480.735	9653.95
480.94	9737.92
481.144	10211
481.348	9727.68
481.553	9750.21
481.757	9717.44
481.961	9682.63
482.166	9739.97
482.37	9699.01
482.574	9432.77
482.778	9727.68
482.983	9957.05
483.187	9596.61
483.391	9537.22
483.595	9402.05
483.8	9514.69
484.004	9373.38
484.208	9639.62
484.412	9504.45
484.616	9651.91
484.821	9531.08
485.025	9301.7
485.229	9645.76
485.433	9623.23
485.637	9545.41
485.841	9428.68
486.045	9574.08
486.249	9617.09
486.453	9289.42
486.657	9666.24
486.861	9488.07
487.065	9238.22
487.269	9492.16
487.473	9365.19
487.677	9606.85
487.881	9629.38
488.085	9436.87
488.289	9477.83
488.493	9467.59
488.697	9678.53
488.901	9457.35
489.105	9506.5
489.309	9627.33
489.512	9766.59
489.716	9637.57
489.92	9610.95
490.124	9963.2
490.328	9791.17
490.531	9834.18
490.735	9787.07
490.939	9701.06
491.143	9813.7
491.346	9940.67
491.55	9846.46
491.754	9862.85
491.958	10075.84
492.161	9926.33
492.365	10131.13
492.569	10002.11
492.772	10016.44
492.976	10256.06
493.18	10084.03
493.383	10309.3
493.587	10243.77
493.79	10534.58
493.994	10241.72
494.197	10546.87
494.401	10512.05
494.605	10340.02
494.808	10741.43
495.012	10843.82
495.215	10596.02
495.419	10919.6
495.622	10800.82
495.825	10790.58
496.029	11085.48
496.232	11359.91
496.436	11169.45
496.639	11355.82
496.843	11312.81
497.046	11624.1
497.249	11796.13
497.453	11839.14
497.656	12134.04
497.859	11951.77
498.063	12342.94
498.266	12279.45
498.469	12383.9
498.673	12236.44
498.876	12766.87
499.079	12908.18
499.282	12793.49
499.485	12879.5
499.689	13188.75
499.892	13371.02
500.095	13264.52
500.298	13657.73
500.501	13569.67
500.705	13903.49
500.908	14063.23
501.111	14030.46
501.314	14245.5
501.517	14247.55
501.72	14610.04
501.923	14378.62
502.126	14796.4
502.329	15009.39
502.532	15201.9
502.735	15302.25
502.938	15537.77
503.141	15781.48
503.344	15984.23
503.547	15818.34
503.75	16158.3
503.953	16244.32
504.156	16326.24
504.359	16492.12
504.562	16950.87
504.765	16942.67
504.968	17077.84
505.17	17512.01
505.373	17446.48
505.576	17696.33
505.779	17950.28
505.982	17999.43
506.185	18257.47
506.387	17974.85
506.59	18452.03
506.793	18951.73
506.996	19238.45
507.198	19598.89
507.401	19363.37
507.604	19574.31
507.807	19969.57
508.009	20024.87
508.212	19998.24
508.415	20368.93
508.617	20448.8
508.82	20536.86
509.022	20407.84
509.225	20983.32
509.428	21446.16
509.63	21409.29
509.833	21505.55
510.035	22017.54
510.238	21927.43
510.44	22246.91
510.643	22693.37
510.845	22726.14
511.048	22658.56
511.25	22953.46
511.453	23023.09
511.655	24147.43
511.858	23715.31
512.06	24012.26
512.262	24370.66
512.465	24317.41
512.667	24675.8
512.87	24833.5
513.072	24888.79
513.274	25411.03
513.477	25386.45
513.679	25497.04
513.881	26107.33
514.084	26174.92
514.286	26344.9
514.488	26383.81
514.69	27045.3
514.893	26785.21
515.095	27033.02
515.297	27502
515.499	27434.42
515.701	28044.71
515.904	28378.53
516.106	28470.69
516.308	28777.89
516.51	29070.75
516.712	28960.16
516.914	29232.54
517.116	29771.15
517.318	29851.02
517.52	30094.73
517.722	29916.56
517.925	30244.23
518.127	30819.71
518.329	31057.28
518.531	30782.85
518.733	31577.46
518.935	31964.53
519.136	31882.61
519.338	32675.17
519.54	32400.74
519.742	32845.15
519.944	33025.37
520.146	33471.83
520.348	33533.27
520.55	33547.61
520.752	33602.9
520.954	34340.17
521.155	34344.27
521.357	34540.87
521.559	34534.73
521.761	35349.82
521.963	35071.29
522.164	35503.42
522.366	35136.83
522.568	35824.95
522.77	36017.46
522.971	36597.03
523.173	36386.09
523.375	36371.75
523.576	36623.65
523.778	36744.48
523.98	37358.88
524.181	37018.91
524.383	37008.67
524.584	38018.32
524.786	38012.18
524.988	37983.51
525.189	38173.97
525.391	38726.92
525.592	38821.12
525.794	38565.13
525.995	38778.12
526.197	38755.59
526.398	39097.6
526.6	39372.03
526.801	39288.06
527.003	39296.25
527.204	39574.78
527.406	39986.42
527.607	40029.43
527.808	40101.11
528.01	39087.36
528.211	39671.03
528.412	40631.53
528.614	40545.51
528.815	40410.35
529.016	40752.36
529.218	40324.33
529.419	40422.64
529.62	40477.93
529.822	40580.33
530.023	41018.6
530.224	40991.97
530.425	40664.3
530.626	40410.35
530.828	40619.24
531.029	41469.15
531.23	41106.66
531.431	41166.05
531.632	41180.38
531.833	41073.89
532.035	41479.39
532.236	41620.7
532.437	41458.91
532.638	41221.34
532.839	41315.55
533.04	41403.61
533.241	41370.85
533.442	42007.76
533.643	41454.81
533.844	41393.37
534.045	41839.83
534.246	41217.25
534.447	41581.79
534.648	41792.73
534.849	41936.09
535.05	41047.27
535.251	41749.72
535.451	41204.96
535.652	41563.36
535.853	41682.14
536.054	41186.53
536.255	41518.3
536.456	41176.29
536.657	42321.1
536.857	41004.26
537.058	41331.93
537.259	41256.16
537.46	41825.5
537.66	41530.59
537.861	41635.03
538.062	41589.98
538.263	41381.09
538.463	41307.36
538.664	41534.68
538.865	41663.71
539.065	41618.65
539.266	41174.24
539.466	41852.12
539.667	41215.2
539.868	41688.28
540.068	40991.97
540.269	41549.02
540.469	41557.21
540.67	41114.85
540.87	41727.19
541.071	41112.8
541.271	41256.16
541.472	41327.84
541.672	41581.79
541.873	40938.72
542.073	40934.63
542.274	41495.77
542.474	40875.24
542.675	40836.33
542.875	41360.61
543.075	40998.12
543.276	40811.75
543.476	41678.04
543.676	41376.99
543.877	41383.13
544.077	41123.04
544.277	41112.8
544.478	41133.28
544.678	41295.07
544.878	41346.27
545.078	41510.11
545.279	41065.7
545.479	40883.43
545.679	41295.07
545.879	40813.8
546.079	41254.11
546.28	40596.71
546.48	40658.15
546.68	41022.69
546.88	41028.84
547.08	40860.9
547.28	41313.5
547.48	40217.84
547.68	40774.89
547.88	40719.59
548.081	41204.96
548.281	40877.29
548.481	41037.03
548.681	41084.13
548.881	40963.3
549.081	40877.29
549.28	40391.92
549.48	41221.34
549.68	40504.56
549.88	41094.37
550.08	40455.4
550.28	41112.8
550.48	40635.63
550.68	40836.33
550.88	40682.73
551.08	40807.65
551.279	40703.21
551.479	40314.09
551.679	40717.54
551.879	40748.26
552.079	40678.63
552.278	40410.35
552.478	40539.37
552.678	40262.89
552.878	40948.96
553.077	40598.76
553.277	40230.13
553.477	40787.17
553.676	40377.58
553.876	40183.02
554.076	40080.63
554.275	40365.29
554.475	39902.45
554.674	40375.53
554.874	40367.34
555.074	40162.54
555.273	40396.01
555.473	40373.49
555.672	40228.08
555.872	40301.81
556.071	40035.57
556.271	40918.24
556.47	40328.43
556.67	39879.92
556.869	40269.04
557.068	39912.69
557.268	40047.86
557.467	39943.41
557.667	39867.64
557.866	39841.01
558.065	40039.67
558.265	40010.99
558.464	39843.06
558.663	40035.57
558.863	39869.68
559.062	40039.67
559.261	39286.01
559.461	40170.74
559.66	39142.66
559.859	39812.34
560.058	39458.04
560.258	39611.64
560.457	39226.62
560.656	39429.37
560.855	39150.85
561.054	39435.52
561.253	39273.73
561.453	39220.48
561.652	38941.96
561.851	39068.93
562.05	39058.69
562.249	38796.55
562.448	39499
562.647	39085.31
562.846	38980.87
563.045	39152.9
563.244	38423.82
563.443	38999.3
563.642	38520.07
563.841	38302.99
564.04	38421.77
564.239	38903.04
564.438	37995.79
564.637	38520.07
564.836	38575.37
565.035	38157.58
565.234	38548.75
565.432	38495.5
565.631	38200.59
565.83	38153.49
566.029	38044.94
566.228	37995.79
566.427	37666.07
566.625	37735.7
566.824	37829.91
567.023	37655.83
567.222	37229.85
567.42	37860.63
567.619	37279
567.818	37279
568.016	37459.23
568.215	37768.47
568.414	37219.61
568.612	37528.86
568.811	37160.22
569.01	36977.95
569.208	37014.82
569.407	37192.99
569.605	36902.18
569.804	36603.17
570.002	36398.38
570.201	36687.14
570.4	36216.11
570.598	36324.65
570.797	36355.37
570.995	36201.77
571.193	35890.48
571.392	36740.39
571.59	35925.3
571.789	36134.19
571.987	35900.72
572.186	35822.9
572.384	36025.65
572.582	35919.15
572.781	36279.6
572.979	35738.93
573.177	35429.69
573.376	35579.19
573.574	35306.81
573.772	35454.26
573.971	35251.52
574.169	34852.16
574.367	35190.08
574.565	35239.23
574.763	35224.89
574.962	35124.54
575.16	35034.43
575.358	34864.45
575.556	34340.17
575.754	35112.25
575.952	34549.06
576.151	34766.15
576.349	34200.91
576.547	34055.5
576.745	34452.81
576.943	34262.35
577.141	33998.16
577.339	34413.9
577.537	33795.41
577.735	34368.84
577.933	33389.91
578.131	33369.43
578.329	33477.97
578.527	33453.4
578.725	33484.12
578.923	33615.19
579.121	33736.02
579.319	32996.7
579.516	33410.39
579.714	33441.11
579.912	33025.37
580.11	33133.92
580.308	33088.86
580.506	32939.36
580.704	32349.54
580.901	32703.84
581.099	33031.52
581.297	32341.35
581.495	32521.57
581.692	32697.7
581.89	32152.94
582.088	32245.1
582.285	32402.79
582.483	32298.34
582.681	32109.93
582.878	32038.25
583.076	31767.92
583.274	32036.2
583.471	31366.52
583.669	31657.33
583.866	31333.75
584.064	31829.36
584.262	31118.71
584.459	31413.62
584.657	31085.95
584.854	31362.42
585.052	30598.53
585.249	31253.88
585.447	31161.72
585.644	30872.96
585.841	30858.62
586.039	31057.28
586.236	30653.83
586.434	30705.02
586.631	30492.04
586.828	30678.4
587.026	30281.1
587.223	30274.95
587.42	30451.08
587.618	30168.46
587.815	29920.65
588.012	29748.62
588.21	29971.85
588.407	29906.32
588.604	29552.02
588.801	29724.05
588.999	29678.99
589.196	29756.82
589.393	29584.79
589.59	29285.78
589.787	29529.49
589.984	29062.55
590.182	28968.35
590.379	28984.73
590.576	28925.34
590.773	29121.94
590.97	28683.68
591.167	28886.43
591.364	28579.23
591.561	28718.5
591.758	28745.12
591.955	28353.96
592.152	28513.7
592.349	28030.38
592.546	28525.99
592.743	28233.13
592.94	27706.8
593.137	27600.3
593.334	28087.72
593.531	27907.5
593.727	27868.59
593.924	27694.51
594.121	27481.52
594.318	27669.94
594.515	27346.36
594.712	27741.61
594.908	27096.5
595.105	27413.94
595.302	26998.2
595.499	27080.12
595.696	26869.18
595.892	26740.16
596.089	26813.88
596.286	27039.16
596.482	26672.57
596.679	26236.36
596.876	26650.05
597.072	26379.71
597.269	26363.33
597.466	26230.21
597.662	25947.59
597.859	26346.95
598.055	26224.07
598.252	26172.87
598.448	26342.85
598.645	25863.63
598.841	25779.66
599.038	25703.89
599.234	25798.09
599.431	25382.35
599.627	25310.68
599.824	25544.14
600.02	25445.84
600.217	25470.42
600.413	25146.84
600.609	25269.72
600.806	25204.18
601.002	25118.17
601.198	24903.13
601.395	24876.51
601.591	24849.88
601.787	24792.54
601.984	24651.23
602.18	24667.61
602.376	24487.39
602.572	24450.53
602.769	24614.37
602.965	24051.17
603.161	24440.29
603.357	24081.89
603.553	23916.01
603.75	24112.61
603.946	23930.34
604.142	23940.58
604.338	23739.88
604.534	23899.62
604.73	23662.06
604.926	23895.53
605.122	23905.77
605.318	23549.42
605.514	23526.89
605.71	23150.07
605.906	22980.09
606.102	23594.48
606.298	23250.42
606.494	23178.74
606.69	23221.75
606.886	22926.84
607.082	22752.76
607.278	23209.46
607.474	22740.47
607.67	23244.27
607.866	22693.37
608.062	22996.47
608.257	22646.27
608.453	22877.69
608.649	22840.82
608.845	22162.95
609.041	22156.8
609.236	22883.83
609.432	22617.6
609.628	22296.07
609.824	22187.52
610.019	22238.72
610.215	22212.1
610.411	22216.19
610.606	21964.29
610.802	22136.32
610.998	22294.02
611.193	21956.1
611.389	21984.77
611.584	22251.01
611.78	21921.29
611.976	21784.07
612.171	22171.14
612.367	21806.6
612.562	21726.73
612.758	21401.1
612.953	21599.76
613.149	21861.9
613.344	21362.19
613.539	21859.85
613.735	21509.65
613.93	21605.9
614.126	21413.39
614.321	21591.56
614.517	21409.29
614.712	21315.09
614.907	21245.46
615.103	21556.75
615.298	21233.17
615.493	21354
615.688	20762.14
615.884	21282.32
616.079	20925.97
616.274	21030.42
616.47	20966.93
616.665	21132.82
616.86	20887.06
617.055	20839.96
617.25	20837.91
617.445	20868.63
617.641	20495.9
617.836	20657.69
618.031	20176.42
618.226	20768.28
618.421	20379.17
618.616	20610.59
618.811	20256.29
619.006	20766.23
619.201	20153.89
619.396	20637.21
619.591	19891.75
619.786	20205.09
619.981	19879.46
620.176	20078.11
620.371	19928.61
620.566	19473.96
620.761	19506.73
620.956	19547.69
621.151	18878.01
621.346	19451.44
621.541	19045.94
621.735	19412.53
621.93	19023.41
622.125	19019.32
622.32	18943.54
622.515	18794.04
622.709	18599.48
622.904	18751.03
623.099	18550.33
623.294	18642.49
623.488	18568.76
623.683	18683.45
623.878	17935.94
624.072	18155.07
624.267	18247.23
624.462	18050.63
624.656	17858.12
624.851	17878.6
625.046	17708.62
625.24	17573.45
625.435	17450.57
625.629	17512.01
625.824	17174.1
626.018	17262.16
626.213	17131.09
626.407	16936.53
626.602	17010.26
626.796	16780.89
626.991	16690.77
627.185	16834.13
627.38	16676.44
627.574	16612.95
627.768	16457.31
627.963	16250.46
628.157	16211.55
628.352	16272.99
628.546	15885.92
628.74	16107.1
628.935	15840.87
629.129	16000.61
629.323	15894.11
629.517	15789.67
629.712	15824.48
629.906	15754.85
630.1	15384.17
630.294	15494.76
630.489	15222.38
630.683	15425.13
630.877	14900.85
631.071	14841.46
631.265	15052.4
631.459	14956.15
631.653	14640.76
631.848	14669.43
632.042	14665.33
632.236	14691.96
632.43	14401.15
632.624	14378.62
632.818	14032.51
633.012	13975.17
633.206	14175.87
633.4	14349.95
633.594	13921.92
633.788	14026.37
633.982	14106.24
634.176	13919.87
634.369	13821.57
634.563	13538.95
634.757	13680.26
634.951	13588.1
635.145	13502.09
635.339	13497.99
635.533	13465.22
635.726	13475.46
635.92	13018.77
636.114	13172.36
636.308	13186.7
636.501	13194.89
636.695	13309.58
636.889	12899.98
637.083	12879.5
637.276	12578.45
637.47	12830.35
637.664	12502.68
637.857	12619.41
638.051	12474.01
638.244	12338.84
638.438	12342.94
638.632	12332.7
638.825	12205.72
639.019	12091.04
639.212	11972.25
639.406	12070.56
639.599	11859.62
639.793	12185.24
639.986	11861.66
640.18	11818.66
640.373	11501.22
640.567	11613.86
640.76	11755.17
640.954	11495.08
641.147	11378.34
641.34	11185.83
641.534	11464.36
641.727	11413.16
641.92	11214.51
642.114	11314.86
642.307	11267.75
642.5	11187.88
642.694	11028.14
642.887	10835.63
643.08	10837.68
643.273	10897.07
643.467	10806.96
643.66	10679.99
643.853	10487.48
644.046	10704.56
644.239	10579.64
644.432	10587.83
644.626	10366.65
644.819	10333.88
645.012	10520.24
645.205	10301.11
645.398	10213.05
645.591	10127.03
645.784	9926.33
645.977	10020.54
646.17	10059.45
646.363	9850.56
646.556	9897.66
646.749	9819.84
646.942	9944.77
647.135	9727.68
647.328	9799.36
647.521	9641.67
647.714	9619.14
647.907	9434.82
648.099	9510.6
648.292	9565.89
648.485	9463.49
648.678	9338.57
648.871	9187.02
649.064	9176.78
649.256	9201.35
649.449	9119.43
649.642	9123.53
649.835	9170.63
650.027	9043.66
650.22	9064.14
650.413	8892.11
650.605	8933.07
650.798	8988.36
650.991	8810.19
651.183	8750.8
651.376	8623.83
651.568	8732.37
651.761	8623.83
651.954	8666.83
652.146	8472.28
652.339	8423.12
652.531	8492.76
652.724	8476.37
652.916	8298.2
653.109	8339.16
653.301	8212.18
653.494	8398.55
653.686	7960.28
653.879	8214.23
654.071	8228.57
654.263	8064.73
654.456	8085.21
654.648	7925.47
654.84	7911.13
655.033	7927.52
655.225	8046.3
655.417	7720.67
655.61	7808.73
655.802	7726.82
655.994	7763.68
656.186	7743.2
656.379	7644.9
656.571	7608.03
656.763	7714.53
656.955	7524.07
657.148	7487.2
657.34	7517.92
657.532	7407.33
657.724	7196.39
657.916	7440.1
658.108	7337.7
658.3	7147.24
658.492	7270.12
658.684	7167.72
658.876	7141.1
659.068	7114.47
659.26	7161.58
659.452	7120.62
659.644	6969.07
659.836	6985.45
660.028	6973.16
660.22	6774.51
660.412	6897.39
660.604	6717.17
660.796	6821.61
660.988	6805.23
661.18	6751.98
661.372	6694.64
661.563	6606.58
661.755	6631.15
661.947	6551.28
662.139	6649.58
662.331	6438.64
662.522	6493.94
662.714	6440.69
662.906	6491.89
663.097	6475.51
663.289	6391.54
663.481	6301.43
663.673	6352.63
663.864	6299.38
664.056	6274.81
664.247	6323.96
664.439	6151.93
664.631	6129.4
664.822	6186.74
665.014	6119.16
665.205	5926.65
665.397	6084.34
665.588	5904.12
665.78	5959.42
665.971	5961.47
666.163	5955.32
666.354	5940.99
666.546	5908.22
666.737	5857.02
666.929	5615.36
667.12	5885.69
667.311	5689.09
667.503	5719.81
667.694	5547.78
667.885	5803.77
668.077	5627.65
668.268	5621.5
668.459	5674.75
668.651	5629.7
668.842	5541.63
669.033	5582.59
669.224	5570.3
669.416	5615.36
669.607	5478.15
669.798	5394.18
669.989	5547.78
670.18	5252.87
670.371	5373.7
670.563	5304.07
670.754	5330.69
670.945	5261.06
671.136	5445.38
671.327	5173
671.518	5273.35
671.709	5289.73
671.9	5261.06
672.091	5203.72
672.282	5183.24
672.473	5175.05
672.664	5138.18
672.855	5166.85
673.046	5183.24
673.237	5191.43
673.428	5023.5
673.619	5003.02
673.809	5072.65
674	4923.15
674.191	4998.92
674.382	4861.71
674.573	4912.91
674.764	4878.09
674.954	4869.9
675.145	4740.88
675.336	4812.56
675.527	4681.49
675.717	4765.45
675.908	4689.68
676.099	4736.78
676.289	4697.87
676.48	4837.13
676.671	4654.86
676.861	4796.17
677.052	4736.78
677.243	4798.22
677.433	4654.86
677.624	4671.25
677.814	4630.29
678.005	4718.35
678.195	4615.95
678.386	4587.28
678.576	4622.09
678.767	4466.45
678.957	4542.22
679.148	4497.17
679.338	4421.39
679.529	4531.98
679.719	4538.13
679.909	4427.54
680.1	4413.2
680.29	4499.22
680.481	4468.5
680.671	4431.63
680.861	4437.78
681.052	4439.83
681.242	4419.35
681.432	4392.72
681.622	4435.73
681.813	4189.97
682.003	4441.87
682.193	4316.95
682.383	4380.43
682.573	4265.75
682.764	4310.8
682.954	4321.04
683.144	4196.12
683.334	4300.56
683.524	4345.62
683.714	4200.21
683.904	4269.84
684.094	4269.84
684.284	4196.12
684.474	4155.16
684.664	4218.64
684.854	4200.21
685.044	4157.21
685.234	4224.79
685.424	4278.04
685.614	4114.2
685.804	4151.06
685.994	4151.06
686.184	4009.75
686.374	3958.55
686.564	4065.05
686.753	4077.34
686.943	3893.02
687.133	4030.23
687.323	3942.17
687.513	3970.84
687.702	4042.52
687.892	3897.11
688.082	4015.9
688.272	3942.17
688.461	3847.96
688.651	3888.92
688.841	3766.04
689.03	3772.19
689.22	3813.15
689.41	3835.67
689.599	3753.76
689.789	3735.32
689.979	3778.33
690.168	3780.38
690.358	3620.64
690.547	3665.69
690.737	3657.5
690.926	3706.65
691.116	3606.3
691.305	3581.73
691.495	3778.33
691.684	3641.12
691.874	3663.65
692.063	3512.1
692.252	3624.73
692.442	3614.49
692.631	3483.42
692.82	3520.29
693.01	3489.57
693.199	3460.9
693.388	3444.51
693.578	3462.94
693.767	3378.98
693.956	3426.08
694.146	3413.79
694.335	3245.86
694.524	3243.81
694.713	3397.41
694.902	3532.58
695.092	3510.05
695.281	3407.65
695.47	3145.51
695.659	3348.26
695.848	3221.28
696.037	3278.63
696.226	3262.24
696.415	3045.16
696.604	3430.18
696.793	3206.95
696.982	3227.43
697.171	3188.52
697.36	3254.05
697.549	3219.24
697.738	3092.26
697.927	3122.98
698.116	3120.93
698.305	3180.32
698.494	3155.75
698.683	3213.09
698.872	3307.3
699.061	3069.73
699.25	3088.17
699.438	3114.79
699.627	3041.06
699.816	3092.26
700.005	3026.73
700.193	3086.12
700.382	3092.26
700.571	3131.17
700.76	3163.94
700.948	3010.34
701.137	2977.58
701.326	3024.68
701.514	2975.53
701.703	3055.4
701.892	2955.05
702.08	2996.01
702.269	3057.45
702.457	3075.88
702.646	2934.57
702.834	3006.25
703.023	2981.67
703.212	2918.18
703.4	2885.42
703.589	3051.3
703.777	3008.3
703.965	2924.33
704.154	2905.9
704.342	2885.42
704.531	2996.01
704.719	2948.9
704.907	2907.94
705.096	2821.93
705.284	2840.36
705.472	2846.51
705.661	2936.62
705.849	3016.49
706.037	2850.6
706.226	2918.18
706.414	2830.12
706.602	2903.85
706.79	2993.96
706.979	2866.99
707.167	2836.27
707.355	2856.75
707.543	2793.26
707.731	2795.31
707.919	2905.9
708.107	2756.4
708.296	2821.93
708.484	2727.72
708.672	3008.3
708.86	2746.16
709.048	2887.47
709.236	2785.07
709.424	2797.35
709.612	2737.96
709.8	2697
709.988	2729.77
710.176	2785.07
710.364	2780.97
710.551	2729.77
710.739	2697
710.927	2715.44
711.115	2701.1
711.303	2752.3
711.491	2664.24
711.679	2680.62
711.866	2733.87
712.054	2869.03
712.242	2680.62
712.43	2770.73
712.617	2783.02
712.805	2729.77
712.993	2590.51
713.181	2723.63
713.368	2692.91
713.556	2615.09
713.744	2688.81
713.931	2778.92
714.119	2748.2
714.306	2672.43
714.494	2590.51
714.682	2627.37
714.869	2721.58
715.057	2672.43
715.244	2576.17
715.432	2694.96
715.619	2672.43
715.807	2631.47
715.994	2594.61
716.182	2541.36
716.369	2426.67
716.556	2672.43
716.744	2664.24
716.931	2674.48
717.119	2645.8
717.306	2459.44
717.493	2539.31
717.681	2654
717.868	2531.12
718.055	2697
718.242	2586.41
718.43	2598.7
718.617	2524.97
718.804	2615.09
718.991	2565.93
719.179	2498.35
719.366	2557.74
719.553	2565.93
719.74	2502.45
719.927	2586.41
720.114	2631.47
720.301	2561.84
720.488	2500.4
720.676	2572.08
720.863	2557.74
721.05	2602.8
721.237	2584.37
721.424	2459.44
721.611	2565.93
721.798	2428.72
721.985	2533.17
722.172	2488.11
722.358	2453.3
722.545	2500.4
722.732	2590.51
722.919	2492.21
723.106	2502.45
723.293	2565.93
723.48	2510.64
723.667	2479.92
723.853	2479.92
724.04	2453.3
724.227	2453.3
724.414	2434.86
724.6	2445.1
724.787	2422.58
724.974	2395.95
725.161	2463.54
725.347	2404.14
725.534	2369.33
725.72	2434.86
725.907	2434.86
726.094	2465.58
726.28	2379.57
726.467	2506.54
726.653	2420.53
726.84	2434.86
727.027	2527.02
727.213	2531.12
727.4	2498.35
727.586	2438.96
727.773	2367.28
727.959	2391.86
728.145	2295.6
728.332	2389.81
728.518	2520.88
728.705	2463.54
728.891	2348.85
729.077	2473.78
729.264	2342.71
729.45	2414.38
729.636	2432.82
729.823	2422.58
730.009	2441.01
730.195	2453.3
730.382	2373.43
730.568	2422.58
730.754	2361.14
730.94	2461.49
731.126	2385.71
731.313	2430.77
731.499	2381.62
731.685	2381.62
731.871	2379.57
732.057	2322.23
732.243	2361.14
732.429	2328.37
732.615	2359.09
732.801	2481.97
732.987	2332.47
733.173	2242.36
733.359	2275.12
733.545	2375.47
733.731	2412.34
733.917	2451.25
734.103	2344.75
734.289	2336.56
734.475	2381.62
734.661	2475.82
734.847	2352.95
735.033	2273.07
735.219	2406.19
735.404	2211.64
735.59	2256.69
735.776	2303.79
735.962	2436.91
736.148	2332.47
736.333	2379.57
736.519	2297.65
736.705	2342.71
736.89	2203.44
737.076	2426.67
737.262	2348.85
737.447	2303.79
737.633	2289.46
737.819	2332.47
738.004	2320.18
738.19	2236.21
738.375	2262.83
738.561	2291.51
738.747	2213.68
738.932	2254.64
739.118	2361.14
739.303	2217.78
739.489	2254.64
739.674	2285.36
739.859	2164.53
740.045	2166.58
740.23	2264.88
740.416	2232.12
740.601	2240.31
740.786	2094.9
740.972	2148.15
741.157	2162.48
741.342	2099
741.528	2213.68
741.713	2152.24
741.898	2205.49
742.084	2152.24
742.269	2066.23
742.454	2074.42
742.639	2166.58
742.824	2092.85
743.01	2115.38
743.195	2127.67
743.38	2002.74
743.565	2025.27
743.75	1978.17
743.935	2066.23
744.12	2019.13
744.305	2047.8
744.49	1943.35
744.675	2049.85
744.86	2033.46
745.045	1992.5
745.23	1967.93
745.415	2045.75
745.6	1896.25
745.785	1972.02
745.97	1974.07
746.155	1969.98
746.34	1929.02
746.525	1945.4
746.71	1978.17
746.895	1871.67
747.079	1943.35
747.264	1869.62
747.449	1855.29
747.634	1869.62
747.819	1840.95
748.003	1808.19
748.188	1894.2
748.373	1779.51
748.557	1781.56
748.742	1746.75
748.927	1750.84
749.111	1808.19
749.296	1705.79
749.481	1763.13
749.665	1697.6
749.85	1668.92
750.034	1808.19
750.219	1609.53
750.404	1697.6
750.588	1711.93
750.773	1533.76
750.957	1634.11
751.141	1738.55
751.326	1668.92
751.51	1652.54
751.695	1619.77
751.879	1527.61
752.064	1644.35
752.248	1632.06
752.432	1539.9
752.617	1691.45
752.801	1451.84
752.985	1546.05
753.17	1476.41
753.354	1474.37
753.538	1541.95
753.722	1396.54
753.907	1523.52
754.091	1429.31
754.275	1472.32
754.459	1392.45
754.643	1490.75
754.828	1306.43
755.012	1437.5
755.196	1357.63
755.38	1398.59
755.564	1355.58
755.748	1435.46
755.932	1386.3
756.116	1388.35
756.3	1410.88
756.484	1255.23
756.668	1369.92
756.852	1314.63
757.036	1288
757.22	1263.43
757.404	1298.24
757.588	1234.75
757.772	1296.19
757.956	1267.52
758.14	1232.71
758.323	1115.97
758.507	1175.36
758.691	1181.51
758.875	1154.88
759.059	1263.43
759.242	1247.04
759.426	1244.99
759.61	1226.56
759.794	1124.16
759.977	1175.36
760.161	1177.41
760.345	1222.47
760.528	1156.93
760.712	1142.6
760.895	1034.05
761.079	1204.03
761.263	1079.11
761.446	1158.98
761.63	1197.89
761.813	1066.82
761.997	1058.63
762.18	1085.25
762.364	1148.74
762.547	1066.82
762.731	1050.44
762.914	1099.59
763.098	1085.25
763.281	1062.73
763.464	978.76
763.648	1009.48
763.831	1087.3
764.015	978.76
764.198	956.23
764.381	1046.34
764.564	1077.06
764.748	1048.39
764.931	1118.02
765.114	1050.44
765.297	1066.82
765.481	1025.86
765.664	1023.81
765.847	1015.62
766.03	984.9
766.213	1029.96
766.397	1005.38
766.58	1021.77
766.763	1036.1
766.946	956.23
767.129	1064.77
767.312	1019.72
767.495	898.89
767.678	915.27
767.861	980.81
768.044	888.65
768.227	913.22
768.41	945.99
768.593	874.31
768.776	954.18
768.959	857.93
769.142	968.52
769.324	862.02
769.507	995.14
769.69	907.08
769.873	878.41
770.056	905.03
770.239	919.37
770.421	890.7
770.604	870.22
770.787	886.6
770.97	909.13
771.152	782.15
771.335	837.45
771.518	816.97
771.7	819.02
771.883	855.88
772.066	747.34
772.248	853.83
772.431	751.43
772.613	837.45
772.796	759.63
772.978	900.94
773.161	812.87
773.343	728.91
773.526	808.78
773.708	747.34
773.891	778.06
774.073	806.73
774.256	659.28
774.438	808.78
774.621	657.23
774.803	857.93
774.985	673.61
775.168	716.62
775.35	747.34
775.532	833.35
775.715	739.15
775.897	747.34
776.079	714.57
776.261	724.81
776.444	730.95
776.626	739.15
776.808	724.81
776.99	720.71
777.173	642.89
777.355	683.85
777.537	616.27
777.719	714.57
777.901	735.05
778.083	628.56
778.265	661.32
778.447	683.85
778.629	595.79
778.811	642.89
778.993	595.79
779.175	673.61
779.357	616.27
779.539	608.08
779.721	689.99
779.903	616.27
780.085	591.69
780.267	694.09
780.449	583.5
780.631	526.16
780.812	567.12
780.994	649.04
781.176	632.65
781.358	479.05
781.54	575.31
781.721	542.54
781.903	466.77
782.085	550.73
782.267	589.64
782.448	431.95
782.63	468.81
782.812	489.29
782.993	481.1
783.175	524.11
783.357	448.33
783.538	569.16
783.72	495.44
783.901	483.15
784.083	575.31
784.264	487.25
784.446	462.67
784.627	477.01
784.809	483.15
784.99	503.63
785.172	528.21
785.353	501.58
785.535	499.53
785.716	497.49
785.897	479.05
786.079	487.25
786.26	468.81
786.441	509.77
786.623	436.05
786.804	438.09
786.985	366.42
787.167	431.95
787.348	454.48
787.529	436.05
787.71	460.62
787.891	421.71
788.073	399.18
788.254	419.66
788.435	393.04
788.616	397.14
788.797	337.74
788.978	337.74
789.159	411.47
789.34	438.09
789.522	362.32
789.703	378.7
789.884	329.55
790.065	319.31
790.246	440.14
790.427	425.81
790.607	390.99
790.788	329.55
790.969	323.41
791.15	333.65
791.331	354.13
791.512	372.56
791.693	315.22
791.874	489.29
792.054	472.91
792.235	298.83
792.416	282.45
792.597	298.83
792.778	329.55
792.958	329.55
793.139	329.55
793.32	294.74
793.5	388.94
793.681	362.32
793.862	354.13
794.042	304.98
794.223	339.79
794.404	366.42
794.584	276.31
794.765	364.37
794.945	282.45
795.126	370.51
795.306	241.49
795.487	382.8
795.667	280.4
795.848	317.26
796.028	243.54
796.209	243.54
796.389	294.74
796.57	313.17
796.75	294.74
796.93	300.88
797.111	296.78
797.291	302.93
797.471	241.49
797.652	288.59
797.832	276.31
798.012	304.98
798.192	253.78
798.373	296.78
798.553	272.21
798.733	272.21
798.913	239.44
799.093	212.82
799.274	218.96
799.454	239.44
799.634	214.87
799.814	286.54
799.994	321.36
800.174	309.07
800.354	307.02
800.534	264.02
800.714	255.83
800.894	325.46
801.074	149.33
801.254	272.21
801.434	288.59
801.614	188.24
801.794	249.68
801.974	780.11
802.154	278.35
802.334	284.5
802.514	200.53
802.693	173.91
802.873	212.82
803.053	227.15
803.233	311.12
803.413	216.91
803.592	167.76
803.772	261.97
803.952	192.34
804.131	235.35
804.311	270.16
804.491	276.31
804.67	227.15
804.85	202.58
805.03	178
805.209	239.44
805.389	249.68
805.568	214.87
805.748	137.04
805.928	270.16
806.107	227.15
806.287	216.91
806.466	200.53
806.646	182.1
806.825	218.96
807.004	159.57
807.184	231.25
807.363	288.59
807.543	192.34
807.722	233.3
807.901	325.46
808.081	214.87
808.26	161.62
808.439	266.07
808.619	206.67
808.798	151.38
808.977	184.15
809.156	198.48
809.336	165.71
809.515	198.48
809.694	182.1
809.873	198.48
810.052	206.67
810.231	274.26
810.411	198.48
810.59	214.87
810.769	210.77
810.948	208.72
811.127	157.52
811.306	169.81
811.485	178
811.664	190.29
811.843	124.76
812.022	124.76
812.201	116.56
812.38	190.29
812.559	135
812.737	157.52
812.916	143.19
813.095	198.48
813.274	190.29
813.453	151.38
813.632	192.34
813.811	167.76
813.989	151.38
814.168	192.34
814.347	173.91
814.526	159.57
814.704	192.34
814.883	143.19
815.062	94.04
815.24	91.99
815.419	124.76
815.598	200.53
815.776	141.14
815.955	124.76
816.133	151.38
816.312	175.95
816.49	159.57
816.669	100.18
816.847	87.89
817.026	239.44
817.204	198.48
817.383	102.23
817.561	173.91
817.74	218.96
817.918	112.47
818.097	135
818.275	149.33
818.453	182.1
818.632	145.24
818.81	77.65
818.988	118.61
819.167	98.13
819.345	96.08
819.523	190.29
819.701	126.8
819.879	51.03
820.058	132.95
820.236	182.1
820.414	75.6
820.592	120.66
820.77	91.99
820.948	94.04
821.127	87.89
821.305	124.76
821.483	81.75
821.661	141.14
821.839	139.09
822.017	116.56
822.195	145.24
822.373	102.23
822.551	118.61
822.729	145.24
822.907	106.32
823.085	149.33
823.262	157.52
823.44	89.94
823.618	186.19
823.796	124.76
823.974	159.57
824.152	184.15
824.329	112.47
824.507	171.86
824.685	124.76
824.863	128.85
825.04	128.85
825.218	151.38
825.396	153.43
825.574	145.24
825.751	120.66
825.929	100.18
826.107	94.04
826.284	94.04
826.462	135
826.639	143.19
826.817	114.52
826.994	69.46
827.172	126.8
827.349	180.05
827.527	98.13
827.704	100.18
827.882	87.89
828.059	145.24
828.237	85.84
828.414	71.51
828.591	124.76
828.769	122.71
828.946	91.99
829.124	120.66
829.301	104.28
829.478	51.03
829.655	132.95
829.833	124.76
830.01	30.55
830.187	116.56
830.364	147.28
830.542	91.99
830.719	120.66
830.896	106.32
831.073	104.28
831.25	51.03
831.427	77.65
831.604	40.79
831.782	108.37
831.959	67.41
832.136	104.28
832.313	71.51
832.49	46.93
832.667	83.8
832.844	40.79
833.021	118.61
833.198	118.61
833.374	120.66
833.551	18.26
833.728	77.65
833.905	112.47
834.082	55.12
834.259	110.42
834.436	89.94
834.612	94.04
834.789	132.95
834.966	59.22
835.143	55.12
835.319	51.03
835.496	94.04
835.673	79.7
835.85	104.28
836.026	145.24
836.203	67.41
836.38	46.93
836.556	81.75
836.733	83.8
836.909	135
837.086	36.69
837.262	55.12
837.439	118.61
837.616	91.99
837.792	132.95
837.968	67.41
838.145	34.64
838.321	10.07
838.498	98.13
838.674	167.76
838.851	98.13
839.027	141.14
839.203	-14.51
839.38	100.18
839.556	85.84
839.732	75.6
839.909	104.28
840.085	91.99
840.261	46.93
840.437	108.37
840.614	108.37
840.79	124.76
840.966	100.18
841.142	67.41
841.318	61.27
841.494	198.48
841.671	116.56
841.847	38.74
842.023	59.22
842.199	75.6
842.375	91.99
842.551	102.23
842.727	26.45
842.903	112.47
843.079	38.74
843.255	141.14
843.431	18.26
843.607	77.65
843.783	51.03
843.959	85.84
844.134	106.32
844.31	69.46
844.486	42.84
844.662	67.41
844.838	5.97
845.013	63.32
845.189	132.95
845.365	96.08
845.541	65.36
845.716	51.03
845.892	143.19
846.068	46.93
846.244	100.18
846.419	110.42
846.595	71.51
846.77	61.27
846.946	132.95
847.122	85.84
847.297	67.41
847.473	94.04
847.648	30.55
847.824	59.22
847.999	75.6
848.175	108.37
848.35	94.04
848.526	137.04
848.701	38.74
848.876	118.61
849.052	40.79
849.227	79.7
849.403	53.08
849.578	57.17
849.753	42.84
849.929	77.65
850.104	-6.31
850.279	91.99
850.454	-24.75
850.63	96.08
850.805	34.64
850.98	124.76
851.155	91.99
851.33	124.76
851.505	14.17
851.681	153.43
851.856	34.64
852.031	28.5
852.206	46.93
852.381	18.26
852.556	5.97
852.731	51.03
852.906	-28.84
853.081	73.56
853.256	108.37
853.431	14.17
853.606	87.89
853.781	100.18
853.956	42.84
854.131	1.88
854.305	63.32
854.48	38.74
854.655	-10.41
854.83	63.32
855.005	51.03
855.18	42.84
855.354	65.36
855.529	51.03
855.704	-80.04
855.879	157.52
856.053	10.07
856.228	42.84
856.403	8.02
856.577	12.12
856.752	8.02
856.926	91.99
857.101	-10.41
857.276	10.07
857.45	61.27
857.625	51.03
857.799	61.27
857.974	51.03
858.148	12.12
858.323	108.37
858.497	69.46
858.672	42.84
858.846	26.45
859.02	28.5
859.195	-4.27
859.369	36.69
859.543	55.12
859.718	55.12
859.892	24.4
860.066	55.12
860.241	71.51
860.415	14.17
860.589	-14.51
860.763	-4.27
860.938	-4.27
861.112	42.84
861.286	104.28
861.46	91.99
861.634	38.74
861.808	141.14
861.982	44.88
862.157	-12.46
862.331	26.45
862.505	-55.47
862.679	10.07
862.853	83.8
863.027	42.84
863.201	44.88
863.375	5.97
863.549	63.32
863.722	-14.51
863.896	18.26
864.07	3.93
864.244	12.12
864.418	-45.23
864.592	46.93
864.766	30.55
864.939	67.41
865.113	22.36
865.287	14.17
865.461	59.22
865.634	73.56
865.808	51.03
865.982	18.26
866.156	3.93
866.329	-28.84
866.503	28.5
866.676	18.26
866.85	18.26
867.024	-4.27
867.197	53.08
867.371	67.41
867.544	24.4
867.718	34.64
867.891	32.6
868.065	42.84
868.238	44.88
868.412	44.88
868.585	-43.18
868.759	12.12
868.932	-55.47
869.105	5.97
869.279	51.03
869.452	61.27
869.625	59.22
869.799	100.18
869.972	67.41
870.145	32.6
870.319	83.8
870.492	59.22
870.665	18.26
870.838	-4.27
871.011	51.03
871.185	24.4
871.358	42.84
871.531	67.41
871.704	-14.51
871.877	53.08
872.05	22.36
872.223	-10.41
872.396	83.8
872.569	67.41
872.742	-10.41
872.915	10.07
873.088	65.36
873.261	-6.31
873.434	69.46
873.607	36.69
873.78	42.84
873.953	59.22
874.126	30.55
874.299	96.08
874.471	42.84
874.644	53.08
874.817	18.26
874.99	87.89
875.163	42.84
875.335	61.27
875.508	75.6
875.681	75.6
875.853	-14.51
876.026	44.88
876.199	26.45
876.371	28.5
876.544	57.17
876.717	59.22
876.889	10.07
877.062	67.41
877.234	-34.99
877.407	38.74
877.579	5.97
877.752	20.31
877.924	79.7
878.097	18.26
878.269	1.88
878.442	55.12
878.614	57.17
878.786	10.07
878.959	-18.6
879.131	18.26
879.303	-10.41
879.476	-37.03
879.648	67.41
879.82	24.4
879.993	34.64
880.165	71.51
880.337	28.5
880.509	46.93
880.681	-59.56
880.854	59.22
881.026	-6.31
881.198	91.99
881.37	42.84
881.542	18.26
881.714	38.74
881.886	-80.04
882.058	55.12
882.23	10.07
882.402	55.12
882.574	83.8
882.746	26.45
882.918	28.5
883.09	10.07
883.262	10.07
883.434	69.46
883.606	16.21
883.778	-30.89
883.95	87.89
884.122	-28.84
884.293	-8.36
884.465	-6.31
884.637	59.22
884.809	-22.7
884.98	12.12
885.152	69.46
885.324	18.26
885.496	10.07
885.667	108.37
885.839	1.88
886.011	63.32
886.182	18.26
886.354	1.88
886.525	71.51
886.697	38.74
886.869	34.64
887.04	26.45
887.212	46.93
887.383	18.26
887.555	-4.27
887.726	108.37
887.897	-10.41
888.069	91.99
888.24	32.6
888.412	-16.55
888.583	83.8
888.754	51.03
888.926	14.17
889.097	14.17
889.268	8.02
889.44	53.08
889.611	-37.03
889.782	16.21
889.953	42.84
890.125	75.6
890.296	87.89
890.467	3.93
890.638	-6.31
890.809	16.21
890.98	1.88
891.151	57.17
891.323	36.69
891.494	-8.36
891.665	22.36
891.836	51.03
892.007	22.36
892.178	-2.22
892.349	-8.36
892.52	-63.66
892.691	51.03
892.862	-20.65
893.032	3.93
893.203	-30.89
893.374	75.6
893.545	20.31
893.716	38.74
893.887	40.79
894.057	57.17
894.228	-32.94
894.399	-6.31
894.57	83.8
894.74	59.22
894.911	77.65
895.082	3.93
895.253	34.64
895.423	55.12
895.594	106.32
895.764	67.41
895.935	18.26
896.106	32.6
896.276	-4.27
896.447	1.88
896.617	51.03
896.788	-10.41
896.958	-39.08
897.129	22.36
897.299	83.8
897.47	14.17
897.64	-2.22
897.81	-45.23
897.981	-14.51
898.151	-47.27
898.322	83.8
898.492	-22.7
898.662	48.98
898.832	-30.89
899.003	38.74
899.173	75.6
899.343	-10.41
899.513	28.5
