Data from USB4F104151__212__14-21-08-593.txt Node

Date: Thu Mar 13 14:21:08 EDT 2025
User: louis
Spectrometer: USB4F10415
Trigger mode: 4
Integration Time (sec): 2.000000E-2
Scans to average: 1
Electric dark correction enabled: true
Nonlinearity correction enabled: false
Boxcar width: 0
XAxis mode: Wavelengths
Number of Pixels in Spectrum: 3648
>>>>>Begin Spectral Data<<<<<
178.204	-113.15
178.424	-113.15
178.644	-113.15
178.864	-147.97
179.084	-111.1
179.304	19.97
179.524	-41.47
179.744	19.97
179.964	28.16
180.184	1.54
180.404	13.82
180.624	17.92
180.844	52.74
181.064	-37.38
181.283	9.73
181.503	-43.52
181.723	-41.47
181.943	-29.18
182.163	9.73
182.383	26.11
182.602	62.98
182.822	48.64
183.042	60.93
183.262	110.08
183.482	-39.42
183.701	-78.33
183.921	9.73
184.141	-27.14
184.361	48.64
184.58	-31.23
184.8	28.16
185.02	87.55
185.239	67.07
185.459	-16.9
185.679	-23.04
185.898	17.92
186.118	7.68
186.338	26.11
186.557	3.58
186.777	-41.47
186.997	11.78
187.216	-31.23
187.436	44.54
187.655	103.93
187.875	3.58
188.095	9.73
188.314	50.69
188.534	3.58
188.753	-14.85
188.973	36.35
189.192	110.08
189.412	-14.85
189.631	-20.99
189.851	-25.09
190.07	58.88
190.29	-31.23
190.509	-6.66
190.729	3.58
190.948	69.12
191.168	65.02
191.387	69.12
191.607	56.83
191.826	1.54
192.045	-16.9
192.265	17.92
192.484	42.5
192.704	50.69
192.923	-8.7
193.142	-14.85
193.362	-14.85
193.581	26.11
193.8	13.82
194.02	50.69
194.239	58.88
194.458	50.69
194.678	-31.23
194.897	13.82
195.116	11.78
195.335	73.21
195.555	71.17
195.774	50.69
195.993	13.82
196.212	-4.61
196.432	13.82
196.651	-43.52
196.87	3.58
197.089	136.7
197.308	75.26
197.528	5.63
197.747	-33.28
197.966	38.4
198.185	54.78
198.404	-2.56
198.623	1.54
198.842	11.78
199.062	15.87
199.281	42.5
199.5	5.63
199.719	3.58
199.938	-0.51
200.157	44.54
200.376	34.3
200.595	93.69
200.814	15.87
201.033	-14.85
201.252	-6.66
201.471	75.26
201.69	46.59
201.909	46.59
202.128	26.11
202.347	38.4
202.566	28.16
202.785	-31.23
203.004	-41.47
203.223	93.69
203.442	54.78
203.661	11.78
203.879	40.45
204.098	50.69
204.317	-10.75
204.536	91.65
204.755	11.78
204.974	3.58
205.193	34.3
205.411	19.97
205.63	58.88
205.849	60.93
206.068	-18.94
206.287	-84.48
206.505	7.68
206.724	83.45
206.943	-4.61
207.162	79.36
207.381	38.4
207.599	58.88
207.818	19.97
208.037	-12.8
208.255	3.58
208.474	60.93
208.693	19.97
208.911	-4.61
209.13	62.98
209.349	-14.85
209.567	26.11
209.786	56.83
210.005	62.98
210.223	17.92
210.442	-6.66
210.661	17.92
210.879	17.92
211.098	22.02
211.316	-16.9
211.535	19.97
211.753	3.58
211.972	50.69
212.191	-43.52
212.409	36.35
212.628	34.3
212.846	42.5
213.065	30.21
213.283	1.54
213.502	15.87
213.72	34.3
213.938	3.58
214.157	-31.23
214.375	-27.14
214.594	15.87
214.812	42.5
215.031	38.4
215.249	17.92
215.467	34.3
215.686	30.21
215.904	67.07
216.122	34.3
216.341	58.88
216.559	87.55
216.778	114.17
216.996	52.74
217.214	-4.61
217.432	-61.95
217.651	1.54
217.869	50.69
218.087	-23.04
218.306	11.78
218.524	93.69
218.742	11.78
218.96	34.3
219.179	26.11
219.397	-2.56
219.615	134.65
219.833	73.21
220.051	26.11
220.27	24.06
220.488	50.69
220.706	71.17
220.924	38.4
221.142	1.54
221.36	1.54
221.578	50.69
221.796	50.69
222.015	22.02
222.233	1.54
222.451	42.5
222.669	-33.28
222.887	130.56
223.105	73.21
223.323	28.16
223.541	34.3
223.759	34.3
223.977	-49.66
224.195	83.45
224.413	19.97
224.631	11.78
224.849	13.82
225.067	58.88
225.285	-6.66
225.503	-29.18
225.721	-31.23
225.939	-76.29
226.157	-47.62
226.375	99.84
226.592	-12.8
226.81	75.26
227.028	42.5
227.246	95.74
227.464	-2.56
227.682	50.69
227.9	58.88
228.117	-86.53
228.335	65.02
228.553	-23.04
228.771	-8.7
228.989	9.73
229.206	-66.05
229.424	32.26
229.642	22.02
229.86	26.11
230.077	17.92
230.295	-4.61
230.513	24.06
230.731	32.26
230.948	1.54
231.166	13.82
231.384	-23.04
231.601	52.74
231.819	44.54
232.037	-18.94
232.254	3.58
232.472	34.3
232.689	-35.33
232.907	7.68
233.125	-51.71
233.342	62.98
233.56	17.92
233.777	7.68
233.995	1.54
234.213	42.5
234.43	36.35
234.648	-25.09
234.865	5.63
235.083	46.59
235.3	17.92
235.518	67.07
235.735	26.11
235.953	112.13
236.17	34.3
236.388	62.98
236.605	-6.66
236.822	79.36
237.04	42.5
237.257	36.35
237.475	-41.47
237.692	50.69
237.909	-72.19
238.127	13.82
238.344	32.26
238.562	38.4
238.779	-39.42
238.996	-70.14
239.214	83.45
239.431	73.21
239.648	26.11
239.865	22.02
240.083	42.5
240.3	79.36
240.517	-12.8
240.735	13.82
240.952	17.92
241.169	38.4
241.386	54.78
241.603	42.5
241.821	-16.9
242.038	46.59
242.255	36.35
242.472	24.06
242.689	62.98
242.907	67.07
243.124	36.35
243.341	26.11
243.558	-10.75
243.775	-39.42
243.992	-41.47
244.209	9.73
244.426	85.5
244.643	42.5
244.86	9.73
245.078	54.78
245.295	-29.18
245.512	58.88
245.729	50.69
245.946	99.84
246.163	-10.75
246.38	24.06
246.597	44.54
246.814	46.59
247.031	34.3
247.248	81.41
247.464	38.4
247.681	42.5
247.898	-20.99
248.115	-47.62
248.332	-55.81
248.549	3.58
248.766	95.74
248.983	26.11
249.2	30.21
249.417	19.97
249.633	28.16
249.85	-8.7
250.067	58.88
250.284	5.63
250.501	13.82
250.717	-8.7
250.934	-29.18
251.151	3.58
251.368	-55.81
251.585	5.63
251.801	-20.99
252.018	-55.81
252.235	103.93
252.451	34.3
252.668	-4.61
252.885	30.21
253.102	-27.14
253.318	46.59
253.535	-10.75
253.752	75.26
253.968	-64
254.185	3.58
254.401	42.5
254.618	-6.66
254.835	-47.62
255.051	36.35
255.268	1.54
255.484	50.69
255.701	48.64
255.917	52.74
256.134	30.21
256.351	11.78
256.567	-64
256.784	3.58
257	1.54
257.217	67.07
257.433	34.3
257.65	-6.66
257.866	-18.94
258.082	-51.71
258.299	19.97
258.515	34.3
258.732	9.73
258.948	-23.04
259.165	-16.9
259.381	-23.04
259.597	56.83
259.814	28.16
260.03	36.35
260.246	40.45
260.463	1.54
260.679	62.98
260.895	-6.66
261.112	46.59
261.328	3.58
261.544	-25.09
261.761	75.26
261.977	-35.33
262.193	-18.94
262.409	24.06
262.626	54.78
262.842	71.17
263.058	75.26
263.274	77.31
263.49	-12.8
263.707	58.88
263.923	17.92
264.139	-35.33
264.355	-2.56
264.571	83.45
264.787	46.59
265.004	26.11
265.22	9.73
265.436	3.58
265.652	36.35
265.868	52.74
266.084	32.26
266.3	67.07
266.516	22.02
266.732	75.26
266.948	77.31
267.164	-31.23
267.38	1.54
267.596	11.78
267.812	67.07
268.028	75.26
268.244	5.63
268.46	26.11
268.676	-27.14
268.892	54.78
269.108	-31.23
269.324	-6.66
269.54	-12.8
269.756	105.98
269.972	52.74
270.188	34.3
270.403	17.92
270.619	1.54
270.835	34.3
271.051	75.26
271.267	9.73
271.483	69.12
271.698	9.73
271.914	67.07
272.13	32.26
272.346	28.16
272.562	54.78
272.777	81.41
272.993	65.02
273.209	60.93
273.425	9.73
273.64	-6.66
273.856	62.98
274.072	26.11
274.287	26.11
274.503	-20.99
274.719	-31.23
274.934	-23.04
275.15	-25.09
275.366	-27.14
275.581	24.06
275.797	93.69
276.012	-39.42
276.228	3.58
276.444	73.21
276.659	42.5
276.875	-47.62
277.09	24.06
277.306	-45.57
277.521	67.07
277.737	48.64
277.952	108.03
278.168	-0.51
278.383	5.63
278.599	-2.56
278.814	22.02
279.03	52.74
279.245	91.65
279.461	-66.05
279.676	95.74
279.892	-4.61
280.107	-37.38
280.322	32.26
280.538	1.54
280.753	34.3
280.969	116.22
281.184	67.07
281.399	58.88
281.615	-35.33
281.83	67.07
282.045	50.69
282.26	-39.42
282.476	44.54
282.691	71.17
282.906	112.13
283.122	48.64
283.337	-25.09
283.552	34.3
283.767	-18.94
283.983	30.21
284.198	50.69
284.413	28.16
284.628	-2.56
284.843	44.54
285.058	50.69
285.274	9.73
285.489	-29.18
285.704	3.58
285.919	44.54
286.134	11.78
286.349	36.35
286.564	28.16
286.779	91.65
286.995	9.73
287.21	13.82
287.425	46.59
287.64	-39.42
287.855	26.11
288.07	1.54
288.285	-16.9
288.5	50.69
288.715	30.21
288.93	101.89
289.145	28.16
289.36	120.32
289.575	-23.04
289.79	56.83
290.004	36.35
290.219	79.36
290.434	1.54
290.649	5.63
290.864	-4.61
291.079	28.16
291.294	5.63
291.509	-4.61
291.724	-70.14
291.938	11.78
292.153	54.78
292.368	15.87
292.583	75.26
292.798	26.11
293.012	58.88
293.227	22.02
293.442	44.54
293.657	83.45
293.871	93.69
294.086	9.73
294.301	71.17
294.516	54.78
294.73	26.11
294.945	-31.23
295.16	42.5
295.374	71.17
295.589	-0.51
295.804	-45.57
296.018	-4.61
296.233	54.78
296.447	42.5
296.662	30.21
296.877	1.54
297.091	79.36
297.306	58.88
297.52	-23.04
297.735	-0.51
297.949	34.3
298.164	-45.57
298.378	67.07
298.593	30.21
298.807	60.93
299.022	-0.51
299.236	19.97
299.451	3.58
299.665	11.78
299.88	60.93
300.094	81.41
300.309	85.5
300.523	-20.99
300.737	-4.61
300.952	-18.94
301.166	-4.61
301.381	-4.61
301.595	34.3
301.809	-47.62
302.024	-18.94
302.238	19.97
302.452	103.93
302.667	52.74
302.881	97.79
303.095	62.98
303.309	34.3
303.524	-25.09
303.738	-27.14
303.952	85.5
304.166	19.97
304.381	-6.66
304.595	62.98
304.809	30.21
305.023	30.21
305.237	36.35
305.452	26.11
305.666	69.12
305.88	153.09
306.094	30.21
306.308	19.97
306.522	28.16
306.736	101.89
306.95	58.88
307.164	38.4
307.379	60.93
307.593	73.21
307.807	93.69
308.021	-16.9
308.235	-23.04
308.449	48.64
308.663	-43.52
308.877	67.07
309.091	75.26
309.305	62.98
309.519	1.54
309.733	42.5
309.947	-23.04
310.161	9.73
310.374	99.84
310.588	54.78
310.802	-68.09
311.016	-10.75
311.23	81.41
311.444	32.26
311.658	24.06
311.872	9.73
312.085	-2.56
312.299	65.02
312.513	89.6
312.727	9.73
312.941	-43.52
313.154	1.54
313.368	58.88
313.582	-2.56
313.796	-4.61
314.009	77.31
314.223	28.16
314.437	-23.04
314.651	26.11
314.864	-51.71
315.078	-45.57
315.292	13.82
315.505	3.58
315.719	46.59
315.933	28.16
316.146	9.73
316.36	-39.42
316.573	50.69
316.787	99.84
317.001	99.84
317.214	-10.75
317.428	-18.94
317.641	-33.28
317.855	-10.75
318.068	58.88
318.282	52.74
318.495	5.63
318.709	69.12
318.922	-80.38
319.136	7.68
319.349	-45.57
319.563	-12.8
319.776	36.35
319.99	-16.9
320.203	83.45
320.417	13.82
320.63	-12.8
320.843	75.26
321.057	1.54
321.27	52.74
321.483	46.59
321.697	138.75
321.91	60.93
322.124	65.02
322.337	-39.42
322.55	71.17
322.763	26.11
322.977	58.88
323.19	108.03
323.403	85.5
323.617	32.26
323.83	99.84
324.043	-51.71
324.256	13.82
324.469	-12.8
324.683	36.35
324.896	42.5
325.109	60.93
325.322	13.82
325.535	46.59
325.748	-20.99
325.962	11.78
326.175	79.36
326.388	52.74
326.601	91.65
326.814	132.61
327.027	9.73
327.24	77.31
327.453	-23.04
327.666	26.11
327.879	22.02
328.092	81.41
328.305	11.78
328.518	26.11
328.731	-137.73
328.944	-23.04
329.157	91.65
329.37	1.54
329.583	79.36
329.796	124.41
330.009	28.16
330.222	52.74
330.435	19.97
330.648	50.69
330.861	-6.66
331.073	58.88
331.286	22.02
331.499	-12.8
331.712	11.78
331.925	99.84
332.138	22.02
332.35	28.16
332.563	-20.99
332.776	54.78
332.989	7.68
333.202	-4.61
333.414	9.73
333.627	17.92
333.84	-14.85
334.053	22.02
334.265	89.6
334.478	17.92
334.691	-12.8
334.903	83.45
335.116	-18.94
335.329	54.78
335.541	-12.8
335.754	103.93
335.966	-39.42
336.179	95.74
336.392	-6.66
336.604	1.54
336.817	75.26
337.029	-18.94
337.242	58.88
337.454	42.5
337.667	54.78
337.88	99.84
338.092	-39.42
338.305	75.26
338.517	73.21
338.729	3.58
338.942	46.59
339.154	58.88
339.367	-29.18
339.579	52.74
339.792	9.73
340.004	81.41
340.217	34.3
340.429	-14.85
340.641	7.68
340.854	5.63
341.066	1.54
341.278	19.97
341.491	112.13
341.703	15.87
341.915	-2.56
342.128	-20.99
342.34	-0.51
342.552	-14.85
342.764	67.07
342.977	5.63
343.189	13.82
343.401	-12.8
343.613	-53.76
343.826	-20.99
344.038	-39.42
344.25	-6.66
344.462	-18.94
344.674	-12.8
344.886	-39.42
345.099	1.54
345.311	5.63
345.523	69.12
345.735	-61.95
345.947	42.5
346.159	30.21
346.371	50.69
346.583	65.02
346.795	50.69
347.007	-23.04
347.219	19.97
347.431	93.69
347.643	42.5
347.855	1.54
348.067	-6.66
348.279	-72.19
348.491	-0.51
348.703	30.21
348.915	69.12
349.127	-4.61
349.339	22.02
349.551	-4.61
349.763	71.17
349.975	36.35
350.187	91.65
350.399	34.3
350.61	42.5
350.822	22.02
351.034	17.92
351.246	54.78
351.458	26.11
351.669	95.74
351.881	65.02
352.093	26.11
352.305	17.92
352.517	11.78
352.728	173.57
352.94	1.54
353.152	26.11
353.363	71.17
353.575	42.5
353.787	116.22
353.999	50.69
354.21	28.16
354.422	-14.85
354.633	-18.94
354.845	-4.61
355.057	91.65
355.268	101.89
355.48	81.41
355.692	58.88
355.903	-6.66
356.115	83.45
356.326	-25.09
356.538	28.16
356.749	36.35
356.961	19.97
357.172	-25.09
357.384	11.78
357.595	165.37
357.807	42.5
358.018	-55.81
358.23	101.89
358.441	1.54
358.653	-33.28
358.864	75.26
359.075	-4.61
359.287	-14.85
359.498	32.26
359.709	26.11
359.921	38.4
360.132	46.59
360.344	30.21
360.555	-35.33
360.766	9.73
360.977	101.89
361.189	83.45
361.4	15.87
361.611	48.64
361.823	120.32
362.034	26.11
362.245	-6.66
362.456	52.74
362.667	50.69
362.879	34.3
363.09	-2.56
363.301	69.12
363.512	95.74
363.723	58.88
363.935	-39.42
364.146	118.27
364.357	71.17
364.568	13.82
364.779	-6.66
364.99	-4.61
365.201	-12.8
365.412	34.3
365.623	-6.66
365.834	9.73
366.045	28.16
366.256	34.3
366.467	26.11
366.678	36.35
366.889	69.12
367.1	34.3
367.311	32.26
367.522	1.54
367.733	69.12
367.944	67.07
368.155	34.3
368.366	75.26
368.577	60.93
368.788	52.74
368.999	5.63
369.209	-4.61
369.42	140.8
369.631	11.78
369.842	46.59
370.053	22.02
370.264	56.83
370.474	46.59
370.685	17.92
370.896	24.06
371.107	79.36
371.317	69.12
371.528	11.78
371.739	65.02
371.95	83.45
372.16	17.92
372.371	-23.04
372.582	44.54
372.792	40.45
373.003	52.74
373.214	3.58
373.424	30.21
373.635	79.36
373.846	108.03
374.056	13.82
374.267	38.4
374.477	56.83
374.688	9.73
374.898	108.03
375.109	60.93
375.319	-39.42
375.53	79.36
375.74	110.08
375.951	58.88
376.161	75.26
376.372	85.5
376.582	30.21
376.793	3.58
377.003	26.11
377.214	-6.66
377.424	54.78
377.635	9.73
377.845	11.78
378.055	-23.04
378.266	50.69
378.476	9.73
378.686	32.26
378.897	30.21
379.107	83.45
379.317	54.78
379.528	50.69
379.738	-16.9
379.948	32.26
380.158	91.65
380.369	46.59
380.579	93.69
380.789	-18.94
380.999	116.22
381.21	114.17
381.42	110.08
381.63	108.03
381.84	-2.56
382.05	32.26
382.261	52.74
382.471	54.78
382.681	-39.42
382.891	136.7
383.101	15.87
383.311	75.26
383.521	58.88
383.731	46.59
383.941	120.32
384.151	34.3
384.361	122.37
384.571	58.88
384.781	-47.62
384.991	101.89
385.201	77.31
385.411	58.88
385.621	110.08
385.831	-2.56
386.041	3.58
386.251	118.27
386.461	34.3
386.671	15.87
386.881	67.07
387.091	-33.28
387.301	22.02
387.511	50.69
387.72	52.74
387.93	67.07
388.14	44.54
388.35	42.5
388.56	62.98
388.769	77.31
388.979	60.93
389.189	36.35
389.399	19.97
389.609	138.75
389.818	91.65
390.028	75.26
390.238	101.89
390.447	3.58
390.657	60.93
390.867	81.41
391.076	-23.04
391.286	83.45
391.496	40.45
391.705	-23.04
391.915	30.21
392.125	62.98
392.334	83.45
392.544	110.08
392.753	36.35
392.963	-6.66
393.172	110.08
393.382	42.5
393.591	116.22
393.801	48.64
394.01	101.89
394.22	42.5
394.429	124.41
394.639	65.02
394.848	40.45
395.058	34.3
395.267	19.97
395.477	42.5
395.686	140.8
395.895	97.79
396.105	122.37
396.314	134.65
396.524	83.45
396.733	142.85
396.942	50.69
397.152	38.4
397.361	126.46
397.57	132.61
397.78	77.31
397.989	36.35
398.198	132.61
398.407	101.89
398.617	60.93
398.826	40.45
399.035	114.17
399.244	65.02
399.453	46.59
399.663	91.65
399.872	52.74
400.081	30.21
400.29	181.76
400.499	52.74
400.708	34.3
400.917	3.58
401.127	79.36
401.336	36.35
401.545	124.41
401.754	116.22
401.963	77.31
402.172	95.74
402.381	97.79
402.59	95.74
402.799	114.17
403.008	26.11
403.217	175.61
403.426	65.02
403.635	126.46
403.844	60.93
404.053	155.13
404.262	105.98
404.471	69.12
404.68	148.99
404.888	142.85
405.097	124.41
405.306	132.61
405.515	216.57
405.724	163.33
405.933	136.7
406.142	101.89
406.35	159.23
406.559	159.23
406.768	134.65
406.977	214.52
407.185	151.04
407.394	165.37
407.603	134.65
407.812	208.38
408.02	206.33
408.229	87.55
408.438	196.09
408.646	175.61
408.855	230.91
409.064	200.19
409.272	243.2
409.481	224.76
409.69	146.94
409.898	157.18
410.107	220.67
410.315	247.29
410.524	308.73
410.733	278.01
410.941	271.87
411.15	263.68
411.358	353.79
411.567	415.23
411.775	323.07
411.984	321.02
412.192	380.41
412.401	325.12
412.609	407.03
412.818	382.46
413.026	454.14
413.234	464.38
413.443	419.32
413.651	435.71
413.86	493.05
414.068	484.86
414.276	570.87
414.485	468.47
414.693	529.91
414.901	663.03
415.11	548.34
415.318	667.13
415.526	534.01
415.734	728.56
415.943	796.15
416.151	722.42
416.359	652.79
416.567	728.56
416.776	665.08
416.984	839.16
417.192	937.46
417.4	812.53
417.608	914.93
417.817	855.54
418.025	1029.62
418.233	1076.72
418.441	912.88
418.649	1005.04
418.857	1093.1
419.065	1215.98
419.273	1048.05
419.481	1199.6
419.689	1209.84
419.897	1224.17
420.105	1314.28
420.313	1304.04
420.521	1463.79
420.729	1422.83
420.937	1533.42
421.145	1543.66
421.353	1560.04
421.561	1805.8
421.769	1705.45
421.977	1736.17
422.185	1680.87
422.393	1920.48
422.601	1967.59
422.809	2002.4
423.017	1918.43
423.224	2098.66
423.432	2117.09
423.64	2205.15
423.848	2319.84
424.056	2321.88
424.263	2389.47
424.471	2409.95
424.679	2461.15
424.887	2565.59
425.094	2674.14
425.302	2708.95
425.51	2911.7
425.718	2760.15
425.925	3010
426.133	3044.82
426.341	3317.2
426.548	3278.29
426.756	3468.75
426.964	3352.01
427.171	3491.27
427.379	3800.52
427.586	3796.42
427.794	3876.29
428.001	4138.43
428.209	4212.16
428.417	4128.19
428.624	4462.01
428.832	4447.68
429.039	4451.77
429.247	4402.62
429.454	4847.03
429.662	5199.28
429.869	4853.17
430.076	5285.3
430.284	5131.7
430.491	5313.97
430.699	5442.99
430.906	5703.08
431.114	5590.44
431.321	5989.8
431.528	6088.1
431.736	6215.07
431.943	6706.59
432.15	6411.68
432.358	6401.44
432.565	6833.56
432.772	6677.91
432.979	7112.08
433.187	7329.17
433.394	7398.8
433.601	7865.74
433.808	7867.78
434.016	7783.82
434.223	8154.5
434.43	8375.68
434.637	8422.78
434.844	8916.34
435.052	8983.93
435.259	9047.41
435.466	9143.67
435.673	9225.59
435.88	9637.23
436.087	10159.46
436.294	10147.17
436.501	9784.68
436.708	9987.43
436.915	10315.11
437.122	10769.76
437.329	10691.93
437.537	11158.87
437.743	11568.46
437.95	11294.04
438.157	11701.58
438.364	12418.37
438.571	12117.32
438.778	12371.27
438.985	13389.11
439.192	12930.36
439.399	13337.91
439.606	13149.5
439.813	14046.51
440.02	14566.69
440.227	14267.69
440.433	14355.75
440.64	14894.36
440.847	14634.27
441.054	14970.14
441.261	16147.72
441.467	15881.49
441.674	16080.14
441.881	16559.36
442.088	16569.6
442.294	16524.55
442.501	16772.35
442.708	17075.45
442.914	18005.23
443.121	18842.85
443.328	18195.69
443.534	19254.49
443.741	18824.42
443.948	18707.68
444.154	19848.4
444.361	19907.79
444.568	19809.49
444.774	20104.4
444.981	20208.84
445.187	20665.54
445.394	21703.86
445.6	21507.26
445.807	23839.89
446.013	22604.97
446.22	22701.22
446.426	23450.78
446.633	23889.04
446.839	24599.69
447.046	24173.71
447.252	25164.93
447.459	24904.84
447.665	25136.26
447.871	26172.53
448.078	27106.4
448.284	25721.98
448.491	26401.9
448.697	27362.4
448.903	28025.94
449.11	28105.81
449.316	27583.58
449.522	28306.51
449.728	28748.87
449.935	28937.29
450.141	28732.49
450.347	29631.55
450.553	29070.4
450.76	29416.51
450.966	30233.65
451.172	29606.97
451.378	30678.06
451.584	29619.26
451.791	30745.64
451.997	30557.23
452.203	31011.88
452.409	31075.37
452.615	30784.55
452.821	29619.26
453.027	29631.55
453.233	30958.63
453.44	29811.77
453.646	30057.53
453.852	30180.4
454.058	30639.15
454.264	29596.73
454.47	30417.97
454.676	29725.75
454.882	30671.92
455.088	27712.6
455.294	28892.23
455.5	28947.53
455.705	29000.77
455.911	27614.3
456.117	27520.09
456.323	27184.23
456.529	25635.96
456.735	26602.6
456.941	25724.02
457.147	25533.56
457.352	25199.74
457.558	24953.99
457.764	25003.14
457.97	24183.95
458.176	23782.55
458.381	23815.32
458.587	22711.46
458.793	22959.27
458.999	21595.32
459.204	22805.67
459.41	22428.84
459.616	21081.28
459.821	20997.31
460.027	20710.6
460.233	20477.13
460.438	19604.69
460.644	19850.45
460.85	18961.63
461.055	18416.87
461.261	18449.64
461.466	17157.37
461.672	16469.25
461.878	17765.62
462.083	16614.66
462.289	16438.53
462.494	16354.57
462.7	15553.81
462.905	15056.15
463.111	15289.62
463.316	15744.27
463.522	15324.44
463.727	15166.74
463.932	15217.94
464.138	14982.43
464.343	15168.79
464.549	14716.19
464.754	15052.06
464.959	14818.59
465.165	14843.17
465.37	14060.84
465.575	13819.18
465.781	14486.82
465.986	14449.96
466.191	14048.55
466.397	13696.3
466.602	12911.93
466.807	13649.2
467.012	13733.17
467.218	13501.75
467.423	13311.28
467.628	13405.49
467.833	14193.96
468.038	13526.32
468.244	13202.74
468.449	13800.75
468.654	13165.88
468.859	13186.36
469.064	13014.33
469.269	12381.51
469.474	12741.95
469.679	13049.14
469.885	12551.49
470.09	12789.05
470.295	12551.49
470.5	12172.61
470.705	12453.19
470.91	12195.14
471.115	11908.43
471.32	12264.77
471.525	12205.38
471.73	11758.92
471.935	11961.67
472.139	11535.7
472.344	11513.17
472.549	11404.63
472.754	11257.17
472.959	11101.53
473.164	11162.97
473.369	10949.98
473.574	11308.37
473.778	11017.56
473.983	10964.31
474.188	10911.07
474.393	10325.35
474.598	10347.87
474.802	10335.59
475.007	10249.57
475.212	10290.53
475.417	9903.46
475.621	10042.73
475.826	9852.27
476.031	9655.66
476.235	9473.39
476.44	9829.74
476.645	9479.54
476.849	9479.54
477.054	9287.03
477.259	9188.72
477.463	9301.36
477.668	9119.09
477.872	9180.53
478.077	8840.57
478.282	8775.03
478.486	8809.85
478.691	8603
478.895	8873.34
479.1	8850.81
479.304	8586.62
479.509	8314.24
479.713	8648.06
479.918	8224.13
480.122	8156.55
480.326	8164.74
480.531	8361.34
480.735	8256.9
480.94	8252.8
481.144	8201.6
481.348	8023.43
481.553	8039.81
481.757	7843.21
481.961	8162.69
482.166	8080.77
482.37	8109.44
482.574	7839.11
482.778	7943.56
482.983	8140.16
483.187	8074.63
483.391	8033.67
483.595	8062.34
483.8	7888.26
484.004	7947.65
484.208	7964.04
484.412	7953.8
484.616	7957.89
484.821	8029.57
485.025	7841.16
485.229	7980.42
485.433	7990.66
485.637	8056.2
485.841	8095.11
486.045	7853.45
486.249	7890.31
486.453	7898.5
486.657	7892.36
486.861	8027.53
487.065	7839.11
487.269	7927.18
487.473	7785.87
487.677	7947.65
487.881	8140.16
488.085	7976.33
488.289	8013.19
488.493	7728.52
488.697	8111.49
488.901	7941.51
489.105	7914.89
489.309	8000.9
489.512	8066.44
489.716	8074.63
489.92	8021.38
490.124	8330.62
490.328	8256.9
490.531	8160.64
490.735	8064.39
490.939	8179.08
491.143	7978.37
491.346	8146.31
491.55	8381.82
491.754	8299.91
491.958	8310.15
492.161	8381.82
492.365	8396.16
492.569	8334.72
492.772	8385.92
492.976	8600.96
493.18	8627.58
493.383	8787.32
493.587	8695.16
493.79	8846.71
493.994	8729.98
494.197	8801.66
494.401	8959.35
494.605	8938.87
494.808	9282.93
495.012	9014.65
495.215	9205.11
495.419	9221.49
495.622	9024.89
495.825	9121.14
496.029	9303.41
496.232	9297.27
496.436	9495.92
496.639	9626.99
496.843	9753.96
497.046	9844.07
497.249	9907.56
497.453	9909.61
497.656	9946.47
497.859	10093.93
498.063	10079.59
498.266	10480.99
498.469	10351.97
498.673	10464.61
498.876	10749.28
499.079	10765.66
499.282	10749.28
499.485	11021.66
499.689	11134.29
499.892	10976.6
500.095	11248.98
500.298	11552.08
500.501	11126.1
500.705	11527.5
500.908	11709.77
501.111	11844.94
501.314	11896.14
501.517	12074.31
501.72	12447.04
501.923	12074.31
502.126	12551.49
502.329	12594.5
502.532	12758.33
502.735	12985.66
502.938	13010.23
503.141	13071.67
503.344	13485.36
503.547	13290.81
503.75	13641.01
503.953	13649.2
504.156	13991.21
504.359	13927.72
504.562	13772.08
504.765	14392.61
504.968	14488.87
505.17	14734.62
505.373	14613.79
505.576	14783.77
505.779	15076.63
505.982	15045.91
506.185	15527.19
506.387	15217.94
506.59	15664.4
506.793	16035.08
506.996	15861.01
507.198	16491.78
507.401	16041.23
507.604	16522.5
507.807	16858.37
508.009	16917.76
508.212	16993.53
508.415	17356.02
508.617	17478.9
508.82	17394.93
509.022	17655.03
509.225	17818.86
509.428	17994.99
509.63	18068.72
509.833	18038
510.035	18554.08
510.238	18552.04
510.44	18941.15
510.643	19264.73
510.845	19121.37
511.048	19348.7
511.25	19463.38
511.453	19772.63
511.655	20120.78
511.858	20085.97
512.06	20141.26
512.262	20436.17
512.465	20331.72
512.667	20759.75
512.87	20989.12
513.072	21179.58
513.274	21353.66
513.477	21820.6
513.679	21791.92
513.881	22203.57
514.084	22371.5
514.286	22174.89
514.488	22238.38
514.69	23082.14
514.893	22996.13
515.095	23219.36
515.297	23389.34
515.499	23596.18
515.701	23612.57
515.904	23856.28
516.106	24333.45
516.308	24554.63
516.51	24765.57
516.712	25236.61
516.914	25150.59
517.116	25314.43
517.318	25523.32
517.52	25842.81
517.722	25728.12
517.925	26279.02
518.127	26553.45
518.329	26530.92
518.531	26561.64
518.733	26981.48
518.935	27167.84
519.136	27466.84
519.338	27454.56
519.54	28118.1
519.742	28027.99
519.944	27927.64
520.146	28431.44
520.348	28423.25
520.55	28591.18
520.752	28916.81
520.954	29436.99
521.155	29049.92
521.357	29580.35
521.559	30131.25
521.761	30014.52
521.963	30075.96
522.164	30307.38
522.366	30585.9
522.568	30370.86
522.77	30839.85
522.971	31245.35
523.173	31308.83
523.375	31444
523.576	31333.41
523.778	31618.08
523.98	32091.16
524.181	31904.79
524.383	32042.01
524.584	32666.64
524.786	32373.78
524.988	32429.07
525.189	32654.35
525.391	33115.14
525.592	33260.55
525.794	33543.17
525.995	33485.83
526.197	33379.33
526.398	33551.36
526.6	33975.29
526.801	34034.68
527.003	34106.36
527.204	34087.93
527.406	34546.67
527.607	34405.36
527.808	34761.71
528.01	34159.61
528.211	34780.14
528.412	35230.69
528.614	35128.3
528.815	35369.96
529.016	35265.51
529.218	35075.05
529.419	35365.86
529.62	35556.32
529.822	35398.63
530.023	35482.59
530.224	35795.93
530.425	35406.82
530.626	35355.62
530.828	35202.02
531.029	36164.57
531.23	35482.59
531.431	35924.96
531.632	35922.91
531.833	36316.12
532.035	35787.74
532.236	36084.7
532.437	36068.31
532.638	35826.65
532.839	36352.98
533.04	35988.44
533.241	35861.47
533.442	36785.1
533.643	36162.52
533.844	36389.84
534.045	36645.84
534.246	36056.03
534.447	35937.24
534.648	36344.79
534.849	36402.13
535.05	35963.87
535.251	36608.98
535.451	36041.69
535.652	36389.84
535.853	36297.69
536.054	36482
536.255	36432.85
536.456	36203.48
536.657	36826.06
536.857	36357.08
537.058	36248.53
537.259	36443.09
537.46	36228.06
537.66	36258.77
537.861	36445.14
538.062	36002.78
538.263	36500.44
538.463	36195.29
538.664	36404.18
538.865	36393.94
539.065	36393.94
539.266	36185.05
539.466	36844.49
539.667	35664.86
539.868	36465.62
540.068	36387.8
540.269	36400.08
540.469	36877.26
540.67	36439
540.87	36514.77
541.071	36309.97
541.271	36365.27
541.472	36201.43
541.672	36021.21
541.873	36234.2
542.073	36027.35
542.274	36350.93
542.474	36111.32
542.675	36060.12
542.875	36439
543.075	36293.59
543.276	35916.76
543.476	36352.98
543.676	36096.99
543.877	36219.86
544.077	36252.63
544.277	36209.62
544.478	35767.26
544.678	36477.91
544.878	36232.15
545.078	36379.6
545.279	36103.13
545.479	36322.26
545.679	36344.79
545.879	36187.1
546.079	36043.74
546.28	35812.32
546.48	35644.38
546.68	36086.75
546.88	36254.68
547.08	35978.2
547.28	35828.7
547.48	35955.68
547.68	35955.68
547.88	35656.67
548.081	36246.49
548.281	36051.93
548.481	35795.93
548.681	36271.06
548.881	35550.18
549.081	35959.77
549.28	36174.81
549.48	36092.89
549.68	35795.93
549.88	36365.27
550.08	35757.02
550.28	35544.03
550.48	35894.24
550.68	35679.2
550.88	35666.91
551.08	35849.18
551.279	35804.13
551.479	35560.42
551.679	36119.51
551.879	35548.13
552.079	35716.06
552.278	35789.79
552.478	35638.24
552.678	35683.3
552.878	35734.49
553.077	35580.9
553.277	35417.06
553.477	36193.24
553.676	35591.14
553.876	35302.37
554.076	35675.1
554.275	35294.18
554.475	35029.99
554.674	35296.23
554.874	35750.88
555.074	35116.01
555.273	35116.01
555.473	35675.1
555.672	35302.37
555.872	35175.4
556.071	35636.19
556.271	35122.15
556.47	35081.19
556.67	35279.85
556.869	35361.76
557.068	35277.8
557.268	35048.43
557.467	34935.79
557.667	35032.04
557.866	34794.48
558.065	34886.64
558.265	34868.2
558.464	34937.83
558.663	35281.89
558.863	34358.26
559.062	35093.48
559.261	34896.88
559.461	35329
559.66	34481.14
559.859	34698.22
560.058	34593.78
560.258	34515.95
560.457	34571.25
560.656	34489.33
560.855	34462.71
561.054	34548.72
561.253	34126.84
561.453	34251.77
561.652	34585.58
561.851	34356.21
562.05	34057.21
562.249	34137.08
562.448	34415.6
562.647	33960.95
562.846	33905.66
563.045	33870.84
563.244	33719.29
563.443	34167.8
563.642	33483.78
563.841	33764.35
564.04	33475.59
564.239	34104.31
564.438	33592.32
564.637	33475.59
564.836	33530.88
565.035	32947.21
565.234	33274.88
565.432	33172.49
565.631	33207.3
565.83	33072.14
566.029	32953.35
566.228	32728.08
566.427	32961.55
566.625	32902.15
566.824	32547.86
567.023	32717.84
567.222	32087.06
567.42	32857.1
567.619	32588.81
567.818	32416.79
568.016	32707.6
568.215	32527.38
568.414	31962.14
568.612	32732.17
568.811	32078.87
569.01	32125.97
569.208	32068.63
569.407	32136.21
569.605	31595.55
569.804	32146.45
570.002	31536.16
570.201	31927.32
570.4	31525.92
570.598	31552.54
570.797	31394.85
570.995	31423.52
571.193	31196.2
571.392	31403.04
571.59	31188
571.789	31061.03
571.987	31169.57
572.186	30936.1
572.384	30757.93
572.582	30897.19
572.781	31429.66
572.979	30690.35
573.177	30841.9
573.376	30743.59
573.574	30477.36
573.772	31003.69
573.971	30178.36
574.169	30508.08
574.367	30424.11
574.565	30493.74
574.763	30149.68
574.962	30086.2
575.16	30067.77
575.358	29910.07
575.556	29686.84
575.754	29879.35
575.952	29572.16
576.151	30051.38
576.349	29658.17
576.547	29359.17
576.745	29490.24
576.943	29574.2
577.141	29236.29
577.339	29391.94
577.537	28789.83
577.735	29135.94
577.933	29088.84
578.131	29015.11
578.329	28943.43
578.527	28445.77
578.725	28855.37
578.923	28871.75
579.121	28671.05
579.319	28863.56
579.516	28783.69
579.714	28716.11
579.912	28505.17
580.11	28066.9
580.308	28335.18
580.506	28636.24
580.704	27530.33
580.901	28075.09
581.099	28603.47
581.297	27866.2
581.495	27860.05
581.692	28087.38
581.89	27620.44
582.088	27937.88
582.285	27429.98
582.483	27917.4
582.681	27585.63
582.878	27567.2
583.076	27065.44
583.274	27628.63
583.471	27214.94
583.669	27356.25
583.866	26979.43
584.064	27182.18
584.262	26774.63
584.459	27163.75
584.657	26836.07
584.854	26936.42
585.052	26571.88
585.249	26768.49
585.447	26711.14
585.644	26453.1
585.841	26461.29
586.039	26428.52
586.236	26188.91
586.434	26203.25
586.631	25986.16
586.828	26043.51
587.026	26104.95
587.223	25728.12
587.42	26006.64
587.618	25957.49
587.815	25574.52
588.012	25549.95
588.21	25728.12
588.407	25654.39
588.604	25154.69
588.801	25492.6
588.999	25252.99
589.196	25498.75
589.393	25101.44
589.59	25093.25
589.787	25052.29
589.984	24845.44
590.182	24949.89
590.379	24949.89
590.576	24722.57
590.773	25085.06
590.97	24470.67
591.167	24546.44
591.364	24292.49
591.561	24390.8
591.758	24433.8
591.955	24337.55
592.152	24364.17
592.349	24233.1
592.546	24220.81
592.743	24292.49
592.94	23778.45
593.137	23889.04
593.334	24050.83
593.531	23778.45
593.727	23696.53
593.924	23903.38
594.121	23698.58
594.318	23504.03
594.515	23379.1
594.712	23643.29
594.908	23440.54
595.105	23291.04
595.302	23268.51
595.499	23145.63
595.696	22877.35
595.892	22607.02
596.089	22863.01
596.286	22899.87
596.482	23012.51
596.679	23209.12
596.876	22758.56
597.072	22531.24
597.269	22518.95
597.466	22590.63
597.662	22654.12
597.859	22623.4
598.055	22291.63
598.252	22258.86
598.448	22080.69
598.645	22281.39
598.841	21935.28
599.038	22121.65
599.234	22148.27
599.431	21984.43
599.627	21675.19
599.824	21922.99
600.02	21542.07
600.217	22047.92
600.413	21640.37
600.609	21513.4
600.806	21632.18
601.002	21222.59
601.198	21245.12
601.395	21359.8
601.591	21071.04
601.787	21275.84
601.984	20919.49
602.18	21191.87
602.376	20982.98
602.572	20726.98
602.769	20815.04
602.965	20620.49
603.161	20825.28
603.357	20544.71
603.553	20784.32
603.75	20632.77
603.946	20497.61
604.142	20260.04
604.338	20186.32
604.534	20364.49
604.73	20032.72
604.926	20249.8
605.122	20014.29
605.318	19877.07
605.514	19772.63
605.71	19961.04
605.906	19836.11
606.102	19936.46
606.298	19872.98
606.494	19864.78
606.69	19934.42
606.886	19748.05
607.082	19277.02
607.278	19842.26
607.474	19395.8
607.67	19768.53
607.866	19447
608.062	19721.43
608.257	19127.52
608.453	19344.6
608.649	19453.14
608.845	19117.28
609.041	19412.18
609.236	19408.09
609.432	18986.21
609.628	18865.38
609.824	18912.48
610.019	18781.41
610.215	18963.68
610.411	19174.62
610.606	18756.83
610.802	18769.12
610.998	18906.34
611.193	18926.82
611.389	18623.72
611.584	18599.14
611.78	18359.53
611.976	18535.65
612.171	18595.04
612.367	18310.38
612.562	18545.89
612.758	18410.73
612.953	18291.94
613.149	18519.27
613.344	18056.43
613.539	18275.56
613.735	18298.09
613.93	18330.86
614.126	17972.46
614.321	18353.38
614.517	17943.79
614.712	18285.8
614.907	17911.02
615.103	18304.23
615.298	17908.97
615.493	18095.34
615.688	17786.1
615.884	18109.68
616.079	17605.88
616.274	18017.52
616.47	17962.22
616.665	17818.86
616.86	17663.22
617.055	17579.25
617.25	17558.77
617.445	17595.64
617.641	17493.24
617.836	17571.06
618.031	17399.03
618.226	17356.02
618.421	17499.38
618.616	17517.81
618.811	17145.08
619.006	17569.01
619.201	16698.63
619.396	17300.73
619.591	16938.24
619.786	16872.7
619.981	16690.43
620.176	16825.6
620.371	16772.35
620.566	16958.72
620.761	16600.32
620.956	16606.47
621.151	16534.79
621.346	16264.46
621.541	16112.91
621.735	16465.16
621.93	15947.02
622.125	16160.01
622.32	15785.23
622.515	15992.08
622.709	15881.49
622.904	15676.69
623.099	15781.14
623.294	15478.04
623.488	15510.8
623.683	15727.89
623.878	15363.35
624.072	15461.65
624.267	15299.86
624.462	14933.28
624.656	15156.5
624.851	15174.94
625.046	14818.59
625.24	14777.63
625.435	14818.59
625.629	14728.48
625.824	14601.51
626.018	14603.55
626.213	14394.66
626.407	14374.18
626.602	14089.51
626.796	14318.89
626.991	14105.9
627.185	13870.38
627.38	13886.76
627.574	14120.23
627.768	13866.28
627.963	13782.32
628.157	13673.78
628.352	13487.41
628.546	13202.74
628.74	13704.49
628.935	13393.2
629.129	13376.82
629.323	13227.32
629.517	13079.86
629.712	13206.84
629.906	13088.06
630.1	12715.33
630.294	12981.56
630.489	12879.16
630.683	12870.97
630.877	12574.02
631.071	12842.3
631.265	12928.31
631.459	12305.73
631.653	12582.21
631.848	12506.43
632.042	12565.82
632.236	12465.47
632.43	12182.85
632.624	12094.79
632.818	12117.32
633.012	11877.71
633.206	12012.87
633.4	11865.42
633.594	11699.53
633.788	11781.45
633.982	11547.98
634.176	11732.3
634.369	11492.69
634.563	11609.42
634.757	11574.61
634.951	11535.7
635.145	11396.43
635.339	11320.66
635.533	11281.75
635.726	11470.16
635.92	10898.78
636.114	11103.57
636.308	10986.84
636.501	11042.14
636.695	10943.83
636.889	10841.43
637.083	10732.89
637.276	10712.41
637.47	10870.11
637.664	10788.19
637.857	10777.95
638.051	10661.21
638.244	10499.42
638.438	10562.91
638.632	10485.09
638.825	10243.43
639.019	10155.37
639.212	10132.84
639.406	10208.61
639.599	10042.73
639.793	10272.1
639.986	9915.75
640.18	9950.57
640.373	10024.3
640.567	9588.08
640.76	9721.2
640.954	9905.51
641.147	9653.61
641.34	9690.48
641.534	9639.28
641.727	9647.47
641.92	9276.79
642.114	9473.39
642.307	9416.05
642.5	9434.48
642.694	9217.4
642.887	9352.56
643.08	9282.93
643.273	9373.04
643.467	8897.91
643.66	9137.52
643.853	9018.74
644.046	9012.6
644.239	8992.12
644.432	9004.41
644.626	8627.58
644.819	8545.66
645.012	8848.76
645.205	8797.56
645.398	8869.24
645.591	8400.26
645.784	8596.86
645.977	8693.12
646.17	8459.65
646.363	8357.25
646.556	8375.68
646.749	8242.56
646.942	8267.14
647.135	8228.23
647.328	8250.75
647.521	8158.6
647.714	8078.72
647.907	8045.96
648.099	8154.5
648.292	8035.72
648.485	8140.16
648.678	7789.96
648.871	7751.05
649.064	7908.74
649.256	7933.32
649.449	7738.76
649.642	7638.41
649.835	7542.16
650.027	7636.36
650.22	7527.82
650.413	7599.5
650.605	7681.42
650.798	7495.05
650.991	7226.77
651.183	7300.5
651.376	7294.35
651.568	7421.33
651.761	7234.96
651.954	7200.15
652.146	7126.42
652.339	7218.58
652.531	7177.62
652.724	6940.05
652.916	7013.78
653.109	7001.49
653.301	7054.74
653.494	6960.53
653.686	6933.91
653.879	6940.05
654.071	6938.01
654.263	6727.07
654.456	6583.71
654.648	6727.07
654.84	6747.55
655.033	6653.34
655.225	6598.04
655.417	6677.91
655.61	6598.04
655.802	6462.88
655.994	6559.13
656.186	6464.93
656.379	6438.3
656.571	6505.88
656.763	6342.05
656.955	6436.25
657.148	6278.56
657.34	6380.96
657.532	6235.55
657.724	6147.49
657.916	6104.48
658.108	6124.96
658.3	6182.31
658.492	6235.55
658.684	5950.89
658.876	5969.32
659.068	6018.47
659.26	5959.08
659.452	5942.69
659.644	5981.6
659.836	5944.74
660.028	5766.57
660.22	5682.6
660.412	5856.68
660.604	5803.43
660.796	5819.82
660.988	5692.84
661.18	5746.09
661.372	5649.83
661.563	5633.45
661.755	5551.53
661.947	5682.6
662.139	5459.37
662.331	5533.1
662.522	5410.22
662.714	5373.36
662.906	5465.52
663.097	5406.13
663.289	5340.59
663.481	5270.96
663.673	5426.61
663.864	5158.32
664.056	5238.19
664.247	5356.97
664.439	5113.27
664.631	5324.21
664.822	5133.75
665.014	5287.34
665.205	5137.84
665.397	5080.5
665.588	5023.16
665.78	5027.25
665.971	5098.93
666.163	4941.24
666.354	4920.76
666.546	4937.14
666.737	4873.65
666.929	4941.24
667.12	4861.37
667.311	4959.67
667.503	4785.59
667.694	4791.73
667.885	4728.25
668.077	4916.66
668.268	4787.64
668.459	4740.54
668.651	4732.34
668.842	4795.83
669.033	4650.43
669.224	4644.28
669.416	4670.9
669.607	4607.42
669.798	4623.8
669.989	4638.14
670.18	4486.59
670.371	4591.03
670.563	4482.49
670.754	4529.59
670.945	4525.5
671.136	4476.35
671.327	4433.34
671.518	4474.3
671.709	4511.16
671.9	4361.66
672.091	4496.83
672.282	4238.78
672.473	4406.72
672.664	4388.29
672.855	4353.47
673.046	4294.08
673.237	4414.91
673.428	4220.35
673.619	4384.19
673.809	4283.84
674	4265.41
674.191	4267.45
674.382	4101.57
674.573	4189.63
674.764	4228.54
674.954	4218.3
675.145	4085.19
675.336	4126.15
675.527	3999.17
675.717	4175.3
675.908	4083.14
676.099	4130.24
676.289	3990.98
676.48	4085.19
676.671	4097.47
676.861	3984.84
677.052	3929.54
677.243	3904.96
677.433	3931.59
677.624	3921.35
677.814	4023.75
678.005	4046.27
678.195	3999.17
678.386	3954.12
678.576	3896.77
678.767	3851.72
678.957	4007.36
679.148	3947.97
679.338	4027.84
679.529	3919.3
679.719	3845.57
679.909	3941.83
680.1	3925.44
680.29	3886.53
680.481	3839.43
680.671	3827.14
680.861	3821
681.052	3843.53
681.242	3726.79
681.432	3886.53
681.622	3769.8
681.813	3796.42
682.003	3712.46
682.193	3835.33
682.383	3818.95
682.573	3771.85
682.764	3796.42
682.954	3638.73
683.144	3614.15
683.334	3724.74
683.524	3796.42
683.714	3700.17
683.904	3700.17
684.094	3782.09
684.284	3720.65
684.474	3728.84
684.664	3655.11
684.854	3782.09
685.044	3634.63
685.234	3481.03
685.424	3540.43
685.614	3628.49
685.804	3565
685.994	3571.15
686.184	3556.81
686.374	3569.1
686.564	3519.95
686.753	3683.78
686.943	3456.46
687.133	3526.09
687.323	3433.93
687.513	3440.08
687.702	3278.29
687.892	3452.36
688.082	3468.75
688.272	3438.03
688.461	3360.2
688.651	3349.96
688.841	3378.64
689.03	3401.16
689.22	3294.67
689.41	3335.63
689.599	3384.78
689.789	3302.86
689.979	3302.86
690.168	3272.14
690.358	3276.24
690.547	3282.38
690.737	3372.49
690.926	3214.8
691.116	3182.03
691.305	3263.95
691.495	3171.79
691.684	3091.92
691.874	3093.97
692.063	3083.73
692.252	3091.92
692.442	3116.5
692.631	2987.47
692.82	3036.63
693.01	3024.34
693.199	3040.72
693.388	3091.92
693.578	3024.34
693.767	2966.99
693.956	2966.99
694.146	2952.66
694.335	3061.2
694.524	2942.42
694.713	2942.42
694.902	3014.1
695.092	2917.84
695.281	2928.08
695.47	2840.02
695.659	2874.84
695.848	2958.8
696.037	2856.4
696.226	2913.75
696.415	2854.36
696.604	2864.6
696.793	2844.12
696.982	2823.64
697.171	2819.54
697.36	2893.27
697.549	2827.73
697.738	2842.07
697.927	2764.25
698.116	2848.21
698.305	2807.25
698.494	2731.48
698.683	2840.02
698.872	2827.73
699.061	2780.63
699.25	2729.43
699.438	2731.48
699.627	2627.03
699.816	2778.58
700.005	2672.09
700.193	2737.62
700.382	2739.67
700.571	2627.03
700.76	2782.68
700.948	2577.88
701.137	2819.54
701.326	2733.53
701.514	2696.66
701.703	2762.2
701.892	2592.22
702.08	2766.29
702.269	2774.49
702.457	2579.93
702.646	2602.46
702.834	2731.48
703.023	2657.75
703.212	2594.26
703.4	2672.09
703.589	2545.11
703.777	2618.84
703.965	2643.42
704.154	2528.73
704.342	2624.98
704.531	2608.6
704.719	2600.41
704.907	2680.28
705.096	2598.36
705.284	2483.67
705.472	2485.72
705.661	2481.63
705.849	2516.44
706.037	2573.78
706.226	2493.91
706.414	2627.03
706.602	2403.8
706.79	2672.09
706.979	2506.2
707.167	2581.98
707.355	2471.39
707.543	2506.2
707.731	2479.58
707.919	2528.73
708.107	2524.63
708.296	2426.33
708.484	2516.44
708.672	2506.2
708.86	2508.25
709.048	2436.57
709.236	2475.48
709.424	2559.45
709.612	2483.67
709.8	2600.41
709.988	2438.62
710.176	2584.02
710.364	2436.57
710.551	2465.24
710.739	2475.48
710.927	2344.41
711.115	2420.19
711.303	2375.13
711.491	2444.76
711.679	2467.29
711.866	2432.47
712.054	2491.87
712.242	2459.1
712.43	2424.28
712.617	2414.04
712.805	2409.95
712.993	2397.66
713.181	2418.14
713.368	2483.67
713.556	2366.94
713.744	2264.54
713.931	2436.57
714.119	2401.76
714.306	2401.76
714.494	2313.69
714.682	2362.84
714.869	2397.66
715.057	2485.72
715.244	2422.24
715.432	2297.31
715.619	2358.75
715.807	2393.56
715.994	2350.56
716.182	2418.14
716.369	2362.84
716.556	2325.98
716.744	2330.08
716.931	2407.9
717.119	2362.84
717.306	2352.6
717.493	2299.36
717.681	2385.37
717.868	2409.95
718.055	2346.46
718.242	2342.36
718.43	2340.32
718.617	2303.45
718.804	2295.26
718.991	2348.51
719.179	2246.11
719.366	2268.64
719.553	2231.77
719.74	2229.73
719.927	2328.03
720.114	2330.08
720.301	2141.66
720.488	2231.77
720.676	2188.77
720.863	2231.77
721.05	2313.69
721.237	2248.16
721.424	2059.74
721.611	2274.78
721.798	2205.15
721.985	2196.96
722.172	2258.4
722.358	2319.84
722.545	2297.31
722.732	2235.87
722.919	2225.63
723.106	2305.5
723.293	2221.53
723.48	2221.53
723.667	2139.62
723.853	2215.39
724.04	2235.87
724.227	2313.69
724.414	2295.26
724.6	2176.48
724.787	2237.92
724.974	2280.93
725.161	2110.94
725.347	2192.86
725.534	2223.58
725.72	2221.53
725.907	2135.52
726.094	2196.96
726.28	2131.42
726.467	2229.73
726.653	2149.86
726.84	2287.07
727.027	2098.66
727.213	2246.11
727.4	2174.43
727.586	2221.53
727.773	2235.87
727.959	2188.77
728.145	2184.67
728.332	2266.59
728.518	2092.51
728.705	2186.72
728.891	2082.27
729.077	2133.47
729.264	2094.56
729.45	2108.9
729.636	2203.1
729.823	2192.86
730.009	2158.05
730.195	2237.92
730.382	2156
730.568	2182.62
730.754	2115.04
730.94	2084.32
731.126	2094.56
731.313	2178.53
731.499	2141.66
731.685	2088.42
731.871	2057.7
732.057	2166.24
732.243	2043.36
732.429	1961.44
732.615	2086.37
732.801	2246.11
732.987	2248.16
733.173	2203.1
733.359	2160.1
733.545	2131.42
733.731	2067.94
733.917	2184.67
734.103	2188.77
734.289	2213.34
734.475	2149.86
734.661	2156
734.847	2125.28
735.033	2045.41
735.219	2139.62
735.404	2082.27
735.59	2164.19
735.776	2076.13
735.962	2143.71
736.148	2024.93
736.333	2082.27
736.519	2057.7
736.705	1951.2
736.89	2043.36
737.076	2135.52
737.262	1990.11
737.447	2002.4
737.633	2061.79
737.819	2010.59
738.004	2006.5
738.19	1943.01
738.375	1994.21
738.561	2024.93
738.747	2000.35
738.932	1934.82
739.118	2074.08
739.303	2008.55
739.489	2029.03
739.674	1973.73
739.859	1920.48
740.045	2012.64
740.23	2041.31
740.416	1902.05
740.601	2016.74
740.786	2035.17
740.972	1830.37
741.157	2010.59
741.342	1926.63
741.528	2016.74
741.713	1969.63
741.898	1809.89
742.084	1992.16
742.269	1895.91
742.454	1951.2
742.639	1912.29
742.824	1811.94
743.01	1910.24
743.195	1994.21
743.38	1873.38
743.565	1893.86
743.75	1951.2
743.935	1887.72
744.12	1732.07
744.305	1854.95
744.49	1762.79
744.675	1746.41
744.86	1746.41
745.045	1773.03
745.23	1846.76
745.415	1773.03
745.6	1826.28
745.785	1799.65
745.97	1828.32
746.155	1797.6
746.34	1762.79
746.525	1756.65
746.71	1723.88
746.895	1635.82
747.079	1615.34
747.264	1693.16
747.449	1785.32
747.634	1664.49
747.819	1650.15
748.003	1596.9
748.188	1664.49
748.373	1615.34
748.557	1611.24
748.742	1601
748.927	1613.29
749.111	1551.85
749.296	1574.38
749.481	1623.53
749.665	1549.8
749.85	1535.46
750.034	1639.91
750.219	1525.22
750.404	1451.5
750.588	1471.98
750.773	1424.87
750.957	1398.25
751.141	1521.13
751.326	1385.96
751.51	1340.91
751.695	1467.88
751.879	1392.11
752.064	1412.59
752.248	1447.4
752.432	1443.31
752.617	1332.72
752.801	1396.2
752.985	1469.93
753.17	1308.14
753.354	1441.26
753.538	1295.85
753.722	1365.48
753.907	1320.43
754.091	1232.37
754.275	1320.43
754.459	1302
754.643	1265.13
754.828	1277.42
755.012	1287.66
755.196	1256.94
755.38	1232.37
755.564	1238.51
755.748	1287.66
755.932	1226.22
756.116	1144.3
756.3	1304.04
756.484	1228.27
756.668	1215.98
756.852	1160.69
757.036	1140.21
757.22	1125.87
757.404	1119.73
757.588	1115.63
757.772	1156.59
757.956	1091.06
758.14	1164.78
758.323	1064.43
758.507	1175.02
758.691	1019.38
758.875	1115.63
759.059	1103.34
759.242	1091.06
759.426	923.12
759.61	957.94
759.794	1005.04
759.977	1023.47
760.161	1058.29
760.345	1074.67
760.528	1060.34
760.712	1058.29
760.895	1107.44
761.079	1002.99
761.263	943.6
761.446	949.75
761.63	892.4
761.813	927.22
761.997	1052.14
762.18	910.83
762.364	929.27
762.547	968.18
762.731	882.16
762.914	955.89
763.098	902.64
763.281	959.99
763.464	955.89
763.648	896.5
763.831	867.83
764.015	939.51
764.198	871.92
764.381	910.83
764.564	884.21
764.748	968.18
764.931	919.03
765.114	886.26
765.297	919.03
765.481	873.97
765.664	890.35
765.847	869.87
766.03	921.07
766.213	916.98
766.397	873.97
766.58	882.16
766.763	943.6
766.946	853.49
767.129	853.49
767.312	806.39
767.495	794.1
767.678	816.63
767.861	855.54
768.044	775.67
768.227	847.35
768.41	800.24
768.593	833.01
768.776	769.52
768.959	755.19
769.142	820.72
769.324	802.29
769.507	749.04
769.69	775.67
769.873	792.05
770.056	880.11
770.239	802.29
770.421	747
770.604	812.53
770.787	796.15
770.97	822.77
771.152	755.19
771.335	722.42
771.518	775.67
771.7	787.96
771.883	812.53
772.066	769.52
772.248	716.28
772.431	753.14
772.613	734.71
772.796	693.75
772.978	716.28
773.161	767.48
773.343	677.37
773.526	708.09
773.708	583.16
773.891	671.22
774.073	673.27
774.256	593.4
774.438	693.75
774.621	581.11
774.803	714.23
774.985	615.93
775.168	587.26
775.35	617.97
775.532	667.13
775.715	663.03
775.897	611.83
776.079	652.79
776.261	609.78
776.444	587.26
776.626	613.88
776.808	583.16
776.99	601.59
777.173	579.06
777.355	605.69
777.537	624.12
777.719	628.21
777.901	572.92
778.083	525.82
778.265	454.14
778.447	591.35
778.629	632.31
778.811	523.77
778.993	615.93
779.175	646.65
779.357	517.62
779.539	534.01
779.721	534.01
779.903	589.3
780.085	491
780.267	511.48
780.449	470.52
780.631	570.87
780.812	542.2
780.994	435.71
781.176	484.86
781.358	429.56
781.54	462.33
781.721	470.52
781.903	501.24
782.085	443.9
782.267	450.04
782.448	460.28
782.63	417.27
782.812	409.08
782.993	413.18
783.175	480.76
783.357	445.95
783.538	484.86
783.72	390.65
783.901	419.32
784.083	402.94
784.264	462.33
784.446	384.51
784.627	390.65
784.809	423.42
784.99	329.21
785.172	402.94
785.353	423.42
785.535	394.75
785.716	400.89
785.897	374.27
786.079	435.71
786.26	353.79
786.441	486.9
786.623	271.87
786.804	382.46
786.985	384.51
787.167	347.64
787.348	402.94
787.529	376.31
787.71	394.75
787.891	394.75
788.073	267.77
788.254	386.55
788.435	415.23
788.616	370.17
788.797	343.55
788.978	280.06
789.159	370.17
789.34	337.4
789.522	312.83
789.703	407.03
789.884	298.49
790.065	355.83
790.246	370.17
790.427	353.79
790.607	376.31
790.788	329.21
790.969	282.11
791.15	247.29
791.331	331.26
791.512	308.73
791.693	284.16
791.874	312.83
792.054	247.29
792.235	259.58
792.416	331.26
792.597	282.11
792.778	230.91
792.958	232.96
793.139	333.31
793.32	198.14
793.5	228.86
793.681	345.59
793.862	382.46
794.042	312.83
794.223	232.96
794.404	298.49
794.584	308.73
794.765	230.91
794.945	243.2
795.126	263.68
795.306	275.96
795.487	218.62
795.667	329.21
795.848	312.83
796.028	196.09
796.209	251.39
796.389	226.81
796.57	273.92
796.75	189.95
796.93	177.66
797.111	235
797.291	235
797.471	314.88
797.652	247.29
797.832	200.19
798.012	288.25
798.192	243.2
798.373	134.65
798.553	177.66
798.733	222.72
798.913	232.96
799.093	255.48
799.274	226.81
799.454	273.92
799.634	206.33
799.814	232.96
799.994	214.52
800.174	288.25
800.354	192
800.534	267.77
800.714	200.19
800.894	163.33
801.074	198.14
801.254	140.8
801.434	232.96
801.614	167.42
801.794	171.52
801.974	796.15
802.154	196.09
802.334	255.48
802.514	222.72
802.693	157.18
802.873	208.38
803.053	257.53
803.233	202.24
803.413	173.57
803.592	230.91
803.772	105.98
803.952	148.99
804.131	175.61
804.311	159.23
804.491	224.76
804.67	165.37
804.85	173.57
805.03	175.61
805.209	230.91
805.389	235
805.568	144.89
805.748	198.14
805.928	216.57
806.107	183.81
806.287	173.57
806.466	198.14
806.646	239.1
806.825	108.03
807.004	161.28
807.184	210.43
807.363	110.08
807.543	235
807.722	134.65
807.901	114.17
808.081	230.91
808.26	91.65
808.439	259.58
808.619	165.37
808.798	140.8
808.977	167.42
809.156	194.05
809.336	136.7
809.515	167.42
809.694	58.88
809.873	151.04
810.052	132.61
810.231	157.18
810.411	159.23
810.59	169.47
810.769	140.8
810.948	87.55
811.127	136.7
811.306	116.22
811.485	153.09
811.664	202.24
811.843	140.8
812.022	181.76
812.201	167.42
812.38	169.47
812.559	126.46
812.737	216.57
812.916	75.26
813.095	56.83
813.274	146.94
813.453	144.89
813.632	132.61
813.811	210.43
813.989	83.45
814.168	165.37
814.347	116.22
814.526	122.37
814.704	134.65
814.883	99.84
815.062	75.26
815.24	181.76
815.419	99.84
815.598	108.03
815.776	122.37
815.955	91.65
816.133	112.13
816.312	122.37
816.49	22.02
816.669	91.65
816.847	110.08
817.026	58.88
817.204	116.22
817.383	124.41
817.561	19.97
817.74	138.75
817.918	126.46
818.097	103.93
818.275	95.74
818.453	77.31
818.632	99.84
818.81	87.55
818.988	130.56
819.167	83.45
819.345	116.22
819.523	99.84
819.701	105.98
819.879	173.57
820.058	91.65
820.236	151.04
820.414	95.74
820.592	91.65
820.77	140.8
820.948	46.59
821.127	36.35
821.305	126.46
821.483	81.41
821.661	50.69
821.839	124.41
822.017	87.55
822.195	99.84
822.373	153.09
822.551	42.5
822.729	116.22
822.907	85.5
823.085	97.79
823.262	124.41
823.44	19.97
823.618	95.74
823.796	58.88
823.974	17.92
824.152	62.98
824.329	103.93
824.507	17.92
824.685	122.37
824.863	110.08
825.04	46.59
825.218	-2.56
825.396	116.22
825.574	101.89
825.751	13.82
825.929	69.12
826.107	112.13
826.284	99.84
826.462	89.6
826.639	62.98
826.817	42.5
826.994	128.51
827.172	105.98
827.349	134.65
827.527	128.51
827.704	3.58
827.882	95.74
828.059	95.74
828.237	36.35
828.414	105.98
828.591	62.98
828.769	83.45
828.946	71.17
829.124	44.54
829.301	122.37
829.478	151.04
829.655	65.02
829.833	58.88
830.01	56.83
830.187	67.07
830.364	42.5
830.542	38.4
830.719	67.07
830.896	91.65
831.073	116.22
831.25	58.88
831.427	81.41
831.604	34.3
831.782	50.69
831.959	91.65
832.136	77.31
832.313	91.65
832.49	19.97
832.667	62.98
832.844	-31.23
833.021	36.35
833.198	87.55
833.374	34.3
833.551	40.45
833.728	-2.56
833.905	52.74
834.082	9.73
834.259	13.82
834.436	67.07
834.612	28.16
834.789	54.78
834.966	77.31
835.143	81.41
835.319	36.35
835.496	44.54
835.673	136.7
835.85	144.89
836.026	62.98
836.203	93.69
836.38	42.5
836.556	132.61
836.733	22.02
836.909	101.89
837.086	52.74
837.262	65.02
837.439	95.74
837.616	54.78
837.792	75.26
837.968	73.21
838.145	34.3
838.321	112.13
838.498	110.08
838.674	42.5
838.851	71.17
839.027	36.35
839.203	19.97
839.38	101.89
839.556	3.58
839.732	120.32
839.909	79.36
840.085	67.07
840.261	71.17
840.437	38.4
840.614	30.21
840.79	124.41
840.966	46.59
841.142	101.89
841.318	-6.66
841.494	38.4
841.671	91.65
841.847	-6.66
842.023	9.73
842.199	36.35
842.375	46.59
842.551	69.12
842.727	87.55
842.903	103.93
843.079	-6.66
843.255	75.26
843.431	30.21
843.607	58.88
843.783	17.92
843.959	50.69
844.134	30.21
844.31	26.11
844.486	69.12
844.662	58.88
844.838	73.21
845.013	101.89
845.189	15.87
845.365	34.3
845.541	48.64
845.716	26.11
845.892	-10.75
846.068	97.79
846.244	19.97
846.419	171.52
846.595	-29.18
846.77	85.5
846.946	42.5
847.122	75.26
847.297	-20.99
847.473	210.43
847.648	-35.33
847.824	9.73
847.999	-25.09
848.175	-37.38
848.35	60.93
848.526	99.84
848.701	73.21
848.876	24.06
849.052	99.84
849.227	19.97
849.403	3.58
849.578	-18.94
849.753	19.97
849.929	-0.51
850.104	26.11
850.279	-10.75
850.454	46.59
850.63	69.12
850.805	-18.94
850.98	22.02
851.155	-14.85
851.33	-12.8
851.505	26.11
851.681	50.69
851.856	-6.66
852.031	81.41
852.206	-6.66
852.381	-27.14
852.556	54.78
852.731	38.4
852.906	58.88
853.081	60.93
853.256	81.41
853.431	42.5
853.606	44.54
853.781	50.69
853.956	-37.38
854.131	46.59
854.305	7.68
854.48	46.59
854.655	42.5
854.83	-37.38
855.005	26.11
855.18	-0.51
855.354	22.02
855.529	36.35
855.704	65.02
855.879	95.74
856.053	26.11
856.228	69.12
856.403	-49.66
856.577	79.36
856.752	-4.61
856.926	28.16
857.101	-47.62
857.276	-31.23
857.45	17.92
857.625	1.54
857.799	9.73
857.974	44.54
858.148	30.21
858.323	67.07
858.497	-53.76
858.672	28.16
858.846	-29.18
859.02	30.21
859.195	-35.33
859.369	-2.56
859.543	58.88
859.718	44.54
859.892	22.02
860.066	93.69
860.241	-41.47
860.415	38.4
860.589	-14.85
860.763	30.21
860.938	-23.04
861.112	-2.56
861.286	-23.04
861.46	3.58
861.634	58.88
861.808	54.78
861.982	-14.85
862.157	1.54
862.331	1.54
862.505	-61.95
862.679	7.68
862.853	-29.18
863.027	-35.33
863.201	50.69
863.375	-12.8
863.549	28.16
863.722	-35.33
863.896	50.69
864.07	26.11
864.244	-14.85
864.418	-4.61
864.592	26.11
864.766	22.02
864.939	46.59
865.113	1.54
865.287	83.45
865.461	-2.56
865.634	-4.61
865.808	-12.8
865.982	-12.8
866.156	-25.09
866.329	-23.04
866.503	30.21
866.676	17.92
866.85	-10.75
867.024	-39.42
867.197	30.21
867.371	44.54
867.544	9.73
867.718	-25.09
867.891	-29.18
868.065	-53.76
868.238	67.07
868.412	-18.94
868.585	38.4
868.759	-23.04
868.932	-27.14
869.105	1.54
869.279	17.92
869.452	-39.42
869.625	69.12
869.799	5.63
869.972	28.16
870.145	7.68
870.319	58.88
870.492	3.58
870.665	26.11
870.838	-39.42
871.011	-31.23
871.185	5.63
871.358	-20.99
871.531	28.16
871.704	-2.56
871.877	22.02
872.05	54.78
872.223	-29.18
872.396	13.82
872.569	32.26
872.742	-37.38
872.915	85.5
873.088	-29.18
873.261	-27.14
873.434	-6.66
873.607	17.92
873.78	38.4
873.953	-33.28
874.126	-20.99
874.299	1.54
874.471	44.54
874.644	-35.33
874.817	9.73
874.99	56.83
875.163	34.3
875.335	3.58
875.508	-61.95
875.681	77.31
875.853	-18.94
876.026	-10.75
876.199	36.35
876.371	-23.04
876.544	-18.94
876.717	62.98
876.889	38.4
877.062	-6.66
877.234	-12.8
877.407	-23.04
877.579	-8.7
877.752	42.5
877.924	-14.85
878.097	19.97
878.269	15.87
878.442	-27.14
878.614	-4.61
878.786	1.54
878.959	-31.23
879.131	-12.8
879.303	3.58
879.476	-57.86
879.648	-10.75
879.82	-39.42
879.993	-43.52
880.165	-10.75
880.337	26.11
880.509	50.69
880.681	-31.23
880.854	1.54
881.026	7.68
881.198	58.88
881.37	26.11
881.542	-59.9
881.714	69.12
881.886	-6.66
882.058	-104.96
882.23	22.02
882.402	-4.61
882.574	-12.8
882.746	15.87
882.918	1.54
883.09	36.35
883.262	-10.75
883.434	-6.66
883.606	11.78
883.778	34.3
883.95	83.45
884.122	-55.81
884.293	-27.14
884.465	52.74
884.637	-12.8
884.809	-43.52
884.98	9.73
885.152	32.26
885.324	75.26
885.496	-25.09
885.667	75.26
885.839	26.11
886.011	38.4
886.182	-16.9
886.354	52.74
886.525	50.69
886.697	24.06
886.869	13.82
887.04	-23.04
887.212	-4.61
887.383	1.54
887.555	11.78
887.726	17.92
887.897	11.78
888.069	-86.53
888.24	-25.09
888.412	-6.66
888.583	-61.95
888.754	-12.8
888.926	-47.62
889.097	26.11
889.268	-4.61
889.44	58.88
889.611	-39.42
889.782	-64
889.953	-53.76
890.125	-0.51
890.296	24.06
890.467	-18.94
890.638	-113.15
890.809	-43.52
890.98	-47.62
891.151	28.16
891.323	-20.99
891.494	50.69
891.665	-70.14
891.836	67.07
892.007	9.73
892.178	-23.04
892.349	83.45
892.52	9.73
892.691	34.3
892.862	19.97
893.032	-16.9
893.203	-68.09
893.374	-12.8
893.545	34.3
893.716	-27.14
893.887	-4.61
894.057	-4.61
894.228	19.97
894.399	-10.75
894.57	17.92
894.74	-55.81
894.911	15.87
895.082	-80.38
895.253	-78.33
895.423	-55.81
895.594	19.97
895.764	-2.56
895.935	11.78
896.106	-90.62
896.276	-8.7
896.447	-27.14
896.617	-23.04
896.788	-37.38
896.958	36.35
897.129	-57.86
897.299	-45.57
897.47	-4.61
897.64	69.12
897.81	32.26
897.981	7.68
898.151	-59.9
898.322	-14.85
898.492	-4.61
898.662	42.5
898.832	-14.85
899.003	-23.04
899.173	56.83
899.343	26.11
899.513	-8.7
