Data from USB4F104151__107__14-18-13-255.txt Node

Date: Thu Mar 13 14:18:13 EDT 2025
User: louis
Spectrometer: USB4F10415
Trigger mode: 4
Integration Time (sec): 2.000000E-2
Scans to average: 1
Electric dark correction enabled: true
Nonlinearity correction enabled: false
Boxcar width: 0
XAxis mode: Wavelengths
Number of Pixels in Spectrum: 3648
>>>>>Begin Spectral Data<<<<<
178.204	-139.94
178.424	-139.94
178.644	-139.94
178.864	-53.93
179.084	-119.46
179.304	-45.74
179.524	-53.93
179.744	30.04
179.964	-21.16
180.184	-21.16
180.404	42.32
180.624	30.04
180.844	40.28
181.064	19.8
181.283	-19.11
181.503	3.41
181.723	-4.78
181.943	5.46
182.163	73.04
182.383	54.61
182.602	79.19
182.822	3.41
183.042	7.51
183.262	-8.87
183.482	3.41
183.701	13.65
183.921	21.84
184.141	19.8
184.361	-53.93
184.58	-62.12
184.8	54.61
185.02	11.61
185.239	23.89
185.459	38.23
185.679	62.8
185.898	-33.45
186.118	40.28
186.338	9.56
186.557	32.08
186.777	-82.6
186.997	52.56
187.216	-21.16
187.436	85.33
187.655	3.41
187.875	-4.78
188.095	19.8
188.314	-29.35
188.534	19.8
188.753	-60.07
188.973	36.18
189.192	81.24
189.412	-2.73
189.631	19.8
189.851	32.08
190.07	77.14
190.29	7.51
190.509	-70.31
190.729	7.51
190.948	-27.31
191.168	101.72
191.387	40.28
191.607	27.99
191.826	-37.55
192.045	1.37
192.265	-45.74
192.484	-4.78
192.704	-19.11
192.923	32.08
193.142	71
193.362	36.18
193.581	11.61
193.8	36.18
194.02	40.28
194.239	-58.03
194.458	13.65
194.678	25.94
194.897	79.19
195.116	60.76
195.335	71
195.555	-2.73
195.774	54.61
195.993	46.42
196.212	71
196.432	38.23
196.651	-8.87
196.87	40.28
197.089	85.33
197.308	85.33
197.528	42.32
197.747	-41.64
197.966	-0.68
198.185	58.71
198.404	-25.26
198.623	19.8
198.842	130.39
199.062	66.9
199.281	118.1
199.5	-10.92
199.719	21.84
199.938	60.76
200.157	36.18
200.376	36.18
200.595	15.7
200.814	-27.31
201.033	-6.83
201.252	-6.83
201.471	7.51
201.69	56.66
201.909	-29.35
202.128	32.08
202.347	62.8
202.566	-31.4
202.785	-37.55
203.004	-31.4
203.223	122.2
203.442	-10.92
203.661	-27.31
203.879	30.04
204.098	3.41
204.317	46.42
204.536	134.48
204.755	-0.68
204.974	64.85
205.193	-23.21
205.411	25.94
205.63	52.56
205.849	36.18
206.068	-39.59
206.287	-8.87
206.505	27.99
206.724	27.99
206.943	13.65
207.162	-35.5
207.381	-2.73
207.599	-33.45
207.818	-43.69
208.037	-10.92
208.255	-4.78
208.474	44.37
208.693	64.85
208.911	60.76
209.13	60.76
209.349	-2.73
209.567	54.61
209.786	52.56
210.005	-31.4
210.223	-0.68
210.442	-53.93
210.661	30.04
210.879	81.24
211.098	-19.11
211.316	19.8
211.535	36.18
211.753	3.41
211.972	36.18
212.191	17.75
212.409	40.28
212.628	-29.35
212.846	-12.97
213.065	30.04
213.283	85.33
213.502	-2.73
213.72	-21.16
213.938	-25.26
214.157	-10.92
214.375	27.99
214.594	71
214.812	54.61
215.031	60.76
215.249	27.99
215.467	81.24
215.686	46.42
215.904	60.76
216.122	-19.11
216.341	13.65
216.559	5.46
216.778	64.85
216.996	11.61
217.214	-76.46
217.432	5.46
217.651	3.41
217.869	-41.64
218.087	1.37
218.306	9.56
218.524	87.38
218.742	-45.74
218.96	101.72
219.179	19.8
219.397	-82.6
219.615	77.14
219.833	42.32
220.051	44.37
220.27	-0.68
220.488	-35.5
220.706	32.08
220.924	77.14
221.142	75.09
221.36	19.8
221.578	77.14
221.796	-10.92
222.015	17.75
222.233	19.8
222.451	40.28
222.669	-6.83
222.887	85.33
223.105	-12.97
223.323	21.84
223.541	15.7
223.759	73.04
223.977	-17.07
224.195	62.8
224.413	56.66
224.631	-4.78
224.849	44.37
225.067	89.43
225.285	56.66
225.503	5.46
225.721	3.41
225.939	32.08
226.157	66.9
226.375	122.2
226.592	27.99
226.81	144.72
227.028	48.47
227.246	52.56
227.464	27.99
227.682	48.47
227.9	23.89
228.117	75.09
228.335	19.8
228.553	40.28
228.771	21.84
228.989	-35.5
229.206	42.32
229.424	7.51
229.642	23.89
229.86	36.18
230.077	-2.73
230.295	25.94
230.513	73.04
230.731	62.8
230.948	52.56
231.166	68.95
231.384	19.8
231.601	25.94
231.819	107.86
232.037	1.37
232.254	-10.92
232.472	87.38
232.689	62.8
232.907	19.8
233.125	75.09
233.342	48.47
233.56	-41.64
233.777	36.18
233.995	30.04
234.213	36.18
234.43	46.42
234.648	68.95
234.865	-2.73
235.083	13.65
235.3	-4.78
235.518	13.65
235.735	85.33
235.953	30.04
236.17	44.37
236.388	60.76
236.605	19.8
236.822	77.14
237.04	-39.59
237.257	-0.68
237.475	23.89
237.692	46.42
237.909	46.42
238.127	-78.51
238.344	-41.64
238.562	85.33
238.779	23.89
238.996	36.18
239.214	36.18
239.431	73.04
239.648	21.84
239.865	50.52
240.083	-25.26
240.3	101.72
240.517	3.41
240.735	7.51
240.952	48.47
241.169	19.8
241.386	73.04
241.603	-70.31
241.821	81.24
242.038	126.29
242.255	17.75
242.472	27.99
242.689	5.46
242.907	60.76
243.124	3.41
243.341	-25.26
243.558	-4.78
243.775	40.28
243.992	-27.31
244.209	21.84
244.426	99.67
244.643	60.76
244.86	23.89
245.078	46.42
245.295	-17.07
245.512	30.04
245.729	-37.55
245.946	-45.74
246.163	1.37
246.38	87.38
246.597	3.41
246.814	120.15
247.031	25.94
247.248	36.18
247.464	-33.45
247.681	11.61
247.898	-10.92
248.115	-12.97
248.332	9.56
248.549	32.08
248.766	42.32
248.983	87.38
249.2	56.66
249.417	11.61
249.633	19.8
249.85	23.89
250.067	23.89
250.284	-15.02
250.501	-4.78
250.717	17.75
250.934	-35.5
251.151	-35.5
251.368	44.37
251.585	36.18
251.801	83.28
252.018	3.41
252.235	85.33
252.451	-39.59
252.668	40.28
252.885	85.33
253.102	101.72
253.318	52.56
253.535	62.8
253.752	-27.31
253.968	-2.73
254.185	71
254.401	-0.68
254.618	44.37
254.835	-4.78
255.051	19.8
255.268	30.04
255.484	46.42
255.701	27.99
255.917	62.8
256.134	-37.55
256.351	5.46
256.567	71
256.784	46.42
257	17.75
257.217	32.08
257.433	27.99
257.65	27.99
257.866	-23.21
258.082	3.41
258.299	3.41
258.515	21.84
258.732	21.84
258.948	-8.87
259.165	77.14
259.381	-45.74
259.597	-21.16
259.814	-60.07
260.03	15.7
260.246	-6.83
260.463	32.08
260.679	15.7
260.895	21.84
261.112	27.99
261.328	9.56
261.544	-25.26
261.761	62.8
261.977	23.89
262.193	66.9
262.409	95.57
262.626	89.43
262.842	77.14
263.058	27.99
263.274	23.89
263.49	60.76
263.707	46.42
263.923	68.95
264.139	-37.55
264.355	46.42
264.571	138.58
264.787	21.84
265.004	25.94
265.22	54.61
265.436	-33.45
265.652	30.04
265.868	-31.4
266.084	38.23
266.3	21.84
266.516	19.8
266.732	48.47
266.948	19.8
267.164	11.61
267.38	42.32
267.596	-29.35
267.812	36.18
268.028	64.85
268.244	21.84
268.46	68.95
268.676	-27.31
268.892	83.28
269.108	15.7
269.324	-4.78
269.54	-17.07
269.756	111.96
269.972	-4.78
270.188	71
270.403	-21.16
270.619	21.84
270.835	32.08
271.051	68.95
271.267	30.04
271.483	-70.31
271.698	36.18
271.914	48.47
272.13	3.41
272.346	-66.22
272.562	-33.45
272.777	34.13
272.993	60.76
273.209	52.56
273.425	3.41
273.64	-45.74
273.856	27.99
274.072	42.32
274.287	56.66
274.503	85.33
274.719	-15.02
274.934	-6.83
275.15	81.24
275.366	40.28
275.581	68.95
275.797	36.18
276.012	-37.55
276.228	85.33
276.444	19.8
276.659	27.99
276.875	-4.78
277.09	-21.16
277.306	-19.11
277.521	52.56
277.737	48.47
277.952	-10.92
278.168	60.76
278.383	15.7
278.599	-25.26
278.814	34.13
279.03	7.51
279.245	-0.68
279.461	-10.92
279.676	-27.31
279.892	-4.78
280.107	50.52
280.322	-66.22
280.538	93.52
280.753	91.48
280.969	93.52
281.184	19.8
281.399	71
281.615	54.61
281.83	40.28
282.045	-4.78
282.26	-2.73
282.476	-8.87
282.691	36.18
282.906	-23.21
283.122	52.56
283.337	77.14
283.552	52.56
283.767	38.23
283.983	3.41
284.198	42.32
284.413	44.37
284.628	3.41
284.843	-25.26
285.058	68.95
285.274	87.38
285.489	68.95
285.704	17.75
285.919	42.32
286.134	-10.92
286.349	5.46
286.564	7.51
286.779	36.18
286.995	54.61
287.21	-10.92
287.425	5.46
287.64	-2.73
287.855	-37.55
288.07	-29.35
288.285	60.76
288.5	21.84
288.715	46.42
288.93	-21.16
289.145	-0.68
289.36	93.52
289.575	11.61
289.79	21.84
290.004	36.18
290.219	142.68
290.434	15.7
290.649	23.89
290.864	34.13
291.079	36.18
291.294	30.04
291.509	27.99
291.724	54.61
291.938	17.75
292.153	93.52
292.368	-51.88
292.583	17.75
292.798	71
293.012	62.8
293.227	15.7
293.442	64.85
293.657	109.91
293.871	52.56
294.086	-10.92
294.301	19.8
294.516	7.51
294.73	75.09
294.945	-4.78
295.16	44.37
295.374	85.33
295.589	120.15
295.804	60.76
296.018	21.84
296.233	75.09
296.447	5.46
296.662	19.8
296.877	77.14
297.091	83.28
297.306	-29.35
297.52	34.13
297.735	60.76
297.949	66.9
298.164	81.24
298.378	-8.87
298.593	-45.74
298.807	25.94
299.022	71
299.236	79.19
299.451	3.41
299.665	-60.07
299.88	21.84
300.094	-6.83
300.309	34.13
300.523	34.13
300.737	11.61
300.952	3.41
301.166	5.46
301.381	-6.83
301.595	-2.73
301.809	38.23
302.024	30.04
302.238	52.56
302.452	13.65
302.667	34.13
302.881	52.56
303.095	13.65
303.309	-10.92
303.524	5.46
303.738	-4.78
303.952	71
304.166	30.04
304.381	56.66
304.595	126.29
304.809	-4.78
305.023	32.08
305.237	-37.55
305.452	58.71
305.666	64.85
305.88	77.14
306.094	36.18
306.308	17.75
306.522	32.08
306.736	75.09
306.95	-8.87
307.164	-19.11
307.379	-2.73
307.593	25.94
307.807	36.18
308.021	25.94
308.235	3.41
308.449	54.61
308.663	-2.73
308.877	62.8
309.091	77.14
309.305	1.37
309.519	15.7
309.733	54.61
309.947	15.7
310.161	71
310.374	21.84
310.588	9.56
310.802	58.71
311.016	1.37
311.23	5.46
311.444	-160.42
311.658	23.89
311.872	109.91
312.085	1.37
312.299	36.18
312.513	101.72
312.727	-23.21
312.941	42.32
313.154	120.15
313.368	60.76
313.582	-4.78
313.796	3.41
314.009	11.61
314.223	27.99
314.437	21.84
314.651	36.18
314.864	13.65
315.078	-29.35
315.292	52.56
315.505	60.76
315.719	-2.73
315.933	3.41
316.146	60.76
316.36	-37.55
316.573	-33.45
316.787	-19.11
317.001	52.56
317.214	34.13
317.428	144.72
317.641	11.61
317.855	3.41
318.068	105.81
318.282	11.61
318.495	138.58
318.709	1.37
318.922	11.61
319.136	83.28
319.349	93.52
319.563	42.32
319.776	27.99
319.99	21.84
320.203	44.37
320.417	21.84
320.63	27.99
320.843	101.72
321.057	-37.55
321.27	36.18
321.483	-0.68
321.697	60.76
321.91	77.14
322.124	46.42
322.337	30.04
322.55	-2.73
322.763	36.18
322.977	54.61
323.19	25.94
323.403	101.72
323.617	99.67
323.83	54.61
324.043	-53.93
324.256	-27.31
324.469	15.7
324.683	75.09
324.896	64.85
325.109	81.24
325.322	95.57
325.535	32.08
325.748	11.61
325.962	44.37
326.175	17.75
326.388	118.1
326.601	19.8
326.814	38.23
327.027	25.94
327.24	73.04
327.453	-70.31
327.666	38.23
327.879	56.66
328.092	95.57
328.305	-29.35
328.518	13.65
328.731	21.84
328.944	32.08
329.157	-8.87
329.37	3.41
329.583	77.14
329.796	25.94
330.009	25.94
330.222	107.86
330.435	85.33
330.648	44.37
330.861	46.42
331.073	103.76
331.286	99.67
331.499	36.18
331.712	13.65
331.925	36.18
332.138	64.85
332.35	52.56
332.563	52.56
332.776	66.9
332.989	40.28
333.202	52.56
333.414	27.99
333.627	23.89
333.84	114
334.053	52.56
334.265	-70.31
334.478	11.61
334.691	-2.73
334.903	101.72
335.116	-12.97
335.329	11.61
335.541	30.04
335.754	109.91
335.966	-6.83
336.179	52.56
336.392	19.8
336.604	21.84
336.817	25.94
337.029	77.14
337.242	71
337.454	13.65
337.667	40.28
337.88	93.52
338.092	52.56
338.305	75.09
338.517	89.43
338.729	32.08
338.942	32.08
339.154	11.61
339.367	60.76
339.579	46.42
339.792	-0.68
340.004	44.37
340.217	-25.26
340.429	99.67
340.641	13.65
340.854	19.8
341.066	77.14
341.278	79.19
341.491	97.62
341.703	85.33
341.915	-0.68
342.128	79.19
342.34	66.9
342.552	-23.21
342.764	44.37
342.977	3.41
343.189	-51.88
343.401	75.09
343.613	97.62
343.826	68.95
344.038	11.61
344.25	5.46
344.462	-37.55
344.674	15.7
344.886	21.84
345.099	73.04
345.311	93.52
345.523	-35.5
345.735	56.66
345.947	62.8
346.159	44.37
346.371	21.84
346.583	19.8
346.795	79.19
347.007	81.24
347.219	1.37
347.431	62.8
347.643	21.84
347.855	36.18
348.067	81.24
348.279	-45.74
348.491	9.56
348.703	3.41
348.915	19.8
349.127	58.71
349.339	56.66
349.551	95.57
349.763	38.23
349.975	38.23
350.187	38.23
350.399	60.76
350.61	68.95
350.822	52.56
351.034	146.77
351.246	81.24
351.458	32.08
351.669	54.61
351.881	89.43
352.093	48.47
352.305	128.34
352.517	79.19
352.728	19.8
352.94	15.7
353.152	97.62
353.363	-6.83
353.575	64.85
353.787	120.15
353.999	89.43
354.21	38.23
354.422	87.38
354.633	73.04
354.845	71
355.057	36.18
355.268	91.48
355.48	54.61
355.692	118.1
355.903	44.37
356.115	40.28
356.326	101.72
356.538	138.58
356.749	56.66
356.961	36.18
357.172	-35.5
357.384	21.84
357.595	109.91
357.807	64.85
358.018	66.9
358.23	111.96
358.441	71
358.653	-21.16
358.864	54.61
359.075	32.08
359.287	64.85
359.498	77.14
359.709	73.04
359.921	75.09
360.132	71
360.344	60.76
360.555	42.32
360.766	52.56
360.977	9.56
361.189	60.76
361.4	-45.74
361.611	5.46
361.823	109.91
362.034	-0.68
362.245	44.37
362.456	15.7
362.667	97.62
362.879	68.95
363.09	44.37
363.301	52.56
363.512	44.37
363.723	109.91
363.935	27.99
364.146	42.32
364.357	56.66
364.568	120.15
364.779	30.04
364.99	3.41
365.201	-4.78
365.412	52.56
365.623	13.65
365.834	36.18
366.045	-6.83
366.256	58.71
366.467	101.72
366.678	89.43
366.889	9.56
367.1	-19.11
367.311	19.8
367.522	77.14
367.733	64.85
367.944	19.8
368.155	25.94
368.366	52.56
368.577	1.37
368.788	122.2
368.999	5.46
369.209	44.37
369.42	114
369.631	21.84
369.842	36.18
370.053	56.66
370.264	64.85
370.474	66.9
370.685	79.19
370.896	68.95
371.107	66.9
371.317	87.38
371.528	15.7
371.739	75.09
371.95	183.63
372.16	34.13
372.371	42.32
372.582	-17.07
372.792	85.33
373.003	36.18
373.214	56.66
373.424	68.95
373.635	97.62
373.846	50.52
374.056	-0.68
374.267	-29.35
374.477	73.04
374.688	-2.73
374.898	48.47
375.109	71
375.319	13.65
375.53	89.43
375.74	77.14
375.951	36.18
376.161	38.23
376.372	81.24
376.582	36.18
376.793	68.95
377.003	38.23
377.214	21.84
377.424	77.14
377.635	152.91
377.845	27.99
378.055	-0.68
378.266	48.47
378.476	85.33
378.686	71
378.897	93.52
379.107	19.8
379.317	-10.92
379.528	68.95
379.738	93.52
379.948	101.72
380.158	95.57
380.369	7.51
380.579	60.76
380.789	-19.11
380.999	71
381.21	15.7
381.42	79.19
381.63	11.61
381.84	40.28
382.05	9.56
382.261	11.61
382.471	122.2
382.681	81.24
382.891	81.24
383.101	68.95
383.311	21.84
383.521	114
383.731	15.7
383.941	62.8
384.151	99.67
384.361	54.61
384.571	118.1
384.781	118.1
384.991	68.95
385.201	109.91
385.411	21.84
385.621	32.08
385.831	68.95
386.041	71
386.251	87.38
386.461	85.33
386.671	118.1
386.881	97.62
387.091	32.08
387.301	128.34
387.511	97.62
387.72	136.53
387.93	17.75
388.14	58.71
388.35	66.9
388.56	152.91
388.769	105.81
388.979	85.33
389.189	56.66
389.399	38.23
389.609	56.66
389.818	46.42
390.028	44.37
390.238	54.61
390.447	66.9
390.657	19.8
390.867	44.37
391.076	46.42
391.286	79.19
391.496	-21.16
391.705	95.57
391.915	148.82
392.125	136.53
392.334	68.95
392.544	140.63
392.753	95.57
392.963	42.32
393.172	73.04
393.382	3.41
393.591	93.52
393.801	118.1
394.01	118.1
394.22	105.81
394.429	95.57
394.639	58.71
394.848	120.15
395.058	107.86
395.267	138.58
395.477	105.81
395.686	109.91
395.895	87.38
396.105	105.81
396.314	68.95
396.524	91.48
396.733	101.72
396.942	85.33
397.152	157.01
397.361	103.76
397.57	77.14
397.78	64.85
397.989	126.29
398.198	177.49
398.407	152.91
398.617	79.19
398.826	81.24
399.035	101.72
399.244	138.58
399.453	167.25
399.663	126.29
399.872	175.44
400.081	101.72
400.29	177.49
400.499	101.72
400.708	185.68
400.917	191.83
401.127	140.63
401.336	101.72
401.545	167.25
401.754	169.3
401.963	126.29
402.172	144.72
402.381	140.63
402.59	144.72
402.799	124.24
403.008	83.28
403.217	173.39
403.426	257.36
403.635	93.52
403.844	159.06
404.053	224.59
404.262	150.87
404.471	245.07
404.68	220.5
404.888	234.83
405.097	249.17
405.306	259.41
405.515	183.63
405.724	191.83
405.933	257.36
406.142	210.26
406.35	249.17
406.559	273.75
406.768	273.75
406.977	322.9
407.185	304.46
407.394	259.41
407.603	240.98
407.812	310.61
408.02	310.61
408.229	286.03
408.438	224.59
408.646	306.51
408.855	396.62
409.064	318.8
409.272	390.48
409.481	400.72
409.69	367.95
409.898	447.82
410.107	331.09
410.315	408.91
410.524	398.67
410.733	503.12
410.941	421.2
411.15	580.94
411.358	488.78
411.567	519.5
411.775	539.98
411.984	589.13
412.192	560.46
412.401	613.71
412.609	656.72
412.818	701.77
413.026	732.49
413.234	691.53
413.443	687.43
413.651	783.69
413.86	785.74
414.068	851.27
414.276	793.93
414.485	832.84
414.693	941.38
414.901	1078.6
415.11	998.73
415.318	986.44
415.526	955.72
415.734	1041.73
415.943	1201.47
416.151	1119.56
416.359	1174.85
416.567	1267.01
416.776	1281.35
416.984	1305.92
417.192	1404.22
417.4	1365.31
417.608	1363.26
417.817	1393.98
418.025	1514.81
418.233	1600.83
418.441	1563.97
418.649	1674.56
418.857	1699.13
419.065	1889.59
419.273	1707.32
419.481	1916.22
419.689	1963.32
419.897	2151.73
420.105	2102.58
420.313	2219.32
420.521	2231.6
420.729	2348.34
420.937	2401.58
421.145	2469.17
421.353	2444.59
421.561	2657.58
421.769	2673.96
421.977	2968.87
422.185	2841.9
422.393	3120.42
422.601	3206.44
422.809	3231.01
423.017	3216.68
423.224	3364.13
423.432	3388.71
423.64	3491.1
423.848	3886.36
424.056	3650.85
424.263	4029.72
424.471	4064.54
424.679	4123.93
424.887	4345.11
425.094	4263.19
425.302	4531.47
425.51	4670.73
425.718	4705.55
425.925	4930.83
426.133	5012.74
426.341	5221.64
426.548	5557.5
426.756	5377.28
426.964	5551.36
427.171	5876.99
427.379	5997.82
427.586	6132.98
427.794	6341.88
428.001	6548.72
428.209	6978.79
428.417	6778.09
428.624	7388.39
428.832	7228.65
429.039	7204.07
429.247	7298.28
429.454	8068.31
429.662	8516.82
429.869	7834.85
430.076	8410.32
430.284	8137.95
430.491	8574.16
430.699	9043.15
430.906	9116.87
431.114	9137.35
431.321	9665.73
431.528	9786.56
431.736	10147
431.943	10702
432.15	10396.85
432.358	10593.46
432.565	11222.19
432.772	10966.19
432.979	11429.03
433.187	11988.13
433.394	11852.96
433.601	12672.15
433.808	12917.9
434.016	12790.93
434.223	13026.45
434.43	14109.82
434.637	13905.03
434.844	14668.92
435.052	14939.25
435.259	14875.76
435.466	14906.48
435.673	15000.69
435.88	15668.33
436.087	16651.35
436.294	16645.21
436.501	16333.92
436.708	16415.83
436.915	17214.54
437.122	18076.74
437.329	17857.6
437.537	18279.49
437.743	18568.25
437.95	18533.43
438.157	19295.28
438.364	20216.86
438.571	19989.54
438.778	20136.99
438.985	22008.84
439.192	21144.59
439.399	21658.63
439.606	21216.27
439.813	22647.8
440.02	23956.46
440.227	23184.37
440.433	23350.26
440.64	24032.23
440.847	23933.93
441.054	24431.58
441.261	26330.05
441.467	25674.7
441.674	26127.3
441.881	27120.57
442.088	27120.57
442.294	27007.93
442.501	27538.35
442.708	28261.29
442.914	29158.3
443.121	30415.75
443.328	29332.37
443.534	31609.72
443.741	30581.63
443.948	30094.22
444.154	32598.88
444.361	32369.51
444.568	32455.53
444.774	32559.97
444.981	33055.58
445.187	33966.93
445.394	34986.82
445.6	34626.37
445.807	38017.81
446.013	36238.12
446.22	36881.19
446.426	38265.61
446.633	38515.47
446.839	40082.16
447.046	38165.26
447.252	40458.99
447.459	40518.38
447.665	40205.04
447.871	41935.57
448.078	43784.89
448.284	41947.86
448.491	42824.39
448.697	44554.93
448.903	45333.15
449.11	45183.65
449.316	44468.91
449.522	45216.42
449.728	46643.85
449.935	46926.47
450.141	46793.36
450.347	47960.7
450.553	46439.06
450.76	47137.41
450.966	48626.29
451.172	47907.45
451.378	49570.4
451.584	48482.93
451.791	49396.32
451.997	48847.47
452.203	49881.69
452.409	49893.98
452.615	49369.7
452.821	48106.1
453.027	47387.27
453.233	49992.28
453.44	47735.42
453.646	48358
453.852	48523.89
454.058	49445.47
454.264	47860.35
454.47	48984.68
454.676	48073.34
454.882	49545.83
455.088	45185.7
455.294	45945.5
455.5	46545.55
455.705	46604.94
455.911	45314.72
456.117	44526.25
456.323	43938.49
456.529	41478.88
456.735	43559.61
456.941	42031.83
457.147	41681.63
457.352	40747.75
457.558	40164.08
457.764	40327.92
457.97	39469.82
458.176	38628.1
458.381	38523.66
458.587	36883.23
458.793	36868.9
458.999	34876.23
459.204	37315.36
459.41	36098.86
459.616	33940.3
459.821	33995.6
460.027	33647.44
460.233	33323.86
460.438	31771.5
460.644	31818.61
460.85	30714.75
461.055	30022.54
461.261	29901.71
461.466	27849.64
461.672	26991.55
461.878	28890.01
462.083	26926.01
462.289	26258.37
462.494	26092.49
462.7	25191.38
462.905	24407.01
463.111	25068.5
463.316	25467.86
463.522	24660.96
463.727	24789.98
463.932	24683.48
464.138	24286.18
464.343	24699.87
464.549	24204.26
464.754	24712.16
464.959	24470.5
465.165	24497.12
465.37	23282.67
465.575	23010.29
465.781	23653.36
465.986	23571.44
466.191	22707.19
466.397	22387.71
466.602	21408.78
466.807	22309.89
467.012	22090.76
467.218	22000.65
467.423	21496.85
467.628	21605.39
467.833	22924.28
468.038	21779.47
468.244	21453.84
468.449	22023.17
468.654	21261.33
468.859	21310.48
469.064	21023.76
469.269	20341.79
469.474	20757.53
469.679	21203.99
469.885	20499.48
470.09	20546.59
470.295	20188.19
470.5	19866.66
470.705	20212.77
470.91	19706.92
471.115	19559.47
471.32	19622.95
471.525	19500.08
471.73	19110.96
471.935	19182.64
472.139	18486.33
472.344	19080.24
472.549	18138.18
472.754	18297.92
472.959	18164.8
473.164	17695.82
473.369	17243.21
473.574	18289.73
473.778	17857.6
473.983	17738.82
474.188	17663.05
474.393	16960.59
474.598	16729.17
474.802	16587.86
475.007	16612.44
475.212	16759.89
475.417	16180.32
475.621	16186.46
475.826	16288.86
476.031	15580.26
476.235	15623.27
476.44	15778.92
476.645	15311.98
476.849	15498.34
477.054	14992.5
477.259	14892.15
477.463	14953.59
477.668	14691.45
477.872	14939.25
478.077	14589.05
478.282	14244.99
478.486	14115.97
478.691	14138.49
478.895	14019.71
479.1	14025.86
479.304	13798.53
479.509	13538.44
479.713	13556.87
479.918	13413.51
480.122	13243.53
480.326	13554.82
480.531	13507.72
480.735	13352.07
480.94	13210.76
481.144	13563.01
481.348	13008.01
481.553	13051.02
481.757	12930.19
481.961	13040.78
482.166	13167.76
482.37	12809.36
482.574	12881.04
482.778	13008.01
482.983	13161.61
483.187	12973.2
483.391	13196.43
483.595	12977.3
483.8	12719.25
484.004	12610.71
484.208	13128.84
484.412	12905.62
484.616	12975.25
484.821	13016.21
485.025	12711.06
485.229	12932.24
485.433	12862.61
485.637	12967.06
485.841	12612.76
486.045	13102.22
486.249	12856.47
486.453	12684.44
486.657	12809.36
486.861	12876.94
487.065	12426.39
487.269	12835.99
487.473	12557.46
487.677	12729.49
487.881	13030.54
488.085	12786.83
488.289	12995.73
488.493	12754.07
488.697	12962.96
488.901	12825.75
489.105	12807.31
489.309	13194.38
489.512	13016.21
489.716	13077.65
489.92	12979.34
490.124	12702.87
490.328	13323.4
490.531	13102.22
490.735	13130.89
490.939	13251.72
491.143	13128.84
491.346	12936.34
491.55	13298.83
491.754	13419.66
491.958	13524.1
492.161	13413.51
492.365	13409.42
492.569	13745.28
492.772	13646.98
492.976	13712.52
493.18	13544.58
493.383	13917.31
493.587	13913.22
493.79	14079.1
493.994	13909.12
494.197	14199.93
494.401	14058.62
494.605	14306.43
494.808	14187.64
495.012	14634.1
495.215	14488.7
495.419	14615.67
495.622	14455.93
495.825	14820.47
496.029	14879.86
496.232	15176.81
496.436	14865.52
496.639	15578.22
496.843	15475.82
497.046	15631.46
497.249	15694.95
497.453	15707.24
497.656	16004.19
497.859	16172.13
498.063	16180.32
498.266	16649.3
498.469	16520.28
498.673	16882.77
498.876	16854.1
499.079	16991.31
499.282	16981.07
499.485	17503.31
499.689	17620.04
499.892	17960
500.095	18211.9
500.298	18373.69
500.501	17966.15
500.705	18476.09
500.908	18951.22
501.111	18850.87
501.314	19379.25
501.517	19266.61
501.72	19459.12
501.923	19686.44
502.126	19917.86
502.329	20321.31
502.532	20436
502.735	20689.95
502.938	21050.39
503.141	20982.81
503.344	21455.89
503.547	21175.31
503.75	21572.62
503.953	21900.3
504.156	21830.66
504.359	22191.11
504.562	22582.27
504.765	22875.13
504.968	23227.38
505.17	23268.34
505.373	23325.68
505.576	23710.7
505.779	23821.29
505.982	23909.35
506.185	24792.03
506.387	24415.2
506.59	24841.18
506.793	25357.27
506.996	25426.9
507.198	25660.37
507.401	25850.83
507.604	26129.35
507.807	26708.93
508.009	26948.54
508.212	26893.24
508.415	27286.45
508.617	27720.62
508.82	27972.52
509.022	27638.7
509.225	28619.68
509.428	28234.66
509.63	28980.12
509.833	29174.68
510.035	29565.84
510.238	29578.13
510.44	29649.81
510.643	30272.39
510.845	30350.21
511.048	30342.02
511.25	30931.84
511.453	30985.08
511.655	32299.88
511.858	31585.14
512.06	32050.03
512.262	32490.34
512.465	32492.39
512.667	32789.35
512.87	33295.19
513.072	33413.98
513.274	34073.42
513.477	34366.28
513.679	34360.14
513.881	34696
514.084	34939.71
514.286	34882.37
514.488	35068.73
514.69	36264.75
514.893	36469.54
515.095	36504.36
515.297	36870.95
515.499	36922.15
515.701	37292.83
515.904	37710.61
516.106	38238.99
516.308	38408.97
516.51	38673.16
516.712	38585.1
516.914	39039.75
517.116	39471.87
517.318	39940.85
517.52	39795.45
517.722	40448.75
517.925	40925.92
518.127	41151.2
518.329	41321.18
518.531	41306.85
518.733	42013.4
518.935	42375.89
519.136	42302.16
519.338	43033.28
519.54	42973.89
519.742	43573.95
519.944	43735.74
520.146	44196.53
520.348	44587.69
520.55	44311.22
520.752	44810.92
520.954	45662.88
521.155	44968.62
521.357	45789.85
521.559	46183.06
521.761	46981.77
521.963	46535.31
522.164	46930.57
522.366	47166.09
522.568	47714.94
522.77	47813.24
522.971	48530.03
523.173	48046.71
523.375	48773.74
523.576	48548.46
523.778	48636.53
523.98	49635.94
524.181	49402.47
524.383	49844.83
524.584	49941.08
524.786	50371.16
524.988	50012.76
525.189	50598.48
525.391	51331.65
525.592	50907.72
525.794	51108.43
525.995	51159.62
526.197	51540.55
526.398	51485.25
526.6	51886.65
526.801	52458.04
527.003	51946.04
527.204	52179.51
527.406	52748.85
527.607	52849.2
527.808	52703.79
528.01	52296.25
528.211	52967.98
528.412	54266.39
528.614	53471.78
528.815	53695.01
529.016	53987.87
529.218	53713.44
529.419	53641.76
529.62	54370.84
529.822	54098.46
530.023	54131.23
530.224	54080.03
530.425	53961.25
530.626	53735.97
530.828	53613.09
531.029	55157.26
531.23	54225.43
531.431	54303.26
531.632	54602.26
531.833	54780.43
532.035	54878.74
532.236	54800.91
532.437	55161.36
532.638	54381.08
532.839	55050.77
533.04	54854.16
533.241	54217.24
533.442	55118.35
533.643	55196.17
533.844	54704.66
534.045	54977.04
534.246	54827.54
534.447	55443.98
534.648	54819.34
534.849	55314.95
535.05	54364.7
535.251	55112.2
535.451	54702.61
535.652	55083.53
535.853	54895.12
536.054	55202.32
536.255	55028.24
536.456	54974.99
536.657	55558.66
536.857	54991.37
537.058	54841.87
537.259	55214.6
537.46	55390.73
537.66	54927.89
537.861	55230.99
538.062	54936.08
538.263	55001.61
538.463	54751.76
538.664	55015.95
538.865	55575.05
539.065	55493.13
539.266	54479.38
539.466	55902.72
539.667	54395.42
539.868	55560.71
540.068	54843.92
540.269	55026.19
540.469	55130.64
540.67	54520.34
540.87	54759.95
541.071	54813.2
541.271	55097.87
541.472	55024.14
541.672	54694.42
541.873	54772.24
542.073	53936.67
542.274	55124.49
542.474	54645.27
542.675	54262.3
542.875	55120.4
543.075	55140.88
543.276	54243.87
543.476	55116.3
543.676	54661.65
543.877	54923.79
544.077	54620.69
544.277	54649.36
544.478	54753.81
544.678	54501.91
544.878	54825.49
545.078	54845.97
545.279	54293.02
545.479	54116.89
545.679	54561.3
545.879	54434.33
546.079	54491.67
546.28	53918.24
546.48	54317.59
546.68	54229.53
546.88	54616.6
547.08	54403.61
547.28	54112.8
547.48	53963.29
547.68	54530.58
547.88	54092.32
548.081	54340.12
548.281	54497.81
548.481	53969.44
548.681	54592.02
548.881	54170.14
549.081	53987.87
549.28	54057.5
549.48	54293.02
549.68	54411.8
549.88	54635.03
550.08	54055.45
550.28	54665.75
550.48	53768.74
550.68	54184.47
550.88	53856.8
551.08	53961.25
551.279	54133.28
551.479	53752.35
551.679	54227.48
551.879	53477.93
552.079	54522.39
552.278	53647.91
552.478	53572.13
552.678	54018.59
552.878	54508.05
553.077	53656.1
553.277	53154.35
553.477	54082.08
553.676	53309.99
553.876	53715.49
554.076	53465.64
554.275	53594.66
554.475	52924.97
554.674	53690.91
554.874	53631.52
555.074	53340.71
555.273	53492.26
555.473	53092.91
555.672	53148.2
555.872	53426.73
556.071	53396.01
556.271	53543.46
556.47	52978.22
556.67	52855.34
556.869	52908.59
557.068	53398.05
557.268	52920.88
557.467	53307.94
557.667	52957.74
557.866	53133.87
558.065	52638.26
558.265	52417.08
558.464	52447.8
558.663	52988.46
558.863	52056.64
559.062	52994.6
559.261	52603.44
559.461	53082.67
559.66	52419.13
559.859	52320.82
560.058	51993.15
560.258	53004.84
560.457	51944
560.656	52642.35
560.855	52292.15
561.054	52259.38
561.253	51634.75
561.453	51987
561.652	52077.11
561.851	52058.68
562.05	51247.69
562.249	51018.31
562.448	52007.48
562.647	51565.12
562.846	51624.51
563.045	51536.45
563.244	51225.16
563.443	51778.11
563.642	50807.37
563.841	51460.68
564.04	50569.81
564.239	51487.3
564.438	50991.69
564.637	50950.73
564.836	51040.84
565.035	50688.59
565.234	51030.6
565.432	50176.6
565.631	50297.43
565.83	50551.38
566.029	50315.86
566.228	50412.12
566.427	50254.42
566.625	50137.69
566.824	49955.42
567.023	50506.32
567.222	49236.58
567.42	50106.97
567.619	49603.17
567.818	49590.88
568.016	49625.7
568.215	49810.01
568.414	49396.32
568.612	49807.97
568.811	49179.24
569.01	49502.82
569.208	48358
569.407	49490.53
569.605	48802.41
569.804	49207.91
570.002	48945.77
570.201	48775.79
570.4	48536.18
570.598	48452.21
570.797	48177.78
570.995	48419.44
571.193	47637.12
571.392	48648.82
571.59	47958.65
571.789	47989.37
571.987	48042.62
572.186	47837.82
572.384	47086.21
572.582	47876.73
572.781	47723.13
572.979	47374.98
573.177	47760
573.376	47440.51
573.574	46742.16
573.772	47291.01
573.971	46744.2
574.169	46512.78
574.367	46541.46
574.565	46744.2
574.763	46742.16
574.962	46803.6
575.16	46387.86
575.358	46693
575.556	45908.63
575.754	46641.81
575.952	45558.43
576.151	46023.32
576.349	45847.19
576.547	45783.71
576.745	45853.34
576.943	45841.05
577.141	45324.96
577.339	45773.47
577.537	44987.05
577.735	45193.89
577.933	45085.35
578.131	45265.57
578.329	44751.53
578.527	44524.21
578.725	44485.29
578.923	45050.53
579.121	44511.92
579.319	44528.3
579.516	44436.14
579.714	44341.94
579.912	44337.84
580.11	44161.72
580.308	43989.69
580.506	44311.22
580.704	43244.23
580.901	43553.47
581.099	43815.61
581.297	43117.25
581.495	43600.57
581.692	43834.04
581.89	42908.36
582.088	43121.35
582.285	42975.94
582.483	43211.46
582.681	42826.44
582.878	42568.4
583.076	42494.67
583.274	42744.52
583.471	42230.48
583.669	42502.86
583.866	41974.48
584.064	42050.26
584.262	41349.85
584.459	42379.98
584.657	41845.46
584.854	42259.15
585.052	41472.73
585.249	41738.97
585.447	41235.17
585.644	41059.04
585.841	41005.8
586.039	41542.36
586.236	41030.37
586.434	40940.26
586.631	40432.36
586.828	40837.86
587.026	40702.7
587.223	40647.4
587.42	39983.86
587.618	40456.94
587.815	40022.77
588.012	39961.33
588.21	39848.69
588.407	40030.96
588.604	39885.56
588.801	39541.5
588.999	39543.55
589.196	39658.23
589.393	39830.26
589.59	39344.89
589.787	39207.68
589.984	39136
590.182	38847.24
590.379	39025.41
590.576	38656.78
590.773	38871.81
590.97	38347.53
591.167	38611.72
591.364	38337.29
591.561	38325
591.758	38060.82
591.955	37987.09
592.152	38423.31
592.349	37976.85
592.546	37843.73
592.743	37987.09
592.94	37133.09
593.137	37348.12
593.334	37718.81
593.531	36895.52
593.727	37325.6
593.924	37249.82
594.121	36905.76
594.318	36989.73
594.515	36539.18
594.712	36729.64
594.908	36762.4
595.105	36774.69
595.302	36295.47
595.499	36475.69
595.696	36102.96
595.892	36068.14
596.089	36135.73
596.286	36209.45
596.482	35984.18
596.679	35908.4
596.876	35603.25
597.072	35599.16
597.269	35498.81
597.466	34945.86
597.662	35328.83
597.859	34814.79
598.055	35351.35
598.252	34945.86
598.448	34552.65
598.645	34925.38
598.841	34603.85
599.038	34575.17
599.234	34454.34
599.431	34077.52
599.627	34032.46
599.824	34282.31
600.02	33858.38
600.217	34134.86
600.413	34040.65
600.609	33792.85
600.806	33760.08
601.002	33561.43
601.198	33512.28
601.395	33594.2
601.591	33086.3
601.787	33188.7
601.984	33200.99
602.18	33297.24
602.376	32863.07
602.572	32568.16
602.769	33139.55
602.965	32150.38
603.161	32549.73
603.357	32349.03
603.553	32177
603.75	32586.6
603.946	32250.73
604.142	32506.73
604.338	31660.91
604.534	31923.05
604.73	31689.59
604.926	31495.03
605.122	31789.94
605.318	31396.73
605.514	31486.84
605.71	31171.45
605.906	31228.79
606.102	31318.9
606.298	31206.27
606.494	31449.97
606.69	30993.28
606.886	30954.36
607.082	30591.87
607.278	31140.73
607.474	30270.34
607.67	30522.24
607.866	30213
608.062	30471.04
608.257	30372.74
608.453	30702.46
608.649	30387.08
608.845	30151.56
609.041	30184.33
609.236	30176.14
609.432	30040.97
609.628	29995.92
609.824	29938.57
610.019	29813.65
610.215	29957
610.411	29979.53
610.606	29612.95
610.802	29445.01
610.998	29879.18
611.193	29660.05
611.389	29148.06
611.584	29606.8
611.78	29246.36
611.976	29303.7
612.171	29045.66
612.367	29238.17
612.562	29010.84
612.758	28668.83
612.953	28892.06
613.149	29244.31
613.344	28818.33
613.539	28973.98
613.735	28900.25
613.93	28554.15
614.126	28437.41
614.321	28973.98
614.517	28703.65
614.712	28656.54
614.907	28431.27
615.103	28918.68
615.298	28492.71
615.493	28984.22
615.688	28242.85
615.884	28672.93
616.079	27632.56
616.274	28146.6
616.47	28380.07
616.665	28011.43
616.86	27710.38
617.055	27841.45
617.25	27474.87
617.445	28099.5
617.641	27288.5
617.836	27661.23
618.031	27245.49
618.226	27483.06
618.421	27464.63
618.616	27311.03
618.811	26805.18
619.006	27560.88
619.201	26993.59
619.396	26778.56
619.591	26653.63
619.786	27042.74
619.981	26280.9
620.176	26770.36
620.371	26112.97
620.566	26489.79
620.761	25938.89
620.956	26139.59
621.151	25756.62
621.346	25840.59
621.541	25713.61
621.735	25686.99
621.93	25256.92
622.125	25359.31
622.32	25011.16
622.515	25086.93
622.709	24923.1
622.904	24828.89
623.099	24581.09
623.294	24407.01
623.488	24353.76
623.683	24656.86
623.878	24032.23
624.072	24114.15
624.267	24065
624.462	24224.74
624.656	23718.89
624.851	23645.16
625.046	23563.25
625.24	23978.98
625.435	23081.97
625.629	23360.5
625.824	22897.66
626.018	23157.75
626.213	22338.56
626.407	22760.44
626.602	22348.8
626.796	22385.66
626.991	22316.03
627.185	22516.73
627.38	22035.46
627.574	21990.41
627.768	21990.41
627.963	21746.7
628.157	21496.85
628.352	21658.63
628.546	21558.28
628.74	21457.93
628.935	20972.57
629.129	20876.31
629.323	20794.39
629.517	21099.54
629.712	20704.28
629.906	20751.38
630.1	20296.74
630.294	20345.89
630.489	20331.55
630.683	20182.05
630.877	20018.21
631.071	20073.51
631.265	20032.55
631.459	19713.06
631.653	19919.91
631.848	19672.11
632.042	19516.46
632.236	19526.7
632.43	19244.08
632.624	19307.57
632.818	19000.37
633.012	19119.15
633.206	19039.28
633.4	18754.62
633.594	18814.01
633.788	18945.08
633.982	18857.01
634.176	18750.52
634.369	18738.23
634.563	18451.52
634.757	18216
634.951	18437.18
635.145	18000.96
635.339	18060.35
635.533	17749.06
635.726	17861.7
635.92	17491.02
636.114	17568.84
636.308	17419.34
636.501	17517.64
636.695	17294.41
636.889	17200.21
637.083	17241.17
637.276	17007.7
637.47	17024.08
637.664	16981.07
637.857	16919.64
638.051	16956.5
638.244	16739.41
638.438	16522.33
638.632	16307.29
638.825	16426.07
639.019	16174.17
639.212	16190.56
639.406	16092.26
639.599	16176.22
639.793	16131.17
639.986	15795.3
640.18	15592.55
640.373	15823.97
640.567	15658.09
640.76	15676.52
640.954	15422.57
641.147	15252.59
641.34	15010.93
641.534	15275.12
641.727	15340.65
641.92	15207.53
642.114	15041.65
642.307	14724.21
642.5	14656.63
642.694	14453.88
642.887	14531.7
643.08	14546.04
643.273	14713.97
643.467	14353.53
643.66	14470.26
643.853	14240.89
644.046	14169.21
644.239	14195.84
644.432	13814.91
644.626	13784.19
644.819	13849.73
645.012	13694.08
645.205	13935.74
645.398	13681.8
645.591	13601.93
645.784	13526.15
645.977	13571.21
646.17	13503.62
646.363	13380.75
646.556	13245.58
646.749	13198.48
646.942	13266.06
647.135	13022.35
647.328	13020.3
647.521	12999.82
647.714	12795.03
647.907	12862.61
648.099	12831.89
648.292	12739.73
648.485	12711.06
648.678	12405.91
648.871	12383.38
649.064	12240.03
649.256	12522.65
649.449	12291.23
649.642	12256.41
649.835	11988.13
650.027	12129.44
650.22	12170.4
650.413	11949.21
650.605	12072.09
650.798	11709.6
650.991	11762.85
651.183	11869.34
651.376	11570.34
651.568	11723.94
651.761	11566.24
651.954	11519.14
652.146	11365.54
652.339	11224.23
652.531	11404.46
652.724	11293.86
652.916	10876.08
653.109	11283.63
653.301	11328.68
653.494	11127.98
653.686	10910.89
653.879	11240.62
654.071	10761.39
654.263	10611.89
654.456	10798.26
654.648	10665.14
654.84	10607.8
655.033	10777.78
655.225	10497.21
655.417	10532.02
655.61	10607.8
655.802	10480.82
655.994	10470.58
656.186	10431.67
656.379	10228.92
656.571	10271.93
656.763	9958.59
656.955	10026.17
657.148	10048.7
657.34	10095.8
657.532	10030.27
657.724	9848
657.916	9901.25
658.108	9821.38
658.3	9649.35
658.492	9530.56
658.684	9616.58
658.876	9555.14
659.068	9460.93
659.26	9481.41
659.452	9268.42
659.644	9444.55
659.836	9272.52
660.028	9215.18
660.22	9000.14
660.412	9006.28
660.604	9120.97
660.796	9268.42
660.988	9145.55
661.18	8985.8
661.372	8899.79
661.563	8690.9
661.755	8838.35
661.947	8791.25
662.139	8844.49
662.331	8731.86
662.522	8621.27
662.714	8498.39
662.906	8694.99
663.097	8703.18
663.289	8551.63
663.481	8293.59
663.673	8357.08
663.864	8377.56
664.056	8244.44
664.247	8258.78
664.439	8183
664.631	8289.49
664.822	8174.81
665.014	8150.23
665.205	8072.41
665.397	8260.82
665.588	8019.16
665.78	7912.67
665.971	8002.78
666.163	7949.53
666.354	7804.13
666.546	7761.12
666.737	7789.79
666.929	7953.63
667.12	7761.12
667.311	7695.58
667.503	7425.25
667.694	7611.62
667.885	7415.01
668.077	7468.26
668.268	7460.07
668.459	7296.23
668.651	7441.64
668.842	7329
669.033	7482.6
669.224	7460.07
669.416	7216.36
669.607	7396.58
669.798	7396.58
669.989	7263.46
670.18	7216.36
670.371	7210.22
670.563	7130.34
670.754	6933.74
670.945	6958.32
671.136	7017.71
671.327	6919.4
671.518	6927.6
671.709	6950.12
671.9	6933.74
672.091	6972.65
672.282	6843.63
672.473	6870.25
672.664	6804.72
672.855	6681.84
673.046	6829.29
673.237	6610.16
673.428	6577.39
673.619	6608.11
673.809	6597.87
674	6638.83
674.191	6687.98
674.382	6470.9
674.573	6567.15
674.764	6558.96
674.954	6477.04
675.145	6614.26
675.336	6229.24
675.527	6511.86
675.717	6491.38
675.908	6335.73
676.099	6264.05
676.289	6413.56
676.48	6221.05
676.671	6262.01
676.861	6223.09
677.052	6315.25
677.243	6077.69
677.433	6063.35
677.624	6135.03
677.814	6100.22
678.005	6231.29
678.195	6083.83
678.386	6096.12
678.576	6026.49
678.767	6044.92
678.957	6114.55
679.148	6171.9
679.338	6089.98
679.529	5932.28
679.719	5924.09
679.909	6077.69
680.1	5913.85
680.29	5946.62
680.481	5942.52
680.671	5870.84
680.861	5883.13
681.052	5985.53
681.242	5678.33
681.432	5965.05
681.622	5620.99
681.813	5643.52
682.003	5733.63
682.193	5631.23
682.383	5756.16
682.573	5797.12
682.764	5721.34
682.954	5780.73
683.144	5713.15
683.334	5657.85
683.524	5487.87
683.714	5563.65
683.904	5516.55
684.094	5647.62
684.284	5379.33
684.474	5514.5
684.664	5483.78
684.854	5379.33
685.044	5573.89
685.234	5395.71
685.424	5389.57
685.614	5350.66
685.804	5532.93
685.994	5262.6
686.184	5442.82
686.374	5346.56
686.564	5106.95
686.753	5262.6
686.943	5203.21
687.133	5274.88
687.323	5195.01
687.513	5240.07
687.702	5219.59
687.892	5168.39
688.082	5223.69
688.272	5057.8
688.461	5131.53
688.651	5213.45
688.841	4887.82
689.03	4996.36
689.22	4963.59
689.41	5016.84
689.599	5010.7
689.789	4982.03
689.979	4975.88
690.168	4918.54
690.358	4828.43
690.547	4865.29
690.737	4771.08
690.926	4828.43
691.116	4728.08
691.305	4812.04
691.495	4846.86
691.684	4668.69
691.874	4754.7
692.063	4617.49
692.252	4695.31
692.442	4875.53
692.631	4488.46
692.82	4603.15
693.01	4371.73
693.199	4633.87
693.388	4510.99
693.578	4592.91
693.767	4445.46
693.956	4508.94
694.146	4543.76
694.335	4429.07
694.524	4482.32
694.713	4379.92
694.902	4510.99
695.092	4467.99
695.281	4377.87
695.47	4351.25
695.659	4345.11
695.848	4232.47
696.037	4267.28
696.226	4336.92
696.415	4168.98
696.604	4386.07
696.793	4336.92
696.982	4316.44
697.171	4191.51
697.36	4222.23
697.549	4123.93
697.738	4074.78
697.927	4070.68
698.116	4128.02
698.305	4062.49
698.494	4144.41
698.683	3994.9
698.872	4216.08
699.061	4074.78
699.25	3972.38
699.438	4074.78
699.627	4125.97
699.816	4035.86
700.005	4160.79
700.193	4021.53
700.382	4146.45
700.571	3960.09
700.76	4037.91
700.948	4017.43
701.137	3937.56
701.326	3980.57
701.514	3902.75
701.703	3865.88
701.892	3962.14
702.08	3943.71
702.269	3855.64
702.457	3943.71
702.646	3976.47
702.834	3935.51
703.023	3882.27
703.212	3929.37
703.4	3786.01
703.589	3798.3
703.777	3888.41
703.965	3816.73
704.154	3851.55
704.342	3712.28
704.531	3855.64
704.719	3697.95
704.907	3835.16
705.096	3849.5
705.284	3665.18
705.472	3732.76
705.661	3740.96
705.849	3620.13
706.037	3767.58
706.226	3730.72
706.414	3837.21
706.602	3654.94
706.79	3804.44
706.979	3659.04
707.167	3616.03
707.355	3810.59
707.543	3683.61
707.731	3665.18
707.919	3437.86
708.107	3601.69
708.296	3552.54
708.484	3570.97
708.672	3611.93
708.86	3566.88
709.048	3605.79
709.236	3607.84
709.424	3583.26
709.612	3656.99
709.8	3493.15
709.988	3484.96
710.176	3452.19
710.364	3460.38
710.551	3493.15
710.739	3405.09
710.927	3509.54
711.115	3454.24
711.303	3378.47
711.491	3427.62
711.679	3648.8
711.866	3444
712.054	3405.09
712.242	3290.4
712.43	3503.39
712.617	3456.29
712.805	3357.99
712.993	3333.41
713.181	3347.75
713.368	3376.42
713.556	3380.51
713.744	3294.5
713.931	3317.03
714.119	3269.92
714.306	3294.5
714.494	3407.14
714.682	3265.83
714.869	3202.34
715.057	3298.59
715.244	3257.64
715.432	3329.31
715.619	3271.97
715.807	3454.24
715.994	3257.64
716.182	3314.98
716.369	3157.29
716.556	3382.56
716.744	3263.78
716.931	3206.44
717.119	3306.79
717.306	3339.55
717.493	3179.81
717.681	3317.03
717.868	3210.53
718.055	3222.82
718.242	3265.83
718.43	3288.36
718.617	3251.49
718.804	3271.97
718.991	3106.09
719.179	3161.38
719.366	3145
719.553	3128.61
719.74	3108.13
719.927	3018.02
720.114	3063.08
720.301	3044.65
720.488	3095.85
720.676	3050.79
720.863	3075.37
721.05	3165.48
721.237	3077.41
721.424	3075.37
721.611	3138.85
721.798	2977.06
721.985	3063.08
722.172	2972.97
722.358	3063.08
722.545	3050.79
722.732	3009.83
722.919	3071.27
723.106	2938.15
723.293	2993.45
723.48	2997.54
723.667	2921.77
723.853	2886.95
724.04	3042.6
724.227	3007.78
724.414	3083.56
724.6	3077.41
724.787	2921.77
724.974	2977.06
725.161	2870.57
725.347	2874.67
725.534	2880.81
725.72	2968.87
725.907	2936.1
726.094	3009.83
726.28	2878.76
726.467	2954.54
726.653	2862.38
726.84	2956.58
727.027	2860.33
727.213	2864.43
727.4	2954.54
727.586	2977.06
727.773	2845.99
727.959	2915.62
728.145	2827.56
728.332	2823.47
728.518	2802.99
728.705	2866.47
728.891	2870.57
729.077	2819.37
729.264	2872.62
729.45	2919.72
729.636	2889
729.823	2872.62
730.009	2723.12
730.195	2768.17
730.382	2862.38
730.568	2790.7
730.754	2862.38
730.94	2811.18
731.126	2833.71
731.313	2911.53
731.499	2780.46
731.685	2827.56
731.871	2784.55
732.057	2862.38
732.243	2772.27
732.429	2692.4
732.615	2837.8
732.801	2768.17
732.987	2669.87
733.173	2739.5
733.359	2727.21
733.545	2704.68
733.731	2610.48
733.917	2807.08
734.103	2745.64
734.289	2858.28
734.475	2592.05
734.661	2792.75
734.847	2641.2
735.033	2782.51
735.219	2553.13
735.404	2692.4
735.59	2643.24
735.776	2561.33
735.962	2678.06
736.148	2686.25
736.333	2590
736.519	2676.01
736.705	2714.92
736.89	2610.48
737.076	2696.49
737.262	2686.25
737.447	2671.92
737.633	2559.28
737.819	2571.57
738.004	2661.68
738.19	2540.85
738.375	2460.98
738.561	2520.37
738.747	2553.13
738.932	2526.51
739.118	2626.86
739.303	2571.57
739.489	2612.53
739.674	2579.76
739.859	2440.5
740.045	2594.09
740.23	2520.37
740.416	2297.14
740.601	2524.46
740.786	2440.5
740.972	2538.8
741.157	2512.17
741.342	2583.85
741.528	2426.16
741.713	2395.44
741.898	2506.03
742.084	2438.45
742.269	2336.05
742.454	2444.59
742.639	2395.44
742.824	2379.06
743.01	2424.11
743.195	2342.19
743.38	2340.15
743.565	2270.51
743.75	2387.25
743.935	2309.43
744.12	2321.71
744.305	2274.61
744.49	2358.58
744.675	2231.6
744.86	2305.33
745.045	2282.8
745.23	2184.5
745.415	2184.5
745.6	2192.69
745.785	2092.34
745.97	2172.21
746.155	2288.95
746.34	2200.88
746.525	2217.27
746.71	2141.49
746.895	2139.44
747.079	2196.79
747.264	2223.41
747.449	2051.38
747.634	2092.34
747.819	2059.57
748.003	2061.62
748.188	2088.25
748.373	2080.05
748.557	2059.57
748.742	2020.66
748.927	1991.99
749.111	1983.8
749.296	2006.33
749.481	1975.61
749.665	1930.55
749.85	1957.18
750.034	1977.66
750.219	1903.93
750.404	1938.74
750.588	1936.7
750.773	1914.17
750.957	1840.44
751.141	1801.53
751.326	1879.35
751.51	1791.29
751.695	1776.95
751.879	1791.29
752.064	1752.38
752.248	1678.65
752.432	1838.39
752.617	1793.34
752.801	1809.72
752.985	1641.79
753.17	1738.04
753.354	1774.91
753.538	1783.1
753.722	1654.08
753.907	1561.92
754.091	1555.77
754.275	1715.52
754.459	1621.31
754.643	1637.69
754.828	1535.29
755.012	1547.58
755.196	1541.44
755.38	1467.71
755.564	1396.03
755.748	1453.38
755.932	1529.15
756.116	1445.18
756.3	1424.7
756.484	1600.83
756.668	1502.53
756.852	1459.52
757.036	1416.51
757.22	1381.7
757.404	1471.81
757.588	1428.8
757.772	1436.99
757.956	1389.89
758.14	1463.61
758.323	1359.17
758.507	1318.21
758.691	1328.45
758.875	1385.79
759.059	1381.7
759.242	1322.31
759.426	1195.33
759.61	1305.92
759.794	1258.82
759.977	1383.74
760.161	1291.59
760.345	1330.5
760.528	1267.01
760.712	1285.44
760.895	1207.62
761.079	1297.73
761.263	1264.96
761.446	1221.95
761.63	1273.15
761.813	1307.97
761.997	1109.32
762.18	1178.95
762.364	1236.29
762.547	1248.58
762.731	1217.86
762.914	1166.66
763.098	1236.29
763.281	1187.14
763.464	1154.37
763.648	1211.71
763.831	1101.12
764.015	1066.31
764.198	1207.62
764.381	1162.56
764.564	1174.85
764.748	1113.41
764.931	1148.23
765.114	1092.93
765.297	1137.99
765.481	1103.17
765.664	1049.93
765.847	1056.07
766.03	1097.03
766.213	1051.97
766.397	1076.55
766.58	1037.64
766.763	1117.51
766.946	998.73
767.129	996.68
767.312	1043.78
767.495	980.29
767.678	986.44
767.861	990.53
768.044	1039.69
768.227	945.48
768.41	959.81
768.593	1086.79
768.776	978.25
768.959	994.63
769.142	1060.17
769.324	1013.06
769.507	1019.21
769.69	953.67
769.873	972.1
770.056	1035.59
770.239	978.25
770.421	978.25
770.604	894.28
770.787	875.85
770.97	918.86
771.152	980.29
771.335	920.9
771.518	939.33
771.7	910.66
771.883	980.29
772.066	922.95
772.248	875.85
772.431	1027.4
772.613	937.29
772.796	879.94
772.978	865.61
773.161	929.1
773.343	879.94
773.526	867.66
773.708	871.75
773.891	793.93
774.073	847.18
774.256	791.88
774.438	789.83
774.621	836.94
774.803	894.28
774.985	879.94
775.168	783.69
775.35	808.26
775.532	841.03
775.715	693.58
775.897	822.6
776.079	806.22
776.261	787.79
776.444	873.8
776.626	748.87
776.808	789.83
776.99	732.49
777.173	834.89
777.355	773.45
777.537	722.25
777.719	724.3
777.901	726.35
778.083	623.95
778.265	791.88
778.447	705.87
778.629	675.15
778.811	746.83
778.993	652.62
779.175	675.15
779.357	707.91
779.539	617.8
779.721	699.72
779.903	738.63
780.085	611.66
780.267	666.96
780.449	691.53
780.631	556.36
780.812	605.52
780.994	664.91
781.176	636.24
781.358	617.8
781.54	542.03
781.721	664.91
781.903	595.28
782.085	570.7
782.267	539.98
782.448	511.31
782.63	601.42
782.812	589.13
782.993	666.96
783.175	574.8
783.357	560.46
783.538	619.85
783.72	513.36
783.901	515.41
784.083	560.46
784.264	482.64
784.446	539.98
784.627	501.07
784.809	572.75
784.99	546.12
785.172	521.55
785.353	517.45
785.535	423.25
785.716	539.98
785.897	560.46
786.079	521.55
786.26	478.54
786.441	486.73
786.623	496.97
786.804	413.01
786.985	431.44
787.167	445.77
787.348	511.31
787.529	486.73
787.71	445.77
787.891	423.25
788.073	376.14
788.254	380.24
788.435	492.88
788.616	494.93
788.797	419.15
788.978	490.83
789.159	400.72
789.34	464.21
789.522	392.53
789.703	451.92
789.884	382.29
790.065	390.48
790.246	400.72
790.427	378.19
790.607	419.15
790.788	404.82
790.969	351.57
791.15	415.05
791.331	490.83
791.512	421.2
791.693	300.37
791.874	347.47
792.054	337.23
792.235	347.47
792.416	351.57
792.597	355.66
792.778	380.24
792.958	324.94
793.139	400.72
793.32	339.28
793.5	304.46
793.681	386.38
793.862	335.18
794.042	347.47
794.223	333.14
794.404	326.99
794.584	300.37
794.765	318.8
794.945	302.42
795.126	331.09
795.306	341.33
795.487	333.14
795.667	290.13
795.848	306.51
796.028	302.42
796.209	243.03
796.389	339.28
796.57	404.82
796.75	251.22
796.93	263.51
797.111	281.94
797.291	294.22
797.471	288.08
797.652	347.47
797.832	251.22
798.012	286.03
798.192	281.94
798.373	232.79
798.553	281.94
798.733	345.42
798.913	298.32
799.093	288.08
799.274	275.79
799.454	292.18
799.634	290.13
799.814	361.81
799.994	294.22
800.174	351.57
800.354	208.21
800.534	249.17
800.714	298.32
800.894	257.36
801.074	206.16
801.254	222.55
801.434	228.69
801.614	314.7
801.794	220.5
801.974	798.03
802.154	187.73
802.334	232.79
802.514	234.83
802.693	171.35
802.873	208.21
803.053	265.55
803.233	214.35
803.413	191.83
803.592	245.07
803.772	245.07
803.952	249.17
804.131	273.75
804.311	271.7
804.491	236.88
804.67	228.69
804.85	191.83
805.03	329.04
805.209	257.36
805.389	220.5
805.568	263.51
805.748	183.63
805.928	220.5
806.107	152.91
806.287	191.83
806.466	267.6
806.646	249.17
806.825	226.64
807.004	183.63
807.184	114
807.363	283.98
807.543	218.45
807.722	257.36
807.901	275.79
808.081	183.63
808.26	95.57
808.439	177.49
808.619	177.49
808.798	181.59
808.977	224.59
809.156	218.45
809.336	185.68
809.515	142.68
809.694	152.91
809.873	249.17
810.052	175.44
810.231	247.12
810.411	179.54
810.59	165.2
810.769	148.82
810.948	232.79
811.127	122.2
811.306	159.06
811.485	175.44
811.664	169.3
811.843	171.35
812.022	169.3
812.201	142.68
812.38	277.84
812.559	95.57
812.737	200.02
812.916	163.15
813.095	144.72
813.274	152.91
813.453	259.41
813.632	218.45
813.811	177.49
813.989	193.87
814.168	150.87
814.347	165.2
814.526	167.25
814.704	154.96
814.883	146.77
815.062	142.68
815.24	173.39
815.419	130.39
815.598	167.25
815.776	134.48
815.955	150.87
816.133	132.44
816.312	148.82
816.49	126.29
816.669	122.2
816.847	195.92
817.026	85.33
817.204	183.63
817.383	101.72
817.561	136.53
817.74	204.11
817.918	60.76
818.097	122.2
818.275	167.25
818.453	195.92
818.632	134.48
818.81	134.48
818.988	159.06
819.167	142.68
819.345	126.29
819.523	103.76
819.701	165.2
819.879	87.38
820.058	120.15
820.236	175.44
820.414	124.24
820.592	120.15
820.77	183.63
820.948	85.33
821.127	152.91
821.305	44.37
821.483	122.2
821.661	101.72
821.839	105.81
822.017	114
822.195	150.87
822.373	136.53
822.551	187.73
822.729	109.91
822.907	85.33
823.085	40.28
823.262	103.76
823.44	52.56
823.618	30.04
823.796	128.34
823.974	124.24
824.152	142.68
824.329	60.76
824.507	68.95
824.685	101.72
824.863	126.29
825.04	136.53
825.218	118.1
825.396	124.24
825.574	87.38
825.751	122.2
825.929	126.29
826.107	150.87
826.284	169.3
826.462	159.06
826.639	89.43
826.817	19.8
826.994	134.48
827.172	60.76
827.349	136.53
827.527	38.23
827.704	146.77
827.882	134.48
828.059	85.33
828.237	87.38
828.414	204.11
828.591	68.95
828.769	68.95
828.946	34.13
829.124	60.76
829.301	124.24
829.478	36.18
829.655	64.85
829.833	68.95
830.01	103.76
830.187	68.95
830.364	36.18
830.542	85.33
830.719	128.34
830.896	128.34
831.073	56.66
831.25	128.34
831.427	93.52
831.604	128.34
831.782	56.66
831.959	95.57
832.136	118.1
832.313	42.32
832.49	93.52
832.667	130.39
832.844	109.91
833.021	50.52
833.198	52.56
833.374	134.48
833.551	99.67
833.728	27.99
833.905	114
834.082	-41.64
834.259	34.13
834.436	87.38
834.612	36.18
834.789	79.19
834.966	38.23
835.143	-21.16
835.319	56.66
835.496	126.29
835.673	97.62
835.85	54.61
836.026	40.28
836.203	36.18
836.38	101.72
836.556	-39.59
836.733	93.52
836.909	134.48
837.086	60.76
837.262	34.13
837.439	68.95
837.616	87.38
837.792	40.28
837.968	7.51
838.145	9.56
838.321	68.95
838.498	64.85
838.674	68.95
838.851	44.37
839.027	68.95
839.203	25.94
839.38	50.52
839.556	17.75
839.732	42.32
839.909	50.52
840.085	85.33
840.261	79.19
840.437	5.46
840.614	109.91
840.79	93.52
840.966	11.61
841.142	81.24
841.318	25.94
841.494	68.95
841.671	54.61
841.847	11.61
842.023	-17.07
842.199	79.19
842.375	109.91
842.551	38.23
842.727	32.08
842.903	38.23
843.079	-4.78
843.255	46.42
843.431	48.47
843.607	101.72
843.783	11.61
843.959	101.72
844.134	83.28
844.31	21.84
844.486	38.23
844.662	-35.5
844.838	17.75
845.013	68.95
845.189	91.48
845.365	95.57
845.541	36.18
845.716	87.38
845.892	19.8
846.068	52.56
846.244	44.37
846.419	71
846.595	52.56
846.77	89.43
846.946	81.24
847.122	46.42
847.297	71
847.473	36.18
847.648	-60.07
847.824	134.48
847.999	-8.87
848.175	1.37
848.35	38.23
848.526	58.71
848.701	56.66
848.876	48.47
849.052	38.23
849.227	-23.21
849.403	62.8
849.578	34.13
849.753	-17.07
849.929	-25.26
850.104	58.71
850.279	38.23
850.454	71
850.63	30.04
850.805	68.95
850.98	40.28
851.155	21.84
851.33	30.04
851.505	-10.92
851.681	54.61
851.856	-10.92
852.031	-86.7
852.206	73.04
852.381	71
852.556	-8.87
852.731	68.95
852.906	19.8
853.081	-21.16
853.256	52.56
853.431	27.99
853.606	50.52
853.781	48.47
853.956	44.37
854.131	27.99
854.305	36.18
854.48	60.76
854.655	-68.27
854.83	54.61
855.005	36.18
855.18	3.41
855.354	11.61
855.529	62.8
855.704	3.41
855.879	64.85
856.053	-43.69
856.228	38.23
856.403	30.04
856.577	-0.68
856.752	3.41
856.926	-4.78
857.101	11.61
857.276	27.99
857.45	19.8
857.625	3.41
857.799	23.89
857.974	44.37
858.148	3.41
858.323	36.18
858.497	44.37
858.672	-84.65
858.846	-23.21
859.02	-17.07
859.195	-10.92
859.369	-29.35
859.543	46.42
859.718	25.94
859.892	-35.5
860.066	7.51
860.241	-12.97
860.415	15.7
860.589	-45.74
860.763	27.99
860.938	105.81
861.112	68.95
861.286	19.8
861.46	27.99
861.634	-41.64
861.808	52.56
861.982	-6.83
862.157	23.89
862.331	-76.46
862.505	85.33
862.679	3.41
862.853	-27.31
863.027	-0.68
863.201	99.67
863.375	1.37
863.549	-21.16
863.722	-4.78
863.896	36.18
864.07	-10.92
864.244	46.42
864.418	-27.31
864.592	52.56
864.766	11.61
864.939	21.84
865.113	-27.31
865.287	105.81
865.461	-41.64
865.634	-62.12
865.808	11.61
865.982	48.47
866.156	11.61
866.329	-37.55
866.503	-23.21
866.676	68.95
866.85	15.7
867.024	-27.31
867.197	-29.35
867.371	68.95
867.544	17.75
867.718	-33.45
867.891	81.24
868.065	-55.98
868.238	21.84
868.412	85.33
868.585	1.37
868.759	-21.16
868.932	38.23
869.105	-53.93
869.279	-90.79
869.452	46.42
869.625	7.51
869.799	40.28
869.972	-4.78
870.145	52.56
870.319	3.41
870.492	-25.26
870.665	44.37
870.838	-12.97
871.011	-19.11
871.185	-0.68
871.358	40.28
871.531	52.56
871.704	3.41
871.877	58.71
872.05	40.28
872.223	1.37
872.396	77.14
872.569	46.42
872.742	30.04
872.915	-31.4
873.088	15.7
873.261	3.41
873.434	-2.73
873.607	-4.78
873.78	40.28
873.953	-10.92
874.126	7.51
874.299	-21.16
874.471	48.47
874.644	-45.74
874.817	-37.55
874.99	101.72
875.163	-58.03
875.335	52.56
875.508	-29.35
875.681	50.52
875.853	-82.6
876.026	75.09
876.199	-37.55
876.371	54.61
876.544	-58.03
876.717	-0.68
876.889	15.7
877.062	25.94
877.234	-21.16
877.407	60.76
877.579	46.42
877.752	44.37
877.924	32.08
878.097	93.52
878.269	21.84
878.442	30.04
878.614	85.33
878.786	-19.11
878.959	44.37
879.131	-6.83
879.303	-4.78
879.476	-55.98
879.648	85.33
879.82	-12.97
879.993	-19.11
880.165	27.99
880.337	-35.5
880.509	58.71
880.681	-19.11
880.854	-0.68
881.026	27.99
881.198	7.51
881.37	32.08
881.542	19.8
881.714	-17.07
881.886	-29.35
882.058	105.81
882.23	30.04
882.402	-4.78
882.574	46.42
882.746	5.46
882.918	30.04
883.09	-17.07
883.262	3.41
883.434	19.8
883.606	5.46
883.778	-0.68
883.95	32.08
884.122	7.51
884.293	-6.83
884.465	13.65
884.637	-0.68
884.809	-27.31
884.98	11.61
885.152	46.42
885.324	52.56
885.496	-29.35
885.667	-60.07
885.839	-12.97
886.011	32.08
886.182	30.04
886.354	48.47
886.525	-35.5
886.697	-12.97
886.869	-107.18
887.04	-10.92
887.212	-10.92
887.383	52.56
887.555	27.99
887.726	-12.97
887.897	-10.92
888.069	60.76
888.24	-29.35
888.412	19.8
888.583	-41.64
888.754	13.65
888.926	-29.35
889.097	36.18
889.268	-25.26
889.44	-41.64
889.611	-2.73
889.782	-4.78
889.953	-119.46
890.125	81.24
890.296	-27.31
890.467	-4.78
890.638	44.37
890.809	77.14
890.98	-17.07
891.151	3.41
891.323	11.61
891.494	-84.65
891.665	-8.87
891.836	40.28
892.007	38.23
892.178	5.46
892.349	11.61
892.52	-66.22
892.691	-21.16
892.862	-39.59
893.032	-19.11
893.203	-43.69
893.374	-17.07
893.545	-21.16
893.716	-64.17
893.887	7.51
894.057	-68.27
894.228	-45.74
894.399	9.56
894.57	71
894.74	21.84
894.911	77.14
895.082	44.37
895.253	-92.84
895.423	-10.92
895.594	-4.78
895.764	5.46
895.935	122.2
896.106	-33.45
896.276	36.18
896.447	-12.97
896.617	-51.88
896.788	-21.16
896.958	54.61
897.129	-21.16
897.299	-10.92
897.47	32.08
897.64	-21.16
897.81	-29.35
897.981	95.57
898.151	-70.31
898.322	23.89
898.492	1.37
898.662	52.56
898.832	-8.87
899.003	11.61
899.173	13.65
899.343	38.23
899.513	-58.03
