Data from USB4F104151__180__14-20-06-755.txt Node

Date: Thu Mar 13 14:20:06 EDT 2025
User: louis
Spectrometer: USB4F10415
Trigger mode: 4
Integration Time (sec): 2.000000E-2
Scans to average: 1
Electric dark correction enabled: true
Nonlinearity correction enabled: false
Boxcar width: 0
XAxis mode: Wavelengths
Number of Pixels in Spectrum: 3648
>>>>>Begin Spectral Data<<<<<
178.204	-25.77
178.424	-25.77
178.644	-25.77
178.864	-50.35
179.084	-46.25
179.304	-3.24
179.524	50
179.744	-60.59
179.964	64.34
180.184	17.24
180.404	-21.67
180.624	-17.58
180.844	25.43
181.064	-9.39
181.283	0.85
181.503	-29.87
181.723	-15.53
181.943	-64.68
182.163	64.34
182.383	68.44
182.602	123.73
182.822	113.49
183.042	17.24
183.262	113.49
183.482	47.96
183.701	90.96
183.921	52.05
184.141	39.76
184.361	144.21
184.58	62.29
184.8	113.49
185.02	68.44
185.239	115.54
185.459	45.91
185.679	56.15
185.898	64.34
186.118	105.3
186.338	58.2
186.557	113.49
186.777	31.57
186.997	25.43
187.216	72.53
187.436	113.49
187.655	90.96
187.875	146.26
188.095	68.44
188.314	54.1
188.534	121.68
188.753	56.15
188.973	88.92
189.192	131.92
189.412	80.72
189.631	33.62
189.851	58.2
190.07	47.96
190.29	121.68
190.509	25.43
190.729	117.59
190.948	97.11
191.168	191.31
191.387	88.92
191.607	39.76
191.826	60.24
192.045	50
192.265	105.3
192.484	35.67
192.704	82.77
192.923	13.14
193.142	127.83
193.362	58.2
193.581	113.49
193.8	80.72
194.02	146.26
194.239	31.57
194.458	78.68
194.678	88.92
194.897	86.87
195.116	17.24
195.335	31.57
195.555	111.44
195.774	80.72
195.993	146.26
196.212	99.16
196.432	80.72
196.651	80.72
196.87	56.15
197.089	172.88
197.308	84.82
197.528	105.3
197.747	17.24
197.966	-5.29
198.185	72.53
198.404	80.72
198.623	99.16
198.842	146.26
199.062	123.73
199.281	93.01
199.5	15.19
199.719	23.38
199.938	138.07
200.157	115.54
200.376	56.15
200.595	99.16
200.814	41.81
201.033	56.15
201.252	101.2
201.471	41.81
201.69	68.44
201.909	39.76
202.128	74.58
202.347	88.92
202.566	45.91
202.785	50
203.004	45.91
203.223	97.11
203.442	88.92
203.661	66.39
203.879	56.15
204.098	129.88
204.317	-3.24
204.536	107.35
204.755	64.34
204.974	99.16
205.193	-13.48
205.411	148.31
205.63	168.79
205.849	93.01
206.068	88.92
206.287	-17.58
206.505	97.11
206.724	78.68
206.943	31.57
207.162	41.81
207.381	43.86
207.599	-48.3
207.818	33.62
208.037	123.73
208.255	97.11
208.474	80.72
208.693	99.16
208.911	64.34
209.13	23.38
209.349	125.78
209.567	27.48
209.786	82.77
210.005	117.59
210.223	39.76
210.442	66.39
210.661	-23.72
210.879	78.68
211.098	84.82
211.316	25.43
211.535	101.2
211.753	64.34
211.972	170.83
212.191	31.57
212.409	50
212.628	101.2
212.846	115.54
213.065	113.49
213.283	131.92
213.502	74.58
213.72	97.11
213.938	111.44
214.157	58.2
214.375	82.77
214.594	41.81
214.812	66.39
215.031	56.15
215.249	50
215.467	121.68
215.686	84.82
215.904	93.01
216.122	105.3
216.341	88.92
216.559	97.11
216.778	131.92
216.996	123.73
217.214	72.53
217.432	39.76
217.651	33.62
217.869	70.48
218.087	146.26
218.306	58.2
218.524	97.11
218.742	93.01
218.96	125.78
219.179	80.72
219.397	86.87
219.615	72.53
219.833	97.11
220.051	86.87
220.27	43.86
220.488	58.2
220.706	113.49
220.924	101.2
221.142	82.77
221.36	158.55
221.578	64.34
221.796	9.05
222.015	109.4
222.233	111.44
222.451	113.49
222.669	-23.72
222.887	-1.19
223.105	82.77
223.323	64.34
223.541	60.24
223.759	60.24
223.977	58.2
224.195	129.88
224.413	105.3
224.631	50
224.849	47.96
225.067	45.91
225.285	17.24
225.503	64.34
225.721	13.14
225.939	7
226.157	54.1
226.375	88.92
226.592	-31.91
226.81	113.49
227.028	107.35
227.246	121.68
227.464	52.05
227.682	88.92
227.9	113.49
228.117	99.16
228.335	56.15
228.553	93.01
228.771	80.72
228.989	93.01
229.206	25.43
229.424	97.11
229.642	50
229.86	72.53
230.077	140.12
230.295	80.72
230.513	52.05
230.731	99.16
230.948	105.3
231.166	107.35
231.384	56.15
231.601	56.15
231.819	88.92
232.037	33.62
232.254	125.78
232.472	107.35
232.689	45.91
232.907	78.68
233.125	39.76
233.342	23.38
233.56	113.49
233.777	35.67
233.995	43.86
234.213	107.35
234.43	45.91
234.648	113.49
234.865	50
235.083	41.81
235.3	74.58
235.518	66.39
235.735	129.88
235.953	113.49
236.17	37.72
236.388	19.29
236.605	64.34
236.822	113.49
237.04	54.1
237.257	66.39
237.475	64.34
237.692	90.96
237.909	31.57
238.127	13.14
238.344	97.11
238.562	70.48
238.779	80.72
238.996	117.59
239.214	95.06
239.431	68.44
239.648	84.82
239.865	84.82
240.083	99.16
240.3	86.87
240.517	-3.24
240.735	15.19
240.952	72.53
241.169	80.72
241.386	58.2
241.603	74.58
241.821	74.58
242.038	164.69
242.255	88.92
242.472	25.43
242.689	154.45
242.907	99.16
243.124	13.14
243.341	119.64
243.558	56.15
243.775	23.38
243.992	-42.15
244.209	121.68
244.426	121.68
244.643	95.06
244.86	64.34
245.078	33.62
245.295	84.82
245.512	97.11
245.729	-9.39
245.946	74.58
246.163	60.24
246.38	19.29
246.597	84.82
246.814	47.96
247.031	99.16
247.248	23.38
247.464	107.35
247.681	-7.34
247.898	54.1
248.115	70.48
248.332	66.39
248.549	105.3
248.766	29.52
248.983	93.01
249.2	25.43
249.417	88.92
249.633	121.68
249.85	39.76
250.067	29.52
250.284	7
250.501	64.34
250.717	60.24
250.934	97.11
251.151	74.58
251.368	127.83
251.585	70.48
251.801	121.68
252.018	17.24
252.235	99.16
252.451	-23.72
252.668	84.82
252.885	62.29
253.102	37.72
253.318	80.72
253.535	15.19
253.752	88.92
253.968	25.43
254.185	0.85
254.401	39.76
254.618	31.57
254.835	111.44
255.051	62.29
255.268	60.24
255.484	119.64
255.701	52.05
255.917	103.25
256.134	35.67
256.351	58.2
256.567	13.14
256.784	105.3
257	0.85
257.217	121.68
257.433	70.48
257.65	39.76
257.866	52.05
258.082	70.48
258.299	33.62
258.515	97.11
258.732	105.3
258.948	121.68
259.165	29.52
259.381	64.34
259.597	103.25
259.814	95.06
260.03	97.11
260.246	64.34
260.463	66.39
260.679	105.3
260.895	72.53
261.112	121.68
261.328	72.53
261.544	35.67
261.761	121.68
261.977	70.48
262.193	21.33
262.409	25.43
262.626	142.16
262.842	52.05
263.058	56.15
263.274	113.49
263.49	39.76
263.707	50
263.923	35.67
264.139	58.2
264.355	50
264.571	97.11
264.787	47.96
265.004	82.77
265.22	66.39
265.436	23.38
265.652	-3.24
265.868	117.59
266.084	25.43
266.3	33.62
266.516	103.25
266.732	56.15
266.948	35.67
267.164	97.11
267.38	107.35
267.596	23.38
267.812	84.82
268.028	72.53
268.244	66.39
268.46	-1.19
268.676	88.92
268.892	64.34
269.108	58.2
269.324	23.38
269.54	47.96
269.756	121.68
269.972	41.81
270.188	82.77
270.403	117.59
270.619	123.73
270.835	109.4
271.051	21.33
271.267	52.05
271.483	25.43
271.698	74.58
271.914	2.9
272.13	-23.72
272.346	99.16
272.562	97.11
272.777	88.92
272.993	23.38
273.209	72.53
273.425	74.58
273.64	-7.34
273.856	121.68
274.072	56.15
274.287	101.2
274.503	97.11
274.719	99.16
274.934	88.92
275.15	7
275.366	41.81
275.581	72.53
275.797	11.09
276.012	70.48
276.228	113.49
276.444	31.57
276.659	78.68
276.875	35.67
277.09	31.57
277.306	11.09
277.521	144.21
277.737	90.96
277.952	138.07
278.168	52.05
278.383	52.05
278.599	99.16
278.814	226.13
279.03	15.19
279.245	78.68
279.461	43.86
279.676	121.68
279.892	31.57
280.107	66.39
280.322	41.81
280.538	76.63
280.753	43.86
280.969	27.48
281.184	9.05
281.399	-17.58
281.615	142.16
281.83	7
282.045	56.15
282.26	50
282.476	56.15
282.691	121.68
282.906	95.06
283.122	72.53
283.337	64.34
283.552	64.34
283.767	-1.19
283.983	117.59
284.198	82.77
284.413	23.38
284.628	90.96
284.843	64.34
285.058	-23.72
285.274	74.58
285.489	60.24
285.704	74.58
285.919	25.43
286.134	33.62
286.349	76.63
286.564	50
286.779	93.01
286.995	90.96
287.21	27.48
287.425	115.54
287.64	33.62
287.855	58.2
288.07	43.86
288.285	97.11
288.5	80.72
288.715	80.72
288.93	97.11
289.145	47.96
289.36	82.77
289.575	64.34
289.79	107.35
290.004	15.19
290.219	72.53
290.434	93.01
290.649	39.76
290.864	80.72
291.079	72.53
291.294	27.48
291.509	84.82
291.724	76.63
291.938	131.92
292.153	62.29
292.368	90.96
292.583	9.05
292.798	90.96
293.012	119.64
293.227	97.11
293.442	105.3
293.657	97.11
293.871	74.58
294.086	60.24
294.301	113.49
294.516	97.11
294.73	39.76
294.945	47.96
295.16	56.15
295.374	127.83
295.589	80.72
295.804	80.72
296.018	66.39
296.233	33.62
296.447	68.44
296.662	99.16
296.877	29.52
297.091	25.43
297.306	105.3
297.52	-17.58
297.735	50
297.949	129.88
298.164	138.07
298.378	37.72
298.593	60.24
298.807	129.88
299.022	4.95
299.236	113.49
299.451	70.48
299.665	15.19
299.88	119.64
300.094	41.81
300.309	7
300.523	88.92
300.737	62.29
300.952	52.05
301.166	68.44
301.381	88.92
301.595	82.77
301.809	41.81
302.024	41.81
302.238	113.49
302.452	76.63
302.667	113.49
302.881	113.49
303.095	146.26
303.309	90.96
303.524	9.05
303.738	109.4
303.952	93.01
304.166	109.4
304.381	9.05
304.595	84.82
304.809	154.45
305.023	45.91
305.237	43.86
305.452	64.34
305.666	25.43
305.88	105.3
306.094	84.82
306.308	84.82
306.522	88.92
306.736	35.67
306.95	76.63
307.164	4.95
307.379	111.44
307.593	115.54
307.807	60.24
308.021	72.53
308.235	23.38
308.449	0.85
308.663	0.85
308.877	86.87
309.091	97.11
309.305	74.58
309.519	56.15
309.733	86.87
309.947	80.72
310.161	119.64
310.374	78.68
310.588	93.01
310.802	86.87
311.016	136.02
311.23	84.82
311.444	43.86
311.658	80.72
311.872	64.34
312.085	99.16
312.299	113.49
312.513	101.2
312.727	64.34
312.941	37.72
313.154	105.3
313.368	72.53
313.582	11.09
313.796	88.92
314.009	45.91
314.223	170.83
314.437	25.43
314.651	117.59
314.864	117.59
315.078	117.59
315.292	60.24
315.505	31.57
315.719	101.2
315.933	107.35
316.146	121.68
316.36	21.33
316.573	64.34
316.787	115.54
317.001	21.33
317.214	31.57
317.428	101.2
317.641	-13.48
317.855	47.96
318.068	39.76
318.282	35.67
318.495	146.26
318.709	52.05
318.922	64.34
319.136	29.52
319.349	121.68
319.563	70.48
319.776	146.26
319.99	86.87
320.203	97.11
320.417	140.12
320.63	109.4
320.843	160.59
321.057	97.11
321.27	142.16
321.483	90.96
321.697	113.49
321.91	31.57
322.124	74.58
322.337	117.59
322.55	50
322.763	52.05
322.977	121.68
323.19	21.33
323.403	80.72
323.617	90.96
323.83	144.21
324.043	52.05
324.256	82.77
324.469	33.62
324.683	109.4
324.896	43.86
325.109	93.01
325.322	76.63
325.535	117.59
325.748	54.1
325.962	78.68
326.175	107.35
326.388	162.64
326.601	43.86
326.814	78.68
327.027	50
327.24	119.64
327.453	45.91
327.666	109.4
327.879	17.24
328.092	66.39
328.305	97.11
328.518	80.72
328.731	39.76
328.944	66.39
329.157	103.25
329.37	129.88
329.583	105.3
329.796	158.55
330.009	19.29
330.222	90.96
330.435	27.48
330.648	119.64
330.861	101.2
331.073	101.2
331.286	68.44
331.499	47.96
331.712	72.53
331.925	88.92
332.138	86.87
332.35	68.44
332.563	70.48
332.776	158.55
332.989	9.05
333.202	109.4
333.414	129.88
333.627	82.77
333.84	52.05
334.053	76.63
334.265	56.15
334.478	72.53
334.691	88.92
334.903	93.01
335.116	27.48
335.329	72.53
335.541	72.53
335.754	111.44
335.966	25.43
336.179	117.59
336.392	103.25
336.604	158.55
336.817	72.53
337.029	80.72
337.242	47.96
337.454	105.3
337.667	117.59
337.88	154.45
338.092	80.72
338.305	70.48
338.517	29.52
338.729	60.24
338.942	119.64
339.154	88.92
339.367	15.19
339.579	50
339.792	58.2
340.004	117.59
340.217	127.83
340.429	64.34
340.641	31.57
340.854	64.34
341.066	66.39
341.278	64.34
341.491	142.16
341.703	47.96
341.915	105.3
342.128	131.92
342.34	154.45
342.552	25.43
342.764	50
342.977	33.62
343.189	80.72
343.401	72.53
343.613	25.43
343.826	64.34
344.038	21.33
344.25	103.25
344.462	62.29
344.674	50
344.886	70.48
345.099	113.49
345.311	140.12
345.523	62.29
345.735	50
345.947	72.53
346.159	99.16
346.371	74.58
346.583	78.68
346.795	154.45
347.007	41.81
347.219	113.49
347.431	66.39
347.643	127.83
347.855	23.38
348.067	121.68
348.279	47.96
348.491	129.88
348.703	39.76
348.915	115.54
349.127	64.34
349.339	181.07
349.551	127.83
349.763	133.97
349.975	31.57
350.187	138.07
350.399	88.92
350.61	105.3
350.822	136.02
351.034	129.88
351.246	45.91
351.458	90.96
351.669	107.35
351.881	47.96
352.093	113.49
352.305	50
352.517	88.92
352.728	121.68
352.94	23.38
353.152	195.41
353.363	56.15
353.575	76.63
353.787	109.4
353.999	115.54
354.21	105.3
354.422	-25.77
354.633	41.81
354.845	41.81
355.057	7
355.268	84.82
355.48	117.59
355.692	17.24
355.903	47.96
356.115	146.26
356.326	-1.19
356.538	64.34
356.749	105.3
356.961	150.36
357.172	9.05
357.384	123.73
357.595	76.63
357.807	125.78
358.018	-17.58
358.23	66.39
358.441	107.35
358.653	66.39
358.864	68.44
359.075	68.44
359.287	23.38
359.498	172.88
359.709	93.01
359.921	123.73
360.132	131.92
360.344	72.53
360.555	27.48
360.766	99.16
360.977	82.77
361.189	78.68
361.4	129.88
361.611	80.72
361.823	99.16
362.034	142.16
362.245	105.3
362.456	109.4
362.667	84.82
362.879	99.16
363.09	68.44
363.301	97.11
363.512	41.81
363.723	39.76
363.935	15.19
364.146	142.16
364.357	60.24
364.568	52.05
364.779	54.1
364.99	115.54
365.201	88.92
365.412	103.25
365.623	47.96
365.834	72.53
366.045	64.34
366.256	74.58
366.467	66.39
366.678	58.2
366.889	27.48
367.1	72.53
367.311	125.78
367.522	17.24
367.733	74.58
367.944	113.49
368.155	88.92
368.366	93.01
368.577	70.48
368.788	113.49
368.999	23.38
369.209	90.96
369.42	97.11
369.631	131.92
369.842	60.24
370.053	138.07
370.264	138.07
370.474	82.77
370.685	33.62
370.896	115.54
371.107	88.92
371.317	107.35
371.528	27.48
371.739	115.54
371.95	95.06
372.16	88.92
372.371	66.39
372.582	113.49
372.792	140.12
373.003	80.72
373.214	154.45
373.424	105.3
373.635	150.36
373.846	129.88
374.056	146.26
374.267	97.11
374.477	121.68
374.688	127.83
374.898	84.82
375.109	140.12
375.319	121.68
375.53	113.49
375.74	35.67
375.951	76.63
376.161	74.58
376.372	140.12
376.582	121.68
376.793	125.78
377.003	66.39
377.214	56.15
377.424	58.2
377.635	103.25
377.845	64.34
378.055	123.73
378.266	41.81
378.476	64.34
378.686	37.72
378.897	27.48
379.107	179.03
379.317	142.16
379.528	82.77
379.738	142.16
379.948	109.4
380.158	86.87
380.369	187.22
380.579	43.86
380.789	123.73
380.999	58.2
381.21	133.97
381.42	88.92
381.63	27.48
381.84	97.11
382.05	140.12
382.261	64.34
382.471	154.45
382.681	76.63
382.891	191.31
383.101	72.53
383.311	33.62
383.521	93.01
383.731	78.68
383.941	131.92
384.151	125.78
384.361	115.54
384.571	70.48
384.781	123.73
384.991	101.2
385.201	93.01
385.411	117.59
385.621	74.58
385.831	37.72
386.041	164.69
386.251	86.87
386.461	105.3
386.671	33.62
386.881	88.92
387.091	84.82
387.301	74.58
387.511	35.67
387.72	121.68
387.93	123.73
388.14	41.81
388.35	76.63
388.56	129.88
388.769	109.4
388.979	31.57
389.189	101.2
389.399	95.06
389.609	115.54
389.818	101.2
390.028	105.3
390.238	150.36
390.447	76.63
390.657	115.54
390.867	80.72
391.076	125.78
391.286	127.83
391.496	164.69
391.705	170.83
391.915	74.58
392.125	125.78
392.334	144.21
392.544	125.78
392.753	105.3
392.963	27.48
393.172	105.3
393.382	133.97
393.591	136.02
393.801	31.57
394.01	129.88
394.22	187.22
394.429	105.3
394.639	97.11
394.848	82.77
395.058	82.77
395.267	129.88
395.477	213.84
395.686	154.45
395.895	158.55
396.105	232.27
396.314	129.88
396.524	193.36
396.733	68.44
396.942	138.07
397.152	121.68
397.361	170.83
397.57	117.59
397.78	146.26
397.989	140.12
398.198	234.32
398.407	136.02
398.617	185.17
398.826	101.2
399.035	172.88
399.244	174.93
399.453	121.68
399.663	146.26
399.872	185.17
400.081	187.22
400.29	123.73
400.499	170.83
400.708	154.45
400.917	131.92
401.127	162.64
401.336	222.03
401.545	203.6
401.754	230.23
401.963	205.65
402.172	187.22
402.381	105.3
402.59	119.64
402.799	187.22
403.008	213.84
403.217	213.84
403.426	121.68
403.635	207.7
403.844	250.71
404.053	140.12
404.262	201.55
404.471	222.03
404.68	119.64
404.888	205.65
405.097	252.75
405.306	219.99
405.515	181.07
405.724	195.41
405.933	228.18
406.142	211.79
406.35	273.23
406.559	301.9
406.768	158.55
406.977	211.79
407.185	271.19
407.394	187.22
407.603	277.33
407.812	306
408.02	269.14
408.229	271.19
408.438	297.81
408.646	262.99
408.855	269.14
409.064	371.54
409.272	289.62
409.481	383.82
409.69	260.95
409.898	318.29
410.107	357.2
410.315	402.26
410.524	426.83
410.733	342.86
410.941	336.72
411.15	475.98
411.358	443.21
411.567	449.36
411.775	449.36
411.984	445.26
412.192	531.28
412.401	498.51
412.609	539.47
412.818	600.91
413.026	574.28
413.234	633.68
413.443	615.24
413.651	592.72
413.86	598.86
414.068	693.07
414.276	676.68
414.485	762.7
414.693	768.84
414.901	809.8
415.11	742.22
415.318	811.85
415.526	750.41
415.734	914.25
415.943	879.43
416.151	854.86
416.359	973.64
416.567	944.97
416.776	1049.41
416.984	1092.42
417.192	1016.65
417.4	1055.56
417.608	1006.41
417.817	1110.85
418.025	1155.91
418.233	1243.97
418.441	1221.44
418.649	1299.27
418.857	1366.85
419.065	1436.48
419.273	1393.47
419.481	1467.2
419.689	1628.99
419.897	1612.6
420.105	1727.29
420.313	1764.15
420.521	1774.39
420.729	1868.6
420.937	1794.87
421.145	1927.99
421.353	1958.71
421.561	2065.21
421.769	2321.2
421.977	2308.91
422.185	2122.55
422.393	2218.8
422.601	2589.49
422.809	2442.03
423.017	2423.6
423.224	2526
423.432	2726.7
423.64	2757.42
423.848	2769.71
424.056	2743.08
424.263	3111.72
424.471	3013.42
424.679	3078.95
424.887	3355.43
425.094	3359.52
425.302	3377.95
425.51	3482.4
425.718	3719.96
425.925	3490.59
426.133	3826.46
426.341	4031.26
426.548	4152.09
426.756	4195.09
426.964	4307.73
427.171	4555.54
427.379	4520.72
427.586	4604.69
427.794	4768.52
428.001	4930.31
428.209	5176.07
428.417	5055.24
428.624	5452.55
428.832	5389.06
429.039	5470.98
429.247	5376.77
429.454	6048.51
429.662	6284.02
429.869	6036.22
430.076	6464.24
430.284	6152.95
430.491	6507.25
430.699	7049.96
430.906	6963.95
431.114	7045.87
431.321	7207.66
431.528	7389.92
431.736	7822.05
431.943	8094.43
432.15	7826.14
432.358	7965.4
432.565	8391.38
432.772	8368.85
432.979	8786.64
433.187	9018.06
433.394	8907.47
433.601	9622.21
433.808	9513.67
434.016	9552.58
434.223	10035.9
434.43	10418.87
434.637	10515.12
434.844	10967.73
435.052	11236.01
435.259	11223.72
435.466	11328.17
435.673	11156.14
435.88	11831.97
436.087	12561.05
436.294	12591.77
436.501	12090.01
436.708	12360.34
436.915	12903.06
437.122	13503.11
437.329	13490.82
437.537	14000.77
437.743	14074.49
437.95	13965.95
438.157	14629.49
438.364	15129.2
438.571	15102.57
438.778	15065.71
438.985	16491.1
439.192	15913.57
439.399	16411.23
439.606	16071.26
439.813	16904.79
440.02	17871.43
440.227	17611.34
440.433	17363.53
440.64	18086.47
440.847	18195.01
441.054	18555.45
441.261	19722.79
441.467	19122.74
441.674	19796.52
441.881	20564.51
442.088	20064.8
442.294	20402.72
442.501	20877.85
442.708	20931.09
442.914	21912.07
443.121	22901.24
443.328	22182.4
443.534	23634.41
443.741	23099.89
443.948	22594.04
444.154	24365.54
444.361	24429.02
444.568	24635.87
444.774	24832.47
444.981	24719.84
445.187	25465.3
445.394	26724.8
445.6	25856.46
445.807	28733.85
446.013	27408.82
446.22	27892.14
446.426	29133.21
446.633	29477.27
446.839	30417.29
447.046	28981.66
447.252	30794.11
447.459	30589.31
447.665	30300.55
447.871	31672.69
448.078	32749.92
448.284	31529.33
448.491	32622.95
448.697	33954.13
448.903	34369.86
449.11	34120.01
449.316	33804.63
449.522	34363.72
449.728	35408.19
449.935	35402.04
450.141	35672.37
450.347	36278.57
450.553	35189.05
450.76	35787.06
450.966	37103.9
451.172	36434.22
451.378	37275.93
451.584	36538.66
451.791	37499.16
451.997	37198.11
452.203	38072.59
452.409	38222.09
452.615	38285.58
452.821	36438.31
453.027	35883.31
453.233	37892.37
453.44	36538.66
453.646	36899.11
453.852	37202.21
454.058	37884.18
454.264	36378.92
454.47	37253.4
454.676	36057.39
454.882	37460.25
455.088	34486.6
455.294	34914.62
455.5	35326.27
455.705	36057.39
455.911	34392.39
456.117	33943.89
456.323	33276.25
456.529	31324.54
456.735	33153.37
456.941	32395.62
457.147	31768.94
457.352	30892.41
457.558	30345.61
457.764	30687.62
457.97	29915.53
458.176	29157.78
458.381	29200.79
458.587	28051.88
458.793	28115.37
458.999	26335.68
459.204	28279.21
459.41	27523.51
459.616	25797.07
459.821	26261.96
460.027	25680.33
460.233	25309.65
460.438	23849.45
460.644	24041.96
460.85	23194.1
461.055	23022.07
461.261	22649.34
461.466	20982.29
461.672	20505.12
461.878	21860.87
462.083	20247.07
462.289	20339.23
462.494	19978.79
462.7	19006
462.905	18514.49
463.111	19288.62
463.316	19184.18
463.522	18868.79
463.727	18936.37
463.932	18326.08
464.138	18543.16
464.343	18758.2
464.549	17916.48
464.754	18926.13
464.959	18530.87
465.165	18199.1
465.37	17588.81
465.575	17023.57
465.781	18018.88
465.986	17945.16
466.191	16962.13
466.397	16884.31
466.602	15893.09
466.807	16419.42
467.012	16663.13
467.218	16575.06
467.423	16333.4
467.628	16329.31
467.833	17246.8
468.038	16585.3
468.244	16282.2
468.449	16747.09
468.654	16204.38
468.859	16073.31
469.064	15860.32
469.269	15362.67
469.474	15452.78
469.679	15868.52
469.885	15395.43
470.09	15481.45
470.295	15204.97
470.5	14991.98
470.705	15022.7
470.91	14828.15
471.115	14670.45
471.32	14865.01
471.525	14699.13
471.73	14148.22
471.935	14295.68
472.139	13992.58
472.344	14023.3
472.549	13849.22
472.754	13902.47
472.959	13511.3
473.164	13122.19
473.369	13482.63
473.574	13472.39
473.778	13429.38
473.983	13259.4
474.188	13228.68
474.393	12616.34
474.598	12665.49
474.802	12561.05
475.007	12417.69
475.212	12638.87
475.417	12118.68
475.621	12253.85
475.826	12253.85
476.031	11956.89
476.235	11594.4
476.44	11924.13
476.645	11492.01
476.849	11559.59
477.054	11434.66
477.259	11362.98
477.463	11197.1
477.668	11074.22
477.872	11270.83
478.077	10967.73
478.282	10693.3
478.486	10640.05
478.691	10470.07
478.895	10240.7
479.1	10527.41
479.304	10427.06
479.509	10117.82
479.713	10425.01
479.918	10091.2
480.122	10089.15
480.326	10115.77
480.531	10373.82
480.735	9960.13
480.94	10001.08
481.144	10252.98
481.348	9937.6
481.553	9927.36
481.757	9607.87
481.961	9831.1
482.166	10123.96
482.37	9880.25
482.574	9648.83
482.778	9861.82
482.983	9812.67
483.187	9806.53
483.391	9749.18
483.595	9716.42
483.8	9456.33
484.004	9681.6
484.208	9800.38
484.412	9681.6
484.616	9751.23
484.821	9710.27
485.025	9284.3
485.229	9599.68
485.433	9626.31
485.637	9652.93
485.841	9265.86
486.045	9345.73
486.249	9468.61
486.453	9501.38
486.657	9624.26
486.861	9646.79
487.065	9331.4
487.269	9652.93
487.473	9239.24
487.677	9718.47
487.881	9784
488.085	9464.52
488.289	9779.9
488.493	9558.72
488.697	9700.03
488.901	9820.86
489.105	9507.52
489.309	9738.94
489.512	9927.36
489.716	9738.94
489.92	9673.41
490.124	9648.83
490.328	9906.88
490.531	9650.88
490.735	9908.93
490.939	9712.32
491.143	9910.97
491.346	10005.18
491.55	10109.63
491.754	10085.05
491.958	10160.83
492.161	10111.68
492.365	10207.93
492.569	10115.77
492.772	10158.78
492.976	10369.72
493.18	10171.07
493.383	10236.6
493.587	10658.48
493.79	10627.76
493.994	10607.28
494.197	10629.81
494.401	10539.7
494.605	10470.07
494.808	10838.7
495.012	10861.23
495.215	11027.12
495.419	10926.77
495.622	10896.05
495.825	11186.86
496.029	11068.08
496.232	11076.27
496.436	11520.68
496.639	11666.08
496.843	11444.9
497.046	11778.72
497.249	11874.98
497.453	11995.81
497.656	11983.52
497.859	11938.46
498.063	12034.72
498.266	12563.09
498.469	12374.68
498.673	12532.37
498.876	12886.67
499.079	12720.79
499.282	12806.8
499.485	13089.42
499.689	13126.29
499.892	13249.16
500.095	13388.43
500.298	13777.54
500.501	13548.17
500.705	13904.51
500.908	14029.44
501.111	14353.02
501.314	14236.28
501.517	14418.55
501.72	14692.98
501.923	14643.83
502.126	15022.7
502.329	15032.94
502.532	15141.49
502.735	15460.97
502.938	15776.36
503.141	15669.86
503.344	15780.45
503.547	15991.39
503.75	16269.92
503.953	16437.85
504.156	16646.74
504.359	16718.42
504.562	16642.65
504.765	17109.58
504.968	17488.46
505.17	17650.25
505.373	17498.7
505.576	17726.02
505.779	17836.61
505.982	18197.06
506.185	18496.06
506.387	18543.16
506.59	18774.58
506.793	18926.13
506.996	18885.17
507.198	19548.72
507.401	19223.09
507.604	19814.95
507.807	20101.67
508.009	19941.93
508.212	20036.13
508.415	20417.05
508.617	20355.61
508.82	20550.17
509.022	20630.04
509.225	21064.21
509.428	21131.79
509.63	21570.06
509.833	21555.72
510.035	22346.24
510.238	21987.85
510.44	22333.95
510.643	22972.92
510.845	22968.82
511.048	22600.19
511.25	23233.01
511.453	23509.49
511.655	24046.05
511.858	23767.53
512.06	23992.81
512.262	24412.64
512.465	24181.22
512.667	24549.85
512.87	24855
513.072	24832.47
513.274	25471.44
513.477	25735.63
513.679	25860.55
513.881	25999.82
514.084	26331.59
514.286	26567.1
514.488	26761.66
514.69	27083.19
514.893	27384.24
515.095	27382.2
515.297	28037.55
515.499	27605.42
515.701	28254.63
515.904	28379.56
516.106	28621.22
516.308	29053.34
516.51	29161.88
516.712	29061.53
516.914	29307.29
517.116	29647.25
517.318	29995.4
517.52	30278.02
517.722	30179.72
517.925	30753.15
518.127	31164.79
518.329	31281.53
518.531	31046.01
518.733	31658.35
518.935	31957.36
519.136	31744.37
519.338	32168.3
519.54	32543.08
519.742	32805.22
519.944	32844.13
520.146	33433.94
520.348	33679.7
520.55	33511.77
520.752	33634.64
520.954	34302.28
521.155	34146.64
521.357	34707.78
521.559	35078.46
521.761	35144
521.963	35584.31
522.164	35565.88
522.366	35647.8
522.568	36010.29
522.77	36393.26
522.971	36462.89
523.173	36020.53
523.375	36733.22
523.576	36747.56
523.778	36778.28
523.98	37468.44
524.181	37212.45
524.383	37413.15
524.584	38140.18
524.786	38220.05
524.988	37882.13
525.189	38451.47
525.391	38181.13
525.592	38975.75
525.794	38752.52
525.995	38488.33
526.197	38711.56
526.398	39031.04
526.6	39342.33
526.801	39573.75
527.003	39418.11
527.204	39583.99
527.406	39784.69
527.607	39956.72
527.808	40351.98
528.01	39878.9
528.211	40118.51
528.412	41015.52
528.614	40259.82
528.815	40270.06
529.016	41076.96
529.218	40521.96
529.419	40591.59
529.62	40915.17
529.822	40853.73
530.023	40800.49
530.224	40919.27
530.425	40997.09
530.626	40290.54
530.828	40466.67
531.029	41910.49
531.23	40823.01
531.431	40986.85
531.632	41046.24
531.833	41261.28
532.035	41208.03
532.236	41500.89
532.437	41511.13
532.638	41109.73
532.839	41582.81
533.04	41375.97
533.241	41212.13
533.442	42068.18
533.643	41677.02
533.844	41496.8
534.045	41576.67
534.246	41431.26
534.447	41760.98
534.648	41117.92
534.849	41740.5
535.05	41380.06
535.251	41341.15
535.451	41492.7
535.652	41799.9
535.853	41193.7
536.054	41818.33
536.255	41955.54
536.456	41347.29
536.657	41660.63
536.857	41330.91
537.058	41208.03
537.259	41920.73
537.46	42176.72
537.66	41767.13
537.861	41582.81
538.062	41398.49
538.263	42070.23
538.463	41666.78
538.664	41431.26
538.865	41484.51
539.065	41806.04
539.266	41404.64
539.466	42012.88
539.667	41384.16
539.868	42131.67
540.068	41668.83
540.269	41248.99
540.469	41642.2
540.67	41234.66
540.87	41533.66
541.071	41574.62
541.271	41390.3
541.472	41302.24
541.672	41216.22
541.873	41083.11
542.073	41007.33
542.274	41687.26
542.474	41173.22
542.675	40892.65
542.875	41410.78
543.075	41232.61
543.276	40532.2
543.476	41390.3
543.676	40958.18
543.877	41302.24
544.077	41312.48
544.277	40972.52
544.478	41025.76
544.678	41320.67
544.878	40782.06
545.078	40962.28
545.279	40902.89
545.479	41083.11
545.679	40847.59
545.879	41341.15
546.079	41093.35
546.28	41068.77
546.48	40859.88
546.68	41353.44
546.88	41054.43
547.08	41079.01
547.28	40956.13
547.48	40759.53
547.68	40995.04
547.88	40661.22
548.081	41218.27
548.281	41013.48
548.481	40593.64
548.681	40966.37
548.881	40861.93
549.081	40853.73
549.28	40831.21
549.48	40780.01
549.68	40446.19
549.88	41367.77
550.08	40405.23
550.28	40698.09
550.48	40780.01
550.68	40962.28
550.88	40706.28
551.08	40818.92
551.279	40712.42
551.479	40751.34
551.679	40702.18
551.879	40478.96
552.079	40601.83
552.278	40595.69
552.478	40823.01
552.678	40438
552.878	40927.46
553.077	40294.64
553.277	40388.85
553.477	40687.85
553.676	40321.26
553.876	40384.75
554.076	40196.34
554.275	40501.48
554.475	39835.89
554.674	40503.53
554.874	40298.73
555.074	40124.66
555.273	40108.27
555.473	40503.53
555.672	39948.53
555.872	40202.48
556.071	40192.24
556.271	40564.97
556.47	40145.14
556.67	39510.27
556.869	39803.13
557.068	40513.77
557.268	39569.66
557.467	39940.34
557.667	39727.35
557.866	39641.34
558.065	39977.2
558.265	39700.73
558.464	39663.86
558.663	40089.84
558.863	39454.97
559.062	39942.39
559.261	39624.95
559.461	39889.14
559.66	39184.64
559.859	39667.96
560.058	39401.72
560.258	39579.9
560.457	39346.43
560.656	39350.52
560.855	39454.97
561.054	39176.45
561.253	38899.97
561.453	38990.08
561.652	39018.75
561.851	39528.7
562.05	38703.37
562.249	38736.13
562.448	39160.06
562.647	39047.43
562.846	38742.28
563.045	38887.68
563.244	38482.19
563.443	38990.08
563.642	38209.81
563.841	38734.09
564.04	38140.18
564.239	38744.33
564.438	38244.62
564.637	38349.07
564.836	38207.76
565.035	38267.15
565.234	38635.78
565.432	38367.5
565.631	37832.98
565.83	38113.55
566.029	37828.88
566.228	37441.82
566.427	37640.47
566.625	37253.4
566.824	37249.31
567.023	37695.77
567.222	37079.33
567.42	37820.69
567.619	37353.76
567.818	37097.76
568.016	37284.12
568.215	37658.9
568.414	37093.66
568.612	37019.94
568.811	36862.24
569.01	37208.35
569.208	36555.05
569.407	37034.27
569.605	36434.22
569.804	36747.56
570.002	36284.72
570.201	36555.05
570.4	36483.37
570.598	36270.38
570.797	36112.69
570.995	36047.15
571.193	36198.7
571.392	36217.13
571.59	35877.17
571.789	35834.16
571.987	36022.58
572.186	36106.54
572.384	35381.56
572.582	35819.83
572.781	35961.14
572.979	35035.45
573.177	35254.59
573.376	35326.27
573.574	34853.19
573.772	34974.02
573.971	34996.54
574.169	34335.05
574.367	34957.63
574.565	35299.64
574.763	34515.27
574.962	35037.5
575.16	34531.65
575.358	35000.64
575.556	34140.49
575.754	34900.29
575.952	34132.3
576.151	34410.82
576.349	33835.35
576.547	34259.27
576.745	33945.94
576.943	33952.08
577.141	33892.69
577.339	33790.29
577.537	33474.9
577.735	33702.23
577.933	33517.91
578.131	33556.82
578.329	33528.15
578.527	33339.74
578.725	33204.57
578.923	33573.21
579.121	33077.6
579.319	33012.06
579.516	32942.43
579.714	32862.56
579.912	32770.4
580.11	32649.57
580.308	33014.11
580.506	32803.17
580.704	32291.18
580.901	32627.04
581.099	32532.84
581.297	32356.71
581.495	32012.65
581.692	32172.39
581.89	32168.3
582.088	32438.63
582.285	32145.77
582.483	32233.83
582.681	32139.63
582.878	32250.22
583.076	31115.64
583.274	31539.57
583.471	31519.09
583.669	31326.58
583.866	31058.3
584.064	31787.38
584.262	30955.9
584.459	31259
584.657	30833.02
584.854	31336.82
585.052	30962.04
585.249	30847.36
585.447	30878.08
585.644	30501.25
585.841	30708.1
586.039	30777.73
586.236	30075.27
586.434	30536.07
586.631	30208.39
586.828	30183.82
587.026	30486.92
587.223	30419.33
587.42	29682.06
587.618	29878.67
587.815	29718.93
588.012	29493.65
588.21	29675.92
588.407	30022.03
588.604	29448.6
588.801	29145.5
588.999	29467.03
589.196	29241.75
589.393	29368.73
589.59	29067.67
589.787	29299.09
589.984	28871.07
590.182	28944.8
590.379	28983.71
590.576	28469.67
590.773	28443.04
590.97	28588.45
591.167	28653.98
591.364	28232.1
591.561	28428.71
591.758	28000.68
591.955	28215.72
592.152	28338.6
592.349	27806.13
592.546	28035.5
592.743	27785.65
592.94	27505.07
593.137	27806.13
593.334	27961.77
593.531	27396.53
593.727	27779.5
593.924	27625.9
594.121	27408.82
594.318	27470.26
594.515	27040.18
594.712	27230.65
594.908	26827.2
595.105	27083.19
595.302	27031.99
595.499	27017.66
595.696	26909.11
595.892	26487.23
596.089	26878.4
596.286	26669.5
596.482	26409.41
596.679	26476.99
596.876	26657.21
597.072	26634.69
597.269	26286.53
597.466	25835.98
597.662	26382.79
597.859	25766.35
598.055	26116.55
598.252	25688.53
598.448	25649.61
598.645	25774.54
598.841	25485.78
599.038	25491.92
599.234	25436.63
599.431	25229.78
599.627	25446.87
599.824	25172.44
600.02	25024.98
600.217	25528.78
600.413	24977.88
600.609	24809.95
600.806	24816.09
601.002	25133.53
601.198	24658.4
601.395	24766.94
601.591	24420.83
601.787	24543.71
601.984	24340.96
602.18	24887.77
602.376	24414.69
602.572	24111.59
602.769	24332.77
602.965	24046.05
603.161	23892.46
603.357	24048.1
603.553	23812.59
603.75	23988.71
603.946	23841.26
604.142	24044.01
604.338	23521.77
604.534	23628.27
604.73	23366.13
604.926	23501.29
605.122	23396.85
605.318	23333.36
605.514	23314.93
605.71	23284.21
605.906	23052.79
606.102	23071.22
606.298	23165.43
606.494	22950.39
606.69	23022.07
606.886	22835.7
607.082	22393.34
607.278	22882.81
607.474	22583.8
607.67	22835.7
607.866	22686.2
608.062	22714.87
608.257	22546.94
608.453	22772.22
608.649	22604.28
608.845	22548.99
609.041	22157.83
609.236	22139.4
609.432	22270.47
609.628	22235.65
609.824	22100.48
610.019	22028.81
610.215	22069.76
610.411	22143.49
610.606	21928.45
610.802	21963.27
610.998	21760.52
611.193	21998.09
611.389	21701.13
611.584	21731.85
611.78	21742.09
611.976	21895.69
612.171	21756.43
612.367	21713.42
612.562	21539.34
612.758	21318.16
612.953	21422.61
613.149	21529.1
613.344	21017.11
613.539	21299.73
613.735	21369.36
613.93	21502.48
614.126	21242.39
614.321	21561.87
614.517	21453.33
614.712	21019.16
614.907	21096.98
615.103	21172.75
615.298	21035.54
615.493	21142.03
615.688	20955.67
615.884	21213.71
616.079	20785.69
616.274	20707.87
616.47	20578.84
616.665	20748.82
616.86	20701.72
617.055	20595.23
617.25	20511.26
617.445	20693.53
617.641	20349.47
617.836	20828.7
618.031	20146.72
618.226	20355.61
618.421	20423.2
618.616	20372
618.811	19876.39
619.006	20068.9
619.201	19896.87
619.396	20023.84
619.591	19761.7
619.786	19946.02
619.981	19636.78
620.176	19968.55
620.371	19577.39
620.566	19499.56
620.761	19636.78
620.956	19386.93
621.151	19132.98
621.346	19122.74
621.541	18879.03
621.735	18983.48
621.93	19096.11
622.125	18653.75
622.32	18661.94
622.515	18551.35
622.709	18494.01
622.904	18539.07
623.099	18002.5
623.294	18203.2
623.488	17957.44
623.683	18260.54
623.878	17850.95
624.072	17939.01
624.267	17676.87
624.462	17668.68
624.656	17490.51
624.851	17463.88
625.046	17429.07
625.24	17214.03
625.435	17123.92
625.629	17457.74
625.824	17130.06
626.018	16996.95
626.213	16626.26
626.407	16837.2
626.602	16511.58
626.796	16851.54
626.991	16618.07
627.185	16663.13
627.38	16398.94
627.574	16380.51
627.768	16280.16
627.963	16128.61
628.157	16067.17
628.352	16249.44
628.546	15684.2
628.74	15848.04
628.935	15637.09
629.129	15673.96
629.323	15356.52
629.517	15358.57
629.712	15385.19
629.906	15313.52
630.1	15061.62
630.294	15362.67
630.489	14828.15
630.683	14959.22
630.877	14860.91
631.071	14594.68
631.265	15006.32
631.459	14762.61
631.653	14508.66
631.848	14611.06
632.042	14383.74
632.236	14479.99
632.43	14148.22
632.624	14199.42
632.818	14297.72
633.012	14117.5
633.206	14000.77
633.4	14000.77
633.594	13920.9
633.788	13822.59
633.982	13965.95
634.176	13785.73
634.369	13558.41
634.563	13441.67
634.757	13638.28
634.951	13384.33
635.145	13703.81
635.339	13451.91
635.533	13097.61
635.726	13130.38
635.92	12982.93
636.114	13048.46
636.308	12913.3
636.501	12929.68
636.695	12741.27
636.889	12784.27
637.083	12700.31
637.276	12561.05
637.47	12511.89
637.664	12384.92
637.857	12659.35
638.051	12329.63
638.244	12221.08
638.438	11905.7
638.632	12343.96
638.825	12366.49
639.019	12024.48
639.212	11821.73
639.406	11737.76
639.599	11938.46
639.793	11788.96
639.986	11686.56
640.18	11616.93
640.373	11649.7
640.567	11532.97
640.76	11545.25
640.954	11344.55
641.147	11567.78
641.34	11242.15
641.534	11319.98
641.727	11090.6
641.92	11152.04
642.114	11119.28
642.307	11092.65
642.5	10961.58
642.694	10830.51
642.887	10912.43
643.08	10773.17
643.273	10738.35
643.467	10744.5
643.66	10664.63
643.853	10478.26
644.046	10353.34
644.239	10529.46
644.432	10320.57
644.626	10349.24
644.819	10277.56
645.012	10121.91
645.205	10218.17
645.398	10097.34
645.591	10162.87
645.784	10050.24
645.977	9972.41
646.17	10021.56
646.363	9738.94
646.556	9732.8
646.749	9693.89
646.942	9802.43
647.135	9634.5
647.328	9681.6
647.521	9575.11
647.714	9407.17
647.907	9716.42
648.099	9388.74
648.292	9587.4
648.485	9339.59
648.678	9394.89
648.871	9290.44
649.064	9411.27
649.256	9196.23
649.449	9214.66
649.642	9118.41
649.835	9118.41
650.027	8714.96
650.22	8968.91
650.413	8768.21
650.605	8846.03
650.798	8657.62
650.991	8698.58
651.183	8653.52
651.376	8571.6
651.568	8555.22
651.761	8565.46
651.954	8684.24
652.146	8469.2
652.339	8383.19
652.531	8403.67
652.724	8391.38
652.916	8239.83
653.109	8264.41
653.301	8438.48
653.494	8239.83
653.686	8243.93
653.879	8176.34
654.071	8223.45
654.263	8045.27
654.456	7869.15
654.648	7787.23
654.84	7813.85
655.033	7822.05
655.225	7760.61
655.417	7625.44
655.61	7756.51
655.802	7791.33
655.994	7447.27
656.186	7781.09
656.379	7619.3
656.571	7549.67
656.763	7480.04
656.955	7398.12
657.148	7437.03
657.34	7404.26
657.532	7428.84
657.724	7176.94
657.916	7449.32
658.108	7004.91
658.3	7246.57
658.492	7371.49
658.684	7060.2
658.876	6929.13
659.068	6986.47
659.26	6980.33
659.452	7092.97
659.644	7019.24
659.836	6859.5
660.028	6953.71
660.22	6748.91
660.412	6879.98
660.604	6773.49
660.796	6738.67
660.988	6683.38
661.18	6474.48
661.372	6644.46
661.563	6781.68
661.755	6548.21
661.947	6697.71
662.139	6421.24
662.331	6568.69
662.522	6411
662.714	6296.31
662.906	6322.93
663.097	6322.93
663.289	6265.59
663.481	6284.02
663.673	6277.88
663.864	6103.8
664.056	6109.94
664.247	6077.18
664.439	5948.15
664.631	6111.99
664.822	6206.2
665.014	6146.81
665.205	6040.31
665.397	5939.96
665.588	5970.68
665.78	6025.98
665.971	5993.21
666.163	5782.27
666.354	5901.05
666.546	5647.1
666.737	5956.35
666.929	5980.92
667.12	5823.23
667.311	5651.2
667.503	5604.1
667.694	5675.77
667.885	5511.94
668.077	5659.39
668.268	5577.47
668.459	5477.12
668.651	5606.14
668.842	5571.33
669.033	5389.06
669.224	5468.93
669.416	5475.07
669.607	5290.76
669.798	5231.37
669.989	5419.78
670.18	5317.38
670.371	5362.44
670.563	5356.29
670.754	5374.72
670.945	5106.44
671.136	5192.45
671.327	5176.07
671.518	5241.61
671.709	5163.78
671.9	5094.15
672.091	5212.93
672.282	5096.2
672.473	4920.07
672.664	5167.88
672.855	5063.43
673.046	5151.49
673.237	5092.1
673.428	5055.24
673.619	4987.66
673.809	5040.9
674	4870.92
674.191	4954.89
674.382	4918.03
674.573	4958.99
674.764	4807.44
674.954	4973.32
675.145	4809.48
675.336	4825.87
675.527	4938.51
675.717	4832.01
675.908	4555.54
676.099	4760.33
676.289	4784.91
676.48	4743.95
676.671	4655.89
676.861	4682.51
677.052	4616.97
677.243	4690.7
677.433	4580.11
677.624	4614.93
677.814	4543.25
678.005	4653.84
678.195	4494.1
678.386	4498.19
678.576	4506.38
678.767	4446.99
678.957	4479.76
679.148	4508.43
679.338	4528.91
679.529	4414.23
679.719	4537.1
679.909	4547.34
680.1	4352.79
680.29	4336.4
680.481	4375.31
680.671	4399.89
680.861	4385.55
681.052	4350.74
681.242	4367.12
681.432	4403.99
681.622	4258.58
681.813	4358.93
682.003	4279.06
682.193	4324.12
682.383	4340.5
682.573	4311.83
682.764	4385.55
682.954	4162.33
683.144	4385.55
683.334	4205.33
683.524	4182.81
683.714	4238.1
683.904	4186.9
684.094	4111.13
684.284	4070.17
684.474	4051.74
684.664	4184.85
684.854	4111.13
685.044	4150.04
685.234	4104.98
685.424	4068.12
685.614	4014.87
685.804	3982.1
685.994	4000.54
686.184	4037.4
686.374	3990.3
686.564	3996.44
686.753	3914.52
686.943	3957.53
687.133	3957.53
687.323	4041.5
687.513	3963.67
687.702	3701.53
687.892	3887.9
688.082	4029.21
688.272	3930.91
688.461	3750.68
688.651	3965.72
688.841	3717.92
689.03	3771.16
689.22	3834.65
689.41	3834.65
689.599	3797.79
689.789	3752.73
689.979	3816.22
690.168	3631.9
690.358	3656.48
690.547	3656.48
690.737	3750.68
690.926	3605.28
691.116	3631.9
691.305	3644.19
691.495	3601.18
691.684	3580.7
691.874	3474.21
692.063	3439.39
692.252	3586.85
692.442	3517.22
692.631	3595.04
692.82	3433.25
693.01	3316.51
693.199	3443.49
693.388	3228.45
693.578	3492.64
693.767	3382.05
693.956	3470.11
694.146	3267.36
694.335	3365.67
694.524	3259.17
694.713	3277.6
694.902	3287.84
695.092	3259.17
695.281	3343.14
695.47	3169.06
695.659	3281.7
695.848	3179.3
696.037	3222.31
696.226	3187.49
696.415	3119.91
696.604	3222.31
696.793	3285.8
696.982	3277.6
697.171	3181.35
697.36	3081
697.549	3197.73
697.738	3091.24
697.927	3148.58
698.116	3148.58
698.305	3156.77
698.494	3095.33
698.683	3083.05
698.872	3111.72
699.061	2992.94
699.25	3162.92
699.438	3140.39
699.627	3099.43
699.816	3062.57
700.005	2982.7
700.193	3042.09
700.382	3162.92
700.571	3076.9
700.76	3128.1
700.948	3083.05
701.137	3072.81
701.326	3054.37
701.514	3046.18
701.703	3017.51
701.892	3068.71
702.08	3097.38
702.269	3019.56
702.457	2968.36
702.646	2890.54
702.834	2958.12
703.023	3054.37
703.212	2886.44
703.4	2865.96
703.589	3013.42
703.777	3007.27
703.965	2939.69
704.154	2882.35
704.342	2941.74
704.531	2921.26
704.719	2980.65
704.907	3025.7
705.096	2923.3
705.284	2855.72
705.472	2974.5
705.661	2865.96
705.849	2939.69
706.037	2747.18
706.226	2917.16
706.414	2800.43
706.602	2745.13
706.79	2816.81
706.979	2745.13
707.167	2890.54
707.355	2857.77
707.543	2816.81
707.731	2892.59
707.919	2870.06
708.107	2751.28
708.296	2812.71
708.484	2736.94
708.672	2847.53
708.86	2685.74
709.048	2837.29
709.236	2868.01
709.424	2863.91
709.612	2810.67
709.8	2784.04
709.988	2892.59
710.176	2779.95
710.364	2775.85
710.551	2759.47
710.739	2722.6
710.927	2745.13
711.115	2693.93
711.303	2779.95
711.491	2638.64
711.679	2636.59
711.866	2775.85
712.054	2673.45
712.242	2628.4
712.43	2812.71
712.617	2816.81
712.805	2718.51
712.993	2751.28
713.181	2681.64
713.368	2673.45
713.556	2757.42
713.744	2640.69
713.931	2747.18
714.119	2644.78
714.306	2652.97
714.494	2661.16
714.682	2679.6
714.869	2722.6
715.057	2724.65
715.244	2548.53
715.432	2695.98
715.619	2722.6
715.807	2685.74
715.994	2657.07
716.182	2693.93
716.369	2706.22
716.556	2667.31
716.744	2677.55
716.931	2685.74
717.119	2634.54
717.306	2581.29
717.493	2710.32
717.681	2587.44
717.868	2556.72
718.055	2669.36
718.242	2691.88
718.43	2571.05
718.617	2681.64
718.804	2579.25
718.991	2620.21
719.179	2708.27
719.366	2718.51
719.553	2583.34
719.74	2599.73
719.927	2622.25
720.114	2597.68
720.301	2644.78
720.488	2657.07
720.676	2566.96
720.863	2485.04
721.05	2644.78
721.237	2564.91
721.424	2528.05
721.611	2612.01
721.798	2456.37
721.985	2474.8
722.172	2685.74
722.358	2550.57
722.545	2505.52
722.732	2513.71
722.919	2595.63
723.106	2583.34
723.293	2407.22
723.48	2607.92
723.667	2597.68
723.853	2532.14
724.04	2589.49
724.227	2546.48
724.414	2476.85
724.6	2458.42
724.787	2491.18
724.974	2540.33
725.161	2390.83
725.347	2517.81
725.534	2444.08
725.72	2526
725.907	2476.85
726.094	2552.62
726.28	2474.8
726.467	2462.51
726.653	2376.5
726.84	2505.52
727.027	2622.25
727.213	2446.13
727.4	2374.45
727.586	2409.26
727.773	2478.9
727.959	2640.69
728.145	2456.37
728.332	2450.22
728.518	2392.88
728.705	2519.85
728.891	2482.99
729.077	2411.31
729.264	2458.42
729.45	2482.99
729.636	2376.5
729.823	2286.39
730.009	2505.52
730.195	2407.22
730.382	2429.74
730.568	2534.19
730.754	2394.93
730.94	2337.59
731.126	2353.97
731.313	2526
731.499	2302.77
731.685	2382.64
731.871	2382.64
732.057	2415.41
732.243	2427.7
732.429	2448.18
732.615	2464.56
732.801	2396.98
732.987	2370.35
733.173	2384.69
733.359	2415.41
733.545	2394.93
733.731	2390.83
733.917	2378.55
734.103	2364.21
734.289	2429.74
734.475	2423.6
734.661	2384.69
734.847	2374.45
735.033	2423.6
735.219	2362.16
735.404	2507.57
735.59	2448.18
735.776	2439.98
735.962	2364.21
736.148	2526
736.333	2366.26
736.519	2341.68
736.705	2399.02
736.89	2341.68
737.076	2286.39
737.262	2270
737.447	2313.01
737.633	2317.11
737.819	2286.39
738.004	2280.24
738.19	2247.48
738.375	2274.1
738.561	2231.09
738.747	2302.77
738.932	2204.47
739.118	2306.87
739.303	2321.2
739.489	2362.16
739.674	2265.91
739.859	2345.78
740.045	2286.39
740.23	2362.16
740.416	2278.19
740.601	2106.17
740.786	2360.11
740.972	2218.8
741.157	2259.76
741.342	2085.69
741.528	2222.9
741.713	2235.19
741.898	2243.38
742.084	2155.32
742.269	2278.19
742.454	2165.56
742.639	2175.8
742.824	2059.06
743.01	2071.35
743.195	2186.04
743.38	2194.23
743.565	2091.83
743.75	2011.96
743.935	2181.94
744.12	2087.73
744.305	2095.93
744.49	2134.84
744.675	1993.53
744.86	2206.52
745.045	2022.2
745.23	2028.34
745.415	2147.12
745.6	2116.41
745.785	1940.28
745.97	2022.2
746.155	2030.39
746.34	2018.1
746.525	1979.19
746.71	1903.42
746.895	1948.47
747.079	2046.77
747.264	1874.74
747.449	2034.49
747.634	1829.69
747.819	1899.32
748.003	1905.46
748.188	1876.79
748.373	1837.88
748.557	1915.7
748.742	1817.4
748.927	1809.21
749.111	1780.54
749.296	1844.03
749.481	1825.59
749.665	1719.1
749.85	1723.2
750.034	1751.87
750.219	1719.1
750.404	1796.92
750.588	1792.83
750.773	1661.76
750.957	1672
751.141	1633.08
751.326	1665.85
751.51	1784.63
751.695	1649.47
751.879	1555.26
752.064	1676.09
752.248	1606.46
752.432	1678.14
752.617	1604.41
752.801	1596.22
752.985	1481.53
753.17	1573.69
753.354	1579.84
753.538	1540.93
753.722	1499.97
753.907	1508.16
754.091	1448.77
754.275	1655.61
754.459	1424.19
754.643	1467.2
754.828	1430.34
755.012	1418.05
755.196	1540.93
755.38	1475.39
755.564	1416
755.748	1516.35
755.932	1379.14
756.116	1354.56
756.3	1444.67
756.484	1284.93
756.668	1309.51
756.852	1213.25
757.036	1305.41
757.22	1338.18
757.404	1428.29
757.588	1309.51
757.772	1243.97
757.956	1334.08
758.14	1321.79
758.323	1289.03
758.507	1278.79
758.691	1252.16
758.875	1219.39
759.059	1219.39
759.242	1295.17
759.426	1203.01
759.61	1295.17
759.794	1248.07
759.977	1196.87
760.161	1301.31
760.345	1301.31
760.528	1194.82
760.712	1262.4
760.895	1227.59
761.079	1147.72
761.263	1211.2
761.446	1221.44
761.63	1172.29
761.813	1135.43
761.997	1037.13
762.18	1123.14
762.364	1133.38
762.547	1043.27
762.731	1092.42
762.914	1092.42
763.098	1073.99
763.281	1094.47
763.464	1194.82
763.648	1010.5
763.831	1172.29
764.015	1080.13
764.198	1104.71
764.381	1018.69
764.564	1182.53
764.748	1121.09
764.931	1063.75
765.114	1033.03
765.297	1030.98
765.481	1020.74
765.664	1022.79
765.847	1055.56
766.03	1035.08
766.213	990.02
766.397	944.97
766.58	969.54
766.763	1006.41
766.946	940.87
767.129	1008.45
767.312	904.01
767.495	1022.79
767.678	1030.98
767.861	1047.37
768.044	1039.17
768.227	918.34
768.41	908.1
768.593	959.3
768.776	918.34
768.959	883.53
769.142	910.15
769.324	944.97
769.507	906.06
769.69	981.83
769.873	928.58
770.056	996.17
770.239	967.49
770.421	983.88
770.604	953.16
770.787	801.61
770.97	840.52
771.152	852.81
771.335	908.1
771.518	836.42
771.7	932.68
771.883	834.38
772.066	842.57
772.248	869.19
772.431	920.39
772.613	787.27
772.796	846.66
772.978	830.28
773.161	967.49
773.343	817.99
773.526	916.3
773.708	795.47
773.891	846.66
774.073	820.04
774.256	815.94
774.438	861
774.621	822.09
774.803	754.51
774.985	760.65
775.168	832.33
775.35	684.87
775.532	727.88
775.715	721.74
775.897	793.42
776.079	772.94
776.261	754.51
776.444	770.89
776.626	713.55
776.808	727.88
776.99	711.5
777.173	727.88
777.355	654.16
777.537	740.17
777.719	711.5
777.901	613.2
778.083	674.64
778.265	617.29
778.447	670.54
778.629	695.11
778.811	613.2
778.993	826.18
779.175	625.48
779.357	650.06
779.539	574.28
779.721	664.4
779.903	666.44
780.085	605
780.267	635.72
780.449	652.11
780.631	631.63
780.812	744.27
780.994	590.67
781.176	584.52
781.358	602.96
781.54	596.81
781.721	574.28
781.903	619.34
782.085	600.91
782.267	557.9
782.448	564.04
782.63	664.4
782.812	541.52
782.993	555.85
783.175	541.52
783.357	572.24
783.538	555.85
783.72	523.09
783.901	555.85
784.083	566.09
784.264	518.99
784.446	445.26
784.627	469.84
784.809	564.04
784.99	432.97
785.172	545.61
785.353	490.32
785.535	533.33
785.716	445.26
785.897	510.8
786.079	437.07
786.26	529.23
786.441	525.13
786.623	428.88
786.804	441.17
786.985	424.78
787.167	449.36
787.348	383.82
787.529	498.51
787.71	486.22
787.891	480.08
788.073	387.92
788.254	330.58
788.435	463.69
788.616	506.7
788.797	437.07
788.978	457.55
789.159	480.08
789.34	377.68
789.522	418.64
789.703	424.78
789.884	498.51
790.065	369.49
790.246	410.45
790.427	334.67
790.607	432.97
790.788	412.5
790.969	383.82
791.15	432.97
791.331	334.67
791.512	353.1
791.693	410.45
791.874	379.73
792.054	486.22
792.235	392.02
792.416	336.72
792.597	359.25
792.778	459.6
792.958	338.77
793.139	381.78
793.32	424.78
793.5	357.2
793.681	408.4
793.862	414.54
794.042	404.3
794.223	265.04
794.404	394.06
794.584	330.58
794.765	328.53
794.945	336.72
795.126	318.29
795.306	426.83
795.487	330.58
795.667	346.96
795.848	310.1
796.028	349.01
796.209	306
796.389	322.38
796.57	416.59
796.75	306
796.93	324.43
797.111	320.34
797.291	338.77
797.471	295.76
797.652	260.95
797.832	324.43
798.012	336.72
798.192	289.62
798.373	346.96
798.553	361.3
798.733	320.34
798.913	322.38
799.093	324.43
799.274	365.39
799.454	260.95
799.634	303.95
799.814	314.19
799.994	312.14
800.174	396.11
800.354	252.75
800.534	287.57
800.714	308.05
800.894	373.58
801.074	244.56
801.254	230.23
801.434	342.86
801.614	275.28
801.794	277.33
801.974	842.57
802.154	310.1
802.334	279.38
802.514	240.47
802.693	244.56
802.873	279.38
803.053	293.71
803.233	252.75
803.413	336.72
803.592	275.28
803.772	295.76
803.952	355.15
804.131	246.61
804.311	342.86
804.491	205.65
804.67	191.31
804.85	211.79
805.03	232.27
805.209	217.94
805.389	277.33
805.568	277.33
805.748	217.94
805.928	219.99
806.107	224.08
806.287	289.62
806.466	260.95
806.646	236.37
806.825	209.75
807.004	250.71
807.184	211.79
807.363	252.75
807.543	187.22
807.722	219.99
807.901	342.86
808.081	273.23
808.26	166.74
808.439	260.95
808.619	183.12
808.798	195.41
808.977	203.6
809.156	238.42
809.336	213.84
809.515	201.55
809.694	191.31
809.873	260.95
810.052	236.37
810.231	211.79
810.411	207.7
810.59	170.83
810.769	219.99
810.948	279.38
811.127	176.98
811.306	174.93
811.485	142.16
811.664	226.13
811.843	168.79
812.022	228.18
812.201	172.88
812.38	230.23
812.559	246.61
812.737	142.16
812.916	228.18
813.095	121.68
813.274	174.93
813.453	160.59
813.632	211.79
813.811	236.37
813.989	187.22
814.168	260.95
814.347	88.92
814.526	207.7
814.704	199.51
814.883	197.46
815.062	154.45
815.24	211.79
815.419	90.96
815.598	217.94
815.776	95.06
815.955	144.21
816.133	166.74
816.312	181.07
816.49	170.83
816.669	189.27
816.847	109.4
817.026	230.23
817.204	187.22
817.383	248.66
817.561	181.07
817.74	166.74
817.918	219.99
818.097	181.07
818.275	207.7
818.453	262.99
818.632	170.83
818.81	117.59
818.988	148.31
819.167	138.07
819.345	158.55
819.523	101.2
819.701	170.83
819.879	228.18
820.058	170.83
820.236	170.83
820.414	158.55
820.592	105.3
820.77	285.52
820.948	189.27
821.127	99.16
821.305	146.26
821.483	127.83
821.661	197.46
821.839	125.78
822.017	99.16
822.195	117.59
822.373	174.93
822.551	162.64
822.729	207.7
822.907	146.26
823.085	170.83
823.262	170.83
823.44	93.01
823.618	138.07
823.796	199.51
823.974	150.36
824.152	99.16
824.329	133.97
824.507	131.92
824.685	119.64
824.863	47.96
825.04	166.74
825.218	164.69
825.396	219.99
825.574	76.63
825.751	119.64
825.929	230.23
826.107	103.25
826.284	109.4
826.462	131.92
826.639	133.97
826.817	142.16
826.994	148.31
827.172	140.12
827.349	179.03
827.527	88.92
827.704	136.02
827.882	142.16
828.059	97.11
828.237	115.54
828.414	121.68
828.591	93.01
828.769	138.07
828.946	52.05
829.124	133.97
829.301	146.26
829.478	121.68
829.655	205.65
829.833	164.69
830.01	35.67
830.187	199.51
830.364	115.54
830.542	203.6
830.719	140.12
830.896	191.31
831.073	119.64
831.25	166.74
831.427	97.11
831.604	179.03
831.782	105.3
831.959	211.79
832.136	129.88
832.313	58.2
832.49	123.73
832.667	156.5
832.844	84.82
833.021	138.07
833.198	101.2
833.374	99.16
833.551	80.72
833.728	129.88
833.905	146.26
834.082	41.81
834.259	150.36
834.436	99.16
834.612	39.76
834.789	179.03
834.966	129.88
835.143	80.72
835.319	37.72
835.496	123.73
835.673	183.12
835.85	56.15
836.026	129.88
836.203	164.69
836.38	41.81
836.556	111.44
836.733	47.96
836.909	123.73
837.086	138.07
837.262	58.2
837.439	80.72
837.616	150.36
837.792	131.92
837.968	109.4
838.145	101.2
838.321	74.58
838.498	88.92
838.674	99.16
838.851	121.68
839.027	90.96
839.203	189.27
839.38	140.12
839.556	80.72
839.732	105.3
839.909	162.64
840.085	138.07
840.261	47.96
840.437	80.72
840.614	56.15
840.79	80.72
840.966	105.3
841.142	47.96
841.318	117.59
841.494	56.15
841.671	142.16
841.847	160.59
842.023	64.34
842.199	82.77
842.375	129.88
842.551	88.92
842.727	-9.39
842.903	150.36
843.079	109.4
843.255	123.73
843.431	101.2
843.607	138.07
843.783	7
843.959	39.76
844.134	80.72
844.31	105.3
844.486	95.06
844.662	133.97
844.838	56.15
845.013	90.96
845.189	123.73
845.365	78.68
845.541	107.35
845.716	60.24
845.892	131.92
846.068	70.48
846.244	97.11
846.419	50
846.595	64.34
846.77	64.34
846.946	72.53
847.122	76.63
847.297	113.49
847.473	172.88
847.648	11.09
847.824	101.2
847.999	-17.58
848.175	60.24
848.35	105.3
848.526	123.73
848.701	60.24
848.876	148.31
849.052	19.29
849.227	164.69
849.403	101.2
849.578	33.62
849.753	39.76
849.929	121.68
850.104	74.58
850.279	54.1
850.454	84.82
850.63	88.92
850.805	-33.96
850.98	64.34
851.155	101.2
851.33	93.01
851.505	27.48
851.681	146.26
851.856	64.34
852.031	31.57
852.206	107.35
852.381	60.24
852.556	68.44
852.731	70.48
852.906	95.06
853.081	148.31
853.256	-11.43
853.431	113.49
853.606	25.43
853.781	64.34
853.956	54.1
854.131	64.34
854.305	62.29
854.48	105.3
854.655	105.3
854.83	43.86
855.005	113.49
855.18	72.53
855.354	47.96
855.529	101.2
855.704	105.3
855.879	101.2
856.053	33.62
856.228	99.16
856.403	117.59
856.577	23.38
856.752	115.54
856.926	84.82
857.101	70.48
857.276	47.96
857.45	-46.25
857.625	56.15
857.799	99.16
857.974	33.62
858.148	33.62
858.323	84.82
858.497	-42.15
858.672	90.96
858.846	93.01
859.02	84.82
859.195	-31.91
859.369	97.11
859.543	15.19
859.718	50
859.892	0.85
860.066	37.72
860.241	76.63
860.415	80.72
860.589	82.77
860.763	33.62
860.938	78.68
861.112	125.78
861.286	31.57
861.46	93.01
861.634	56.15
861.808	107.35
861.982	39.76
862.157	0.85
862.331	99.16
862.505	23.38
862.679	23.38
862.853	64.34
863.027	70.48
863.201	90.96
863.375	19.29
863.549	45.91
863.722	76.63
863.896	76.63
864.07	99.16
864.244	21.33
864.418	121.68
864.592	58.2
864.766	97.11
864.939	58.2
865.113	68.44
865.287	115.54
865.461	74.58
865.634	78.68
865.808	93.01
865.982	15.19
866.156	13.14
866.329	47.96
866.503	99.16
866.676	62.29
866.85	56.15
867.024	84.82
867.197	99.16
867.371	68.44
867.544	47.96
867.718	15.19
867.891	82.77
868.065	70.48
868.238	52.05
868.412	131.92
868.585	54.1
868.759	72.53
868.932	41.81
869.105	11.09
869.279	52.05
869.452	39.76
869.625	35.67
869.799	64.34
869.972	50
870.145	45.91
870.319	56.15
870.492	56.15
870.665	43.86
870.838	15.19
871.011	54.1
871.185	41.81
871.358	56.15
871.531	64.34
871.704	86.87
871.877	90.96
872.05	47.96
872.223	-19.63
872.396	41.81
872.569	72.53
872.742	17.24
872.915	0.85
873.088	-21.67
873.261	-7.34
873.434	80.72
873.607	33.62
873.78	64.34
873.953	-9.39
874.126	84.82
874.299	47.96
874.471	-1.19
874.644	111.44
874.817	99.16
874.99	41.81
875.163	31.57
875.335	13.14
875.508	82.77
875.681	117.59
875.853	-33.96
876.026	101.2
876.199	117.59
876.371	62.29
876.544	41.81
876.717	56.15
876.889	76.63
877.062	39.76
877.234	50
877.407	33.62
877.579	88.92
877.752	43.86
877.924	17.24
878.097	43.86
878.269	54.1
878.442	31.57
878.614	82.77
878.786	35.67
878.959	23.38
879.131	41.81
879.303	17.24
879.476	84.82
879.648	156.5
879.82	166.74
879.993	-1.19
880.165	90.96
880.337	-31.91
880.509	31.57
880.681	52.05
880.854	43.86
881.026	50
881.198	121.68
881.37	15.19
881.542	31.57
881.714	-13.48
881.886	35.67
882.058	64.34
882.23	50
882.402	15.19
882.574	109.4
882.746	25.43
882.918	95.06
883.09	58.2
883.262	45.91
883.434	50
883.606	62.29
883.778	64.34
883.95	138.07
884.122	-17.58
884.293	56.15
884.465	103.25
884.637	47.96
884.809	21.33
884.98	15.19
885.152	31.57
885.324	82.77
885.496	52.05
885.667	21.33
885.839	93.01
886.011	19.29
886.182	56.15
886.354	52.05
886.525	39.76
886.697	72.53
886.869	27.48
887.04	82.77
887.212	27.48
887.383	56.15
887.555	35.67
887.726	86.87
887.897	43.86
888.069	-17.58
888.24	47.96
888.412	62.29
888.583	74.58
888.754	17.24
888.926	-9.39
889.097	33.62
889.268	2.9
889.44	27.48
889.611	-17.58
889.782	17.24
889.953	66.39
890.125	86.87
890.296	88.92
890.467	-1.19
890.638	72.53
890.809	64.34
890.98	17.24
891.151	101.2
891.323	88.92
891.494	0.85
891.665	74.58
891.836	88.92
892.007	-25.77
892.178	52.05
892.349	64.34
892.52	21.33
892.691	33.62
892.862	23.38
893.032	54.1
893.203	-31.91
893.374	60.24
893.545	105.3
893.716	27.48
893.887	84.82
894.057	47.96
894.228	7
894.399	-5.29
894.57	115.54
894.74	64.34
894.911	21.33
895.082	58.2
895.253	-38.06
895.423	-13.48
895.594	25.43
895.764	25.43
895.935	7
896.106	11.09
896.276	-9.39
896.447	66.39
896.617	-9.39
896.788	56.15
896.958	15.19
897.129	23.38
897.299	35.67
897.47	60.24
897.64	88.92
897.81	76.63
897.981	72.53
898.151	7
898.322	68.44
898.492	93.01
898.662	-40.11
898.832	31.57
899.003	80.72
899.173	-13.48
899.343	15.19
899.513	105.3
