Data from USB4F104151__156__14-19-34-626.txt Node

Date: Thu Mar 13 14:19:34 EDT 2025
User: louis
Spectrometer: USB4F10415
Trigger mode: 4
Integration Time (sec): 2.000000E-2
Scans to average: 1
Electric dark correction enabled: true
Nonlinearity correction enabled: false
Boxcar width: 0
XAxis mode: Wavelengths
Number of Pixels in Spectrum: 3648
>>>>>Begin Spectral Data<<<<<
178.204	-143.19
178.424	-143.19
178.644	-143.19
178.864	-91.99
179.084	-100.18
179.304	-75.6
179.524	-65.36
179.744	18.6
179.964	10.41
180.184	20.65
180.404	-10.07
180.624	-16.21
180.844	6.31
181.064	-10.07
181.283	55.47
181.503	14.51
181.723	51.37
181.943	-77.65
182.163	34.99
182.383	-26.45
182.602	53.42
182.822	49.32
183.042	26.79
183.262	22.7
183.482	-12.12
183.701	-22.36
183.921	37.03
184.141	71.85
184.361	82.09
184.58	-10.07
184.8	88.23
185.02	-38.74
185.239	96.43
185.459	16.55
185.679	55.47
185.898	-73.56
186.118	96.43
186.338	39.08
186.557	-16.21
186.777	-10.07
186.997	30.89
187.216	47.27
187.436	18.6
187.655	80.04
187.875	6.31
188.095	47.27
188.314	39.08
188.534	59.56
188.753	14.51
188.973	-24.4
189.192	51.37
189.412	59.56
189.631	22.7
189.851	24.75
190.07	-26.45
190.29	-28.5
190.509	8.36
190.729	59.56
190.948	39.08
191.168	129.19
191.387	47.27
191.607	73.9
191.826	34.99
192.045	112.81
192.265	-18.26
192.484	2.22
192.704	55.47
192.923	49.32
193.142	14.51
193.362	41.13
193.581	-3.93
193.8	41.13
194.02	-40.79
194.239	6.31
194.458	-1.88
194.678	-10.07
194.897	49.32
195.116	-20.31
195.335	6.31
195.555	82.09
195.774	51.37
195.993	-55.12
196.212	-24.4
196.432	71.85
196.651	-67.41
196.87	37.03
197.089	104.62
197.308	6.31
197.528	39.08
197.747	-18.26
197.966	14.51
198.185	84.14
198.404	-24.4
198.623	-40.79
198.842	104.62
199.062	32.94
199.281	80.04
199.5	-22.36
199.719	30.89
199.938	0.17
200.157	65.71
200.376	51.37
200.595	59.56
200.814	47.27
201.033	65.71
201.252	65.71
201.471	47.27
201.69	67.75
201.909	39.08
202.128	-5.97
202.347	41.13
202.566	67.75
202.785	6.31
203.004	-14.17
203.223	112.81
203.442	-1.88
203.661	-16.21
203.879	22.7
204.098	88.23
204.317	-24.4
204.536	67.75
204.755	-40.79
204.974	28.84
205.193	104.62
205.411	82.09
205.63	22.7
205.849	22.7
206.068	-28.5
206.287	-8.02
206.505	65.71
206.724	63.66
206.943	32.94
207.162	59.56
207.381	-5.97
207.599	14.51
207.818	39.08
208.037	73.9
208.255	-51.03
208.474	30.89
208.693	43.18
208.911	-87.89
209.13	30.89
209.349	82.09
209.567	-8.02
209.786	71.85
210.005	51.37
210.223	-10.07
210.442	-30.55
210.661	-18.26
210.879	-34.64
211.098	18.6
211.316	-10.07
211.535	47.27
211.753	65.71
211.972	51.37
212.191	-5.97
212.409	2.22
212.628	20.65
212.846	34.99
213.065	57.51
213.283	18.6
213.502	80.04
213.72	2.22
213.938	14.51
214.157	16.55
214.375	-42.84
214.594	47.27
214.812	102.57
215.031	-1.88
215.249	-59.22
215.467	22.7
215.686	16.55
215.904	-42.84
216.122	-8.02
216.341	22.7
216.559	8.36
216.778	34.99
216.996	55.47
217.214	90.28
217.432	18.6
217.651	16.55
217.869	65.71
218.087	34.99
218.306	16.55
218.524	77.99
218.742	4.27
218.96	12.46
219.179	41.13
219.397	53.42
219.615	75.95
219.833	-12.12
220.051	-3.93
220.27	67.75
220.488	59.56
220.706	51.37
220.924	63.66
221.142	34.99
221.36	24.75
221.578	-1.88
221.796	16.55
222.015	100.52
222.233	20.65
222.451	55.47
222.669	4.27
222.887	-1.88
223.105	45.23
223.323	43.18
223.541	-38.74
223.759	65.71
223.977	59.56
224.195	98.47
224.413	26.79
224.631	24.75
224.849	-65.36
225.067	65.71
225.285	-79.7
225.503	47.27
225.721	32.94
225.939	61.61
226.157	51.37
226.375	18.6
226.592	10.41
226.81	-10.07
227.028	32.94
227.246	112.81
227.464	59.56
227.682	18.6
227.9	18.6
228.117	34.99
228.335	43.18
228.553	57.51
228.771	-51.03
228.989	28.84
229.206	2.22
229.424	-26.45
229.642	-18.26
229.86	16.55
230.077	6.31
230.295	82.09
230.513	34.99
230.731	24.75
230.948	59.56
231.166	69.8
231.384	71.85
231.601	14.51
231.819	18.6
232.037	-26.45
232.254	-30.55
232.472	63.66
232.689	-57.17
232.907	80.04
233.125	51.37
233.342	16.55
233.56	22.7
233.777	30.89
233.995	-24.4
234.213	75.95
234.43	0.17
234.648	39.08
234.865	0.17
235.083	90.28
235.3	6.31
235.518	28.84
235.735	69.8
235.953	-24.4
236.17	-24.4
236.388	32.94
236.605	16.55
236.822	14.51
237.04	-30.55
237.257	-36.69
237.475	-34.64
237.692	59.56
237.909	-5.97
238.127	59.56
238.344	-1.88
238.562	59.56
238.779	51.37
238.996	47.27
239.214	47.27
239.431	39.08
239.648	65.71
239.865	43.18
240.083	22.7
240.3	51.37
240.517	-22.36
240.735	-32.6
240.952	43.18
241.169	39.08
241.386	53.42
241.603	-8.02
241.821	41.13
242.038	26.79
242.255	10.41
242.472	30.89
242.689	80.04
242.907	10.41
243.124	-18.26
243.341	14.51
243.558	-55.12
243.775	41.13
243.992	-32.6
244.209	22.7
244.426	77.99
244.643	61.61
244.86	39.08
245.078	51.37
245.295	2.22
245.512	-22.36
245.729	-34.64
245.946	116.9
246.163	73.9
246.38	18.6
246.597	71.85
246.814	-5.97
247.031	-26.45
247.248	59.56
247.464	10.41
247.681	39.08
247.898	55.47
248.115	57.51
248.332	55.47
248.549	34.99
248.766	92.33
248.983	92.33
249.2	-46.93
249.417	22.7
249.633	30.89
249.85	-10.07
250.067	-16.21
250.284	73.9
250.501	-12.12
250.717	71.85
250.934	10.41
251.151	6.31
251.368	-91.99
251.585	37.03
251.801	45.23
252.018	-5.97
252.235	51.37
252.451	28.84
252.668	-36.69
252.885	45.23
253.102	67.75
253.318	51.37
253.535	82.09
253.752	18.6
253.968	14.51
254.185	-14.17
254.401	18.6
254.618	26.79
254.835	-14.17
255.051	59.56
255.268	16.55
255.484	67.75
255.701	6.31
255.917	39.08
256.134	-42.84
256.351	-18.26
256.567	-5.97
256.784	-1.88
257	6.31
257.217	30.89
257.433	49.32
257.65	34.99
257.866	112.81
258.082	55.47
258.299	-20.31
258.515	6.31
258.732	41.13
258.948	-3.93
259.165	55.47
259.381	14.51
259.597	82.09
259.814	55.47
260.03	6.31
260.246	-10.07
260.463	55.47
260.679	43.18
260.895	32.94
261.112	57.51
261.328	-34.64
261.544	-18.26
261.761	80.04
261.977	51.37
262.193	-18.26
262.409	20.65
262.626	30.89
262.842	37.03
263.058	-14.17
263.274	88.23
263.49	49.32
263.707	71.85
263.923	39.08
264.139	30.89
264.355	39.08
264.571	108.71
264.787	43.18
265.004	34.99
265.22	-10.07
265.436	41.13
265.652	-1.88
265.868	139.43
266.084	-48.98
266.3	28.84
266.516	-32.6
266.732	-10.07
266.948	-42.84
267.164	39.08
267.38	32.94
267.596	47.27
267.812	80.04
268.028	24.75
268.244	49.32
268.46	-1.88
268.676	88.23
268.892	82.09
269.108	18.6
269.324	34.99
269.54	6.31
269.756	104.62
269.972	-18.26
270.188	18.6
270.403	34.99
270.619	18.6
270.835	30.89
271.051	57.51
271.267	18.6
271.483	82.09
271.698	24.75
271.914	16.55
272.13	-18.26
272.346	39.08
272.562	39.08
272.777	26.79
272.993	-5.97
273.209	30.89
273.425	18.6
273.64	49.32
273.856	77.99
274.072	55.47
274.287	-16.21
274.503	71.85
274.719	49.32
274.934	26.79
275.15	-67.41
275.366	47.27
275.581	-1.88
275.797	71.85
276.012	30.89
276.228	30.89
276.444	-1.88
276.659	47.27
276.875	-14.17
277.09	26.79
277.306	63.66
277.521	30.89
277.737	-3.93
277.952	43.18
278.168	34.99
278.383	82.09
278.599	84.14
278.814	-18.26
279.03	22.7
279.245	110.76
279.461	20.65
279.676	65.71
279.892	-28.5
280.107	6.31
280.322	16.55
280.538	55.47
280.753	-16.21
280.969	71.85
281.184	22.7
281.399	71.85
281.615	71.85
281.83	100.52
282.045	-16.21
282.26	45.23
282.476	20.65
282.691	96.43
282.906	75.95
283.122	82.09
283.337	-5.97
283.552	49.32
283.767	39.08
283.983	63.66
284.198	-30.55
284.413	84.14
284.628	16.55
284.843	49.32
285.058	4.27
285.274	55.47
285.489	-42.84
285.704	30.89
285.919	-1.88
286.134	55.47
286.349	39.08
286.564	-1.88
286.779	65.71
286.995	14.51
287.21	49.32
287.425	18.6
287.64	80.04
287.855	6.31
288.07	-46.93
288.285	26.79
288.5	65.71
288.715	82.09
288.93	8.36
289.145	6.31
289.36	0.17
289.575	53.42
289.79	88.23
290.004	-28.5
290.219	51.37
290.434	26.79
290.649	47.27
290.864	57.51
291.079	28.84
291.294	49.32
291.509	-22.36
291.724	55.47
291.938	80.04
292.153	75.95
292.368	55.47
292.583	57.51
292.798	90.28
293.012	98.47
293.227	55.47
293.442	59.56
293.657	-38.74
293.871	49.32
294.086	80.04
294.301	-20.31
294.516	49.32
294.73	67.75
294.945	30.89
295.16	14.51
295.374	55.47
295.589	55.47
295.804	41.13
296.018	0.17
296.233	2.22
296.447	96.43
296.662	30.89
296.877	121
297.091	84.14
297.306	92.33
297.52	-8.02
297.735	51.37
297.949	88.23
298.164	8.36
298.378	41.13
298.593	-32.6
298.807	61.61
299.022	69.8
299.236	30.89
299.451	-10.07
299.665	0.17
299.88	86.19
300.094	22.7
300.309	39.08
300.523	10.41
300.737	-10.07
300.952	24.75
301.166	102.57
301.381	-67.41
301.595	88.23
301.809	-5.97
302.024	12.46
302.238	-24.4
302.452	-1.88
302.667	-24.4
302.881	49.32
303.095	92.33
303.309	118.95
303.524	-18.26
303.738	80.04
303.952	-32.6
304.166	30.89
304.381	-18.26
304.595	118.95
304.809	41.13
305.023	-18.26
305.237	96.43
305.452	41.13
305.666	28.84
305.88	26.79
306.094	34.99
306.308	24.75
306.522	86.19
306.736	39.08
306.95	26.79
307.164	24.75
307.379	75.95
307.593	71.85
307.807	92.33
308.021	8.36
308.235	22.7
308.449	10.41
308.663	10.41
308.877	71.85
309.091	16.55
309.305	12.46
309.519	-10.07
309.733	47.27
309.947	47.27
310.161	43.18
310.374	55.47
310.588	32.94
310.802	26.79
311.016	-57.17
311.23	0.17
311.444	14.51
311.658	12.46
311.872	55.47
312.085	80.04
312.299	69.8
312.513	41.13
312.727	6.31
312.941	-40.79
313.154	45.23
313.368	18.6
313.582	63.66
313.796	-63.32
314.009	151.72
314.223	71.85
314.437	30.89
314.651	39.08
314.864	0.17
315.078	6.31
315.292	-5.97
315.505	26.79
315.719	8.36
315.933	26.79
316.146	32.94
316.36	-26.45
316.573	24.75
316.787	-5.97
317.001	71.85
317.214	139.43
317.428	43.18
317.641	-67.41
317.855	8.36
318.068	67.75
318.282	32.94
318.495	-12.12
318.709	37.03
318.922	0.17
319.136	106.67
319.349	20.65
319.563	63.66
319.776	129.19
319.99	39.08
320.203	39.08
320.417	20.65
320.63	82.09
320.843	41.13
321.057	90.28
321.27	-1.88
321.483	2.22
321.697	80.04
321.91	-3.93
322.124	51.37
322.337	8.36
322.55	22.7
322.763	10.41
322.977	8.36
323.19	-42.84
323.403	88.23
323.617	-5.97
323.83	84.14
324.043	59.56
324.256	2.22
324.469	67.75
324.683	59.56
324.896	65.71
325.109	71.85
325.322	43.18
325.535	141.48
325.748	55.47
325.962	45.23
326.175	34.99
326.388	45.23
326.601	67.75
326.814	63.66
327.027	88.23
327.24	16.55
327.453	22.7
327.666	55.47
327.879	94.38
328.092	71.85
328.305	102.57
328.518	-1.88
328.731	-18.26
328.944	-5.97
329.157	16.55
329.37	30.89
329.583	121
329.796	18.6
330.009	47.27
330.222	-14.17
330.435	55.47
330.648	10.41
330.861	-44.88
331.073	-18.26
331.286	-1.88
331.499	59.56
331.712	-16.21
331.925	18.6
332.138	-20.31
332.35	22.7
332.563	34.99
332.776	39.08
332.989	73.9
333.202	34.99
333.414	18.6
333.627	71.85
333.84	59.56
334.053	51.37
334.265	49.32
334.478	63.66
334.691	-28.5
334.903	34.99
335.116	-10.07
335.329	51.37
335.541	-10.07
335.754	112.81
335.966	30.89
336.179	69.8
336.392	0.17
336.604	47.27
336.817	51.37
337.029	63.66
337.242	55.47
337.454	37.03
337.667	69.8
337.88	43.18
338.092	34.99
338.305	41.13
338.517	22.7
338.729	114.86
338.942	49.32
339.154	37.03
339.367	34.99
339.579	-34.64
339.792	30.89
340.004	96.43
340.217	24.75
340.429	71.85
340.641	6.31
340.854	-48.98
341.066	47.27
341.278	34.99
341.491	90.28
341.703	22.7
341.915	51.37
342.128	114.86
342.34	-28.5
342.552	10.41
342.764	63.66
342.977	71.85
343.189	55.47
343.401	114.86
343.613	2.22
343.826	114.86
344.038	32.94
344.25	41.13
344.462	-18.26
344.674	75.95
344.886	112.81
345.099	41.13
345.311	63.66
345.523	32.94
345.735	49.32
345.947	73.9
346.159	2.22
346.371	39.08
346.583	0.17
346.795	43.18
347.007	55.47
347.219	14.51
347.431	-38.74
347.643	10.41
347.855	106.67
348.067	104.62
348.279	47.27
348.491	77.99
348.703	106.67
348.915	39.08
349.127	22.7
349.339	10.41
349.551	2.22
349.763	-8.02
349.975	-34.64
350.187	112.81
350.399	77.99
350.61	88.23
350.822	22.7
351.034	73.9
351.246	45.23
351.458	-3.93
351.669	69.8
351.881	73.9
352.093	24.75
352.305	49.32
352.517	82.09
352.728	73.9
352.94	47.27
353.152	-42.84
353.363	28.84
353.575	20.65
353.787	55.47
353.999	2.22
354.21	131.24
354.422	-5.97
354.633	55.47
354.845	39.08
355.057	47.27
355.268	49.32
355.48	51.37
355.692	32.94
355.903	84.14
356.115	14.51
356.326	-26.45
356.538	28.84
356.749	57.51
356.961	96.43
357.172	26.79
357.384	59.56
357.595	67.75
357.807	-1.88
358.018	47.27
358.23	43.18
358.441	104.62
358.653	30.89
358.864	121
359.075	-30.55
359.287	6.31
359.498	39.08
359.709	47.27
359.921	28.84
360.132	37.03
360.344	34.99
360.555	41.13
360.766	88.23
360.977	-38.74
361.189	59.56
361.4	14.51
361.611	86.19
361.823	114.86
362.034	98.47
362.245	34.99
362.456	30.89
362.667	59.56
362.879	14.51
363.09	63.66
363.301	71.85
363.512	47.27
363.723	18.6
363.935	-38.74
364.146	59.56
364.357	-14.17
364.568	80.04
364.779	-10.07
364.99	69.8
365.201	30.89
365.412	137.38
365.623	-3.93
365.834	-14.17
366.045	45.23
366.256	100.52
366.467	16.55
366.678	16.55
366.889	96.43
367.1	65.71
367.311	82.09
367.522	32.94
367.733	63.66
367.944	0.17
368.155	65.71
368.366	37.03
368.577	133.29
368.788	37.03
368.999	22.7
369.209	125.1
369.42	82.09
369.631	16.55
369.842	96.43
370.053	65.71
370.264	92.33
370.474	55.47
370.685	55.47
370.896	75.95
371.107	71.85
371.317	49.32
371.528	69.8
371.739	166.06
371.95	90.28
372.16	32.94
372.371	-28.5
372.582	90.28
372.792	104.62
373.003	84.14
373.214	43.18
373.424	51.37
373.635	80.04
373.846	55.47
374.056	43.18
374.267	32.94
374.477	-8.02
374.688	67.75
374.898	88.23
375.109	63.66
375.319	69.8
375.53	80.04
375.74	39.08
375.951	73.9
376.161	-22.36
376.372	125.1
376.582	57.51
376.793	71.85
377.003	-5.97
377.214	18.6
377.424	65.71
377.635	6.31
377.845	20.65
378.055	100.52
378.266	20.65
378.476	75.95
378.686	71.85
378.897	49.32
379.107	63.66
379.317	77.99
379.528	24.75
379.738	14.51
379.948	63.66
380.158	59.56
380.369	82.09
380.579	88.23
380.789	63.66
380.999	96.43
381.21	39.08
381.42	84.14
381.63	47.27
381.84	59.56
382.05	71.85
382.261	118.95
382.471	65.71
382.681	39.08
382.891	131.24
383.101	112.81
383.311	82.09
383.521	47.27
383.731	57.51
383.941	114.86
384.151	104.62
384.361	63.66
384.571	0.17
384.781	82.09
384.991	127.14
385.201	104.62
385.411	57.51
385.621	80.04
385.831	100.52
386.041	41.13
386.251	67.75
386.461	139.43
386.671	-14.17
386.881	139.43
387.091	69.8
387.301	43.18
387.511	75.95
387.72	114.86
387.93	73.9
388.14	14.51
388.35	75.95
388.56	137.38
388.769	49.32
388.979	34.99
389.189	22.7
389.399	63.66
389.609	106.67
389.818	73.9
390.028	102.57
390.238	147.62
390.447	32.94
390.657	92.33
390.867	28.84
391.076	-20.31
391.286	90.28
391.496	2.22
391.705	71.85
391.915	80.04
392.125	116.9
392.334	24.75
392.544	118.95
392.753	104.62
392.963	92.33
393.172	121
393.382	-10.07
393.591	215.21
393.801	39.08
394.01	168.1
394.22	92.33
394.429	125.1
394.639	39.08
394.848	65.71
395.058	100.52
395.267	69.8
395.477	96.43
395.686	170.15
395.895	143.53
396.105	219.3
396.314	65.71
396.524	127.14
396.733	75.95
396.942	190.63
397.152	102.57
397.361	196.78
397.57	151.72
397.78	116.9
397.989	155.82
398.198	196.78
398.407	43.18
398.617	110.76
398.826	88.23
399.035	166.06
399.244	153.77
399.453	88.23
399.663	145.58
399.872	256.17
400.081	96.43
400.29	137.38
400.499	86.19
400.708	102.57
400.917	137.38
401.127	141.48
401.336	170.15
401.545	182.44
401.754	141.48
401.963	166.06
402.172	123.05
402.381	198.82
402.59	145.58
402.799	141.48
403.008	186.54
403.217	77.99
403.426	247.97
403.635	137.38
403.844	174.25
404.053	219.3
404.262	100.52
404.471	235.69
404.68	164.01
404.888	274.6
405.097	252.07
405.306	178.34
405.515	190.63
405.724	108.71
405.933	233.64
406.142	174.25
406.35	270.5
406.559	219.3
406.768	182.44
406.977	374.95
407.185	280.74
407.394	284.84
407.603	231.59
407.812	336.04
408.02	317.61
408.229	342.18
408.438	333.99
408.646	309.41
408.855	293.03
409.064	374.95
409.272	342.18
409.481	358.57
409.69	374.95
409.898	313.51
410.107	483.49
410.315	532.64
410.524	315.56
410.733	522.4
410.941	485.54
411.15	499.88
411.358	518.31
411.567	530.59
411.775	499.88
411.984	620.71
412.192	604.32
412.401	665.76
412.609	659.62
412.818	589.99
413.026	649.38
413.234	694.43
413.443	759.97
413.651	751.78
413.86	835.74
414.068	831.65
414.276	909.47
414.485	917.66
414.693	956.57
414.901	946.33
415.11	981.15
415.318	948.38
415.526	1065.11
415.734	1013.92
415.943	1075.35
416.151	1126.55
416.359	1153.18
416.567	1261.72
416.776	1341.59
416.984	1284.25
417.192	1349.78
417.4	1448.08
417.608	1464.47
417.817	1433.75
418.025	1542.29
418.233	1644.69
418.441	1620.11
418.649	1693.84
418.857	1804.43
419.065	1869.97
419.273	1779.86
419.481	1874.06
419.689	2060.43
419.897	2117.77
420.105	2031.76
420.313	2220.17
420.521	2130.06
420.729	2361.48
420.937	2367.62
421.145	2461.83
421.353	2584.71
421.561	2664.58
421.769	2668.67
421.977	2859.14
422.185	2789.5
422.393	2973.82
422.601	3086.46
422.809	3246.2
423.017	3168.38
423.224	3356.79
423.432	3414.13
423.64	3422.33
423.848	3731.57
424.056	3569.78
424.263	3975.28
424.471	3991.66
424.679	4175.98
424.887	4329.58
425.094	4436.07
425.302	4448.36
425.51	4593.76
425.718	4749.41
425.925	4837.47
426.133	5062.75
426.341	5226.59
426.548	5443.67
426.756	5568.6
426.964	5699.67
427.171	5847.12
427.379	5996.62
427.586	6176.84
427.794	6318.15
428.001	6717.51
428.209	6821.95
428.417	6637.64
428.624	7305.28
428.832	7182.4
429.039	7364.67
429.247	7317.56
429.454	7870.51
429.662	8595.5
429.869	7905.33
430.076	8458.28
430.284	8157.23
430.491	8445.99
430.699	9099.3
430.906	8982.56
431.114	9107.49
431.321	9584.66
431.528	9617.43
431.736	10319.89
431.943	10883.08
432.15	10541.07
432.358	10735.62
432.565	11161.6
432.772	11094.02
432.979	11587.58
433.187	11993.08
433.394	11982.84
433.601	12677.1
433.808	12550.12
434.016	12644.33
434.223	13516.76
434.43	14041.04
434.637	13684.7
434.844	14665.67
435.052	14911.43
435.259	14899.14
435.466	14997.45
435.673	14573.52
435.88	15632.32
436.087	16537.52
436.294	16570.29
436.501	16183.22
436.708	16388.02
436.915	17086.37
437.122	17557.41
437.329	17551.26
437.537	18466.7
437.743	18483.09
437.95	18429.84
438.157	19107.72
438.364	19971.96
438.571	19765.12
438.778	19787.64
438.985	21880.67
439.192	20967.27
439.399	21985.12
439.606	20985.71
439.813	22214.49
440.02	23879.49
440.227	23377.73
440.433	23119.69
440.64	24080.19
440.847	23598.91
441.054	24194.87
441.261	26062.62
441.467	25450.28
441.674	26011.42
441.881	26865.42
442.088	26795.79
442.294	26838.8
442.501	27301.64
442.708	27850.5
442.914	28718.84
443.121	30095.07
443.328	29488.87
443.534	31428.3
443.741	30383.84
443.948	30125.79
444.154	32149.18
444.361	31641.29
444.568	31872.71
444.774	32284.35
444.981	32722.62
445.187	33263.28
445.394	34877.08
445.6	34555.55
445.807	37430.9
446.013	36101.76
446.22	36879.99
446.426	38145.64
446.633	38303.33
446.839	40054.34
447.046	38147.68
447.252	40185.41
447.459	39878.22
447.665	40064.58
447.871	41901.61
448.078	43716.11
448.284	41367.09
448.491	42380.84
448.697	44060.17
448.903	44492.29
449.11	44813.82
449.316	44262.92
449.522	45340.15
449.728	46347.75
449.935	46296.55
450.141	46720.48
450.347	47730.13
450.553	45780.46
450.76	46368.23
450.966	48104.91
451.172	47537.62
451.378	48498.12
451.584	47730.13
451.791	49089.98
451.997	48541.13
452.203	49763.76
452.409	49864.11
452.615	49272.25
452.821	47576.53
453.027	47087.07
453.233	49362.36
453.44	47797.71
453.646	48010.7
453.852	48334.28
454.058	48883.14
454.264	47674.84
454.47	48606.66
454.676	47459.8
454.882	49061.31
455.088	44916.22
455.294	45780.46
455.5	45977.07
455.705	46958.05
455.911	44840.45
456.117	44140.04
456.323	43607.57
456.529	40951.35
456.735	42898.97
456.941	41731.63
457.147	41096.76
457.352	40302.15
457.558	39896.65
457.764	40205.89
457.97	39327.31
458.176	38243.94
458.381	38030.95
458.587	36044.42
458.793	36454.01
458.999	34358.94
459.204	37072.5
459.41	36253.31
459.616	33722.02
459.821	33386.16
460.027	33482.41
460.233	32689.85
460.438	31131.34
460.644	31426.25
460.85	30025.44
461.055	29669.09
461.261	29511.4
461.466	27318.03
461.672	26474.26
461.878	28505.85
462.083	26871.57
462.289	26214.17
462.494	26058.53
462.7	24653.62
462.905	24239.93
463.111	25175.85
463.316	25163.56
463.522	24371
463.727	24504.12
463.932	24309.56
464.138	24319.8
464.343	23983.93
464.549	23508.8
464.754	24280.89
464.959	24096.57
465.165	24168.25
465.37	22865.74
465.575	22482.77
465.781	23443.27
465.986	23547.72
466.191	22443.86
466.397	22116.19
466.602	21182.31
466.807	21911.39
467.012	21591.91
467.218	21575.52
467.423	21354.34
467.628	21514.08
467.833	22665.04
468.038	21450.6
468.244	21014.38
468.449	21997.4
468.654	21012.33
468.859	21016.43
469.064	20897.64
469.269	20074.36
469.474	20146.04
469.679	20631.41
469.885	19978.11
470.09	20012.92
470.295	20275.06
470.5	19283.84
470.705	19634.05
470.91	19150.73
471.115	18972.55
471.32	19105.67
471.525	19388.29
471.73	18718.61
471.935	18407.31
472.139	18167.7
472.344	18290.58
472.549	18204.56
472.754	17975.19
472.959	17500.06
473.164	17225.64
473.369	17065.89
473.574	17598.37
473.778	17350.56
473.983	17141.67
474.188	17135.53
474.393	16482.22
474.598	16504.75
474.802	16277.43
475.007	16283.57
475.212	16342.96
475.417	15663.04
475.621	15542.21
475.826	15495.1
476.031	15433.66
476.235	15048.65
476.44	15359.94
476.645	15040.45
476.849	15265.73
477.054	14860.23
477.259	14630.86
477.463	14202.83
477.668	14120.92
477.872	14366.67
478.077	14098.39
478.282	13856.73
478.486	13737.95
478.691	13588.44
478.895	13537.24
479.1	13633.5
479.304	13582.3
479.509	13146.08
479.713	13377.5
479.918	13162.47
480.122	13019.11
480.326	13105.12
480.531	13162.47
480.735	12646.38
480.94	12744.68
481.144	13146.08
481.348	12705.77
481.553	12722.15
481.757	12361.71
481.961	12818.41
482.166	12775.4
482.37	12765.16
482.574	12349.42
482.778	12537.84
482.983	12781.54
483.187	12369.9
483.391	12666.86
483.595	12417.01
483.8	12175.34
484.004	12484.59
484.208	12609.51
484.412	12601.32
484.616	12384.24
484.821	12560.36
485.025	12201.97
485.229	12576.75
485.433	12453.87
485.637	12326.89
485.841	12365.81
486.045	12279.79
486.249	12519.4
486.453	12335.09
486.657	12433.39
486.861	12607.47
487.065	12134.39
487.269	12441.58
487.473	12087.28
487.677	12541.93
487.881	12482.54
488.085	12576.75
488.289	12384.24
488.493	12359.66
488.697	12382.19
488.901	12408.81
489.105	12410.86
489.309	12574.7
489.512	12523.5
489.716	12353.52
489.92	12314.61
490.124	12509.16
490.328	12865.51
490.531	12740.58
490.735	12543.98
490.939	12650.47
491.143	12394.48
491.346	12681.19
491.55	12777.45
491.754	12806.12
491.958	12955.62
492.161	12885.99
492.365	12998.63
492.569	12867.56
492.772	12953.57
492.976	13006.82
493.18	13223.9
493.383	13330.4
493.587	13354.97
493.79	13311.97
493.994	13420.51
494.197	13469.66
494.401	13647.83
494.605	13748.18
494.808	13922.26
495.012	13875.16
495.215	14071.76
495.419	14090.2
495.622	14010.32
495.825	14059.48
496.029	14196.69
496.232	14718.92
496.436	14399.44
496.639	15089.6
496.843	14911.43
497.046	15022.02
497.249	15187.91
497.453	15144.9
497.656	15423.42
497.859	15374.27
498.063	15507.39
498.266	16015.29
498.469	16033.72
498.673	15818.68
498.876	16449.46
499.079	16375.73
499.282	16527.28
499.485	16926.63
499.689	16842.67
499.892	17090.47
500.095	17065.89
500.298	17368.99
500.501	17475.49
500.705	17831.83
500.908	17917.85
501.111	18128.79
501.314	18196.37
501.517	18478.99
501.72	18796.43
501.923	18495.38
502.126	19144.58
502.329	19603.33
502.532	19441.54
502.735	19642.24
502.938	20051.83
503.141	19902.33
503.344	20164.47
503.547	20543.35
503.75	20377.46
503.953	20815.73
504.156	21145.45
504.359	21333.86
504.562	21598.05
504.765	21860.19
504.968	22122.33
505.17	22044.51
505.373	22308.69
505.576	22660.94
505.779	22712.14
505.982	23052.11
506.185	23408.45
506.387	23521.09
506.59	23541.57
506.793	23973.69
506.996	23967.55
507.198	24670
507.401	24643.38
507.604	25265.96
507.807	25274.15
508.009	25599.78
508.212	25665.32
508.415	25945.89
508.617	25997.09
508.82	26232.6
509.022	26275.61
509.225	27258.63
509.428	27211.53
509.63	27578.12
509.833	27598.6
510.035	28233.47
510.238	27997.95
510.44	28516.09
510.643	28690.16
510.845	29046.51
511.048	28897.01
511.25	29189.87
511.453	29685.48
511.655	30457.56
511.858	29994.72
512.06	30244.57
512.262	30807.76
512.465	30715.61
512.667	31262.41
512.87	31559.37
513.072	31653.58
513.274	32528.06
513.477	32593.59
513.679	32663.22
513.881	32949.94
514.084	33261.23
514.286	33150.64
514.488	33498.8
514.69	34277.02
514.893	34594.46
515.095	34279.07
515.297	34809.5
515.499	35024.53
515.701	35477.13
515.904	35987.08
516.106	35923.59
516.308	36251.27
516.51	37039.73
516.712	36873.85
516.914	37224.05
517.116	37725.8
517.318	37760.62
517.52	38100.58
517.722	37885.54
517.925	38577.76
518.127	39120.47
518.329	39108.18
518.531	39208.53
518.733	39726.67
518.935	40400.45
519.136	40257.09
519.338	40683.07
519.54	40701.5
519.742	41033.27
519.944	41223.73
520.146	41946.67
520.348	42032.68
520.55	41952.81
520.752	42380.84
520.954	43247.13
521.155	42626.59
521.357	43486.74
521.559	43716.11
521.761	44082.7
521.963	44125.71
522.164	44557.83
522.366	44690.94
522.568	45499.89
522.77	45284.86
522.971	46214.63
523.173	45563.38
523.375	46382.57
523.576	46015.98
523.778	46487.01
523.98	46788.06
524.181	46693.86
524.383	46851.55
524.584	47467.99
524.786	47443.41
524.988	47332.82
525.189	47746.51
525.391	48428.49
525.592	48475.59
525.794	48653.76
525.995	48033.23
526.197	48846.27
526.398	48956.86
526.6	49130.94
526.801	48952.77
527.003	49264.06
527.204	49042.88
527.406	49851.83
527.607	49876.4
527.808	50228.65
528.01	49235.39
528.211	50425.26
528.412	50716.07
528.614	50433.45
528.815	50363.82
529.016	50845.09
529.218	50552.23
529.419	50355.63
529.62	50843.04
529.822	50728.36
530.023	50984.35
530.224	50664.87
530.425	50843.04
530.626	50492.84
530.828	50486.7
531.029	51551.64
531.23	50982.3
531.431	51209.63
531.632	51594.65
531.833	51402.14
532.035	51297.69
532.236	51244.44
532.437	51563.93
532.638	51572.12
532.839	51506.58
533.04	51492.25
533.241	50994.59
533.442	51826.07
533.643	51662.23
533.844	51764.63
534.045	51914.13
534.246	51133.85
534.447	51850.64
534.648	51893.65
534.849	52354.44
535.05	51314.08
535.251	51725.72
535.451	51189.15
535.652	51695
535.853	51418.52
536.054	51414.43
536.255	52151.69
536.456	51217.82
536.657	52120.98
536.857	51479.96
537.058	50857.38
537.259	51948.95
537.46	51500.44
537.66	51735.96
537.861	52077.97
538.062	51316.12
538.263	51654.04
538.463	51637.65
538.664	51641.75
538.865	51500.44
539.065	51834.26
539.266	51408.28
539.466	51551.64
539.667	51029.41
539.868	52061.58
540.068	51250.59
540.269	51226.01
540.469	51924.37
540.67	51414.43
540.87	51412.38
541.071	51369.37
541.271	51873.17
541.472	51226.01
541.672	51496.34
541.873	51119.52
542.073	50900.39
542.274	51647.89
542.474	50951.59
542.675	51226.01
542.875	51801.49
543.075	51328.41
543.276	50681.25
543.476	51189.15
543.676	51049.89
543.877	51518.87
544.077	51309.98
544.277	50769.32
544.478	50496.94
544.678	51307.93
544.878	50863.52
545.078	51203.49
545.279	50636.2
545.479	50601.38
545.679	50750.88
545.879	50558.38
546.079	50675.11
546.28	50812.32
546.48	50308.52
546.68	50941.35
546.88	50390.44
547.08	50726.31
547.28	50718.12
547.48	50308.52
547.68	50619.81
547.88	50193.84
548.081	50544.04
548.281	50511.27
548.481	50511.27
548.681	50914.72
548.881	51015.07
549.081	50462.12
549.28	50367.91
549.48	50552.23
549.68	50195.88
549.88	50957.73
550.08	50032.05
550.28	50736.55
550.48	50335.15
550.68	50707.88
550.88	50140.59
551.08	49868.21
551.279	50220.46
551.479	50036.14
551.679	49972.66
551.879	49771.96
552.079	50070.96
552.278	50150.83
552.478	49999.28
552.678	50169.26
552.878	50498.98
553.077	50314.67
553.277	49413.56
553.477	50472.36
553.676	50091.44
553.876	49890.74
554.076	49675.7
554.275	49520.06
554.475	49386.94
554.674	49806.77
554.874	49960.37
555.074	49364.41
555.273	49589.69
555.473	49882.55
555.672	49333.69
555.872	49268.15
556.071	49630.65
556.271	49597.88
556.47	49065.41
556.67	48913.86
556.869	49294.78
557.068	49282.49
557.268	48987.58
557.467	49159.61
557.667	49096.13
557.866	49329.59
558.065	48985.54
558.265	48821.7
558.464	48719.3
558.663	49331.64
558.863	48864.71
559.062	48840.13
559.261	48500.17
559.461	48999.87
559.66	48344.52
559.859	48580.04
560.058	48582.09
560.258	48426.44
560.457	48219.59
560.656	48440.78
560.855	48317.9
561.054	48600.52
561.253	48000.46
561.453	48287.18
561.652	48440.78
561.851	48319.95
562.05	48068.05
562.249	47920.59
562.448	47824.34
562.647	48188.88
562.846	48092.62
563.045	47629.78
563.244	47298.01
563.443	47660.5
563.642	47066.59
563.841	47332.82
564.04	46804.45
564.239	47197.66
564.438	46853.6
564.637	47424.98
564.836	47316.44
565.035	46450.15
565.234	47349.21
565.432	46931.42
565.631	46724.58
565.83	46853.6
566.029	46493.16
566.228	46235.11
566.427	46460.39
566.625	46364.14
566.824	45934.06
567.023	46747.11
567.222	45542.9
567.42	46562.79
567.619	46167.53
567.818	45680.11
568.016	45747.7
568.215	46200.3
568.414	45262.33
568.612	45889.01
568.811	45512.18
569.01	45592.05
569.208	44912.13
569.407	45559.28
569.605	44879.36
569.804	45491.7
570.002	44926.46
570.201	45256.18
570.4	44639.75
570.598	44631.55
570.797	44484.1
570.995	44658.18
571.193	44365.32
571.392	44543.49
571.59	44424.71
571.789	44477.96
571.987	44228.1
572.186	44066.31
572.384	43873.81
572.582	43955.72
572.781	44219.91
572.979	43535.89
573.177	43617.81
573.376	43728.4
573.574	43185.69
573.772	43728.4
573.971	43159.06
574.169	43013.66
574.367	43030.04
574.565	43097.63
574.763	42978.84
574.962	43009.56
575.16	42626.59
575.358	43138.58
575.556	42409.51
575.754	42706.46
575.952	42171.94
576.151	42524.19
576.349	41899.56
576.547	41881.13
576.745	41987.63
576.943	42032.68
577.141	41956.91
577.339	42077.74
577.537	41662
577.735	41807.4
577.933	41295.41
578.131	41571.89
578.329	41145.91
578.527	40820.28
578.725	41303.6
578.923	41172.53
579.121	40851
579.319	40781.37
579.516	40898.11
579.714	40949.31
579.912	40236.61
580.11	40631.87
580.308	40668.73
580.506	40390.21
580.704	39990.86
580.901	40453.7
581.099	40349.25
581.297	39667.28
581.495	39734.86
581.692	40017.48
581.89	39577.17
582.088	40013.38
582.285	39372.37
582.483	39556.69
582.681	39741
582.878	39263.83
583.076	39032.41
583.274	39171.67
583.471	38555.23
583.669	38997.59
583.866	38430.3
584.064	39132.76
584.262	37998.18
584.459	38979.16
584.657	38485.6
584.854	38915.67
585.052	37914.22
585.249	38184.55
585.447	38088.29
585.644	37635.69
585.841	37746.28
586.039	38223.46
586.236	37359.22
586.434	37789.29
586.631	37568.11
586.828	37463.66
587.026	37365.36
587.223	37621.36
587.42	37080.69
587.618	36904.57
587.815	36609.66
588.012	36984.44
588.21	36540.03
588.407	37185.14
588.604	36701.82
588.801	36376.19
588.999	36580.99
589.196	36015.75
589.393	36531.84
589.59	35894.92
589.787	35853.96
589.984	35718.79
590.182	35679.88
590.379	35905.16
590.576	35661.45
590.773	35481.23
590.97	35212.95
591.167	35575.44
591.364	34860.69
591.561	35131.03
591.758	34961.05
591.955	34778.78
592.152	35032.72
592.349	34643.61
592.546	34612.89
592.743	34516.64
592.94	34350.75
593.137	34485.92
593.334	34514.59
593.531	33834.66
593.727	34021.03
593.924	34064.03
594.121	33949.35
594.318	33689.26
594.515	33337.01
594.712	33896.1
594.908	33375.92
595.105	33197.74
595.302	32947.89
595.499	33072.82
595.696	32982.71
595.892	32974.52
596.089	33107.63
596.286	32802.49
596.482	32474.81
596.679	32743.1
596.876	32536.25
597.072	32476.86
597.269	32689.85
597.466	32347.84
597.662	31889.09
597.859	32009.92
598.055	32063.17
598.252	32001.73
598.448	31798.98
598.645	31973.06
598.841	31518.41
599.038	31637.19
599.234	31725.25
599.431	31248.08
599.627	31160.02
599.824	31080.14
600.02	30875.35
600.217	31119.06
600.413	31002.32
600.609	30803.67
600.806	30469.85
601.002	30731.99
601.198	30590.68
601.395	30254.81
601.591	30457.56
601.787	30287.58
601.984	30195.42
602.18	30543.58
602.376	30258.91
602.572	29708.01
602.769	29964
602.965	29576.94
603.161	29871.84
603.357	29755.11
603.553	29535.98
603.75	29757.16
603.946	29243.12
604.142	29462.25
604.338	28602.1
604.534	29232.88
604.73	28874.48
604.926	29038.32
605.122	28923.63
605.318	28983.02
605.514	28573.43
605.71	28677.88
605.906	28440.31
606.102	28710.64
606.298	28624.63
606.494	28448.5
606.69	28405.5
606.886	28272.38
607.082	27854.59
607.278	28137.21
607.474	27545.35
607.67	28155.65
607.866	27729.67
608.062	27844.35
608.257	27600.65
608.453	27787.01
608.649	27893.51
608.845	27539.21
609.041	27623.17
609.236	27350.79
609.432	27361.03
609.628	27324.17
609.824	27371.27
610.019	27045.65
610.215	27244.3
610.411	27328.27
610.606	27205.39
610.802	27016.97
610.998	27268.87
611.193	26873.62
611.389	26957.58
611.584	26560.28
611.78	26650.39
611.976	26984.21
612.171	26771.22
612.367	26584.85
612.562	26224.41
612.758	26201.88
612.953	26124.06
613.149	26662.68
613.344	26259.23
613.539	26580.76
613.735	26304.28
613.93	26031.9
614.126	26269.47
614.321	26332.95
614.517	25878.3
614.712	26169.12
614.907	26007.33
615.103	26087.2
615.298	25679.65
615.493	25904.93
615.688	25239.34
615.884	26177.31
616.079	25282.34
616.274	25956.13
616.47	25249.58
616.665	25571.11
616.86	25413.41
617.055	25386.79
617.25	25317.16
617.445	25634.6
617.641	24977.2
617.836	25294.63
618.031	24610.61
618.226	25390.89
618.421	25288.49
618.616	25083.69
618.811	24614.71
619.006	25343.78
619.201	24532.79
619.396	24608.56
619.591	24198.97
619.786	24383.29
619.981	23930.69
620.176	24162.11
620.371	23942.97
620.566	23861.05
620.761	23555.91
620.956	24065.85
621.151	23566.15
621.346	23646.02
621.541	23277.38
621.735	23422.79
621.93	23267.14
622.125	22994.76
622.32	22746.96
622.515	22916.94
622.709	22630.23
622.904	22787.92
623.099	22593.36
623.294	22533.97
623.488	22079.32
623.683	22404.95
623.878	21823.33
624.072	22052.7
624.267	21868.38
624.462	21872.48
624.656	21391.2
624.851	21774.17
625.046	21340.01
625.24	21509.99
625.435	21323.62
625.629	20840.3
625.824	20803.44
626.018	20787.05
626.213	20260.73
626.407	20633.46
626.602	20375.41
626.796	20336.5
626.991	20504.43
627.185	20354.93
627.38	20080.5
627.574	20021.11
627.768	19763.07
627.963	19722.11
628.157	19490.69
628.352	19558.27
628.546	19304.32
628.74	19535.74
628.935	19304.32
629.129	19341.19
629.323	18911.11
629.517	18866.06
629.712	18786.19
629.906	18507.66
630.1	18587.54
630.294	18683.79
630.489	18364.31
630.683	18575.25
630.877	18136.98
631.071	18018.2
631.265	18184.09
631.459	18061.21
631.653	17686.43
631.848	17729.44
632.042	17610.65
632.236	17754.01
632.43	17217.44
632.624	17551.26
632.818	17029.03
633.012	17127.33
633.206	16963.5
633.4	17063.85
633.594	16783.27
633.788	16514.99
633.982	16770.99
634.176	17194.92
634.369	16428.98
634.563	16525.23
634.757	16562.09
634.951	16492.46
635.145	16209.84
635.339	16113.59
635.533	16103.35
635.726	16154.55
635.92	15968.18
636.114	15753.15
636.308	15615.93
636.501	15849.4
636.695	15732.67
636.889	15542.21
637.083	15513.53
637.276	15556.54
637.47	15486.91
637.664	15097.8
637.857	15198.15
638.051	15194.05
638.244	14809.03
638.438	14712.78
638.632	14837.7
638.825	14706.63
639.019	14802.89
639.212	14555.08
639.406	14292.94
639.599	14544.84
639.793	14491.6
639.986	14309.33
640.18	14505.93
640.373	14190.55
640.567	14206.93
640.76	13981.65
640.954	13846.49
641.147	13805.53
641.34	13692.89
641.534	13637.59
641.727	13828.06
641.92	13801.43
642.114	13580.25
642.307	13514.72
642.5	13492.19
642.694	13418.46
642.887	13178.85
643.08	13287.39
643.273	12961.76
643.467	12978.15
643.66	12687.34
643.853	12761.06
644.046	12668.91
644.239	12736.49
644.432	12834.79
644.626	12466.16
644.819	12521.45
645.012	12537.84
645.205	12263.41
645.398	12312.56
645.591	12310.51
645.784	12236.78
645.977	12232.69
646.17	11935.73
646.363	11999.22
646.556	11843.57
646.749	11876.34
646.942	11917.3
647.135	11839.48
647.328	11669.5
647.521	11519.99
647.714	11442.17
647.907	11753.46
648.099	11612.15
648.292	11522.04
648.485	11270.14
648.678	11311.1
648.871	11198.46
649.064	11196.42
649.256	11335.68
649.449	11034.63
649.642	11155.46
649.835	11114.5
650.027	10745.86
650.22	10768.39
650.413	10921.99
650.605	10813.45
650.798	10663.94
650.991	10584.07
651.183	10709
651.376	10518.54
651.568	10620.94
651.761	10487.82
651.954	10446.86
652.146	10264.59
652.339	10252.3
652.531	10201.1
652.724	10094.61
652.916	9992.21
653.109	9863.19
653.301	9969.68
653.494	9994.26
653.686	9734.17
653.879	9926.68
654.071	9793.56
654.263	9721.88
654.456	9658.39
654.648	9697.3
654.84	9441.31
655.033	9572.38
655.225	9533.47
655.417	9531.42
655.61	9414.68
655.802	9463.83
655.994	9426.97
656.186	9271.33
656.379	9330.72
656.571	9080.86
656.763	9068.58
656.955	8824.87
657.148	8992.8
657.34	9060.38
657.532	8853.54
657.724	8779.81
657.916	8847.4
658.108	8767.52
658.3	8730.66
658.492	8929.31
658.684	8644.65
658.876	8546.34
659.068	8751.14
659.26	8517.67
659.452	8513.58
659.644	8413.23
659.836	8241.2
660.028	8290.35
660.22	8370.22
660.412	8452.14
660.604	8280.11
660.796	8050.74
660.988	8198.19
661.18	7868.47
661.372	8304.68
661.563	8050.74
661.755	7876.66
661.947	8030.26
662.139	7956.53
662.331	7940.15
662.522	7757.88
662.714	7680.05
662.906	7739.44
663.097	7743.54
663.289	7718.96
663.481	7358.52
663.673	7710.77
663.864	7555.13
664.056	7379
664.247	7567.42
664.439	7325.75
664.631	7534.65
664.822	7358.52
665.014	7204.92
665.205	7376.95
665.397	7155.77
665.588	7286.84
665.78	7170.11
665.971	7133.25
666.163	7063.61
666.354	7010.37
666.546	7075.9
666.737	7043.14
666.929	6985.79
667.12	6965.31
667.311	6860.87
667.503	6907.97
667.694	6891.59
667.885	6766.66
668.077	6846.53
668.268	6699.08
668.459	6772.8
668.651	6590.53
668.842	6615.11
669.033	6520.9
669.224	6594.63
669.416	6553.67
669.607	6436.94
669.798	6518.86
669.989	6553.67
670.18	6346.83
670.371	6420.55
670.563	6484.04
670.754	6312.01
670.945	6352.97
671.136	6309.96
671.327	6236.24
671.518	6279.24
671.709	6064.21
671.9	6209.61
672.091	6221.9
672.282	6109.26
672.473	6160.46
672.664	6178.89
672.855	5941.33
673.046	6064.21
673.237	6142.03
673.428	6076.49
673.619	5929.04
673.809	5773.39
674	5916.75
674.191	5896.27
674.382	5947.47
674.573	5869.65
674.764	5800.02
674.954	5902.42
675.145	5701.72
675.336	5765.2
675.527	5666.9
675.717	5619.8
675.908	5699.67
676.099	5666.9
676.289	5734.48
676.48	5636.18
676.671	5697.62
676.861	5527.64
677.052	5507.16
677.243	5494.87
677.433	5521.49
677.624	5582.93
677.814	5464.15
678.005	5333.08
678.195	5431.38
678.386	5494.87
678.576	5390.42
678.767	5347.42
678.957	5161.05
679.148	5447.77
679.338	5466.2
679.529	5423.19
679.719	5392.47
679.909	5292.12
680.1	5257.31
680.29	5259.35
680.481	5288.03
680.671	5281.88
680.861	5140.57
681.052	5392.47
681.242	5122.14
681.432	5255.26
681.622	5142.62
681.813	5148.76
682.003	5208.16
682.193	5261.4
682.383	5191.77
682.573	5015.65
682.764	4962.4
682.954	5113.95
683.144	4978.78
683.334	5034.08
683.524	5087.33
683.714	4937.82
683.904	5113.95
684.094	5060.7
684.284	5091.42
684.474	5154.91
684.664	5056.61
684.854	4989.02
685.044	4931.68
685.234	4839.52
685.424	4743.27
685.614	4935.78
685.804	4939.87
685.994	4751.46
686.184	4915.3
686.374	4667.49
686.564	4747.36
686.753	4843.62
686.943	4659.3
687.133	4663.4
687.323	4636.77
687.513	4704.35
687.702	4620.39
687.892	4581.48
688.082	4700.26
688.272	4544.61
688.461	4511.85
688.651	4585.57
688.841	4440.17
689.03	4440.17
689.22	4423.78
689.41	4429.93
689.599	4448.36
689.789	4413.54
689.979	4491.37
690.168	4388.97
690.358	4429.93
690.547	4276.33
690.737	4290.67
690.926	4249.71
691.116	4208.75
691.305	4366.44
691.495	4178.03
691.684	4218.99
691.874	4130.92
692.063	4259.95
692.252	4212.84
692.442	4159.6
692.631	3967.09
692.82	4092.01
693.01	4114.54
693.199	4063.34
693.388	3905.65
693.578	3973.23
693.767	4153.45
693.956	4006
694.146	3999.85
694.335	3936.37
694.524	3836.02
694.713	3903.6
694.902	3860.59
695.092	3954.8
695.281	3821.68
695.47	3926.13
695.659	3813.49
695.848	3735.67
696.037	3823.73
696.226	3836.02
696.415	3864.69
696.604	3692.66
696.793	3739.76
696.982	3676.27
697.171	3741.81
697.36	3752.05
697.549	3840.11
697.738	3551.35
697.927	3651.7
698.116	3694.71
698.305	3635.32
698.494	3633.27
698.683	3561.59
698.872	3631.22
699.061	3625.08
699.25	3670.13
699.438	3643.51
699.627	3594.36
699.816	3729.52
700.005	3444.85
700.193	3567.73
700.382	3643.51
700.571	3465.33
700.76	3582.07
700.948	3577.97
701.137	3543.16
701.326	3436.66
701.514	3340.41
701.703	3553.4
701.892	3530.87
702.08	3430.52
702.269	3399.8
702.457	3283.06
702.646	3389.56
702.834	3418.23
703.023	3547.25
703.212	3344.5
703.4	3485.81
703.589	3375.22
703.777	3436.66
703.965	3242.11
704.154	3319.93
704.342	3309.69
704.531	3362.94
704.719	3340.41
704.907	3332.22
705.096	3145.85
705.284	3311.74
705.472	3221.63
705.661	3170.43
705.849	3147.9
706.037	3229.82
706.226	3301.5
706.414	3195
706.602	3176.57
706.79	3238.01
706.979	3119.23
707.167	3190.91
707.355	3231.87
707.543	3119.23
707.731	3219.58
707.919	3184.76
708.107	3209.34
708.296	3135.61
708.484	3088.51
708.672	3061.88
708.86	2973.82
709.048	3139.71
709.236	3104.89
709.424	3147.9
709.612	3100.8
709.8	3053.69
709.988	2941.05
710.176	3037.31
710.364	3033.21
710.551	3074.17
710.739	3045.5
710.927	3141.75
711.115	3020.92
711.303	3041.4
711.491	3094.65
711.679	2943.1
711.866	2990.21
712.054	2984.06
712.242	3008.64
712.43	2918.53
712.617	2891.9
712.805	2957.44
712.993	2877.57
713.181	2826.37
713.368	3035.26
713.556	2953.34
713.744	2883.71
713.931	3088.51
714.119	2873.47
714.306	2906.24
714.494	2832.51
714.682	2769.02
714.869	2777.22
715.057	2787.46
715.244	2834.56
715.432	2781.31
715.619	2814.08
715.807	2742.4
715.994	2873.47
716.182	2844.8
716.369	2781.31
716.556	2742.4
716.744	2840.7
716.931	2777.22
717.119	2795.65
717.306	2842.75
717.493	2775.17
717.681	2820.22
717.868	2840.7
718.055	2840.7
718.242	2758.78
718.43	2683.01
718.617	2674.82
718.804	2652.29
718.991	2615.43
719.179	2709.63
719.366	2701.44
719.553	2705.54
719.74	2685.06
719.927	2613.38
720.114	2750.59
720.301	2652.29
720.488	2611.33
720.676	2594.95
720.863	2631.81
721.05	2644.1
721.237	2650.24
721.424	2592.9
721.611	2588.8
721.798	2680.96
721.985	2556.04
722.172	2535.56
722.358	2627.71
722.545	2574.47
722.732	2578.56
722.919	2519.17
723.106	2570.37
723.293	2545.8
723.48	2584.71
723.667	2617.47
723.853	2439.3
724.04	2597
724.227	2537.6
724.414	2621.57
724.6	2549.89
724.787	2441.35
724.974	2570.37
725.161	2541.7
725.347	2590.85
725.534	2578.56
725.72	2465.93
725.907	2517.12
726.094	2455.69
726.28	2545.8
726.467	2459.78
726.653	2427.01
726.84	2529.41
727.027	2478.21
727.213	2402.44
727.4	2496.64
727.586	2439.3
727.773	2476.16
727.959	2373.77
728.145	2400.39
728.332	2484.36
728.518	2449.54
728.705	2474.12
728.891	2381.96
729.077	2418.82
729.264	2451.59
729.45	2259.08
729.636	2388.1
729.823	2461.83
730.009	2451.59
730.195	2459.78
730.382	2334.86
730.568	2367.62
730.754	2414.73
730.94	2412.68
731.126	2281.61
731.313	2408.58
731.499	2312.33
731.685	2349.19
731.871	2334.86
732.057	2386.05
732.243	2265.22
732.429	2361.48
732.615	2373.77
732.801	2332.81
732.987	2275.46
733.173	2341
733.359	2222.22
733.545	2281.61
733.731	2287.75
733.917	2269.32
734.103	2300.04
734.289	2291.85
734.475	2312.33
734.661	2437.25
734.847	2318.47
735.033	2285.7
735.219	2297.99
735.404	2357.38
735.59	2191.5
735.776	2236.55
735.962	2269.32
736.148	2332.81
736.333	2220.17
736.519	2230.41
736.705	2156.68
736.89	2195.59
737.076	2279.56
737.262	2140.3
737.447	2238.6
737.633	2130.06
737.819	2250.89
738.004	2211.98
738.19	2218.12
738.375	2154.63
738.561	2175.11
738.747	2158.73
738.932	2142.35
739.118	2109.58
739.303	2140.3
739.489	2134.15
739.674	2185.35
739.859	2119.82
740.045	2164.87
740.23	2171.02
740.416	2109.58
740.601	2066.57
740.786	2125.96
740.972	2021.52
741.157	2091.15
741.342	2023.56
741.528	2046.09
741.713	2042
741.898	2007.18
742.084	1980.56
742.269	2046.09
742.454	2009.23
742.639	2015.37
742.824	1947.79
743.01	2087.05
743.195	1933.45
743.38	1935.5
743.565	1882.25
743.75	2021.52
743.935	1964.17
744.12	1939.6
744.305	1964.17
744.49	1915.02
744.675	1919.12
744.86	1872.01
745.045	1779.86
745.23	1890.45
745.415	1865.87
745.6	1906.83
745.785	1943.69
745.97	1716.37
746.155	1769.62
746.34	1826.96
746.525	1759.38
746.71	1861.77
746.895	1659.03
747.079	1835.15
747.264	1693.84
747.449	1775.76
747.634	1728.66
747.819	1648.79
748.003	1726.61
748.188	1718.42
748.373	1685.65
748.557	1611.92
748.742	1702.03
748.927	1644.69
749.111	1726.61
749.296	1587.35
749.481	1562.77
749.665	1687.7
749.85	1630.35
750.034	1532.05
750.219	1573.01
750.404	1603.73
750.588	1581.2
750.773	1560.72
750.957	1521.81
751.141	1530
751.326	1509.52
751.51	1423.51
751.695	1437.84
751.879	1505.43
752.064	1437.84
752.248	1464.47
752.432	1499.28
752.617	1554.58
752.801	1431.7
752.985	1446.04
753.17	1345.69
753.354	1441.94
753.538	1431.7
753.722	1274.01
753.907	1284.25
754.091	1421.46
754.275	1388.69
754.459	1341.59
754.643	1253.53
754.828	1335.45
755.012	1398.93
755.196	1319.06
755.38	1282.2
755.564	1253.53
755.748	1329.3
755.932	1243.29
756.116	1247.38
756.3	1235.1
756.484	1284.25
756.668	1286.3
756.852	1210.52
757.036	1284.25
757.22	1165.46
757.404	1179.8
757.588	1280.15
757.772	1218.71
757.956	1194.14
758.14	1155.23
758.323	1239.19
758.507	1099.93
758.691	1177.75
758.875	1165.46
759.059	1179.8
759.242	1161.37
759.426	1015.96
759.61	1134.75
759.794	1196.18
759.977	1038.49
760.161	1169.56
760.345	1056.92
760.528	999.58
760.712	1046.68
760.895	1011.87
761.079	1120.41
761.263	1018.01
761.446	1046.68
761.63	968.86
761.813	1038.49
761.997	940.19
762.18	1034.39
762.364	999.58
762.547	932
762.731	964.76
762.914	991.39
763.098	870.56
763.281	975
763.464	956.57
763.648	1005.72
763.831	964.76
764.015	901.28
764.198	972.96
764.381	1001.63
764.564	1034.39
764.748	950.43
764.931	895.13
765.114	1036.44
765.297	1061.02
765.481	876.7
765.664	817.31
765.847	934.04
766.03	927.9
766.213	833.69
766.397	868.51
766.58	798.88
766.763	874.65
766.946	932
767.129	833.69
767.312	899.23
767.495	909.47
767.678	786.59
767.861	901.28
768.044	794.78
768.227	909.47
768.41	807.07
768.593	850.08
768.776	888.99
768.959	895.13
769.142	827.55
769.324	809.12
769.507	903.32
769.69	835.74
769.873	813.21
770.056	800.93
770.239	833.69
770.421	813.21
770.604	745.63
770.787	798.88
770.97	772.25
771.152	712.86
771.335	856.22
771.518	719.01
771.7	792.73
771.883	800.93
772.066	823.45
772.248	778.4
772.431	759.97
772.613	682.14
772.796	759.97
772.978	874.65
773.161	737.44
773.343	768.16
773.526	733.34
773.708	712.86
773.891	751.78
774.073	729.25
774.256	678.05
774.438	776.35
774.621	731.3
774.803	698.53
774.985	733.34
775.168	737.44
775.35	739.49
775.532	665.76
775.715	637.09
775.897	557.22
776.079	686.24
776.261	704.67
776.444	651.42
776.626	680.1
776.808	622.75
776.99	612.51
777.173	647.33
777.355	600.23
777.537	616.61
777.719	594.08
777.901	592.03
778.083	589.99
778.265	567.46
778.447	647.33
778.629	493.73
778.811	657.57
778.993	604.32
779.175	628.9
779.357	514.21
779.539	514.21
779.721	565.41
779.903	495.78
780.085	598.18
780.267	598.18
780.449	575.65
780.631	600.23
780.812	499.88
780.994	581.79
781.176	524.45
781.358	546.98
781.54	565.41
781.721	635.04
781.903	528.55
782.085	450.72
782.267	587.94
782.448	440.48
782.63	497.83
782.812	512.16
782.993	534.69
783.175	444.58
783.357	417.96
783.538	495.78
783.72	479.4
783.901	438.44
784.083	426.15
784.264	508.07
784.446	469.16
784.627	374.95
784.809	456.87
784.99	499.88
785.172	469.16
785.353	467.11
785.535	438.44
785.716	379.04
785.897	350.37
786.079	489.64
786.26	434.34
786.441	452.77
786.623	336.04
786.804	368.81
786.985	346.28
787.167	420
787.348	393.38
787.529	432.29
787.71	454.82
787.891	327.85
788.073	387.24
788.254	374.95
788.435	434.34
788.616	411.81
788.797	290.98
788.978	301.22
789.159	456.87
789.34	395.43
789.522	305.32
789.703	319.65
789.884	364.71
790.065	399.52
790.246	303.27
790.427	329.89
790.607	319.65
790.788	350.37
790.969	413.86
791.15	301.22
791.331	293.03
791.512	321.7
791.693	295.08
791.874	252.07
792.054	344.23
792.235	360.61
792.416	311.46
792.597	276.65
792.778	284.84
792.958	317.61
793.139	346.28
793.32	358.57
793.5	247.97
793.681	317.61
793.862	311.46
794.042	301.22
794.223	293.03
794.404	319.65
794.584	284.84
794.765	290.98
794.945	260.26
795.126	348.33
795.306	264.36
795.487	235.69
795.667	227.5
795.848	243.88
796.028	256.17
796.209	317.61
796.389	282.79
796.57	311.46
796.75	243.88
796.93	256.17
797.111	235.69
797.291	245.93
797.471	268.45
797.652	262.31
797.832	227.5
798.012	325.8
798.192	311.46
798.373	297.13
798.553	188.58
798.733	219.3
798.913	186.54
799.093	299.17
799.274	295.08
799.454	194.73
799.634	180.39
799.814	309.41
799.994	252.07
800.174	293.03
800.354	250.02
800.534	276.65
800.714	293.03
800.894	194.73
801.074	231.59
801.254	247.97
801.434	237.74
801.614	166.06
801.794	180.39
801.974	743.58
802.154	196.78
802.334	211.11
802.514	153.77
802.693	256.17
802.873	213.16
803.053	164.01
803.233	235.69
803.413	231.59
803.592	161.96
803.772	180.39
803.952	125.1
804.131	143.53
804.311	252.07
804.491	227.5
804.67	207.02
804.85	186.54
805.03	166.06
805.209	231.59
805.389	207.02
805.568	121
805.748	168.1
805.928	213.16
806.107	161.96
806.287	217.26
806.466	247.97
806.646	207.02
806.825	86.19
807.004	211.11
807.184	190.63
807.363	180.39
807.543	184.49
807.722	192.68
807.901	247.97
808.081	153.77
808.26	149.67
808.439	166.06
808.619	178.34
808.798	153.77
808.977	215.21
809.156	172.2
809.336	166.06
809.515	73.9
809.694	221.35
809.873	121
810.052	116.9
810.231	237.74
810.411	100.52
810.59	215.21
810.769	90.28
810.948	155.82
811.127	139.43
811.306	204.97
811.485	168.1
811.664	239.78
811.843	133.29
812.022	153.77
812.201	104.62
812.38	121
812.559	104.62
812.737	178.34
812.916	104.62
813.095	213.16
813.274	121
813.453	170.15
813.632	77.99
813.811	196.78
813.989	137.38
814.168	194.73
814.347	88.23
814.526	161.96
814.704	190.63
814.883	172.2
815.062	182.44
815.24	170.15
815.419	137.38
815.598	139.43
815.776	82.09
815.955	88.23
816.133	112.81
816.312	104.62
816.49	137.38
816.669	127.14
816.847	129.19
817.026	135.34
817.204	80.04
817.383	149.67
817.561	32.94
817.74	137.38
817.918	98.47
818.097	147.62
818.275	94.38
818.453	125.1
818.632	100.52
818.81	116.9
818.988	172.2
819.167	82.09
819.345	90.28
819.523	151.72
819.701	112.81
819.879	108.71
820.058	92.33
820.236	133.29
820.414	98.47
820.592	121
820.77	84.14
820.948	59.56
821.127	116.9
821.305	47.27
821.483	157.86
821.661	170.15
821.839	139.43
822.017	129.19
822.195	86.19
822.373	129.19
822.551	125.1
822.729	143.53
822.907	69.8
823.085	92.33
823.262	71.85
823.44	55.47
823.618	112.81
823.796	102.57
823.974	77.99
824.152	88.23
824.329	139.43
824.507	57.51
824.685	102.57
824.863	100.52
825.04	121
825.218	65.71
825.396	49.32
825.574	100.52
825.751	57.51
825.929	71.85
826.107	-1.88
826.284	123.05
826.462	98.47
826.639	116.9
826.817	28.84
826.994	88.23
827.172	133.29
827.349	96.43
827.527	125.1
827.704	55.47
827.882	139.43
828.059	96.43
828.237	121
828.414	92.33
828.591	75.95
828.769	112.81
828.946	34.99
829.124	137.38
829.301	125.1
829.478	88.23
829.655	63.66
829.833	73.9
830.01	75.95
830.187	123.05
830.364	43.18
830.542	37.03
830.719	75.95
830.896	155.82
831.073	37.03
831.25	26.79
831.427	55.47
831.604	55.47
831.782	20.65
831.959	96.43
832.136	84.14
832.313	47.27
832.49	37.03
832.667	133.29
832.844	71.85
833.021	69.8
833.198	73.9
833.374	49.32
833.551	41.13
833.728	49.32
833.905	104.62
834.082	14.51
834.259	86.19
834.436	145.58
834.612	47.27
834.789	112.81
834.966	32.94
835.143	90.28
835.319	55.47
835.496	92.33
835.673	73.9
835.85	104.62
836.026	59.56
836.203	100.52
836.38	108.71
836.556	71.85
836.733	73.9
836.909	80.04
837.086	61.61
837.262	28.84
837.439	129.19
837.616	116.9
837.792	6.31
837.968	80.04
838.145	75.95
838.321	-55.12
838.498	65.71
838.674	80.04
838.851	88.23
839.027	-53.08
839.203	88.23
839.38	90.28
839.556	71.85
839.732	59.56
839.909	84.14
840.085	39.08
840.261	49.32
840.437	63.66
840.614	47.27
840.79	55.47
840.966	39.08
841.142	73.9
841.318	18.6
841.494	112.81
841.671	63.66
841.847	51.37
842.023	57.51
842.199	37.03
842.375	55.47
842.551	55.47
842.727	-51.03
842.903	96.43
843.079	-20.31
843.255	59.56
843.431	6.31
843.607	71.85
843.783	-18.26
843.959	84.14
844.134	-8.02
844.31	73.9
844.486	-1.88
844.662	16.55
844.838	-51.03
845.013	71.85
845.189	51.37
845.365	69.8
845.541	69.8
845.716	4.27
845.892	73.9
846.068	39.08
846.244	-22.36
846.419	18.6
846.595	71.85
846.77	43.18
846.946	59.56
847.122	39.08
847.297	57.51
847.473	104.62
847.648	49.32
847.824	-14.17
847.999	-22.36
848.175	61.61
848.35	2.22
848.526	45.23
848.701	24.75
848.876	69.8
849.052	28.84
849.227	34.99
849.403	47.27
849.578	-3.93
849.753	4.27
849.929	84.14
850.104	32.94
850.279	-1.88
850.454	43.18
850.63	55.47
850.805	84.14
850.98	43.18
851.155	14.51
851.33	94.38
851.505	57.51
851.681	121
851.856	57.51
852.031	121
852.206	14.51
852.381	8.36
852.556	-3.93
852.731	112.81
852.906	112.81
853.081	41.13
853.256	59.56
853.431	57.51
853.606	24.75
853.781	10.41
853.956	-34.64
854.131	86.19
854.305	61.61
854.48	-5.97
854.655	55.47
854.83	16.55
855.005	-28.5
855.18	30.89
855.354	96.43
855.529	57.51
855.704	-44.88
855.879	47.27
856.053	-40.79
856.228	51.37
856.403	-1.88
856.577	45.23
856.752	16.55
856.926	55.47
857.101	16.55
857.276	20.65
857.45	-14.17
857.625	59.56
857.799	82.09
857.974	-40.79
858.148	24.75
858.323	-59.22
858.497	80.04
858.672	-8.02
858.846	8.36
859.02	51.37
859.195	28.84
859.369	55.47
859.543	47.27
859.718	67.75
859.892	55.47
860.066	10.41
860.241	24.75
860.415	-1.88
860.589	34.99
860.763	-3.93
860.938	-8.02
861.112	92.33
861.286	59.56
861.46	-26.45
861.634	88.23
861.808	22.7
861.982	14.51
862.157	4.27
862.331	0.17
862.505	18.6
862.679	24.75
862.853	22.7
863.027	88.23
863.201	39.08
863.375	6.31
863.549	-1.88
863.722	8.36
863.896	80.04
864.07	-14.17
864.244	-32.6
864.418	20.65
864.592	82.09
864.766	32.94
864.939	39.08
865.113	30.89
865.287	8.36
865.461	6.31
865.634	73.9
865.808	112.81
865.982	26.79
866.156	-24.4
866.329	6.31
866.503	106.67
866.676	4.27
866.85	-14.17
867.024	-22.36
867.197	34.99
867.371	59.56
867.544	-59.22
867.718	16.55
867.891	80.04
868.065	-22.36
868.238	49.32
868.412	-26.45
868.585	6.31
868.759	69.8
868.932	-1.88
869.105	2.22
869.279	12.46
869.452	-3.93
869.625	55.47
869.799	20.65
869.972	18.6
870.145	22.7
870.319	-26.45
870.492	41.13
870.665	-12.12
870.838	-22.36
871.011	2.22
871.185	-1.88
871.358	10.41
871.531	41.13
871.704	12.46
871.877	30.89
872.05	47.27
872.223	16.55
872.396	14.51
872.569	39.08
872.742	-14.17
872.915	0.17
873.088	-79.7
873.261	-34.64
873.434	-12.12
873.607	-30.55
873.78	24.75
873.953	-16.21
874.126	-3.93
874.299	104.62
874.471	37.03
874.644	24.75
874.817	-46.93
874.99	20.65
875.163	-5.97
875.335	-28.5
875.508	-24.4
875.681	0.17
875.853	-38.74
876.026	12.46
876.199	57.51
876.371	30.89
876.544	24.75
876.717	-8.02
876.889	41.13
877.062	6.31
877.234	6.31
877.407	0.17
877.579	-10.07
877.752	-1.88
877.924	22.7
878.097	51.37
878.269	-20.31
878.442	18.6
878.614	-63.32
878.786	2.22
878.959	-24.4
879.131	112.81
879.303	-36.69
879.476	57.51
879.648	80.04
879.82	-32.6
879.993	-5.97
880.165	32.94
880.337	-79.7
880.509	30.89
880.681	-14.17
880.854	39.08
881.026	51.37
881.198	8.36
881.37	41.13
881.542	-26.45
881.714	43.18
881.886	-28.5
882.058	4.27
882.23	-18.26
882.402	2.22
882.574	-34.64
882.746	14.51
882.918	108.71
883.09	-42.84
883.262	18.6
883.434	55.47
883.606	-18.26
883.778	-59.22
883.95	92.33
884.122	-42.84
884.293	75.95
884.465	32.94
884.637	84.14
884.809	28.84
884.98	-48.98
885.152	-10.07
885.324	-14.17
885.496	-36.69
885.667	-73.56
885.839	-73.56
886.011	84.14
886.182	10.41
886.354	6.31
886.525	34.99
886.697	-18.26
886.869	-71.51
887.04	30.89
887.212	22.7
887.383	24.75
887.555	-1.88
887.726	2.22
887.897	-38.74
888.069	67.75
888.24	30.89
888.412	14.51
888.583	-42.84
888.754	4.27
888.926	-83.8
889.097	-59.22
889.268	-18.26
889.44	69.8
889.611	14.51
889.782	-1.88
889.953	-36.69
890.125	57.51
890.296	-65.36
890.467	24.75
890.638	6.31
890.809	100.52
890.98	-71.51
891.151	24.75
891.323	-3.93
891.494	14.51
891.665	24.75
891.836	59.56
892.007	14.51
892.178	14.51
892.349	8.36
892.52	-48.98
892.691	-59.22
892.862	-30.55
893.032	-55.12
893.203	0.17
893.374	-10.07
893.545	24.75
893.716	8.36
893.887	-26.45
894.057	2.22
894.228	30.89
894.399	-98.13
894.57	34.99
894.74	-8.02
894.911	-44.88
895.082	10.41
895.253	-10.07
895.423	-22.36
895.594	0.17
895.764	-46.93
895.935	4.27
896.106	-10.07
896.276	-34.64
896.447	-44.88
896.617	30.89
896.788	-51.03
896.958	-83.8
897.129	-34.64
897.299	-24.4
897.47	18.6
897.64	-10.07
897.81	-26.45
897.981	0.17
898.151	-51.03
898.322	-85.84
898.492	-8.02
898.662	-32.6
898.832	-24.4
899.003	-26.45
899.173	-26.45
899.343	-46.93
899.513	-34.64
