Data from USB4F104151__42__14-16-45-267.txt Node

Date: Thu Mar 13 14:16:45 EDT 2025
User: louis
Spectrometer: USB4F10415
Trigger mode: 4
Integration Time (sec): 2.000000E-2
Scans to average: 1
Electric dark correction enabled: true
Nonlinearity correction enabled: false
Boxcar width: 0
XAxis mode: Wavelengths
Number of Pixels in Spectrum: 3648
>>>>>Begin Spectral Data<<<<<
178.204	-149.5
178.424	-149.5
178.644	-149.5
178.864	-118.78
179.084	-86.01
179.304	34.82
179.524	45.06
179.744	79.87
179.964	75.77
180.184	-61.44
180.404	16.38
180.624	14.34
180.844	-26.62
181.064	-61.44
181.283	-2.05
181.503	-118.78
181.723	4.1
181.943	10.24
182.163	57.34
182.383	71.68
182.602	28.67
182.822	63.49
183.042	172.03
183.262	61.44
183.482	47.1
183.701	51.2
183.921	47.1
184.141	26.62
184.361	88.06
184.58	51.2
184.8	63.49
185.02	28.67
185.239	47.1
185.459	8.19
185.679	53.25
185.898	18.43
186.118	-20.48
186.338	16.38
186.557	36.86
186.777	4.1
186.997	22.53
187.216	18.43
187.436	90.11
187.655	79.87
187.875	36.86
188.095	47.1
188.314	30.72
188.534	65.54
188.753	63.49
188.973	-2.05
189.192	143.36
189.412	28.67
189.631	8.19
189.851	47.1
190.07	-24.58
190.29	-18.43
190.509	65.54
190.729	20.48
190.948	135.17
191.168	133.12
191.387	81.92
191.607	28.67
191.826	61.44
192.045	-6.14
192.265	8.19
192.484	49.15
192.704	-18.43
192.923	30.72
193.142	198.65
193.362	98.3
193.581	32.77
193.8	-28.67
194.02	77.82
194.239	4.1
194.458	69.63
194.678	45.06
194.897	-57.34
195.116	88.06
195.335	14.34
195.555	8.19
195.774	28.67
195.993	24.58
196.212	61.44
196.432	30.72
196.651	47.1
196.87	10.24
197.089	77.82
197.308	77.82
197.528	69.63
197.747	16.38
197.966	24.58
198.185	102.4
198.404	14.34
198.623	49.15
198.842	36.86
199.062	47.1
199.281	30.72
199.5	8.19
199.719	81.92
199.938	45.06
200.157	141.31
200.376	79.87
200.595	0
200.814	45.06
201.033	-71.68
201.252	86.01
201.471	69.63
201.69	110.59
201.909	151.55
202.128	45.06
202.347	26.62
202.566	22.53
202.785	20.48
203.004	8.19
203.223	102.4
203.442	45.06
203.661	73.73
203.879	30.72
204.098	49.15
204.317	151.55
204.536	53.25
204.755	51.2
204.974	83.97
205.193	10.24
205.411	55.3
205.63	88.06
205.849	28.67
206.068	81.92
206.287	102.4
206.505	86.01
206.724	20.48
206.943	-2.05
207.162	26.62
207.381	110.59
207.599	24.58
207.818	75.77
208.037	20.48
208.255	-24.58
208.474	49.15
208.693	34.82
208.911	14.34
209.13	20.48
209.349	73.73
209.567	10.24
209.786	-14.34
210.005	36.86
210.223	55.3
210.442	47.1
210.661	83.97
210.879	18.43
211.098	86.01
211.316	20.48
211.535	57.34
211.753	16.38
211.972	47.1
212.191	-8.19
212.409	53.25
212.628	81.92
212.846	38.91
213.065	71.68
213.283	45.06
213.502	0
213.72	77.82
213.938	14.34
214.157	26.62
214.375	-28.67
214.594	-69.63
214.812	-16.38
215.031	47.1
215.249	-6.14
215.467	22.53
215.686	73.73
215.904	157.69
216.122	36.86
216.341	73.73
216.559	8.19
216.778	61.44
216.996	126.97
217.214	47.1
217.432	26.62
217.651	36.86
217.869	-65.53
218.087	4.1
218.306	-8.19
218.524	61.44
218.742	43.01
218.96	22.53
219.179	45.06
219.397	20.48
219.615	30.72
219.833	141.31
220.051	69.63
220.27	94.21
220.488	36.86
220.706	67.58
220.924	81.92
221.142	20.48
221.36	77.82
221.578	36.86
221.796	30.72
222.015	53.25
222.233	45.06
222.451	114.69
222.669	0
222.887	114.69
223.105	12.29
223.323	-69.63
223.541	4.1
223.759	65.54
223.977	-32.77
224.195	98.3
224.413	8.19
224.631	-8.19
224.849	26.62
225.067	59.39
225.285	22.53
225.503	53.25
225.721	-10.24
225.939	0
226.157	77.82
226.375	106.49
226.592	-6.14
226.81	24.58
227.028	36.86
227.246	47.1
227.464	-53.25
227.682	12.29
227.9	20.48
228.117	38.91
228.335	34.82
228.553	-53.25
228.771	65.54
228.989	38.91
229.206	155.65
229.424	38.91
229.642	40.96
229.86	86.01
230.077	65.54
230.295	90.11
230.513	-4.1
230.731	59.39
230.948	57.34
231.166	135.17
231.384	0
231.601	65.54
231.819	106.49
232.037	20.48
232.254	4.1
232.472	-53.25
232.689	-4.1
232.907	71.68
233.125	49.15
233.342	55.3
233.56	88.06
233.777	-69.63
233.995	73.73
234.213	69.63
234.43	94.21
234.648	-49.15
234.865	69.63
235.083	57.34
235.3	4.1
235.518	116.73
235.735	86.01
235.953	124.93
236.17	51.2
236.388	71.68
236.605	69.63
236.822	36.86
237.04	32.77
237.257	104.45
237.475	53.25
237.692	73.73
237.909	14.34
238.127	40.96
238.344	69.63
238.562	20.48
238.779	8.19
238.996	53.25
239.214	20.48
239.431	53.25
239.648	8.19
239.865	12.29
240.083	112.64
240.3	45.06
240.517	-18.43
240.735	34.82
240.952	57.34
241.169	-6.14
241.386	14.34
241.603	-10.24
241.821	36.86
242.038	53.25
242.255	88.06
242.472	32.77
242.689	40.96
242.907	92.16
243.124	57.34
243.341	24.58
243.558	43.01
243.775	34.82
243.992	-4.1
244.209	-22.53
244.426	118.78
244.643	79.87
244.86	34.82
245.078	45.06
245.295	98.3
245.512	45.06
245.729	47.1
245.946	43.01
246.163	32.77
246.38	8.19
246.597	96.25
246.814	22.53
247.031	126.97
247.248	45.06
247.464	63.49
247.681	-10.24
247.898	-12.29
248.115	73.73
248.332	-61.44
248.549	67.58
248.766	63.49
248.983	4.1
249.2	65.54
249.417	28.67
249.633	4.1
249.85	30.72
250.067	77.82
250.284	49.15
250.501	6.14
250.717	47.1
250.934	12.29
251.151	126.97
251.368	4.1
251.585	69.63
251.801	55.3
252.018	43.01
252.235	51.2
252.451	43.01
252.668	-67.58
252.885	53.25
253.102	71.68
253.318	102.4
253.535	12.29
253.752	-4.1
253.968	28.67
254.185	-24.58
254.401	86.01
254.618	32.77
254.835	59.39
255.051	67.58
255.268	36.86
255.484	79.87
255.701	49.15
255.917	69.63
256.134	-12.29
256.351	57.34
256.567	45.06
256.784	36.86
257	45.06
257.217	53.25
257.433	-16.38
257.65	63.49
257.866	0
258.082	69.63
258.299	-4.1
258.515	28.67
258.732	8.19
258.948	20.48
259.165	45.06
259.381	36.86
259.597	34.82
259.814	-45.06
260.03	53.25
260.246	110.59
260.463	26.62
260.679	90.11
260.895	57.34
261.112	49.15
261.328	104.45
261.544	22.53
261.761	141.31
261.977	14.34
262.193	22.53
262.409	-12.29
262.626	16.38
262.842	12.29
263.058	12.29
263.274	102.4
263.49	88.06
263.707	36.86
263.923	77.82
264.139	12.29
264.355	86.01
264.571	94.21
264.787	63.49
265.004	12.29
265.22	38.91
265.436	61.44
265.652	28.67
265.868	45.06
266.084	110.59
266.3	55.3
266.516	57.34
266.732	102.4
266.948	8.19
267.164	79.87
267.38	81.92
267.596	20.48
267.812	167.93
268.028	40.96
268.244	34.82
268.46	40.96
268.676	30.72
268.892	-6.14
269.108	-57.34
269.324	-16.38
269.54	90.11
269.756	45.06
269.972	-28.67
270.188	65.54
270.403	30.72
270.619	110.59
270.835	4.1
271.051	-28.67
271.267	73.73
271.483	40.96
271.698	26.62
271.914	94.21
272.13	12.29
272.346	22.53
272.562	49.15
272.777	143.36
272.993	34.82
273.209	-4.1
273.425	94.21
273.64	24.58
273.856	18.43
274.072	63.49
274.287	20.48
274.503	69.63
274.719	45.06
274.934	57.34
275.15	12.29
275.366	47.1
275.581	49.15
275.797	45.06
276.012	-32.77
276.228	71.68
276.444	57.34
276.659	67.58
276.875	90.11
277.09	36.86
277.306	-36.86
277.521	4.1
277.737	-28.67
277.952	61.44
278.168	53.25
278.383	57.34
278.599	12.29
278.814	-51.2
279.03	-20.48
279.245	55.3
279.461	40.96
279.676	22.53
279.892	10.24
280.107	0
280.322	51.2
280.538	53.25
280.753	73.73
280.969	45.06
281.184	53.25
281.399	51.2
281.615	71.68
281.83	63.49
282.045	20.48
282.26	43.01
282.476	40.96
282.691	55.3
282.906	26.62
283.122	141.31
283.337	-8.19
283.552	73.73
283.767	4.1
283.983	47.1
284.198	61.44
284.413	20.48
284.628	-28.67
284.843	26.62
285.058	36.86
285.274	51.2
285.489	65.54
285.704	51.2
285.919	-4.1
286.134	8.19
286.349	55.3
286.564	24.58
286.779	135.17
286.995	96.25
287.21	24.58
287.425	57.34
287.64	6.14
287.855	94.21
288.07	47.1
288.285	36.86
288.5	71.68
288.715	98.3
288.93	57.34
289.145	73.73
289.36	53.25
289.575	51.2
289.79	65.54
290.004	24.58
290.219	86.01
290.434	63.49
290.649	12.29
290.864	94.21
291.079	22.53
291.294	81.92
291.509	4.1
291.724	26.62
291.938	59.39
292.153	147.45
292.368	63.49
292.583	81.92
292.798	22.53
293.012	65.54
293.227	59.39
293.442	63.49
293.657	59.39
293.871	45.06
294.086	77.82
294.301	14.34
294.516	57.34
294.73	-6.14
294.945	-18.43
295.16	2.05
295.374	126.97
295.589	106.49
295.804	69.63
296.018	47.1
296.233	90.11
296.447	36.86
296.662	4.1
296.877	38.91
297.091	38.91
297.306	30.72
297.52	32.77
297.735	51.2
297.949	69.63
298.164	79.87
298.378	-8.19
298.593	8.19
298.807	0
299.022	6.14
299.236	67.58
299.451	155.65
299.665	73.73
299.88	77.82
300.094	40.96
300.309	16.38
300.523	40.96
300.737	14.34
300.952	38.91
301.166	86.01
301.381	34.82
301.595	16.38
301.809	94.21
302.024	86.01
302.238	-2.05
302.452	90.11
302.667	32.77
302.881	86.01
303.095	106.49
303.309	77.82
303.524	73.73
303.738	92.16
303.952	-38.91
304.166	61.44
304.381	10.24
304.595	24.58
304.809	30.72
305.023	12.29
305.237	18.43
305.452	69.63
305.666	112.64
305.88	-12.29
306.094	-20.48
306.308	40.96
306.522	38.91
306.736	77.82
306.95	63.49
307.164	53.25
307.379	20.48
307.593	135.17
307.807	22.53
308.021	79.87
308.235	-38.91
308.449	30.72
308.663	30.72
308.877	53.25
309.091	112.64
309.305	79.87
309.519	4.1
309.733	94.21
309.947	2.05
310.161	24.58
310.374	94.21
310.588	94.21
310.802	-28.67
311.016	-4.1
311.23	53.25
311.444	0
311.658	10.24
311.872	69.63
312.085	108.54
312.299	86.01
312.513	55.3
312.727	61.44
312.941	22.53
313.154	32.77
313.368	12.29
313.582	16.38
313.796	38.91
314.009	108.54
314.223	0
314.437	90.11
314.651	86.01
314.864	36.86
315.078	22.53
315.292	47.1
315.505	43.01
315.719	53.25
315.933	63.49
316.146	26.62
316.36	22.53
316.573	102.4
316.787	40.96
317.001	45.06
317.214	24.58
317.428	116.73
317.641	36.86
317.855	0
318.068	63.49
318.282	-18.43
318.495	61.44
318.709	45.06
318.922	-36.86
319.136	79.87
319.349	81.92
319.563	2.05
319.776	51.2
319.99	24.58
320.203	102.4
320.417	73.73
320.63	61.44
320.843	126.97
321.057	129.02
321.27	133.12
321.483	118.78
321.697	110.59
321.91	36.86
322.124	83.97
322.337	110.59
322.55	73.73
322.763	30.72
322.977	-2.05
323.19	83.97
323.403	69.63
323.617	102.4
323.83	24.58
324.043	18.43
324.256	-6.14
324.469	102.4
324.683	106.49
324.896	63.49
325.109	38.91
325.322	-28.67
325.535	106.49
325.748	43.01
325.962	36.86
326.175	53.25
326.388	63.49
326.601	63.49
326.814	86.01
327.027	43.01
327.24	98.3
327.453	47.1
327.666	102.4
327.879	24.58
328.092	102.4
328.305	71.68
328.518	71.68
328.731	108.54
328.944	53.25
329.157	63.49
329.37	38.91
329.583	38.91
329.796	143.36
330.009	69.63
330.222	65.54
330.435	20.48
330.648	61.44
330.861	45.06
331.073	110.59
331.286	-14.34
331.499	67.58
331.712	79.87
331.925	30.72
332.138	-4.1
332.35	67.58
332.563	53.25
332.776	61.44
332.989	8.19
333.202	61.44
333.414	63.49
333.627	106.49
333.84	86.01
334.053	45.06
334.265	18.43
334.478	18.43
334.691	-2.05
334.903	28.67
335.116	118.78
335.329	47.1
335.541	30.72
335.754	36.86
335.966	73.73
336.179	69.63
336.392	28.67
336.604	30.72
336.817	55.3
337.029	77.82
337.242	77.82
337.454	61.44
337.667	-20.48
337.88	38.91
338.092	69.63
338.305	86.01
338.517	-2.05
338.729	112.64
338.942	67.58
339.154	16.38
339.367	-30.72
339.579	100.35
339.792	-6.14
340.004	45.06
340.217	30.72
340.429	0
340.641	51.2
340.854	71.68
341.066	32.77
341.278	102.4
341.491	141.31
341.703	114.69
341.915	-12.29
342.128	102.4
342.34	-8.19
342.552	10.24
342.764	-4.1
342.977	34.82
343.189	30.72
343.401	43.01
343.613	-69.63
343.826	49.15
344.038	-6.14
344.25	14.34
344.462	-14.34
344.674	90.11
344.886	45.06
345.099	135.17
345.311	59.39
345.523	20.48
345.735	-2.05
345.947	139.26
346.159	81.92
346.371	-4.1
346.583	-6.14
346.795	77.82
347.007	57.34
347.219	71.68
347.431	-49.15
347.643	126.97
347.855	-59.39
348.067	61.44
348.279	73.73
348.491	53.25
348.703	-4.1
348.915	94.21
349.127	86.01
349.339	79.87
349.551	59.39
349.763	26.62
349.975	75.77
350.187	110.59
350.399	129.02
350.61	61.44
350.822	59.39
351.034	57.34
351.246	28.67
351.458	126.97
351.669	77.82
351.881	88.06
352.093	-8.19
352.305	73.73
352.517	106.49
352.728	131.07
352.94	38.91
353.152	86.01
353.363	104.45
353.575	51.2
353.787	102.4
353.999	55.3
354.21	36.86
354.422	88.06
354.633	71.68
354.845	90.11
355.057	63.49
355.268	98.3
355.48	38.91
355.692	47.1
355.903	-4.1
356.115	61.44
356.326	32.77
356.538	110.59
356.749	114.69
356.961	79.87
357.172	114.69
357.384	14.34
357.595	153.6
357.807	28.67
358.018	45.06
358.23	61.44
358.441	135.17
358.653	137.21
358.864	53.25
359.075	38.91
359.287	100.35
359.498	98.3
359.709	100.35
359.921	69.63
360.132	106.49
360.344	53.25
360.555	4.1
360.766	53.25
360.977	88.06
361.189	6.14
361.4	26.62
361.611	143.36
361.823	65.54
362.034	110.59
362.245	65.54
362.456	20.48
362.667	30.72
362.879	45.06
363.09	61.44
363.301	135.17
363.512	-6.14
363.723	14.34
363.935	83.97
364.146	73.73
364.357	32.77
364.568	96.25
364.779	28.67
364.99	71.68
365.201	79.87
365.412	98.3
365.623	24.58
365.834	43.01
366.045	-12.29
366.256	45.06
366.467	63.49
366.678	71.68
366.889	22.53
367.1	4.1
367.311	77.82
367.522	129.02
367.733	77.82
367.944	98.3
368.155	-28.67
368.366	118.78
368.577	57.34
368.788	59.39
368.999	45.06
369.209	61.44
369.42	155.65
369.631	69.63
369.842	45.06
370.053	8.19
370.264	8.19
370.474	-22.53
370.685	96.25
370.896	96.25
371.107	81.92
371.317	55.3
371.528	65.54
371.739	108.54
371.95	49.15
372.16	96.25
372.371	69.63
372.582	-22.53
372.792	104.45
373.003	45.06
373.214	28.67
373.424	118.78
373.635	79.87
373.846	36.86
374.056	53.25
374.267	61.44
374.477	63.49
374.688	12.29
374.898	135.17
375.109	65.54
375.319	47.1
375.53	79.87
375.74	53.25
375.951	63.49
376.161	120.83
376.372	96.25
376.582	77.82
376.793	96.25
377.003	40.96
377.214	81.92
377.424	57.34
377.635	30.72
377.845	38.91
378.055	94.21
378.266	-22.53
378.476	32.77
378.686	32.77
378.897	94.21
379.107	20.48
379.317	79.87
379.528	86.01
379.738	79.87
379.948	49.15
380.158	55.3
380.369	40.96
380.579	69.63
380.789	53.25
380.999	124.93
381.21	96.25
381.42	188.41
381.63	28.67
381.84	112.64
382.05	-16.38
382.261	69.63
382.471	65.54
382.681	55.3
382.891	73.73
383.101	92.16
383.311	36.86
383.521	59.39
383.731	90.11
383.941	120.83
384.151	43.01
384.361	71.68
384.571	40.96
384.781	96.25
384.991	167.93
385.201	47.1
385.411	98.3
385.621	81.92
385.831	47.1
386.041	40.96
386.251	-18.43
386.461	71.68
386.671	65.54
386.881	110.59
387.091	79.87
387.301	112.64
387.511	20.48
387.72	90.11
387.93	157.69
388.14	28.67
388.35	86.01
388.56	28.67
388.769	12.29
388.979	65.54
389.189	155.65
389.399	81.92
389.609	73.73
389.818	86.01
390.028	71.68
390.238	210.94
390.447	45.06
390.657	129.02
390.867	36.86
391.076	4.1
391.286	57.34
391.496	28.67
391.705	94.21
391.915	196.61
392.125	-4.1
392.334	61.44
392.544	92.16
392.753	98.3
392.963	98.3
393.172	135.17
393.382	120.83
393.591	114.69
393.801	65.54
394.01	98.3
394.22	61.44
394.429	55.3
394.639	81.92
394.848	184.32
395.058	20.48
395.267	94.21
395.477	188.41
395.686	110.59
395.895	153.6
396.105	172.03
396.314	151.55
396.524	59.39
396.733	149.5
396.942	147.45
397.152	169.98
397.361	139.26
397.57	55.3
397.78	94.21
397.989	45.06
398.198	167.93
398.407	57.34
398.617	221.18
398.826	133.12
399.035	57.34
399.244	137.21
399.453	163.84
399.663	110.59
399.872	143.36
400.081	143.36
400.29	176.13
400.499	133.12
400.708	147.45
400.917	129.02
401.127	153.6
401.336	143.36
401.545	184.32
401.754	129.02
401.963	129.02
402.172	114.69
402.381	153.6
402.59	135.17
402.799	159.74
403.008	202.75
403.217	219.13
403.426	118.78
403.635	129.02
403.844	167.93
404.053	184.32
404.262	122.88
404.471	219.13
404.68	194.56
404.888	178.17
405.097	221.18
405.306	145.41
405.515	229.37
405.724	141.31
405.933	192.51
406.142	210.94
406.35	266.24
406.559	225.28
406.768	249.85
406.977	286.72
407.185	260.09
407.394	290.81
407.603	219.13
407.812	311.29
408.02	282.62
408.229	282.62
408.438	233.47
408.646	251.9
408.855	335.87
409.064	372.73
409.272	366.59
409.481	421.88
409.69	307.2
409.898	356.35
410.107	339.96
410.315	360.44
410.524	382.97
410.733	382.97
410.941	350.2
411.15	464.89
411.358	503.8
411.567	516.09
411.775	520.18
411.984	565.24
412.192	542.71
412.401	485.37
412.609	536.57
412.818	651.25
413.026	620.53
413.234	604.15
413.443	659.45
413.651	632.82
413.86	700.41
414.068	765.94
414.276	749.56
414.485	761.84
414.693	794.61
414.901	851.96
415.11	827.38
415.318	882.67
415.526	874.48
415.734	905.2
415.943	933.87
416.151	1026.03
416.359	972.79
416.567	1017.84
416.776	1054.7
416.984	1284.08
417.192	1116.14
417.4	1234.93
417.608	1157.1
417.817	1288.17
418.025	1353.71
418.233	1331.18
418.441	1310.7
418.649	1546.22
418.857	1513.45
419.065	1458.15
419.273	1511.4
419.481	1636.33
419.689	1718.25
419.897	1802.21
420.105	1814.5
420.313	1773.54
420.521	1886.18
420.729	1955.81
420.937	2095.07
421.145	2201.57
421.353	2193.37
421.561	2230.24
421.769	2301.92
421.977	2387.93
422.185	2461.66
422.393	2531.29
422.601	2930.64
422.809	2660.31
423.017	2748.37
423.224	2756.57
423.432	2908.12
423.64	2887.64
423.848	3223.5
424.056	2994.13
424.263	3424.2
424.471	3477.45
424.679	3555.27
424.887	3743.69
425.094	3631.05
425.302	3764.17
425.51	3887.04
425.718	4167.62
425.925	4042.69
426.133	4194.24
426.341	4431.8
426.548	4689.85
426.756	4620.22
426.964	4763.58
427.171	4945.84
427.379	5003.19
427.586	5148.59
427.794	5289.9
428.001	5447.6
428.209	5734.31
428.417	5679.02
428.624	6008.74
428.832	6143.91
429.039	6135.71
429.247	6068.13
429.454	6614.94
429.662	6959
429.869	6561.69
430.076	7104.4
430.284	7049.11
430.491	7358.35
430.699	7524.24
430.906	7630.73
431.114	7540.62
431.321	7958.41
431.528	8075.14
431.736	8499.07
431.943	9045.88
432.15	8824.7
432.358	8791.93
432.565	9203.57
432.772	9185.14
432.979	9860.97
433.187	9973.61
433.394	9965.42
433.601	10579.81
433.808	10710.88
434.016	10620.77
434.223	11046.74
434.43	11691.85
434.637	11507.54
434.844	12277.57
435.052	12709.69
435.259	12416.83
435.466	12472.13
435.673	12361.54
435.88	13133.62
436.087	13719.34
436.294	13827.88
436.501	13322.04
436.708	14079.79
436.915	14374.69
437.122	14888.73
437.329	14901.02
437.537	15519.51
437.743	15562.51
437.95	15320.85
438.157	16527.11
438.364	16731.9
438.571	16852.73
438.778	17010.43
438.985	18280.17
439.192	17594.1
439.399	18274.03
439.606	17764.08
439.813	18800.35
440.02	19787.47
440.227	19484.37
440.433	19492.57
440.64	20149.96
440.847	19928.78
441.054	20385.48
441.261	21876.4
441.467	21563.06
441.674	22027.95
441.881	22681.25
442.088	22501.03
442.294	22458.03
442.501	22853.28
442.708	23416.47
442.914	24172.18
443.121	25538.17
443.328	24579.72
443.534	26504.81
443.741	25628.28
443.948	25521.79
444.154	26986.08
444.361	27246.18
444.568	27252.32
444.774	26998.37
444.981	27448.93
445.187	28122.71
445.394	29296.19
445.6	28991.05
445.807	31862.3
446.013	30770.73
446.22	31215.14
446.426	32517.65
446.633	32497.17
446.839	33707.52
447.046	32220.69
447.252	34166.26
447.459	34055.67
447.665	33922.55
447.871	35470.82
448.078	36570.58
448.284	35018.22
448.491	36259.29
448.697	37393.86
448.903	38176.19
449.11	38163.9
449.316	37809.6
449.522	38188.47
449.728	39222.7
449.935	39724.45
450.141	39615.91
450.347	40623.51
450.553	39038.38
450.76	40064.41
450.966	41067.92
451.172	40455.57
451.378	41608.58
451.584	40791.44
451.791	41796.99
451.997	42032.51
452.203	42263.93
452.409	42489.21
452.615	42231.16
452.821	40717.71
453.027	40344.98
453.233	42196.35
453.44	40762.77
453.646	40992.14
453.852	41651.59
454.058	41999.74
454.264	40498.58
454.47	41692.55
454.676	40367.51
454.882	42044.8
455.088	38266.3
455.294	38825.39
455.5	39605.67
455.705	39843.23
455.911	38448.57
456.117	37864.89
456.323	37156.3
456.529	35519.97
456.735	37135.82
456.941	35694.05
457.147	35155.43
457.352	34303.48
457.558	33672.7
457.764	33881.6
457.97	33299.97
458.176	32542.22
458.381	32687.63
458.587	30985.77
458.793	31006.25
458.999	29331.01
459.204	31604.25
459.41	30549.55
459.616	28794.44
459.821	28882.5
460.027	28894.79
460.233	28079.7
460.438	27086.43
460.644	27031.14
460.85	25712.25
461.055	25022.08
461.261	25435.77
461.466	23379.61
461.672	22959.78
461.878	24225.42
462.083	22595.24
462.289	22566.57
462.494	21835.44
462.7	21294.78
462.905	20526.79
463.111	21315.26
463.316	21210.81
463.522	20866.75
463.727	20995.78
463.932	21188.28
464.138	20618.95
464.343	20539.08
464.549	20125.39
464.754	20743.88
464.959	20721.35
465.165	19982.03
465.37	19728.08
465.575	18763.49
465.781	19873.49
465.986	19949.26
466.191	19230.43
466.397	18876.13
466.602	17870.58
466.807	18665.19
467.012	18548.45
467.218	18521.83
467.423	18233.07
467.628	18304.74
467.833	19068.64
468.038	18286.31
468.244	17729.27
468.449	18618.08
468.654	17997.55
468.859	17710.83
469.064	17878.77
469.269	17286.9
469.474	16992
469.679	17655.54
469.885	16985.85
470.09	17278.71
470.295	16942.85
470.5	16649.99
470.705	16832.26
470.91	16359.17
471.115	16420.61
471.32	16727.81
471.525	16494.34
471.73	15838.99
471.935	15838.99
472.139	15599.38
472.344	15730.45
472.549	15492.88
472.754	15406.87
472.959	15118.11
473.164	14608.16
473.369	14501.67
473.574	15013.66
473.778	14792.48
473.983	14798.62
474.188	14671.65
474.393	14135.08
474.598	14429.99
474.802	13963.05
475.007	13872.94
475.212	14090.02
475.417	13326.13
475.621	13526.83
475.826	13537.07
476.031	13193.01
476.235	12912.44
476.44	12986.17
476.645	12973.88
476.849	13068.09
477.054	12721.98
477.259	12687.17
477.463	12560.19
477.668	12447.55
477.872	12375.88
478.077	12185.41
478.282	11792.2
478.486	11800.4
478.691	11738.96
478.895	11831.12
479.1	11607.89
479.304	11691.85
479.509	11341.65
479.713	11548.5
479.918	11501.39
480.122	11075.41
480.326	11370.32
480.531	11439.95
480.735	11214.68
480.94	11206.48
481.144	11384.66
481.348	10805.08
481.553	11024.22
481.757	10565.47
481.961	10905.43
482.166	11087.7
482.37	11118.42
482.574	10757.98
482.778	10698.59
482.983	10973.02
483.187	10899.29
483.391	10882.91
483.595	10727.26
483.8	10418.02
484.004	10743.64
484.208	11038.55
484.412	10895.19
484.616	10903.39
484.821	10841.95
485.025	10465.12
485.229	10944.34
485.433	10622.81
485.637	10923.87
485.841	10645.34
486.045	10768.22
486.249	10639.2
486.453	10600.29
486.657	10794.84
486.861	10835.8
487.065	10604.38
487.269	10786.65
487.473	10463.07
487.677	10876.76
487.881	11036.5
488.085	10739.55
488.289	10950.49
488.493	10829.66
488.697	11034.46
488.901	10907.48
489.105	10878.81
489.309	10893.15
489.512	11013.98
489.716	10880.86
489.92	11011.93
490.124	11056.98
490.328	11030.36
490.531	10850.14
490.735	11046.74
490.939	11089.75
491.143	10962.78
491.346	11134.81
491.55	11288.4
491.754	11079.51
491.958	11394.9
492.161	11368.27
492.365	11394.9
492.569	11323.22
492.772	11450.19
492.976	11640.65
493.18	11575.12
493.383	11722.57
493.587	11710.29
493.79	11953.99
493.994	11704.14
494.197	11800.4
494.401	11882.31
494.605	11874.12
494.808	12287.81
495.012	12164.93
495.215	12242.76
495.419	12310.34
495.622	12349.25
495.825	12400.45
496.029	12627.78
496.232	12713.79
496.436	12844.86
496.639	13049.66
496.843	13072.18
497.046	13256.5
497.249	13336.37
497.453	13406
497.656	13467.44
497.859	13561.65
498.063	13670.19
498.266	13934.38
498.469	13879.08
498.673	14169.9
498.876	14133.03
499.079	14401.32
499.282	14380.84
499.485	14827.29
499.689	15030.04
499.892	15101.72
500.095	15251.22
500.298	15521.56
500.501	15195.93
500.705	15619.86
500.908	15949.58
501.111	15828.75
501.314	16121.61
501.517	16367.37
501.72	16658.18
501.923	16475.91
502.126	16594.69
502.329	17184.51
502.532	17397.49
502.735	17278.71
502.938	17465.08
503.141	17858.29
503.344	18290.41
503.547	18124.52
503.75	18362.09
503.953	18575.08
504.156	18910.94
504.359	18986.72
504.562	19052.25
504.765	19584.73
504.968	19551.96
505.17	20098.77
505.373	19564.25
505.576	20072.14
505.779	20369.1
505.982	20553.41
506.185	20946.62
506.387	20860.61
506.59	21270.2
506.793	21710.52
506.996	21556.92
507.198	22066.86
507.401	21880.5
507.604	22267.56
507.807	22695.59
508.009	22685.35
508.212	22847.14
508.415	23160.48
508.617	23686.81
508.82	23813.78
509.022	23533.21
509.225	24016.53
509.428	24282.77
509.63	24391.31
509.833	24571.53
510.035	25409.15
510.238	25278.08
510.44	25435.77
510.643	25837.17
510.845	26011.25
511.048	25972.34
511.25	26168.94
511.453	26582.63
511.655	27453.02
511.858	26955.36
512.06	27332.19
512.262	28147.28
512.465	27582.04
512.667	28343.89
512.87	28626.51
513.072	28608.08
513.274	29214.27
513.477	29544
513.679	29873.72
513.881	29732.41
514.084	29998.65
514.286	30137.91
514.488	30424.62
514.69	31399.46
514.893	31051.3
515.095	31436.32
515.297	31542.81
515.499	31847.96
515.701	32466.45
515.904	32626.19
516.106	33035.78
516.308	33164.81
516.51	33742.33
516.712	33365.51
516.914	33920.51
517.116	34397.68
517.318	34688.49
517.52	34586.1
517.722	34819.56
517.925	35331.56
518.127	35829.21
518.329	35796.45
518.531	36064.73
518.733	36707.79
518.935	36988.36
519.136	36955.6
519.338	37635.52
519.54	37705.15
519.742	38000.06
519.944	37821.89
520.146	38325.69
520.348	38755.76
520.55	39122.35
520.752	39122.35
520.954	39839.14
521.155	39310.76
521.357	40175
521.559	40197.53
521.761	40918.42
521.963	40445.33
522.164	40992.14
522.366	41375.11
522.568	41770.37
522.77	42085.76
522.971	42501.5
523.173	42245.5
523.375	42366.33
523.576	42771.83
523.778	42685.81
523.98	43160.94
524.181	43836.77
524.383	43218.28
524.584	43679.08
524.786	43967.84
524.988	43550.06
525.189	44123.49
525.391	44549.46
525.592	44827.99
525.794	45131.09
525.995	45139.28
526.197	45047.12
526.398	45524.3
526.6	45671.75
526.801	45983.04
527.003	45620.55
527.204	45784.39
527.406	46071.1
527.607	46212.41
527.808	46474.55
528.01	46024
528.211	46163.26
528.412	47035.7
528.614	46906.68
528.815	47076.66
529.016	47504.68
529.218	46992.69
529.419	47703.34
529.62	47045.94
529.822	47379.76
530.023	47836.45
530.224	47418.67
530.425	47600.94
530.626	47326.51
530.828	47752.49
531.029	48194.85
531.23	47701.29
531.431	47754.54
531.632	47793.45
531.833	48284.96
532.035	48063.78
532.236	48022.82
532.437	48002.34
532.638	47613.23
532.839	48108.83
533.04	48016.68
533.241	47670.57
533.442	48735.51
533.643	48262.43
533.844	48272.67
534.045	48149.79
534.246	47629.61
534.447	48104.74
534.648	48317.73
534.849	48352.54
535.05	47752.49
535.251	48459.04
535.451	48450.84
535.652	48143.65
535.853	48078.11
536.054	48088.35
536.255	48479.52
536.456	47809.83
536.657	48682.27
536.857	48293.15
537.058	47969.57
537.259	48487.71
537.46	48278.82
537.66	47863.08
537.861	48268.58
538.062	48145.7
538.263	48370.97
538.463	48022.82
538.664	47852.84
538.865	48110.88
539.065	48440.6
539.266	47660.33
539.466	48526.62
539.667	48035.11
539.868	48596.25
540.068	48076.07
540.269	47906.08
540.469	48454.94
540.67	47715.62
540.87	47854.89
541.071	47934.76
541.271	47820.07
541.472	47772.97
541.672	47703.34
541.873	47609.13
542.073	47250.74
542.274	48368.93
542.474	47615.27
542.675	47457.58
542.875	48514.33
543.075	47510.83
543.276	47402.28
543.476	48264.48
543.676	47406.38
543.877	47842.6
544.077	47662.38
544.277	47613.23
544.478	47699.24
544.678	47869.22
544.878	47645.99
545.078	47645.99
545.279	47633.71
545.479	47703.34
545.679	47600.94
545.879	47637.8
546.079	47664.42
546.28	47648.04
546.48	46906.68
546.68	47723.82
546.88	47467.82
547.08	47449.39
547.28	47365.42
547.48	47174.96
547.68	47908.13
547.88	46953.78
548.081	47523.11
548.281	47559.98
548.481	47666.47
548.681	47531.31
548.881	47267.12
549.081	47469.87
549.28	47220.02
549.48	47512.88
549.68	47346.99
549.88	48024.87
550.08	47473.96
550.28	47117.62
550.48	47064.37
550.68	47553.83
550.88	46945.59
551.08	47258.93
551.279	47275.31
551.479	47033.65
551.679	47140.14
551.879	46953.78
552.079	47326.51
552.278	47357.23
552.478	47310.13
552.678	47047.99
552.878	47535.4
553.077	47068.47
553.277	46806.33
553.477	47547.69
553.676	46961.97
553.876	47349.04
554.076	46755.13
554.275	46966.07
554.475	46351.68
554.674	46931.25
554.874	47189.3
555.074	46781.75
555.273	46976.31
555.473	46951.73
555.672	46728.5
555.872	46292.29
556.071	46714.17
556.271	46857.52
556.47	46417.21
556.67	46103.87
556.869	46597.43
557.068	46953.78
557.268	46507.32
557.467	46312.77
557.667	46288.19
557.866	46671.16
558.065	46034.24
558.265	45647.18
558.464	46310.72
558.663	46234.94
558.863	45722.95
559.062	46949.68
559.261	45884.74
559.461	46413.12
559.66	45546.82
559.859	46265.66
560.058	45428.04
560.258	46191.94
560.457	45737.29
560.656	45692.23
560.855	45667.66
561.054	45915.46
561.253	45282.64
561.453	46079.3
561.652	45667.66
561.851	45610.31
562.05	45501.77
562.249	45102.42
562.448	45466.95
562.647	45686.09
562.846	44920.15
563.045	45469
563.244	44842.32
563.443	45473.1
563.642	44176.73
563.841	44639.57
564.04	44762.45
564.239	45129.04
564.438	44172.64
564.637	44928.34
564.836	44885.33
565.035	44225.89
565.234	44270.94
565.432	44322.14
565.631	44547.42
565.83	45088.08
566.029	44139.87
566.228	44037.47
566.427	43914.59
566.625	44107.1
566.824	43812.2
567.023	43734.37
567.222	43042.16
567.42	44135.77
567.619	43910.5
567.818	43320.68
568.016	43181.42
568.215	43804
568.414	43656.55
568.612	43709.8
568.811	43236.72
569.01	42888.56
569.208	42982.77
569.407	43273.58
569.605	42571.13
569.804	43255.15
570.002	42460.54
570.201	42812.79
570.4	42573.17
570.598	42577.27
570.797	42067.33
570.995	42698.1
571.193	41956.74
571.392	42456.44
571.59	41944.45
571.789	41846.15
571.987	41776.51
572.186	41987.46
572.384	41717.12
572.582	41977.22
572.781	41905.54
572.979	41366.92
573.177	41315.72
573.376	41383.3
573.574	41188.75
573.772	41534.85
573.971	41117.07
574.169	40981.9
574.367	40986
574.565	41131.4
574.763	40510.87
574.962	40553.88
575.16	40240.54
575.358	40541.59
575.556	39978.4
575.754	40785.3
575.952	39976.35
576.151	40394.14
576.349	39710.11
576.547	39878.05
576.745	39667.11
576.943	39687.59
577.141	40025.5
577.339	39624.1
577.537	39343.53
577.735	39665.06
577.933	38933.93
578.131	39486.89
578.329	39259.56
578.527	38911.41
578.725	38860.21
578.923	38735.28
579.121	38626.74
579.319	38745.52
579.516	39275.94
579.714	38714.8
579.912	38358.45
580.11	38649.27
580.308	38428.09
580.506	38256.06
580.704	37721.54
580.901	38196.67
581.099	38610.35
581.297	37676.48
581.495	37832.13
581.692	38262.2
581.89	37105.1
582.088	37823.93
582.285	37373.38
582.483	37711.3
582.681	37334.47
582.878	37002.7
583.076	36871.63
583.274	37367.24
583.471	36314.58
583.669	36746.7
583.866	36693.46
584.064	36857.29
584.262	36091.35
584.459	36900.3
584.657	36275.67
584.854	36636.11
585.052	35929.56
585.249	36142.55
585.447	36279.77
585.644	35730.91
585.841	36013.53
586.039	36085.21
586.236	35560.93
586.434	35585.5
586.631	35380.71
586.828	35360.23
587.026	35177.96
587.223	35067.37
587.42	35208.68
587.618	35143.14
587.815	34739.69
588.012	34852.33
588.21	34868.72
588.407	34739.69
588.604	34870.76
588.801	34319.86
588.999	34418.16
589.196	34295.28
589.393	34309.62
589.59	34053.62
589.787	34106.87
589.984	33979.9
590.182	33662.46
590.379	34211.32
590.576	33635.84
590.773	33609.22
590.97	33500.67
591.167	33576.45
591.364	32953.87
591.561	33177.09
591.758	32941.58
591.955	33140.23
592.152	33086.98
592.349	32749.07
592.546	32867.85
592.743	32759.31
592.94	32222.74
593.137	32857.61
593.334	32554.51
593.531	32097.81
593.727	32542.22
593.924	32192.02
594.121	32120.34
594.318	31979.03
594.515	31827.48
594.712	32263.7
594.908	31645.21
595.105	31751.71
595.302	31268.39
595.499	31905.31
595.696	31221.28
595.892	31407.65
596.089	31559.2
596.286	31366.69
596.482	31014.44
596.679	31397.41
596.876	31125.03
597.072	30797.35
597.269	30823.98
597.466	30484.01
597.662	30639.66
597.859	30883.37
598.055	30416.43
598.252	30012.98
598.448	30377.52
598.645	30135.86
598.841	29826.62
599.038	30123.57
599.234	29881.91
599.431	29871.67
599.627	30041.65
599.824	30037.56
600.02	29621.82
600.217	29359.68
600.413	29640.25
600.609	29163.07
600.806	28864.07
601.002	29310.53
601.198	28888.65
601.395	28958.28
601.591	28907.08
601.787	29169.22
601.984	28585.55
602.18	29181.51
602.376	28737.1
602.572	28603.98
602.769	28560.97
602.965	27993.68
603.161	28552.78
603.357	28335.7
603.553	28059.22
603.75	27889.24
603.946	27962.97
604.142	28247.63
604.338	27440.73
604.534	28112.47
604.73	27532.89
604.926	27491.93
605.122	27428.45
605.318	27223.65
605.514	27180.64
605.71	27260.51
605.906	27412.06
606.102	27082.34
606.298	27111.01
606.494	27123.3
606.69	27129.44
606.886	26828.39
607.082	26898.02
607.278	26949.22
607.474	26345.07
607.67	26859.11
607.866	26406.51
608.062	26621.55
608.257	26599.02
608.453	26250.86
608.649	26449.52
608.845	26394.22
609.041	25984.63
609.236	26281.58
609.432	25951.86
609.628	26138.23
609.824	25994.87
610.019	25689.72
610.215	25958
610.411	26021.49
610.606	25624.18
610.802	25572.99
610.998	25624.18
611.193	25513.59
611.389	25151.1
611.584	25147.01
611.78	25462.4
611.976	25552.51
612.171	25282.17
612.367	25441.92
612.562	25046.66
612.758	24921.73
612.953	24964.74
613.149	25398.91
613.344	24964.74
613.539	25144.96
613.735	24835.72
613.93	25241.21
614.126	24966.79
614.321	25230.97
614.517	24962.69
614.712	24833.67
614.907	24641.16
615.103	24878.72
615.298	24432.27
615.493	24813.19
615.688	24106.64
615.884	24827.53
616.079	24127.12
616.274	24180.37
616.47	24131.22
616.665	24301.2
616.86	24213.13
617.055	24329.87
617.25	24196.75
617.445	24323.72
617.641	23715.48
617.836	23998.1
618.031	23576.22
618.226	23875.22
618.421	23352.99
618.616	24043.15
618.811	23203.49
619.006	23441.05
619.201	23150.24
619.396	23363.23
619.591	22916.77
619.786	23332.51
619.981	23013.02
620.176	23273.12
620.371	22689.45
620.566	22853.28
620.761	22632.1
620.956	22785.7
621.151	22208.17
621.346	22548.14
621.541	21876.4
621.735	22367.91
621.93	22079.15
622.125	22122.16
622.32	21309.11
622.515	21894.83
622.709	21790.39
622.904	21722.8
623.099	21188.28
623.294	21380.79
623.488	21327.55
623.683	21489.34
623.878	21132.99
624.072	21016.26
624.267	20764.36
624.462	20735.68
624.656	20645.57
624.851	20338.38
625.046	20192.97
625.24	20338.38
625.435	20047.57
625.629	20199.12
625.824	19879.63
626.018	20033.23
626.213	19535.57
626.407	19732.18
626.602	19420.89
626.796	19578.58
626.991	19316.44
627.185	19076.83
627.38	19257.05
627.574	18851.55
627.768	18867.94
627.963	18927.33
628.157	18689.76
628.352	18757.35
628.546	18489.06
628.74	18616.04
628.935	18190.06
629.129	18353.9
629.323	17848.05
629.517	18145
629.712	17866.48
629.906	17870.58
630.1	17379.06
630.294	17723.12
630.489	17512.18
630.683	17454.84
630.877	17305.34
631.071	17391.35
631.265	17274.62
631.459	17194.75
631.653	16914.17
631.848	17116.92
632.042	16840.45
632.236	16838.4
632.43	16600.83
632.624	16944.89
632.818	16672.51
633.012	16508.68
633.206	16406.28
633.4	16273.16
633.594	16414.47
633.788	16242.44
633.982	16396.04
634.176	15972.11
634.369	16035.6
634.563	15861.52
634.757	15714.06
634.951	15816.46
635.145	15785.74
635.339	15445.78
635.533	15433.49
635.726	15413.01
635.92	15320.85
636.114	15093.53
636.308	15118.11
636.501	15138.58
636.695	15116.06
636.889	15044.38
637.083	14665.5
637.276	14714.66
637.47	14563.11
637.664	14636.83
637.857	14567.2
638.051	14618.4
638.244	14321.45
638.438	14251.81
638.632	14159.66
638.825	14155.56
639.019	14087.98
639.212	13801.26
639.406	14051.11
639.599	13856.56
639.793	13778.73
639.986	13883.18
640.18	13850.41
640.373	13541.17
640.567	13524.79
640.76	13557.55
640.954	13338.42
641.147	13397.81
641.34	13236.02
641.534	13276.98
641.727	13166.39
641.92	13215.54
642.114	13010.75
642.307	12764.99
642.5	12891.96
642.694	12603.2
642.887	12562.24
643.08	12689.21
643.273	12488.51
643.467	12586.82
643.66	12355.4
643.853	12150.6
644.046	12203.85
644.239	12293.96
644.432	12138.31
644.626	12107.59
644.819	11988.81
645.012	12054.34
645.205	11798.35
645.398	11919.18
645.591	11753.29
645.784	11728.72
645.977	11370.32
646.17	11714.38
646.363	11558.74
646.556	11347.79
646.749	11394.9
646.942	11269.97
647.135	11151.19
647.328	11292.5
647.521	11083.61
647.714	10977.11
647.907	10954.58
648.099	11056.98
648.292	11018.07
648.485	10997.59
648.678	10815.32
648.871	10676.06
649.064	10432.35
649.256	10786.65
649.449	10624.86
649.642	10624.86
649.835	10547.04
650.027	10422.11
650.22	10407.78
650.413	10276.71
650.605	10268.52
650.798	10213.22
650.991	10057.57
651.183	10059.62
651.376	9918.31
651.568	10086.25
651.761	9834.35
651.954	9918.31
652.146	9996.14
652.339	9942.89
652.531	10010.47
652.724	9752.43
652.916	9547.63
653.109	9647.98
653.301	9498.48
653.494	9400.18
653.686	9330.55
653.879	9437.04
654.071	9258.87
654.263	9187.19
654.456	9228.15
654.648	9353.07
654.84	8908.66
655.033	8890.23
655.225	9006.97
655.417	9127.8
655.61	9058.17
655.802	8992.63
655.994	8908.66
656.186	8853.37
656.379	8826.75
656.571	8834.94
656.763	8689.53
656.955	8691.58
657.148	8621.95
657.34	8609.66
657.532	8527.74
657.724	8396.67
657.916	8427.39
658.108	8408.96
658.3	8292.23
658.492	8456.06
658.684	8277.89
658.876	8259.46
659.068	8163.2
659.26	8034.18
659.452	8122.24
659.644	8032.13
659.836	7982.98
660.028	7982.98
660.22	7913.35
660.412	7825.29
660.604	7987.08
660.796	7823.24
660.988	7761.8
661.18	7831.43
661.372	7700.36
661.563	7739.27
661.755	7589.77
661.947	7634.83
662.139	7387.02
662.331	7473.04
662.522	7407.5
662.714	7524.24
662.906	7346.06
663.097	7399.31
663.289	7176.08
663.481	7262.1
663.673	7141.27
663.864	7100.31
664.056	7061.4
664.247	7131.03
664.439	6885.27
664.631	7075.73
664.822	7024.53
665.014	6981.53
665.205	7008.15
665.397	6942.61
665.588	6959
665.78	6952.85
665.971	6838.17
666.163	6870.94
666.354	6616.99
666.546	6690.71
666.737	6860.7
666.929	6606.75
667.12	6703
667.311	6664.09
667.503	6682.52
667.694	6453.15
667.885	6375.33
668.077	6541.21
668.268	6467.49
668.459	6434.72
668.651	6184.87
668.842	6205.35
669.033	6289.31
669.224	6229.92
669.416	6180.77
669.607	6070.18
669.798	6188.96
669.989	6414.24
670.18	6094.75
670.371	6139.81
670.563	6148
670.754	6061.99
670.945	6104.99
671.136	5924.77
671.327	5982.12
671.518	6023.08
671.709	6002.6
671.9	6064.04
672.091	5941.16
672.282	5812.14
672.473	5986.21
672.664	5765.03
672.855	5824.42
673.046	5797.8
673.237	5648.3
673.428	5722.02
673.619	5711.78
673.809	5689.26
674	5506.99
674.191	5584.81
674.382	5490.6
674.573	5461.93
674.764	5658.54
674.954	5533.61
675.145	5380.01
675.336	5605.29
675.527	5547.95
675.717	5574.57
675.908	5248.94
676.099	5414.83
676.289	5224.37
676.48	5337.01
676.671	5310.38
676.861	5365.68
677.052	5302.19
677.243	5308.34
677.433	5156.79
677.624	5406.64
677.814	5218.22
678.005	5271.47
678.195	5193.65
678.386	5250.99
678.576	5142.45
678.767	5371.82
678.957	5115.83
679.148	5140.4
679.338	5015.48
679.529	5126.07
679.719	5085.11
679.909	5007.28
680.1	5035.96
680.29	5060.53
680.481	4954.04
680.671	4951.99
680.861	4980.66
681.052	5074.87
681.242	4902.84
681.432	5056.43
681.622	4870.07
681.813	4951.99
682.003	4970.42
682.193	4859.83
682.383	4888.5
682.573	4870.07
682.764	4829.11
682.954	4839.35
683.144	4747.19
683.334	4878.26
683.524	4997.04
683.714	4816.82
683.904	4874.17
684.094	4743.1
684.284	4587.45
684.474	4822.97
684.664	4710.33
684.854	4822.97
685.044	4665.27
685.234	4542.39
685.424	4609.98
685.614	4730.81
685.804	4562.87
685.994	4478.91
686.184	4704.18
686.374	4534.2
686.564	4487.1
686.753	4501.44
686.943	4483
687.133	4542.39
687.323	4507.58
687.513	4456.38
687.702	4288.45
687.892	4257.73
688.082	4323.26
688.272	4515.77
688.461	4194.24
688.651	4292.54
688.841	4243.39
689.03	4286.4
689.22	4349.89
689.41	4300.73
689.599	4216.77
689.789	4179.9
689.979	4339.65
690.168	4173.76
690.358	4184
690.547	4120.51
690.737	4149.18
690.926	4239.3
691.116	3993.54
691.305	4024.26
691.495	4093.89
691.684	4024.26
691.874	3960.77
692.063	3993.54
692.252	3950.53
692.442	4145.09
692.631	3878.85
692.82	3880.9
693.01	3952.58
693.199	3981.25
693.388	3928
693.578	3819.46
693.767	3897.28
693.956	3821.51
694.146	3796.93
694.335	3899.33
694.524	3866.56
694.713	3948.48
694.902	3776.45
695.092	3862.47
695.281	3678.15
695.47	3792.84
695.659	3715.02
695.848	3651.53
696.037	3723.21
696.226	3706.82
696.415	3719.11
696.604	3805.13
696.793	3784.65
696.982	3829.7
697.171	3674.06
697.36	3706.82
697.549	3676.1
697.738	3731.4
697.927	3583.95
698.116	3698.63
698.305	3545.03
698.494	3661.77
698.683	3504.07
698.872	3592.14
699.061	3516.36
699.25	3536.84
699.438	3633.1
699.627	3481.55
699.816	3487.69
700.005	3608.52
700.193	3567.56
700.382	3553.23
700.571	3538.89
700.76	3405.77
700.948	3420.11
701.137	3489.74
701.326	3549.13
701.514	3567.56
701.703	3567.56
701.892	3360.72
702.08	3499.98
702.269	3334.09
702.457	3330
702.646	3407.82
702.834	3389.39
703.023	3262.41
703.212	3399.63
703.4	3377.1
703.589	3389.39
703.777	3297.23
703.965	3387.34
704.154	3370.96
704.342	3401.68
704.531	3340.24
704.719	3350.48
704.907	3272.65
705.096	3239.89
705.284	3299.28
705.472	3186.64
705.661	3305.42
705.849	3346.38
706.037	3407.82
706.226	3323.85
706.414	3248.08
706.602	3323.85
706.79	3184.59
706.979	3198.93
707.167	3114.96
707.355	3037.14
707.543	3170.26
707.731	3112.91
707.919	3215.31
708.107	3168.21
708.296	3198.93
708.484	3207.12
708.672	3198.93
708.86	3143.63
709.048	3076.05
709.236	3184.59
709.424	3176.4
709.612	3133.39
709.8	3026.9
709.988	3110.86
710.176	3119.06
710.364	3047.38
710.551	3082.19
710.739	3055.57
710.927	3110.86
711.115	3143.63
711.303	3018.71
711.491	3004.37
711.679	2990.03
711.866	3043.28
712.054	3030.99
712.242	2936.79
712.43	3037.14
712.617	2963.41
712.805	2990.03
712.993	2901.97
713.181	3057.62
713.368	2912.21
713.556	2926.55
713.744	2840.53
713.931	2920.4
714.119	2838.48
714.306	2795.48
714.494	2877.4
714.682	2863.06
714.869	2766.81
715.057	3078.1
715.244	2717.65
715.432	2944.98
715.619	2912.21
715.807	2822.1
715.994	2809.81
716.182	2813.91
716.369	2775
716.556	2832.34
716.744	2883.54
716.931	2863.06
717.119	2820.05
717.306	2822.1
717.493	2705.37
717.681	2691.03
717.868	2723.8
718.055	2863.06
718.242	2711.51
718.43	2781.14
718.617	2795.48
718.804	2777.05
718.991	2813.91
719.179	2801.62
719.366	2785.24
719.553	2752.47
719.74	2629.59
719.927	2557.91
720.114	2703.32
720.301	2676.7
720.488	2486.23
720.676	2580.44
720.863	2770.9
721.05	2602.97
721.237	2633.69
721.424	2602.97
721.611	2543.58
721.798	2566.1
721.985	2527.19
722.172	2553.82
722.358	2678.74
722.545	2707.41
722.732	2506.71
722.919	2633.69
723.106	2594.78
723.293	2523.1
723.48	2572.25
723.667	2564.06
723.853	2576.34
724.04	2594.78
724.227	2473.95
724.414	2537.43
724.6	2484.19
724.787	2478.04
724.974	2537.43
725.161	2398.17
725.347	2488.28
725.534	2422.75
725.72	2578.39
725.907	2359.26
726.094	2541.53
726.28	2387.93
726.467	2547.67
726.653	2361.31
726.84	2389.98
727.027	2482.14
727.213	2359.26
727.4	2535.39
727.586	2396.12
727.773	2318.3
727.959	2346.97
728.145	2291.68
728.332	2359.26
728.518	2351.07
728.705	2549.72
728.891	2406.36
729.077	2430.94
729.264	2271.2
729.45	2387.93
729.636	2328.54
729.823	2248.67
730.009	2412.51
730.195	2254.81
730.382	2412.51
730.568	2133.98
730.754	2357.21
730.94	2240.48
731.126	2267.1
731.313	2322.4
731.499	2281.44
731.685	2299.87
731.871	2260.96
732.057	2289.63
732.243	2201.57
732.429	2291.68
732.615	2277.34
732.801	2250.72
732.987	2207.71
733.173	2306.01
733.359	2172.89
733.545	2115.55
733.731	2150.37
733.917	2275.29
734.103	2287.58
734.289	2133.98
734.475	2109.41
734.661	2240.48
734.847	2193.37
735.033	2201.57
735.219	2097.12
735.404	2326.49
735.59	2150.37
735.776	2158.56
735.962	2269.15
736.148	2166.75
736.333	2164.7
736.519	2097.12
736.705	2191.33
736.89	2125.79
737.076	2168.8
737.262	2215.9
737.447	2150.37
737.633	2131.94
737.819	2111.46
738.004	2019.3
738.19	2076.64
738.375	1988.58
738.561	2103.26
738.747	2117.6
738.932	2062.3
739.118	2127.84
739.303	2076.64
739.489	2113.5
739.674	2052.06
739.859	1978.34
740.045	1957.86
740.23	2052.06
740.416	1957.86
740.601	2062.3
740.786	2002.91
740.972	1888.23
741.157	1957.86
741.342	1937.38
741.528	1937.38
741.713	1937.38
741.898	1873.89
742.084	1839.08
742.269	1939.43
742.454	1849.32
742.639	1937.38
742.824	1834.98
743.01	1972.19
743.195	1931.23
743.38	1884.13
743.565	1843.17
743.75	1884.13
743.935	1705.96
744.12	1818.6
744.305	1775.59
744.49	1839.08
744.675	1880.04
744.86	1740.77
745.045	1761.25
745.23	1781.73
745.415	1748.97
745.6	1742.82
745.785	1853.41
745.97	1757.16
746.155	1693.67
746.34	1775.59
746.525	1597.42
746.71	1693.67
746.895	1742.82
747.079	1667.05
747.264	1650.66
747.449	1656.81
747.634	1613.8
747.819	1714.15
748.003	1669.09
748.188	1488.87
748.373	1589.22
748.557	1603.56
748.742	1556.46
748.927	1576.94
749.111	1556.46
749.296	1548.26
749.481	1562.6
749.665	1482.73
749.85	1478.63
750.034	1488.87
750.219	1468.39
750.404	1507.31
750.588	1583.08
750.773	1515.5
750.957	1505.26
751.141	1339.37
751.326	1470.44
751.51	1413.1
751.695	1398.76
751.879	1409
752.064	1349.61
752.248	1431.53
752.432	1478.63
752.617	1425.39
752.801	1470.44
752.985	1357.8
753.17	1380.33
753.354	1363.95
753.538	1376.23
753.722	1322.99
753.907	1306.6
754.091	1298.41
754.275	1308.65
754.459	1261.55
754.643	1157.1
754.828	1279.98
755.012	1288.17
755.196	1220.59
755.38	1239.02
755.564	1138.67
755.748	1232.88
755.932	1290.22
756.116	1220.59
756.3	1306.6
756.484	1099.76
756.668	1150.96
756.852	1136.62
757.036	1202.16
757.22	1134.57
757.404	1175.53
757.588	1150.96
757.772	1142.77
757.956	1028.08
758.14	1122.29
758.323	1114.1
758.507	1167.34
758.691	1028.08
758.875	1114.1
759.059	1118.19
759.242	1019.89
759.426	1015.79
759.61	997.36
759.794	1030.13
759.977	1030.13
760.161	1077.23
760.345	1153.01
760.528	1026.03
760.712	1089.52
760.895	946.16
761.079	1054.7
761.263	903.15
761.446	954.35
761.63	972.79
761.813	905.2
761.997	882.67
762.18	929.78
762.364	1028.08
762.547	909.3
762.731	911.35
762.914	931.83
763.098	987.12
763.281	1007.6
763.464	991.22
763.648	905.2
763.831	909.3
764.015	970.74
764.198	864.24
764.381	823.28
764.564	976.88
764.748	925.68
764.931	817.14
765.114	948.21
765.297	931.83
765.481	806.9
765.664	929.78
765.847	923.63
766.03	962.55
766.213	753.65
766.397	874.48
766.58	823.28
766.763	770.04
766.946	886.77
767.129	860.15
767.312	874.48
767.495	872.43
767.678	823.28
767.861	796.66
768.044	872.43
768.227	880.63
768.41	710.65
768.593	823.28
768.776	925.68
768.959	907.25
769.142	798.71
769.324	815.09
769.507	794.61
769.69	774.13
769.873	782.32
770.056	864.24
770.239	751.6
770.421	731.12
770.604	753.65
770.787	778.23
770.97	817.14
771.152	708.6
771.335	692.21
771.518	751.6
771.7	770.04
771.883	817.14
772.066	710.65
772.248	841.72
772.431	731.12
772.613	755.7
772.796	708.6
772.978	757.75
773.161	679.93
773.343	724.98
773.526	757.75
773.708	673.78
773.891	767.99
774.073	690.17
774.256	757.75
774.438	718.84
774.621	636.92
774.803	643.06
774.985	653.3
775.168	649.21
775.35	667.64
775.532	653.3
775.715	737.27
775.897	655.35
776.079	686.07
776.261	641.01
776.444	628.73
776.626	692.21
776.808	557.05
776.99	555
777.173	600.05
777.355	626.68
777.537	598.01
777.719	585.72
777.901	569.34
778.083	620.53
778.265	628.73
778.447	636.92
778.629	587.77
778.811	550.9
778.993	577.53
779.175	565.24
779.357	530.42
779.539	575.48
779.721	507.9
779.903	536.57
780.085	532.47
780.267	518.14
780.449	585.72
780.631	579.58
780.812	567.29
780.994	530.42
781.176	503.8
781.358	442.36
781.54	511.99
781.721	548.86
781.903	546.81
782.085	485.37
782.267	421.88
782.448	471.03
782.63	499.7
782.812	495.61
782.993	458.75
783.175	368.63
783.357	380.92
783.538	460.79
783.72	489.46
783.901	421.88
784.083	462.84
784.264	442.36
784.446	442.36
784.627	438.27
784.809	405.5
784.99	397.31
785.172	413.69
785.353	438.27
785.535	462.84
785.716	391.16
785.897	395.26
786.079	440.31
786.26	434.17
786.441	421.88
786.623	446.46
786.804	380.92
786.985	342.01
787.167	411.64
787.348	403.45
787.529	413.69
787.71	366.59
787.891	372.73
788.073	372.73
788.254	360.44
788.435	397.31
788.616	387.07
788.797	294.91
788.978	292.86
789.159	380.92
789.34	313.34
789.522	356.35
789.703	342.01
789.884	309.24
790.065	374.78
790.246	403.45
790.427	296.96
790.607	405.5
790.788	368.63
790.969	348.15
791.15	305.15
791.331	327.68
791.512	325.63
791.693	256
791.874	325.63
792.054	354.3
792.235	421.88
792.416	335.87
792.597	309.24
792.778	362.49
792.958	301.05
793.139	325.63
793.32	282.62
793.5	327.68
793.681	346.11
793.862	356.35
794.042	294.91
794.223	337.91
794.404	299
794.584	354.3
794.765	266.24
794.945	315.39
795.126	249.85
795.306	311.29
795.487	323.58
795.667	229.37
795.848	282.62
796.028	313.34
796.209	241.66
796.389	319.48
796.57	307.2
796.75	274.43
796.93	227.32
797.111	208.89
797.291	303.1
797.471	327.68
797.652	196.61
797.832	233.47
798.012	258.04
798.192	235.52
798.373	210.94
798.553	251.9
798.733	292.86
798.913	274.43
799.093	135.17
799.274	235.52
799.454	233.47
799.634	233.47
799.814	301.05
799.994	221.18
800.174	188.41
800.354	260.09
800.534	176.13
800.714	243.71
800.894	172.03
801.074	198.65
801.254	167.93
801.434	239.61
801.614	241.66
801.794	180.22
801.974	694.26
802.154	204.8
802.334	208.89
802.514	141.31
802.693	251.9
802.873	176.13
803.053	235.52
803.233	227.32
803.413	260.09
803.592	149.5
803.772	212.99
803.952	245.76
804.131	192.51
804.311	180.22
804.491	182.27
804.67	126.97
804.85	180.22
805.03	167.93
805.209	276.48
805.389	221.18
805.568	192.51
805.748	108.54
805.928	131.07
806.107	149.5
806.287	202.75
806.466	225.28
806.646	143.36
806.825	167.93
807.004	229.37
807.184	196.61
807.363	217.08
807.543	147.45
807.722	225.28
807.901	192.51
808.081	204.8
808.26	131.07
808.439	212.99
808.619	202.75
808.798	172.03
808.977	172.03
809.156	212.99
809.336	182.27
809.515	176.13
809.694	188.41
809.873	178.17
810.052	249.85
810.231	192.51
810.411	241.66
810.59	178.17
810.769	221.18
810.948	186.37
811.127	114.69
811.306	163.84
811.485	249.85
811.664	198.65
811.843	131.07
812.022	90.11
812.201	53.25
812.38	112.64
812.559	176.13
812.737	143.36
812.916	96.25
813.095	245.76
813.274	124.93
813.453	167.93
813.632	90.11
813.811	174.08
813.989	118.78
814.168	159.74
814.347	145.41
814.526	194.56
814.704	176.13
814.883	100.35
815.062	49.15
815.24	137.21
815.419	225.28
815.598	126.97
815.776	120.83
815.955	98.3
816.133	143.36
816.312	217.08
816.49	114.69
816.669	163.84
816.847	110.59
817.026	110.59
817.204	38.91
817.383	110.59
817.561	65.54
817.74	77.82
817.918	120.83
818.097	169.98
818.275	141.31
818.453	122.88
818.632	104.45
818.81	55.3
818.988	122.88
819.167	102.4
819.345	81.92
819.523	112.64
819.701	143.36
819.879	126.97
820.058	102.4
820.236	73.73
820.414	90.11
820.592	108.54
820.77	75.77
820.948	61.44
821.127	159.74
821.305	135.17
821.483	90.11
821.661	159.74
821.839	94.21
822.017	120.83
822.195	77.82
822.373	167.93
822.551	126.97
822.729	94.21
822.907	110.59
823.085	120.83
823.262	67.58
823.44	145.41
823.618	124.93
823.796	161.79
823.974	49.15
824.152	118.78
824.329	32.77
824.507	104.45
824.685	124.93
824.863	100.35
825.04	77.82
825.218	135.17
825.396	104.45
825.574	88.06
825.751	90.11
825.929	202.75
826.107	167.93
826.284	143.36
826.462	131.07
826.639	51.2
826.817	69.63
826.994	57.34
827.172	110.59
827.349	159.74
827.527	159.74
827.704	55.3
827.882	55.3
828.059	63.49
828.237	114.69
828.414	143.36
828.591	-22.53
828.769	108.54
828.946	36.86
829.124	96.25
829.301	178.17
829.478	137.21
829.655	20.48
829.833	98.3
830.01	53.25
830.187	104.45
830.364	106.49
830.542	137.21
830.719	151.55
830.896	79.87
831.073	100.35
831.25	77.82
831.427	163.84
831.604	79.87
831.782	69.63
831.959	94.21
832.136	143.36
832.313	40.96
832.49	81.92
832.667	71.68
832.844	45.06
833.021	139.26
833.198	90.11
833.374	51.2
833.551	73.73
833.728	143.36
833.905	161.79
834.082	-22.53
834.259	88.06
834.436	120.83
834.612	20.48
834.789	98.3
834.966	114.69
835.143	65.54
835.319	30.72
835.496	94.21
835.673	110.59
835.85	69.63
836.026	77.82
836.203	122.88
836.38	94.21
836.556	61.44
836.733	65.54
836.909	55.3
837.086	88.06
837.262	12.29
837.439	40.96
837.616	65.54
837.792	88.06
837.968	110.59
838.145	110.59
838.321	88.06
838.498	36.86
838.674	98.3
838.851	126.97
839.027	49.15
839.203	102.4
839.38	79.87
839.556	110.59
839.732	81.92
839.909	61.44
840.085	45.06
840.261	45.06
840.437	90.11
840.614	65.54
840.79	112.64
840.966	71.68
841.142	86.01
841.318	36.86
841.494	167.93
841.671	79.87
841.847	55.3
842.023	98.3
842.199	120.83
842.375	88.06
842.551	79.87
842.727	22.53
842.903	47.1
843.079	45.06
843.255	47.1
843.431	71.68
843.607	122.88
843.783	-12.29
843.959	71.68
844.134	51.2
844.31	86.01
844.486	51.2
844.662	79.87
844.838	126.97
845.013	77.82
845.189	53.25
845.365	47.1
845.541	36.86
845.716	57.34
845.892	61.44
846.068	28.67
846.244	-43.01
846.419	63.49
846.595	20.48
846.77	71.68
846.946	36.86
847.122	65.54
847.297	53.25
847.473	49.15
847.648	40.96
847.824	108.54
847.999	61.44
848.175	69.63
848.35	69.63
848.526	69.63
848.701	-10.24
848.876	71.68
849.052	43.01
849.227	20.48
849.403	49.15
849.578	16.38
849.753	-32.77
849.929	-6.14
850.104	104.45
850.279	45.06
850.454	-20.48
850.63	38.91
850.805	40.96
850.98	96.25
851.155	-26.62
851.33	59.39
851.505	49.15
851.681	18.43
851.856	45.06
852.031	106.49
852.206	61.44
852.381	98.3
852.556	-4.1
852.731	81.92
852.906	77.82
853.081	67.58
853.256	98.3
853.431	30.72
853.606	57.34
853.781	61.44
853.956	-12.29
854.131	79.87
854.305	45.06
854.48	36.86
854.655	-22.53
854.83	4.1
855.005	81.92
855.18	36.86
855.354	32.77
855.529	71.68
855.704	47.1
855.879	-12.29
856.053	57.34
856.228	79.87
856.403	28.67
856.577	40.96
856.752	40.96
856.926	141.31
857.101	108.54
857.276	47.1
857.45	73.73
857.625	45.06
857.799	38.91
857.974	36.86
858.148	-12.29
858.323	69.63
858.497	20.48
858.672	-6.14
858.846	63.49
859.02	55.3
859.195	18.43
859.369	40.96
859.543	104.45
859.718	4.1
859.892	14.34
860.066	-6.14
860.241	-40.96
860.415	16.38
860.589	47.1
860.763	34.82
860.938	6.14
861.112	-6.14
861.286	47.1
861.46	2.05
861.634	-20.48
861.808	-59.39
861.982	-2.05
862.157	-12.29
862.331	-10.24
862.505	-8.19
862.679	18.43
862.853	26.62
863.027	-36.86
863.201	47.1
863.375	4.1
863.549	-36.86
863.722	6.14
863.896	8.19
864.07	47.1
864.244	18.43
864.418	51.2
864.592	-4.1
864.766	45.06
864.939	94.21
865.113	24.58
865.287	40.96
865.461	43.01
865.634	45.06
865.808	-69.63
865.982	45.06
866.156	16.38
866.329	-36.86
866.503	106.49
866.676	38.91
866.85	79.87
867.024	16.38
867.197	63.49
867.371	86.01
867.544	55.3
867.718	49.15
867.891	0
868.065	-18.43
868.238	-32.77
868.412	36.86
868.585	36.86
868.759	77.82
868.932	-110.59
869.105	40.96
869.279	75.77
869.452	47.1
869.625	49.15
869.799	-77.82
869.972	28.67
870.145	69.63
870.319	2.05
870.492	57.34
870.665	26.62
870.838	-67.58
871.011	-45.06
871.185	73.73
871.358	81.92
871.531	86.01
871.704	14.34
871.877	45.06
872.05	-45.06
872.223	55.3
872.396	8.19
872.569	-12.29
872.742	-22.53
872.915	-4.1
873.088	4.1
873.261	6.14
873.434	22.53
873.607	106.49
873.78	94.21
873.953	53.25
874.126	4.1
874.299	55.3
874.471	45.06
874.644	-2.05
874.817	47.1
874.99	102.4
875.163	59.39
875.335	38.91
875.508	-53.25
875.681	-32.77
875.853	-75.77
876.026	36.86
876.199	57.34
876.371	49.15
876.544	22.53
876.717	10.24
876.889	40.96
877.062	102.4
877.234	55.3
877.407	-2.05
877.579	-24.58
877.752	-20.48
877.924	-4.1
878.097	-20.48
878.269	-4.1
878.442	-24.58
878.614	36.86
878.786	38.91
878.959	-20.48
879.131	79.87
879.303	-26.62
879.476	45.06
879.648	-28.67
879.82	-26.62
879.993	-34.82
880.165	22.53
880.337	-34.82
880.509	65.54
880.681	-10.24
880.854	0
881.026	69.63
881.198	40.96
881.37	8.19
881.542	63.49
881.714	-45.06
881.886	77.82
882.058	-47.1
882.23	-26.62
882.402	-45.06
882.574	38.91
882.746	6.14
882.918	53.25
883.09	12.29
883.262	38.91
883.434	4.1
883.606	-57.34
883.778	-8.19
883.95	26.62
884.122	22.53
884.293	0
884.465	102.4
884.637	20.48
884.809	24.58
884.98	14.34
885.152	55.3
885.324	102.4
885.496	47.1
885.667	30.72
885.839	2.05
886.011	112.64
886.182	40.96
886.354	-12.29
886.525	57.34
886.697	55.3
886.869	20.48
887.04	-10.24
887.212	94.21
887.383	32.77
887.555	77.82
887.726	-14.34
887.897	24.58
888.069	34.82
888.24	28.67
888.412	4.1
888.583	28.67
888.754	26.62
888.926	20.48
889.097	69.63
889.268	71.68
889.44	-51.2
889.611	-45.06
889.782	14.34
889.953	-34.82
890.125	24.58
890.296	-49.15
890.467	-61.44
890.638	4.1
890.809	57.34
890.98	-22.53
891.151	-4.1
891.323	45.06
891.494	-4.1
891.665	45.06
891.836	40.96
892.007	-30.72
892.178	16.38
892.349	102.4
892.52	-36.86
892.691	86.01
892.862	4.1
893.032	24.58
893.203	43.01
893.374	47.1
893.545	49.15
893.716	-16.38
893.887	77.82
894.057	-32.77
894.228	49.15
894.399	0
894.57	88.06
894.74	34.82
894.911	96.25
895.082	16.38
895.253	-51.2
895.423	55.3
895.594	26.62
895.764	-18.43
895.935	36.86
896.106	69.63
896.276	24.58
896.447	-75.77
896.617	-20.48
896.788	-36.86
896.958	55.3
897.129	-32.77
897.299	22.53
897.47	71.68
897.64	-10.24
897.81	34.82
897.981	-28.67
898.151	18.43
898.322	22.53
898.492	-12.29
898.662	20.48
898.832	-4.1
899.003	4.1
899.173	-32.77
899.343	24.58
899.513	-24.58
