Data from USB4F104151__257__14-22-42-599.txt Node

Date: Thu Mar 13 14:22:42 EDT 2025
User: louis
Spectrometer: USB4F10415
Trigger mode: 4
Integration Time (sec): 2.000000E-2
Scans to average: 1
Electric dark correction enabled: true
Nonlinearity correction enabled: false
Boxcar width: 0
XAxis mode: Wavelengths
Number of Pixels in Spectrum: 3648
>>>>>Begin Spectral Data<<<<<
178.204	-111.61
178.424	-111.61
178.644	-111.61
178.864	-111.61
179.084	-101.37
179.304	66.56
179.524	1.02
179.744	-27.65
179.964	76.8
180.184	-44.03
180.404	19.46
180.624	-9.22
180.844	-60.42
181.064	-50.18
181.283	-5.12
181.503	13.31
181.723	19.46
181.943	5.12
182.163	117.76
182.383	-39.94
182.602	99.33
182.822	7.17
183.042	-11.26
183.262	64.51
183.482	56.32
183.701	-5.12
183.921	52.22
184.141	-13.31
184.361	46.08
184.58	-5.12
184.8	48.13
185.02	27.65
185.239	76.8
185.459	3.07
185.679	39.94
185.898	-54.27
186.118	70.65
186.338	23.55
186.557	33.79
186.777	-29.7
186.997	23.55
187.216	93.18
187.436	107.52
187.655	64.51
187.875	70.65
188.095	-9.22
188.314	37.89
188.534	17.41
188.753	5.12
188.973	70.65
189.192	130.05
189.412	19.46
189.631	3.07
189.851	39.94
190.07	76.8
190.29	21.5
190.509	31.74
190.729	-17.41
190.948	50.18
191.168	101.37
191.387	29.7
191.607	109.57
191.826	-5.12
192.045	39.94
192.265	58.37
192.484	11.26
192.704	5.12
192.923	27.65
193.142	109.57
193.362	-9.22
193.581	60.42
193.8	46.08
194.02	27.65
194.239	35.84
194.458	17.41
194.678	-21.5
194.897	60.42
195.116	44.03
195.335	11.26
195.555	50.18
195.774	-5.12
195.993	54.27
196.212	23.55
196.432	-17.41
196.651	19.46
196.87	52.22
197.089	23.55
197.308	52.22
197.528	-21.5
197.747	-21.5
197.966	44.03
198.185	80.89
198.404	-37.89
198.623	68.61
198.842	60.42
199.062	-1.02
199.281	46.08
199.5	62.46
199.719	101.37
199.938	5.12
200.157	44.03
200.376	15.36
200.595	62.46
200.814	29.7
201.033	3.07
201.252	9.22
201.471	-7.17
201.69	56.32
201.909	89.09
202.128	74.75
202.347	60.42
202.566	31.74
202.785	35.84
203.004	15.36
203.223	144.38
203.442	7.17
203.661	-17.41
203.879	11.26
204.098	15.36
204.317	-19.46
204.536	-1.02
204.755	66.56
204.974	56.32
205.193	-13.31
205.411	72.7
205.63	56.32
205.849	44.03
206.068	19.46
206.287	15.36
206.505	76.8
206.724	70.65
206.943	44.03
207.162	19.46
207.381	27.65
207.599	-52.22
207.818	11.26
208.037	-21.5
208.255	117.76
208.474	84.99
208.693	46.08
208.911	-37.89
209.13	84.99
209.349	25.6
209.567	56.32
209.786	19.46
210.005	44.03
210.223	35.84
210.442	33.79
210.661	95.23
210.879	11.26
211.098	35.84
211.316	15.36
211.535	21.5
211.753	84.99
211.972	52.22
212.191	-37.89
212.409	72.7
212.628	29.7
212.846	5.12
213.065	87.04
213.283	74.75
213.502	37.89
213.72	64.51
213.938	11.26
214.157	41.98
214.375	11.26
214.594	31.74
214.812	68.61
215.031	113.66
215.249	39.94
215.467	60.42
215.686	29.7
215.904	37.89
216.122	-11.26
216.341	35.84
216.559	27.65
216.778	84.99
216.996	21.5
217.214	-19.46
217.432	-27.65
217.651	-37.89
217.869	35.84
218.087	93.18
218.306	-35.84
218.524	84.99
218.742	7.17
218.96	-5.12
219.179	41.98
219.397	-29.7
219.615	68.61
219.833	-19.46
220.051	52.22
220.27	52.22
220.488	15.36
220.706	-35.84
220.924	-29.7
221.142	64.51
221.36	21.5
221.578	-5.12
221.796	19.46
222.015	35.84
222.233	72.7
222.451	109.57
222.669	17.41
222.887	31.74
223.105	-1.02
223.323	7.17
223.541	-44.03
223.759	46.08
223.977	3.07
224.195	46.08
224.413	31.74
224.631	52.22
224.849	-29.7
225.067	97.28
225.285	-29.7
225.503	9.22
225.721	-37.89
225.939	76.8
226.157	68.61
226.375	117.76
226.592	-37.89
226.81	44.03
227.028	68.61
227.246	117.76
227.464	11.26
227.682	117.76
227.9	-19.46
228.117	68.61
228.335	21.5
228.553	52.22
228.771	7.17
228.989	-17.41
229.206	56.32
229.424	29.7
229.642	-13.31
229.86	29.7
230.077	15.36
230.295	56.32
230.513	54.27
230.731	-35.84
230.948	105.47
231.166	33.79
231.384	-5.12
231.601	19.46
231.819	15.36
232.037	-5.12
232.254	27.65
232.472	111.61
232.689	27.65
232.907	95.23
233.125	9.22
233.342	-50.18
233.56	19.46
233.777	-5.12
233.995	-17.41
234.213	62.46
234.43	-1.02
234.648	44.03
234.865	-5.12
235.083	37.89
235.3	-29.7
235.518	60.42
235.735	70.65
235.953	80.89
236.17	35.84
236.388	119.81
236.605	23.55
236.822	39.94
237.04	136.19
237.257	-33.79
237.475	44.03
237.692	121.85
237.909	-25.6
238.127	52.22
238.344	-25.6
238.562	-62.46
238.779	68.61
238.996	9.22
239.214	29.7
239.431	31.74
239.648	35.84
239.865	60.42
240.083	68.61
240.3	-9.22
240.517	-29.7
240.735	-11.26
240.952	29.7
241.169	39.94
241.386	54.27
241.603	-74.75
241.821	84.99
242.038	68.61
242.255	21.5
242.472	-21.5
242.689	46.08
242.907	35.84
243.124	21.5
243.341	44.03
243.558	-11.26
243.775	76.8
243.992	-41.98
244.209	11.26
244.426	52.22
244.643	23.55
244.86	31.74
245.078	21.5
245.295	60.42
245.512	68.61
245.729	-46.08
245.946	52.22
246.163	84.99
246.38	72.7
246.597	-13.31
246.814	11.26
247.031	109.57
247.248	-13.31
247.464	37.89
247.681	70.65
247.898	48.13
248.115	52.22
248.332	-50.18
248.549	146.43
248.766	80.89
248.983	101.37
249.2	-29.7
249.417	82.94
249.633	-17.41
249.85	-56.32
250.067	15.36
250.284	68.61
250.501	82.94
250.717	-37.89
250.934	74.75
251.151	-5.12
251.368	-15.36
251.585	72.7
251.801	35.84
252.018	1.02
252.235	95.23
252.451	-33.79
252.668	-13.31
252.885	76.8
253.102	19.46
253.318	117.76
253.535	-21.5
253.752	19.46
253.968	33.79
254.185	-25.6
254.401	7.17
254.618	7.17
254.835	-3.07
255.051	60.42
255.268	31.74
255.484	62.46
255.701	-7.17
255.917	76.8
256.134	101.37
256.351	-11.26
256.567	-5.12
256.784	64.51
257	21.5
257.217	89.09
257.433	35.84
257.65	76.8
257.866	-41.98
258.082	5.12
258.299	29.7
258.515	27.65
258.732	31.74
258.948	44.03
259.165	44.03
259.381	-62.46
259.597	68.61
259.814	-41.98
260.03	23.55
260.246	23.55
260.463	70.65
260.679	31.74
260.895	-13.31
261.112	15.36
261.328	-5.12
261.544	-29.7
261.761	44.03
261.977	78.85
262.193	44.03
262.409	35.84
262.626	-25.6
262.842	-3.07
263.058	13.31
263.274	117.76
263.49	-3.07
263.707	84.99
263.923	37.89
264.139	35.84
264.355	-31.74
264.571	52.22
264.787	46.08
265.004	125.95
265.22	44.03
265.436	-27.65
265.652	29.7
265.868	27.65
266.084	44.03
266.3	37.89
266.516	25.6
266.732	87.04
266.948	33.79
267.164	54.27
267.38	37.89
267.596	60.42
267.812	80.89
268.028	5.12
268.244	-1.02
268.46	39.94
268.676	29.7
268.892	33.79
269.108	31.74
269.324	-9.22
269.54	44.03
269.756	78.85
269.972	-56.32
270.188	21.5
270.403	-29.7
270.619	-44.03
270.835	29.7
271.051	7.17
271.267	-19.46
271.483	78.85
271.698	41.98
271.914	27.65
272.13	48.13
272.346	5.12
272.562	15.36
272.777	101.37
272.993	11.26
273.209	44.03
273.425	3.07
273.64	25.6
273.856	27.65
274.072	29.7
274.287	33.79
274.503	-21.5
274.719	50.18
274.934	27.65
275.15	3.07
275.366	35.84
275.581	-17.41
275.797	119.81
276.012	-37.89
276.228	37.89
276.444	44.03
276.659	35.84
276.875	44.03
277.09	78.85
277.306	37.89
277.521	95.23
277.737	44.03
277.952	62.46
278.168	1.02
278.383	84.99
278.599	37.89
278.814	76.8
279.03	-5.12
279.245	35.84
279.461	46.08
279.676	44.03
279.892	-9.22
280.107	11.26
280.322	17.41
280.538	15.36
280.753	35.84
280.969	37.89
281.184	-17.41
281.399	27.65
281.615	33.79
281.83	46.08
282.045	-39.94
282.26	-62.46
282.476	5.12
282.691	-3.07
282.906	48.13
283.122	21.5
283.337	-3.07
283.552	19.46
283.767	15.36
283.983	70.65
284.198	78.85
284.413	-11.26
284.628	46.08
284.843	27.65
285.058	56.32
285.274	19.46
285.489	46.08
285.704	25.6
285.919	13.31
286.134	27.65
286.349	39.94
286.564	-13.31
286.779	109.57
286.995	-52.22
287.21	44.03
287.425	25.6
287.64	52.22
287.855	89.09
288.07	-13.31
288.285	17.41
288.5	29.7
288.715	62.46
288.93	-21.5
289.145	-27.65
289.36	-21.5
289.575	37.89
289.79	25.6
290.004	33.79
290.219	84.99
290.434	78.85
290.649	11.26
290.864	46.08
291.079	13.31
291.294	80.89
291.509	3.07
291.724	41.98
291.938	44.03
292.153	3.07
292.368	19.46
292.583	-11.26
292.798	3.07
293.012	23.55
293.227	-9.22
293.442	-17.41
293.657	-25.6
293.871	109.57
294.086	113.66
294.301	52.22
294.516	44.03
294.73	21.5
294.945	-5.12
295.16	56.32
295.374	29.7
295.589	74.75
295.804	76.8
296.018	48.13
296.233	52.22
296.447	15.36
296.662	46.08
296.877	68.61
297.091	101.37
297.306	3.07
297.52	54.27
297.735	21.5
297.949	44.03
298.164	5.12
298.378	64.51
298.593	-9.22
298.807	-33.79
299.022	101.37
299.236	1.02
299.451	27.65
299.665	-33.79
299.88	78.85
300.094	15.36
300.309	13.31
300.523	70.65
300.737	3.07
300.952	27.65
301.166	-9.22
301.381	52.22
301.595	-5.12
301.809	31.74
302.024	11.26
302.238	41.98
302.452	50.18
302.667	-5.12
302.881	29.7
303.095	11.26
303.309	52.22
303.524	17.41
303.738	17.41
303.952	64.51
304.166	44.03
304.381	-7.17
304.595	136.19
304.809	19.46
305.023	70.65
305.237	44.03
305.452	-50.18
305.666	35.84
305.88	44.03
306.094	13.31
306.308	46.08
306.522	66.56
306.736	25.6
306.95	-21.5
307.164	13.31
307.379	48.13
307.593	87.04
307.807	82.94
308.021	-17.41
308.235	101.37
308.449	46.08
308.663	52.22
308.877	99.33
309.091	37.89
309.305	64.51
309.519	-27.65
309.733	64.51
309.947	-17.41
310.161	80.89
310.374	56.32
310.588	60.42
310.802	-29.7
311.016	-27.65
311.23	3.07
311.444	-46.08
311.658	52.22
311.872	56.32
312.085	23.55
312.299	76.8
312.513	19.46
312.727	78.85
312.941	44.03
313.154	46.08
313.368	5.12
313.582	46.08
313.796	123.9
314.009	48.13
314.223	52.22
314.437	66.56
314.651	54.27
314.864	25.6
315.078	-19.46
315.292	-13.31
315.505	-95.23
315.719	76.8
315.933	84.99
316.146	84.99
316.36	91.13
316.573	76.8
316.787	29.7
317.001	64.51
317.214	35.84
317.428	-54.27
317.641	-37.89
317.855	3.07
318.068	25.6
318.282	21.5
318.495	27.65
318.709	37.89
318.922	60.42
319.136	25.6
319.349	60.42
319.563	44.03
319.776	89.09
319.99	19.46
320.203	99.33
320.417	125.95
320.63	15.36
320.843	74.75
321.057	9.22
321.27	29.7
321.483	31.74
321.697	76.8
321.91	3.07
322.124	62.46
322.337	29.7
322.55	-5.12
322.763	56.32
322.977	60.42
323.19	5.12
323.403	76.8
323.617	84.99
323.83	60.42
324.043	-54.27
324.256	3.07
324.469	11.26
324.683	68.61
324.896	62.46
325.109	3.07
325.322	35.84
325.535	-37.89
325.748	95.23
325.962	78.85
326.175	-5.12
326.388	37.89
326.601	60.42
326.814	78.85
327.027	23.55
327.24	105.47
327.453	-68.61
327.666	-35.84
327.879	25.6
328.092	84.99
328.305	68.61
328.518	-1.02
328.731	21.5
328.944	54.27
329.157	-27.65
329.37	64.51
329.583	60.42
329.796	134.14
330.009	-21.5
330.222	60.42
330.435	62.46
330.648	23.55
330.861	21.5
331.073	-21.5
331.286	-9.22
331.499	13.31
331.712	-29.7
331.925	23.55
332.138	-15.36
332.35	105.47
332.563	11.26
332.776	74.75
332.989	7.17
333.202	56.32
333.414	-17.41
333.627	7.17
333.84	19.46
334.053	29.7
334.265	82.94
334.478	-35.84
334.691	89.09
334.903	58.37
335.116	-19.46
335.329	15.36
335.541	142.33
335.754	52.22
335.966	23.55
336.179	21.5
336.392	142.33
336.604	27.65
336.817	70.65
337.029	103.42
337.242	72.7
337.454	68.61
337.667	-29.7
337.88	19.46
338.092	41.98
338.305	89.09
338.517	29.7
338.729	46.08
338.942	44.03
339.154	29.7
339.367	52.22
339.579	56.32
339.792	-39.94
340.004	60.42
340.217	-11.26
340.429	-5.12
340.641	-1.02
340.854	23.55
341.066	11.26
341.278	46.08
341.491	105.47
341.703	23.55
341.915	-1.02
342.128	64.51
342.34	58.37
342.552	82.94
342.764	39.94
342.977	84.99
343.189	31.74
343.401	70.65
343.613	21.5
343.826	70.65
344.038	-19.46
344.25	121.85
344.462	35.84
344.674	11.26
344.886	-11.26
345.099	-21.5
345.311	89.09
345.523	21.5
345.735	-27.65
345.947	3.07
346.159	35.84
346.371	13.31
346.583	19.46
346.795	132.09
347.007	62.46
347.219	5.12
347.431	29.7
347.643	27.65
347.855	11.26
348.067	-19.46
348.279	27.65
348.491	7.17
348.703	68.61
348.915	60.42
349.127	-60.42
349.339	70.65
349.551	3.07
349.763	60.42
349.975	23.55
350.187	-7.17
350.399	66.56
350.61	58.37
350.822	39.94
351.034	95.23
351.246	33.79
351.458	39.94
351.669	39.94
351.881	62.46
352.093	97.28
352.305	52.22
352.517	33.79
352.728	1.02
352.94	35.84
353.152	60.42
353.363	21.5
353.575	103.42
353.787	60.42
353.999	27.65
354.21	52.22
354.422	52.22
354.633	7.17
354.845	52.22
355.057	68.61
355.268	78.85
355.48	60.42
355.692	27.65
355.903	33.79
356.115	89.09
356.326	93.18
356.538	68.61
356.749	19.46
356.961	95.23
357.172	5.12
357.384	-27.65
357.595	125.95
357.807	1.02
358.018	-5.12
358.23	23.55
358.441	74.75
358.653	89.09
358.864	41.98
359.075	109.57
359.287	31.74
359.498	-35.84
359.709	13.31
359.921	11.26
360.132	68.61
360.344	27.65
360.555	-56.32
360.766	48.13
360.977	72.7
361.189	111.61
361.4	15.36
361.611	136.19
361.823	109.57
362.034	62.46
362.245	29.7
362.456	11.26
362.667	87.04
362.879	-78.85
363.09	60.42
363.301	68.61
363.512	48.13
363.723	56.32
363.935	-9.22
364.146	78.85
364.357	29.7
364.568	84.99
364.779	-29.7
364.99	58.37
365.201	-62.46
365.412	138.24
365.623	-64.51
365.834	25.6
366.045	-9.22
366.256	64.51
366.467	103.42
366.678	68.61
366.889	37.89
367.1	27.65
367.311	52.22
367.522	70.65
367.733	25.6
367.944	54.27
368.155	44.03
368.366	44.03
368.577	68.61
368.788	37.89
368.999	3.07
369.209	48.13
369.42	117.76
369.631	89.09
369.842	21.5
370.053	48.13
370.264	64.51
370.474	13.31
370.685	66.56
370.896	35.84
371.107	68.61
371.317	84.99
371.528	37.89
371.739	35.84
371.95	25.6
372.16	44.03
372.371	-5.12
372.582	37.89
372.792	31.74
373.003	3.07
373.214	72.7
373.424	60.42
373.635	-62.46
373.846	44.03
374.056	-9.22
374.267	101.37
374.477	31.74
374.688	5.12
374.898	101.37
375.109	68.61
375.319	-39.94
375.53	130.05
375.74	27.65
375.951	9.22
376.161	29.7
376.372	123.9
376.582	-25.6
376.793	62.46
377.003	62.46
377.214	93.18
377.424	52.22
377.635	107.52
377.845	-3.07
378.055	144.38
378.266	68.61
378.476	82.94
378.686	21.5
378.897	78.85
379.107	-9.22
379.317	39.94
379.528	54.27
379.738	62.46
379.948	3.07
380.158	68.61
380.369	15.36
380.579	3.07
380.789	13.31
380.999	44.03
381.21	33.79
381.42	76.8
381.63	27.65
381.84	95.23
382.05	35.84
382.261	93.18
382.471	15.36
382.681	80.89
382.891	76.8
383.101	125.95
383.311	23.55
383.521	11.26
383.731	87.04
383.941	78.85
384.151	54.27
384.361	31.74
384.571	-21.5
384.781	68.61
384.991	93.18
385.201	52.22
385.411	19.46
385.621	105.47
385.831	27.65
386.041	64.51
386.251	70.65
386.461	60.42
386.671	27.65
386.881	7.17
387.091	66.56
387.301	23.55
387.511	60.42
387.72	54.27
387.93	60.42
388.14	11.26
388.35	21.5
388.56	60.42
388.769	68.61
388.979	80.89
389.189	5.12
389.399	70.65
389.609	52.22
389.818	13.31
390.028	46.08
390.238	37.89
390.447	19.46
390.657	68.61
390.867	58.37
391.076	23.55
391.286	-17.41
391.496	11.26
391.705	84.99
391.915	70.65
392.125	19.46
392.334	35.84
392.544	97.28
392.753	23.55
392.963	15.36
393.172	74.75
393.382	15.36
393.591	121.85
393.801	35.84
394.01	183.29
394.22	93.18
394.429	54.27
394.639	60.42
394.848	50.18
395.058	52.22
395.267	27.65
395.477	123.9
395.686	44.03
395.895	132.09
396.105	166.91
396.314	109.57
396.524	29.7
396.733	35.84
396.942	123.9
397.152	82.94
397.361	111.61
397.57	44.03
397.78	113.66
397.989	123.9
398.198	160.77
398.407	76.8
398.617	152.57
398.826	93.18
399.035	62.46
399.244	140.29
399.453	82.94
399.663	76.8
399.872	95.23
400.081	105.47
400.29	97.28
400.499	140.29
400.708	158.72
400.917	48.13
401.127	101.37
401.336	105.47
401.545	148.48
401.754	39.94
401.963	154.62
402.172	95.23
402.381	101.37
402.59	70.65
402.799	76.8
403.008	150.53
403.217	113.66
403.426	76.8
403.635	91.13
403.844	52.22
404.053	130.05
404.262	95.23
404.471	166.91
404.68	105.47
404.888	166.91
405.097	76.8
405.306	191.49
405.515	136.19
405.724	150.53
405.933	60.42
406.142	105.47
406.35	146.43
406.559	105.47
406.768	134.14
406.977	171.01
407.185	125.95
407.394	93.18
407.603	142.33
407.812	125.95
408.02	146.43
408.229	201.72
408.438	134.14
408.646	119.81
408.855	160.77
409.064	267.26
409.272	207.87
409.481	220.16
409.69	130.05
409.898	193.53
410.107	240.64
410.315	293.88
410.524	252.92
410.733	340.99
410.941	242.68
411.15	263.16
411.358	257.02
411.567	291.84
411.775	244.73
411.984	310.27
412.192	310.27
412.401	265.21
412.609	381.95
412.818	291.84
413.026	343.03
413.234	357.37
413.443	304.12
413.651	392.19
413.86	304.12
414.068	457.72
414.276	508.92
414.485	396.28
414.693	525.3
414.901	580.6
415.11	465.91
415.318	578.55
415.526	537.59
415.734	611.32
415.943	613.37
416.151	527.35
416.359	531.45
416.567	592.89
416.776	621.56
416.984	611.32
417.192	744.44
417.4	621.56
417.608	662.52
417.817	678.9
418.025	836.6
418.233	832.5
418.441	822.26
418.649	850.93
418.857	902.13
419.065	881.65
419.273	916.47
419.481	859.12
419.689	1039.34
419.897	1080.3
420.105	1088.5
420.313	1068.02
420.521	1063.92
420.729	1141.74
420.937	1240.05
421.145	1229.81
421.353	1317.87
421.561	1403.88
421.769	1338.35
421.977	1436.65
422.185	1498.09
422.393	1436.65
422.601	1573.86
422.809	1586.15
423.017	1618.92
423.224	1645.54
423.432	1721.32
423.64	1760.23
423.848	1860.58
424.056	1764.33
424.263	1956.83
424.471	1870.82
424.679	2059.23
424.887	2108.38
425.094	2167.77
425.302	2214.88
425.51	2288.61
425.718	2284.51
425.925	2227.17
426.133	2474.97
426.341	2577.37
426.548	2642.9
426.756	2620.38
426.964	2716.63
427.171	2886.61
427.379	2814.93
427.586	2966.48
427.794	3048.4
428.001	3109.84
428.209	3333.07
428.417	3460.04
428.624	3527.63
428.832	3529.67
429.039	3453.9
429.247	3595.21
429.454	3806.15
429.662	4019.14
429.869	3806.15
430.076	4137.92
430.284	4094.91
430.491	4150.21
430.699	4369.34
430.906	4391.87
431.114	4418.49
431.321	4672.44
431.528	4641.72
431.736	4934.58
431.943	5213.1
432.15	5116.85
432.358	5053.36
432.565	5286.83
432.772	5352.37
432.979	5581.74
433.187	5598.12
433.394	5649.32
433.601	6208.42
433.808	6359.97
434.016	6216.61
434.223	6452.13
434.43	6904.73
434.637	6699.93
434.844	7080.85
435.052	6974.36
435.259	7121.81
435.466	7130
435.673	7123.86
435.88	7426.96
436.087	7949.19
436.294	7822.22
436.501	7725.96
436.708	8010.63
436.915	8205.19
437.122	8530.81
437.329	8569.73
437.537	8811.39
437.743	8950.65
437.95	8881.02
438.157	9354.1
438.364	9544.56
438.571	9616.24
438.778	9849.71
438.985	10595.17
439.192	10003.3
439.399	10394.47
439.606	10255.2
439.813	10701.66
440.02	11318.1
440.227	11266.9
440.433	11135.83
440.64	11301.72
440.847	11500.37
441.054	11686.73
441.261	12477.25
441.467	12251.97
441.674	12639.04
441.881	12823.36
442.088	13042.49
442.294	12856.12
442.501	13187.89
442.708	13548.34
442.914	13886.25
443.121	14748.45
443.328	14179.11
443.534	15037.21
443.741	14955.29
443.948	14500.64
444.154	15694.61
444.361	15469.33
444.568	15680.27
444.774	15878.93
444.981	15756.05
445.187	16202.5
445.394	16702.21
445.6	16560.9
445.807	18219.75
446.013	17320.7
446.22	17601.27
446.426	18262.76
446.633	18518.76
446.839	19555.03
447.046	18529
447.252	19370.71
447.459	19493.59
447.665	19231.45
447.871	19995.34
448.078	21035.71
448.284	19999.44
448.491	20691.65
448.697	21576.37
448.903	21758.64
449.11	22084.27
449.316	21764.79
449.522	21945.01
449.728	22504.1
449.935	22553.26
450.141	22465.19
450.347	23003.81
450.553	22444.71
450.76	22882.98
450.966	23567
451.172	23251.61
451.378	23966.35
451.584	23087.78
451.791	24470.15
451.997	23702.17
452.203	24242.83
452.409	24044.18
452.615	24337.04
452.821	23319.2
453.027	23057.06
453.233	24203.92
453.44	23210.65
453.646	23610.01
453.852	23728.79
454.058	23984.79
454.264	23610.01
454.47	24244.88
454.676	23251.61
454.882	24265.36
455.088	21752.5
455.294	22565.54
455.5	22735.53
455.705	23143.07
455.911	22031.02
456.117	21772.98
456.323	21347
456.529	20130.51
456.735	21170.88
456.941	20503.24
457.147	20632.26
457.352	19706.58
457.558	19430.1
457.764	19432.15
457.97	19204.83
458.176	18848.48
458.381	18905.82
458.587	18029.29
458.793	17681.14
458.999	16823.04
459.204	18076.4
459.41	17619.7
459.616	16448.26
459.821	16382.73
460.027	16438.02
460.233	16134.92
460.438	15278.87
460.644	15541.01
460.85	14883.61
461.055	14813.98
461.261	14652.19
461.466	13466.42
461.672	13093.69
461.878	14060.33
462.083	13214.52
462.289	12899.13
462.494	12559.17
462.7	12233.54
462.905	11891.53
463.111	12157.77
463.316	12421.95
463.522	12053.32
463.727	12139.33
463.932	12045.13
464.138	11979.59
464.343	11789.13
464.549	11389.78
464.754	12090.18
464.959	11684.69
465.165	11733.84
465.37	11219.8
465.575	10881.88
465.781	11623.25
465.986	11301.72
466.191	11176.79
466.397	10689.37
466.602	10253.16
466.807	10818.39
467.012	10722.14
467.218	10664.8
467.423	10521.44
467.628	10572.64
467.833	10926.94
468.038	10531.68
468.244	10283.88
468.449	10572.64
468.654	10445.66
468.859	10396.51
469.064	10228.58
469.269	9896.81
469.474	10113.89
469.679	10050.41
469.885	9853.8
470.09	9927.53
470.295	9919.34
470.5	9808.75
470.705	9706.35
470.91	9546.61
471.115	9384.82
471.32	9491.31
471.525	9423.73
471.73	9274.23
471.935	9347.95
472.139	8936.31
472.344	8997.75
472.549	8915.83
472.754	8881.02
472.959	8774.52
473.164	8586.11
473.369	8457.09
473.574	8872.82
473.778	8557.44
473.983	8588.16
474.188	8475.52
474.393	8098.69
474.598	8217.47
474.802	8147.84
475.007	8303.49
475.212	8190.85
475.417	7744.39
475.621	7834.5
475.826	7826.31
476.031	7668.62
476.235	7533.45
476.44	7605.13
476.645	7527.31
476.849	7562.12
477.054	7369.62
477.259	7336.85
477.463	7293.84
477.668	6943.64
477.872	7351.18
478.077	6945.69
478.282	6835.1
478.486	6839.19
478.691	6708.12
478.895	6695.83
479.1	6896.53
479.304	6794.14
479.509	6519.71
479.713	6779.8
479.918	6458.27
480.122	6400.93
480.326	6560.67
480.531	6532
480.735	6427.55
480.94	6441.89
481.144	6556.57
481.348	6224.8
481.553	6523.8
481.757	6273.95
481.961	6335.39
482.166	6366.11
482.37	6468.51
482.574	6210.47
482.778	6208.42
482.983	6378.4
483.187	6155.17
483.391	6349.73
483.595	6138.79
483.8	6048.68
484.004	6321.06
484.208	6376.35
484.412	6122.4
484.616	6306.72
484.821	6253.47
485.025	6151.07
485.229	6149.03
485.433	6302.62
485.637	6364.06
485.841	6269.86
486.045	6261.66
486.249	6261.66
486.453	6243.23
486.657	6273.95
486.861	6321.06
487.065	6032.29
487.269	6114.21
487.473	6130.59
487.677	6273.95
487.881	6181.79
488.085	6149.03
488.289	6378.4
488.493	6108.07
488.697	6378.4
488.901	6280.1
489.105	6208.42
489.309	6509.47
489.512	6108.07
489.716	6265.76
489.92	6280.1
490.124	6314.91
490.328	6511.52
490.531	6345.63
490.735	6517.66
490.939	6386.59
491.143	6388.64
491.346	6400.93
491.55	6486.94
491.754	6415.26
491.958	6300.58
492.161	6591.39
492.365	6661.02
492.569	6730.65
492.772	6450.08
492.976	6544.28
493.18	6679.45
493.383	6646.68
493.587	6720.41
493.79	6919.06
493.994	6806.42
494.197	6802.33
494.401	6802.33
494.605	6869.91
494.808	7066.52
495.012	6919.06
495.215	7064.47
495.419	7111.57
495.622	7097.24
495.825	7379.86
496.029	7224.21
496.232	7390.1
496.436	7310.22
496.639	7433.1
496.843	7435.15
497.046	7637.9
497.249	7611.28
497.453	7725.96
497.656	7766.92
497.859	7771.02
498.063	7943.05
498.266	8033.16
498.469	8258.43
498.673	8293.25
498.876	8291.2
499.079	8088.45
499.282	8348.54
499.485	8565.63
499.689	8563.58
499.892	8545.15
500.095	8612.73
500.298	8971.13
500.501	8909.69
500.705	9106.29
500.908	9022.33
501.111	9161.59
501.314	9272.18
501.517	9436.02
501.72	9593.71
501.923	9331.57
502.126	9669.48
502.329	9974.63
502.532	9778.03
502.735	9968.49
502.938	10218.34
503.141	9892.71
503.344	10419.04
503.547	10382.18
503.75	10290.02
503.953	10486.62
504.156	10529.63
504.359	10427.23
504.562	10802.01
504.765	11256.66
504.968	11123.54
505.17	11223.89
505.373	11064.15
505.576	11565.9
505.779	11635.53
505.982	11627.34
506.185	11942.73
506.387	11694.93
506.59	12014.41
506.793	12170.05
506.996	12385.09
507.198	12559.17
507.401	12524.35
507.604	12708.67
507.807	13007.67
508.009	12817.21
508.212	13019.96
508.415	13275.96
508.617	13267.77
508.82	13421.36
509.022	13331.25
509.225	13841.2
509.428	13867.82
509.63	14054.19
509.833	14107.43
510.035	14338.85
510.238	14426.92
510.44	14422.82
510.643	14693.15
510.845	14762.78
511.048	14699.3
511.25	14891.8
511.453	14822.17
511.655	15514.39
511.858	15323.93
512.06	15532.82
512.262	15819.53
512.465	15692.56
512.667	15768.34
512.87	15944.46
513.072	16098.06
513.274	16487.17
513.477	16628.48
513.679	16665.35
513.881	17068.8
514.084	17097.47
514.286	17154.81
514.488	17275.64
514.69	17804.02
514.893	17672.95
515.095	17457.91
515.297	17836.78
515.499	18109.16
515.701	18373.35
515.904	18535.14
516.106	18434.79
516.308	18608.87
516.51	19012.32
516.712	18705.12
516.914	18991.84
517.116	19372.76
517.318	19270.36
517.52	19573.46
517.722	19655.38
517.925	19948.24
518.127	20073.17
518.329	20445.9
518.531	20232.91
518.733	20548.29
518.935	20980.42
519.136	20640.45
519.338	21240.51
519.54	21205.69
519.742	21697.2
519.944	21508.79
520.146	21836.47
520.348	22071.98
520.55	22155.95
520.752	22053.55
520.954	22207.15
521.155	22074.03
521.357	22434.47
521.559	22809.25
521.761	23046.82
521.963	23409.31
522.164	23179.93
522.366	23108.26
522.568	23794.32
522.77	23730.84
522.971	23978.64
523.173	23923.35
523.375	23851.67
523.576	24117.9
523.778	24154.77
523.98	24695.43
524.181	24648.33
524.383	24421
524.584	24754.82
524.786	25135.74
524.988	24844.93
525.189	25123.46
525.391	25328.25
525.592	25346.69
525.794	25408.12
525.995	25803.38
526.197	25604.73
526.398	25666.17
526.6	25795.19
526.801	25899.64
527.003	25846.39
527.204	26176.11
527.406	26653.29
527.607	26264.18
527.808	26487.4
528.01	26448.49
528.211	26507.88
528.412	27181.67
528.614	26778.22
528.815	26763.88
529.016	26946.15
529.218	26860.13
529.419	27306.59
529.62	26722.92
529.822	26954.34
530.023	26952.29
530.224	27044.45
530.425	27087.46
530.626	27017.83
530.828	27146.85
531.029	27435.61
531.23	27228.77
531.431	27142.75
531.632	27544.16
531.833	27390.56
532.035	27435.61
532.236	27474.52
532.437	27488.86
532.638	27220.58
532.839	27572.83
533.04	27658.84
533.241	27370.08
533.442	28136.02
533.643	27372.13
533.844	27474.52
534.045	27611.74
534.246	27490.91
534.447	27675.23
534.648	27654.75
534.849	27767.38
535.05	27392.61
535.251	27394.65
535.451	27560.54
535.652	27748.95
535.853	27499.1
536.054	27624.03
536.255	27732.57
536.456	26937.96
536.657	28144.21
536.857	27449.95
537.058	27415.13
537.259	27673.18
537.46	27867.73
537.66	27546.2
537.861	27992.66
538.062	27460.19
538.263	27861.59
538.463	27509.34
538.664	27656.79
538.865	27484.76
539.065	27632.22
539.266	27069.03
539.466	27830.87
539.667	27363.93
539.868	27443.81
540.068	27951.7
540.269	27619.93
540.469	27916.89
540.67	27300.45
540.87	27273.82
541.071	27312.74
541.271	27558.49
541.472	27437.66
541.672	27480.67
541.873	27441.76
542.073	26757.74
542.274	27726.42
542.474	27226.72
542.675	27228.77
542.875	27556.44
543.075	27245.15
543.276	26972.77
543.476	27820.63
543.676	27359.84
543.877	27312.74
544.077	27359.84
544.277	26905.19
544.478	27202.14
544.678	27300.45
544.878	27118.18
545.078	27361.89
545.279	27044.45
545.479	26950.24
545.679	27400.8
545.879	27216.48
546.079	27548.25
546.28	27183.71
546.48	26847.85
546.68	27132.51
546.88	27501.15
547.08	27236.96
547.28	26868.33
547.48	26944.1
547.68	27066.98
547.88	27103.84
548.081	27265.63
548.281	27077.22
548.481	26999.4
548.681	26899.05
548.881	26882.66
549.081	27011.68
549.28	26890.85
549.48	27007.59
549.68	26956.39
549.88	27587.16
550.08	27032.16
550.28	27226.72
550.48	26974.82
550.68	26804.84
550.88	27103.84
551.08	26890.85
551.279	26702.44
551.479	26823.27
551.679	27030.12
551.879	26778.22
552.079	26937.96
552.278	26987.11
552.478	26847.85
552.678	26772.07
552.878	27028.07
553.077	27030.12
553.277	27042.4
553.477	26917.48
553.676	26634.86
553.876	26532.46
554.076	26786.41
554.275	26536.56
554.475	26722.92
554.674	26810.98
554.874	26722.92
555.074	26806.89
555.273	26825.32
555.473	26653.29
555.672	26632.81
555.872	26743.4
556.071	26788.46
556.271	26702.44
556.47	26526.32
556.67	26552.94
556.869	26526.32
557.068	26641
557.268	26284.65
557.467	26243.7
557.667	26450.54
557.866	26243.7
558.065	26317.42
558.265	26014.32
558.464	25887.35
558.663	26380.91
558.863	25973.36
559.062	26423.92
559.261	25864.82
559.461	26389.1
559.66	25784.95
559.859	26073.71
560.058	26026.61
560.258	26247.79
560.457	25778.81
560.656	26061.43
560.855	25588.35
561.054	26081.91
561.253	25608.83
561.453	25887.35
561.652	25682.55
561.851	25791.09
562.05	25535.1
562.249	25567.87
562.448	25817.72
562.647	25510.52
562.846	25457.28
563.045	25686.65
563.244	25410.17
563.443	25561.72
563.642	25254.53
563.841	25221.76
564.04	25383.55
564.239	25719.42
564.438	25209.47
564.637	25492.09
564.836	25031.3
565.035	24791.69
565.234	24889.99
565.432	24617.61
565.631	24863.36
565.83	25000.58
566.029	24652.42
566.228	24877.7
566.427	24906.37
566.625	24662.66
566.824	24631.94
567.023	24758.92
567.222	24214.16
567.42	24711.81
567.619	24343.18
567.818	24334.99
568.016	24115.86
568.215	24568.46
568.414	24056.46
568.612	24404.62
568.811	24001.17
569.01	24119.95
569.208	23653.02
569.407	24349.32
569.605	23675.54
569.804	24099.47
570.002	23872.15
570.201	23839.38
570.4	23687.83
570.598	23693.97
570.797	23468.7
570.995	23585.43
571.193	23403.16
571.392	23720.6
571.59	23270.04
571.789	23153.31
571.987	23341.72
572.186	23132.83
572.384	23167.65
572.582	23263.9
572.781	23192.22
572.979	22932.13
573.177	22868.64
573.376	23231.13
573.574	22776.48
573.772	22827.68
573.971	22895.27
574.169	22438.57
574.367	22395.56
574.565	22403.75
574.763	22796.96
574.962	22508.2
575.16	22237.87
575.358	22391.47
575.556	22041.26
575.754	22897.31
575.952	22241.96
576.151	22086.32
576.349	22389.42
576.547	21852.85
576.745	22110.89
576.943	22014.64
577.141	21805.75
577.339	21977.78
577.537	21486.26
577.735	21904.05
577.933	21406.39
578.131	21502.65
578.329	21465.78
578.527	21295.8
578.725	21453.5
578.923	21566.13
579.121	21506.74
579.319	21342.91
579.516	21580.47
579.714	21504.7
579.912	21164.73
580.11	20959.94
580.308	21177.02
580.506	21082.81
580.704	20830.91
580.901	21201.6
581.099	21404.35
581.297	20697.8
581.495	20837.06
581.692	20849.35
581.89	20456.14
582.088	20544.2
582.285	20525.77
582.483	20677.32
582.681	20568.77
582.878	20546.25
583.076	20294.35
583.274	20605.64
583.471	20224.72
583.669	20597.45
583.866	20142.8
584.064	20239.05
584.262	20212.43
584.459	20130.51
584.657	20083.41
584.854	20163.28
585.052	19544.79
585.249	20017.87
585.447	20015.82
585.644	19495.64
585.841	19866.32
586.039	19847.89
586.236	19610.32
586.434	19249.88
586.631	19528.41
586.828	19520.21
587.026	19391.19
587.223	19411.67
587.42	19163.87
587.618	19204.83
587.815	18985.69
588.012	19241.69
588.21	19014.37
588.407	19065.57
588.604	19063.52
588.801	18844.38
588.999	18821.86
589.196	18825.95
589.393	18684.64
589.59	18696.93
589.787	18862.82
589.984	18494.18
590.182	18330.34
590.379	18551.52
590.576	18338.54
590.773	18301.67
590.97	18287.34
591.167	18389.74
591.364	18164.46
591.561	18377.45
591.758	17992.43
591.955	18154.22
592.152	18428.65
592.349	17943.28
592.546	18092.78
592.743	17693.43
592.94	17537.78
593.137	17699.57
593.334	18031.34
593.531	17345.27
593.727	17787.63
593.924	17636.08
594.121	17308.41
594.318	17515.25
594.515	17337.08
594.712	17613.56
594.908	17554.16
595.105	17447.67
595.302	17238.78
595.499	17271.54
595.696	17271.54
595.892	17021.69
596.089	17378.04
596.286	17052.41
596.482	16845.57
596.679	16993.02
596.876	17113.85
597.072	17031.93
597.269	16855.81
597.466	16595.71
597.662	16605.95
597.859	16562.95
598.055	16651.01
598.252	16487.17
598.448	16651.01
598.645	16438.02
598.841	16567.04
599.038	16192.26
599.234	16540.42
599.431	16261.9
599.627	16239.37
599.824	16200.46
600.02	16177.93
600.217	15936.27
600.413	16118.54
600.609	16227.08
600.806	16161.55
601.002	16032.52
601.198	15844.11
601.395	15764.24
601.591	15715.09
601.787	15713.04
601.984	15543.06
602.18	15598.35
602.376	15549.2
602.572	15717.14
602.769	15528.72
602.965	15473.43
603.161	15450.9
603.357	15328.02
603.553	15301.4
603.75	15078.17
603.946	14992.16
604.142	15311.64
604.338	15211.29
604.534	15029.02
604.73	15092.51
604.926	14871.33
605.122	15268.63
605.318	14850.85
605.514	14902.04
605.71	14816.03
605.906	14748.45
606.102	14699.3
606.298	14854.94
606.494	14498.59
606.69	14418.72
606.886	14582.56
607.082	14420.77
607.278	14777.12
607.474	14336.81
607.67	14562.08
607.866	14021.42
608.062	14519.07
608.257	14510.88
608.453	14347.05
608.649	14345
608.845	14363.43
609.041	14330.66
609.236	14175.02
609.432	14070.57
609.628	14181.16
609.824	14127.91
610.019	13871.92
610.215	14162.73
610.411	14066.47
610.606	13849.39
610.802	14076.71
610.998	14029.61
611.193	14009.13
611.389	13857.58
611.584	13896.49
611.78	13708.08
611.976	14015.27
612.171	14043.95
612.367	13826.86
612.562	13658.93
612.758	13628.21
612.953	13509.43
613.149	13669.17
613.344	13566.77
613.539	13931.31
613.735	13701.93
613.93	13658.93
614.126	13292.34
614.321	13898.54
614.517	13609.78
614.712	13603.63
614.907	13443.89
615.103	13628.21
615.298	13402.93
615.493	13511.47
615.688	13329.2
615.884	13677.36
616.079	13402.93
616.274	13534
616.47	13341.49
616.665	13210.42
616.86	13407.03
617.055	13022.01
617.25	13226.81
617.445	13280.05
617.641	12876.6
617.836	13085.5
618.031	12856.12
618.226	12872.51
618.421	12825.4
618.616	13144.89
618.811	12804.92
619.006	12868.41
619.201	12569.41
619.396	12923.71
619.591	12655.42
619.786	13042.49
619.981	12532.54
620.176	12559.17
620.371	12323.65
620.566	12634.94
620.761	12405.57
620.956	12483.39
621.151	12155.72
621.346	12225.35
621.541	11922.25
621.735	12061.51
621.93	12006.22
622.125	12004.17
622.32	11776.84
622.515	11688.78
622.709	11672.4
622.904	11735.88
623.099	11629.39
623.294	11856.72
623.488	11434.83
623.683	11598.67
623.878	11330.39
624.072	11238.23
624.267	11391.83
624.462	11344.72
624.656	11137.88
624.851	11250.52
625.046	11037.53
625.24	11082.58
625.435	10939.23
625.629	10881.88
625.824	10955.61
626.018	10818.39
626.213	10742.62
626.407	10605.41
626.602	10376.03
626.796	10492.77
626.991	10349.41
627.185	10373.99
627.38	10357.6
627.574	10292.07
627.768	10234.72
627.963	10277.73
628.157	10185.57
628.352	10177.38
628.546	9849.71
628.74	10079.08
628.935	9964.39
629.129	10011.5
629.323	9851.75
629.517	9841.51
629.712	9845.61
629.906	9622.38
630.1	9620.33
630.294	9565.04
630.489	9655.15
630.683	9587.57
630.877	9352.05
631.071	9358.19
631.265	9341.81
631.459	9192.31
631.653	9206.64
631.848	9325.43
632.042	9173.88
632.236	9309.04
632.43	9157.49
632.624	8930.17
632.818	8899.45
633.012	8907.64
633.206	8985.46
633.4	8915.83
633.594	8838.01
633.788	8659.84
633.982	8612.73
634.176	8416.13
634.369	8704.89
634.563	8434.56
634.757	8362.88
634.951	8575.87
635.145	8553.34
635.339	8471.42
635.533	8366.98
635.726	8387.46
635.92	8252.29
636.114	8194.95
636.308	8211.33
636.501	8049.54
636.695	7988.1
636.889	8072.07
637.083	8092.55
637.276	7979.91
637.47	7834.5
637.664	7748.49
637.857	7949.19
638.051	7709.58
638.244	7842.7
638.438	7756.68
638.632	7668.62
638.825	7691.15
639.019	7699.34
639.212	7623.56
639.406	7435.15
639.599	7650.19
639.793	7584.65
639.986	7484.3
640.18	7312.27
640.373	7398.29
640.567	7330.7
640.76	7383.95
640.954	7287.7
641.147	7056.28
641.34	7025.56
641.534	7218.07
641.727	6984.6
641.92	6886.29
642.114	6935.45
642.307	7029.65
642.5	6714.27
642.694	6673.31
642.887	6591.39
643.08	6747.03
643.273	6933.4
643.467	6783.9
643.66	6611.87
643.853	6814.62
644.046	6572.96
644.239	6493.08
644.432	6411.17
644.626	6362.01
644.819	6441.89
645.012	6515.61
645.205	6525.85
645.398	6370.21
645.591	6306.72
645.784	6417.31
645.977	6171.55
646.17	6347.68
646.363	6265.76
646.556	5985.19
646.749	6372.25
646.942	6192.03
647.135	6056.87
647.328	6110.11
647.521	6136.74
647.714	5991.33
647.907	6155.17
648.099	6020
648.292	6106.02
648.485	5917.61
648.678	5913.51
648.871	5843.88
649.064	5616.55
649.256	5753.77
649.449	5792.68
649.642	5811.11
649.835	5729.19
650.027	5694.38
650.22	5594.03
650.413	5589.93
650.605	5532.59
650.798	5542.83
650.991	5368.75
651.183	5475.24
651.376	5456.81
651.568	5325.74
651.761	5368.75
651.954	5340.08
652.146	5280.69
652.339	5311.41
652.531	5295.02
652.724	5311.41
652.916	5319.6
653.109	5264.3
653.301	5223.34
653.494	5227.44
653.686	5032.88
653.879	5186.48
654.071	5059.51
654.263	5147.57
654.456	4950.96
654.648	5075.89
654.84	4871.09
655.033	4910.01
655.225	4920.24
655.417	4783.03
655.61	4848.57
655.802	4903.86
655.994	4762.55
656.186	4828.09
656.379	4721.59
656.571	4731.83
656.763	4811.7
656.955	4705.21
657.148	4916.15
657.34	4760.5
657.532	4770.74
657.724	4686.78
657.916	4578.23
658.108	4617.15
658.3	4484.03
658.492	4574.14
658.684	4455.36
658.876	4584.38
659.068	4590.52
659.26	4463.55
659.452	4350.91
659.644	4373.44
659.836	4375.49
660.028	4371.39
660.22	4164.54
660.412	4305.85
660.604	4307.9
660.796	4312
660.988	4320.19
661.18	4287.42
661.372	4133.82
661.563	4238.27
661.755	4135.87
661.947	4205.5
662.139	4223.94
662.331	4279.23
662.522	4029.38
662.714	3869.64
662.906	4182.98
663.097	3961.8
663.289	3951.56
663.481	3992.52
663.673	3974.08
663.864	3816.39
664.056	3888.07
664.247	3922.88
664.439	3838.92
664.631	3783.62
664.822	3816.39
665.014	3990.47
665.205	3779.53
665.397	3781.57
665.588	3888.07
665.78	3806.15
665.971	3777.48
666.163	3863.49
666.354	3713.99
666.546	3724.23
666.737	3611.59
666.929	3732.42
667.12	3689.42
667.311	3691.46
667.503	3517.39
667.694	3593.16
667.885	3537.87
668.077	3642.31
668.268	3419.08
668.459	3476.43
668.651	3535.82
668.842	3599.31
669.033	3537.87
669.224	3490.76
669.416	3599.31
669.607	3595.21
669.798	3402.7
669.989	3451.85
670.18	3505.1
670.371	3331.02
670.563	3421.13
670.754	3345.36
670.945	3331.02
671.136	3273.68
671.327	3404.75
671.518	3279.82
671.709	3374.03
671.9	3337.17
672.091	3263.44
672.282	3218.38
672.473	3148.75
672.664	3279.82
672.855	3228.62
673.046	3255.25
673.237	3298.25
673.428	3214.29
673.619	3189.71
673.809	3189.71
674	3296.21
674.191	3214.29
674.382	3029.97
674.573	3148.75
674.764	3058.64
674.954	3193.81
675.145	3126.22
675.336	3085.26
675.527	3132.37
675.717	3156.94
675.908	3087.31
676.099	3156.94
676.289	3138.51
676.48	3083.22
676.671	3003.35
676.861	2984.91
677.052	2976.72
677.243	2974.67
677.433	3115.98
677.624	3152.85
677.814	3138.51
678.005	2976.72
678.195	3007.44
678.386	3023.83
678.576	3017.68
678.767	2919.38
678.957	2960.34
679.148	3013.59
679.338	2978.77
679.529	2925.52
679.719	2915.28
679.909	2960.34
680.1	3050.45
680.29	3140.56
680.481	2941.91
680.671	2950.1
680.861	2796.5
681.052	2968.53
681.242	2956.24
681.432	2978.77
681.622	2894.8
681.813	2757.59
682.003	2911.19
682.193	2939.86
682.383	2968.53
682.573	2960.34
682.764	2839.51
682.954	2933.72
683.144	2890.71
683.334	2776.02
683.524	2974.67
683.714	2880.47
683.904	2855.89
684.094	2882.52
684.284	2827.22
684.474	2759.64
684.664	2919.38
684.854	2806.74
685.044	2946
685.234	2749.4
685.424	2806.74
685.614	2690.01
685.804	2706.39
685.994	2780.12
686.184	2763.73
686.374	2767.83
686.564	2690.01
686.753	2739.16
686.943	2657.24
687.133	2804.69
687.323	2673.62
687.513	2704.34
687.702	2665.43
687.892	2626.52
688.082	2616.28
688.272	2714.58
688.461	2534.36
688.651	2687.96
688.841	2567.13
689.03	2649.05
689.22	2599.9
689.41	2485.21
689.599	2626.52
689.789	2589.66
689.979	2464.73
690.168	2536.41
690.358	2477.02
690.547	2583.51
690.737	2540.51
690.926	2583.51
691.116	2440.15
691.305	2483.16
691.495	2554.84
691.684	2257.89
691.874	2393.05
692.063	2345.95
692.252	2544.6
692.442	2503.64
692.631	2366.43
692.82	2466.78
693.01	2399.2
693.199	2436.06
693.388	2294.75
693.578	2425.82
693.767	2280.41
693.956	2380.76
694.146	2280.41
694.335	2282.46
694.524	2337.76
694.713	2313.18
694.902	2274.27
695.092	2208.73
695.281	2268.13
695.47	2292.7
695.659	2247.65
695.848	2286.56
696.037	2307.04
696.226	2317.28
696.415	2145.25
696.604	2321.37
696.793	2264.03
696.982	2153.44
697.171	2276.32
697.36	2223.07
697.549	2218.97
697.738	2108.38
697.927	2145.25
698.116	2186.21
698.305	2151.39
698.494	2175.97
698.683	2124.77
698.872	2173.92
699.061	2126.82
699.25	2147.3
699.438	2206.69
699.627	2108.38
699.816	2231.26
700.005	2145.25
700.193	2137.06
700.382	2161.63
700.571	2167.77
700.76	2085.86
700.948	2196.45
701.137	1997.79
701.326	2272.22
701.514	2102.24
701.703	2137.06
701.892	2085.86
702.08	2141.15
702.269	2120.67
702.457	2135.01
702.646	2085.86
702.834	2145.25
703.023	2044.9
703.212	2120.67
703.4	2024.42
703.589	2165.73
703.777	2034.66
703.965	2022.37
704.154	2159.58
704.342	2116.58
704.531	2139.1
704.719	2005.99
704.907	2071.52
705.096	1977.31
705.284	2005.99
705.472	2116.58
705.661	2032.61
705.849	2143.2
706.037	2038.75
706.226	2034.66
706.414	1950.69
706.602	2012.13
706.79	2003.94
706.979	2151.39
707.167	1995.75
707.355	2067.42
707.543	2120.67
707.731	2030.56
707.919	2071.52
708.107	2055.14
708.296	2028.51
708.484	2102.24
708.672	2042.85
708.86	2092
709.048	2001.89
709.236	2100.19
709.424	2018.27
709.612	1985.51
709.8	1952.74
709.988	2143.2
710.176	2073.57
710.364	2067.42
710.551	2026.47
710.739	2065.38
710.927	2102.24
711.115	2032.61
711.303	2059.23
711.491	2030.56
711.679	2018.27
711.866	2042.85
712.054	2016.23
712.242	2077.66
712.43	2022.37
712.617	2059.23
712.805	1969.12
712.993	2012.13
713.181	2018.27
713.368	2110.43
713.556	2083.81
713.744	1856.48
713.931	2085.86
714.119	2032.61
714.306	2001.89
714.494	2110.43
714.682	1985.51
714.869	1876.96
715.057	1967.07
715.244	2038.75
715.432	2065.38
715.619	1997.79
715.807	2026.47
715.994	2106.34
716.182	1915.87
716.369	2073.57
716.556	2005.99
716.744	1844.2
716.931	1948.64
717.119	1993.7
717.306	1860.58
717.493	1989.6
717.681	1930.21
717.868	2067.42
718.055	1911.78
718.242	2026.47
718.43	2010.08
718.617	1952.74
718.804	1932.26
718.991	1942.5
719.179	2024.42
719.366	2042.85
719.553	1891.3
719.74	1928.16
719.927	1952.74
720.114	1848.29
720.301	2042.85
720.488	2001.89
720.676	1946.59
720.863	2051.04
721.05	1993.7
721.237	1985.51
721.424	2055.14
721.611	2018.27
721.798	1919.97
721.985	1985.51
722.172	1936.35
722.358	1928.16
722.545	1969.12
722.732	1887.2
722.919	2014.18
723.106	2003.94
723.293	1981.41
723.48	1919.97
723.667	1981.41
723.853	2051.04
724.04	2026.47
724.227	1928.16
724.414	1887.2
724.6	2001.89
724.787	1928.16
724.974	1975.27
725.161	2005.99
725.347	1866.72
725.534	2028.51
725.72	1991.65
725.907	2092
726.094	2044.9
726.28	1958.88
726.467	2005.99
726.653	1938.4
726.84	1981.41
727.027	1989.6
727.213	1960.93
727.4	1991.65
727.586	1995.75
727.773	2003.94
727.959	1989.6
728.145	2005.99
728.332	1942.5
728.518	1936.35
728.705	1962.98
728.891	2001.89
729.077	1930.21
729.264	1891.3
729.45	1946.59
729.636	2055.14
729.823	1924.07
730.009	2036.7
730.195	2057.18
730.382	2012.13
730.568	2030.56
730.754	1922.02
730.94	1985.51
731.126	1983.46
731.313	1997.79
731.499	1905.63
731.685	1936.35
731.871	1962.98
732.057	1928.16
732.243	2024.42
732.429	1913.83
732.615	1911.78
732.801	2020.32
732.987	1930.21
733.173	2040.8
733.359	1899.49
733.545	1977.31
733.731	1874.92
733.917	1870.82
734.103	1936.35
734.289	1899.49
734.475	1821.67
734.661	1969.12
734.847	2028.51
735.033	1948.64
735.219	1938.4
735.404	1905.63
735.59	1874.92
735.776	1854.44
735.962	1924.07
736.148	1870.82
736.333	2061.28
736.519	1879.01
736.705	1842.15
736.89	1815.52
737.076	1870.82
737.262	1862.63
737.447	1770.47
737.633	1879.01
737.819	1885.16
738.004	1846.24
738.19	1930.21
738.375	1887.2
738.561	1811.43
738.747	1919.97
738.932	1899.49
739.118	1915.87
739.303	1831.91
739.489	1829.86
739.674	1879.01
739.859	1637.35
740.045	1793
740.23	1868.77
740.416	1666.02
740.601	1756.13
740.786	1854.44
740.972	1737.7
741.157	1797.09
741.342	1758.18
741.528	1866.72
741.713	1801.19
741.898	1741.8
742.084	1733.61
742.269	1719.27
742.454	1752.04
742.639	1776.61
742.824	1813.48
743.01	1821.67
743.195	1743.85
743.38	1749.99
743.565	1602.54
743.75	1723.37
743.935	1672.17
744.12	1704.93
744.305	1739.75
744.49	1715.17
744.675	1668.07
744.86	1694.69
745.045	1754.09
745.23	1706.98
745.415	1629.16
745.6	1629.16
745.785	1635.3
745.97	1645.54
746.155	1676.26
746.34	1666.02
746.525	1610.73
746.71	1592.3
746.895	1651.69
747.079	1553.38
747.264	1522.66
747.449	1602.54
747.634	1602.54
747.819	1545.19
748.003	1602.54
748.188	1588.2
748.373	1438.7
748.557	1387.5
748.742	1532.9
748.927	1436.65
749.111	1477.61
749.296	1414.12
749.481	1475.56
749.665	1489.9
749.85	1414.12
750.034	1485.8
750.219	1455.08
750.404	1373.16
750.588	1422.31
750.773	1301.48
750.957	1457.13
751.141	1465.32
751.326	1407.98
751.51	1399.79
751.695	1332.2
751.879	1334.25
752.064	1362.92
752.248	1446.89
752.432	1321.96
752.617	1348.59
752.801	1338.35
752.985	1248.24
753.17	1330.16
753.354	1246.19
753.538	1207.28
753.722	1201.13
753.907	1215.47
754.091	1223.66
754.275	1272.81
754.459	1223.66
754.643	1168.37
754.828	1330.16
755.012	1199.09
755.196	1106.93
755.38	1211.37
755.564	1072.11
755.748	1022.96
755.932	1076.21
756.116	1113.07
756.3	1084.4
756.484	1100.78
756.668	1174.51
756.852	1092.59
757.036	1074.16
757.22	1172.46
757.404	1076.21
757.588	1086.45
757.772	1086.45
757.956	1084.4
758.14	1055.73
758.323	924.66
758.507	1121.26
758.691	1059.82
758.875	1080.3
759.059	990.19
759.242	1061.87
759.426	996.34
759.61	1068.02
759.794	1084.4
759.977	1020.91
760.161	1025.01
760.345	955.38
760.528	959.47
760.712	965.62
760.895	936.95
761.079	969.71
761.263	887.79
761.446	867.31
761.63	928.75
761.813	1006.58
761.997	883.7
762.18	902.13
762.364	945.14
762.547	828.4
762.731	1006.58
762.914	824.31
763.098	910.32
763.281	912.37
763.464	881.65
763.648	875.51
763.831	879.6
764.015	871.41
764.198	840.69
764.381	881.65
764.564	957.43
764.748	801.78
764.931	838.64
765.114	816.12
765.297	822.26
765.481	756.72
765.664	701.43
765.847	865.27
766.03	844.79
766.213	771.06
766.397	824.31
766.58	871.41
766.763	920.56
766.946	715.77
767.129	742.39
767.312	721.91
767.495	838.64
767.678	769.01
767.861	830.45
768.044	723.96
768.227	822.26
768.41	797.68
768.593	758.77
768.776	777.2
768.959	832.5
769.142	783.35
769.324	756.72
769.507	717.81
769.69	726
769.873	732.15
770.056	732.15
770.239	680.95
770.421	652.28
770.604	670.71
770.787	648.18
770.97	748.53
771.152	717.81
771.335	756.72
771.518	592.89
771.7	707.57
771.883	797.68
772.066	723.96
772.248	756.72
772.431	719.86
772.613	744.44
772.796	617.46
772.978	699.38
773.161	664.57
773.343	625.65
773.526	656.37
773.708	621.56
773.891	529.4
774.073	717.81
774.256	644.09
774.438	644.09
774.621	574.46
774.803	527.35
774.985	594.93
775.168	584.7
775.35	592.89
775.532	535.54
775.715	588.79
775.897	633.85
776.079	670.71
776.261	584.7
776.444	562.17
776.626	603.13
776.808	549.88
776.99	584.7
777.173	549.88
777.355	496.63
777.537	588.79
777.719	506.87
777.901	437.24
778.083	476.15
778.265	539.64
778.447	594.93
778.629	533.5
778.811	553.98
778.993	556.02
779.175	529.4
779.357	517.11
779.539	496.63
779.721	521.21
779.903	576.5
780.085	537.59
780.267	455.67
780.449	449.53
780.631	463.86
780.812	463.86
780.994	463.86
781.176	455.67
781.358	431.1
781.54	390.14
781.721	517.11
781.903	486.39
782.085	478.2
782.267	431.1
782.448	363.51
782.63	379.9
782.812	367.61
782.993	449.53
783.175	377.85
783.357	439.29
783.538	463.86
783.72	437.24
783.901	429.05
784.083	437.24
784.264	445.43
784.446	402.43
784.627	365.56
784.809	373.75
784.99	410.62
785.172	379.9
785.353	390.14
785.535	375.8
785.716	330.75
785.897	332.79
786.079	373.75
786.26	363.51
786.441	349.18
786.623	326.65
786.804	359.42
786.985	297.98
787.167	326.65
787.348	338.94
787.529	297.98
787.71	363.51
787.891	404.47
788.073	379.9
788.254	275.45
788.435	365.56
788.616	252.92
788.797	297.98
788.978	363.51
789.159	433.15
789.34	334.84
789.522	357.37
789.703	277.5
789.884	349.18
790.065	347.13
790.246	433.15
790.427	322.56
790.607	314.36
790.788	388.09
790.969	248.83
791.15	289.79
791.331	269.31
791.512	300.03
791.693	232.44
791.874	277.5
792.054	316.41
792.235	306.17
792.416	240.64
792.597	250.88
792.778	334.84
792.958	279.55
793.139	195.58
793.32	252.92
793.5	248.83
793.681	332.79
793.862	216.06
794.042	242.68
794.223	207.87
794.404	267.26
794.584	240.64
794.765	283.64
794.945	289.79
795.126	191.49
795.306	183.29
795.487	220.16
795.667	263.16
795.848	209.92
796.028	168.96
796.209	283.64
796.389	281.6
796.57	236.54
796.75	230.4
796.93	273.4
797.111	232.44
797.291	191.49
797.471	269.31
797.652	259.07
797.832	162.81
798.012	275.45
798.192	211.96
798.373	209.92
798.553	177.15
798.733	205.82
798.913	232.44
799.093	254.97
799.274	228.35
799.454	158.72
799.634	261.12
799.814	314.36
799.994	189.44
800.174	199.68
800.354	207.87
800.534	183.29
800.714	193.53
800.894	232.44
801.074	199.68
801.254	189.44
801.434	228.35
801.614	216.06
801.794	121.85
801.974	781.3
802.154	142.33
802.334	265.21
802.514	146.43
802.693	158.72
802.873	201.72
803.053	216.06
803.233	175.1
803.413	156.67
803.592	199.68
803.772	101.37
803.952	199.68
804.131	207.87
804.311	248.83
804.491	214.01
804.67	142.33
804.85	175.1
805.03	185.34
805.209	281.6
805.389	173.05
805.568	130.05
805.748	158.72
805.928	222.2
806.107	166.91
806.287	189.44
806.466	107.52
806.646	142.33
806.825	171.01
807.004	130.05
807.184	152.57
807.363	148.48
807.543	173.05
807.722	162.81
807.901	171.01
808.081	191.49
808.26	103.42
808.439	181.25
808.619	160.77
808.798	93.18
808.977	152.57
809.156	150.53
809.336	103.42
809.515	199.68
809.694	68.61
809.873	152.57
810.052	134.14
810.231	128
810.411	144.38
810.59	95.23
810.769	54.27
810.948	138.24
811.127	164.86
811.306	158.72
811.485	103.42
811.664	175.1
811.843	140.29
812.022	250.88
812.201	152.57
812.38	93.18
812.559	93.18
812.737	158.72
812.916	84.99
813.095	193.53
813.274	134.14
813.453	142.33
813.632	130.05
813.811	136.19
813.989	105.47
814.168	146.43
814.347	197.63
814.526	109.57
814.704	130.05
814.883	148.48
815.062	60.42
815.24	236.54
815.419	84.99
815.598	191.49
815.776	103.42
815.955	87.04
816.133	119.81
816.312	146.43
816.49	84.99
816.669	76.8
816.847	72.7
817.026	103.42
817.204	89.09
817.383	232.44
817.561	101.37
817.74	121.85
817.918	84.99
818.097	62.46
818.275	109.57
818.453	84.99
818.632	150.53
818.81	91.13
818.988	62.46
819.167	146.43
819.345	113.66
819.523	44.03
819.701	109.57
819.879	132.09
820.058	158.72
820.236	76.8
820.414	156.67
820.592	52.22
820.77	101.37
820.948	113.66
821.127	109.57
821.305	91.13
821.483	103.42
821.661	35.84
821.839	117.76
822.017	7.17
822.195	105.47
822.373	113.66
822.551	164.86
822.729	72.7
822.907	60.42
823.085	105.47
823.262	154.62
823.44	68.61
823.618	76.8
823.796	93.18
823.974	146.43
824.152	101.37
824.329	15.36
824.507	66.56
824.685	62.46
824.863	62.46
825.04	35.84
825.218	140.29
825.396	117.76
825.574	37.89
825.751	64.51
825.929	84.99
826.107	78.85
826.284	19.46
826.462	113.66
826.639	117.76
826.817	11.26
826.994	64.51
827.172	87.04
827.349	166.91
827.527	56.32
827.704	125.95
827.882	103.42
828.059	134.14
828.237	84.99
828.414	13.31
828.591	62.46
828.769	56.32
828.946	89.09
829.124	70.65
829.301	109.57
829.478	72.7
829.655	107.52
829.833	46.08
830.01	-13.31
830.187	109.57
830.364	158.72
830.542	64.51
830.719	93.18
830.896	93.18
831.073	95.23
831.25	107.52
831.427	123.9
831.604	76.8
831.782	-3.07
831.959	101.37
832.136	23.55
832.313	105.47
832.49	46.08
832.667	48.13
832.844	101.37
833.021	52.22
833.198	68.61
833.374	70.65
833.551	60.42
833.728	7.17
833.905	78.85
834.082	117.76
834.259	76.8
834.436	101.37
834.612	48.13
834.789	168.96
834.966	80.89
835.143	93.18
835.319	19.46
835.496	46.08
835.673	19.46
835.85	52.22
836.026	111.61
836.203	46.08
836.38	68.61
836.556	80.89
836.733	7.17
836.909	89.09
837.086	5.12
837.262	33.79
837.439	-1.02
837.616	48.13
837.792	52.22
837.968	72.7
838.145	19.46
838.321	117.76
838.498	27.65
838.674	33.79
838.851	54.27
839.027	56.32
839.203	-1.02
839.38	19.46
839.556	9.22
839.732	84.99
839.909	25.6
840.085	76.8
840.261	46.08
840.437	62.46
840.614	23.55
840.79	121.85
840.966	117.76
841.142	74.75
841.318	-29.7
841.494	3.07
841.671	29.7
841.847	9.22
842.023	-7.17
842.199	76.8
842.375	101.37
842.551	56.32
842.727	11.26
842.903	78.85
843.079	93.18
843.255	68.61
843.431	60.42
843.607	84.99
843.783	60.42
843.959	109.57
844.134	64.51
844.31	62.46
844.486	-44.03
844.662	109.57
844.838	27.65
845.013	60.42
845.189	121.85
845.365	15.36
845.541	60.42
845.716	27.65
845.892	60.42
846.068	48.13
846.244	33.79
846.419	58.37
846.595	21.5
846.77	21.5
846.946	48.13
847.122	19.46
847.297	19.46
847.473	101.37
847.648	-13.31
847.824	50.18
847.999	15.36
848.175	56.32
848.35	31.74
848.526	93.18
848.701	72.7
848.876	87.04
849.052	-3.07
849.227	-27.65
849.403	70.65
849.578	39.94
849.753	27.65
849.929	58.37
850.104	9.22
850.279	35.84
850.454	13.31
850.63	41.98
850.805	89.09
850.98	7.17
851.155	15.36
851.33	60.42
851.505	7.17
851.681	76.8
851.856	3.07
852.031	93.18
852.206	50.18
852.381	89.09
852.556	21.5
852.731	52.22
852.906	60.42
853.081	46.08
853.256	113.66
853.431	35.84
853.606	-3.07
853.781	27.65
853.956	-44.03
854.131	68.61
854.305	-41.98
854.48	80.89
854.655	31.74
854.83	21.5
855.005	80.89
855.18	3.07
855.354	21.5
855.529	31.74
855.704	11.26
855.879	37.89
856.053	3.07
856.228	62.46
856.403	27.65
856.577	50.18
856.752	3.07
856.926	3.07
857.101	37.89
857.276	25.6
857.45	5.12
857.625	70.65
857.799	44.03
857.974	25.6
858.148	-41.98
858.323	27.65
858.497	-7.17
858.672	23.55
858.846	-5.12
859.02	39.94
859.195	29.7
859.369	46.08
859.543	35.84
859.718	37.89
859.892	-44.03
860.066	119.81
860.241	50.18
860.415	60.42
860.589	27.65
860.763	19.46
860.938	41.98
861.112	52.22
861.286	78.85
861.46	87.04
861.634	25.6
861.808	19.46
861.982	5.12
862.157	-17.41
862.331	19.46
862.505	23.55
862.679	-5.12
862.853	103.42
863.027	25.6
863.201	44.03
863.375	-21.5
863.549	-21.5
863.722	-13.31
863.896	60.42
864.07	52.22
864.244	-11.26
864.418	54.27
864.592	-3.07
864.766	-25.6
864.939	27.65
865.113	37.89
865.287	17.41
865.461	-60.42
865.634	19.46
865.808	125.95
865.982	29.7
866.156	66.56
866.329	13.31
866.503	97.28
866.676	9.22
866.85	-3.07
867.024	68.61
867.197	39.94
867.371	13.31
867.544	-21.5
867.718	23.55
867.891	13.31
868.065	7.17
868.238	68.61
868.412	23.55
868.585	-15.36
868.759	-1.02
868.932	-7.17
869.105	-23.55
869.279	-7.17
869.452	-21.5
869.625	13.31
869.799	19.46
869.972	15.36
870.145	44.03
870.319	35.84
870.492	-17.41
870.665	-21.5
870.838	62.46
871.011	-70.65
871.185	-46.08
871.358	39.94
871.531	19.46
871.704	-25.6
871.877	11.26
872.05	-52.22
872.223	-15.36
872.396	76.8
872.569	46.08
872.742	19.46
872.915	60.42
873.088	-19.46
873.261	19.46
873.434	56.32
873.607	19.46
873.78	25.6
873.953	-19.46
874.126	-29.7
874.299	27.65
874.471	-5.12
874.644	1.02
874.817	27.65
874.99	76.8
875.163	-11.26
875.335	37.89
875.508	54.27
875.681	35.84
875.853	7.17
876.026	3.07
876.199	-29.7
876.371	29.7
876.544	5.12
876.717	74.75
876.889	27.65
877.062	105.47
877.234	-21.5
877.407	3.07
877.579	76.8
877.752	-13.31
877.924	72.7
878.097	-19.46
878.269	27.65
878.442	7.17
878.614	-1.02
878.786	46.08
878.959	29.7
879.131	19.46
879.303	-78.85
879.476	11.26
879.648	80.89
879.82	31.74
879.993	-9.22
880.165	60.42
880.337	-13.31
880.509	21.5
880.681	-54.27
880.854	19.46
881.026	-29.7
881.198	95.23
881.37	13.31
881.542	25.6
881.714	89.09
881.886	-9.22
882.058	11.26
882.23	-19.46
882.402	-46.08
882.574	60.42
882.746	44.03
882.918	58.37
883.09	72.7
883.262	-25.6
883.434	1.02
883.606	-29.7
883.778	-5.12
883.95	78.85
884.122	25.6
884.293	-25.6
884.465	-9.22
884.637	29.7
884.809	-23.55
884.98	-1.02
885.152	17.41
885.324	80.89
885.496	48.13
885.667	15.36
885.839	52.22
886.011	-11.26
886.182	-5.12
886.354	52.22
886.525	46.08
886.697	-29.7
886.869	-5.12
887.04	54.27
887.212	9.22
887.383	70.65
887.555	-35.84
887.726	5.12
887.897	-62.46
888.069	9.22
888.24	29.7
888.412	27.65
888.583	31.74
888.754	19.46
888.926	-29.7
889.097	23.55
889.268	-29.7
889.44	68.61
889.611	23.55
889.782	-15.36
889.953	68.61
890.125	44.03
890.296	-13.31
890.467	31.74
890.638	66.56
890.809	87.04
890.98	-33.79
891.151	19.46
891.323	-1.02
891.494	35.84
891.665	-21.5
891.836	68.61
892.007	7.17
892.178	19.46
892.349	5.12
892.52	-37.89
892.691	-15.36
892.862	-128
893.032	-11.26
893.203	-21.5
893.374	-21.5
893.545	52.22
893.716	44.03
893.887	95.23
894.057	23.55
894.228	-9.22
894.399	11.26
894.57	89.09
894.74	-3.07
894.911	9.22
895.082	23.55
895.253	19.46
895.423	15.36
895.594	84.99
895.764	9.22
895.935	7.17
896.106	68.61
896.276	29.7
896.447	-5.12
896.617	17.41
896.788	80.89
896.958	31.74
897.129	-17.41
897.299	82.94
897.47	97.28
897.64	-13.31
897.81	-1.02
897.981	23.55
898.151	-23.55
898.322	-5.12
898.492	87.04
898.662	5.12
898.832	3.07
899.003	-3.07
899.173	-3.07
899.343	3.07
899.513	41.98
