Data from USB4F104151__139__14-19-12-934.txt Node

Date: Thu Mar 13 14:19:12 EDT 2025
User: louis
Spectrometer: USB4F10415
Trigger mode: 4
Integration Time (sec): 2.000000E-2
Scans to average: 1
Electric dark correction enabled: true
Nonlinearity correction enabled: false
Boxcar width: 0
XAxis mode: Wavelengths
Number of Pixels in Spectrum: 3648
>>>>>Begin Spectral Data<<<<<
178.204	-132.09
178.424	-132.09
178.644	-132.09
178.864	-93.18
179.084	-146.43
179.304	-7.17
179.524	-9.22
179.744	-84.99
179.964	29.7
180.184	54.27
180.404	-39.94
180.624	56.32
180.844	1.02
181.064	-17.41
181.283	9.22
181.503	-66.56
181.723	74.75
181.943	17.41
182.163	29.7
182.383	-41.98
182.602	78.85
182.822	13.31
183.042	-48.13
183.262	-35.84
183.482	-9.22
183.701	-66.56
183.921	-9.22
184.141	-39.94
184.361	23.55
184.58	-13.31
184.8	-39.94
185.02	-109.57
185.239	64.51
185.459	-7.17
185.679	27.65
185.898	-50.18
186.118	17.41
186.338	19.46
186.557	91.13
186.777	-25.6
186.997	13.31
187.216	-64.51
187.436	87.04
187.655	3.07
187.875	-29.7
188.095	-9.22
188.314	46.08
188.534	-25.6
188.753	7.17
188.973	3.07
189.192	99.33
189.412	46.08
189.631	1.02
189.851	1.02
190.07	33.79
190.29	-60.42
190.509	15.36
190.729	9.22
190.948	50.18
191.168	95.23
191.387	70.65
191.607	15.36
191.826	-52.22
192.045	-66.56
192.265	-44.03
192.484	-44.03
192.704	33.79
192.923	-23.55
193.142	41.98
193.362	54.27
193.581	54.27
193.8	-3.07
194.02	13.31
194.239	5.12
194.458	-54.27
194.678	54.27
194.897	46.08
195.116	-23.55
195.335	29.7
195.555	-17.41
195.774	-3.07
195.993	39.94
196.212	-35.84
196.432	-44.03
196.651	-21.5
196.87	-23.55
197.089	-17.41
197.308	-1.02
197.528	9.22
197.747	-3.07
197.966	-21.5
198.185	46.08
198.404	-56.32
198.623	-56.32
198.842	91.13
199.062	-25.6
199.281	87.04
199.5	-25.6
199.719	-7.17
199.938	72.7
200.157	7.17
200.376	31.74
200.595	31.74
200.814	-13.31
201.033	-3.07
201.252	66.56
201.471	5.12
201.69	23.55
201.909	-50.18
202.128	-17.41
202.347	-33.79
202.566	-72.7
202.785	-9.22
203.004	1.02
203.223	5.12
203.442	-9.22
203.661	-33.79
203.879	37.89
204.098	54.27
204.317	-60.42
204.536	-19.46
204.755	17.41
204.974	64.51
205.193	33.79
205.411	113.66
205.63	15.36
205.849	62.46
206.068	-39.94
206.287	-21.5
206.505	31.74
206.724	54.27
206.943	13.31
207.162	-11.26
207.381	-35.84
207.599	-1.02
207.818	56.32
208.037	-3.07
208.255	-82.94
208.474	-35.84
208.693	50.18
208.911	13.31
209.13	9.22
209.349	1.02
209.567	-41.98
209.786	60.42
210.005	7.17
210.223	74.75
210.442	-76.8
210.661	-19.46
210.879	-35.84
211.098	-21.5
211.316	-1.02
211.535	-17.41
211.753	39.94
211.972	-17.41
212.191	-52.22
212.409	82.94
212.628	107.52
212.846	46.08
213.065	-35.84
213.283	31.74
213.502	-11.26
213.72	17.41
213.938	-33.79
214.157	56.32
214.375	21.5
214.594	-11.26
214.812	31.74
215.031	70.65
215.249	35.84
215.467	17.41
215.686	70.65
215.904	64.51
216.122	-9.22
216.341	95.23
216.559	5.12
216.778	39.94
216.996	3.07
217.214	9.22
217.432	5.12
217.651	-15.36
217.869	29.7
218.087	56.32
218.306	31.74
218.524	-25.6
218.742	5.12
218.96	-21.5
219.179	-15.36
219.397	80.89
219.615	29.7
219.833	-27.65
220.051	25.6
220.27	54.27
220.488	1.02
220.706	-27.65
220.924	-35.84
221.142	9.22
221.36	-7.17
221.578	1.02
221.796	11.26
222.015	25.6
222.233	37.89
222.451	80.89
222.669	-17.41
222.887	-15.36
223.105	-70.65
223.323	56.32
223.541	60.42
223.759	5.12
223.977	23.55
224.195	37.89
224.413	97.28
224.631	76.8
224.849	44.03
225.067	52.22
225.285	-50.18
225.503	29.7
225.721	-68.61
225.939	78.85
226.157	-82.94
226.375	87.04
226.592	35.84
226.81	-33.79
227.028	-9.22
227.246	-25.6
227.464	-13.31
227.682	17.41
227.9	37.89
228.117	37.89
228.335	-117.76
228.553	-23.55
228.771	3.07
228.989	25.6
229.206	-3.07
229.424	29.7
229.642	27.65
229.86	-39.94
230.077	-27.65
230.295	62.46
230.513	-31.74
230.731	29.7
230.948	23.55
231.166	64.51
231.384	54.27
231.601	-44.03
231.819	78.85
232.037	-27.65
232.254	-70.65
232.472	-11.26
232.689	97.28
232.907	-11.26
233.125	54.27
233.342	37.89
233.56	-31.74
233.777	-60.42
233.995	-27.65
234.213	37.89
234.43	-27.65
234.648	23.55
234.865	-31.74
235.083	27.65
235.3	17.41
235.518	31.74
235.735	13.31
235.953	50.18
236.17	5.12
236.388	-5.12
236.605	-13.31
236.822	7.17
237.04	60.42
237.257	-1.02
237.475	-29.7
237.692	87.04
237.909	37.89
238.127	7.17
238.344	3.07
238.562	33.79
238.779	-50.18
238.996	23.55
239.214	31.74
239.431	5.12
239.648	31.74
239.865	11.26
240.083	-11.26
240.3	-7.17
240.517	-91.13
240.735	-9.22
240.952	54.27
241.169	-25.6
241.386	-7.17
241.603	-7.17
241.821	3.07
242.038	-7.17
242.255	13.31
242.472	1.02
242.689	39.94
242.907	-3.07
243.124	29.7
243.341	27.65
243.558	-19.46
243.775	-76.8
243.992	-66.56
244.209	21.5
244.426	-3.07
244.643	48.13
244.86	-31.74
245.078	46.08
245.295	46.08
245.512	89.09
245.729	-68.61
245.946	62.46
246.163	15.36
246.38	-9.22
246.597	7.17
246.814	50.18
247.031	15.36
247.248	-15.36
247.464	-5.12
247.681	62.46
247.898	-15.36
248.115	-39.94
248.332	5.12
248.549	62.46
248.766	62.46
248.983	-3.07
249.2	5.12
249.417	-23.55
249.633	5.12
249.85	-11.26
250.067	-29.7
250.284	-31.74
250.501	31.74
250.717	46.08
250.934	-19.46
251.151	-44.03
251.368	11.26
251.585	-46.08
251.801	62.46
252.018	-25.6
252.235	-17.41
252.451	-56.32
252.668	-9.22
252.885	41.98
253.102	64.51
253.318	33.79
253.535	25.6
253.752	-27.65
253.968	7.17
254.185	-33.79
254.401	97.28
254.618	-9.22
254.835	-21.5
255.051	25.6
255.268	23.55
255.484	15.36
255.701	-9.22
255.917	-44.03
256.134	29.7
256.351	60.42
256.567	-7.17
256.784	17.41
257	-58.37
257.217	58.37
257.433	5.12
257.65	-1.02
257.866	5.12
258.082	-9.22
258.299	21.5
258.515	5.12
258.732	-23.55
258.948	9.22
259.165	39.94
259.381	-80.89
259.597	-19.46
259.814	-9.22
260.03	35.84
260.246	33.79
260.463	-3.07
260.679	1.02
260.895	-44.03
261.112	33.79
261.328	64.51
261.544	23.55
261.761	87.04
261.977	-19.46
262.193	15.36
262.409	37.89
262.626	84.99
262.842	15.36
263.058	-41.98
263.274	15.36
263.49	29.7
263.707	-1.02
263.923	84.99
264.139	21.5
264.355	-15.36
264.571	-11.26
264.787	31.74
265.004	33.79
265.22	13.31
265.436	-35.84
265.652	-23.55
265.868	80.89
266.084	-54.27
266.3	74.75
266.516	13.31
266.732	33.79
266.948	39.94
267.164	-72.7
267.38	-41.98
267.596	-19.46
267.812	62.46
268.028	37.89
268.244	13.31
268.46	78.85
268.676	-60.42
268.892	-29.7
269.108	-46.08
269.324	-25.6
269.54	1.02
269.756	35.84
269.972	-31.74
270.188	87.04
270.403	-3.07
270.619	41.98
270.835	39.94
271.051	25.6
271.267	-31.74
271.483	25.6
271.698	62.46
271.914	29.7
272.13	41.98
272.346	-17.41
272.562	-31.74
272.777	54.27
272.993	39.94
273.209	87.04
273.425	1.02
273.64	-11.26
273.856	87.04
274.072	37.89
274.287	-74.75
274.503	1.02
274.719	-15.36
274.934	-31.74
275.15	-78.85
275.366	37.89
275.581	-15.36
275.797	23.55
276.012	13.31
276.228	-27.65
276.444	-35.84
276.659	48.13
276.875	-7.17
277.09	7.17
277.306	-7.17
277.521	58.37
277.737	-17.41
277.952	5.12
278.168	27.65
278.383	76.8
278.599	35.84
278.814	1.02
279.03	5.12
279.245	66.56
279.461	33.79
279.676	41.98
279.892	-37.89
280.107	-52.22
280.322	-48.13
280.538	-21.5
280.753	-74.75
280.969	-1.02
281.184	-21.5
281.399	50.18
281.615	21.5
281.83	33.79
282.045	-23.55
282.26	-48.13
282.476	37.89
282.691	15.36
282.906	5.12
283.122	-27.65
283.337	9.22
283.552	70.65
283.767	72.7
283.983	7.17
284.198	44.03
284.413	31.74
284.628	-17.41
284.843	27.65
285.058	-3.07
285.274	87.04
285.489	-13.31
285.704	70.65
285.919	-27.65
286.134	-3.07
286.349	9.22
286.564	80.89
286.779	64.51
286.995	11.26
287.21	13.31
287.425	62.46
287.64	-39.94
287.855	21.5
288.07	1.02
288.285	39.94
288.5	-50.18
288.715	80.89
288.93	23.55
289.145	35.84
289.36	5.12
289.575	-13.31
289.79	-35.84
290.004	-1.02
290.219	23.55
290.434	-25.6
290.649	17.41
290.864	44.03
291.079	31.74
291.294	21.5
291.509	64.51
291.724	21.5
291.938	56.32
292.153	27.65
292.368	-23.55
292.583	-23.55
292.798	-23.55
293.012	37.89
293.227	-1.02
293.442	-31.74
293.657	74.75
293.871	33.79
294.086	50.18
294.301	78.85
294.516	23.55
294.73	60.42
294.945	-37.89
295.16	-21.5
295.374	56.32
295.589	80.89
295.804	-35.84
296.018	13.31
296.233	21.5
296.447	21.5
296.662	15.36
296.877	5.12
297.091	9.22
297.306	21.5
297.52	-23.55
297.735	29.7
297.949	31.74
298.164	-21.5
298.378	5.12
298.593	-84.99
298.807	-29.7
299.022	7.17
299.236	23.55
299.451	52.22
299.665	21.5
299.88	41.98
300.094	7.17
300.309	46.08
300.523	37.89
300.737	-89.09
300.952	-39.94
301.166	23.55
301.381	-44.03
301.595	-19.46
301.809	29.7
302.024	66.56
302.238	-1.02
302.452	-3.07
302.667	21.5
302.881	82.94
303.095	31.74
303.309	39.94
303.524	9.22
303.738	13.31
303.952	-3.07
304.166	48.13
304.381	33.79
304.595	72.7
304.809	13.31
305.023	-33.79
305.237	-13.31
305.452	72.7
305.666	-11.26
305.88	29.7
306.094	17.41
306.308	9.22
306.522	41.98
306.736	-15.36
306.95	62.46
307.164	17.41
307.379	23.55
307.593	62.46
307.807	29.7
308.021	78.85
308.235	62.46
308.449	-31.74
308.663	72.7
308.877	41.98
309.091	-25.6
309.305	48.13
309.519	-44.03
309.733	31.74
309.947	-33.79
310.161	82.94
310.374	80.89
310.588	144.38
310.802	5.12
311.016	5.12
311.23	50.18
311.444	-21.5
311.658	21.5
311.872	74.75
312.085	103.42
312.299	46.08
312.513	52.22
312.727	13.31
312.941	-52.22
313.154	58.37
313.368	29.7
313.582	25.6
313.796	23.55
314.009	7.17
314.223	-3.07
314.437	-46.08
314.651	46.08
314.864	-19.46
315.078	13.31
315.292	70.65
315.505	33.79
315.719	-41.98
315.933	-11.26
316.146	-13.31
316.36	44.03
316.573	15.36
316.787	-19.46
317.001	13.31
317.214	-76.8
317.428	46.08
317.641	27.65
317.855	-35.84
318.068	5.12
318.282	25.6
318.495	31.74
318.709	37.89
318.922	9.22
319.136	27.65
319.349	25.6
319.563	50.18
319.776	7.17
319.99	-29.7
320.203	5.12
320.417	-27.65
320.63	-1.02
320.843	87.04
321.057	56.32
321.27	62.46
321.483	-11.26
321.697	52.22
321.91	21.5
322.124	13.31
322.337	50.18
322.55	-19.46
322.763	-35.84
322.977	41.98
323.19	17.41
323.403	31.74
323.617	41.98
323.83	37.89
324.043	-25.6
324.256	-62.46
324.469	-3.07
324.683	111.61
324.896	39.94
325.109	-35.84
325.322	-3.07
325.535	15.36
325.748	48.13
325.962	-11.26
326.175	15.36
326.388	27.65
326.601	-19.46
326.814	-23.55
327.027	11.26
327.24	119.81
327.453	-19.46
327.666	58.37
327.879	103.42
328.092	23.55
328.305	-15.36
328.518	41.98
328.731	-13.31
328.944	27.65
329.157	44.03
329.37	15.36
329.583	33.79
329.796	-9.22
330.009	17.41
330.222	5.12
330.435	-11.26
330.648	76.8
330.861	84.99
331.073	54.27
331.286	13.31
331.499	-3.07
331.712	1.02
331.925	-11.26
332.138	48.13
332.35	46.08
332.563	54.27
332.776	5.12
332.989	50.18
333.202	21.5
333.414	7.17
333.627	91.13
333.84	5.12
334.053	-19.46
334.265	15.36
334.478	29.7
334.691	3.07
334.903	-1.02
335.116	-17.41
335.329	-5.12
335.541	103.42
335.754	-50.18
335.966	-25.6
336.179	72.7
336.392	37.89
336.604	78.85
336.817	62.46
337.029	31.74
337.242	-60.42
337.454	21.5
337.667	27.65
337.88	54.27
338.092	31.74
338.305	39.94
338.517	-11.26
338.729	64.51
338.942	-17.41
339.154	54.27
339.367	17.41
339.579	29.7
339.792	-11.26
340.004	1.02
340.217	58.37
340.429	-3.07
340.641	-3.07
340.854	-33.79
341.066	23.55
341.278	56.32
341.491	56.32
341.703	39.94
341.915	-25.6
342.128	21.5
342.34	39.94
342.552	25.6
342.764	37.89
342.977	-7.17
343.189	44.03
343.401	39.94
343.613	-3.07
343.826	7.17
344.038	-84.99
344.25	-9.22
344.462	9.22
344.674	21.5
344.886	-44.03
345.099	25.6
345.311	9.22
345.523	-64.51
345.735	-23.55
345.947	17.41
346.159	72.7
346.371	21.5
346.583	29.7
346.795	115.71
347.007	-11.26
347.219	62.46
347.431	-17.41
347.643	95.23
347.855	-93.18
348.067	132.09
348.279	-74.75
348.491	58.37
348.703	-3.07
348.915	87.04
349.127	-25.6
349.339	9.22
349.551	37.89
349.763	78.85
349.975	29.7
350.187	80.89
350.399	15.36
350.61	9.22
350.822	1.02
351.034	46.08
351.246	-19.46
351.458	-13.31
351.669	27.65
351.881	89.09
352.093	50.18
352.305	74.75
352.517	-27.65
352.728	9.22
352.94	-27.65
353.152	5.12
353.363	-17.41
353.575	21.5
353.787	1.02
353.999	48.13
354.21	-19.46
354.422	-15.36
354.633	-5.12
354.845	-23.55
355.057	33.79
355.268	21.5
355.48	31.74
355.692	-3.07
355.903	-48.13
356.115	-1.02
356.326	-54.27
356.538	15.36
356.749	33.79
356.961	82.94
357.172	97.28
357.384	13.31
357.595	111.61
357.807	46.08
358.018	-44.03
358.23	54.27
358.441	91.13
358.653	1.02
358.864	-72.7
359.075	-35.84
359.287	97.28
359.498	7.17
359.709	9.22
359.921	-11.26
360.132	9.22
360.344	31.74
360.555	5.12
360.766	70.65
360.977	41.98
361.189	5.12
361.4	9.22
361.611	-33.79
361.823	-11.26
362.034	101.37
362.245	17.41
362.456	46.08
362.667	15.36
362.879	15.36
363.09	-7.17
363.301	23.55
363.512	29.7
363.723	29.7
363.935	-39.94
364.146	-7.17
364.357	41.98
364.568	54.27
364.779	-52.22
364.99	-11.26
365.201	9.22
365.412	64.51
365.623	13.31
365.834	17.41
366.045	13.31
366.256	41.98
366.467	-23.55
366.678	-7.17
366.889	-35.84
367.1	9.22
367.311	54.27
367.522	46.08
367.733	13.31
367.944	31.74
368.155	-7.17
368.366	113.66
368.577	-25.6
368.788	35.84
368.999	9.22
369.209	-33.79
369.42	62.46
369.631	64.51
369.842	31.74
370.053	1.02
370.264	29.7
370.474	23.55
370.685	58.37
370.896	-29.7
371.107	25.6
371.317	1.02
371.528	46.08
371.739	46.08
371.95	13.31
372.16	64.51
372.371	-48.13
372.582	-39.94
372.792	27.65
373.003	5.12
373.214	9.22
373.424	76.8
373.635	21.5
373.846	37.89
374.056	17.41
374.267	93.18
374.477	66.56
374.688	-27.65
374.898	-3.07
375.109	31.74
375.319	37.89
375.53	99.33
375.74	1.02
375.951	82.94
376.161	64.51
376.372	21.5
376.582	21.5
376.793	70.65
377.003	-9.22
377.214	23.55
377.424	105.47
377.635	136.19
377.845	5.12
378.055	105.47
378.266	5.12
378.476	11.26
378.686	-3.07
378.897	113.66
379.107	23.55
379.317	60.42
379.528	37.89
379.738	80.89
379.948	-35.84
380.158	82.94
380.369	95.23
380.579	46.08
380.789	46.08
380.999	27.65
381.21	31.74
381.42	29.7
381.63	54.27
381.84	33.79
382.05	-9.22
382.261	37.89
382.471	66.56
382.681	1.02
382.891	-7.17
383.101	37.89
383.311	-1.02
383.521	-5.12
383.731	84.99
383.941	46.08
384.151	1.02
384.361	13.31
384.571	-19.46
384.781	46.08
384.991	91.13
385.201	91.13
385.411	21.5
385.621	80.89
385.831	70.65
386.041	13.31
386.251	5.12
386.461	-1.02
386.671	62.46
386.881	62.46
387.091	5.12
387.301	146.43
387.511	58.37
387.72	52.22
387.93	35.84
388.14	21.5
388.35	-3.07
388.56	48.13
388.769	23.55
388.979	105.47
389.189	19.46
389.399	58.37
389.609	121.85
389.818	103.42
390.028	48.13
390.238	70.65
390.447	-7.17
390.657	41.98
390.867	5.12
391.076	-3.07
391.286	89.09
391.496	-1.02
391.705	-19.46
391.915	50.18
392.125	-19.46
392.334	37.89
392.544	89.09
392.753	-3.07
392.963	95.23
393.172	41.98
393.382	13.31
393.591	76.8
393.801	13.31
394.01	128
394.22	115.71
394.429	103.42
394.639	-39.94
394.848	138.24
395.058	78.85
395.267	58.37
395.477	37.89
395.686	64.51
395.895	60.42
396.105	39.94
396.314	82.94
396.524	128
396.733	60.42
396.942	78.85
397.152	80.89
397.361	140.29
397.57	62.46
397.78	95.23
397.989	50.18
398.198	23.55
398.407	107.52
398.617	35.84
398.826	70.65
399.035	99.33
399.244	1.02
399.453	128
399.663	41.98
399.872	3.07
400.081	80.89
400.29	58.37
400.499	29.7
400.708	95.23
400.917	41.98
401.127	23.55
401.336	29.7
401.545	185.34
401.754	91.13
401.963	160.77
402.172	97.28
402.381	-1.02
402.59	82.94
402.799	54.27
403.008	89.09
403.217	17.41
403.426	82.94
403.635	41.98
403.844	97.28
404.053	15.36
404.262	175.1
404.471	121.85
404.68	105.47
404.888	109.57
405.097	97.28
405.306	136.19
405.515	56.32
405.724	78.85
405.933	146.43
406.142	144.38
406.35	146.43
406.559	87.04
406.768	220.16
406.977	144.38
407.185	154.62
407.394	246.78
407.603	160.77
407.812	195.58
408.02	203.77
408.229	234.49
408.438	95.23
408.646	242.68
408.855	197.63
409.064	164.86
409.272	105.47
409.481	285.69
409.69	218.11
409.898	179.2
410.107	185.34
410.315	263.16
410.524	234.49
410.733	275.45
410.941	226.3
411.15	261.12
411.358	259.07
411.567	242.68
411.775	336.89
411.984	252.92
412.192	338.94
412.401	357.37
412.609	402.43
412.818	367.61
413.026	295.93
413.234	375.8
413.443	390.14
413.651	367.61
413.86	392.19
414.068	496.63
414.276	537.59
414.485	498.68
414.693	457.72
414.901	539.64
415.11	513.02
415.318	510.97
415.526	629.75
415.734	693.24
415.943	605.17
416.151	711.67
416.359	654.33
416.567	764.92
416.776	816.12
416.984	803.83
417.192	832.5
417.4	840.69
417.608	781.3
417.817	859.12
418.025	828.4
418.233	953.33
418.441	867.31
418.649	1053.68
418.857	1039.34
419.065	1014.77
419.273	1035.25
419.481	1135.6
419.689	1133.55
419.897	1303.53
420.105	1178.61
420.313	1303.53
420.521	1367.02
420.729	1332.2
420.937	1326.06
421.145	1420.27
421.353	1571.82
421.561	1588.2
421.769	1596.39
421.977	1770.47
422.185	1606.63
422.393	1778.66
422.601	1842.15
422.809	1743.85
423.017	1930.21
423.224	2012.13
423.432	2241.5
423.64	2044.9
423.848	2182.11
424.056	2145.25
424.263	2259.93
424.471	2192.35
424.679	2448.35
424.887	2552.79
425.094	2571.22
425.302	2571.22
425.51	2601.94
425.718	2800.6
425.925	2702.29
426.133	2827.22
426.341	3167.18
426.548	3183.57
426.756	3374.03
426.964	3298.25
427.171	3443.66
427.379	3535.82
427.586	3605.45
427.794	3707.85
428.001	3824.58
428.209	3871.68
428.417	4068.29
428.624	4203.46
428.832	4248.51
429.039	4191.17
429.247	4117.44
429.454	4567.99
429.662	4953.01
429.869	4651.96
430.076	4840.37
430.284	4764.6
430.491	4985.78
430.699	5338.03
430.906	5245.87
431.114	5223.34
431.321	5518.25
431.528	5469.1
431.736	6003.62
431.943	6343.58
432.15	5966.76
432.358	6060.96
432.565	6470.56
432.772	6448.03
432.979	6847.38
433.187	6927.25
433.394	6972.31
433.601	7361.42
433.808	7281.55
434.016	7406.48
434.223	7685
434.43	8160.13
434.637	7885.7
434.844	8631.16
435.052	8489.85
435.259	8524.67
435.466	8749.95
435.673	8543.1
435.88	9278.32
436.087	9616.24
436.294	9573.23
436.501	9464.69
436.708	9571.18
436.915	9997.16
437.122	10355.55
437.329	10212.2
437.537	10656.61
437.743	10814.3
437.95	10535.78
438.157	11375.44
438.364	11737.93
438.571	11811.66
438.778	11666.25
438.985	12870.46
439.192	12059.46
439.399	12630.85
439.606	12440.39
439.813	13034.3
440.02	13996.84
440.227	13630.26
440.433	13607.73
440.64	13966.12
440.847	13859.63
441.054	14162.73
441.261	15061.79
441.467	14826.27
441.674	15364.89
441.881	15670.03
442.088	15901.45
442.294	15577.87
442.501	15928.08
442.708	16413.45
442.914	16712.45
443.121	17777.39
443.328	17296.12
443.534	18348.78
443.741	17908.46
443.948	17804.02
444.154	18957.02
444.361	18612.96
444.568	18975.45
444.774	19047.13
444.981	19339.99
445.187	19616.47
445.394	20466.38
445.6	20222.67
445.807	22426.28
446.013	21187.26
446.22	21635.77
446.426	22262.44
446.633	22497.96
446.839	23175.84
447.046	22280.88
447.252	23804.56
447.459	23767.7
447.665	23601.82
447.871	24418.96
448.078	25412.22
448.284	24396.43
448.491	25016.96
448.697	26081.91
448.903	26534.51
449.11	26784.36
449.316	25948.79
449.522	26894.95
449.728	27404.89
449.935	27478.62
450.141	27445.85
450.347	28373.58
450.553	27277.92
450.76	27988.56
450.966	28658.25
451.172	28207.7
451.378	29045.32
451.584	28430.93
451.791	29272.64
451.997	29172.29
452.203	29708.86
452.409	29061.7
452.615	29653.56
452.821	28293.71
453.027	28314.19
453.233	29571.64
453.44	28523.08
453.646	28881.48
453.852	29026.89
454.058	29676.09
454.264	28605
454.47	29262.4
454.676	28576.33
454.882	29366.85
455.088	26800.74
455.294	27372.13
455.5	27656.79
455.705	28336.72
455.911	26860.13
456.117	26438.25
456.323	25916.02
456.529	24230.54
456.735	26131.06
456.941	25096.83
457.147	25016.96
457.352	24146.58
457.558	23835.28
457.764	23786.13
457.97	23579.29
458.176	23102.11
458.381	22872.74
458.587	21897.91
458.793	21686.97
458.999	20515.53
459.204	22393.51
459.41	21676.73
459.616	20081.36
459.821	20300.49
460.027	20230.86
460.233	19548.89
460.438	18920.16
460.644	19194.59
460.85	18096.88
461.055	17476.34
461.261	17642.23
461.466	16466.69
461.672	16149.26
461.878	17156.86
462.083	15819.53
462.289	15620.88
462.494	15452.95
462.7	14568.23
462.905	14347.05
463.111	14940.96
463.316	15020.83
463.522	14570.27
463.727	14750.49
463.932	14543.65
464.138	14523.17
464.343	14537.51
464.549	13990.7
464.754	14447.4
464.959	14412.58
465.165	14185.26
465.37	13736.75
465.575	13335.35
465.781	13857.58
465.986	13849.39
466.191	13329.2
466.397	12923.71
466.602	12350.28
466.807	13019.96
467.012	13054.78
467.218	12919.61
467.423	12786.49
467.628	12718.91
467.833	13300.53
468.038	12933.95
468.244	12571.46
468.449	13163.32
468.654	12809.02
468.859	12573.5
469.064	12317.51
469.269	11944.78
469.474	12049.22
469.679	12333.89
469.885	11625.29
470.09	11952.97
470.295	12073.8
470.5	11735.88
470.705	11944.78
470.91	11418.45
471.115	11318.1
471.32	11414.35
471.525	11273.04
471.73	11256.66
471.935	11197.27
472.139	10713.95
472.344	10836.83
472.549	11158.36
472.754	10802.01
472.959	10543.97
473.164	10122.09
473.369	10339.17
473.574	10550.11
473.778	10519.39
473.983	10367.84
474.188	10394.47
474.393	9917.29
474.598	9851.75
474.802	9661.29
475.007	9710.44
475.212	9972.58
475.417	9427.82
475.621	9225.08
475.826	9524.08
476.031	9245.55
476.235	9216.88
476.44	9165.68
476.645	9007.99
476.849	9059.19
477.054	8852.34
477.259	8704.89
477.463	8829.82
477.668	8485.76
477.872	8700.8
478.077	8477.57
478.282	8364.93
478.486	8221.57
478.691	8266.63
478.895	8055.69
479.1	8209.28
479.304	8123.27
479.509	7857.03
479.713	7914.38
479.918	7842.7
480.122	7707.53
480.326	7916.42
480.531	7873.42
480.735	7709.58
480.94	7664.52
481.144	7967.62
481.348	7447.44
481.553	7598.99
481.757	7424.91
481.961	7592.84
482.166	7785.35
482.37	7523.21
482.574	7472.01
482.778	7314.32
482.983	7697.29
483.187	7334.8
483.391	7379.86
483.595	7574.41
483.8	7400.34
484.004	7527.31
484.208	7578.51
484.412	7617.42
484.616	7457.68
484.821	7590.8
485.025	7306.13
485.229	7420.81
485.433	7353.23
485.637	7467.92
485.841	7240.59
486.045	7283.6
486.249	7562.12
486.453	7402.38
486.657	7437.2
486.861	7592.84
487.065	7349.14
487.269	7426.96
487.473	7316.37
487.677	7603.08
487.881	7469.97
488.085	7496.59
488.289	7525.26
488.493	7490.45
488.697	7371.66
488.901	7332.75
489.105	7386
489.309	7431.05
489.512	7578.51
489.716	7459.73
489.92	7388.05
490.124	7545.74
490.328	7648.14
490.531	7693.19
490.735	7713.67
490.939	7594.89
491.143	7603.08
491.346	7758.73
491.55	7930.76
491.754	7658.38
491.958	7781.26
492.161	7715.72
492.365	7811.98
492.569	7650.19
492.772	7963.53
492.976	7920.52
493.18	7943.05
493.383	8029.06
493.587	8143.75
493.79	8102.79
493.994	8053.64
494.197	8063.88
494.401	8160.13
494.605	8158.08
494.808	8383.36
495.012	8510.33
495.215	8483.71
495.419	8641.4
495.622	8528.77
495.825	8663.93
496.029	8459.13
496.232	8725.37
496.436	8878.97
496.639	8848.25
496.843	8885.11
497.046	9188.21
497.249	9257.84
497.453	8958.84
497.656	9362.29
497.859	9139.06
498.063	9343.86
498.266	9603.95
498.469	9573.23
498.673	9511.79
498.876	9726.83
499.079	9810.79
499.282	9890.67
499.485	10255.2
499.689	10265.44
499.892	10328.93
500.095	10533.73
500.298	10668.89
500.501	10527.58
500.705	10814.3
500.908	10867.55
501.111	11166.55
501.314	11094.87
501.517	11434.83
501.72	11369.3
501.923	11420.5
502.126	11490.13
502.329	11873.1
502.532	11729.74
502.735	11914.06
502.938	12196.68
503.141	12268.36
503.344	12440.39
503.547	12276.55
503.75	12546.88
503.953	12770.11
504.156	12636.99
504.359	12892.99
504.562	12944.19
504.765	13388.6
504.968	13558.58
505.17	13488.95
505.373	13613.87
505.576	13708.08
505.779	14021.42
505.982	14117.67
506.185	14291.75
506.387	14246.69
506.59	14355.24
506.793	14662.43
506.996	14660.38
507.198	15092.51
507.401	14840.61
507.604	15127.32
507.807	15436.56
508.009	15602.45
508.212	15708.94
508.415	15938.32
508.617	15725.33
508.82	16104.2
509.022	16061.19
509.225	16450.31
509.428	16603.91
509.63	16562.95
509.833	16816.9
510.035	17351.42
510.238	17068.8
510.44	17038.08
510.643	17562.36
510.845	17648.37
511.048	17767.15
511.25	18070.25
511.453	17996.53
511.655	18842.34
511.858	18537.19
512.06	18842.34
512.262	18897.63
512.465	18946.78
512.667	19161.82
512.87	19366.62
513.072	19376.86
513.274	20007.63
513.477	20159.18
513.679	19935.95
513.881	20490.95
514.084	20523.72
514.286	20523.72
514.488	20855.49
514.69	21207.74
514.893	21310.14
515.095	21181.12
515.297	21658.29
515.499	21451.45
515.701	21977.78
515.904	22256.3
516.106	22479.53
516.308	22700.71
516.51	22514.34
516.712	22784.68
516.914	23196.32
517.116	23423.64
517.318	23591.58
517.52	23632.54
517.722	23974.55
517.925	23902.87
518.127	24445.58
518.329	24498.83
518.531	24328.84
518.733	25006.72
518.935	25152.13
519.136	25125.5
519.338	25563.77
519.54	25635.45
519.742	25973.36
519.944	25961.08
520.146	26176.11
520.348	26206.83
520.55	26198.64
520.752	26745.45
520.954	26901.09
521.155	27077.22
521.357	27388.51
521.559	27515.48
521.761	27775.58
521.963	27961.94
522.164	27765.34
522.366	28293.71
522.568	28615.24
522.77	28541.52
522.971	29157.96
523.173	28602.96
523.375	29157.96
523.576	29043.27
523.778	29203.01
523.98	29127.24
524.181	29901.37
524.383	29737.53
524.584	30167.6
524.786	29975.09
524.988	30071.35
525.189	30536.24
525.391	30616.11
525.592	31037.99
525.794	30792.23
525.995	31324.71
526.197	31035.94
526.398	31164.96
526.6	31179.3
526.801	31304.23
527.003	31482.4
527.204	31857.18
527.406	31894.04
527.607	31902.23
527.808	31805.98
528.01	31588.89
528.211	31994.39
528.412	32387.6
528.614	32334.35
528.815	32440.85
529.016	32850.44
529.218	32393.75
529.419	32559.63
529.62	32504.34
529.822	32698.89
530.023	32836.11
530.224	33157.64
530.425	32584.21
530.626	32520.72
530.828	32578.06
531.029	33434.11
531.23	33014.28
531.431	32983.56
531.632	32954.89
531.833	32956.94
532.035	33325.57
532.236	33198.6
532.437	33257.99
532.638	33761.79
532.839	33368.58
533.04	33466.88
533.241	33042.95
533.442	33526.27
533.643	33319.43
533.844	33606.14
534.045	33317.38
534.246	33022.47
534.447	33868.28
534.648	33155.59
534.849	33733.12
535.05	32987.66
535.251	33227.27
535.451	33458.69
535.652	33606.14
535.853	33245.7
536.054	33440.26
536.255	33630.72
536.456	33552.9
536.657	33796.6
536.857	33753.6
537.058	33735.17
537.259	33536.51
537.46	33837.56
537.66	33454.59
537.861	33909.24
538.062	33645.05
538.263	33362.43
538.463	33538.56
538.664	33266.18
538.865	33759.74
539.065	33804.8
539.266	33276.42
539.466	33729.02
539.667	33227.27
539.868	33759.74
540.068	33401.35
540.269	33255.94
540.469	33530.37
540.67	33268.23
540.87	33600
541.071	33341.96
541.271	33722.88
541.472	33251.84
541.672	33675.77
541.873	33423.87
542.073	32784.91
542.274	33634.81
542.474	33311.24
542.675	32872.97
542.875	33389.06
543.075	33169.93
543.276	32954.89
543.476	33559.04
543.676	33145.35
543.877	33477.12
544.077	33100.29
544.277	33272.32
544.478	33040.9
544.678	33282.56
544.878	33018.38
545.078	33387.01
545.279	33042.95
545.479	32735.76
545.679	32768.52
545.879	33083.91
546.079	33157.64
546.28	33231.36
546.48	32977.42
546.68	33155.59
546.88	33153.54
547.08	33057.29
547.28	33137.16
547.48	32866.83
547.68	32924.17
547.88	32977.42
548.081	33104.39
548.281	32868.87
548.481	32877.07
548.681	32926.22
548.881	32725.52
549.081	32907.79
549.28	32834.06
549.48	32936.46
549.68	32829.96
549.88	33096.2
550.08	32870.92
550.28	33004.04
550.48	32723.47
550.68	33184.26
550.88	32717.32
551.08	32963.08
551.279	32967.18
551.479	32543.25
551.679	32872.97
551.879	32838.15
552.079	32803.34
552.278	32842.25
552.478	32793.1
552.678	32545.3
552.878	32918.03
553.077	32834.06
553.277	32500.24
553.477	32834.06
553.676	32346.64
553.876	32475.66
554.076	32520.72
554.275	32631.31
554.475	32201.24
554.674	32565.78
554.874	32676.37
555.074	31951.38
555.273	32291.35
555.473	32385.55
555.672	32604.69
555.872	32248.34
556.071	32285.2
556.271	32473.62
556.47	32274.96
556.67	31767.07
556.869	32127.51
557.068	31951.38
557.268	31953.43
557.467	32203.28
557.667	32104.98
557.866	32182.8
558.065	31846.94
558.265	31318.56
558.464	31658.52
558.663	32320.02
558.863	31513.12
559.062	32254.48
559.261	31310.37
559.461	31951.38
559.66	31212.07
559.859	31740.44
560.058	31480.35
560.258	31605.28
560.457	30898.73
560.656	31375.91
560.855	31136.29
561.054	31322.66
561.253	31007.27
561.453	31629.85
561.652	31175.2
561.851	31386.15
562.05	31275.55
562.249	30980.65
562.448	31447.58
562.647	31089.19
562.846	31064.61
563.045	31052.33
563.244	30810.67
563.443	31179.3
563.642	30675.5
563.841	30700.08
564.04	30526
564.239	30726.7
564.438	30372.4
564.637	30743.08
564.836	30390.83
565.035	30579.25
565.234	30413.36
565.432	30181.94
565.631	30024.25
565.83	30505.52
566.029	30347.82
566.228	29651.52
566.427	29927.99
566.625	29971
566.824	29571.64
567.023	29930.04
567.222	29237.83
567.42	30038.58
567.619	29694.52
567.818	29633.08
568.016	29575.74
568.215	29643.32
568.414	29534.78
568.612	29784.63
568.811	29442.62
569.01	29094.47
569.208	29037.12
569.407	29323.84
569.605	28811.85
569.804	29598.27
570.002	28803.66
570.201	29030.98
570.4	28785.22
570.598	28648.01
570.797	28723.79
570.995	28658.25
571.193	28596.81
571.392	28668.49
571.59	28226.13
571.789	28410.45
571.987	28541.52
572.186	28084.82
572.384	28303.95
572.582	28328.53
572.781	28559.95
572.979	28066.39
573.177	27906.65
573.376	28041.81
573.574	27707.99
573.772	27855.45
573.971	27800.15
574.169	27638.36
574.367	27562.59
574.565	27574.88
574.763	27910.74
574.962	27435.61
575.16	27030.12
575.358	27437.66
575.556	27069.03
575.754	27462.24
575.952	26911.33
576.151	27081.31
576.349	26628.71
576.547	26899.05
576.745	27034.21
576.943	26952.29
577.141	26514.03
577.339	26882.66
577.537	26604.14
577.735	26554.99
577.933	26159.73
578.131	26511.98
578.329	26026.61
578.527	26161.78
578.725	26032.75
578.923	26233.46
579.121	26133.11
579.319	26266.22
579.516	25979.51
579.714	26057.33
579.912	26022.51
580.11	25991.8
580.308	25895.54
580.506	25737.85
580.704	25281.15
580.901	25463.42
581.099	25584.25
581.297	25203.33
581.495	25229.95
581.692	25260.67
581.89	25137.79
582.088	25320.06
582.285	25141.89
582.483	25481.85
582.681	25016.96
582.878	25135.74
583.076	24658.57
583.274	24894.08
583.471	24707.72
583.669	24744.58
583.866	24513.16
584.064	24976
584.262	24173.2
584.459	24658.57
584.657	24265.36
584.854	24408.72
585.052	23933.59
585.249	24160.91
585.447	24199.82
585.644	24154.77
585.841	23956.11
586.039	24183.44
586.236	23855.76
586.434	23753.37
586.631	23560.86
586.828	23532.18
587.026	23573.14
587.223	23575.19
587.42	23374.49
587.618	23542.42
587.815	23335.58
588.012	23075.49
588.21	23108.26
588.407	23511.71
588.604	22997.67
588.801	22778.53
588.999	23098.02
589.196	23134.88
589.393	22852.26
589.59	22454.95
589.787	22387.37
589.984	22606.5
590.182	22596.26
590.379	22678.18
590.576	22344.36
590.773	22403.75
590.97	22325.93
591.167	22395.56
591.364	21985.97
591.561	22356.65
591.758	22026.93
591.955	22069.94
592.152	22145.71
592.349	21756.6
592.546	22010.54
592.743	22059.7
592.94	21482.17
593.137	21521.08
593.334	21766.84
593.531	21349.05
593.727	21676.73
593.924	21689.01
594.121	21336.76
594.318	21559.99
594.515	21252.8
594.712	21422.78
594.908	20937.41
595.105	20869.83
595.302	20824.77
595.499	21172.92
595.696	20796.1
595.892	20589.25
596.089	20763.33
596.286	20853.44
596.482	20538.05
596.679	20855.49
596.876	20830.91
597.072	20363.98
597.269	20716.23
597.466	20150.99
597.662	19935.95
597.859	20464.33
598.055	20179.66
598.252	20165.32
598.448	19991.25
598.645	19997.39
598.841	20032.21
599.038	19985.1
599.234	20056.78
599.431	19690.2
599.627	19534.55
599.824	19589.85
600.02	19487.45
600.217	19495.64
600.413	19563.22
600.609	19264.22
600.806	19161.82
601.002	19524.31
601.198	19192.54
601.395	19010.27
601.591	19274.46
601.787	18942.69
601.984	18934.5
602.18	19133.15
602.376	19053.28
602.572	19016.41
602.769	18920.16
602.965	18655.97
603.161	18723.55
603.357	18512.61
603.553	18707.17
603.75	18617.06
603.946	18547.43
604.142	18281.19
604.338	18125.55
604.534	18330.34
604.73	18041.58
604.926	18305.77
605.122	18094.83
605.318	17943.28
605.514	18207.47
605.71	18273
605.906	17953.52
606.102	17724.15
606.298	18031.34
606.494	17988.33
606.69	17924.85
606.886	17765.1
607.082	17586.93
607.278	17781.49
607.474	17498.87
607.67	17586.93
607.866	17486.58
608.062	17631.99
608.257	17363.7
608.453	17490.68
608.649	17644.27
608.845	17081.08
609.041	17281.78
609.236	17277.69
609.432	17109.75
609.628	17251.06
609.824	17171.19
610.019	16722.69
610.215	16990.97
610.411	17068.8
610.606	17033.98
610.802	16923.39
610.998	16859.9
611.193	16749.31
611.389	16876.29
611.584	16802.56
611.78	16691.97
611.976	16823.04
612.171	16777.98
612.367	16732.93
612.562	16661.25
612.758	16476.93
612.953	16694.02
613.149	16823.04
613.344	16327.43
613.539	16704.26
613.735	16466.69
613.93	16380.68
614.126	16239.37
614.321	16569.09
614.517	16354.05
614.712	16521.99
614.907	16087.82
615.103	16366.34
615.298	16120.59
615.493	16345.86
615.688	15915.79
615.884	16300.81
616.079	15860.49
616.274	16048.91
616.47	15975.18
616.665	16130.83
616.86	16069.39
617.055	15733.52
617.25	15969.04
617.445	15774.48
617.641	15729.42
617.836	15821.58
618.031	15446.8
618.226	15479.57
618.421	15590.16
618.616	15784.72
618.811	15637.27
619.006	15493.91
619.201	15334.17
619.396	15457.04
619.591	15119.13
619.786	15280.92
619.981	15246.1
620.176	15594.26
620.371	14979.87
620.566	14924.57
620.761	14936.86
620.956	15041.31
621.151	14707.49
621.346	14797.6
621.541	14674.72
621.735	14832.41
621.93	14537.51
622.125	14447.4
622.32	14220.07
622.515	14267.17
622.709	13978.41
622.904	14007.08
623.099	13826.86
623.294	13890.35
623.488	13863.72
623.683	13853.48
623.878	13525.81
624.072	13949.74
624.267	13790
624.462	13642.54
624.656	13470.51
624.851	13357.88
625.046	13286.2
625.24	13312.82
625.435	13114.17
625.629	13003.58
625.824	12960.57
626.018	13005.63
626.213	12856.12
626.407	12776.25
626.602	12804.92
626.796	12862.27
626.991	12606.27
627.185	12792.64
627.38	12731.2
627.574	12430.15
627.768	12321.6
627.963	12350.28
628.157	12217.16
628.352	12376.9
628.546	11907.91
628.74	12231.49
628.935	12016.46
629.129	11969.35
629.323	11727.69
629.517	11823.95
629.712	11787.08
629.906	11707.21
630.1	11463.51
630.294	11721.55
630.489	11516.75
630.683	11565.9
630.877	11223.89
631.071	11264.85
631.265	11318.1
631.459	11322.2
631.653	11152.21
631.848	11182.93
632.042	11031.38
632.236	11060.06
632.43	10941.27
632.624	10619.74
632.818	10752.86
633.012	10812.25
633.206	10744.67
633.4	10834.78
633.594	10654.56
633.788	10716
633.982	10597.21
634.176	10646.37
634.369	10253.16
634.563	10330.98
634.757	10285.92
634.951	10306.4
635.145	10416.99
635.339	10134.37
635.533	10197.86
635.726	10154.85
635.92	9958.25
636.114	9982.82
636.308	9732.97
636.501	9851.75
636.695	9732.97
636.889	9573.23
637.083	9606
637.276	9704.3
637.47	9450.35
637.664	9581.42
637.857	9599.85
638.051	9415.54
638.244	9485.17
638.438	9384.82
638.632	9306.99
638.825	9237.36
639.019	9266.03
639.212	9311.09
639.406	9159.54
639.599	9094.01
639.793	9044.85
639.986	9018.23
640.18	8911.74
640.373	8840.06
640.567	8803.19
640.76	8731.51
640.954	8659.84
641.147	8811.39
641.34	8444.8
641.534	8659.84
641.727	8539.01
641.92	8491.9
642.114	8438.66
642.307	8377.22
642.5	8391.55
642.694	8227.71
642.887	8172.42
643.08	8352.64
643.273	8029.06
643.467	8256.39
643.66	8194.95
643.853	8139.65
644.046	8055.69
644.239	8065.92
644.432	7902.09
644.626	7668.62
644.819	7967.62
645.012	7797.64
645.205	7957.38
645.398	7885.7
645.591	7814.02
645.784	7687.05
645.977	7687.05
646.17	7631.76
646.363	7685
646.556	7447.44
646.749	7506.83
646.942	7512.97
647.135	7443.34
647.328	7291.79
647.521	7240.59
647.714	7283.6
647.907	7125.91
648.099	7275.41
648.292	7220.11
648.485	7148.43
648.678	6927.25
648.871	6988.69
649.064	7009.17
649.256	6994.84
649.449	6996.89
649.642	6984.6
649.835	6845.34
650.027	6865.82
650.22	6710.17
650.413	6841.24
650.605	6685.59
650.798	6685.59
650.991	6755.22
651.183	6775.7
651.376	6640.54
651.568	6364.06
651.761	6458.27
651.954	6462.37
652.146	6386.59
652.339	6495.13
652.531	6253.47
652.724	6345.63
652.916	6337.44
653.109	6388.64
653.301	6257.57
653.494	6259.62
653.686	6149.03
653.879	6083.49
654.071	6204.32
654.263	6200.23
654.456	6116.26
654.648	6011.81
654.84	5977
655.033	5919.65
655.225	6009.76
655.417	5788.58
655.61	5936.04
655.802	5927.85
655.994	5825.45
656.186	5837.73
656.379	5600.17
656.571	5686.19
656.763	5608.36
656.955	5602.22
657.148	5706.66
657.34	5571.5
657.532	5430.19
657.724	5510.06
657.916	5452.72
658.108	5460.91
658.3	5426.09
658.492	5462.96
658.684	5465
658.876	5301.17
659.068	5403.57
659.26	5147.57
659.452	5274.54
659.644	5317.55
659.836	5333.93
660.028	5182.38
660.22	5133.23
660.412	5133.23
660.604	5032.88
660.796	5190.58
660.988	5055.41
661.18	4875.19
661.372	4983.73
661.563	4985.78
661.755	4905.91
661.947	5088.18
662.139	4791.22
662.331	4918.2
662.522	4924.34
662.714	4924.34
662.906	4998.07
663.097	4930.48
663.289	4768.7
663.481	4744.12
663.673	4826.04
663.864	4662.2
664.056	4682.68
664.247	4615.1
664.439	4555.71
664.631	4690.87
664.822	4703.16
665.014	4611
665.205	4518.84
665.397	4463.55
665.588	4504.51
665.78	4457.4
665.971	4488.12
666.163	4582.33
666.354	4484.03
666.546	4465.6
666.737	4375.49
666.929	4230.08
667.12	4295.61
667.311	4338.62
667.503	4275.13
667.694	4254.66
667.885	4248.51
668.077	4363.2
668.268	4125.63
668.459	4199.36
668.651	4289.47
668.842	4139.97
669.033	4256.7
669.224	4094.91
669.416	4150.21
669.607	4084.67
669.798	4127.68
669.989	4187.07
670.18	3931.08
670.371	4031.43
670.563	4027.33
670.754	3953.6
670.945	3879.88
671.136	4072.39
671.327	3920.84
671.518	3920.84
671.709	3931.08
671.9	4027.33
672.091	3863.49
672.282	3853.25
672.473	3908.55
672.664	3808.2
672.855	3857.35
673.046	3740.61
673.237	3757
673.428	3709.9
673.619	3793.86
673.809	3718.09
674	3632.07
674.191	3693.51
674.382	3677.13
674.573	3826.63
674.764	3697.61
674.954	3638.22
675.145	3697.61
675.336	3748.81
675.527	3544.01
675.717	3523.53
675.908	3607.5
676.099	3544.01
676.289	3580.87
676.48	3519.43
676.671	3650.5
676.861	3398.6
677.052	3466.19
677.243	3369.93
677.433	3392.46
677.624	3535.82
677.814	3568.59
678.005	3390.41
678.195	3503.05
678.386	3568.59
678.576	3470.28
678.767	3455.95
678.957	3347.4
679.148	3507.15
679.338	3531.72
679.529	3423.18
679.719	3351.5
679.909	3394.51
680.1	3308.49
680.29	3382.22
680.481	3400.65
680.671	3414.99
680.861	3382.22
681.052	3226.57
681.242	3380.17
681.432	3371.98
681.622	3216.33
681.813	3152.85
682.003	3257.29
682.193	3265.49
682.383	3175.38
682.573	3273.68
682.764	3310.54
682.954	3292.11
683.144	3281.87
683.334	3300.3
683.524	3240.91
683.714	3138.51
683.904	3236.81
684.094	3163.09
684.284	3199.95
684.474	3216.33
684.664	3154.9
684.854	3226.57
685.044	3099.6
685.234	3064.79
685.424	3118.03
685.614	2946
685.804	3122.13
685.994	3089.36
686.184	3158.99
686.374	3089.36
686.564	3146.7
686.753	3003.35
686.943	3019.73
687.133	3075.03
687.323	2978.77
687.513	2995.15
687.702	2956.24
687.892	3017.68
688.082	3005.39
688.272	2993.11
688.461	2890.71
688.651	2827.22
688.841	2884.56
689.03	2986.96
689.22	2911.19
689.41	2958.29
689.599	2855.89
689.789	2833.36
689.979	2843.6
690.168	2921.43
690.358	2708.44
690.547	2749.4
690.737	2833.36
690.926	2745.3
691.116	2712.53
691.305	2765.78
691.495	2681.82
691.684	2712.53
691.874	2808.79
692.063	2669.53
692.252	2757.59
692.442	2724.82
692.631	2690.01
692.82	2636.76
693.01	2685.91
693.199	2804.69
693.388	2620.38
693.578	2608.09
693.767	2573.27
693.956	2579.42
694.146	2495.45
694.335	2552.79
694.524	2579.42
694.713	2489.31
694.902	2526.17
695.092	2593.75
695.281	2522.07
695.47	2446.3
695.659	2470.87
695.848	2503.64
696.037	2575.32
696.226	2497.5
696.415	2452.44
696.604	2618.33
696.793	2446.3
696.982	2366.43
697.171	2481.11
697.36	2470.87
697.549	2450.39
697.738	2329.56
697.927	2317.28
698.116	2499.55
698.305	2409.44
698.494	2456.54
698.683	2520.03
698.872	2472.92
699.061	2358.24
699.25	2384.86
699.438	2364.38
699.627	2352.09
699.816	2419.68
700.005	2335.71
700.193	2286.56
700.382	2380.76
700.571	2284.51
700.76	2270.17
700.948	2255.84
701.137	2188.25
701.326	2464.73
701.514	2284.51
701.703	2454.49
701.892	2309.08
702.08	2335.71
702.269	2239.45
702.457	2319.32
702.646	2350.04
702.834	2280.41
703.023	2231.26
703.212	2403.29
703.4	2249.69
703.589	2112.48
703.777	2337.76
703.965	2274.27
704.154	2319.32
704.342	2167.77
704.531	2356.19
704.719	2257.89
704.907	2221.02
705.096	2171.87
705.284	2249.69
705.472	2239.45
705.661	2106.34
705.849	2323.42
706.037	2208.73
706.226	2274.27
706.414	2253.79
706.602	2251.74
706.79	2247.65
706.979	2192.35
707.167	2124.77
707.355	2167.77
707.543	2178.01
707.731	2223.07
707.919	2132.96
708.107	2180.06
708.296	2104.29
708.484	2204.64
708.672	2200.54
708.86	2081.76
709.048	2241.5
709.236	2194.4
709.424	2167.77
709.612	2173.92
709.8	2161.63
709.988	2202.59
710.176	2044.9
710.364	2216.93
710.551	2132.96
710.739	2106.34
710.927	2171.87
711.115	2044.9
711.303	2165.73
711.491	2132.96
711.679	2143.2
711.866	2163.68
712.054	2014.18
712.242	2204.64
712.43	2069.47
712.617	2161.63
712.805	2210.78
712.993	2046.94
713.181	1958.88
713.368	2098.14
713.556	2096.1
713.744	2112.48
713.931	2264.03
714.119	2135.01
714.306	2116.58
714.494	2085.86
714.682	2114.53
714.869	2106.34
715.057	2077.66
715.244	2079.71
715.432	2147.3
715.619	2057.18
715.807	2268.13
715.994	2063.33
716.182	2040.8
716.369	2022.37
716.556	2063.33
716.744	2018.27
716.931	2106.34
717.119	2069.47
717.306	2003.94
717.493	2069.47
717.681	2005.99
717.868	2030.56
718.055	2003.94
718.242	2053.09
718.43	2094.05
718.617	2094.05
718.804	2010.08
718.991	2001.89
719.179	2063.33
719.366	2026.47
719.553	1983.46
719.74	1971.17
719.927	1936.35
720.114	2012.13
720.301	2046.94
720.488	2036.7
720.676	2096.1
720.863	2014.18
721.05	2020.32
721.237	2063.33
721.424	2083.81
721.611	1993.7
721.798	1973.22
721.985	1993.7
722.172	2008.03
722.358	2022.37
722.545	2065.38
722.732	1932.26
722.919	2024.42
723.106	1981.41
723.293	1962.98
723.48	1979.36
723.667	2061.28
723.853	1954.79
724.04	1971.17
724.227	2028.51
724.414	1868.77
724.6	2044.9
724.787	2044.9
724.974	2032.61
725.161	1885.16
725.347	1905.63
725.534	1940.45
725.72	2053.09
725.907	1956.83
726.094	1962.98
726.28	1919.97
726.467	2032.61
726.653	1983.46
726.84	1842.15
727.027	2028.51
727.213	1958.88
727.4	1962.98
727.586	2020.32
727.773	1971.17
727.959	1926.11
728.145	1883.11
728.332	1844.2
728.518	1915.87
728.705	1954.79
728.891	1897.44
729.077	1780.71
729.264	1872.87
729.45	2069.47
729.636	1881.06
729.823	2008.03
730.009	2024.42
730.195	1987.55
730.382	1924.07
730.568	1995.75
730.754	1954.79
730.94	1962.98
731.126	2008.03
731.313	1995.75
731.499	1885.16
731.685	1975.27
731.871	1940.45
732.057	2001.89
732.243	1924.07
732.429	1930.21
732.615	2008.03
732.801	1909.73
732.987	1846.24
733.173	1967.07
733.359	1936.35
733.545	1991.65
733.731	1924.07
733.917	1915.87
734.103	1879.01
734.289	1938.4
734.475	1975.27
734.661	1895.4
734.847	1864.68
735.033	1774.56
735.219	1971.17
735.404	1856.48
735.59	1942.5
735.776	1905.63
735.962	1860.58
736.148	1940.45
736.333	1879.01
736.519	1938.4
736.705	1815.52
736.89	1793
737.076	1891.3
737.262	1778.66
737.447	1901.54
737.633	1874.92
737.819	1897.44
738.004	1819.62
738.19	1825.76
738.375	1850.34
738.561	1883.11
738.747	1829.86
738.932	1793
739.118	1758.18
739.303	1899.49
739.489	1788.9
739.674	1704.93
739.859	1897.44
740.045	1782.76
740.23	1823.72
740.416	1749.99
740.601	1805.28
740.786	1776.61
740.972	1799.14
741.157	1704.93
741.342	1786.85
741.528	1637.35
741.713	1790.95
741.898	1684.45
742.084	1682.41
742.269	1711.08
742.454	1702.89
742.639	1790.95
742.824	1721.32
743.01	1749.99
743.195	1688.55
743.38	1684.45
743.565	1692.65
743.75	1688.55
743.935	1713.13
744.12	1713.13
744.305	1641.45
744.49	1604.58
744.675	1590.25
744.86	1647.59
745.045	1565.67
745.23	1600.49
745.415	1549.29
745.6	1688.55
745.785	1555.43
745.97	1696.74
746.155	1645.54
746.34	1637.35
746.525	1639.4
746.71	1569.77
746.895	1496.04
747.079	1463.27
747.264	1477.61
747.449	1537
747.634	1399.79
747.819	1580.01
748.003	1545.19
748.188	1448.94
748.373	1463.27
748.557	1477.61
748.742	1491.95
748.927	1418.22
749.111	1418.22
749.296	1397.74
749.481	1475.56
749.665	1498.09
749.85	1364.97
750.034	1420.27
750.219	1434.6
750.404	1422.31
750.588	1352.68
750.773	1266.67
750.957	1278.96
751.141	1291.24
751.326	1311.72
751.51	1250.28
751.695	1203.18
751.879	1346.54
752.064	1254.38
752.248	1319.92
752.432	1360.88
752.617	1317.87
752.801	1266.67
752.985	1293.29
753.17	1297.39
753.354	1164.27
753.538	1211.37
753.722	1178.61
753.907	1129.45
754.091	1242.09
754.275	1201.13
754.459	1137.65
754.643	1151.98
754.828	1151.98
755.012	1078.26
755.196	1143.79
755.38	1108.98
755.564	1111.02
755.748	1168.37
755.932	1129.45
756.116	1051.63
756.3	1078.26
756.484	1063.92
756.668	998.38
756.852	1012.72
757.036	1070.06
757.22	1111.02
757.404	1088.5
757.588	1033.2
757.772	1047.54
757.956	1070.06
758.14	1094.64
758.323	986.1
758.507	1053.68
758.691	957.43
758.875	857.07
759.059	1063.92
759.242	973.81
759.426	881.65
759.61	941.04
759.794	988.14
759.977	965.62
760.161	1047.54
760.345	941.04
760.528	947.19
760.712	910.32
760.895	879.6
761.079	883.7
761.263	963.57
761.446	863.22
761.63	881.65
761.813	883.7
761.997	832.5
762.18	859.12
762.364	879.6
762.547	842.74
762.731	826.36
762.914	842.74
763.098	818.16
763.281	791.54
763.464	820.21
763.648	857.07
763.831	840.69
764.015	775.16
764.198	848.88
764.381	873.46
764.564	807.92
764.748	908.27
764.931	881.65
765.114	842.74
765.297	906.23
765.481	842.74
765.664	701.43
765.847	762.87
766.03	736.24
766.213	721.91
766.397	787.44
766.58	769.01
766.763	842.74
766.946	730.1
767.129	844.79
767.312	781.3
767.495	750.58
767.678	812.02
767.861	693.24
768.044	764.92
768.227	703.48
768.41	766.96
768.593	803.83
768.776	664.57
768.959	732.15
769.142	687.09
769.324	652.28
769.507	756.72
769.69	678.9
769.873	633.85
770.056	793.59
770.239	676.85
770.421	689.14
770.604	588.79
770.787	611.32
770.97	633.85
771.152	635.89
771.335	648.18
771.518	578.55
771.7	687.09
771.883	648.18
772.066	644.09
772.248	635.89
772.431	697.33
772.613	693.24
772.796	668.66
772.978	660.47
773.161	654.33
773.343	629.75
773.526	615.41
773.708	678.9
773.891	637.94
774.073	660.47
774.256	553.98
774.438	646.13
774.621	582.65
774.803	635.89
774.985	580.6
775.168	689.14
775.35	650.23
775.532	578.55
775.715	590.84
775.897	562.17
776.079	566.26
776.261	529.4
776.444	553.98
776.626	590.84
776.808	486.39
776.99	586.74
777.173	531.45
777.355	533.5
777.537	500.73
777.719	498.68
777.901	527.35
778.083	496.63
778.265	465.91
778.447	558.07
778.629	515.06
778.811	537.59
778.993	406.52
779.175	541.69
779.357	433.15
779.539	439.29
779.721	447.48
779.903	515.06
780.085	465.91
780.267	498.68
780.449	463.86
780.631	431.1
780.812	537.59
780.994	412.67
781.176	418.81
781.358	494.58
781.54	439.29
781.721	498.68
781.903	418.81
782.085	400.38
782.267	513.02
782.448	365.56
782.63	365.56
782.812	439.29
782.993	439.29
783.175	355.32
783.357	480.25
783.538	373.75
783.72	467.96
783.901	437.24
784.083	310.27
784.264	472.06
784.446	338.94
784.627	328.7
784.809	363.51
784.99	390.14
785.172	281.6
785.353	336.89
785.535	400.38
785.716	273.4
785.897	308.22
786.079	365.56
786.26	379.9
786.441	359.42
786.623	345.08
786.804	318.46
786.985	326.65
787.167	373.75
787.348	308.22
787.529	316.41
787.71	386.04
787.891	386.04
788.073	343.03
788.254	291.84
788.435	414.71
788.616	373.75
788.797	367.61
788.978	357.37
789.159	326.65
789.34	373.75
789.522	261.12
789.703	285.69
789.884	318.46
790.065	322.56
790.246	254.97
790.427	263.16
790.607	310.27
790.788	316.41
790.969	338.94
791.15	308.22
791.331	238.59
791.512	304.12
791.693	267.26
791.874	240.64
792.054	281.6
792.235	271.36
792.416	242.68
792.597	275.45
792.778	248.83
792.958	209.92
793.139	242.68
793.32	265.21
793.5	214.01
793.681	230.4
793.862	216.06
794.042	234.49
794.223	250.88
794.404	254.97
794.584	205.82
794.765	209.92
794.945	226.3
795.126	318.46
795.306	236.54
795.487	234.49
795.667	209.92
795.848	209.92
796.028	248.83
796.209	234.49
796.389	279.55
796.57	201.72
796.75	160.77
796.93	242.68
797.111	134.14
797.291	263.16
797.471	168.96
797.652	236.54
797.832	259.07
798.012	226.3
798.192	191.49
798.373	136.19
798.553	218.11
798.733	179.2
798.913	128
799.093	132.09
799.274	154.62
799.454	252.92
799.634	203.77
799.814	201.72
799.994	150.53
800.174	209.92
800.354	191.49
800.534	134.14
800.714	177.15
800.894	136.19
801.074	193.53
801.254	218.11
801.434	250.88
801.614	144.38
801.794	146.43
801.974	697.33
802.154	152.57
802.334	80.89
802.514	128
802.693	211.96
802.873	175.1
803.053	189.44
803.233	111.61
803.413	138.24
803.592	146.43
803.772	205.82
803.952	136.19
804.131	177.15
804.311	177.15
804.491	209.92
804.67	62.46
804.85	193.53
805.03	168.96
805.209	130.05
805.389	128
805.568	185.34
805.748	144.38
805.928	128
806.107	74.75
806.287	148.48
806.466	128
806.646	187.39
806.825	160.77
807.004	99.33
807.184	187.39
807.363	144.38
807.543	128
807.722	121.85
807.901	154.62
808.081	203.77
808.26	80.89
808.439	181.25
808.619	82.94
808.798	111.61
808.977	152.57
809.156	162.81
809.336	154.62
809.515	181.25
809.694	107.52
809.873	95.23
810.052	111.61
810.231	148.48
810.411	64.51
810.59	156.67
810.769	105.47
810.948	82.94
811.127	107.52
811.306	177.15
811.485	121.85
811.664	130.05
811.843	152.57
812.022	119.81
812.201	179.2
812.38	177.15
812.559	119.81
812.737	128
812.916	7.17
813.095	128
813.274	173.05
813.453	84.99
813.632	189.44
813.811	103.42
813.989	125.95
814.168	109.57
814.347	177.15
814.526	97.28
814.704	181.25
814.883	160.77
815.062	113.66
815.24	177.15
815.419	41.98
815.598	123.9
815.776	41.98
815.955	72.7
816.133	70.65
816.312	76.8
816.49	132.09
816.669	107.52
816.847	123.9
817.026	136.19
817.204	46.08
817.383	105.47
817.561	25.6
817.74	130.05
817.918	140.29
818.097	78.85
818.275	78.85
818.453	87.04
818.632	41.98
818.81	74.75
818.988	130.05
819.167	39.94
819.345	103.42
819.523	80.89
819.701	130.05
819.879	54.27
820.058	105.47
820.236	62.46
820.414	66.56
820.592	31.74
820.77	99.33
820.948	-11.26
821.127	68.61
821.305	25.6
821.483	17.41
821.661	138.24
821.839	103.42
822.017	46.08
822.195	29.7
822.373	115.71
822.551	70.65
822.729	138.24
822.907	95.23
823.085	115.71
823.262	37.89
823.44	46.08
823.618	-3.07
823.796	68.61
823.974	95.23
824.152	-5.12
824.329	17.41
824.507	119.81
824.685	111.61
824.863	107.52
825.04	5.12
825.218	95.23
825.396	50.18
825.574	50.18
825.751	134.14
825.929	119.81
826.107	80.89
826.284	91.13
826.462	138.24
826.639	66.56
826.817	66.56
826.994	39.94
827.172	7.17
827.349	136.19
827.527	60.42
827.704	66.56
827.882	41.98
828.059	87.04
828.237	33.79
828.414	72.7
828.591	78.85
828.769	11.26
828.946	15.36
829.124	62.46
829.301	39.94
829.478	48.13
829.655	-1.02
829.833	-19.46
830.01	33.79
830.187	80.89
830.364	87.04
830.542	80.89
830.719	58.37
830.896	93.18
831.073	27.65
831.25	31.74
831.427	44.03
831.604	78.85
831.782	87.04
831.959	46.08
832.136	21.5
832.313	113.66
832.49	70.65
832.667	9.22
832.844	25.6
833.021	95.23
833.198	87.04
833.374	19.46
833.551	-3.07
833.728	64.51
833.905	41.98
834.082	13.31
834.259	46.08
834.436	134.14
834.612	44.03
834.789	74.75
834.966	1.02
835.143	-17.41
835.319	-9.22
835.496	41.98
835.673	54.27
835.85	91.13
836.026	35.84
836.203	50.18
836.38	21.5
836.556	54.27
836.733	-33.79
836.909	7.17
837.086	60.42
837.262	-15.36
837.439	19.46
837.616	31.74
837.792	-31.74
837.968	-19.46
838.145	7.17
838.321	72.7
838.498	23.55
838.674	62.46
838.851	72.7
839.027	25.6
839.203	70.65
839.38	-1.02
839.556	54.27
839.732	60.42
839.909	13.31
840.085	68.61
840.261	-21.5
840.437	35.84
840.614	29.7
840.79	7.17
840.966	17.41
841.142	78.85
841.318	5.12
841.494	15.36
841.671	84.99
841.847	52.22
842.023	-9.22
842.199	46.08
842.375	21.5
842.551	44.03
842.727	-56.32
842.903	54.27
843.079	-1.02
843.255	-17.41
843.431	31.74
843.607	35.84
843.783	-7.17
843.959	23.55
844.134	-56.32
844.31	111.61
844.486	-27.65
844.662	-109.57
844.838	97.28
845.013	13.31
845.189	74.75
845.365	-72.7
845.541	-25.6
845.716	82.94
845.892	78.85
846.068	99.33
846.244	-31.74
846.419	-3.07
846.595	-1.02
846.77	-7.17
846.946	17.41
847.122	5.12
847.297	46.08
847.473	13.31
847.648	-35.84
847.824	56.32
847.999	-39.94
848.175	-3.07
848.35	50.18
848.526	5.12
848.701	-52.22
848.876	-9.22
849.052	5.12
849.227	50.18
849.403	11.26
849.578	-15.36
849.753	-41.98
849.929	-17.41
850.104	3.07
850.279	-3.07
850.454	-44.03
850.63	-23.55
850.805	23.55
850.98	-23.55
851.155	44.03
851.33	-44.03
851.505	-25.6
851.681	56.32
851.856	-37.89
852.031	44.03
852.206	48.13
852.381	29.7
852.556	3.07
852.731	-23.55
852.906	29.7
853.081	7.17
853.256	23.55
853.431	-35.84
853.606	-3.07
853.781	15.36
853.956	-72.7
854.131	17.41
854.305	39.94
854.48	13.31
854.655	-41.98
854.83	-3.07
855.005	35.84
855.18	-17.41
855.354	-25.6
855.529	54.27
855.704	-3.07
855.879	31.74
856.053	13.31
856.228	31.74
856.403	-44.03
856.577	1.02
856.752	23.55
856.926	-23.55
857.101	-19.46
857.276	-15.36
857.45	-17.41
857.625	89.09
857.799	54.27
857.974	15.36
858.148	-66.56
858.323	21.5
858.497	-7.17
858.672	-3.07
858.846	39.94
859.02	-9.22
859.195	-27.65
859.369	11.26
859.543	37.89
859.718	37.89
859.892	-1.02
860.066	27.65
860.241	-41.98
860.415	-27.65
860.589	-44.03
860.763	19.46
860.938	-64.51
861.112	56.32
861.286	13.31
861.46	-13.31
861.634	-25.6
861.808	25.6
861.982	-107.52
862.157	-31.74
862.331	-74.75
862.505	17.41
862.679	-50.18
862.853	9.22
863.027	3.07
863.201	89.09
863.375	5.12
863.549	27.65
863.722	5.12
863.896	29.7
864.07	-84.99
864.244	39.94
864.418	-41.98
864.592	68.61
864.766	-27.65
864.939	74.75
865.113	31.74
865.287	21.5
865.461	-21.5
865.634	25.6
865.808	41.98
865.982	60.42
866.156	-35.84
866.329	-78.85
866.503	15.36
866.676	95.23
866.85	27.65
867.024	54.27
867.197	21.5
867.371	54.27
867.544	13.31
867.718	35.84
867.891	5.12
868.065	-58.37
868.238	-17.41
868.412	29.7
868.585	52.22
868.759	-11.26
868.932	13.31
869.105	-54.27
869.279	78.85
869.452	-11.26
869.625	-3.07
869.799	-23.55
869.972	-48.13
870.145	-39.94
870.319	15.36
870.492	5.12
870.665	39.94
870.838	-11.26
871.011	-27.65
871.185	13.31
871.358	54.27
871.531	-35.84
871.704	37.89
871.877	-27.65
872.05	-117.76
872.223	-87.04
872.396	-3.07
872.569	7.17
872.742	-27.65
872.915	7.17
873.088	-1.02
873.261	-44.03
873.434	62.46
873.607	-25.6
873.78	56.32
873.953	-76.8
874.126	-64.51
874.299	-35.84
874.471	19.46
874.644	-60.42
874.817	54.27
874.99	46.08
875.163	-9.22
875.335	-44.03
875.508	-37.89
875.681	58.37
875.853	-25.6
876.026	25.6
876.199	-35.84
876.371	21.5
876.544	-35.84
876.717	-3.07
876.889	-31.74
877.062	19.46
877.234	-58.37
877.407	99.33
877.579	-25.6
877.752	-35.84
877.924	-66.56
878.097	-27.65
878.269	-62.46
878.442	82.94
878.614	-27.65
878.786	56.32
878.959	-39.94
879.131	-52.22
879.303	-46.08
879.476	7.17
879.648	13.31
879.82	23.55
879.993	-23.55
880.165	-27.65
880.337	-44.03
880.509	39.94
880.681	-19.46
880.854	-27.65
881.026	-11.26
881.198	103.42
881.37	-11.26
881.542	-27.65
881.714	-44.03
881.886	-5.12
882.058	-31.74
882.23	21.5
882.402	5.12
882.574	9.22
882.746	-25.6
882.918	9.22
883.09	13.31
883.262	-39.94
883.434	-35.84
883.606	-37.89
883.778	-115.71
883.95	21.5
884.122	-7.17
884.293	-3.07
884.465	-19.46
884.637	-29.7
884.809	-3.07
884.98	-19.46
885.152	-3.07
885.324	-74.75
885.496	5.12
885.667	-56.32
885.839	-19.46
886.011	46.08
886.182	-11.26
886.354	17.41
886.525	3.07
886.697	-5.12
886.869	-19.46
887.04	33.79
887.212	-33.79
887.383	-5.12
887.555	-68.61
887.726	5.12
887.897	-19.46
888.069	41.98
888.24	15.36
888.412	-44.03
888.583	-5.12
888.754	-27.65
888.926	-27.65
889.097	-19.46
889.268	-44.03
889.44	3.07
889.611	9.22
889.782	-52.22
889.953	-23.55
890.125	58.37
890.296	-11.26
890.467	19.46
890.638	-37.89
890.809	-17.41
890.98	-91.13
891.151	-19.46
891.323	15.36
891.494	9.22
891.665	-29.7
891.836	-60.42
892.007	-19.46
892.178	-13.31
892.349	-3.07
892.52	5.12
892.691	9.22
892.862	-25.6
893.032	21.5
893.203	5.12
893.374	3.07
893.545	19.46
893.716	-64.51
893.887	21.5
894.057	-41.98
894.228	13.31
894.399	-21.5
894.57	37.89
894.74	-5.12
894.911	7.17
895.082	-31.74
895.253	-107.52
895.423	-95.23
895.594	97.28
895.764	33.79
895.935	-41.98
896.106	66.56
896.276	31.74
896.447	41.98
896.617	-9.22
896.788	-44.03
896.958	25.6
897.129	-1.02
897.299	-1.02
897.47	13.31
897.64	48.13
897.81	-58.37
897.981	15.36
898.151	-125.95
898.322	11.26
898.492	1.02
898.662	-17.41
898.832	21.5
899.003	23.55
899.173	-58.37
899.343	-35.84
899.513	-11.26
