Data from USB4F104151__231__14-21-50-618.txt Node

Date: Thu Mar 13 14:21:50 EDT 2025
User: louis
Spectrometer: USB4F10415
Trigger mode: 4
Integration Time (sec): 2.000000E-2
Scans to average: 1
Electric dark correction enabled: true
Nonlinearity correction enabled: false
Boxcar width: 0
XAxis mode: Wavelengths
Number of Pixels in Spectrum: 3648
>>>>>Begin Spectral Data<<<<<
178.204	-106.67
178.424	-106.67
178.644	-106.67
178.864	-77.99
179.084	-80.04
179.304	-37.03
179.524	32.6
179.744	-45.23
179.964	5.97
180.184	-2.22
180.404	65.36
180.624	-0.17
180.844	38.74
181.064	-14.51
181.283	-2.22
181.503	-37.03
181.723	-4.27
181.943	-4.27
182.163	63.32
182.383	38.74
182.602	112.47
182.822	-30.89
183.042	57.17
183.262	34.64
183.482	85.84
183.701	32.6
183.921	28.5
184.141	-37.03
184.361	20.31
184.58	57.17
184.8	110.42
185.02	32.6
185.239	135
185.459	16.21
185.679	42.84
185.898	5.97
186.118	85.84
186.338	24.4
186.557	100.18
186.777	16.21
186.997	48.98
187.216	28.5
187.436	149.33
187.655	-6.31
187.875	89.94
188.095	81.75
188.314	20.31
188.534	155.47
188.753	77.65
188.973	106.32
189.192	94.04
189.412	63.32
189.631	36.69
189.851	3.93
190.07	116.56
190.29	-12.46
190.509	-4.27
190.729	20.31
190.948	30.55
191.168	102.23
191.387	38.74
191.607	18.26
191.826	100.18
192.045	118.61
192.265	36.69
192.484	38.74
192.704	81.75
192.923	-45.23
193.142	114.52
193.362	-0.17
193.581	85.84
193.8	28.5
194.02	63.32
194.239	-4.27
194.458	57.17
194.678	81.75
194.897	16.21
195.116	-10.41
195.335	18.26
195.555	69.46
195.774	65.36
195.993	94.04
196.212	-18.6
196.432	53.08
196.651	20.31
196.87	42.84
197.089	61.27
197.308	110.42
197.528	61.27
197.747	-0.17
197.966	36.69
198.185	118.61
198.404	22.36
198.623	3.93
198.842	94.04
199.062	120.66
199.281	85.84
199.5	28.5
199.719	71.51
199.938	48.98
200.157	77.65
200.376	46.93
200.595	46.93
200.814	12.12
201.033	104.28
201.252	34.64
201.471	98.13
201.69	36.69
201.909	55.12
202.128	118.61
202.347	71.51
202.566	149.33
202.785	36.69
203.004	26.45
203.223	102.23
203.442	85.84
203.661	40.79
203.879	73.56
204.098	106.32
204.317	18.26
204.536	53.08
204.755	69.46
204.974	34.64
205.193	14.17
205.411	132.95
205.63	44.88
205.849	36.69
206.068	71.51
206.287	38.74
206.505	53.08
206.724	-43.18
206.943	61.27
207.162	71.51
207.381	32.6
207.599	24.4
207.818	34.64
208.037	73.56
208.255	3.93
208.474	57.17
208.693	67.41
208.911	79.7
209.13	69.46
209.349	-12.46
209.567	42.84
209.786	55.12
210.005	16.21
210.223	63.32
210.442	-53.42
210.661	77.65
210.879	40.79
211.098	36.69
211.316	75.6
211.535	34.64
211.753	-28.84
211.972	38.74
212.191	-8.36
212.409	85.84
212.628	63.32
212.846	36.69
213.065	36.69
213.283	122.71
213.502	61.27
213.72	46.93
213.938	118.61
214.157	73.56
214.375	61.27
214.594	61.27
214.812	12.12
215.031	46.93
215.249	28.5
215.467	77.65
215.686	36.69
215.904	59.22
216.122	8.02
216.341	120.66
216.559	94.04
216.778	71.51
216.996	-0.17
217.214	1.88
217.432	89.94
217.651	16.21
217.869	143.19
218.087	44.88
218.306	3.93
218.524	94.04
218.742	22.36
218.96	128.85
219.179	32.6
219.397	98.13
219.615	79.7
219.833	110.42
220.051	83.8
220.27	18.26
220.488	51.03
220.706	79.7
220.924	-14.51
221.142	22.36
221.36	114.52
221.578	96.08
221.796	12.12
222.015	36.69
222.233	63.32
222.451	124.76
222.669	14.17
222.887	55.12
223.105	53.08
223.323	108.37
223.541	-16.55
223.759	104.28
223.977	48.98
224.195	57.17
224.413	30.55
224.631	77.65
224.849	48.98
225.067	120.66
225.285	16.21
225.503	-0.17
225.721	48.98
225.939	63.32
226.157	96.08
226.375	171.86
226.592	-0.17
226.81	98.13
227.028	71.51
227.246	91.99
227.464	26.45
227.682	81.75
227.9	26.45
228.117	-14.51
228.335	79.7
228.553	44.88
228.771	48.98
228.989	94.04
229.206	81.75
229.424	48.98
229.642	36.69
229.86	69.46
230.077	89.94
230.295	81.75
230.513	87.89
230.731	114.52
230.948	89.94
231.166	85.84
231.384	32.6
231.601	44.88
231.819	73.56
232.037	71.51
232.254	32.6
232.472	28.5
232.689	18.26
232.907	67.41
233.125	83.8
233.342	79.7
233.56	46.93
233.777	106.32
233.995	30.55
234.213	36.69
234.43	36.69
234.648	44.88
234.865	120.66
235.083	5.97
235.3	36.69
235.518	83.8
235.735	112.47
235.953	102.23
236.17	28.5
236.388	26.45
236.605	94.04
236.822	110.42
237.04	32.6
237.257	120.66
237.475	100.18
237.692	55.12
237.909	61.27
238.127	22.36
238.344	114.52
238.562	118.61
238.779	-10.41
238.996	22.36
239.214	94.04
239.431	85.84
239.648	42.84
239.865	57.17
240.083	81.75
240.3	5.97
240.517	75.6
240.735	104.28
240.952	102.23
241.169	5.97
241.386	55.12
241.603	48.98
241.821	46.93
242.038	32.6
242.255	57.17
242.472	24.4
242.689	122.71
242.907	18.26
243.124	18.26
243.341	65.36
243.558	85.84
243.775	55.12
243.992	36.69
244.209	28.5
244.426	73.56
244.643	108.37
244.86	20.31
245.078	55.12
245.295	87.89
245.512	135
245.729	24.4
245.946	-0.17
246.163	163.67
246.38	61.27
246.597	48.98
246.814	20.31
247.031	137.04
247.248	65.36
247.464	48.98
247.681	143.19
247.898	89.94
248.115	106.32
248.332	69.46
248.549	153.43
248.766	143.19
248.983	53.08
249.2	81.75
249.417	53.08
249.633	79.7
249.85	61.27
250.067	59.22
250.284	96.08
250.501	61.27
250.717	96.08
250.934	42.84
251.151	65.36
251.368	98.13
251.585	40.79
251.801	69.46
252.018	24.4
252.235	14.17
252.451	61.27
252.668	110.42
252.885	128.85
253.102	77.65
253.318	143.19
253.535	-18.6
253.752	59.22
253.968	55.12
254.185	141.14
254.401	120.66
254.618	12.12
254.835	147.28
255.051	96.08
255.268	186.19
255.484	81.75
255.701	61.27
255.917	36.69
256.134	5.97
256.351	40.79
256.567	-2.22
256.784	24.4
257	18.26
257.217	122.71
257.433	57.17
257.65	128.85
257.866	79.7
258.082	-12.46
258.299	65.36
258.515	53.08
258.732	61.27
258.948	53.08
259.165	55.12
259.381	5.97
259.597	36.69
259.814	81.75
260.03	18.26
260.246	77.65
260.463	159.57
260.679	71.51
260.895	120.66
261.112	108.37
261.328	36.69
261.544	28.5
261.761	112.47
261.977	42.84
262.193	-8.36
262.409	108.37
262.626	98.13
262.842	-4.27
263.058	38.74
263.274	63.32
263.49	73.56
263.707	118.61
263.923	94.04
264.139	53.08
264.355	14.17
264.571	36.69
264.787	87.89
265.004	79.7
265.22	46.93
265.436	79.7
265.652	24.4
265.868	36.69
266.084	71.51
266.3	69.46
266.516	77.65
266.732	44.88
266.948	112.47
267.164	36.69
267.38	77.65
267.596	69.46
267.812	159.57
268.028	94.04
268.244	55.12
268.46	42.84
268.676	44.88
268.892	77.65
269.108	73.56
269.324	-18.6
269.54	65.36
269.756	120.66
269.972	57.17
270.188	57.17
270.403	85.84
270.619	69.46
270.835	57.17
271.051	40.79
271.267	69.46
271.483	20.31
271.698	87.89
271.914	63.32
272.13	102.23
272.346	110.42
272.562	53.08
272.777	98.13
272.993	28.5
273.209	69.46
273.425	71.51
273.64	42.84
273.856	28.5
274.072	32.6
274.287	69.46
274.503	94.04
274.719	85.84
274.934	-28.84
275.15	53.08
275.366	71.51
275.581	55.12
275.797	14.17
276.012	112.47
276.228	22.36
276.444	69.46
276.659	118.61
276.875	24.4
277.09	53.08
277.306	46.93
277.521	96.08
277.737	79.7
277.952	104.28
278.168	89.94
278.383	118.61
278.599	3.93
278.814	114.52
279.03	5.97
279.245	116.56
279.461	71.51
279.676	116.56
279.892	5.97
280.107	24.4
280.322	75.6
280.538	81.75
280.753	96.08
280.969	48.98
281.184	-30.89
281.399	77.65
281.615	42.84
281.83	20.31
282.045	102.23
282.26	112.47
282.476	71.51
282.691	53.08
282.906	-4.27
283.122	46.93
283.337	-6.31
283.552	108.37
283.767	28.5
283.983	118.61
284.198	44.88
284.413	63.32
284.628	16.21
284.843	110.42
285.058	16.21
285.274	63.32
285.489	63.32
285.704	98.13
285.919	81.75
286.134	102.23
286.349	77.65
286.564	53.08
286.779	132.95
286.995	44.88
287.21	38.74
287.425	63.32
287.64	100.18
287.855	65.36
288.07	53.08
288.285	110.42
288.5	12.12
288.715	104.28
288.93	102.23
289.145	18.26
289.36	55.12
289.575	59.22
289.79	77.65
290.004	-16.55
290.219	63.32
290.434	87.89
290.649	34.64
290.864	8.02
291.079	30.55
291.294	28.5
291.509	48.98
291.724	61.27
291.938	-16.55
292.153	71.51
292.368	98.13
292.583	55.12
292.798	24.4
293.012	48.98
293.227	14.17
293.442	3.93
293.657	69.46
293.871	155.47
294.086	20.31
294.301	73.56
294.516	126.8
294.73	65.36
294.945	14.17
295.16	143.19
295.374	87.89
295.589	73.56
295.804	34.64
296.018	61.27
296.233	55.12
296.447	94.04
296.662	55.12
296.877	128.85
297.091	69.46
297.306	51.03
297.52	61.27
297.735	128.85
297.949	36.69
298.164	83.8
298.378	73.56
298.593	77.65
298.807	3.93
299.022	100.18
299.236	73.56
299.451	110.42
299.665	69.46
299.88	71.51
300.094	108.37
300.309	63.32
300.523	53.08
300.737	102.23
300.952	65.36
301.166	69.46
301.381	-4.27
301.595	77.65
301.809	14.17
302.024	48.98
302.238	34.64
302.452	151.38
302.667	26.45
302.881	102.23
303.095	96.08
303.309	110.42
303.524	44.88
303.738	77.65
303.952	28.5
304.166	77.65
304.381	44.88
304.595	77.65
304.809	85.84
305.023	65.36
305.237	42.84
305.452	20.31
305.666	85.84
305.88	53.08
306.094	44.88
306.308	-4.27
306.522	135
306.736	81.75
306.95	118.61
307.164	91.99
307.379	48.98
307.593	94.04
307.807	24.4
308.021	48.98
308.235	102.23
308.449	69.46
308.663	20.31
308.877	155.47
309.091	81.75
309.305	61.27
309.519	30.55
309.733	46.93
309.947	-12.46
310.161	30.55
310.374	128.85
310.588	61.27
310.802	57.17
311.016	20.31
311.23	77.65
311.444	120.66
311.658	126.8
311.872	120.66
312.085	85.84
312.299	73.56
312.513	55.12
312.727	79.7
312.941	94.04
313.154	94.04
313.368	69.46
313.582	18.26
313.796	38.74
314.009	104.28
314.223	137.04
314.437	100.18
314.651	69.46
314.864	81.75
315.078	48.98
315.292	24.4
315.505	14.17
315.719	135
315.933	55.12
316.146	36.69
316.36	26.45
316.573	44.88
316.787	85.84
317.001	22.36
317.214	5.97
317.428	94.04
317.641	16.21
317.855	53.08
318.068	98.13
318.282	44.88
318.495	77.65
318.709	81.75
318.922	51.03
319.136	87.89
319.349	59.22
319.563	71.51
319.776	139.09
319.99	87.89
320.203	63.32
320.417	57.17
320.63	112.47
320.843	122.71
321.057	10.07
321.27	28.5
321.483	137.04
321.697	83.8
321.91	79.7
322.124	124.76
322.337	65.36
322.55	-20.65
322.763	98.13
322.977	122.71
323.19	28.5
323.403	46.93
323.617	38.74
323.83	65.36
324.043	5.97
324.256	96.08
324.469	-8.36
324.683	36.69
324.896	73.56
325.109	40.79
325.322	94.04
325.535	28.5
325.748	61.27
325.962	63.32
326.175	65.36
326.388	14.17
326.601	91.99
326.814	28.5
327.027	44.88
327.24	159.57
327.453	-16.55
327.666	22.36
327.879	53.08
328.092	145.24
328.305	55.12
328.518	-4.27
328.731	-18.6
328.944	34.64
329.157	94.04
329.37	112.47
329.583	108.37
329.796	135
330.009	85.84
330.222	38.74
330.435	85.84
330.648	48.98
330.861	59.22
331.073	141.14
331.286	67.41
331.499	38.74
331.712	69.46
331.925	24.4
332.138	38.74
332.35	83.8
332.563	-53.42
332.776	81.75
332.989	96.08
333.202	34.64
333.414	118.61
333.627	81.75
333.84	-26.79
334.053	96.08
334.265	77.65
334.478	104.28
334.691	81.75
334.903	81.75
335.116	-20.65
335.329	128.85
335.541	44.88
335.754	135
335.966	32.6
336.179	36.69
336.392	42.84
336.604	85.84
336.817	143.19
337.029	79.7
337.242	22.36
337.454	73.56
337.667	126.8
337.88	83.8
338.092	5.97
338.305	130.9
338.517	53.08
338.729	48.98
338.942	67.41
339.154	98.13
339.367	53.08
339.579	55.12
339.792	-43.18
340.004	69.46
340.217	40.79
340.429	59.22
340.641	71.51
340.854	77.65
341.066	89.94
341.278	100.18
341.491	106.32
341.703	20.31
341.915	20.31
342.128	110.42
342.34	96.08
342.552	79.7
342.764	34.64
342.977	44.88
343.189	53.08
343.401	167.76
343.613	36.69
343.826	-6.31
344.038	22.36
344.25	79.7
344.462	77.65
344.674	114.52
344.886	69.46
345.099	79.7
345.311	65.36
345.523	61.27
345.735	44.88
345.947	55.12
346.159	73.56
346.371	98.13
346.583	96.08
346.795	157.52
347.007	85.84
347.219	51.03
347.431	108.37
347.643	55.12
347.855	40.79
348.067	120.66
348.279	69.46
348.491	79.7
348.703	46.93
348.915	71.51
349.127	20.31
349.339	28.5
349.551	73.56
349.763	44.88
349.975	73.56
350.187	85.84
350.399	161.62
350.61	53.08
350.822	30.55
351.034	28.5
351.246	44.88
351.458	55.12
351.669	122.71
351.881	20.31
352.093	42.84
352.305	57.17
352.517	124.76
352.728	132.95
352.94	38.74
353.152	57.17
353.363	94.04
353.575	141.14
353.787	55.12
353.999	104.28
354.21	81.75
354.422	79.7
354.633	16.21
354.845	44.88
355.057	135
355.268	161.62
355.48	24.4
355.692	34.64
355.903	100.18
356.115	85.84
356.326	12.12
356.538	91.99
356.749	128.85
356.961	73.56
357.172	63.32
357.384	94.04
357.595	114.52
357.807	-4.27
358.018	36.69
358.23	135
358.441	141.14
358.653	218.96
358.864	69.46
359.075	77.65
359.287	65.36
359.498	163.67
359.709	106.32
359.921	110.42
360.132	87.89
360.344	135
360.555	48.98
360.766	69.46
360.977	44.88
361.189	96.08
361.4	94.04
361.611	118.61
361.823	128.85
362.034	110.42
362.245	104.28
362.456	44.88
362.667	106.32
362.879	98.13
363.09	12.12
363.301	53.08
363.512	118.61
363.723	38.74
363.935	126.8
364.146	102.23
364.357	85.84
364.568	59.22
364.779	-0.17
364.99	186.19
365.201	87.89
365.412	94.04
365.623	40.79
365.834	102.23
366.045	104.28
366.256	145.24
366.467	-8.36
366.678	118.61
366.889	20.31
367.1	57.17
367.311	79.7
367.522	79.7
367.733	20.31
367.944	71.51
368.155	22.36
368.366	118.61
368.577	104.28
368.788	83.8
368.999	77.65
369.209	173.91
369.42	110.42
369.631	171.86
369.842	98.13
370.053	44.88
370.264	102.23
370.474	85.84
370.685	128.85
370.896	79.7
371.107	73.56
371.317	151.38
371.528	118.61
371.739	114.52
371.95	44.88
372.16	51.03
372.371	42.84
372.582	106.32
372.792	135
373.003	61.27
373.214	-41.13
373.424	69.46
373.635	180.05
373.846	96.08
374.056	77.65
374.267	139.09
374.477	69.46
374.688	114.52
374.898	71.51
375.109	143.19
375.319	44.88
375.53	106.32
375.74	118.61
375.951	32.6
376.161	120.66
376.372	79.7
376.582	102.23
376.793	135
377.003	73.56
377.214	89.94
377.424	53.08
377.635	34.64
377.845	-8.36
378.055	57.17
378.266	147.28
378.476	85.84
378.686	44.88
378.897	48.98
379.107	89.94
379.317	83.8
379.528	53.08
379.738	77.65
379.948	-16.55
380.158	87.89
380.369	69.46
380.579	135
380.789	112.47
380.999	175.95
381.21	153.43
381.42	98.13
381.63	3.93
381.84	106.32
382.05	67.41
382.261	126.8
382.471	106.32
382.681	85.84
382.891	155.47
383.101	75.6
383.311	102.23
383.521	69.46
383.731	94.04
383.941	85.84
384.151	51.03
384.361	151.38
384.571	112.47
384.781	104.28
384.991	98.13
385.201	157.52
385.411	98.13
385.621	102.23
385.831	67.41
386.041	77.65
386.251	126.8
386.461	102.23
386.671	118.61
386.881	110.42
387.091	38.74
387.301	112.47
387.511	100.18
387.72	126.8
387.93	85.84
388.14	87.89
388.35	81.75
388.56	122.71
388.769	73.56
388.979	130.9
389.189	-4.27
389.399	51.03
389.609	79.7
389.818	22.36
390.028	118.61
390.238	-4.27
390.447	55.12
390.657	3.93
390.867	28.5
391.076	32.6
391.286	42.84
391.496	94.04
391.705	-37.03
391.915	161.62
392.125	89.94
392.334	69.46
392.544	118.61
392.753	147.28
392.963	100.18
393.172	139.09
393.382	112.47
393.591	147.28
393.801	53.08
394.01	157.52
394.22	163.67
394.429	30.55
394.639	159.57
394.848	71.51
395.058	120.66
395.267	124.76
395.477	83.8
395.686	98.13
395.895	173.91
396.105	241.49
396.314	135
396.524	155.47
396.733	71.51
396.942	120.66
397.152	151.38
397.361	139.09
397.57	89.94
397.78	87.89
397.989	128.85
398.198	165.71
398.407	94.04
398.617	169.81
398.826	139.09
399.035	194.39
399.244	167.76
399.453	81.75
399.663	149.33
399.872	137.04
400.081	108.37
400.29	184.15
400.499	73.56
400.708	159.57
400.917	165.71
401.127	135
401.336	137.04
401.545	204.63
401.754	104.28
401.963	186.19
402.172	61.27
402.381	112.47
402.59	171.86
402.799	110.42
403.008	85.84
403.217	163.67
403.426	151.38
403.635	61.27
403.844	98.13
404.053	106.32
404.262	186.19
404.471	135
404.68	161.62
404.888	81.75
405.097	200.53
405.306	204.63
405.515	167.76
405.724	89.94
405.933	159.57
406.142	257.87
406.35	229.2
406.559	225.11
406.768	163.67
406.977	335.7
407.185	245.59
407.394	261.97
407.603	270.16
407.812	233.3
408.02	356.18
408.229	268.11
408.438	313.17
408.646	339.79
408.855	368.46
409.064	274.26
409.272	315.22
409.481	266.07
409.69	278.35
409.898	266.07
410.107	370.51
410.315	350.03
410.524	319.31
410.733	360.27
410.941	403.28
411.15	376.66
411.358	407.38
411.567	421.71
411.775	470.86
411.984	425.81
412.192	481.1
412.401	454.48
412.609	626.51
412.818	497.49
413.026	593.74
413.234	530.25
413.443	581.45
413.651	513.87
413.86	653.13
414.068	669.52
414.276	661.32
414.485	536.4
414.693	687.95
414.901	782.15
415.11	638.8
415.318	743.24
415.526	712.52
415.734	802.63
415.943	790.35
416.151	907.08
416.359	888.65
416.567	827.21
416.776	847.69
416.984	974.66
417.192	1027.91
417.4	991.05
417.608	1064.77
417.817	1023.81
418.025	1097.54
418.233	1244.99
418.441	1115.97
418.649	1134.4
418.857	1412.93
419.065	1421.12
419.273	1300.29
419.481	1453.89
419.689	1302.34
419.897	1521.47
420.105	1533.76
420.313	1666.88
420.521	1609.53
420.729	1636.16
420.937	1675.07
421.145	1843
421.353	1912.63
421.561	1986.36
421.769	1916.73
421.977	2180.92
422.185	2053.94
422.393	2182.96
422.601	2371.38
422.809	2289.46
423.017	2246.45
423.224	2506.54
423.432	2518.83
423.64	2613.04
423.848	2731.82
424.056	2613.04
424.263	2926.38
424.471	2977.58
424.679	2961.19
424.887	3221.28
425.094	3165.99
425.302	3229.48
425.51	3264.29
425.718	3471.14
425.925	3383.07
426.133	3624.73
426.341	3893.02
426.548	3864.35
426.756	3829.53
426.964	3991.32
427.171	4030.23
427.379	4325.14
427.586	4445.97
427.794	4574.99
428.001	4566.8
428.209	4904.71
428.417	4781.84
428.624	5144.33
428.832	5009.16
429.039	5074.7
429.247	5074.7
429.454	5648.13
429.662	6063.86
429.869	5637.89
430.076	6164.22
430.284	5738.24
430.491	6033.15
430.699	6352.63
430.906	6659.82
431.114	6532.85
431.321	6870.76
431.528	6870.76
431.736	7395.04
431.943	7485.16
432.15	7562.98
432.358	7671.52
432.565	7958.24
432.772	7933.66
432.979	8095.45
433.187	8515.28
433.394	8449.75
433.601	8928.97
433.808	9154.25
434.016	9277.13
434.223	9387.72
434.43	9860.8
434.637	9942.72
434.844	10317.5
435.052	10598.07
435.259	10573.49
435.466	10804.91
435.673	10481.33
435.88	11118.25
436.087	11701.92
436.294	11783.84
436.501	11351.72
436.708	11542.18
436.915	12082.84
437.122	12588.69
437.329	12643.99
437.537	13057.68
437.743	13160.08
437.95	13069.97
438.157	13977.22
438.364	14149.25
438.571	14356.09
438.778	14300.8
438.985	15717.99
439.192	15111.79
439.399	15414.89
439.606	15183.47
439.813	16150.11
440.02	17135.18
440.227	16805.46
440.433	16795.22
440.64	16914
440.847	17157.71
441.054	17503.82
441.261	18685.5
441.467	18169.41
441.674	18841.14
441.881	19181.1
442.088	19504.68
442.294	19041.84
442.501	19310.13
442.708	19947.04
442.914	20659.74
443.121	21745.16
443.328	20995.6
443.534	22619.64
443.741	21878.28
443.948	21382.67
444.154	23086.58
444.361	23160.31
444.568	23162.36
444.774	23139.83
444.981	23264.75
445.187	23981.54
445.394	25179.61
445.6	24804.83
445.807	27192.76
446.013	25830.86
446.22	26033.61
446.426	27590.06
446.633	27764.14
446.839	28704.16
447.046	27518.39
447.252	28851.61
447.459	29183.38
447.665	28886.43
447.871	29898.13
448.078	31462.77
448.284	30012.81
448.491	30856.57
448.697	31479.16
448.903	32437.61
449.11	32449.89
449.316	32099.69
449.522	32417.13
449.728	33303.9
449.935	33809.75
450.141	33754.45
450.347	34614.6
450.553	33459.54
450.76	33828.18
450.966	34848.07
451.172	34551.11
451.378	35208.51
451.584	34512.2
451.791	35675.44
451.997	35390.78
452.203	36224.3
452.409	36394.28
452.615	35851.57
452.821	34342.22
453.027	34461
453.233	36396.33
453.44	34868.55
453.646	35038.53
453.852	35343.67
454.058	36050.22
454.264	34700.61
454.47	35732.79
454.676	34678.08
454.882	36066.61
455.088	32685.41
455.294	33086.81
455.5	33830.23
455.705	33785.17
455.911	32589.16
456.117	32083.31
456.323	31638.9
456.529	30027.15
456.735	31315.32
456.941	30825.85
457.147	29957.52
457.352	29181.34
457.558	28624.29
457.764	29175.19
457.97	28431.78
458.176	27891.12
458.381	27848.11
458.587	26316.23
458.793	26641.85
458.999	25273.81
459.204	27096.5
459.41	26226.12
459.616	24509.92
459.821	24372.71
460.027	24577.5
460.233	23938.54
460.438	23039.48
460.644	23281.14
460.85	22111.75
461.055	21906.95
461.261	21657.1
461.466	19932.71
461.672	19582.51
461.878	20794.9
462.083	19392.05
462.289	19162.67
462.494	18767.41
462.7	17968.71
462.905	17380.94
463.111	18257.47
463.316	18353.73
463.522	17747.53
463.727	17915.46
463.932	17833.54
464.138	17622.6
464.343	17901.12
464.549	17061.46
464.754	17876.55
464.959	17657.42
465.165	17290.83
465.37	16655.96
465.575	16234.08
465.781	16928.34
465.986	17075.79
466.191	16324.19
466.397	16215.65
466.602	15251.05
466.807	16287.32
467.012	16127.58
467.218	15986.27
467.423	15804
467.628	15560.3
467.833	16336.48
468.038	15804
468.244	15330.92
468.449	15947.36
468.654	15457.9
468.859	15486.57
469.064	15281.77
469.269	14782.07
469.474	14898.8
469.679	15236.72
469.885	14575.22
470.09	14800.5
470.295	14683.77
470.5	14323.32
470.705	14493.3
470.91	14360.19
471.115	14165.63
471.32	14220.92
471.525	14390.91
471.73	13850.24
471.935	13747.84
472.139	13373.07
472.344	13448.84
472.549	13344.39
472.754	13252.24
472.959	13037.2
473.164	12613.27
473.369	12711.57
473.574	12996.24
473.778	12830.35
473.983	12873.36
474.188	12785.3
474.393	12271.26
474.598	12246.68
474.802	12285.59
475.007	12021.41
475.212	11910.82
475.417	11445.93
475.621	11939.49
475.826	11820.7
476.031	11595.43
476.235	11146.92
476.44	11382.44
476.645	11247.27
476.849	11120.3
477.054	11259.56
477.259	10856.11
477.463	10933.93
477.668	10604.21
477.872	10657.46
478.077	10694.32
478.282	10245.82
478.486	10501.81
478.691	10200.76
478.895	10186.43
479.1	10147.51
479.304	10024.64
479.509	9809.6
479.713	10180.28
479.918	9754.3
480.122	9567.94
480.326	9737.92
480.531	9686.72
480.735	9682.63
480.94	9639.62
481.144	9701.06
481.348	9512.64
481.553	9510.6
481.757	9375.43
481.961	9408.2
482.166	9801.41
482.37	9533.12
482.574	9326.28
482.778	9424.58
482.983	9453.25
483.187	9381.57
483.391	9504.45
483.595	9387.72
483.8	9318.09
484.004	9572.04
484.208	9612.99
484.412	9410.25
484.616	9555.65
484.821	9422.53
485.025	9180.87
485.229	9764.54
485.433	9346.76
485.637	9477.83
485.841	9178.83
486.045	9238.22
486.249	9391.81
486.453	9361.09
486.657	9285.32
486.861	9334.47
487.065	9146.06
487.269	9297.61
487.473	9193.16
487.677	9273.03
487.881	9696.96
488.085	9266.89
488.289	9580.23
488.493	9336.52
488.697	9412.29
488.901	9559.75
489.105	9473.73
489.309	9500.36
489.512	9445.06
489.716	9496.26
489.92	9531.08
490.124	9596.61
490.328	9821.89
490.531	9563.84
490.735	9651.91
490.939	9602.75
491.143	9483.97
491.346	9645.76
491.55	9778.88
491.754	9760.45
491.958	9805.5
492.161	9791.17
492.365	10006.2
492.569	9854.65
492.772	9828.03
492.976	9916.09
493.18	10145.47
493.383	10208.95
493.587	10067.64
493.79	10278.58
493.994	9946.81
494.197	10411.7
494.401	10405.56
494.605	10546.87
494.808	10481.33
495.012	10618.55
495.215	10798.77
495.419	10714.8
495.622	10655.41
495.825	10784.43
496.029	11048.62
496.232	10966.7
496.436	11171.5
496.639	11390.63
496.843	11308.71
497.046	11568.8
497.249	11507.37
497.453	11681.44
497.656	11783.84
497.859	11822.75
498.063	11818.66
498.266	12021.41
498.469	12041.89
498.673	12187.29
498.876	12498.58
499.079	12525.21
499.282	12467.86
499.485	13012.62
499.689	13127.31
499.892	13131.4
500.095	13121.17
500.298	13332.11
500.501	13301.39
500.705	13733.51
500.908	13596.29
501.111	13934.21
501.314	14012.03
501.517	14360.19
501.72	14464.63
501.923	14481.02
502.126	14739.06
502.329	15056.5
502.532	15111.79
502.735	14960.24
502.938	15292.01
503.141	15253.1
503.344	15687.27
503.547	15928.93
503.75	15988.32
503.953	16158.3
504.156	16500.31
504.359	16420.44
504.562	16557.66
504.765	16948.82
504.968	17026.64
505.17	17225.29
505.373	17440.33
505.576	17475.15
505.779	17690.18
505.982	17919.56
506.185	18069.06
506.387	18232.9
506.59	18406.97
506.793	18570.81
506.996	18710.07
507.198	19015.22
507.401	19308.08
507.604	19439.15
507.807	19682.86
508.009	19992.1
508.212	19942.95
508.415	20299.3
508.617	20643.35
508.82	20674.07
509.022	20473.37
509.225	21169.68
509.428	21050.9
509.63	21409.29
509.833	21261.84
510.035	21925.38
510.238	21751.31
510.44	22277.63
510.643	22580.73
510.845	22519.29
511.048	22615.55
511.25	22984.18
511.453	23178.74
511.655	23752.17
511.858	23668.2
512.06	24038.89
512.262	24124.9
512.465	24483.3
512.667	24624.61
512.87	24702.43
513.072	24827.35
513.274	25200.08
513.477	25454.03
513.679	25681.36
513.881	26215.88
514.084	26066.38
514.286	25992.65
514.488	26404.29
514.69	27143.61
514.893	27229.62
515.095	27274.68
515.297	27815.34
515.499	27594.16
515.701	28059.05
515.904	28530.08
516.106	28568.99
516.308	28810.65
516.51	29005.21
516.712	29281.69
516.914	29414.8
517.116	29853.07
517.318	29998.48
517.52	30373.25
517.722	30428.55
517.925	30891.39
518.127	31137.15
518.329	31286.65
518.531	31079.8
518.733	31987.05
518.935	32251.24
519.136	32116.08
519.338	32777.57
519.54	32748.9
519.742	33140.06
519.944	33168.73
520.146	33770.83
520.348	33787.22
520.55	33779.03
520.752	34180.43
520.954	34782.53
521.155	34647.36
521.357	34956.61
521.559	35165.5
521.761	35575.09
521.963	35669.3
522.164	35867.95
522.366	36117.81
522.568	36203.82
522.77	36592.93
522.971	36678.95
523.173	36562.22
523.375	36818.21
523.576	36965.67
523.778	37575.96
523.98	38255.89
524.181	38049.04
524.383	37801.24
524.584	38720.77
524.786	38413.58
524.988	38145.3
525.189	39005.44
525.391	39058.69
525.592	39347.45
525.794	39273.73
525.995	39341.31
526.197	39353.6
526.398	39955.7
526.6	39759.09
526.801	39896.31
527.003	39945.46
527.204	40488.17
527.406	40416.49
527.607	40738.02
527.808	40805.61
528.01	40713.45
528.211	40905.96
528.412	41874.65
528.614	41536.73
528.815	41276.64
529.016	41909.46
529.218	41362.65
529.419	41667.8
529.62	41653.47
529.822	41919.7
530.023	41444.57
530.224	41450.72
530.425	41491.68
530.626	41747.67
530.828	41340.13
531.029	42542.28
531.23	41874.65
531.431	42083.54
531.632	42157.27
531.833	42540.24
532.035	42411.21
532.236	42292.43
532.437	42527.95
532.638	42589.39
532.839	42718.41
533.04	42636.49
533.241	41864.41
533.442	43070.66
533.643	42718.41
533.844	42466.51
534.045	42536.14
534.246	42601.68
534.447	42722.51
534.648	42294.48
534.849	42857.67
535.05	42198.23
535.251	43130.05
535.451	42771.66
535.652	42745.03
535.853	42898.63
536.054	42808.52
536.255	42919.11
536.456	42816.71
536.657	43244.74
536.857	42599.63
537.058	42497.23
537.259	43314.37
537.46	42910.92
537.66	42593.48
537.861	43007.17
538.062	42695.88
538.263	42867.91
538.463	42624.2
538.664	42810.57
538.865	42880.2
539.065	43506.88
539.266	42613.96
539.466	43336.9
539.667	42312.91
539.868	43300.03
540.068	43027.65
540.269	42706.12
540.469	42937.54
540.67	42532.04
540.87	42685.64
541.071	42796.23
541.271	42972.36
541.472	42724.55
541.672	42519.76
541.873	42595.53
542.073	42173.65
542.274	42958.02
542.474	42689.74
542.675	42206.42
542.875	42648.78
543.075	42978.5
543.276	42239.18
543.476	42925.25
543.676	42362.06
543.877	42552.52
544.077	42503.37
544.277	42509.52
544.478	42345.68
544.678	42835.14
544.878	42460.37
545.078	42790.09
545.279	42380.49
545.479	42593.48
545.679	42480.85
545.879	42368.21
546.079	42632.39
546.28	42163.41
546.48	42065.11
546.68	42532.04
546.88	42648.78
547.08	42089.68
547.28	42261.71
547.48	41931.99
547.68	42460.37
547.88	41723.1
548.081	42511.56
548.281	42679.5
548.481	42220.75
548.681	42353.87
548.881	42460.37
549.081	42382.54
549.28	42296.53
549.48	42656.97
549.68	42202.32
549.88	42665.16
550.08	41891.03
550.28	42458.32
550.48	42210.51
550.68	42267.86
550.88	42022.1
551.08	41835.73
551.279	42171.6
551.479	41794.78
551.679	42409.17
551.879	41850.07
552.079	42331.34
552.278	41843.93
552.478	41874.65
552.678	41903.32
552.878	41925.85
553.077	42212.56
553.277	41456.86
553.477	42024.15
553.676	41542.88
553.876	41776.34
554.076	41460.96
554.275	41671.9
554.475	41665.75
554.674	41661.66
554.874	41837.78
555.074	41565.4
555.273	42083.54
555.473	41667.8
555.672	41594.07
555.872	41698.52
556.071	41381.09
556.271	41690.33
556.47	41573.59
556.67	41301.22
556.869	41170.15
557.068	41241.82
557.268	41198.82
557.467	41161.95
557.667	41428.19
557.866	41311.45
558.065	41313.5
558.265	41043.17
558.464	40643.82
558.663	41194.72
558.863	40606.95
559.062	41475.29
559.261	40455.4
559.461	41016.55
559.66	40686.82
559.859	40856.81
560.058	40301.81
560.258	40690.92
560.457	40365.29
560.656	40621.29
560.855	40473.84
561.054	40486.12
561.253	40467.69
561.453	40516.84
561.652	40363.25
561.851	40467.69
562.05	40244.46
562.249	39914.74
562.448	40228.08
562.647	40283.37
562.846	39988.47
563.045	39937.27
563.244	39417.08
563.443	40463.6
563.642	39798.01
563.841	39611.64
564.04	39140.61
564.239	39967.99
564.438	39200
564.637	39632.12
564.836	39648.5
565.035	38954.24
565.234	39478.52
565.432	39302.4
565.631	39425.28
565.83	39326.97
566.029	38999.3
566.228	39044.35
566.427	38956.29
566.625	38780.17
566.824	38358.28
567.023	39023.87
567.222	38153.49
567.42	38724.87
567.619	38294.8
567.818	38280.46
568.016	38270.22
568.215	38532.36
568.414	37909.78
568.612	38497.55
568.811	37813.52
569.01	37813.52
569.208	37821.72
569.407	38106.38
569.605	37641.49
569.804	37610.78
570.002	37020.96
570.201	37717.27
570.4	37268.76
570.598	37336.35
570.797	37180.7
570.995	37498.14
571.193	36939.04
571.392	37477.66
571.59	36683.05
571.789	36570.41
571.987	36517.16
572.186	37063.97
572.384	36429.1
572.582	36871.46
572.781	36646.18
572.979	36240.68
573.177	36732.2
573.376	36498.73
573.574	36220.2
573.772	35988.78
573.971	35788.08
574.169	35894.58
574.367	35546.42
574.565	36003.12
574.763	35935.54
574.962	35595.57
575.16	35384.63
575.358	35472.7
575.556	35044.67
575.754	35333.43
575.952	34872.64
576.151	35339.58
576.349	34598.21
576.547	34891.07
576.745	35138.88
576.943	35089.73
577.141	34760
577.339	34594.12
577.537	34559.3
577.735	34993.47
577.933	34301.26
578.131	34714.95
578.329	34368.84
578.527	33879.38
578.725	34178.38
578.923	34336.07
579.121	33985.87
579.319	33957.2
579.516	34004.3
579.714	33766.74
579.912	33637.72
580.11	33496.41
580.308	33549.65
580.506	33613.14
580.704	33125.72
580.901	33805.65
581.099	33445.21
581.297	33019.23
581.495	32888.16
581.692	33607
581.89	32703.84
582.088	33078.62
582.285	32814.43
582.483	32839.01
582.681	32824.67
582.878	32431.46
583.076	32501.09
583.274	32869.73
583.471	32114.03
583.669	32197.99
583.866	32066.92
584.064	32376.17
584.262	31792.5
584.459	32083.31
584.657	31800.69
584.854	31980.91
585.052	31473.01
585.249	31784.3
585.447	31624.56
585.644	30819.71
585.841	31376.76
586.039	31618.42
586.236	30920.06
586.434	30946.69
586.631	30973.31
586.828	31229.3
587.026	31098.23
587.223	30653.83
587.42	30848.38
587.618	30616.96
587.815	30481.8
588.012	30446.98
588.21	30240.14
588.407	30842.24
588.604	30049.67
588.801	30033.29
588.999	30135.69
589.196	29871.5
589.393	30096.78
589.59	29711.76
589.787	29711.76
589.984	29339.03
590.182	29398.42
590.379	29801.87
590.576	29222.3
590.773	29646.22
590.97	29138.33
591.167	29506.96
591.364	29138.33
591.561	29314.45
591.758	28915.1
591.955	29074.84
592.152	29148.57
592.349	28698.02
592.546	28956.06
592.743	28886.43
592.94	28276.13
593.137	28380.58
593.334	28497.31
593.531	27966.89
593.727	28577.19
593.924	28288.42
594.121	28067.24
594.318	28132.78
594.515	27508.15
594.712	28100.01
594.908	28118.44
595.105	27667.89
595.302	27426.23
595.499	27667.89
595.696	27362.74
595.892	27407.8
596.089	27674.03
596.286	27233.72
596.482	27159.99
596.679	27262.39
596.876	27397.56
597.072	26555.84
597.269	27102.65
597.466	26992.06
597.662	26744.25
597.859	26723.77
598.055	26500.54
598.252	26387.91
598.448	26379.71
598.645	26254.79
598.841	26285.51
599.038	26289.6
599.234	26414.53
599.431	25898.44
599.627	25865.67
599.824	26172.87
600.02	25701.84
600.217	25765.32
600.413	25667.02
600.609	25636.3
600.806	25634.25
601.002	25296.34
601.198	25191.89
601.395	24792.54
601.591	24892.89
601.787	25159.13
601.984	24980.95
602.18	25310.68
602.376	24976.86
602.572	24665.56
602.769	24800.73
602.965	24243.68
603.161	24718.81
603.357	24188.39
603.553	24661.47
603.75	24761.82
603.946	24315.36
604.142	24597.98
604.338	23950.82
604.534	24397.28
604.73	23803.37
604.926	24057.32
605.122	24108.52
605.318	23789.03
605.514	23557.61
605.71	23819.75
605.906	23735.79
606.102	23926.25
606.298	23762.41
606.494	23522.8
606.69	23524.85
606.886	23420.4
607.082	23324.15
607.278	23438.83
607.474	23084.53
607.67	23313.91
607.866	22844.92
608.062	23385.58
608.257	23102.96
608.453	22937.08
608.649	22967.8
608.845	22650.36
609.041	22629.88
609.236	22660.6
609.432	22818.3
609.628	22947.32
609.824	22607.36
610.019	22562.3
610.215	22756.86
610.411	22580.73
610.606	22420.99
610.802	22576.64
610.998	22101.51
611.193	22445.57
611.389	22294.02
611.584	22152.71
611.78	22353.41
611.976	22228.48
612.171	22496.77
612.367	22017.54
612.562	22038.02
612.758	21845.51
612.953	21704.2
613.149	21980.68
613.344	21354
613.539	21915.14
613.735	21708.3
613.93	21577.23
614.126	21790.22
614.321	21730.83
614.517	21564.94
614.712	21581.32
614.907	21181.97
615.103	21480.97
615.298	21376.53
615.493	21622.28
615.688	21210.64
615.884	21489.17
616.079	20981.27
616.274	21333.52
616.47	21075.48
616.665	21282.32
616.86	20987.41
617.055	20987.41
617.25	20911.64
617.445	20999.7
617.641	20469.28
617.836	20928.02
618.031	20397.6
618.226	20823.58
618.421	20393.5
618.616	20708.89
618.811	20506.14
619.006	20686.36
619.201	20379.17
619.396	20080.16
619.591	19891.75
619.786	20334.11
619.981	20108.83
620.176	20270.62
620.371	19533.36
620.566	19803.69
620.761	19535.4
620.956	19512.88
621.151	19197.49
621.346	19600.94
621.541	19303.98
621.735	19551.79
621.93	18894.39
622.125	19134
622.32	18865.72
622.515	18738.74
622.709	18820.66
622.904	18787.89
623.099	18521.66
623.294	18611.77
623.488	18388.54
623.683	18292.29
623.878	17774.15
624.072	18097.73
624.267	18239.04
624.462	17772.1
624.656	17700.42
624.851	17698.38
625.046	17555.02
625.24	17718.85
625.435	17464.91
625.629	17348.17
625.824	17149.52
626.018	17059.41
626.213	17043.03
626.407	17040.98
626.602	16918.1
626.796	17141.33
626.991	16553.56
627.185	16645.72
627.38	16543.32
627.574	16440.92
627.768	16356.96
627.963	16291.42
628.157	15992.42
628.352	16406.11
628.546	16066.14
628.74	16076.38
628.935	15892.07
629.129	15976.03
629.323	15898.21
629.517	15636.07
629.712	15455.85
629.906	15681.13
630.1	15455.85
630.294	15304.3
630.489	15300.2
630.683	15296.11
630.877	15298.16
631.071	14923.38
631.265	15025.78
631.459	14933.62
631.653	14712.44
631.848	14888.56
632.042	14646.9
632.236	14737.01
632.43	14448.25
632.624	14372.47
632.818	14421.63
633.012	14171.77
633.206	14200.44
633.4	14024.32
633.594	13923.97
633.788	13997.7
633.982	13825.67
634.176	14059.13
634.369	13774.47
634.563	13663.88
634.757	13563.53
634.951	13602.44
635.145	13522.57
635.339	13500.04
635.533	13201.04
635.726	13334.15
635.92	12877.46
636.114	13086.35
636.308	13155.98
636.501	13162.12
636.695	13029.01
636.889	13008.53
637.083	12850.83
637.276	12697.24
637.47	12775.06
637.664	12717.72
637.857	12574.36
638.051	12654.23
638.244	12230.3
638.438	12541.59
638.632	12400.28
638.825	12258.97
639.019	12201.63
639.212	12138.14
639.406	11994.78
639.599	11912.86
639.793	11998.88
639.986	11587.24
640.18	11597.48
640.373	11859.62
640.567	11515.56
640.76	11521.7
640.954	11312.81
641.147	11486.89
641.34	11499.17
641.534	11239.08
641.727	11318.95
641.92	11374.25
642.114	11062.96
642.307	11099.82
642.5	11028.14
642.694	10729.14
642.887	10870.45
643.08	10964.65
643.273	11048.62
643.467	10763.95
643.66	10809.01
643.853	10639.03
644.046	10475.19
644.239	10380.98
644.432	10536.63
644.626	10282.68
644.819	10243.77
645.012	10167.99
645.205	10321.59
645.398	10096.32
645.591	10043.07
645.784	10159.8
645.977	10112.7
646.17	10045.12
646.363	10034.88
646.556	10055.36
646.749	9926.33
646.942	9852.61
647.135	9801.41
647.328	9797.31
647.521	9674.43
647.714	9637.57
647.907	9463.49
648.099	9537.22
648.292	9621.19
648.485	9481.92
648.678	9275.08
648.871	9322.18
649.064	9201.35
649.256	9342.66
649.449	9238.22
649.642	9236.17
649.835	9031.37
650.027	9002.7
650.22	8793.81
650.413	8945.36
650.605	8951.5
650.798	8904.4
650.991	8748.75
651.183	8918.73
651.376	8658.64
651.568	8763.09
651.761	8421.08
651.954	8484.56
652.146	8615.63
652.339	8480.47
652.531	8367.83
652.724	8400.6
652.916	8232.66
653.109	8337.11
653.301	8220.38
653.494	8304.34
653.686	8148.7
653.879	8064.73
654.071	8019.67
654.263	8081.11
654.456	7810.78
654.648	8093.4
654.84	7808.73
655.033	7931.61
655.225	7757.53
655.417	7708.38
655.61	7827.17
655.802	7655.14
655.994	7802.59
656.186	7608.03
656.379	7728.86
656.571	7630.56
656.763	7331.56
656.955	7675.62
657.148	7560.93
657.34	7567.07
657.532	7366.37
657.724	7403.24
657.916	7388.9
658.108	6999.79
658.3	7212.78
658.492	7118.57
658.684	7210.73
658.876	6936.3
659.068	7202.54
659.26	7081.71
659.452	6921.96
659.644	6903.53
659.836	7034.6
660.028	6960.88
660.22	6926.06
660.412	6772.46
660.604	6741.74
660.796	6665.97
660.988	6702.83
661.18	6618.86
661.372	6651.63
661.563	6821.61
661.755	6477.55
661.947	6641.39
662.139	6518.51
662.331	6635.25
662.522	6452.98
662.714	6528.75
662.906	6330.1
663.097	6319.86
663.289	6205.17
663.481	6235.89
663.673	6239.99
663.864	6264.57
664.056	6258.42
664.247	6065.91
664.439	6199.03
664.631	6176.5
664.822	6217.46
665.014	6135.54
665.205	6047.48
665.397	5889.79
665.588	6084.34
665.78	5869.31
665.971	6020.86
666.163	5955.32
666.354	5883.64
666.546	5809.92
666.737	5656.32
666.929	5754.62
667.12	5869.31
667.311	5844.73
667.503	5527.3
667.694	5750.53
667.885	5660.41
668.077	5678.85
668.268	5684.99
668.459	5539.58
668.651	5510.91
668.842	5525.25
669.033	5381.89
669.224	5424.9
669.416	5398.27
669.607	5426.95
669.798	5394.18
669.989	5410.56
670.18	5418.75
670.371	5320.45
670.563	5166.85
670.754	5295.88
670.945	5291.78
671.136	5385.99
671.327	5191.43
671.518	5152.52
671.709	5113.61
671.9	5246.73
672.091	5136.13
672.282	5125.9
672.473	5068.55
672.664	5173
672.855	5084.94
673.046	5033.74
673.237	5011.21
673.428	4998.92
673.619	4890.38
673.809	4923.15
674	4955.91
674.191	4935.43
674.382	4925.19
674.573	4912.91
674.764	4917
674.954	4947.72
675.145	4876.04
675.336	4849.42
675.527	4722.45
675.717	4775.69
675.908	4708.11
676.099	4796.17
676.289	4880.14
676.48	4652.81
676.671	4771.6
676.861	4732.69
677.052	4665.1
677.243	4683.53
677.433	4853.52
677.624	4570.9
677.814	4624.14
678.005	4552.46
678.195	4632.33
678.386	4493.07
678.576	4611.85
678.767	4568.85
678.957	4529.94
679.148	4488.98
679.338	4579.09
679.529	4378.39
679.719	4427.54
679.909	4517.65
680.1	4497.17
680.29	4497.17
680.481	4437.78
680.671	4331.28
680.861	4413.2
681.052	4505.36
681.242	4386.58
681.432	4507.41
681.622	4460.31
681.813	4421.39
682.003	4355.86
682.193	4374.29
682.383	4368.15
682.573	4337.43
682.764	4222.74
682.954	4339.48
683.144	4349.71
683.334	4374.29
683.524	4165.4
683.714	4304.66
683.904	4232.98
684.094	4106.01
684.284	4200.21
684.474	4247.32
684.664	4165.4
684.854	4357.91
685.044	4206.36
685.234	4007.7
685.424	4065.05
685.614	4189.97
685.804	4181.78
685.994	4132.63
686.184	4101.91
686.374	4085.53
686.564	4187.93
686.753	4019.99
686.943	3981.08
687.133	3989.27
687.323	3952.41
687.513	4038.42
687.702	3974.94
687.892	3884.83
688.082	3907.35
688.272	3798.81
688.461	3845.91
688.651	3804.96
688.841	3913.5
689.03	3897.11
689.22	3737.37
689.41	3921.69
689.599	3835.67
689.789	3741.47
689.979	3860.25
690.168	3747.61
690.358	3780.38
690.547	3600.16
690.737	3647.26
690.926	3735.32
691.116	3540.77
691.305	3768.09
691.495	3747.61
691.684	3632.93
691.874	3516.19
692.063	3735.32
692.252	3528.48
692.442	3643.17
692.631	3397.41
692.82	3602.21
693.01	3522.34
693.199	3546.91
693.388	3442.46
693.578	3405.6
693.767	3571.49
693.956	3469.09
694.146	3358.5
694.335	3438.37
694.524	3381.03
694.713	3325.73
694.902	3493.66
695.092	3331.87
695.281	3303.2
695.47	3452.7
695.659	3348.26
695.848	3333.92
696.037	3315.49
696.226	3428.13
696.415	3413.79
696.604	3288.87
696.793	3274.53
696.982	3125.03
697.171	3276.58
697.36	3165.99
697.549	3110.69
697.738	3260.2
697.927	3211.04
698.116	3344.16
698.305	3155.75
698.494	3292.96
698.683	3284.77
698.872	3252
699.061	3247.91
699.25	3198.76
699.438	3184.42
699.627	3297.06
699.816	3127.08
700.005	3202.85
700.193	3129.13
700.382	3172.13
700.571	3104.55
700.76	3198.76
700.948	3127.08
701.137	3118.89
701.326	3198.76
701.514	3127.08
701.703	3026.73
701.892	3053.35
702.08	3190.56
702.269	3102.5
702.457	3069.73
702.646	3063.59
702.834	3075.88
703.023	2860.84
703.212	3088.17
703.4	2979.62
703.589	3024.68
703.777	2998.06
703.965	3016.49
704.154	3016.49
704.342	2963.24
704.531	2979.62
704.719	3061.54
704.907	3094.31
705.096	2879.27
705.284	2909.99
705.472	2903.85
705.661	3022.63
705.849	2983.72
706.037	2969.38
706.226	2897.71
706.414	2864.94
706.602	2864.94
706.79	2985.77
706.979	2936.62
707.167	2920.23
707.355	2897.71
707.543	2858.79
707.731	2830.12
707.919	2846.51
708.107	2903.85
708.296	2869.03
708.484	2953
708.672	2783.02
708.86	2848.55
709.048	2873.13
709.236	2930.47
709.424	2899.75
709.612	2772.78
709.8	2801.45
709.988	2774.83
710.176	2662.19
710.364	2813.74
710.551	2858.79
710.739	2783.02
710.927	2711.34
711.115	2805.55
711.303	2746.16
711.491	2764.59
711.679	2807.59
711.866	2713.39
712.054	2740.01
712.242	2830.12
712.43	2795.31
712.617	2807.59
712.805	2686.76
712.993	2676.52
713.181	2723.63
713.368	2742.06
713.556	2916.14
713.744	2580.27
713.931	2733.87
714.119	2690.86
714.306	2819.88
714.494	2637.61
714.682	2699.05
714.869	2654
715.057	2688.81
715.244	2563.89
715.432	2762.54
715.619	2666.28
715.807	2717.48
715.994	2621.23
716.182	2658.09
716.369	2555.69
716.556	2633.52
716.744	2484.02
716.931	2664.24
717.119	2602.8
717.306	2617.13
717.493	2572.08
717.681	2617.13
717.868	2488.11
718.055	2617.13
718.242	2570.03
718.43	2600.75
718.617	2625.33
718.804	2588.46
718.991	2608.94
719.179	2572.08
719.366	2604.85
719.553	2592.56
719.74	2543.41
719.927	2494.26
720.114	2559.79
720.301	2527.02
720.488	2512.69
720.676	2457.39
720.863	2508.59
721.05	2574.13
721.237	2527.02
721.424	2477.87
721.611	2580.27
721.798	2346.8
721.985	2393.9
722.172	2420.53
722.358	2486.06
722.545	2494.26
722.732	2387.76
722.919	2567.98
723.106	2426.67
723.293	2563.89
723.48	2455.34
723.667	2490.16
723.853	2477.87
724.04	2486.06
724.227	2461.49
724.414	2422.58
724.6	2428.72
724.787	2467.63
724.974	2408.24
725.161	2447.15
725.347	2365.23
725.534	2389.81
725.72	2420.53
725.907	2295.6
726.094	2447.15
726.28	2393.9
726.467	2271.03
726.653	2350.9
726.84	2479.92
727.027	2385.71
727.213	2297.65
727.4	2383.66
727.586	2314.03
727.773	2289.46
727.959	2398
728.145	2342.71
728.332	2344.75
728.518	2354.99
728.705	2285.36
728.891	2377.52
729.077	2453.3
729.264	2326.32
729.45	2369.33
729.636	2316.08
729.823	2250.55
730.009	2365.23
730.195	2330.42
730.382	2369.33
730.568	2281.27
730.754	2254.64
730.94	2305.84
731.126	2289.46
731.313	2328.37
731.499	2256.69
731.685	2248.5
731.871	2258.74
732.057	2252.59
732.243	2211.64
732.429	2248.5
732.615	2299.7
732.801	2295.6
732.987	2238.26
733.173	2217.78
733.359	2264.88
733.545	2195.25
733.731	2178.87
733.917	2256.69
734.103	2285.36
734.289	2244.4
734.475	2242.36
734.661	2211.64
734.847	2244.4
735.033	2228.02
735.219	2135.86
735.404	2166.58
735.59	2123.57
735.776	2182.96
735.962	2131.76
736.148	2199.35
736.333	2178.87
736.519	2146.1
736.705	2142
736.89	2240.31
737.076	2047.8
737.262	2092.85
737.447	2256.69
737.633	2144.05
737.819	2187.06
738.004	2133.81
738.19	2060.09
738.375	2021.17
738.561	2053.94
738.747	2105.14
738.932	2185.01
739.118	2209.59
739.303	2195.25
739.489	2076.47
739.674	2035.51
739.859	2060.09
740.045	2043.7
740.23	2080.57
740.416	1881.91
740.601	2096.95
740.786	1982.26
740.972	1920.82
741.157	2076.47
741.342	1931.06
741.528	1986.36
741.713	1988.41
741.898	1972.02
742.084	1857.34
742.269	2029.37
742.454	2027.32
742.639	2033.46
742.824	1875.77
743.01	2094.9
743.195	1892.15
743.38	1933.11
743.565	1855.29
743.75	2015.03
743.935	1949.5
744.12	2002.74
744.305	1863.48
744.49	1834.81
744.675	1859.38
744.86	1806.14
745.045	1795.9
745.23	1818.43
745.415	1888.06
745.6	1843
745.785	1783.61
745.97	1816.38
746.155	1855.29
746.34	1785.66
746.525	1726.27
746.71	1773.37
746.895	1699.64
747.079	1709.88
747.264	1756.99
747.449	1681.21
747.634	1666.88
747.819	1711.93
748.003	1701.69
748.188	1750.84
748.373	1726.27
748.557	1638.2
748.742	1679.16
748.927	1650.49
749.111	1523.52
749.296	1576.77
749.481	1660.73
749.665	1607.48
749.85	1593.15
750.034	1556.29
750.219	1611.58
750.404	1462.08
750.588	1544
750.773	1511.23
750.957	1550.14
751.141	1494.85
751.326	1455.94
751.51	1482.56
751.695	1578.81
751.879	1496.89
752.064	1519.42
752.248	1449.79
752.432	1445.7
752.617	1425.22
752.801	1412.93
752.985	1433.41
753.17	1511.23
753.354	1355.58
753.538	1324.87
753.722	1316.67
753.907	1302.34
754.091	1306.43
754.275	1380.16
754.459	1412.93
754.643	1294.15
754.828	1324.87
755.012	1179.46
755.196	1285.95
755.38	1273.67
755.564	1224.51
755.748	1171.27
755.932	1242.95
756.116	1191.75
756.3	1232.71
756.484	1279.81
756.668	1265.47
756.852	1124.16
757.036	1263.43
757.22	1249.09
757.404	1156.93
757.588	1040.2
757.772	1281.86
757.956	1251.14
758.14	1257.28
758.323	1187.65
758.507	1036.1
758.691	1087.3
758.875	1171.27
759.059	1144.64
759.242	1152.84
759.426	1093.44
759.61	1136.45
759.794	1058.63
759.977	1154.88
760.161	1124.16
760.345	1072.96
760.528	1052.49
760.712	991.05
760.895	1136.45
761.079	1109.83
761.263	1072.96
761.446	1019.72
761.63	1105.73
761.813	1128.26
761.997	1029.96
762.18	999.24
762.364	1038.15
762.547	999.24
762.731	972.61
762.914	1058.63
763.098	1040.2
763.281	978.76
763.464	941.89
763.648	970.57
763.831	1017.67
764.015	1027.91
764.198	993.09
764.381	974.66
764.564	952.13
764.748	962.37
764.931	989
765.114	886.6
765.297	964.42
765.481	896.84
765.664	880.46
765.847	927.56
766.03	970.57
766.213	851.78
766.397	929.61
766.58	874.31
766.763	984.9
766.946	917.32
767.129	884.55
767.312	819.02
767.495	880.46
767.678	782.15
767.861	894.79
768.044	898.89
768.227	802.63
768.41	937.8
768.593	864.07
768.776	831.3
768.959	866.12
769.142	896.84
769.324	911.18
769.507	855.88
769.69	898.89
769.873	724.81
770.056	864.07
770.239	778.06
770.421	855.88
770.604	855.88
770.787	866.12
770.97	745.29
771.152	855.88
771.335	741.19
771.518	880.46
771.7	778.06
771.883	747.34
772.066	855.88
772.248	823.11
772.431	866.12
772.613	780.11
772.796	843.59
772.978	679.75
773.161	759.63
773.343	794.44
773.526	663.37
773.708	761.67
773.891	739.15
774.073	794.44
774.256	710.47
774.438	782.15
774.621	653.13
774.803	741.19
774.985	696.14
775.168	743.24
775.35	661.32
775.532	675.66
775.715	569.16
775.897	716.62
776.079	671.56
776.261	677.71
776.444	628.56
776.626	677.71
776.808	575.31
776.99	708.43
777.173	663.37
777.355	636.75
777.537	589.64
777.719	661.32
777.901	618.32
778.083	700.23
778.265	579.4
778.447	661.32
778.629	577.36
778.811	571.21
778.993	649.04
779.175	599.88
779.357	583.5
779.539	595.79
779.721	657.23
779.903	610.12
780.085	577.36
780.267	601.93
780.449	601.93
780.631	587.6
780.812	552.78
780.994	448.33
781.176	585.55
781.358	560.97
781.54	489.29
781.721	468.81
781.903	509.77
782.085	563.02
782.267	552.78
782.448	442.19
782.63	468.81
782.812	583.5
782.993	505.68
783.175	499.53
783.357	423.76
783.538	507.73
783.72	468.81
783.901	517.97
784.083	423.76
784.264	448.33
784.446	458.57
784.627	399.18
784.809	558.92
784.99	411.47
785.172	530.25
785.353	454.48
785.535	438.09
785.716	425.81
785.897	474.96
786.079	411.47
786.26	405.33
786.441	405.33
786.623	419.66
786.804	429.9
786.985	456.53
787.167	393.04
787.348	333.65
787.529	382.8
787.71	442.19
787.891	388.94
788.073	390.99
788.254	464.72
788.435	472.91
788.616	333.65
788.797	405.33
788.978	411.47
789.159	434
789.34	352.08
789.522	374.61
789.703	327.5
789.884	442.19
790.065	388.94
790.246	343.89
790.427	350.03
790.607	374.61
790.788	388.94
790.969	302.93
791.15	366.42
791.331	319.31
791.512	241.49
791.693	237.39
791.874	339.79
792.054	405.33
792.235	356.18
792.416	307.02
792.597	372.56
792.778	311.12
792.958	350.03
793.139	292.69
793.32	347.98
793.5	329.55
793.681	337.74
793.862	347.98
794.042	309.07
794.223	315.22
794.404	307.02
794.584	208.72
794.765	261.97
794.945	390.99
795.126	356.18
795.306	311.12
795.487	298.83
795.667	276.31
795.848	243.54
796.028	364.37
796.209	298.83
796.389	188.24
796.57	266.07
796.75	319.31
796.93	307.02
797.111	278.35
797.291	233.3
797.471	237.39
797.652	278.35
797.832	284.5
798.012	290.64
798.192	290.64
798.373	278.35
798.553	290.64
798.733	331.6
798.913	294.74
799.093	329.55
799.274	292.69
799.454	331.6
799.634	270.16
799.814	231.25
799.994	309.07
800.174	266.07
800.354	257.87
800.534	268.11
800.714	251.73
800.894	311.12
801.074	204.63
801.254	151.38
801.434	292.69
801.614	257.87
801.794	227.15
801.974	802.63
802.154	225.11
802.334	278.35
802.514	245.59
802.693	276.31
802.873	186.19
803.053	249.68
803.233	237.39
803.413	208.72
803.592	194.39
803.772	241.49
803.952	227.15
804.131	178
804.311	323.41
804.491	284.5
804.67	214.87
804.85	274.26
805.03	151.38
805.209	235.35
805.389	206.67
805.568	233.3
805.748	225.11
805.928	235.35
806.107	245.59
806.287	233.3
806.466	218.96
806.646	241.49
806.825	192.34
807.004	178
807.184	249.68
807.363	188.24
807.543	225.11
807.722	249.68
807.901	202.58
808.081	143.19
808.26	167.76
808.439	227.15
808.619	188.24
808.798	192.34
808.977	190.29
809.156	216.91
809.336	218.96
809.515	204.63
809.694	196.43
809.873	159.57
810.052	216.91
810.231	229.2
810.411	143.19
810.59	159.57
810.769	212.82
810.948	159.57
811.127	94.04
811.306	214.87
811.485	141.14
811.664	175.95
811.843	210.77
812.022	188.24
812.201	102.23
812.38	171.86
812.559	151.38
812.737	184.15
812.916	208.72
813.095	110.42
813.274	188.24
813.453	204.63
813.632	151.38
813.811	169.81
813.989	130.9
814.168	192.34
814.347	147.28
814.526	118.61
814.704	186.19
814.883	186.19
815.062	175.95
815.24	161.62
815.419	186.19
815.598	167.76
815.776	192.34
815.955	184.15
816.133	96.08
816.312	151.38
816.49	139.09
816.669	126.8
816.847	126.8
817.026	182.1
817.204	106.32
817.383	175.95
817.561	159.57
817.74	194.39
817.918	198.48
818.097	96.08
818.275	165.71
818.453	130.9
818.632	208.72
818.81	178
818.988	44.88
819.167	106.32
819.345	106.32
819.523	145.24
819.701	194.39
819.879	192.34
820.058	110.42
820.236	171.86
820.414	118.61
820.592	186.19
820.77	233.3
820.948	147.28
821.127	126.8
821.305	157.52
821.483	118.61
821.661	94.04
821.839	128.85
822.017	132.95
822.195	71.51
822.373	114.52
822.551	126.8
822.729	106.32
822.907	137.04
823.085	137.04
823.262	85.84
823.44	186.19
823.618	98.13
823.796	155.47
823.974	130.9
824.152	202.58
824.329	128.85
824.507	137.04
824.685	126.8
824.863	178
825.04	122.71
825.218	178
825.396	89.94
825.574	208.72
825.751	42.84
825.929	159.57
826.107	137.04
826.284	151.38
826.462	120.66
826.639	110.42
826.817	71.51
826.994	175.95
827.172	73.56
827.349	126.8
827.527	79.7
827.704	46.93
827.882	94.04
828.059	114.52
828.237	128.85
828.414	102.23
828.591	28.5
828.769	126.8
828.946	102.23
829.124	145.24
829.301	153.43
829.478	36.69
829.655	63.32
829.833	122.71
830.01	73.56
830.187	73.56
830.364	73.56
830.542	204.63
830.719	48.98
830.896	110.42
831.073	65.36
831.25	169.81
831.427	110.42
831.604	114.52
831.782	77.65
831.959	151.38
832.136	122.71
832.313	110.42
832.49	98.13
832.667	151.38
832.844	89.94
833.021	151.38
833.198	169.81
833.374	139.09
833.551	89.94
833.728	132.95
833.905	32.6
834.082	61.27
834.259	112.47
834.436	135
834.612	34.64
834.789	143.19
834.966	87.89
835.143	94.04
835.319	102.23
835.496	137.04
835.673	77.65
835.85	153.43
836.026	159.57
836.203	118.61
836.38	122.71
836.556	155.47
836.733	53.08
836.909	155.47
837.086	71.51
837.262	26.45
837.439	96.08
837.616	110.42
837.792	32.6
837.968	102.23
838.145	104.28
838.321	3.93
838.498	106.32
838.674	63.32
838.851	106.32
839.027	94.04
839.203	61.27
839.38	69.46
839.556	79.7
839.732	122.71
839.909	-2.22
840.085	145.24
840.261	79.7
840.437	65.36
840.614	63.32
840.79	87.89
840.966	163.67
841.142	67.41
841.318	63.32
841.494	94.04
841.671	102.23
841.847	85.84
842.023	61.27
842.199	110.42
842.375	38.74
842.551	77.65
842.727	73.56
842.903	96.08
843.079	79.7
843.255	77.65
843.431	114.52
843.607	132.95
843.783	5.97
843.959	38.74
844.134	32.6
844.31	110.42
844.486	63.32
844.662	135
844.838	77.65
845.013	20.31
845.189	69.46
845.365	77.65
845.541	98.13
845.716	51.03
845.892	44.88
846.068	22.36
846.244	77.65
846.419	106.32
846.595	61.27
846.77	69.46
846.946	67.41
847.122	51.03
847.297	77.65
847.473	135
847.648	53.08
847.824	91.99
847.999	42.84
848.175	55.12
848.35	44.88
848.526	51.03
848.701	120.66
848.876	85.84
849.052	157.52
849.227	110.42
849.403	122.71
849.578	96.08
849.753	59.22
849.929	77.65
850.104	32.6
850.279	-12.46
850.454	96.08
850.63	63.32
850.805	73.56
850.98	16.21
851.155	73.56
851.33	96.08
851.505	40.79
851.681	61.27
851.856	77.65
852.031	26.45
852.206	75.6
852.381	-20.65
852.556	-0.17
852.731	61.27
852.906	116.56
853.081	85.84
853.256	145.24
853.431	96.08
853.606	73.56
853.781	28.5
853.956	46.93
854.131	61.27
854.305	14.17
854.48	94.04
854.655	61.27
854.83	30.55
855.005	24.4
855.18	135
855.354	42.84
855.529	143.19
855.704	77.65
855.879	26.45
856.053	-20.65
856.228	128.85
856.403	63.32
856.577	36.69
856.752	38.74
856.926	114.52
857.101	91.99
857.276	100.18
857.45	30.55
857.625	143.19
857.799	40.79
857.974	16.21
858.148	28.5
858.323	126.8
858.497	28.5
858.672	-0.17
858.846	26.45
859.02	139.09
859.195	28.5
859.369	112.47
859.543	94.04
859.718	67.41
859.892	40.79
860.066	28.5
860.241	28.5
860.415	69.46
860.589	-6.31
860.763	71.51
860.938	-8.36
861.112	46.93
861.286	85.84
861.46	75.6
861.634	87.89
861.808	73.56
861.982	73.56
862.157	-2.22
862.331	14.17
862.505	8.02
862.679	130.9
862.853	20.31
863.027	89.94
863.201	135
863.375	77.65
863.549	32.6
863.722	-2.22
863.896	67.41
864.07	22.36
864.244	98.13
864.418	-2.22
864.592	53.08
864.766	128.85
864.939	12.12
865.113	65.36
865.287	102.23
865.461	3.93
865.634	81.75
865.808	73.56
865.982	16.21
866.156	36.69
866.329	85.84
866.503	20.31
866.676	57.17
866.85	18.26
867.024	5.97
867.197	73.56
867.371	12.12
867.544	73.56
867.718	20.31
867.891	55.12
868.065	65.36
868.238	65.36
868.412	51.03
868.585	20.31
868.759	135
868.932	-2.22
869.105	46.93
869.279	36.69
869.452	14.17
869.625	81.75
869.799	61.27
869.972	-32.94
870.145	51.03
870.319	81.75
870.492	48.98
870.665	-4.27
870.838	28.5
871.011	-2.22
871.185	10.07
871.358	3.93
871.531	20.31
871.704	38.74
871.877	55.12
872.05	36.69
872.223	71.51
872.396	48.98
872.569	110.42
872.742	-20.65
872.915	96.08
873.088	26.45
873.261	53.08
873.434	20.31
873.607	87.89
873.78	34.64
873.953	14.17
874.126	-4.27
874.299	79.7
874.471	122.71
874.644	63.32
874.817	16.21
874.99	104.28
875.163	51.03
875.335	53.08
875.508	44.88
875.681	126.8
875.853	-28.84
876.026	83.8
876.199	22.36
876.371	48.98
876.544	38.74
876.717	71.51
876.889	67.41
877.062	98.13
877.234	-16.55
877.407	51.03
877.579	55.12
877.752	79.7
877.924	30.55
878.097	85.84
878.269	20.31
878.442	46.93
878.614	40.79
878.786	77.65
878.959	36.69
879.131	108.37
879.303	-14.51
879.476	20.31
879.648	-28.84
879.82	94.04
879.993	81.75
880.165	14.17
880.337	108.37
880.509	-14.51
880.681	-34.99
880.854	53.08
881.026	10.07
881.198	73.56
881.37	-8.36
881.542	10.07
881.714	61.27
881.886	57.17
882.058	94.04
882.23	5.97
882.402	36.69
882.574	20.31
882.746	79.7
882.918	77.65
883.09	55.12
883.262	-6.31
883.434	16.21
883.606	12.12
883.778	8.02
883.95	69.46
884.122	67.41
884.293	51.03
884.465	24.4
884.637	63.32
884.809	44.88
884.98	106.32
885.152	36.69
885.324	112.47
885.496	5.97
885.667	-4.27
885.839	71.51
886.011	135
886.182	-0.17
886.354	135
886.525	26.45
886.697	55.12
886.869	53.08
887.04	32.6
887.212	55.12
887.383	77.65
887.555	94.04
887.726	44.88
887.897	73.56
888.069	59.22
888.24	126.8
888.412	5.97
888.583	69.46
888.754	46.93
888.926	48.98
889.097	98.13
889.268	-6.31
889.44	12.12
889.611	14.17
889.782	85.84
889.953	61.27
890.125	44.88
890.296	14.17
890.467	22.36
890.638	3.93
890.809	8.02
890.98	28.5
891.151	44.88
891.323	51.03
891.494	53.08
891.665	12.12
891.836	63.32
892.007	94.04
892.178	71.51
892.349	53.08
892.52	40.79
892.691	8.02
892.862	16.21
893.032	59.22
893.203	24.4
893.374	61.27
893.545	36.69
893.716	3.93
893.887	3.93
894.057	-18.6
894.228	71.51
894.399	-32.94
894.57	69.46
894.74	1.88
894.911	5.97
895.082	18.26
895.253	-12.46
895.423	46.93
895.594	57.17
895.764	85.84
895.935	-51.37
896.106	32.6
896.276	-4.27
896.447	-30.89
896.617	28.5
896.788	40.79
896.958	12.12
897.129	36.69
897.299	-8.36
897.47	79.7
897.64	38.74
897.81	32.6
897.981	-26.79
898.151	34.64
898.322	20.31
898.492	22.36
898.662	69.46
898.832	20.31
899.003	-0.17
899.173	36.69
899.343	44.88
899.513	51.03
