Data from USB4F104151__187__14-20-19-090.txt Node

Date: Thu Mar 13 14:20:19 EDT 2025
User: louis
Spectrometer: USB4F10415
Trigger mode: 4
Integration Time (sec): 2.000000E-2
Scans to average: 1
Electric dark correction enabled: true
Nonlinearity correction enabled: false
Boxcar width: 0
XAxis mode: Wavelengths
Number of Pixels in Spectrum: 3648
>>>>>Begin Spectral Data<<<<<
178.204	-39.59
178.424	-39.59
178.644	-39.59
178.864	-29.35
179.084	-92.84
179.304	54.61
179.524	-0.68
179.744	-43.69
179.964	-8.87
180.184	-23.21
180.404	-2.73
180.624	-25.26
180.844	19.8
181.064	-33.45
181.283	27.99
181.503	17.75
181.723	17.75
181.943	-53.93
182.163	-0.68
182.383	-2.73
182.602	83.28
182.822	101.72
183.042	34.13
183.262	-31.4
183.482	-27.31
183.701	42.32
183.921	60.76
184.141	-47.79
184.361	75.09
184.58	38.23
184.8	21.85
185.02	11.61
185.239	40.28
185.459	68.95
185.679	81.24
185.898	75.09
186.118	-2.73
186.338	58.71
186.557	9.56
186.777	-60.07
186.997	42.32
187.216	-4.78
187.436	75.09
187.655	87.38
187.875	91.48
188.095	17.75
188.314	116.05
188.534	68.95
188.753	17.75
188.973	-49.83
189.192	93.52
189.412	-10.92
189.631	85.33
189.851	66.9
190.07	36.18
190.29	68.95
190.509	-10.92
190.729	-4.78
190.948	54.61
191.168	132.44
191.387	-8.87
191.607	46.42
191.826	62.8
192.045	-6.83
192.265	17.75
192.484	32.08
192.704	11.61
192.923	3.41
193.142	52.56
193.362	42.32
193.581	77.14
193.8	34.13
194.02	17.75
194.239	21.85
194.458	116.05
194.678	44.37
194.897	9.56
195.116	1.37
195.335	-31.4
195.555	136.53
195.774	5.46
195.993	54.61
196.212	23.89
196.432	58.71
196.651	48.47
196.87	-6.83
197.089	81.24
197.308	9.56
197.528	60.76
197.747	-78.51
197.966	17.75
198.185	52.56
198.404	13.65
198.623	46.42
198.842	42.32
199.062	95.57
199.281	89.43
199.5	48.47
199.719	17.75
199.938	17.75
200.157	17.75
200.376	40.28
200.595	52.56
200.814	-19.11
201.033	42.32
201.252	5.46
201.471	-39.59
201.69	58.71
201.909	91.48
202.128	-6.83
202.347	21.85
202.566	-23.21
202.785	83.28
203.004	50.52
203.223	99.67
203.442	-39.59
203.661	38.23
203.879	-4.78
204.098	30.04
204.317	-10.92
204.536	66.9
204.755	46.42
204.974	23.89
205.193	81.24
205.411	142.68
205.63	42.32
205.849	-27.31
206.068	-23.21
206.287	75.09
206.505	5.46
206.724	-15.02
206.943	40.28
207.162	21.85
207.381	-6.83
207.599	66.9
207.818	66.9
208.037	17.75
208.255	44.37
208.474	99.67
208.693	-10.92
208.911	-39.59
209.13	68.95
209.349	-55.98
209.567	-0.68
209.786	34.13
210.005	73.04
210.223	50.52
210.442	-43.69
210.661	-8.87
210.879	111.96
211.098	-21.16
211.316	30.04
211.535	11.61
211.753	-10.92
211.972	21.85
212.191	17.75
212.409	11.61
212.628	27.99
212.846	-0.68
213.065	148.82
213.283	83.28
213.502	46.42
213.72	-10.92
213.938	40.28
214.157	62.8
214.375	85.33
214.594	-21.16
214.812	68.95
215.031	11.61
215.249	-10.92
215.467	3.41
215.686	-45.74
215.904	109.91
216.122	56.66
216.341	99.67
216.559	13.65
216.778	99.67
216.996	11.61
217.214	34.13
217.432	75.09
217.651	17.75
217.869	75.09
218.087	83.28
218.306	23.89
218.524	-35.5
218.742	32.08
218.96	75.09
219.179	-4.78
219.397	101.72
219.615	-31.4
219.833	36.18
220.051	27.99
220.27	9.56
220.488	44.37
220.706	38.23
220.924	44.37
221.142	17.75
221.36	23.89
221.578	-31.4
221.796	46.42
222.015	62.8
222.233	83.28
222.451	46.42
222.669	-47.79
222.887	50.52
223.105	-45.74
223.323	17.75
223.541	50.52
223.759	-19.11
223.977	42.32
224.195	77.14
224.413	99.67
224.631	32.08
224.849	30.04
225.067	134.48
225.285	87.38
225.503	1.37
225.721	-70.31
225.939	71
226.157	40.28
226.375	99.67
226.592	66.9
226.81	68.95
227.028	27.99
227.246	91.48
227.464	-23.21
227.682	83.28
227.9	36.18
228.117	99.67
228.335	58.71
228.553	71
228.771	54.61
228.989	25.94
229.206	44.37
229.424	62.8
229.642	5.46
229.86	-8.87
230.077	-23.21
230.295	54.61
230.513	54.61
230.731	1.37
230.948	1.37
231.166	50.52
231.384	17.75
231.601	21.85
231.819	44.37
232.037	-39.59
232.254	3.41
232.472	36.18
232.689	30.04
232.907	25.94
233.125	17.75
233.342	13.65
233.56	-37.55
233.777	-55.98
233.995	48.47
234.213	21.85
234.43	1.37
234.648	-29.35
234.865	-23.21
235.083	-17.07
235.3	68.95
235.518	-6.83
235.735	50.52
235.953	27.99
236.17	54.61
236.388	79.19
236.605	17.75
236.822	38.23
237.04	103.76
237.257	81.24
237.475	42.32
237.692	66.9
237.909	-6.83
238.127	-49.83
238.344	19.8
238.562	52.56
238.779	34.13
238.996	34.13
239.214	58.71
239.431	85.33
239.648	-2.73
239.865	-31.4
240.083	9.56
240.3	25.94
240.517	-27.31
240.735	25.94
240.952	46.42
241.169	42.32
241.386	-23.21
241.603	-6.83
241.821	-6.83
242.038	50.52
242.255	38.23
242.472	-19.11
242.689	15.7
242.907	101.72
243.124	36.18
243.341	25.94
243.558	-39.59
243.775	-58.03
243.992	62.8
244.209	-4.78
244.426	64.85
244.643	85.33
244.86	-88.75
245.078	36.18
245.295	50.52
245.512	44.37
245.729	5.46
245.946	54.61
246.163	40.28
246.38	58.71
246.597	21.85
246.814	30.04
247.031	79.19
247.248	13.65
247.464	34.13
247.681	-2.73
247.898	23.89
248.115	21.85
248.332	17.75
248.549	75.09
248.766	77.14
248.983	42.32
249.2	-2.73
249.417	142.68
249.633	19.8
249.85	-6.83
250.067	48.47
250.284	-8.87
250.501	60.76
250.717	21.85
250.934	-31.4
251.151	50.52
251.368	52.56
251.585	103.76
251.801	-31.4
252.018	-33.45
252.235	66.9
252.451	5.46
252.668	15.7
252.885	13.65
253.102	42.32
253.318	19.8
253.535	-0.68
253.752	42.32
253.968	13.65
254.185	5.46
254.401	46.42
254.618	27.99
254.835	3.41
255.051	58.71
255.268	91.48
255.484	42.32
255.701	68.95
255.917	34.13
256.134	-64.17
256.351	-10.92
256.567	-21.16
256.784	38.23
257	-29.35
257.217	124.24
257.433	1.37
257.65	66.9
257.866	105.81
258.082	9.56
258.299	19.8
258.515	52.56
258.732	11.61
258.948	-31.4
259.165	-39.59
259.381	42.32
259.597	-68.27
259.814	103.76
260.03	111.96
260.246	-10.92
260.463	79.19
260.679	73.04
260.895	-6.83
261.112	58.71
261.328	-29.35
261.544	17.75
261.761	34.13
261.977	-39.59
262.193	21.85
262.409	66.9
262.626	101.72
262.842	-78.51
263.058	-21.16
263.274	-37.55
263.49	23.89
263.707	77.14
263.923	17.75
264.139	42.32
264.355	27.99
264.571	77.14
264.787	44.37
265.004	87.38
265.22	48.47
265.436	64.85
265.652	-19.11
265.868	17.75
266.084	1.37
266.3	-27.31
266.516	21.85
266.732	-12.97
266.948	66.9
267.164	-15.02
267.38	-4.78
267.596	21.85
267.812	38.23
268.028	42.32
268.244	25.94
268.46	-19.11
268.676	25.94
268.892	11.61
269.108	-31.4
269.324	9.56
269.54	36.18
269.756	60.76
269.972	66.9
270.188	23.89
270.403	-27.31
270.619	5.46
270.835	3.41
271.051	13.65
271.267	19.8
271.483	7.51
271.698	-62.12
271.914	68.95
272.13	42.32
272.346	-21.16
272.562	-6.83
272.777	85.33
272.993	-4.78
273.209	17.75
273.425	13.65
273.64	32.08
273.856	40.28
274.072	-8.87
274.287	27.99
274.503	124.24
274.719	38.23
274.934	17.75
275.15	-2.73
275.366	71
275.581	56.66
275.797	25.94
276.012	-4.78
276.228	42.32
276.444	1.37
276.659	58.71
276.875	105.81
277.09	-17.07
277.306	11.61
277.521	81.24
277.737	-2.73
277.952	-12.97
278.168	-47.79
278.383	23.89
278.599	-2.73
278.814	75.09
279.03	36.18
279.245	7.51
279.461	9.56
279.676	-4.78
279.892	3.41
280.107	52.56
280.322	3.41
280.538	50.52
280.753	56.66
280.969	107.86
281.184	34.13
281.399	99.67
281.615	-23.21
281.83	34.13
282.045	3.41
282.26	83.28
282.476	19.8
282.691	85.33
282.906	36.18
283.122	44.37
283.337	27.99
283.552	83.28
283.767	34.13
283.983	46.42
284.198	17.75
284.413	99.67
284.628	-60.07
284.843	34.13
285.058	50.52
285.274	-19.11
285.489	-10.92
285.704	38.23
285.919	17.75
286.134	-10.92
286.349	54.61
286.564	-6.83
286.779	66.9
286.995	36.18
287.21	-4.78
287.425	54.61
287.64	30.04
287.855	1.37
288.07	66.9
288.285	50.52
288.5	54.61
288.715	91.48
288.93	27.99
289.145	-23.21
289.36	58.71
289.575	34.13
289.79	64.85
290.004	-17.07
290.219	99.67
290.434	44.37
290.649	30.04
290.864	66.9
291.079	64.85
291.294	11.61
291.509	9.56
291.724	81.24
291.938	44.37
292.153	46.42
292.368	-33.45
292.583	27.99
292.798	9.56
293.012	93.52
293.227	56.66
293.442	-19.11
293.657	23.89
293.871	40.28
294.086	30.04
294.301	85.33
294.516	71
294.73	-4.78
294.945	-15.02
295.16	-15.02
295.374	60.76
295.589	34.13
295.804	3.41
296.018	50.52
296.233	132.44
296.447	17.75
296.662	68.95
296.877	75.09
297.091	1.37
297.306	54.61
297.52	21.85
297.735	5.46
297.949	85.33
298.164	19.8
298.378	9.56
298.593	36.18
298.807	44.37
299.022	7.51
299.236	73.04
299.451	25.94
299.665	30.04
299.88	-51.88
300.094	42.32
300.309	71
300.523	-4.78
300.737	1.37
300.952	-35.5
301.166	107.86
301.381	3.41
301.595	54.61
301.809	62.8
302.024	34.13
302.238	50.52
302.452	77.14
302.667	83.28
302.881	81.24
303.095	46.42
303.309	48.47
303.524	60.76
303.738	66.9
303.952	23.89
304.166	34.13
304.381	64.85
304.595	7.51
304.809	44.37
305.023	128.34
305.237	27.99
305.452	62.8
305.666	62.8
305.88	-2.73
306.094	79.19
306.308	87.38
306.522	46.42
306.736	9.56
306.95	-10.92
307.164	-47.79
307.379	71
307.593	13.65
307.807	50.52
308.021	75.09
308.235	25.94
308.449	-0.68
308.663	-4.78
308.877	185.68
309.091	17.75
309.305	62.8
309.519	19.8
309.733	34.13
309.947	25.94
310.161	-78.51
310.374	25.94
310.588	77.14
310.802	52.56
311.016	30.04
311.23	79.19
311.444	-2.73
311.658	38.23
311.872	52.56
312.085	62.8
312.299	68.95
312.513	25.94
312.727	46.42
312.941	50.52
313.154	42.32
313.368	77.14
313.582	9.56
313.796	21.85
314.009	75.09
314.223	36.18
314.437	44.37
314.651	11.61
314.864	68.95
315.078	17.75
315.292	1.37
315.505	9.56
315.719	58.71
315.933	-45.74
316.146	-21.16
316.36	-2.73
316.573	48.47
316.787	68.95
317.001	36.18
317.214	9.56
317.428	32.08
317.641	52.56
317.855	21.85
318.068	-62.12
318.282	50.52
318.495	99.67
318.709	50.52
318.922	19.8
319.136	73.04
319.349	85.33
319.563	50.52
319.776	83.28
319.99	3.41
320.203	-23.21
320.417	-23.21
320.63	30.04
320.843	132.44
321.057	-2.73
321.27	46.42
321.483	17.75
321.697	93.52
321.91	15.7
322.124	79.19
322.337	44.37
322.55	-45.74
322.763	34.13
322.977	19.8
323.19	-4.78
323.403	19.8
323.617	73.04
323.83	5.46
324.043	17.75
324.256	56.66
324.469	3.41
324.683	34.13
324.896	-17.07
325.109	13.65
325.322	34.13
325.535	66.9
325.748	-8.87
325.962	1.37
326.175	54.61
326.388	19.8
326.601	128.34
326.814	34.13
327.027	3.41
327.24	32.08
327.453	-51.88
327.666	-23.21
327.879	58.71
328.092	40.28
328.305	93.52
328.518	75.09
328.731	9.56
328.944	42.32
329.157	105.81
329.37	-19.11
329.583	124.24
329.796	66.9
330.009	21.85
330.222	21.85
330.435	85.33
330.648	1.37
330.861	38.23
331.073	50.52
331.286	-4.78
331.499	21.85
331.712	83.28
331.925	27.99
332.138	58.71
332.35	60.76
332.563	36.18
332.776	23.89
332.989	54.61
333.202	77.14
333.414	66.9
333.627	-10.92
333.84	75.09
334.053	71
334.265	-27.31
334.478	122.2
334.691	42.32
334.903	-51.88
335.116	19.8
335.329	44.37
335.541	66.9
335.754	75.09
335.966	27.99
336.179	38.23
336.392	19.8
336.604	64.85
336.817	13.65
337.029	116.05
337.242	17.75
337.454	1.37
337.667	19.8
337.88	58.71
338.092	124.24
338.305	15.7
338.517	21.85
338.729	81.24
338.942	27.99
339.154	-10.92
339.367	17.75
339.579	1.37
339.792	36.18
340.004	46.42
340.217	42.32
340.429	77.14
340.641	46.42
340.854	23.89
341.066	38.23
341.278	64.85
341.491	85.33
341.703	27.99
341.915	17.75
342.128	81.24
342.34	54.61
342.552	44.37
342.764	46.42
342.977	91.48
343.189	-0.68
343.401	71
343.613	58.71
343.826	17.75
344.038	-15.02
344.25	25.94
344.462	36.18
344.674	52.56
344.886	42.32
345.099	27.99
345.311	3.41
345.523	9.56
345.735	-19.11
345.947	48.47
346.159	54.61
346.371	42.32
346.583	21.85
346.795	54.61
347.007	-15.02
347.219	5.46
347.431	50.52
347.643	77.14
347.855	36.18
348.067	103.76
348.279	13.65
348.491	30.04
348.703	42.32
348.915	11.61
349.127	44.37
349.339	30.04
349.551	19.8
349.763	91.48
349.975	54.61
350.187	-35.5
350.399	54.61
350.61	58.71
350.822	9.56
351.034	13.65
351.246	64.85
351.458	52.56
351.669	75.09
351.881	34.13
352.093	152.91
352.305	66.9
352.517	75.09
352.728	118.1
352.94	75.09
353.152	85.33
353.363	9.56
353.575	50.52
353.787	30.04
353.999	66.9
354.21	42.32
354.422	60.76
354.633	54.61
354.845	73.04
355.057	44.37
355.268	89.43
355.48	62.8
355.692	32.08
355.903	27.99
356.115	54.61
356.326	17.75
356.538	36.18
356.749	71
356.961	107.86
357.172	-23.21
357.384	13.65
357.595	87.38
357.807	111.96
358.018	21.85
358.23	38.23
358.441	95.57
358.653	77.14
358.864	116.05
359.075	11.61
359.287	75.09
359.498	50.52
359.709	58.71
359.921	50.52
360.132	9.56
360.344	107.86
360.555	91.48
360.766	52.56
360.977	77.14
361.189	27.99
361.4	68.95
361.611	77.14
361.823	105.81
362.034	81.24
362.245	23.89
362.456	25.94
362.667	30.04
362.879	38.23
363.09	-15.02
363.301	87.38
363.512	-37.55
363.723	-19.11
363.935	77.14
364.146	-0.68
364.357	15.7
364.568	50.52
364.779	-10.92
364.99	107.86
365.201	52.56
365.412	91.48
365.623	75.09
365.834	120.15
366.045	30.04
366.256	64.85
366.467	44.37
366.678	93.52
366.889	66.9
367.1	50.52
367.311	15.7
367.522	109.91
367.733	124.24
367.944	107.86
368.155	83.28
368.366	136.53
368.577	103.76
368.788	99.67
368.999	36.18
369.209	-33.45
369.42	132.44
369.631	68.95
369.842	130.39
370.053	87.38
370.264	71
370.474	34.13
370.685	-12.97
370.896	50.52
371.107	46.42
371.317	79.19
371.528	-15.02
371.739	85.33
371.95	87.38
372.16	52.56
372.371	-15.02
372.582	-19.11
372.792	56.66
373.003	44.37
373.214	134.48
373.424	93.52
373.635	-33.45
373.846	116.05
374.056	-12.97
374.267	27.99
374.477	7.51
374.688	11.61
374.898	27.99
375.109	99.67
375.319	52.56
375.53	181.59
375.74	42.32
375.951	42.32
376.161	58.71
376.372	93.52
376.582	1.37
376.793	89.43
377.003	-2.73
377.214	1.37
377.424	-4.78
377.635	77.14
377.845	19.8
378.055	91.48
378.266	-17.07
378.476	66.9
378.686	34.13
378.897	87.38
379.107	66.9
379.317	66.9
379.528	71
379.738	105.81
379.948	-10.92
380.158	3.41
380.369	52.56
380.579	58.71
380.789	34.13
380.999	1.37
381.21	116.05
381.42	60.76
381.63	11.61
381.84	52.56
382.05	93.52
382.261	50.52
382.471	114
382.681	32.08
382.891	50.52
383.101	44.37
383.311	68.95
383.521	17.75
383.731	50.52
383.941	134.48
384.151	44.37
384.361	95.57
384.571	3.41
384.781	50.52
384.991	56.66
385.201	109.91
385.411	120.15
385.621	97.62
385.831	32.08
386.041	107.86
386.251	62.8
386.461	124.24
386.671	13.65
386.881	79.19
387.091	1.37
387.301	77.14
387.511	87.38
387.72	140.63
387.93	95.57
388.14	66.9
388.35	85.33
388.56	42.32
388.769	95.57
388.979	107.86
389.189	17.75
389.399	77.14
389.609	50.52
389.818	50.52
390.028	25.94
390.238	85.33
390.447	56.66
390.657	-6.83
390.867	48.47
391.076	-4.78
391.286	38.23
391.496	81.24
391.705	38.23
391.915	107.86
392.125	73.04
392.334	91.48
392.544	68.95
392.753	148.82
392.963	95.57
393.172	75.09
393.382	132.44
393.591	52.56
393.801	23.89
394.01	118.1
394.22	-15.02
394.429	50.52
394.639	89.43
394.848	85.33
395.058	79.19
395.267	124.24
395.477	93.52
395.686	157.01
395.895	150.87
396.105	167.25
396.314	83.28
396.524	68.95
396.733	50.52
396.942	136.53
397.152	128.34
397.361	83.28
397.57	64.85
397.78	44.37
397.989	154.96
398.198	177.49
398.407	99.67
398.617	73.04
398.826	44.37
399.035	83.28
399.244	134.48
399.453	136.53
399.663	128.34
399.872	62.8
400.081	81.24
400.29	214.35
400.499	52.56
400.708	132.44
400.917	91.48
401.127	159.06
401.336	66.9
401.545	191.83
401.754	71
401.963	97.62
402.172	234.83
402.381	124.24
402.59	181.59
402.799	116.05
403.008	142.68
403.217	150.87
403.426	124.24
403.635	109.91
403.844	144.72
404.053	99.67
404.262	124.24
404.471	226.64
404.68	116.05
404.888	193.87
405.097	157.01
405.306	120.15
405.515	154.96
405.724	230.74
405.933	183.63
406.142	169.3
406.35	208.21
406.559	193.87
406.768	181.59
406.977	298.32
407.185	249.17
407.394	220.5
407.603	243.03
407.812	257.36
408.02	218.45
408.229	200.02
408.438	267.6
408.646	191.83
408.855	243.03
409.064	255.31
409.272	140.63
409.481	380.24
409.69	261.46
409.898	312.66
410.107	251.22
410.315	380.24
410.524	306.51
410.733	312.66
410.941	374.1
411.15	404.82
411.358	492.88
411.567	427.34
411.775	443.73
411.984	511.31
412.192	427.34
412.401	451.92
412.609	447.82
412.818	503.12
413.026	582.99
413.234	572.75
413.443	533.84
413.651	509.26
413.86	566.6
414.068	648.52
414.276	666.96
414.485	626
414.693	689.48
414.901	699.72
415.11	808.27
415.318	705.87
415.526	800.07
415.734	836.94
415.943	902.47
416.151	830.79
416.359	865.61
416.567	886.09
416.776	1004.87
416.984	1017.16
417.192	1017.16
417.4	976.2
417.608	1041.73
417.817	1029.45
418.025	1115.46
418.233	1205.57
418.441	1168.71
418.649	1271.11
418.857	1289.54
419.065	1420.61
419.273	1379.65
419.481	1371.46
419.689	1516.86
419.897	1553.73
420.105	1633.6
420.313	1649.98
420.521	1656.12
420.729	1746.23
420.937	1713.47
421.145	1877.3
421.353	1938.74
421.561	2098.49
421.769	2020.66
421.977	2196.79
422.185	2147.64
422.393	2315.57
422.601	2420.02
422.809	2338.1
423.017	2381.1
423.224	2567.47
423.432	2569.52
423.64	2665.77
423.848	2880.81
424.056	2741.55
424.263	2952.49
424.471	2852.14
424.679	3122.47
424.887	3282.21
425.094	3321.12
425.302	3298.59
425.51	3319.07
425.718	3589.41
425.925	3607.84
426.133	3833.11
426.341	3775.77
426.548	4181.27
426.756	4095.25
426.964	4177.17
427.171	4375.83
427.379	4531.47
427.586	4705.55
427.794	4621.58
428.001	4961.55
428.209	5156.1
428.417	5053.7
428.624	5418.24
428.832	5438.72
429.039	5346.56
429.247	5444.87
429.454	5950.71
429.662	6321.4
429.869	5895.42
430.076	6372.6
430.284	6272.25
430.491	6362.36
430.699	6851.82
430.906	6763.76
431.114	6915.31
431.321	7185.64
431.528	7224.55
431.736	7632.1
431.943	8045.79
432.15	8008.92
432.358	7877.85
432.565	8209.62
432.772	8285.4
432.979	8711.38
433.187	8815.82
433.394	8918.22
433.601	9446.6
433.808	9659.59
434.016	9467.08
434.223	9678.02
434.43	10431.67
434.637	10208.44
434.844	10794.16
435.052	10917.04
435.259	10992.81
435.466	11068.59
435.673	10972.33
435.88	11725.99
436.087	12530.84
436.294	12336.28
436.501	11943.07
436.708	12147.87
436.915	12749.97
437.122	13257.87
437.329	13241.48
437.537	13673.6
437.743	13870.21
437.95	13714.56
438.157	14830.71
438.364	14898.29
438.571	14713.97
438.778	14961.78
438.985	16235.61
439.192	15731.81
439.399	16292.96
439.606	15889.51
439.813	16813.14
440.02	17763.4
440.227	17441.87
440.433	17228.88
440.64	17777.73
440.847	17867.84
441.054	18482.24
441.261	19323.95
441.467	19186.74
441.674	19635.24
441.881	20436
442.088	20202.53
442.294	20089.89
442.501	20552.73
442.708	21167.12
442.914	21500.94
443.121	22852.6
443.328	22152.2
443.534	23759.85
443.741	22621.18
443.948	22557.69
444.154	24310.75
444.361	24032.23
444.568	24159.2
444.774	24165.35
444.981	24556.51
445.187	25500.62
445.394	26231.75
445.6	26149.83
445.807	28570.53
446.013	27147.19
446.22	27673.52
446.426	28396.45
446.633	29143.96
446.839	30061.45
447.046	28658.59
447.252	30505.86
447.459	30315.4
447.665	30358.41
447.871	31312.76
448.078	32535.4
448.284	31406.97
448.491	31787.89
448.697	33370.97
448.903	34114.38
449.11	34243.4
449.316	33661.78
449.522	33825.62
449.728	35212.09
449.935	35300.15
450.141	35101.5
450.347	36160.3
450.553	34708.29
450.76	35615.54
450.966	36723.49
451.172	36309.8
451.378	37266.2
451.584	36152.11
451.791	37135.13
451.997	37407.51
452.203	37649.17
452.409	37778.2
452.615	37804.82
452.821	36188.97
453.027	35593.01
453.233	37731.09
453.44	35945.26
453.646	37016.35
453.852	36840.23
454.058	37370.65
454.264	36334.38
454.47	37378.84
454.676	36051.76
454.882	37384.99
455.088	33966.93
455.294	34888.51
455.5	35367.74
455.705	35564.34
455.911	34016.08
456.117	33538.9
456.323	33063.77
456.529	31439.73
456.735	32981.85
456.941	31869.81
457.147	31277.94
457.352	30673.79
457.558	30077.83
457.764	30077.83
457.97	29490.07
458.176	29262.74
458.381	28758.94
458.587	27696.05
458.793	27669.42
458.999	26407.87
459.204	27859.88
459.41	27237.3
459.616	25445.33
459.821	25619.41
460.027	25344.98
460.233	25119.7
460.438	23645.16
460.644	24320.99
460.85	22840.31
461.055	22465.53
461.261	22701.05
461.466	20579.36
461.672	20382.75
461.878	21593.1
462.083	20059.17
462.289	19969.06
462.494	19727.4
462.7	18582.59
462.905	18428.99
463.111	18885.69
463.316	19029.04
463.522	18664.5
463.727	18555.96
463.932	18682.94
464.138	18287.68
464.343	18295.87
464.549	18150.46
464.754	18428.99
464.959	18492.48
465.165	18138.18
465.37	17560.65
465.575	17359.95
465.781	17607.75
465.986	17798.21
466.191	17003.6
466.397	16884.82
466.602	15967.33
466.807	16807
467.012	16510.04
467.218	16229.47
467.423	16051.3
467.628	16432.22
467.833	16856.15
468.038	16448.6
468.244	15895.65
468.449	16581.72
468.654	15909.99
468.859	16026.72
469.064	16108.64
469.269	15082.61
469.474	15230.06
469.679	15715.43
469.885	15119.47
470.09	15330.41
470.295	15330.41
470.5	14906.48
470.705	15062.13
470.91	14433.4
471.115	14582.9
471.32	14830.71
471.525	14443.64
471.73	14210.17
471.935	14163.07
472.139	13624.45
472.344	13874.31
472.549	13829.25
472.754	13485.19
472.959	13231.24
473.164	13108.37
473.369	12950.67
473.574	13329.55
473.778	13282.44
473.983	13235.34
474.188	13206.67
474.393	12493.97
474.598	12727.44
474.802	12367
475.007	12428.44
475.212	12502.17
475.417	11867.3
475.621	12252.31
475.826	12168.35
476.031	11908.26
476.235	11754.66
476.44	11879.58
476.645	11682.98
476.849	11707.55
477.054	11289.77
477.259	11269.29
477.463	11209.9
477.668	11185.32
477.872	11015.34
478.077	10796.21
478.282	10648.75
478.486	10597.56
478.691	10405.05
478.895	10437.81
479.1	10310.84
479.304	10546.36
479.509	10036.41
479.713	10446.01
479.918	10077.37
480.122	9866.43
480.326	9981.12
480.531	10304.7
480.735	9759.94
480.94	9854.14
481.144	10276.02
481.348	9426.12
481.553	9671.87
481.757	9682.11
481.961	9602.24
482.166	9739.46
482.37	9643.2
482.574	9675.97
482.778	9714.88
482.983	9669.83
483.187	9626.82
483.391	9577.67
483.595	9413.83
483.8	9374.92
484.004	9649.35
484.208	9665.73
484.412	9585.86
484.616	9645.25
484.821	9675.97
485.025	9442.5
485.229	9757.89
485.433	9594.05
485.637	9696.45
485.841	9483.46
486.045	9274.57
486.249	9596.1
486.453	9553.09
486.657	9524.42
486.861	9536.71
487.065	9512.13
487.269	9469.12
487.473	9321.67
487.677	9573.57
487.881	9784.51
488.085	9747.65
488.289	9540.8
488.493	9864.38
488.697	9819.33
488.901	9630.91
489.105	9653.44
489.309	9616.58
489.512	9768.13
489.716	9790.66
489.92	9843.9
490.124	9516.23
490.328	9913.53
490.531	9682.11
490.735	9868.48
490.939	9821.38
491.143	9751.74
491.346	9790.66
491.55	10011.84
491.754	9944.25
491.958	10142.91
492.161	9985.21
492.365	9915.58
492.569	10071.23
492.772	10233.02
492.976	10249.4
493.18	10054.84
493.383	10314.94
493.587	10523.83
493.79	10480.82
493.994	10171.58
494.197	10351.8
494.401	10667.19
494.605	10642.61
494.808	10788.02
495.012	10919.09
495.215	10738.87
495.419	11234.47
495.622	10837.17
495.825	11209.9
496.029	10986.67
496.232	11455.65
496.436	11168.94
496.639	11566.24
496.843	11533.48
497.046	11863.2
497.249	11728.03
497.453	11824.29
497.656	11994.27
497.859	11996.32
498.063	12291.23
498.266	12518.55
498.469	12313.75
498.673	12571.8
498.876	12620.95
499.079	12686.48
499.282	12868.75
499.485	13210.76
499.689	13141.13
499.892	13350.03
500.095	13368.46
500.298	13745.28
500.501	13675.65
500.705	13937.79
500.908	13917.31
501.111	14208.12
501.314	14451.83
501.517	14636.15
501.72	14652.53
501.923	14617.72
502.126	14929.01
502.329	15379.56
502.532	15547.5
502.735	15385.71
502.938	15719.53
503.141	15783.01
503.344	15813.73
503.547	16086.11
503.75	16376.92
503.953	16661.59
504.156	16516.19
504.359	16544.86
504.562	16718.93
504.765	17224.78
504.968	17296.46
505.17	17278.03
505.373	17507.4
505.576	17663.05
505.779	17888.32
505.982	17964.1
506.185	18455.61
506.387	18543.67
506.59	18971.7
506.793	18887.73
506.996	18891.83
507.198	19725.35
507.401	19530.8
507.604	19645.48
507.807	20020.26
508.009	20044.84
508.212	20261.92
508.415	20464.67
508.617	20569.12
508.82	21124.11
509.022	20843.54
509.225	21431.31
509.428	21609.48
509.63	21781.51
509.833	21613.58
510.035	21963.78
510.238	22420.48
510.44	22481.92
510.643	22672.38
510.845	22944.76
511.048	22918.14
511.25	23127.03
511.453	23276.53
511.655	24181.73
511.858	23813.1
512.06	24273.89
512.262	24480.74
512.465	23948.26
512.667	24728.54
512.87	24757.21
513.072	24968.15
513.274	25609.17
513.477	25899.98
513.679	25756.62
513.881	26282.95
514.084	26368.96
514.286	26545.09
514.488	26510.27
514.69	27110.33
514.893	27331.51
515.095	27448.24
515.297	27995.05
515.499	27986.86
515.701	27966.38
515.904	28386.21
516.106	28576.67
516.308	28990.36
516.51	29215.64
516.712	29670.29
516.914	29782.93
517.116	30151.56
517.318	30002.06
517.52	30247.82
517.722	30835.58
517.925	30970.75
518.127	31107.96
518.329	31366.01
518.531	31527.8
518.733	31931.25
518.935	31910.77
519.136	32297.83
519.338	32576.36
519.54	32756.58
519.742	32818.02
519.944	32924.51
520.146	33678.16
520.348	33592.15
520.55	33729.36
520.752	34130.76
520.954	34736.96
521.155	34435.91
521.357	34728.77
521.559	35423.03
521.761	35476.28
521.963	35396.41
522.164	35425.08
522.366	35816.24
522.568	36191.02
522.77	36078.38
522.971	36838.18
523.173	36512.55
523.375	36897.57
523.576	36866.85
523.778	37219.1
523.98	37407.51
524.181	37700.37
524.383	37612.31
524.584	38118.16
524.786	38517.51
524.988	38128.4
525.189	38818.57
525.391	38742.79
525.592	38802.18
525.794	39027.46
525.995	38943.49
526.197	39162.62
526.398	39267.07
526.6	39426.81
526.801	40014.58
527.003	39889.65
527.204	39983.86
527.406	40157.94
527.607	39977.72
527.808	40151.79
528.01	39723.77
528.211	40317.68
528.412	40981.22
528.614	40794.85
528.815	40596.2
529.016	41122.53
529.218	40612.59
529.419	40809.19
529.62	40747.75
529.822	40747.75
530.023	41079.52
530.224	40991.46
530.425	41204.45
530.626	40911.59
530.828	40903.4
531.029	41855.7
531.23	41087.71
531.431	41448.16
531.632	41220.83
531.833	41743.06
532.035	41669.34
532.236	41638.62
532.437	42189.52
532.638	41321.18
532.839	41988.82
533.04	41614.04
533.241	41679.58
533.442	42060.5
533.643	42283.73
533.844	41898.71
534.045	41911
534.246	41497.31
534.447	41927.38
534.648	41628.38
534.849	42050.26
535.05	41267.94
535.251	42220.24
535.451	42060.5
535.652	42005.2
535.853	41702.11
536.054	42179.28
536.255	41923.29
536.456	41620.19
536.657	41997.01
536.857	41626.33
537.058	41890.52
537.259	42042.07
537.46	41956.05
537.66	41636.57
537.861	41908.95
538.062	41966.29
538.263	42091.22
538.463	41986.77
538.664	41489.12
538.865	41941.72
539.065	41917.14
539.266	41741.02
539.466	41935.57
539.667	41388.77
539.868	41927.38
540.068	41671.39
540.269	41888.47
540.469	41904.85
540.67	41319.13
540.87	41677.53
541.071	41911
541.271	41808.6
541.472	41552.6
541.672	41673.43
541.873	41247.46
542.073	41319.13
542.274	41970.39
542.474	41583.32
542.675	41431.77
542.875	42056.4
543.075	41292.51
543.276	41206.5
543.476	41497.31
543.676	41173.73
543.877	41544.41
544.077	41229.02
544.277	41159.39
544.478	41243.36
544.678	41831.13
544.878	41171.68
545.078	41413.34
545.279	41239.26
545.479	41085.67
545.679	41607.9
545.879	41356
546.079	41657.05
546.28	41071.33
546.48	41163.49
546.68	41331.42
546.88	41274.08
547.08	41405.15
547.28	41292.51
547.48	40934.12
547.68	41200.35
547.88	41052.9
548.081	41550.56
548.281	41077.47
548.481	40970.98
548.681	41276.13
548.881	41272.03
549.081	40964.84
549.28	40917.73
549.48	41466.59
549.68	41308.89
549.88	41433.82
550.08	41165.54
550.28	41208.54
550.48	40684.26
550.68	41614.04
550.88	40772.33
551.08	41216.74
551.279	41102.05
551.479	40614.63
551.679	40995.56
551.879	40755.94
552.079	40938.21
552.278	41011.94
552.478	40671.98
552.678	40966.88
552.878	41204.45
553.077	40878.82
553.277	40975.08
553.477	41052.9
553.676	40647.4
553.876	40538.86
554.076	40798.95
554.275	40108.79
554.475	40268.53
554.674	40907.49
554.874	40719.08
555.074	40514.28
555.273	40639.21
555.473	40671.98
555.672	40198.9
555.872	40538.86
556.071	40555.24
556.271	41065.19
556.47	40202.99
556.67	40229.62
556.869	40186.61
557.068	40714.98
557.268	39992.05
557.467	40276.72
557.667	40057.59
557.866	40354.54
558.065	39949.04
558.265	39973.62
558.464	39746.29
558.663	40293.1
558.863	39490.3
559.062	40461.04
559.261	39654.14
559.461	40301.29
559.66	39891.7
559.859	39961.33
560.058	39531.26
560.258	39721.72
560.457	39805.69
560.656	39842.55
560.855	39451.39
561.054	39889.65
561.253	39416.57
561.453	39879.41
561.652	39889.65
561.851	39643.9
562.05	39316.22
562.249	39166.72
562.448	39557.88
562.647	39549.69
562.846	39201.54
563.045	39340.8
563.244	38984.45
563.443	39330.56
563.642	38638.34
563.841	39023.36
564.04	38615.82
564.239	39465.72
564.438	38595.34
564.637	38961.92
564.836	38368.01
565.035	38812.42
565.234	38701.83
565.432	38173.45
565.631	38398.73
565.83	38425.36
566.029	38398.73
566.228	38263.57
566.427	38298.38
566.625	38148.88
566.824	37808.92
567.023	38515.47
567.222	37589.78
567.42	37868.31
567.619	37884.69
567.818	37643.03
568.016	37800.72
568.215	37874.45
568.414	37583.64
568.612	37692.18
568.811	37520.15
569.01	37298.97
569.208	37026.59
569.407	37382.94
569.605	37034.78
569.804	37360.41
570.002	37020.45
570.201	37233.44
570.4	36696.87
570.598	36651.81
570.797	36375.34
570.995	36846.37
571.193	36438.83
571.392	36877.09
571.59	36234.03
571.789	36354.86
571.987	36528.94
572.186	36576.04
572.384	35947.31
572.582	36324.14
572.781	36076.33
572.979	35660.6
573.177	36127.53
573.376	36133.68
573.574	35666.74
573.772	35435.32
573.971	35283.77
574.169	35554.1
574.367	35590.97
574.565	35560.25
574.763	35283.77
574.962	35357.5
575.16	34898.75
575.358	34915.14
575.556	34835.27
575.754	35287.87
575.952	34429.77
576.151	35103.55
576.349	34138.96
576.547	34712.39
576.745	34618.18
576.943	34685.76
577.141	34437.96
577.339	34310.99
577.537	33913.68
577.735	34409.29
577.933	33676.12
578.131	34208.59
578.329	33815.38
578.527	33913.68
578.725	33657.68
578.923	33608.53
579.121	33354.58
579.319	33442.65
579.516	33710.93
579.714	33594.2
579.912	33237.85
580.11	33205.08
580.308	33229.66
580.506	33299.29
580.704	32947.04
580.901	33051.49
581.099	33049.44
581.297	32617.32
581.495	33043.29
581.692	32789.35
581.89	32385.9
582.088	32873.31
582.285	32494.44
582.483	32779.11
582.681	32211.82
582.878	32181.1
583.076	32033.64
583.274	32332.65
583.471	31327.1
583.669	31978.35
583.866	31648.63
584.064	31861.62
584.262	31501.17
584.459	31701.87
584.657	31329.14
584.854	31515.51
585.052	30839.68
585.249	31466.36
585.447	31357.81
585.644	30993.28
585.841	31286.14
586.039	31153.02
586.236	30755.71
586.434	30901.12
586.631	30747.52
586.828	30557.06
587.026	30606.21
587.223	30997.37
587.42	30485.38
587.618	30458.76
587.815	30165.9
588.012	30376.84
588.21	29938.57
588.407	30716.8
588.604	29969.29
588.801	29895.57
588.999	30006.16
589.196	29727.63
589.393	29801.36
589.59	29934.48
589.787	29498.26
589.984	29383.57
590.182	29129.62
590.379	29311.89
590.576	29213.59
590.773	29301.65
590.97	28664.74
591.167	29301.65
591.364	28433.32
591.561	28783.52
591.758	28646.3
591.955	28457.89
592.152	28599.2
592.349	28445.6
592.546	28095.4
592.743	28451.75
592.94	27993
593.137	28367.78
593.334	28158.89
593.531	27683.76
593.727	28226.47
593.924	28158.89
594.121	27681.71
594.318	28070.82
594.515	27302.84
594.712	28025.77
594.908	27509.68
595.105	27182.01
595.302	27182.01
595.499	27517.87
595.696	27313.08
595.892	27253.69
596.089	27378.61
596.286	27050.94
596.482	26911.67
596.679	26760.12
596.876	26864.57
597.072	26571.71
597.269	26471.36
597.466	26184.65
597.662	26475.46
597.859	26426.31
598.055	26584
598.252	26098.63
598.448	26072.01
598.645	26006.47
598.841	25680.85
599.038	25992.14
599.234	26207.17
599.431	26090.44
599.627	25504.72
599.824	25914.31
600.02	25162.71
600.217	25883.59
600.413	25738.19
600.609	25418.71
600.806	25420.75
601.002	25275.35
601.198	25252.82
601.395	25387.99
601.591	24925.14
601.787	24976.34
601.984	24964.06
602.18	25326.55
602.376	25025.5
602.572	24523.74
602.769	24368.1
602.965	24378.34
603.161	24327.14
603.357	24472.54
603.553	24175.59
603.75	24464.35
603.946	23858.15
604.142	24349.67
604.338	23956.46
604.534	24167.4
604.73	23548.91
604.926	23849.96
605.122	23684.08
605.318	23794.67
605.514	23569.39
605.71	23565.29
605.906	23331.83
606.102	23561.2
606.298	23462.9
606.494	23534.57
606.69	23383.02
606.886	23387.12
607.082	23106.55
607.278	23282.67
607.474	22774.78
607.67	23108.6
607.866	22959.09
608.062	23034.87
608.257	22758.39
608.453	22938.62
608.649	22692.86
608.845	22590.46
609.041	22670.33
609.236	22688.76
609.432	22524.93
609.628	22455.29
609.824	22469.63
610.019	22279.17
610.215	22305.79
610.411	22656
610.606	22223.87
610.802	22363.14
610.998	22123.52
611.193	22326.27
611.389	22113.28
611.584	21969.93
611.78	21849.1
611.976	22193.15
612.171	22090.76
612.367	22189.06
612.562	21920.77
612.758	21400.59
612.953	21842.95
613.149	21845
613.344	21566.48
613.539	21928.97
613.735	21715.98
613.93	21703.69
614.126	21683.21
614.321	21720.07
614.517	21560.33
614.712	21584.91
614.907	21363.73
615.103	21515.28
615.298	21236.75
615.493	21425.17
615.688	20898.84
615.884	21668.87
616.079	21070.87
616.274	21300.24
616.47	21113.88
616.665	20997.14
616.86	20874.26
617.055	21165.07
617.25	21040.15
617.445	21070.87
617.641	20632.6
617.836	20890.65
618.031	20538.4
618.226	20743.19
618.421	20737.05
618.616	20661.27
618.811	20249.63
619.006	20526.11
619.201	20157.47
619.396	20546.59
619.591	20188.19
619.786	20333.6
619.981	19827.75
620.176	20155.43
620.371	19407.92
620.566	19989.54
620.761	19694.63
620.956	19534.89
621.151	19567.66
621.346	19831.85
621.541	19352.62
621.735	19387.44
621.93	19047.47
622.125	19133.49
622.32	18877.49
622.515	19053.62
622.709	18529.34
622.904	18838.58
623.099	18629.69
623.294	18535.48
623.488	18420.8
623.683	18363.45
623.878	18254.91
624.072	18230.34
624.267	18338.88
624.462	17992.77
624.656	17794.12
624.851	17939.52
625.046	17689.67
625.24	17798.21
625.435	17554.51
625.629	17617.99
625.824	17409.1
626.018	17517.64
626.213	16835.67
626.407	17165.39
626.602	16974.93
626.796	17091.66
626.991	17085.52
627.185	16573.53
627.38	16673.88
627.574	16716.89
627.768	16372.83
627.963	16532.57
628.157	16186.46
628.352	16039.01
628.546	15869.03
628.74	16145.5
628.935	15791.2
629.129	16030.82
629.323	15846.5
629.517	15778.92
629.712	15584.36
629.906	15866.98
630.1	15430.76
630.294	15395.95
630.489	15123.57
630.683	15436.91
630.877	15033.46
631.071	15117.42
631.265	15121.52
631.459	14886
631.653	14697.59
631.848	14756.98
632.042	14691.45
632.236	14681.21
632.43	14136.45
632.624	14558.33
632.818	14404.73
633.012	14224.51
633.206	14374.01
633.4	14503.03
633.594	13997.18
633.788	14058.62
633.982	13980.8
634.176	13763.72
634.369	13976.7
634.563	13751.43
634.757	13886.59
634.951	13708.42
635.145	13792.39
635.339	13714.56
635.533	13552.77
635.726	13546.63
635.92	13335.69
636.114	13382.79
636.308	13137.04
636.501	13038.73
636.695	13200.52
636.889	13081.74
637.083	12760.21
637.276	12778.64
637.47	12891.28
637.664	12752.02
637.857	12852.37
638.051	12510.36
638.244	12545.17
638.438	12475.54
638.632	12493.97
638.825	12467.35
639.019	12254.36
639.212	12072.09
639.406	12291.23
639.599	12160.16
639.793	12180.64
639.986	11900.06
640.18	11891.87
640.373	11949.22
640.567	11582.63
640.76	11562.15
640.954	11537.57
641.147	11564.2
641.34	11558.05
641.534	11613.35
641.727	11525.29
641.92	11345.06
642.114	11398.31
642.307	11277.48
642.5	11224.23
642.694	11084.97
642.887	11005.1
643.08	11273.39
643.273	10998.96
643.467	10970.29
643.66	10843.31
643.853	10857.65
644.046	10503.35
644.239	10749.11
644.432	10650.8
644.626	10398.9
644.819	10515.64
645.012	10337.46
645.205	10355.9
645.398	10190.01
645.591	10085.56
645.784	10269.88
645.977	10251.45
646.17	10192.06
646.363	10056.89
646.556	10052.8
646.749	9995.45
646.942	9880.77
647.135	9964.73
647.328	9981.12
647.521	9802.94
647.714	9643.2
647.907	9655.49
648.099	9403.59
648.292	9725.12
648.485	9624.77
648.678	9450.69
648.871	9493.7
649.064	9313.48
649.256	9440.45
649.449	9266.38
649.642	9356.49
649.835	8938.7
650.027	9225.42
650.22	9168.07
650.413	9055.44
650.605	9012.43
650.798	8965.32
650.991	8981.71
651.183	8785.1
651.376	8840.4
651.568	8676.56
651.761	8561.87
651.954	8748.24
652.146	8793.3
652.339	8725.71
652.531	8621.27
652.724	8416.47
652.916	8248.54
653.109	8277.21
653.301	8516.82
653.494	8193.24
653.686	8252.63
653.879	8352.98
654.071	8111.32
654.263	8176.86
654.456	8039.64
654.648	8113.37
654.84	7904.48
655.033	7845.09
655.225	8129.75
655.417	7859.42
655.61	7746.78
655.802	7802.08
655.994	7730.4
656.186	7754.97
656.379	7789.79
656.571	7793.89
656.763	7554.27
656.955	7578.85
657.148	7519.46
657.34	7521.51
657.532	7574.75
657.724	7431.4
657.916	7390.44
658.108	7195.88
658.3	7242.98
658.492	7251.17
658.684	7212.26
658.876	7247.08
659.068	7263.46
659.26	7165.16
659.452	7187.69
659.644	7138.54
659.836	7062.76
660.028	7068.91
660.22	6917.36
660.412	6839.53
660.604	6870.25
660.796	6860.01
660.988	6765.81
661.18	6845.68
661.372	6657.26
661.563	6708.46
661.755	6587.63
661.947	6507.76
662.139	6483.19
662.331	6509.81
662.522	6509.81
662.714	6327.54
662.906	6366.45
663.097	6509.81
663.289	6474.99
663.481	6417.65
663.673	6333.68
663.864	6198.52
664.056	6057.21
664.247	6169.85
664.439	6264.05
664.631	6114.55
664.822	6153.46
665.014	6270.2
665.205	6112.5
665.397	5983.48
665.588	6016.25
665.78	6186.23
665.971	6016.25
666.163	6018.3
666.354	5985.53
666.546	5919.99
666.737	5893.37
666.929	5727.49
667.12	5842.17
667.311	5879.04
667.503	5831.93
667.694	5774.59
667.885	5735.68
668.077	5883.13
668.268	5657.85
668.459	5612.8
668.651	5754.11
668.842	5623.04
669.033	5543.17
669.224	5504.26
669.416	5627.14
669.607	5324.04
669.798	5465.35
669.989	5557.5
670.18	5360.9
670.371	5469.44
670.563	5434.63
670.754	5438.72
670.945	5287.17
671.136	5256.45
671.327	5385.48
671.518	5276.93
671.709	5412.1
671.9	5195.01
672.091	5156.1
672.282	5162.25
672.473	4996.36
672.664	5221.64
672.855	5115.14
673.046	5080.33
673.237	5135.62
673.428	5178.63
673.619	5039.37
673.809	5203.21
674	4953.35
674.191	4920.59
674.382	4908.3
674.573	4918.54
674.764	4867.34
674.954	4918.54
675.145	4902.15
675.336	4756.75
675.527	4844.81
675.717	4816.14
675.908	4820.24
676.099	4621.58
676.289	4824.33
676.48	4728.08
676.671	4607.25
676.861	4746.51
677.052	4484.37
677.243	4525.33
677.433	4711.69
677.624	4531.47
677.814	4683.02
678.005	4521.23
678.195	4777.23
678.386	4531.47
678.576	4640.01
678.767	4623.63
678.957	4654.35
679.148	4750.6
679.338	4539.66
679.529	4556.05
679.719	4531.47
679.909	4465.94
680.1	4427.03
680.29	4461.84
680.481	4367.63
680.671	4400.4
680.861	4476.18
681.052	4427.03
681.242	4347.15
681.432	4449.55
681.622	4408.59
681.813	4422.93
682.003	4312.34
682.193	4259.09
682.383	4367.63
682.573	4347.15
682.764	4330.77
682.954	4392.21
683.144	4359.44
683.334	4351.25
683.524	4334.87
683.714	4279.57
683.904	4367.63
684.094	4195.61
684.284	4300.05
684.474	4289.81
684.664	4142.36
684.854	4285.72
685.044	4162.84
685.234	4179.22
685.424	4128.02
685.614	4109.59
685.804	3900.7
685.994	3937.56
686.184	4029.72
686.374	4101.4
686.564	3990.81
686.753	4066.58
686.943	3941.66
687.133	3990.81
687.323	4037.91
687.513	3966.23
687.702	3996.95
687.892	3937.56
688.082	3755.29
688.272	3892.51
688.461	3886.36
688.651	3923.23
688.841	3896.6
689.03	3788.06
689.22	3872.03
689.41	3753.24
689.599	3814.68
689.789	3833.11
689.979	3712.28
690.168	3814.68
690.358	3693.85
690.547	3630.37
690.737	3642.65
690.926	3761.44
691.116	3581.21
691.305	3693.85
691.495	3515.68
691.684	3474.72
691.874	3484.96
692.063	3534.11
692.252	3636.51
692.442	3425.57
692.631	3581.21
692.82	3458.34
693.01	3407.14
693.199	3314.98
693.388	3366.18
693.578	3345.7
693.767	3429.66
693.956	3454.24
694.146	3409.19
694.335	3427.62
694.524	3470.62
694.713	3294.5
694.902	3335.46
695.092	3403.04
695.281	3210.53
695.47	3302.69
695.659	3314.98
695.848	3134.76
696.037	3161.38
696.226	3265.83
696.415	3194.15
696.604	3378.47
696.793	3245.35
696.982	2975.02
697.171	3204.39
697.36	3073.32
697.549	3165.48
697.738	3265.83
697.927	3153.19
698.116	3149.09
698.305	3181.86
698.494	3130.66
698.683	3161.38
698.872	2999.59
699.061	3212.58
699.25	3124.52
699.438	3032.36
699.627	3077.41
699.816	3024.17
700.005	3069.22
700.193	3042.6
700.382	3058.98
700.571	2983.21
700.76	2868.52
700.948	3204.39
701.137	2936.1
701.326	3026.22
701.514	2860.33
701.703	2999.59
701.892	3001.64
702.08	2991.4
702.269	3093.8
702.457	3020.07
702.646	2975.02
702.834	2975.02
703.023	2975.02
703.212	2995.5
703.4	2936.1
703.589	2915.62
703.777	3095.85
703.965	2874.67
704.154	2841.9
704.342	2905.38
704.531	2843.95
704.719	2895.15
704.907	2835.75
705.096	2837.8
705.284	2927.91
705.472	2938.15
705.661	2882.86
705.849	2956.58
706.037	2843.95
706.226	2936.1
706.414	2856.23
706.602	2913.58
706.79	2911.53
706.979	2843.95
707.167	2876.71
707.355	2784.55
707.543	2940.2
707.731	2862.38
707.919	2907.43
708.107	2780.46
708.296	2807.08
708.484	2747.69
708.672	2845.99
708.86	2721.07
709.048	2807.08
709.236	2745.64
709.424	2780.46
709.612	2725.16
709.8	2690.35
709.988	2721.07
710.176	2757.93
710.364	2850.09
710.551	2647.34
710.739	2753.84
710.927	2739.5
711.115	2669.87
711.303	2770.22
711.491	2712.88
711.679	2764.08
711.866	2747.69
712.054	2774.31
712.242	2678.06
712.43	2731.31
712.617	2794.79
712.805	2622.77
712.993	2815.27
713.181	2575.66
713.368	2653.48
713.556	2649.39
713.744	2614.57
713.931	2768.17
714.119	2598.19
714.306	2641.2
714.494	2755.88
714.682	2639.15
714.869	2647.34
715.057	2581.81
715.244	2635.05
715.432	2567.47
715.619	2606.38
715.807	2665.77
715.994	2753.84
716.182	2667.82
716.369	2596.14
716.556	2610.48
716.744	2671.92
716.931	2567.47
717.119	2745.64
717.306	2624.81
717.493	2524.46
717.681	2661.68
717.868	2512.17
718.055	2671.92
718.242	2626.86
718.43	2575.66
718.617	2477.36
718.804	2559.28
718.991	2583.85
719.179	2626.86
719.366	2575.66
719.553	2473.26
719.74	2516.27
719.927	2483.5
720.114	2626.86
720.301	2606.38
720.488	2452.78
720.676	2553.13
720.863	2571.57
721.05	2557.23
721.237	2467.12
721.424	2465.07
721.611	2479.41
721.798	2534.7
721.985	2467.12
722.172	2377.01
722.358	2483.5
722.545	2493.74
722.732	2395.44
722.919	2497.84
723.106	2471.22
723.293	2473.26
723.48	2460.98
723.667	2442.54
723.853	2458.93
724.04	2430.26
724.227	2479.41
724.414	2528.56
724.6	2463.02
724.787	2405.68
724.974	2465.07
725.161	2399.54
725.347	2323.76
725.534	2491.7
725.72	2438.45
725.907	2409.78
726.094	2475.31
726.28	2536.75
726.467	2377.01
726.653	2479.41
726.84	2364.72
727.027	2442.54
727.213	2354.48
727.4	2385.2
727.586	2377.01
727.773	2422.06
727.959	2501.94
728.145	2411.82
728.332	2403.63
728.518	2354.48
728.705	2385.2
728.891	2360.63
729.077	2444.59
729.264	2409.78
729.45	2401.58
729.636	2303.28
729.823	2442.54
730.009	2299.19
730.195	2356.53
730.382	2354.48
730.568	2436.4
730.754	2303.28
730.94	2444.59
731.126	2403.63
731.313	2450.74
731.499	2225.46
731.685	2280.75
731.871	2422.06
732.057	2409.78
732.243	2364.72
732.429	2305.33
732.615	2413.87
732.801	2295.09
732.987	2233.65
733.173	2450.74
733.359	2438.45
733.545	2448.69
733.731	2301.23
733.917	2237.75
734.103	2301.23
734.289	2262.32
734.475	2247.99
734.661	2389.3
734.847	2262.32
735.033	2401.58
735.219	2311.47
735.404	2305.33
735.59	2352.43
735.776	2166.07
735.962	2405.68
736.148	2381.1
736.333	2178.36
736.519	2196.79
736.705	2299.19
736.89	2241.84
737.076	2309.43
737.262	2215.22
737.447	2233.65
737.633	2340.15
737.819	2301.23
738.004	2174.26
738.19	2258.23
738.375	2229.56
738.561	2286.9
738.747	2229.56
738.932	2350.39
739.118	2200.88
739.303	2264.37
739.489	2155.83
739.674	2145.59
739.859	2164.02
740.045	2108.73
740.23	2024.76
740.416	2168.12
740.601	2078.01
740.786	2196.79
740.972	2108.73
741.157	2133.3
741.342	2018.61
741.528	2075.96
741.713	2102.58
741.898	2106.68
742.084	2037.05
742.269	2067.77
742.454	2139.44
742.639	2065.72
742.824	2012.47
743.01	2114.87
743.195	2164.02
743.38	1989.94
743.565	2094.39
743.75	2053.43
743.935	1994.04
744.12	2004.28
744.305	2045.24
744.49	1994.04
744.675	1994.04
744.86	2014.52
745.045	2096.44
745.23	2039.09
745.415	1940.79
745.6	2032.95
745.785	1946.94
745.97	1967.42
746.155	1903.93
746.34	1860.92
746.525	1879.35
746.71	1803.58
746.895	1926.46
747.079	1856.83
747.264	1852.73
747.449	1830.2
747.634	1895.74
747.819	1819.96
748.003	1797.43
748.188	1750.33
748.373	1633.6
748.557	1801.53
748.742	1666.36
748.927	1746.23
749.111	1748.28
749.296	1707.32
749.481	1731.9
749.665	1748.28
749.85	1623.36
750.034	1764.67
750.219	1520.96
750.404	1658.17
750.588	1672.51
750.773	1553.73
750.957	1635.64
751.141	1443.14
751.326	1566.01
751.51	1570.11
751.695	1588.54
751.879	1514.81
752.064	1568.06
752.248	1647.93
752.432	1566.01
752.617	1606.97
752.801	1545.53
752.985	1541.44
753.17	1471.81
753.354	1383.74
753.538	1445.18
753.722	1393.98
753.907	1455.42
754.091	1410.37
754.275	1463.62
754.459	1459.52
754.643	1453.38
754.828	1297.73
755.012	1385.79
755.196	1248.58
755.38	1271.11
755.564	1373.5
755.748	1320.26
755.932	1398.08
756.116	1396.03
756.3	1322.31
756.484	1322.31
756.668	1332.54
756.852	1281.35
757.036	1408.32
757.22	1267.01
757.404	1289.54
757.588	1262.91
757.772	1291.59
757.956	1238.34
758.14	1256.77
758.323	1164.61
758.507	1248.58
758.691	1144.13
758.875	1226.05
759.059	1205.57
759.242	1262.91
759.426	1183.04
759.61	1217.86
759.794	1185.09
759.977	1156.42
760.161	1172.8
760.345	1273.15
760.528	1101.12
760.712	1144.13
760.895	1189.19
761.079	1117.51
761.263	1013.06
761.446	1025.35
761.63	1037.64
761.813	1140.04
761.997	1041.73
762.18	1013.06
762.364	1049.93
762.547	988.49
762.731	1045.83
762.914	1183.04
763.098	992.58
763.281	1045.83
763.464	1101.12
763.648	927.05
763.831	1111.36
764.015	951.62
764.198	996.68
764.381	1025.35
764.564	1049.93
764.748	1049.93
764.931	1051.97
765.114	1029.45
765.297	974.15
765.481	1037.64
765.664	865.61
765.847	961.86
766.03	968.01
766.213	896.33
766.397	941.38
766.58	947.53
766.763	912.71
766.946	998.73
767.129	900.42
767.312	873.8
767.495	939.33
767.678	896.33
767.861	877.9
768.044	898.38
768.227	955.72
768.41	953.67
768.593	896.33
768.776	830.79
768.959	863.56
769.142	984.39
769.324	869.7
769.507	918.86
769.69	879.94
769.873	881.99
770.056	970.05
770.239	873.8
770.421	898.38
770.604	826.7
770.787	822.6
770.97	779.59
771.152	798.03
771.335	841.03
771.518	787.79
771.7	808.27
771.883	793.93
772.066	785.74
772.248	798.03
772.431	855.37
772.613	830.79
772.796	789.83
772.978	742.73
773.161	808.27
773.343	757.07
773.526	779.59
773.708	791.88
773.891	767.31
774.073	795.98
774.256	742.73
774.438	746.83
774.621	650.57
774.803	720.2
774.985	804.17
775.168	707.91
775.35	748.87
775.532	759.11
775.715	662.86
775.897	726.35
776.079	730.44
776.261	652.62
776.444	716.11
776.626	648.52
776.808	660.81
776.99	605.52
777.173	675.15
777.355	619.85
777.537	726.35
777.719	634.19
777.901	638.28
778.083	666.96
778.265	619.85
778.447	705.87
778.629	701.77
778.811	593.23
778.993	574.8
779.175	656.72
779.357	558.41
779.539	609.61
779.721	517.45
779.903	535.89
780.085	615.76
780.267	593.23
780.449	611.66
780.631	568.65
780.812	564.56
780.994	496.97
781.176	501.07
781.358	566.6
781.54	562.51
781.721	542.03
781.903	470.35
782.085	550.22
782.267	535.89
782.448	474.45
782.63	478.54
782.812	515.41
782.993	605.52
783.175	507.21
783.357	429.39
783.538	529.74
783.72	478.54
783.901	607.56
784.083	603.47
784.264	445.77
784.446	390.48
784.627	388.43
784.809	443.73
784.99	511.31
785.172	443.73
785.353	447.82
785.535	451.92
785.716	478.54
785.897	476.49
786.079	451.92
786.26	496.97
786.441	447.82
786.623	431.44
786.804	402.77
786.985	451.92
787.167	423.25
787.348	337.23
787.529	386.38
787.71	415.06
787.891	451.92
788.073	378.19
788.254	372.05
788.435	370
788.616	337.23
788.797	380.24
788.978	464.21
789.159	392.53
789.34	363.86
789.522	402.77
789.703	370
789.884	398.67
790.065	396.62
790.246	404.82
790.427	380.24
790.607	382.29
790.788	404.82
790.969	341.33
791.15	410.96
791.331	357.71
791.512	318.8
791.693	374.1
791.874	306.51
792.054	331.09
792.235	349.52
792.416	271.7
792.597	353.62
792.778	361.81
792.958	386.38
793.139	290.13
793.32	320.85
793.5	296.27
793.681	374.1
793.862	273.75
794.042	247.12
794.223	257.36
794.404	247.12
794.584	290.13
794.765	296.27
794.945	294.22
795.126	290.13
795.306	304.46
795.487	312.66
795.667	302.42
795.848	247.12
796.028	304.46
796.209	240.98
796.389	259.41
796.57	339.28
796.75	267.6
796.93	337.23
797.111	195.92
797.291	259.41
797.471	275.79
797.652	232.79
797.832	249.17
798.012	302.42
798.192	222.55
798.373	197.97
798.553	263.51
798.733	255.31
798.913	331.09
799.093	322.9
799.274	249.17
799.454	243.03
799.634	251.22
799.814	273.75
799.994	263.51
800.174	173.39
800.354	267.6
800.534	224.59
800.714	240.98
800.894	281.94
801.074	200.02
801.254	214.35
801.434	230.74
801.614	216.4
801.794	247.12
801.974	664.91
802.154	234.83
802.334	249.17
802.514	134.48
802.693	314.7
802.873	257.36
803.053	306.51
803.233	257.36
803.413	232.79
803.592	175.44
803.772	240.98
803.952	206.16
804.131	214.35
804.311	249.17
804.491	208.21
804.67	124.24
804.85	222.55
805.03	240.98
805.209	277.84
805.389	167.25
805.568	197.97
805.748	179.54
805.928	238.93
806.107	232.79
806.287	257.36
806.466	193.87
806.646	181.59
806.825	132.44
807.004	224.59
807.184	144.72
807.363	181.59
807.543	150.87
807.722	208.21
807.901	152.91
808.081	204.11
808.26	95.57
808.439	189.78
808.619	171.35
808.798	197.97
808.977	173.39
809.156	218.45
809.336	167.25
809.515	157.01
809.694	177.49
809.873	220.5
810.052	175.44
810.231	154.96
810.411	140.63
810.59	132.44
810.769	105.81
810.948	124.24
811.127	101.72
811.306	142.68
811.485	159.06
811.664	247.12
811.843	128.34
812.022	175.44
812.201	126.29
812.38	159.06
812.559	167.25
812.737	202.07
812.916	181.59
813.095	150.87
813.274	120.15
813.453	105.81
813.632	95.57
813.811	167.25
813.989	130.39
814.168	197.97
814.347	122.2
814.526	77.14
814.704	150.87
814.883	208.21
815.062	134.48
815.24	132.44
815.419	128.34
815.598	138.58
815.776	99.67
815.955	116.05
816.133	124.24
816.312	124.24
816.49	189.78
816.669	122.2
816.847	167.25
817.026	165.2
817.204	99.67
817.383	62.8
817.561	56.66
817.74	179.54
817.918	161.11
818.097	114
818.275	140.63
818.453	118.1
818.632	134.48
818.81	122.2
818.988	124.24
819.167	99.67
819.345	146.77
819.523	120.15
819.701	148.82
819.879	140.63
820.058	126.29
820.236	87.38
820.414	173.39
820.592	42.32
820.77	118.1
820.948	130.39
821.127	46.42
821.305	126.29
821.483	101.72
821.661	77.14
821.839	159.06
822.017	159.06
822.195	46.42
822.373	130.39
822.551	167.25
822.729	177.49
822.907	93.52
823.085	171.35
823.262	128.34
823.44	152.91
823.618	118.1
823.796	118.1
823.974	101.72
824.152	146.77
824.329	159.06
824.507	173.39
824.685	54.61
824.863	116.05
825.04	124.24
825.218	77.14
825.396	44.37
825.574	148.82
825.751	38.23
825.929	138.58
826.107	-0.68
826.284	38.23
826.462	87.38
826.639	75.09
826.817	71
826.994	27.99
827.172	75.09
827.349	111.96
827.527	138.58
827.704	136.53
827.882	103.76
828.059	99.67
828.237	83.28
828.414	75.09
828.591	19.8
828.769	91.48
828.946	11.61
829.124	118.1
829.301	152.91
829.478	99.67
829.655	38.23
829.833	91.48
830.01	56.66
830.187	132.44
830.364	44.37
830.542	148.82
830.719	13.65
830.896	116.05
831.073	107.86
831.25	126.29
831.427	56.66
831.604	116.05
831.782	34.13
831.959	77.14
832.136	71
832.313	124.24
832.49	27.99
832.667	89.43
832.844	54.61
833.021	91.48
833.198	99.67
833.374	132.44
833.551	136.53
833.728	42.32
833.905	50.52
834.082	3.41
834.259	87.38
834.436	161.11
834.612	87.38
834.789	152.91
834.966	107.86
835.143	83.28
835.319	34.13
835.496	95.57
835.673	99.67
835.85	75.09
836.026	60.76
836.203	87.38
836.38	1.37
836.556	114
836.733	17.75
836.909	120.15
837.086	42.32
837.262	-12.97
837.439	75.09
837.616	48.47
837.792	1.37
837.968	89.43
838.145	9.56
838.321	58.71
838.498	93.52
838.674	66.9
838.851	42.32
839.027	103.76
839.203	32.08
839.38	60.76
839.556	75.09
839.732	75.09
839.909	66.9
840.085	93.52
840.261	71
840.437	38.23
840.614	171.35
840.79	50.52
840.966	58.71
841.142	58.71
841.318	48.47
841.494	54.61
841.671	91.48
841.847	44.37
842.023	77.14
842.199	44.37
842.375	52.56
842.551	38.23
842.727	60.76
842.903	30.04
843.079	-29.35
843.255	38.23
843.431	85.33
843.607	5.46
843.783	44.37
843.959	73.04
844.134	54.61
844.31	122.2
844.486	30.04
844.662	64.85
844.838	99.67
845.013	27.99
845.189	50.52
845.365	91.48
845.541	34.13
845.716	60.76
845.892	36.18
846.068	62.8
846.244	44.37
846.419	7.51
846.595	91.48
846.77	-6.83
846.946	54.61
847.122	40.28
847.297	99.67
847.473	34.13
847.648	68.95
847.824	-35.5
847.999	-6.83
848.175	19.8
848.35	54.61
848.526	103.76
848.701	11.61
848.876	68.95
849.052	107.86
849.227	11.61
849.403	32.08
849.578	11.61
849.753	21.85
849.929	38.23
850.104	34.13
850.279	25.94
850.454	109.91
850.63	150.87
850.805	38.23
850.98	34.13
851.155	73.04
851.33	58.71
851.505	36.18
851.681	71
851.856	46.42
852.031	46.42
852.206	17.75
852.381	71
852.556	54.61
852.731	54.61
852.906	42.32
853.081	95.57
853.256	42.32
853.431	42.32
853.606	-19.11
853.781	54.61
853.956	-31.4
854.131	21.85
854.305	27.99
854.48	-10.92
854.655	50.52
854.83	50.52
855.005	19.8
855.18	79.19
855.354	58.71
855.529	38.23
855.704	-27.31
855.879	34.13
856.053	11.61
856.228	58.71
856.403	-43.69
856.577	34.13
856.752	21.85
856.926	-10.92
857.101	71
857.276	3.41
857.45	89.43
857.625	13.65
857.799	52.56
857.974	17.75
858.148	-10.92
858.323	-0.68
858.497	27.99
858.672	-35.5
858.846	-43.69
859.02	85.33
859.195	42.32
859.369	-8.87
859.543	-23.21
859.718	-6.83
859.892	1.37
860.066	-8.87
860.241	-23.21
860.415	62.8
860.589	30.04
860.763	93.52
860.938	-78.51
861.112	62.8
861.286	5.46
861.46	81.24
861.634	66.9
861.808	5.46
861.982	-25.26
862.157	-29.35
862.331	-23.21
862.505	25.94
862.679	-23.21
862.853	-8.87
863.027	-12.97
863.201	105.81
863.375	75.09
863.549	17.75
863.722	48.47
863.896	30.04
864.07	17.75
864.244	3.41
864.418	25.94
864.592	42.32
864.766	30.04
864.939	66.9
865.113	-29.35
865.287	5.46
865.461	-82.6
865.634	42.32
865.808	-4.78
865.982	-6.83
866.156	32.08
866.329	-23.21
866.503	-23.21
866.676	-2.73
866.85	19.8
867.024	-6.83
867.197	50.52
867.371	13.65
867.544	21.85
867.718	-43.69
867.891	46.42
868.065	-103.08
868.238	58.71
868.412	93.52
868.585	17.75
868.759	52.56
868.932	21.85
869.105	-70.31
869.279	48.47
869.452	-47.79
869.625	52.56
869.799	-15.02
869.972	-4.78
870.145	9.56
870.319	46.42
870.492	52.56
870.665	-10.92
870.838	1.37
871.011	-72.36
871.185	-37.55
871.358	9.56
871.531	52.56
871.704	-10.92
871.877	71
872.05	1.37
872.223	-8.87
872.396	9.56
872.569	75.09
872.742	-86.7
872.915	-4.78
873.088	7.51
873.261	-2.73
873.434	36.18
873.607	60.76
873.78	19.8
873.953	-12.97
874.126	5.46
874.299	-47.79
874.471	9.56
874.644	-23.21
874.817	97.62
874.99	-10.92
875.163	17.75
875.335	5.46
875.508	-133.8
875.681	79.19
875.853	-43.69
876.026	-33.45
876.199	-15.02
876.371	3.41
876.544	3.41
876.717	60.76
876.889	-19.11
877.062	-39.59
877.234	21.85
877.407	-4.78
877.579	-27.31
877.752	5.46
877.924	-6.83
878.097	-39.59
878.269	-35.5
878.442	99.67
878.614	58.71
878.786	-29.35
878.959	-12.97
879.131	-10.92
879.303	-80.55
879.476	66.9
879.648	30.04
879.82	42.32
879.993	5.46
880.165	30.04
880.337	36.18
880.509	42.32
880.681	3.41
880.854	42.32
881.026	-2.73
881.198	85.33
881.37	19.8
881.542	-6.83
881.714	-2.73
881.886	-70.31
882.058	-31.4
882.23	-0.68
882.402	-2.73
882.574	42.32
882.746	23.89
882.918	17.75
883.09	71
883.262	-23.21
883.434	75.09
883.606	3.41
883.778	-4.78
883.95	-10.92
884.122	-25.26
884.293	38.23
884.465	21.85
884.637	13.65
884.809	-23.21
884.98	-60.07
885.152	-29.35
885.324	36.18
885.496	-49.83
885.667	-47.79
885.839	-21.16
886.011	17.75
886.182	13.65
886.354	58.71
886.525	11.61
886.697	-6.83
886.869	-105.13
887.04	19.8
887.212	17.75
887.383	130.39
887.555	-15.02
887.726	-62.12
887.897	-21.16
888.069	58.71
888.24	109.91
888.412	30.04
888.583	-64.17
888.754	75.09
888.926	1.37
889.097	-43.69
889.268	81.24
889.44	-15.02
889.611	-2.73
889.782	-51.88
889.953	-37.55
890.125	44.37
890.296	-60.07
890.467	34.13
890.638	-2.73
890.809	42.32
890.98	-47.79
891.151	1.37
891.323	91.48
891.494	-17.07
891.665	60.76
891.836	66.9
892.007	21.85
892.178	-6.83
892.349	83.28
892.52	5.46
892.691	50.52
892.862	-4.78
893.032	-39.59
893.203	3.41
893.374	-37.55
893.545	85.33
893.716	-47.79
893.887	34.13
894.057	56.66
894.228	-62.12
894.399	-23.21
894.57	42.32
894.74	27.99
894.911	-2.73
895.082	50.52
895.253	-29.35
895.423	-0.68
895.594	30.04
895.764	42.32
895.935	-37.55
896.106	17.75
896.276	25.94
896.447	-2.73
896.617	3.41
896.788	-4.78
896.958	-10.92
897.129	40.28
897.299	-43.69
897.47	68.95
897.64	62.8
897.81	-47.79
897.981	-53.93
898.151	-41.64
898.322	-23.21
898.492	85.33
898.662	-47.79
898.832	-21.16
899.003	25.94
899.173	17.75
899.343	-4.78
899.513	-29.35
