Data from USB4F104151__226__14-21-38-542.txt Node

Date: Thu Mar 13 14:21:38 EDT 2025
User: louis
Spectrometer: USB4F10415
Trigger mode: 4
Integration Time (sec): 2.000000E-2
Scans to average: 1
Electric dark correction enabled: true
Nonlinearity correction enabled: false
Boxcar width: 0
XAxis mode: Wavelengths
Number of Pixels in Spectrum: 3648
>>>>>Begin Spectral Data<<<<<
178.204	-111.44
178.424	-111.44
178.644	-111.44
178.864	-78.68
179.084	-101.2
179.304	-19.29
179.524	-11.09
179.744	-50
179.964	21.67
180.184	33.96
180.404	-9.05
180.624	-15.19
180.844	-17.24
181.064	-0.85
181.283	3.24
181.503	-17.24
181.723	81.07
181.943	-9.05
182.163	40.11
182.383	25.77
182.602	50.35
182.822	25.77
183.042	23.72
183.262	13.48
183.482	109.74
183.701	-2.9
183.921	52.39
184.141	-9.05
184.361	40.11
184.58	46.25
184.8	64.68
185.02	21.67
185.239	62.63
185.459	-7
185.679	64.68
185.898	-35.67
186.118	44.2
186.338	74.92
186.557	11.43
186.777	11.43
186.997	-2.9
187.216	56.49
187.436	105.64
187.655	58.54
187.875	54.44
188.095	-23.38
188.314	79.02
188.534	-25.43
188.753	-74.58
188.973	46.25
189.192	50.35
189.412	76.97
189.631	64.68
189.851	74.92
190.07	132.26
190.29	3.24
190.509	15.53
190.729	25.77
190.948	74.92
191.168	111.78
191.387	54.44
191.607	15.53
191.826	62.63
192.045	66.73
192.265	-13.14
192.484	91.31
192.704	15.53
192.923	40.11
193.142	54.44
193.362	7.34
193.581	46.25
193.8	5.29
194.02	126.12
194.239	54.44
194.458	99.5
194.678	58.54
194.897	-25.43
195.116	5.29
195.335	58.54
195.555	72.87
195.774	95.4
195.993	33.96
196.212	21.67
196.432	-2.9
196.651	38.06
196.87	-2.9
197.089	85.16
197.308	68.78
197.528	25.77
197.747	-41.81
197.966	5.29
198.185	23.72
198.404	9.39
198.623	21.67
198.842	33.96
199.062	29.87
199.281	38.06
199.5	15.53
199.719	-13.14
199.938	15.53
200.157	87.21
200.376	25.77
200.595	122.02
200.814	46.25
201.033	15.53
201.252	50.35
201.471	9.39
201.69	54.44
201.909	115.88
202.128	25.77
202.347	-9.05
202.566	33.96
202.785	-17.24
203.004	7.34
203.223	148.65
203.442	15.53
203.661	29.87
203.879	-0.85
204.098	15.53
204.317	17.58
204.536	91.31
204.755	-19.29
204.974	54.44
205.193	27.82
205.411	74.92
205.63	-7
205.849	48.3
206.068	33.96
206.287	83.11
206.505	54.44
206.724	-0.85
206.943	-11.09
207.162	-25.43
207.381	50.35
207.599	46.25
207.818	31.91
208.037	56.49
208.255	-7
208.474	91.31
208.693	58.54
208.911	50.35
209.13	40.11
209.349	54.44
209.567	33.96
209.786	142.5
210.005	-35.67
210.223	83.11
210.442	-25.43
210.661	23.72
210.879	-27.48
211.098	38.06
211.316	89.26
211.535	33.96
211.753	-0.85
211.972	58.54
212.191	31.91
212.409	29.87
212.628	148.65
212.846	-25.43
213.065	64.68
213.283	9.39
213.502	-4.95
213.72	17.58
213.938	56.49
214.157	72.87
214.375	17.58
214.594	31.91
214.812	79.02
215.031	13.48
215.249	-7
215.467	93.35
215.686	-27.48
215.904	89.26
216.122	40.11
216.341	66.73
216.559	17.58
216.778	89.26
216.996	111.78
217.214	-52.05
217.432	66.73
217.651	31.91
217.869	-23.38
218.087	99.5
218.306	5.29
218.524	29.87
218.742	-2.9
218.96	99.5
219.179	42.15
219.397	44.2
219.615	72.87
219.833	76.97
220.051	54.44
220.27	68.78
220.488	21.67
220.706	46.25
220.924	-33.62
221.142	70.83
221.36	15.53
221.578	40.11
221.796	-11.09
222.015	21.67
222.233	-0.85
222.451	44.2
222.669	-27.48
222.887	33.96
223.105	-2.9
223.323	79.02
223.541	21.67
223.759	38.06
223.977	25.77
224.195	70.83
224.413	1.19
224.631	72.87
224.849	44.2
225.067	5.29
225.285	13.48
225.503	-7
225.721	-29.52
225.939	23.72
226.157	-39.76
226.375	144.55
226.592	-31.57
226.81	70.83
227.028	70.83
227.246	119.98
227.464	52.39
227.682	81.07
227.9	48.3
228.117	54.44
228.335	21.67
228.553	48.3
228.771	40.11
228.989	38.06
229.206	87.21
229.424	13.48
229.642	-13.14
229.86	13.48
230.077	54.44
230.295	50.35
230.513	-0.85
230.731	74.92
230.948	21.67
231.166	38.06
231.384	58.54
231.601	50.35
231.819	-0.85
232.037	-2.9
232.254	15.53
232.472	7.34
232.689	48.3
232.907	70.83
233.125	58.54
233.342	13.48
233.56	38.06
233.777	-0.85
233.995	-0.85
234.213	97.45
234.43	-17.24
234.648	72.87
234.865	36.01
235.083	17.58
235.3	81.07
235.518	79.02
235.735	36.01
235.953	72.87
236.17	38.06
236.388	54.44
236.605	83.11
236.822	152.74
237.04	25.77
237.257	38.06
237.475	3.24
237.692	40.11
237.909	64.68
238.127	-27.48
238.344	79.02
238.562	33.96
238.779	-19.29
238.996	72.87
239.214	42.15
239.431	76.97
239.648	64.68
239.865	40.11
240.083	25.77
240.3	31.91
240.517	48.3
240.735	56.49
240.952	152.74
241.169	52.39
241.386	-17.24
241.603	33.96
241.821	-13.14
242.038	103.59
242.255	17.58
242.472	-2.9
242.689	38.06
242.907	11.43
243.124	54.44
243.341	64.68
243.558	-19.29
243.775	46.25
243.992	62.63
244.209	111.78
244.426	38.06
244.643	48.3
244.86	62.63
245.078	23.72
245.295	-2.9
245.512	-0.85
245.729	38.06
245.946	70.83
246.163	99.5
246.38	48.3
246.597	70.83
246.814	17.58
247.031	-45.91
247.248	74.92
247.464	21.67
247.681	-9.05
247.898	-4.95
248.115	62.63
248.332	54.44
248.549	111.78
248.766	42.15
248.983	72.87
249.2	3.24
249.417	17.58
249.633	-4.95
249.85	66.73
250.067	83.11
250.284	-37.72
250.501	105.64
250.717	33.96
250.934	13.48
251.151	-2.9
251.368	33.96
251.585	56.49
251.801	29.87
252.018	21.67
252.235	42.15
252.451	54.44
252.668	17.58
252.885	91.31
253.102	83.11
253.318	38.06
253.535	9.39
253.752	40.11
253.968	-52.05
254.185	-39.76
254.401	79.02
254.618	103.59
254.835	64.68
255.051	29.87
255.268	-4.95
255.484	36.01
255.701	15.53
255.917	54.44
256.134	42.15
256.351	79.02
256.567	44.2
256.784	13.48
257	21.67
257.217	15.53
257.433	-19.29
257.65	64.68
257.866	-25.43
258.082	-4.95
258.299	50.35
258.515	13.48
258.732	64.68
258.948	-11.09
259.165	95.4
259.381	58.54
259.597	36.01
259.814	54.44
260.03	126.12
260.246	68.78
260.463	38.06
260.679	46.25
260.895	21.67
261.112	81.07
261.328	46.25
261.544	5.29
261.761	72.87
261.977	38.06
262.193	54.44
262.409	62.63
262.626	85.16
262.842	-23.38
263.058	-19.29
263.274	81.07
263.49	60.59
263.707	46.25
263.923	31.91
264.139	79.02
264.355	13.48
264.571	76.97
264.787	17.58
265.004	148.65
265.22	13.48
265.436	23.72
265.652	-11.09
265.868	54.44
266.084	-31.57
266.3	11.43
266.516	-11.09
266.732	1.19
266.948	25.77
267.164	87.21
267.38	33.96
267.596	62.63
267.812	87.21
268.028	50.35
268.244	66.73
268.46	5.29
268.676	42.15
268.892	13.48
269.108	54.44
269.324	-2.9
269.54	-9.05
269.756	97.45
269.972	33.96
270.188	5.29
270.403	-7
270.619	64.68
270.835	113.83
271.051	13.48
271.267	33.96
271.483	58.54
271.698	29.87
271.914	97.45
272.13	-25.43
272.346	29.87
272.562	68.78
272.777	46.25
272.993	-41.81
273.209	74.92
273.425	132.26
273.64	50.35
273.856	62.63
274.072	11.43
274.287	7.34
274.503	66.73
274.719	56.49
274.934	70.83
275.15	11.43
275.366	9.39
275.581	76.97
275.797	50.35
276.012	103.59
276.228	105.64
276.444	29.87
276.659	103.59
276.875	-50
277.09	5.29
277.306	7.34
277.521	38.06
277.737	68.78
277.952	17.58
278.168	52.39
278.383	15.53
278.599	38.06
278.814	58.54
279.03	25.77
279.245	74.92
279.461	119.98
279.676	95.4
279.892	33.96
280.107	64.68
280.322	-25.43
280.538	11.43
280.753	-0.85
280.969	95.4
281.184	66.73
281.399	54.44
281.615	-41.81
281.83	23.72
282.045	42.15
282.26	91.31
282.476	1.19
282.691	103.59
282.906	-19.29
283.122	21.67
283.337	-2.9
283.552	1.19
283.767	56.49
283.983	101.55
284.198	-2.9
284.413	89.26
284.628	-33.62
284.843	31.91
285.058	31.91
285.274	48.3
285.489	42.15
285.704	89.26
285.919	15.53
286.134	38.06
286.349	21.67
286.564	-23.38
286.779	93.35
286.995	85.16
287.21	1.19
287.425	89.26
287.64	46.25
287.855	97.45
288.07	1.19
288.285	38.06
288.5	25.77
288.715	-17.24
288.93	-2.9
289.145	56.49
289.36	70.83
289.575	23.72
289.79	29.87
290.004	-7
290.219	44.2
290.434	36.01
290.649	9.39
290.864	58.54
291.079	23.72
291.294	29.87
291.509	66.73
291.724	-4.95
291.938	3.24
292.153	38.06
292.368	54.44
292.583	-11.09
292.798	111.78
293.012	17.58
293.227	81.07
293.442	-35.67
293.657	83.11
293.871	136.36
294.086	29.87
294.301	83.11
294.516	54.44
294.73	25.77
294.945	50.35
295.16	29.87
295.374	3.24
295.589	5.29
295.804	79.02
296.018	21.67
296.233	-25.43
296.447	62.63
296.662	76.97
296.877	-41.81
297.091	87.21
297.306	-27.48
297.52	-17.24
297.735	56.49
297.949	-9.05
298.164	38.06
298.378	11.43
298.593	5.29
298.807	7.34
299.022	21.67
299.236	58.54
299.451	72.87
299.665	-17.24
299.88	29.87
300.094	62.63
300.309	54.44
300.523	42.15
300.737	58.54
300.952	66.73
301.166	-0.85
301.381	58.54
301.595	40.11
301.809	85.16
302.024	85.16
302.238	50.35
302.452	15.53
302.667	40.11
302.881	46.25
303.095	29.87
303.309	29.87
303.524	60.59
303.738	79.02
303.952	38.06
304.166	83.11
304.381	7.34
304.595	70.83
304.809	87.21
305.023	72.87
305.237	54.44
305.452	-68.44
305.666	46.25
305.88	62.63
306.094	15.53
306.308	124.07
306.522	29.87
306.736	54.44
306.95	72.87
307.164	76.97
307.379	70.83
307.593	25.77
307.807	38.06
308.021	29.87
308.235	-35.67
308.449	15.53
308.663	36.01
308.877	107.69
309.091	21.67
309.305	124.07
309.519	-21.33
309.733	9.39
309.947	50.35
310.161	31.91
310.374	83.11
310.588	11.43
310.802	-11.09
311.016	79.02
311.23	-43.86
311.444	-23.38
311.658	-25.43
311.872	-11.09
312.085	5.29
312.299	105.64
312.513	-7
312.727	105.64
312.941	-23.38
313.154	21.67
313.368	76.97
313.582	40.11
313.796	85.16
314.009	79.02
314.223	42.15
314.437	81.07
314.651	-2.9
314.864	70.83
315.078	58.54
315.292	38.06
315.505	29.87
315.719	62.63
315.933	1.19
316.146	93.35
316.36	21.67
316.573	95.4
316.787	15.53
317.001	89.26
317.214	70.83
317.428	62.63
317.641	-11.09
317.855	46.25
318.068	17.58
318.282	99.5
318.495	95.4
318.709	87.21
318.922	36.01
319.136	87.21
319.349	-4.95
319.563	54.44
319.776	21.67
319.99	58.54
320.203	101.55
320.417	42.15
320.63	21.67
320.843	54.44
321.057	152.74
321.27	58.54
321.483	42.15
321.697	97.45
321.91	33.96
322.124	91.31
322.337	93.35
322.55	29.87
322.763	-15.19
322.977	83.11
323.19	40.11
323.403	13.48
323.617	66.73
323.83	23.72
324.043	74.92
324.256	-11.09
324.469	64.68
324.683	68.78
324.896	42.15
325.109	58.54
325.322	33.96
325.535	64.68
325.748	93.35
325.962	21.67
326.175	38.06
326.388	5.29
326.601	74.92
326.814	46.25
327.027	19.63
327.24	119.98
327.453	7.34
327.666	91.31
327.879	48.3
328.092	54.44
328.305	-25.43
328.518	3.24
328.731	15.53
328.944	99.5
329.157	79.02
329.37	72.87
329.583	105.64
329.796	48.3
330.009	91.31
330.222	72.87
330.435	42.15
330.648	74.92
330.861	72.87
331.073	79.02
331.286	54.44
331.499	-27.48
331.712	-2.9
331.925	1.19
332.138	13.48
332.35	79.02
332.563	95.4
332.776	36.01
332.989	1.19
333.202	-54.1
333.414	89.26
333.627	21.67
333.84	56.49
334.053	40.11
334.265	17.58
334.478	56.49
334.691	9.39
334.903	54.44
335.116	81.07
335.329	-7
335.541	17.58
335.754	130.22
335.966	54.44
336.179	-19.29
336.392	13.48
336.604	134.31
336.817	91.31
337.029	97.45
337.242	38.06
337.454	62.63
337.667	101.55
337.88	105.64
338.092	46.25
338.305	113.83
338.517	36.01
338.729	70.83
338.942	36.01
339.154	81.07
339.367	-4.95
339.579	-2.9
339.792	111.78
340.004	-2.9
340.217	31.91
340.429	101.55
340.641	31.91
340.854	27.82
341.066	42.15
341.278	111.78
341.491	40.11
341.703	48.3
341.915	46.25
342.128	117.93
342.34	70.83
342.552	29.87
342.764	-7
342.977	11.43
343.189	7.34
343.401	48.3
343.613	-11.09
343.826	42.15
344.038	44.2
344.25	85.16
344.462	48.3
344.674	17.58
344.886	-17.24
345.099	48.3
345.311	64.68
345.523	62.63
345.735	25.77
345.947	11.43
346.159	1.19
346.371	46.25
346.583	54.44
346.795	97.45
347.007	9.39
347.219	40.11
347.431	111.78
347.643	103.59
347.855	66.73
348.067	83.11
348.279	36.01
348.491	3.24
348.703	13.48
348.915	5.29
349.127	33.96
349.339	44.2
349.551	15.53
349.763	46.25
349.975	17.58
350.187	68.78
350.399	87.21
350.61	119.98
350.822	-33.62
351.034	46.25
351.246	1.19
351.458	17.58
351.669	91.31
351.881	9.39
352.093	97.45
352.305	93.35
352.517	33.96
352.728	115.88
352.94	48.3
353.152	31.91
353.363	-31.57
353.575	54.44
353.787	165.03
353.999	23.72
354.21	5.29
354.422	23.72
354.633	1.19
354.845	76.97
355.057	62.63
355.268	128.17
355.48	64.68
355.692	50.35
355.903	76.97
356.115	83.11
356.326	44.2
356.538	72.87
356.749	-15.19
356.961	87.21
357.172	17.58
357.384	87.21
357.595	54.44
357.807	62.63
358.018	48.3
358.23	40.11
358.441	29.87
358.653	70.83
358.864	52.39
359.075	87.21
359.287	48.3
359.498	21.67
359.709	87.21
359.921	119.98
360.132	9.39
360.344	33.96
360.555	72.87
360.766	21.67
360.977	50.35
361.189	111.78
361.4	-9.05
361.611	40.11
361.823	99.5
362.034	25.77
362.245	-9.05
362.456	42.15
362.667	54.44
362.879	101.55
363.09	38.06
363.301	50.35
363.512	50.35
363.723	64.68
363.935	54.44
364.146	74.92
364.357	23.72
364.568	74.92
364.779	31.91
364.99	48.3
365.201	7.34
365.412	111.78
365.623	38.06
365.834	13.48
366.045	50.35
366.256	25.77
366.467	21.67
366.678	23.72
366.889	50.35
367.1	54.44
367.311	50.35
367.522	11.43
367.733	87.21
367.944	46.25
368.155	91.31
368.366	81.07
368.577	119.98
368.788	97.45
368.999	62.63
369.209	27.82
369.42	87.21
369.631	81.07
369.842	79.02
370.053	-7
370.264	122.02
370.474	54.44
370.685	23.72
370.896	62.63
371.107	46.25
371.317	83.11
371.528	62.63
371.739	70.83
371.95	119.98
372.16	38.06
372.371	54.44
372.582	87.21
372.792	40.11
373.003	56.49
373.214	-0.85
373.424	58.54
373.635	81.07
373.846	52.39
374.056	79.02
374.267	54.44
374.477	29.87
374.688	15.53
374.898	42.15
375.109	62.63
375.319	62.63
375.53	38.06
375.74	113.83
375.951	119.98
376.161	76.97
376.372	140.46
376.582	21.67
376.793	70.83
377.003	76.97
377.214	103.59
377.424	74.92
377.635	79.02
377.845	-9.05
378.055	74.92
378.266	87.21
378.476	128.17
378.686	87.21
378.897	70.83
379.107	62.63
379.317	122.02
379.528	76.97
379.738	87.21
379.948	17.58
380.158	91.31
380.369	21.67
380.579	21.67
380.789	97.45
380.999	156.84
381.21	119.98
381.42	95.4
381.63	46.25
381.84	54.44
382.05	40.11
382.261	97.45
382.471	58.54
382.681	70.83
382.891	128.17
383.101	36.01
383.311	33.96
383.521	40.11
383.731	68.78
383.941	109.74
384.151	29.87
384.361	58.54
384.571	52.39
384.781	7.34
384.991	142.5
385.201	99.5
385.411	87.21
385.621	72.87
385.831	50.35
386.041	46.25
386.251	46.25
386.461	64.68
386.671	95.4
386.881	33.96
387.091	46.25
387.301	136.36
387.511	-11.09
387.72	33.96
387.93	128.17
388.14	46.25
388.35	74.92
388.56	62.63
388.769	91.31
388.979	21.67
389.189	74.92
389.399	87.21
389.609	154.79
389.818	136.36
390.028	13.48
390.238	31.91
390.447	74.92
390.657	-0.85
390.867	97.45
391.076	105.64
391.286	97.45
391.496	99.5
391.705	97.45
391.915	111.78
392.125	171.18
392.334	62.63
392.544	83.11
392.753	79.02
392.963	113.83
393.172	103.59
393.382	52.39
393.591	220.33
393.801	13.48
394.01	91.31
394.22	25.77
394.429	91.31
394.639	111.78
394.848	154.79
395.058	13.48
395.267	91.31
395.477	72.87
395.686	119.98
395.895	79.02
396.105	148.65
396.314	87.21
396.524	140.46
396.733	160.94
396.942	181.42
397.152	103.59
397.361	103.59
397.57	160.94
397.78	140.46
397.989	122.02
398.198	152.74
398.407	62.63
398.617	42.15
398.826	50.35
399.035	136.36
399.244	117.93
399.453	160.94
399.663	160.94
399.872	117.93
400.081	40.11
400.29	146.6
400.499	11.43
400.708	128.17
400.917	115.88
401.127	179.37
401.336	87.21
401.545	138.41
401.754	154.79
401.963	195.75
402.172	99.5
402.381	136.36
402.59	134.31
402.799	99.5
403.008	210.09
403.217	130.22
403.426	107.69
403.635	81.07
403.844	132.26
404.053	132.26
404.262	156.84
404.471	181.42
404.68	89.26
404.888	89.26
405.097	132.26
405.306	197.8
405.515	236.71
405.724	169.13
405.933	173.22
406.142	201.9
406.35	244.9
406.559	169.13
406.768	195.75
406.977	246.95
407.185	236.71
407.394	177.32
407.603	214.18
407.812	154.79
408.02	224.42
408.229	197.8
408.438	251.05
408.646	218.28
408.855	222.38
409.064	218.28
409.272	332.97
409.481	324.77
409.69	341.16
409.898	318.63
410.107	332.97
410.315	353.45
410.524	371.88
410.733	312.49
410.941	363.69
411.15	418.98
411.358	316.58
411.567	513.19
411.775	431.27
411.984	482.47
412.192	461.99
412.401	455.84
412.609	461.99
412.818	527.52
413.026	570.53
413.234	504.99
413.443	595.11
413.651	584.87
413.86	570.53
414.068	603.3
414.276	619.68
414.485	660.64
414.693	701.6
414.901	711.84
415.11	736.42
415.318	709.79
415.526	750.75
415.734	828.57
415.943	828.57
416.151	838.81
416.359	869.53
416.567	892.06
416.776	939.16
416.984	1021.08
417.192	1008.8
417.4	933.02
417.608	1074.33
417.817	1053.85
418.025	1131.67
418.233	1193.11
418.441	1209.5
418.649	1258.65
418.857	1256.6
419.065	1354.9
419.273	1291.41
419.481	1488.02
419.689	1537.17
419.897	1553.55
420.105	1555.6
420.313	1705.1
420.521	1696.91
420.729	1752.21
420.937	1766.54
421.145	1856.65
421.353	1979.53
421.561	2036.88
421.769	2116.75
421.977	2086.03
422.185	2118.79
422.393	2126.99
422.601	2366.6
422.809	2323.59
423.017	2462.85
423.224	2489.48
423.432	2491.52
423.64	2667.65
423.848	2718.85
424.056	2890.88
424.263	2921.6
424.471	3001.47
424.679	3060.86
424.887	3185.79
425.094	3175.55
425.302	3228.79
425.51	3423.35
425.718	3533.94
425.925	3449.97
426.133	3550.32
426.341	3937.39
426.548	4220.01
426.756	3974.25
426.964	4002.93
427.171	4314.22
427.379	4445.29
427.586	4576.36
427.794	4596.84
428.001	4826.21
428.209	4965.47
428.417	4990.05
428.624	5303.39
428.832	5373.02
429.039	5330.01
429.247	5426.26
429.454	5813.33
429.662	6231.12
429.869	5897.3
430.076	6403.14
430.284	6085.71
430.491	6267.98
430.699	6626.37
430.906	6724.68
431.114	6749.25
431.321	7009.34
431.528	6831.17
431.736	7443.51
431.943	7902.26
432.15	7760.95
432.358	7898.16
432.565	8182.83
432.772	8080.43
432.979	8520.74
433.187	8799.27
433.394	8766.5
433.601	9321.5
433.808	9274.4
434.016	9296.92
434.223	9448.47
434.43	10167.31
434.637	10101.78
434.844	10671.11
435.052	10994.69
435.259	10634.25
435.466	10951.68
435.673	10892.29
435.88	11752.44
436.087	12055.54
436.294	12178.42
436.501	11973.62
436.708	12073.97
436.915	12317.68
437.122	13153.25
437.329	12786.66
437.537	13464.54
437.743	13552.6
437.95	13546.46
438.157	14054.36
438.364	14644.17
438.571	14570.44
438.778	14748.62
438.985	16051.13
439.192	15576
439.399	15963.06
439.606	15514.56
439.813	16567.21
440.02	17460.13
440.227	17286.05
440.433	17050.53
440.64	17738.65
440.847	17556.38
441.054	17929.11
441.261	18998.15
441.467	18811.79
441.674	19118.98
441.881	19917.69
442.088	19688.32
442.294	19563.39
442.501	20134.78
442.708	20700.01
442.914	21295.97
443.121	22102.87
443.328	21377.89
443.534	23065.42
443.741	22508.37
443.948	22266.71
444.154	23794.5
444.361	23876.41
444.568	23896.89
444.774	23946.05
444.981	24232.76
445.187	24750.9
445.394	25680.67
445.6	25244.46
445.807	27980.54
446.013	26866.45
446.22	27181.84
446.426	28080.89
446.633	28144.38
446.839	29274.86
447.046	27970.3
447.252	29754.08
447.459	30008.03
447.665	29706.98
447.871	30958.29
448.078	32244.41
448.284	30657.24
448.491	31445.71
448.697	32850.61
448.903	33182.38
449.11	33422
449.316	33024.69
449.522	33215.15
449.728	34310.82
449.935	34812.57
450.141	34589.34
450.347	35422.86
450.553	34015.91
450.76	34443.93
450.966	35920.52
451.172	35181.2
451.378	36278.91
451.584	35793.54
451.791	36311.68
451.997	36262.53
452.203	36788.86
452.409	37044.85
452.615	36686.46
452.821	35560.08
453.027	35041.94
453.233	36915.83
453.44	35535.5
453.646	35930.76
453.852	36074.12
454.058	36471.42
454.264	35629.71
454.47	36602.49
454.676	35201.68
454.882	36637.31
455.088	33612.46
455.294	33936.04
455.5	34509.47
455.705	34861.72
455.911	33374.89
456.117	32783.03
456.323	32246.46
456.529	30489.31
456.735	32189.12
456.941	31206.09
457.147	30440.15
457.352	29469.42
457.558	29569.77
457.764	29450.99
457.97	29080.3
458.176	28396.28
458.381	28320.51
458.587	27130.64
458.793	26913.55
458.999	25676.58
459.204	27529.99
459.41	26604.31
459.616	24750.9
459.821	25002.8
460.027	24818.48
460.233	24472.37
460.438	23249.74
460.644	23313.22
460.85	22358.87
461.055	21873.5
461.261	22215.51
461.466	20392.82
461.672	19927.93
461.878	21332.84
462.083	19886.97
462.289	19493.76
462.494	19667.84
462.7	18428.82
462.905	18031.51
463.111	18750.35
463.316	18629.52
463.522	18191.25
463.727	18115.48
463.932	18498.45
464.138	18054.04
464.343	18043.8
464.549	17415.07
464.754	18205.59
464.959	17869.72
465.165	17636.25
465.37	17314.72
465.575	16833.45
465.781	17218.47
465.986	17527.71
466.191	16815.02
466.397	16690.09
466.602	15694.78
466.807	16264.11
467.012	16579.5
467.218	16268.21
467.423	15883.19
467.628	16210.87
467.833	16774.06
468.038	16090.04
468.244	15645.63
468.449	16290.74
468.654	15977.4
468.859	15721.4
469.064	15506.37
469.269	14803.91
469.474	15254.47
469.679	15451.07
469.885	15078.34
470.09	15141.83
470.295	15025.09
470.5	14902.22
470.705	14953.41
470.91	14525.39
471.115	14392.27
471.32	14574.54
471.525	14513.1
471.73	14113.75
471.935	13980.63
472.139	13665.24
472.344	13822.94
472.549	13616.09
472.754	13499.36
472.959	13300.7
473.164	13087.71
473.369	12930.02
473.574	13495.26
473.778	13173.73
473.983	12772.33
474.188	12952.55
474.393	12440.56
474.598	12424.17
474.802	12248.05
475.007	12159.99
475.212	12235.76
475.417	11572.22
475.621	11840.5
475.826	11867.13
476.031	11664.38
476.235	11277.31
476.44	11727.86
476.645	11359.23
476.849	11549.69
477.054	11275.26
477.259	11129.86
477.463	11125.76
477.668	10955.78
477.872	11092.99
478.077	10671.11
478.282	10300.43
478.486	10583.05
478.691	10271.76
478.895	10376.2
479.1	10468.36
479.304	10288.14
479.509	9976.85
479.713	10171.41
479.918	9862.16
480.122	10015.76
480.326	10107.92
480.531	9901.08
480.735	9892.88
480.94	9643.03
481.144	9960.47
481.348	9344.03
481.553	9649.18
481.757	9571.35
481.961	9581.59
482.166	9892.88
482.37	9960.47
482.574	9425.95
482.778	9634.84
482.983	9675.8
483.187	9651.22
483.391	9702.42
483.595	9456.67
483.8	9382.94
484.004	9577.5
484.208	9630.74
484.412	9567.26
484.616	9477.15
484.821	9600.02
485.025	9497.63
485.229	9759.77
485.433	9460.76
485.637	9593.88
485.841	9557.02
486.045	9491.48
486.249	9577.5
486.453	9296.92
486.657	9540.63
486.861	9589.78
487.065	9403.42
487.269	9645.08
487.473	9438.23
487.677	9659.42
487.881	9661.46
488.085	9561.11
488.289	9577.5
488.493	9460.76
488.697	9565.21
488.901	9696.28
489.105	9475.1
489.309	9774.1
489.512	9770.01
489.716	9755.67
489.92	9624.6
490.124	9782.29
490.328	9915.41
490.531	9815.06
490.735	9784.34
490.939	9792.53
491.143	10009.62
491.346	9815.06
491.55	9872.4
491.754	9968.66
491.958	10013.71
492.161	9978.9
492.365	10152.98
492.569	9960.47
492.772	10224.65
492.976	10001.43
493.18	10122.26
493.383	10406.92
493.587	10662.92
493.79	10675.21
493.994	10347.53
494.197	10525.71
494.401	10705.93
494.605	10654.73
494.808	10744.84
495.012	10802.18
495.215	10912.77
495.419	11035.65
495.622	10882.05
495.825	11265.02
496.029	11056.13
496.232	11260.93
496.436	11394.04
496.639	11582.46
496.843	11502.59
497.046	11863.03
497.249	11834.36
497.453	11961.33
497.656	11951.09
497.859	11981.81
498.063	12229.62
498.266	12420.08
498.469	12590.06
498.673	12665.83
498.876	12708.84
499.079	12858.34
499.282	12958.69
499.485	13296.61
499.689	13374.43
499.892	13345.76
500.095	13351.9
500.298	13784.02
500.501	13638.62
500.705	14099.41
500.908	14123.99
501.111	14230.48
501.314	14427.09
501.517	14414.8
501.72	14638.03
501.923	14525.39
502.126	15041.48
502.329	15178.69
502.532	15350.72
502.735	15569.85
502.938	15678.4
503.141	15784.89
503.344	15940.54
503.547	15948.73
503.75	16323.51
503.953	16548.78
504.156	16747.44
504.359	16739.24
504.562	17040.29
504.765	16800.68
504.968	17578.91
505.17	17714.08
505.373	17423.26
505.576	17910.68
505.779	18314.13
505.982	18113.43
506.185	18461.58
506.387	18541.46
506.59	19000.2
506.793	19141.51
506.996	19327.88
507.198	19630.98
507.401	19628.93
507.604	19618.69
507.807	20431.73
508.009	20128.63
508.212	20173.69
508.415	20513.65
508.617	21091.18
508.82	20839.28
509.022	20781.93
509.225	21654.37
509.428	21633.89
509.63	21936.99
509.833	21994.33
510.035	22342.49
510.238	21924.7
510.44	22582.1
510.643	22899.53
510.845	23057.23
511.048	22926.16
511.25	23219.02
511.453	23438.15
511.655	24333.11
511.858	23974.72
512.06	23978.81
512.262	24460.09
512.465	24443.7
512.667	24531.76
512.87	25137.96
513.072	24970.03
513.274	25529.13
513.477	25832.22
513.679	26131.23
513.881	26282.78
514.084	26854.16
514.286	26387.22
514.488	26632.98
514.69	27409.16
514.893	27575.05
515.095	27431.69
515.297	27994.88
515.499	28263.16
515.701	28326.65
515.904	28613.37
516.106	28740.34
516.308	29057.78
516.51	29328.11
516.712	29385.45
516.914	30036.7
517.116	30085.86
517.318	30225.12
517.52	30431.96
517.722	30511.83
517.925	30833.36
518.127	31632.07
518.329	31713.99
518.531	31249.1
518.733	32058.05
518.935	32207.55
519.136	32445.12
519.338	32611
519.54	32537.27
519.742	33301.17
519.944	33403.56
520.146	33575.59
520.348	34097.83
520.55	33903.27
520.752	34241.18
520.954	34689.69
521.155	34599.58
521.357	35105.43
521.559	35392.14
521.761	35603.08
521.963	35850.89
522.164	36090.5
522.366	35857.03
522.568	36319.87
522.77	36317.82
522.971	37102.2
523.173	36987.51
523.375	37057.14
523.576	37124.72
523.778	37296.75
523.98	37567.09
524.181	37847.66
524.383	37806.7
524.584	38472.29
524.786	38333.03
524.988	38441.57
525.189	38840.92
525.391	39299.67
525.592	39322.19
525.794	39230.04
525.995	39332.43
526.197	39854.67
526.398	39217.75
526.6	39789.13
526.801	40030.79
527.003	39950.92
527.204	39989.83
527.406	40321.6
527.607	40567.36
527.808	40569.41
528.01	40045.13
528.211	40366.66
528.412	41304.63
528.614	41249.33
528.815	41024.06
529.016	41202.23
529.218	41046.58
529.419	41290.29
529.62	41609.78
529.822	41404.98
530.023	41579.06
530.224	41910.83
530.425	41321.01
530.626	41331.25
530.828	41206.33
531.029	41970.22
531.23	41624.11
531.431	41556.53
531.632	41902.64
531.833	41830.96
532.035	41941.55
532.236	42166.82
532.437	42084.9
532.638	41904.68
532.839	42400.29
533.04	42383.91
533.241	42084.9
533.442	43035.16
533.643	42070.57
533.844	42218.02
534.045	42748.45
534.246	42111.53
534.447	42578.46
534.648	42418.72
534.849	42324.52
535.05	42080.81
535.251	42269.22
535.451	42009.13
535.652	42584.61
535.853	42406.44
536.054	42471.97
536.255	42222.12
536.456	42224.17
536.657	43012.63
536.857	42359.33
537.058	42281.51
537.259	42142.25
537.46	42232.36
537.66	42568.23
537.861	42445.35
538.062	42170.92
538.263	42560.03
538.463	42426.92
538.664	42242.6
538.865	42482.21
539.065	42777.12
539.266	42320.42
539.466	42619.42
539.667	42025.51
539.868	43010.59
540.068	42379.81
540.269	42213.93
540.469	42269.22
540.67	42134.06
540.87	41937.45
541.071	42361.38
541.271	42447.39
541.472	42433.06
541.672	42101.29
541.873	42412.58
542.073	41835.05
542.274	42705.44
542.474	42017.32
542.675	41951.79
542.875	42170.92
543.075	42207.78
543.276	41910.83
543.476	42580.51
543.676	41914.92
543.877	42236.45
544.077	42279.46
544.277	42140.2
544.478	41959.98
544.678	42005.03
544.878	41962.03
545.078	42369.57
545.279	41804.33
545.479	41771.57
545.679	41847.34
545.879	42045.99
546.079	41720.37
546.28	41886.25
546.48	41601.58
546.68	41953.83
546.88	41697.84
547.08	42011.18
547.28	42150.44
547.48	41495.09
547.68	41982.51
547.88	41587.25
548.081	41896.49
548.281	41986.6
548.481	41996.84
548.681	42197.54
548.881	42388
549.081	41978.41
549.28	41691.69
549.48	42175.02
549.68	41785.9
549.88	41986.6
550.08	41466.42
550.28	42234.41
550.48	41570.86
550.68	42002.99
550.88	41239.09
551.08	41521.71
551.279	42015.27
551.479	41323.06
551.679	41531.95
551.879	41531.95
552.079	41972.27
552.278	41509.43
552.478	41605.68
552.678	41568.82
552.878	41706.03
553.077	41738.8
553.277	41128.5
553.477	42134.06
553.676	41398.83
553.876	41536.05
554.076	41249.33
554.275	41226.81
554.475	41134.65
554.674	41083.45
554.874	41179.7
555.074	40944.19
555.273	41462.32
555.473	41490.99
555.672	41134.65
555.872	41085.5
556.071	41423.41
556.271	41468.47
556.47	41122.36
556.67	40829.5
556.869	40645.18
557.068	41456.18
557.268	41058.87
557.467	40897.08
557.667	40952.38
557.866	40735.29
558.065	41067.06
558.265	40598.08
558.464	40464.96
558.663	41065.02
558.863	40460.87
559.062	41142.84
559.261	40567.36
559.461	40796.73
559.66	40608.32
559.859	40106.57
560.058	40086.09
560.258	40442.43
560.457	40024.65
560.656	40391.23
560.855	40585.79
561.054	40288.84
561.253	40094.28
561.453	39842.38
561.652	40172.1
561.851	40032.84
562.05	39463.5
562.249	39666.25
562.448	40215.11
562.647	39535.18
562.846	39955.02
563.045	39596.62
563.244	39680.59
563.443	39516.75
563.642	39189.08
563.841	39547.47
564.04	39301.71
564.239	39578.19
564.438	39168.6
564.637	39541.33
564.836	39488.08
565.035	38648.41
565.234	38863.45
565.432	38879.83
565.631	38816.35
565.83	38879.83
566.029	38849.11
566.228	38756.96
566.427	38615.65
566.625	38609.5
566.824	38214.24
567.023	38953.56
567.222	37995.11
567.42	38691.42
567.619	38365.79
567.818	38236.77
568.016	38199.91
568.215	38386.27
568.414	38177.38
568.612	38175.33
568.811	37952.1
569.01	38050.41
569.208	37417.58
569.407	37612.14
569.605	37208.69
569.804	37526.13
570.002	36917.88
570.201	37841.51
570.4	37270.13
570.598	37137.01
570.797	37087.86
570.995	37360.24
571.193	37028.47
571.392	36872.82
571.59	36612.73
571.789	36491.9
571.987	36702.84
572.186	37143.16
572.384	36637.31
572.582	36610.68
572.781	36749.95
572.979	36031.11
573.177	36524.67
573.376	36309.63
573.574	35773.06
573.772	36280.96
573.971	36156.03
574.169	35957.38
574.367	35572.36
574.565	36168.32
574.763	35816.07
574.962	35717.77
575.16	35519.12
575.358	35615.37
575.556	35152.53
575.754	35537.55
575.952	35011.22
576.151	35267.22
576.349	35302.03
576.547	34726.55
576.745	35103.38
576.943	35017.36
577.141	34861.72
577.339	34810.52
577.537	34611.87
577.735	34554.52
577.933	34284.19
578.131	34392.73
578.329	34421.41
578.527	34382.49
578.725	34534.04
578.923	34310.82
579.121	34026.15
579.319	34054.82
579.516	34259.62
579.714	34097.83
579.912	33618.6
580.11	33796.77
580.308	34001.57
580.506	33667.75
580.704	33092.27
580.901	33698.47
581.099	33147.57
581.297	32924.34
581.495	33411.76
581.692	32838.33
581.89	32670.39
582.088	33213.1
582.285	32699.06
582.483	33131.19
582.681	32916.15
582.878	32672.44
583.076	32570.04
583.274	32760.5
583.471	32152.26
583.669	32797.37
583.866	32365.24
584.064	32805.56
584.262	31767.24
584.459	32164.54
584.657	31945.41
584.854	32070.34
585.052	31548.11
585.249	32105.15
585.447	31937.22
585.644	31091.41
585.841	31232.72
586.039	31695.56
586.236	31257.29
586.434	31390.41
586.631	31027.92
586.828	31457.99
587.026	31150.8
587.223	31185.61
587.42	30816.98
587.618	30943.95
587.815	30466.78
588.012	30261.98
588.21	30716.63
588.407	30563.03
588.604	30264.03
588.801	30171.87
588.999	30341.85
589.196	29788.9
589.393	30059.23
589.59	29864.67
589.787	30001.89
589.984	29641.45
590.182	29317.87
590.379	29721.32
590.576	29432.55
590.773	29229.8
590.97	28992.24
591.167	29238
591.364	29156.08
591.561	29346.54
591.758	28914.42
591.955	28904.18
592.152	28812.02
592.349	28664.57
592.546	28844.79
592.743	28986.1
592.94	27849.47
593.137	28642.04
593.334	28631.8
593.531	27925.25
593.727	28416.76
593.924	27902.72
594.121	27931.39
594.318	28295.93
594.515	27886.34
594.712	28343.03
594.908	27908.86
595.105	28185.34
595.302	27460.36
595.499	27566.85
595.696	27491.08
595.892	27360.01
596.089	27558.66
596.286	27312.91
596.482	27687.68
596.679	27280.14
596.876	27187.98
597.072	27044.62
597.269	27052.81
597.466	26837.78
597.662	26880.78
597.859	26888.98
598.055	26495.77
598.252	26485.53
598.448	26411.8
598.645	26628.88
598.841	26190.62
599.038	26512.15
599.234	26262.3
599.431	26327.83
599.627	25852.7
599.824	26235.67
600.02	25801.5
600.217	25926.43
600.413	25989.92
600.609	25486.12
600.806	25766.69
601.002	25615.14
601.198	25344.81
601.395	25203.5
601.591	25346.86
601.787	25506.6
601.984	24941.36
602.18	25535.27
602.376	24867.63
602.572	24965.93
602.769	24738.61
602.965	24945.45
603.161	24736.56
603.357	24666.93
603.553	24750.9
603.75	24613.68
603.946	24392.5
604.142	24546.1
604.338	24109.88
604.534	24300.34
604.73	24128.31
604.926	24128.31
605.122	24128.31
605.318	23944
605.514	23675.71
605.71	23827.26
605.906	23647.04
606.102	23642.95
606.298	23857.98
606.494	23683.91
606.69	23749.44
606.886	23776.06
607.082	23112.52
607.278	23515.97
607.474	23212.87
607.67	23436.1
607.866	22934.35
608.062	23309.13
608.257	23016.27
608.453	23380.81
608.649	23145.29
608.845	23061.32
609.041	22885.2
609.236	22856.53
609.432	22549.33
609.628	22555.47
609.824	22582.1
610.019	22645.59
610.215	22698.83
610.411	22852.43
610.606	22385.49
610.802	22530.9
610.998	22451.03
611.193	22606.67
611.389	22180.7
611.584	22518.61
611.78	22287.19
611.976	22477.65
612.171	22430.55
612.367	22309.72
612.562	22342.49
612.758	21930.84
612.953	21914.46
613.149	22016.86
613.344	21943.13
613.539	22178.65
613.735	22006.62
613.93	21947.23
614.126	21732.19
614.321	22207.32
614.517	21707.62
614.712	21891.93
614.907	21408.61
615.103	21822.3
615.298	21336.93
615.493	21687.14
615.688	21173.1
615.884	21977.95
616.079	21181.29
616.274	21476.19
616.47	21338.98
616.665	21539.68
616.86	21425
617.055	21185.38
617.25	21234.53
617.445	21470.05
617.641	20829.04
617.836	21222.25
618.031	20886.38
618.226	20886.38
618.421	20820.84
618.616	20851.56
618.811	20554.61
619.006	20743.02
619.201	20609.9
619.396	20601.71
619.591	20267.89
619.786	20417.4
619.981	20038.52
620.176	20390.77
620.371	20009.85
620.566	20056.95
620.761	19673.98
620.956	20317.04
621.151	19919.74
621.346	20061.05
621.541	19590.02
621.735	19557.25
621.93	19598.21
622.125	19563.39
622.32	18953.1
622.515	19352.45
622.709	18918.28
622.904	19084.17
623.099	19059.59
623.294	18779.02
623.488	18572.18
623.683	18674.57
623.878	18246.55
624.072	18369.43
624.267	18375.57
624.462	18385.81
624.656	18168.73
624.851	18019.22
625.046	17998.74
625.24	18011.03
625.435	17507.23
625.629	17619.87
625.824	17523.62
626.018	17630.11
626.213	17052.58
626.407	17161.12
626.602	16903.08
626.796	17429.41
626.991	17136.55
627.185	16923.56
627.38	16935.85
627.574	16769.96
627.768	16534.45
627.963	16694.19
628.157	16425.9
628.352	16397.23
628.546	16112.56
628.74	16311.22
628.935	16059.32
629.129	16106.42
629.323	16014.26
629.517	16133.04
629.712	15676.35
629.906	15819.71
630.1	15485.89
630.294	15735.74
630.489	15608.76
630.683	15530.94
630.877	15250.37
631.071	15332.29
631.265	15408.06
631.459	15082.44
631.653	15023.05
631.848	14844.87
632.042	14678.99
632.236	14973.89
632.43	14705.61
632.624	14851.02
632.818	14566.35
633.012	14554.06
633.206	14527.44
633.4	14304.21
633.594	14328.78
633.788	14232.53
633.982	14128.08
634.176	14166.99
634.369	13999.06
634.563	14064.6
634.757	13870.04
634.951	13876.18
635.145	13749.21
635.339	13552.6
635.533	13433.82
635.726	13603.8
635.92	13603.8
636.114	13315.04
636.308	13378.53
636.501	13214.69
636.695	13319.14
636.889	13022.18
637.083	12987.36
637.276	12919.78
637.47	12882.92
637.664	12729.32
637.857	12803.05
638.051	12545
638.244	12473.32
638.438	12760.04
638.632	12477.42
638.825	12282.86
639.019	12413.93
639.212	12305.39
639.406	12430.32
639.599	12186.61
639.793	12006.39
639.986	11826.17
640.18	12049.39
640.373	11987.96
640.567	11973.62
640.76	11961.33
640.954	11779.06
641.147	11676.66
641.34	11320.32
641.534	11531.26
641.727	11555.83
641.92	11461.63
642.114	11445.24
642.307	11308.03
642.5	11428.86
642.694	11092.99
642.887	11203.58
643.08	11281.41
643.273	11002.88
643.467	11031.55
643.66	10877.96
643.853	10853.38
644.046	10826.76
644.239	10826.76
644.432	10677.26
644.626	10478.6
644.819	10593.29
645.012	10578.95
645.205	10472.46
645.398	10427.4
645.591	10333.2
645.784	10441.74
645.977	10058.77
646.17	10415.12
646.363	10036.24
646.556	10142.74
646.749	9966.61
646.942	10187.79
647.135	9954.32
647.328	9815.06
647.521	9927.7
647.714	9565.21
647.907	9780.25
648.099	9804.82
648.292	9731.09
648.485	9688.09
648.678	9600.02
648.871	9514.01
649.064	9399.32
649.256	9403.42
649.449	9366.56
649.642	9118.75
649.835	9157.66
650.027	9002.02
650.22	9194.53
650.413	9223.2
650.605	9055.26
650.798	8854.56
650.991	8967.2
651.183	8950.82
651.376	8717.35
651.568	8993.83
651.761	8807.46
651.954	8846.37
652.146	8997.92
652.339	8483.88
652.531	8627.24
652.724	8533.03
652.916	8463.4
653.109	8549.42
653.301	8473.64
653.494	8440.87
653.686	8334.38
653.879	8363.05
654.071	8309.8
654.263	8213.55
654.456	8090.67
654.648	8274.99
654.84	7924.79
655.033	8080.43
655.225	7992.37
655.417	7984.18
655.61	7836.72
655.802	7900.21
655.994	7992.37
656.186	7928.88
656.379	7734.32
656.571	7711.8
656.763	7633.97
656.955	7709.75
657.148	7730.23
657.34	7599.16
657.532	7578.68
657.724	7447.61
657.916	7429.18
658.108	7523.38
658.3	7255.1
658.492	7267.39
658.684	7265.34
658.876	7218.24
659.068	7181.37
659.26	7150.65
659.452	7195.71
659.644	7107.65
659.836	7066.69
660.028	6982.72
660.22	6820.93
660.412	6863.94
660.604	6857.79
660.796	6880.32
660.988	6904.9
661.18	6779.97
661.372	6743.11
661.563	6784.07
661.755	6421.58
661.947	6673.48
662.139	6583.37
662.331	6612.04
662.522	6470.73
662.714	6667.33
662.906	6566.98
663.097	6517.83
663.289	6394.95
663.481	6364.23
663.673	6407.24
663.864	6437.96
664.056	6151.24
664.247	6249.55
664.439	6247.5
664.631	6196.3
664.822	6136.91
665.014	6108.24
665.205	6042.7
665.397	6102.09
665.588	6044.75
665.78	6126.67
665.971	5839.95
666.163	5962.83
666.354	5946.45
666.546	5790.8
666.737	5842
666.929	5813.33
667.12	5829.71
667.311	5870.67
667.503	5659.73
667.694	5667.92
667.885	5631.06
668.077	5698.64
668.268	5573.72
668.459	5594.2
668.651	5495.89
668.842	5514.33
669.033	5342.3
669.224	5395.54
669.416	5405.78
669.607	5366.87
669.798	5512.28
669.989	5332.06
670.18	5280.86
670.371	5446.74
670.563	5233.75
670.754	5309.53
670.945	5133.4
671.136	5174.36
671.327	5112.92
671.518	5235.8
671.709	5200.99
671.9	5291.1
672.091	5051.49
672.282	5096.54
672.473	5018.72
672.664	4998.24
672.855	4936.8
673.046	4942.94
673.237	4895.84
673.428	4826.21
673.619	4899.94
673.809	4875.36
674	4916.32
674.191	4881.5
674.382	4750.43
674.573	4783.2
674.764	4813.92
674.954	4779.11
675.145	4879.46
675.336	4629.6
675.527	4711.52
675.717	4787.3
675.908	4574.31
676.099	4594.79
676.289	4668.52
676.48	4605.03
676.671	4529.25
676.861	4488.29
677.052	4578.4
677.243	4551.78
677.433	4443.24
677.624	4592.74
677.814	4422.76
678.005	4543.59
678.195	4478.05
678.386	4379.75
678.576	4363.37
678.767	4346.98
678.957	4293.74
679.148	4387.94
679.338	4308.07
679.529	4217.96
679.719	4308.07
679.909	4308.07
680.1	4088.94
680.29	4353.13
680.481	4256.87
680.671	4252.78
680.861	4041.84
681.052	4076.65
681.242	4187.24
681.432	4160.62
681.622	4107.37
681.813	4123.76
682.003	3982.45
682.193	4037.74
682.383	4240.49
682.573	4158.57
682.764	3959.92
682.954	4076.65
683.144	3945.58
683.334	3957.87
683.524	3880.05
683.714	3916.91
683.904	3800.18
684.094	3918.96
684.284	3855.47
684.474	4045.93
684.664	3970.16
684.854	3808.37
685.044	3822.7
685.234	3892.34
685.424	3812.46
685.614	3619.96
685.804	3777.65
685.994	3896.43
686.184	3628.15
686.374	3740.79
686.564	3773.55
686.753	3642.48
686.943	3564.66
687.133	3708.02
687.323	3515.51
687.513	3622
687.702	3605.62
687.892	3554.42
688.082	3605.62
688.272	3568.76
688.461	3527.8
688.651	3509.37
688.841	3527.8
689.03	3396.73
689.22	3521.65
689.41	3419.25
689.599	3380.34
689.789	3366.01
689.979	3357.82
690.168	3429.49
690.358	3429.49
690.547	3413.11
690.737	3308.66
690.926	3372.15
691.116	3241.08
691.305	3333.24
691.495	3380.34
691.684	3310.71
691.874	3218.55
692.063	3251.32
692.252	3243.13
692.442	3142.78
692.631	3216.51
692.82	3249.27
693.01	3241.08
693.199	3308.66
693.388	3064.96
693.578	3257.46
693.767	3058.81
693.956	3228.79
694.146	3130.49
694.335	3107.96
694.524	3028.09
694.713	3017.85
694.902	2886.78
695.092	2917.5
695.281	3030.14
695.47	2925.69
695.659	3036.28
695.848	2856.06
696.037	2954.37
696.226	2948.22
696.415	2950.27
696.604	2966.65
696.793	3015.8
696.982	3046.52
697.171	2899.07
697.36	2841.73
697.549	2897.02
697.738	2751.62
697.927	2927.74
698.116	2892.93
698.305	2831.49
698.494	2864.25
698.683	2864.25
698.872	2911.36
699.061	2927.74
699.25	2692.23
699.438	2872.45
699.627	2729.09
699.816	2733.18
700.005	2872.45
700.193	2727.04
700.382	2751.62
700.571	2831.49
700.76	2827.39
700.948	2696.32
701.137	2962.56
701.326	2819.2
701.514	2706.56
701.703	2741.38
701.892	2638.98
702.08	2831.49
702.269	2768
702.457	2667.65
702.646	2716.8
702.834	2645.12
703.023	2610.31
703.212	2616.45
703.4	2784.38
703.589	2700.42
703.777	2645.12
703.965	2616.45
704.154	2774.14
704.342	2626.69
704.531	2628.74
704.719	2571.4
704.907	2618.5
705.096	2561.16
705.284	2630.79
705.472	2700.42
705.661	2561.16
705.849	2595.97
706.037	2604.16
706.226	2544.77
706.414	2493.57
706.602	2602.11
706.79	2593.92
706.979	2503.81
707.167	2503.81
707.355	2483.33
707.543	2495.62
707.731	2495.62
707.919	2544.77
708.107	2569.35
708.296	2598.02
708.484	2528.39
708.672	2514.05
708.86	2536.58
709.048	2602.11
709.236	2532.48
709.424	2548.87
709.612	2440.33
709.8	2434.18
709.988	2321.54
710.176	2516.1
710.364	2495.62
710.551	2444.42
710.739	2387.08
710.927	2462.85
711.115	2446.47
711.303	2473.09
711.491	2487.43
711.679	2323.59
711.866	2413.7
712.054	2327.69
712.242	2366.6
712.43	2505.86
712.617	2380.93
712.805	2446.47
712.993	2374.79
713.181	2321.54
713.368	2309.26
713.556	2391.17
713.744	2362.5
713.931	2442.37
714.119	2374.79
714.306	2380.93
714.494	2376.84
714.682	2423.94
714.869	2374.79
715.057	2299.02
715.244	2403.46
715.432	2245.77
715.619	2276.49
715.807	2213
715.994	2354.31
716.182	2299.02
716.369	2299.02
716.556	2335.88
716.744	2186.38
716.931	2172.04
717.119	2176.14
717.306	2167.95
717.493	2376.84
717.681	2260.1
717.868	2184.33
718.055	2229.38
718.242	2202.76
718.43	2331.78
718.617	2243.72
718.804	2264.2
718.991	2319.5
719.179	2317.45
719.366	2274.44
719.553	2104.46
719.74	2217.1
719.927	2204.81
720.114	2131.08
720.301	2208.9
720.488	2184.33
720.676	2165.9
720.863	2213
721.05	2073.74
721.237	1995.92
721.424	2071.69
721.611	2167.95
721.798	2061.45
721.985	2045.07
722.172	2108.55
722.358	1993.87
722.545	2169.99
722.732	2133.13
722.919	2071.69
723.106	2118.79
723.293	2028.68
723.48	2081.93
723.667	2155.66
723.853	2026.64
724.04	2178.19
724.227	1967.24
724.414	2086.03
724.6	2094.22
724.787	2012.3
724.974	2028.68
725.161	1985.68
725.347	2081.93
725.534	2030.73
725.72	2004.11
725.907	1924.24
726.094	2053.26
726.28	1950.86
726.467	2045.07
726.653	1950.86
726.84	1940.62
727.027	2110.6
727.213	1905.81
727.4	1961.1
727.586	1967.24
727.773	1991.82
727.959	1911.95
728.145	1914
728.332	2014.35
728.518	1918.09
728.705	1975.44
728.891	1926.29
729.077	1914
729.264	1959.05
729.45	1889.42
729.636	2020.49
729.823	1873.04
730.009	1961.1
730.195	1993.87
730.382	1905.81
730.568	1948.81
730.754	1944.72
730.94	1914
731.126	1885.33
731.313	1795.22
731.499	1836.17
731.685	1883.28
731.871	1928.33
732.057	1762.45
732.243	1866.89
732.429	1930.38
732.615	1895.57
732.801	1969.29
732.987	1811.6
733.173	1797.26
733.359	1840.27
733.545	1907.85
733.731	1793.17
733.917	1784.98
734.103	1897.61
734.289	1866.89
734.475	1760.4
734.661	1766.54
734.847	1782.93
735.033	1840.27
735.219	1817.74
735.404	1770.64
735.59	1768.59
735.776	1778.83
735.962	1746.06
736.148	1803.41
736.333	1836.17
736.519	1750.16
736.705	1672.34
736.89	1725.58
737.076	1637.52
737.262	1791.12
737.447	1766.54
737.633	1756.3
737.819	1725.58
738.004	1752.21
738.19	1713.3
738.375	1559.7
738.561	1782.93
738.747	1713.3
738.932	1649.81
739.118	1758.35
739.303	1696.91
739.489	1641.62
739.674	1606.8
739.859	1676.43
740.045	1672.34
740.23	1621.14
740.416	1580.18
740.601	1498.26
740.786	1553.55
740.972	1539.22
741.157	1619.09
741.342	1553.55
741.528	1500.31
741.713	1653.91
741.898	1553.55
742.084	1608.85
742.269	1584.27
742.454	1537.17
742.639	1619.09
742.824	1471.64
743.01	1578.13
743.195	1586.32
743.38	1637.52
743.565	1488.02
743.75	1481.88
743.935	1541.27
744.12	1522.84
744.305	1574.03
744.49	1506.45
744.675	1498.26
744.86	1471.64
745.045	1481.88
745.23	1402.01
745.415	1440.92
745.6	1442.96
745.785	1348.76
745.97	1485.97
746.155	1430.68
746.34	1434.77
746.525	1453.2
746.71	1389.72
746.895	1299.61
747.079	1365.14
747.264	1320.09
747.449	1344.66
747.634	1404.05
747.819	1512.6
748.003	1295.51
748.188	1315.99
748.373	1299.61
748.557	1369.24
748.742	1311.89
748.927	1283.22
749.111	1373.33
749.296	1318.04
749.481	1299.61
749.665	1281.18
749.85	1137.82
750.034	1356.95
750.219	1217.69
750.404	1131.67
750.588	1250.46
750.773	1170.58
750.957	1172.63
751.141	1217.69
751.326	1176.73
751.51	1076.38
751.695	1105.05
751.879	1221.78
752.064	1166.49
752.248	1184.92
752.432	1168.54
752.617	1154.2
752.801	1174.68
752.985	1098.91
753.17	1105.05
753.354	1098.91
753.538	1139.87
753.722	1021.08
753.907	1121.43
754.091	1076.38
754.275	1103
754.459	1105.05
754.643	1078.43
754.828	1168.54
755.012	978.08
755.196	980.12
755.38	1004.7
755.564	949.4
755.748	1062.04
755.932	1062.04
756.116	1004.7
756.3	1088.67
756.484	988.32
756.668	933.02
756.852	904.35
757.036	842.91
757.22	924.83
757.404	1021.08
757.588	898.2
757.772	1004.7
757.956	869.53
758.14	992.41
758.323	908.44
758.507	1039.51
758.691	928.92
758.875	910.49
759.059	892.06
759.242	859.29
759.426	885.92
759.61	939.16
759.794	1002.65
759.977	885.92
760.161	908.44
760.345	861.34
760.528	887.97
760.712	851.1
760.895	861.34
761.079	836.77
761.263	869.53
761.446	875.68
761.63	801.95
761.813	873.63
761.997	863.39
762.18	918.68
762.364	890.01
762.547	730.27
762.731	832.67
762.914	791.71
763.098	799.9
763.281	818.33
763.464	865.44
763.648	799.9
763.831	920.73
764.015	812.19
764.198	857.25
764.381	742.56
764.564	775.33
764.748	816.29
764.931	775.33
765.114	791.71
765.297	763.04
765.481	728.22
765.664	730.27
765.847	707.74
766.03	763.04
766.213	687.26
766.397	685.22
766.58	760.99
766.763	742.56
766.946	746.66
767.129	746.66
767.312	650.4
767.495	701.6
767.678	742.56
767.861	726.18
768.044	801.95
768.227	767.13
768.41	677.02
768.593	677.02
768.776	683.17
768.959	711.84
769.142	677.02
769.324	646.3
769.507	697.5
769.69	722.08
769.873	683.17
770.056	763.04
770.239	752.8
770.421	709.79
770.604	672.93
770.787	711.84
770.97	685.22
771.152	597.15
771.335	660.64
771.518	693.41
771.7	697.5
771.883	738.46
772.066	720.03
772.248	631.97
772.431	648.35
772.613	677.02
772.796	666.78
772.978	615.59
773.161	648.35
773.343	586.91
773.526	580.77
773.708	562.34
773.891	636.06
774.073	617.63
774.256	597.15
774.438	644.26
774.621	652.45
774.803	611.49
774.985	619.68
775.168	580.77
775.35	603.3
775.532	615.59
775.715	586.91
775.897	580.77
776.079	484.52
776.261	593.06
776.444	580.77
776.626	562.34
776.808	570.53
776.99	562.34
777.173	511.14
777.355	523.43
777.537	545.95
777.719	464.04
777.901	515.23
778.083	527.52
778.265	496.8
778.447	640.16
778.629	459.94
778.811	548
778.993	500.9
779.175	548
779.357	521.38
779.539	502.95
779.721	513.19
779.903	578.72
780.085	464.04
780.267	525.47
780.449	466.08
780.631	439.46
780.812	461.99
780.994	521.38
781.176	488.61
781.358	515.23
781.54	435.36
781.721	492.71
781.903	478.37
782.085	476.32
782.267	517.28
782.448	476.32
782.63	400.55
782.812	378.02
782.993	357.54
783.175	382.12
783.357	392.36
783.538	480.42
783.72	373.92
783.901	423.08
784.083	418.98
784.264	416.93
784.446	396.45
784.627	357.54
784.809	449.7
784.99	347.3
785.172	414.88
785.353	398.5
785.535	363.69
785.716	433.32
785.897	373.92
786.079	316.58
786.26	320.68
786.441	353.45
786.623	355.49
786.804	406.69
786.985	365.73
787.167	361.64
787.348	310.44
787.529	304.29
787.71	400.55
787.891	246.95
788.073	337.06
788.254	300.2
788.435	341.16
788.616	384.16
788.797	312.49
788.978	332.97
789.159	320.68
789.34	316.58
789.522	265.38
789.703	353.45
789.884	259.24
790.065	292.01
790.246	357.54
790.427	242.85
790.607	335.01
790.788	322.73
790.969	292.01
791.15	365.73
791.331	238.76
791.512	314.53
791.693	281.77
791.874	257.19
792.054	287.91
792.235	300.2
792.416	261.29
792.597	285.86
792.778	324.77
792.958	261.29
793.139	261.29
793.32	255.14
793.5	279.72
793.681	316.58
793.862	255.14
794.042	285.86
794.223	228.52
794.404	255.14
794.584	261.29
794.765	244.9
794.945	277.67
795.126	208.04
795.306	214.18
795.487	275.62
795.667	251.05
795.848	201.9
796.028	251.05
796.209	242.85
796.389	289.96
796.57	285.86
796.75	255.14
796.93	226.47
797.111	201.9
797.291	158.89
797.471	177.32
797.652	273.57
797.832	212.14
798.012	242.85
798.192	169.13
798.373	144.55
798.553	160.94
798.733	236.71
798.913	181.42
799.093	210.09
799.274	236.71
799.454	238.76
799.634	210.09
799.814	210.09
799.994	251.05
800.174	277.67
800.354	218.28
800.534	111.78
800.714	169.13
800.894	187.56
801.074	171.18
801.254	158.89
801.434	205.99
801.614	228.52
801.794	212.14
801.974	801.95
802.154	152.74
802.334	185.51
802.514	179.37
802.693	173.22
802.873	187.56
803.053	156.84
803.233	242.85
803.413	255.14
803.592	226.47
803.772	169.13
803.952	138.41
804.131	146.6
804.311	148.65
804.491	181.42
804.67	165.03
804.85	144.55
805.03	183.46
805.209	146.6
805.389	218.28
805.568	199.85
805.748	189.61
805.928	152.74
806.107	210.09
806.287	187.56
806.466	210.09
806.646	162.98
806.825	136.36
807.004	210.09
807.184	179.37
807.363	160.94
807.543	148.65
807.722	177.32
807.901	195.75
808.081	185.51
808.26	122.02
808.439	187.56
808.619	152.74
808.798	165.03
808.977	136.36
809.156	113.83
809.336	167.08
809.515	177.32
809.694	58.54
809.873	187.56
810.052	165.03
810.231	210.09
810.411	195.75
810.59	119.98
810.769	142.5
810.948	177.32
811.127	113.83
811.306	111.78
811.485	66.73
811.664	187.56
811.843	83.11
812.022	173.22
812.201	199.85
812.38	179.37
812.559	162.98
812.737	212.14
812.916	105.64
813.095	111.78
813.274	152.74
813.453	119.98
813.632	169.13
813.811	191.66
813.989	136.36
814.168	158.89
814.347	169.13
814.526	111.78
814.704	232.62
814.883	160.94
815.062	76.97
815.24	72.87
815.419	54.44
815.598	138.41
815.776	185.51
815.955	89.26
816.133	99.5
816.312	136.36
816.49	66.73
816.669	111.78
816.847	201.9
817.026	119.98
817.204	189.61
817.383	130.22
817.561	62.63
817.74	179.37
817.918	81.07
818.097	148.65
818.275	119.98
818.453	130.22
818.632	81.07
818.81	162.98
818.988	132.26
819.167	134.31
819.345	126.12
819.523	40.11
819.701	70.83
819.879	122.02
820.058	115.88
820.236	173.22
820.414	91.31
820.592	144.55
820.77	42.15
820.948	58.54
821.127	46.25
821.305	99.5
821.483	31.91
821.661	119.98
821.839	68.78
822.017	70.83
822.195	130.22
822.373	124.07
822.551	54.44
822.729	156.84
822.907	109.74
823.085	128.17
823.262	48.3
823.44	70.83
823.618	56.49
823.796	146.6
823.974	70.83
824.152	68.78
824.329	33.96
824.507	50.35
824.685	62.63
824.863	50.35
825.04	85.16
825.218	169.13
825.396	13.48
825.574	97.45
825.751	64.68
825.929	46.25
826.107	91.31
826.284	33.96
826.462	103.59
826.639	97.45
826.817	29.87
826.994	136.36
827.172	64.68
827.349	111.78
827.527	119.98
827.704	105.64
827.882	74.92
828.059	29.87
828.237	64.68
828.414	91.31
828.591	5.29
828.769	152.74
828.946	50.35
829.124	38.06
829.301	87.21
829.478	97.45
829.655	5.29
829.833	40.11
830.01	87.21
830.187	62.63
830.364	70.83
830.542	58.54
830.719	152.74
830.896	89.26
831.073	38.06
831.25	48.3
831.427	81.07
831.604	117.93
831.782	103.59
831.959	136.36
832.136	158.89
832.313	62.63
832.49	72.87
832.667	62.63
832.844	83.11
833.021	64.68
833.198	72.87
833.374	46.25
833.551	58.54
833.728	81.07
833.905	79.02
834.082	60.59
834.259	97.45
834.436	87.21
834.612	87.21
834.789	58.54
834.966	62.63
835.143	46.25
835.319	-56.15
835.496	33.96
835.673	9.39
835.85	103.59
836.026	74.92
836.203	95.4
836.38	5.29
836.556	111.78
836.733	-41.81
836.909	136.36
837.086	101.55
837.262	48.3
837.439	70.83
837.616	-0.85
837.792	99.5
837.968	93.35
838.145	79.02
838.321	95.4
838.498	17.58
838.674	70.83
838.851	113.83
839.027	-4.95
839.203	42.15
839.38	36.01
839.556	83.11
839.732	64.68
839.909	103.59
840.085	29.87
840.261	70.83
840.437	109.74
840.614	72.87
840.79	154.79
840.966	72.87
841.142	31.91
841.318	62.63
841.494	36.01
841.671	79.02
841.847	13.48
842.023	62.63
842.199	25.77
842.375	48.3
842.551	46.25
842.727	40.11
842.903	62.63
843.079	21.67
843.255	29.87
843.431	97.45
843.607	46.25
843.783	-17.24
843.959	105.64
844.134	91.31
844.31	95.4
844.486	23.72
844.662	-11.09
844.838	62.63
845.013	101.55
845.189	113.83
845.365	62.63
845.541	13.48
845.716	-7
845.892	146.6
846.068	70.83
846.244	29.87
846.419	97.45
846.595	9.39
846.77	48.3
846.946	62.63
847.122	5.29
847.297	74.92
847.473	70.83
847.648	62.63
847.824	5.29
847.999	-2.9
848.175	44.2
848.35	89.26
848.526	-2.9
848.701	52.39
848.876	95.4
849.052	48.3
849.227	64.68
849.403	5.29
849.578	68.78
849.753	17.58
849.929	64.68
850.104	-23.38
850.279	25.77
850.454	33.96
850.63	62.63
850.805	-4.95
850.98	27.82
851.155	62.63
851.33	40.11
851.505	38.06
851.681	107.69
851.856	-2.9
852.031	25.77
852.206	52.39
852.381	58.54
852.556	58.54
852.731	13.48
852.906	58.54
853.081	62.63
853.256	79.02
853.431	105.64
853.606	25.77
853.781	21.67
853.956	-0.85
854.131	33.96
854.305	-66.39
854.48	62.63
854.655	27.82
854.83	60.59
855.005	40.11
855.18	36.01
855.354	-27.48
855.529	70.83
855.704	15.53
855.879	91.31
856.053	23.72
856.228	-17.24
856.403	29.87
856.577	23.72
856.752	15.53
856.926	93.35
857.101	13.48
857.276	38.06
857.45	38.06
857.625	74.92
857.799	-7
857.974	19.63
858.148	87.21
858.323	-4.95
858.497	11.43
858.672	-19.29
858.846	50.35
859.02	31.91
859.195	-7
859.369	48.3
859.543	74.92
859.718	13.48
859.892	-19.29
860.066	97.45
860.241	40.11
860.415	33.96
860.589	89.26
860.763	46.25
860.938	50.35
861.112	21.67
861.286	19.63
861.46	132.26
861.634	31.91
861.808	119.98
861.982	-23.38
862.157	91.31
862.331	48.3
862.505	-39.76
862.679	40.11
862.853	23.72
863.027	5.29
863.201	38.06
863.375	-0.85
863.549	31.91
863.722	29.87
863.896	95.4
864.07	-43.86
864.244	62.63
864.418	-27.48
864.592	7.34
864.766	-15.19
864.939	36.01
865.113	40.11
865.287	46.25
865.461	-33.62
865.634	17.58
865.808	1.19
865.982	50.35
866.156	21.67
866.329	36.01
866.503	72.87
866.676	46.25
866.85	-11.09
867.024	62.63
867.197	62.63
867.371	17.58
867.544	-41.81
867.718	21.67
867.891	70.83
868.065	9.39
868.238	9.39
868.412	46.25
868.585	3.24
868.759	52.39
868.932	-13.14
869.105	56.49
869.279	54.44
869.452	-21.33
869.625	-25.43
869.799	25.77
869.972	19.63
870.145	36.01
870.319	68.78
870.492	-52.05
870.665	-35.67
870.838	-29.52
871.011	33.96
871.185	33.96
871.358	-17.24
871.531	5.29
871.704	46.25
871.877	62.63
872.05	81.07
872.223	-27.48
872.396	17.58
872.569	-52.05
872.742	-29.52
872.915	46.25
873.088	19.63
873.261	11.43
873.434	31.91
873.607	23.72
873.78	29.87
873.953	19.63
874.126	38.06
874.299	15.53
874.471	7.34
874.644	-47.96
874.817	48.3
874.99	130.22
875.163	38.06
875.335	66.73
875.508	62.63
875.681	66.73
875.853	-23.38
876.026	33.96
876.199	29.87
876.371	40.11
876.544	54.44
876.717	-0.85
876.889	-25.43
877.062	38.06
877.234	-11.09
877.407	-33.62
877.579	21.67
877.752	31.91
877.924	15.53
878.097	-19.29
878.269	46.25
878.442	46.25
878.614	46.25
878.786	42.15
878.959	42.15
879.131	21.67
879.303	-13.14
879.476	-0.85
879.648	-13.14
879.82	-80.72
879.993	40.11
880.165	54.44
880.337	21.67
880.509	3.24
880.681	-27.48
880.854	17.58
881.026	74.92
881.198	79.02
881.37	-25.43
881.542	5.29
881.714	-64.34
881.886	-7
882.058	-9.05
882.23	-35.67
882.402	38.06
882.574	81.07
882.746	50.35
882.918	52.39
883.09	-50
883.262	29.87
883.434	-0.85
883.606	-66.39
883.778	-84.82
883.95	13.48
884.122	25.77
884.293	81.07
884.465	7.34
884.637	13.48
884.809	29.87
884.98	29.87
885.152	66.73
885.324	9.39
885.496	-41.81
885.667	-11.09
885.839	-11.09
886.011	54.44
886.182	38.06
886.354	46.25
886.525	17.58
886.697	13.48
886.869	31.91
887.04	-50
887.212	-15.19
887.383	48.3
887.555	113.83
887.726	-25.43
887.897	81.07
888.069	72.87
888.24	38.06
888.412	46.25
888.583	9.39
888.754	5.29
888.926	-27.48
889.097	21.67
889.268	17.58
889.44	111.78
889.611	-13.14
889.782	-39.76
889.953	-47.96
890.125	83.11
890.296	-45.91
890.467	29.87
890.638	-9.05
890.809	29.87
890.98	29.87
891.151	15.53
891.323	79.02
891.494	54.44
891.665	13.48
891.836	-17.24
892.007	58.54
892.178	-33.62
892.349	74.92
892.52	46.25
892.691	62.63
892.862	-121.68
893.032	-13.14
893.203	23.72
893.374	70.83
893.545	-23.38
893.716	42.15
893.887	62.63
894.057	-9.05
894.228	-27.48
894.399	29.87
894.57	50.35
894.74	-29.52
894.911	23.72
895.082	29.87
895.253	89.26
895.423	38.06
895.594	5.29
895.764	15.53
895.935	54.44
896.106	25.77
896.276	-35.67
896.447	-72.53
896.617	-11.09
896.788	-50
896.958	-74.58
897.129	-39.76
897.299	-9.05
897.47	38.06
897.64	31.91
897.81	11.43
897.981	-39.76
898.151	9.39
898.322	21.67
898.492	1.19
898.662	36.01
898.832	54.44
899.003	-0.85
899.173	1.19
899.343	25.77
899.513	-56.15
