Data from USB4F104151__150__14-19-24-950.txt Node

Date: Thu Mar 13 14:19:24 EDT 2025
User: louis
Spectrometer: USB4F10415
Trigger mode: 4
Integration Time (sec): 2.000000E-2
Scans to average: 1
Electric dark correction enabled: true
Nonlinearity correction enabled: false
Boxcar width: 0
XAxis mode: Wavelengths
Number of Pixels in Spectrum: 3648
>>>>>Begin Spectral Data<<<<<
178.204	-113.49
178.424	-113.49
178.644	-113.49
178.864	-95.06
179.084	-99.16
179.304	15.53
179.524	-39.76
179.744	1.19
179.964	42.15
180.184	-47.96
180.404	52.39
180.624	17.58
180.844	19.63
181.064	-0.85
181.283	-58.2
181.503	3.24
181.723	-4.95
181.943	-82.77
182.163	87.21
182.383	-33.62
182.602	72.87
182.822	-9.05
183.042	50.35
183.262	48.3
183.482	-0.85
183.701	50.35
183.921	19.63
184.141	-72.53
184.361	85.16
184.58	7.34
184.8	-25.43
185.02	-70.48
185.239	27.82
185.459	-27.48
185.679	83.11
185.898	-9.05
186.118	42.15
186.338	83.11
186.557	40.11
186.777	-27.48
186.997	-17.24
187.216	7.34
187.436	-11.09
187.655	48.3
187.875	15.53
188.095	21.67
188.314	122.02
188.534	40.11
188.753	-13.14
188.973	97.45
189.192	-50
189.412	27.82
189.631	54.44
189.851	56.49
190.07	40.11
190.29	60.59
190.509	19.63
190.729	19.63
190.948	31.91
191.168	89.26
191.387	36.01
191.607	60.59
191.826	25.77
192.045	-33.62
192.265	27.82
192.484	44.2
192.704	31.91
192.923	15.53
193.142	81.07
193.362	36.01
193.581	-2.9
193.8	68.78
194.02	9.39
194.239	-76.63
194.458	-9.05
194.678	21.67
194.897	72.87
195.116	62.63
195.335	44.2
195.555	-31.57
195.774	50.35
195.993	42.15
196.212	-7
196.432	27.82
196.651	7.34
196.87	21.67
197.089	119.98
197.308	48.3
197.528	19.63
197.747	40.11
197.966	50.35
198.185	70.83
198.404	3.24
198.623	25.77
198.842	31.91
199.062	-7
199.281	40.11
199.5	58.54
199.719	68.78
199.938	-17.24
200.157	23.72
200.376	42.15
200.595	29.87
200.814	31.91
201.033	93.35
201.252	38.06
201.471	42.15
201.69	64.68
201.909	48.3
202.128	-23.38
202.347	60.59
202.566	9.39
202.785	-7
203.004	-33.62
203.223	115.88
203.442	-29.52
203.661	23.72
203.879	31.91
204.098	64.68
204.317	-2.9
204.536	-23.38
204.755	101.55
204.974	-17.24
205.193	113.83
205.411	103.59
205.63	33.96
205.849	58.54
206.068	7.34
206.287	-84.82
206.505	42.15
206.724	23.72
206.943	21.67
207.162	-39.76
207.381	87.21
207.599	40.11
207.818	9.39
208.037	48.3
208.255	-15.19
208.474	89.26
208.693	52.39
208.911	74.92
209.13	1.19
209.349	11.43
209.567	19.63
209.786	7.34
210.005	-0.85
210.223	17.58
210.442	-0.85
210.661	7.34
210.879	81.07
211.098	83.11
211.316	11.43
211.535	23.72
211.753	15.53
211.972	38.06
212.191	-50
212.409	17.58
212.628	17.58
212.846	27.82
213.065	62.63
213.283	66.73
213.502	15.53
213.72	-7
213.938	72.87
214.157	23.72
214.375	76.97
214.594	72.87
214.812	66.73
215.031	-2.9
215.249	93.35
215.467	36.01
215.686	23.72
215.904	99.5
216.122	-23.38
216.341	83.11
216.559	-33.62
216.778	19.63
216.996	60.59
217.214	40.11
217.432	-27.48
217.651	58.54
217.869	50.35
218.087	58.54
218.306	31.91
218.524	19.63
218.742	38.06
218.96	62.63
219.179	-50
219.397	-25.43
219.615	117.93
219.833	62.63
220.051	11.43
220.27	36.01
220.488	23.72
220.706	15.53
220.924	-0.85
221.142	25.77
221.36	33.96
221.578	-19.29
221.796	33.96
222.015	7.34
222.233	36.01
222.451	-9.05
222.669	-21.33
222.887	122.02
223.105	-82.77
223.323	-29.52
223.541	-9.05
223.759	-7
223.977	31.91
224.195	29.87
224.413	-29.52
224.631	72.87
224.849	58.54
225.067	70.83
225.285	31.91
225.503	50.35
225.721	-4.95
225.939	130.22
226.157	7.34
226.375	91.31
226.592	-23.38
226.81	50.35
227.028	81.07
227.246	144.55
227.464	17.58
227.682	83.11
227.9	50.35
228.117	93.35
228.335	25.77
228.553	-0.85
228.771	97.45
228.989	-78.68
229.206	58.54
229.424	50.35
229.642	-41.81
229.86	40.11
230.077	31.91
230.295	-9.05
230.513	19.63
230.731	81.07
230.948	27.82
231.166	64.68
231.384	40.11
231.601	1.19
231.819	97.45
232.037	3.24
232.254	-25.43
232.472	48.3
232.689	29.87
232.907	42.15
233.125	19.63
233.342	29.87
233.56	44.2
233.777	27.82
233.995	-52.05
234.213	48.3
234.43	38.06
234.648	54.44
234.865	31.91
235.083	3.24
235.3	31.91
235.518	-11.09
235.735	27.82
235.953	19.63
236.17	-7
236.388	36.01
236.605	40.11
236.822	19.63
237.04	1.19
237.257	-17.24
237.475	25.77
237.692	68.78
237.909	17.58
238.127	52.39
238.344	76.97
238.562	85.16
238.779	-11.09
238.996	-0.85
239.214	21.67
239.431	17.58
239.648	-33.62
239.865	42.15
240.083	36.01
240.3	33.96
240.517	48.3
240.735	58.54
240.952	76.97
241.169	62.63
241.386	66.73
241.603	72.87
241.821	-43.86
242.038	9.39
242.255	40.11
242.472	56.49
242.689	-54.1
242.907	23.72
243.124	27.82
243.341	33.96
243.558	48.3
243.775	-41.81
243.992	23.72
244.209	40.11
244.426	44.2
244.643	11.43
244.86	-31.57
245.078	5.29
245.295	-33.62
245.512	36.01
245.729	-41.81
245.946	111.78
246.163	25.77
246.38	76.97
246.597	74.92
246.814	-9.05
247.031	-7
247.248	48.3
247.464	40.11
247.681	58.54
247.898	7.34
248.115	-52.05
248.332	-52.05
248.549	103.59
248.766	66.73
248.983	-11.09
249.2	21.67
249.417	122.02
249.633	27.82
249.85	83.11
250.067	38.06
250.284	-9.05
250.501	-4.95
250.717	48.3
250.934	7.34
251.151	64.68
251.368	19.63
251.585	81.07
251.801	9.39
252.018	91.31
252.235	-17.24
252.451	-9.05
252.668	68.78
252.885	-7
253.102	29.87
253.318	-17.24
253.535	66.73
253.752	7.34
253.968	-37.72
254.185	44.2
254.401	17.58
254.618	5.29
254.835	19.63
255.051	115.88
255.268	9.39
255.484	40.11
255.701	44.2
255.917	19.63
256.134	25.77
256.351	66.73
256.567	1.19
256.784	56.49
257	-25.43
257.217	36.01
257.433	-64.34
257.65	27.82
257.866	66.73
258.082	-33.62
258.299	38.06
258.515	31.91
258.732	-45.91
258.948	-13.14
259.165	7.34
259.381	-13.14
259.597	56.49
259.814	58.54
260.03	-4.95
260.246	46.25
260.463	-21.33
260.679	-0.85
260.895	-47.96
261.112	-2.9
261.328	-25.43
261.544	-0.85
261.761	101.55
261.977	25.77
262.193	-25.43
262.409	13.48
262.626	107.69
262.842	58.54
263.058	-0.85
263.274	-15.19
263.49	58.54
263.707	97.45
263.923	56.49
264.139	-25.43
264.355	-47.96
264.571	58.54
264.787	27.82
265.004	15.53
265.22	70.83
265.436	-29.52
265.652	85.16
265.868	58.54
266.084	68.78
266.3	11.43
266.516	-47.96
266.732	-17.24
266.948	-33.62
267.164	48.3
267.38	40.11
267.596	19.63
267.812	52.39
268.028	25.77
268.244	46.25
268.46	38.06
268.676	89.26
268.892	64.68
269.108	-19.29
269.324	-60.24
269.54	-13.14
269.756	21.67
269.972	-39.76
270.188	97.45
270.403	19.63
270.619	-13.14
270.835	81.07
271.051	97.45
271.267	19.63
271.483	13.48
271.698	58.54
271.914	31.91
272.13	19.63
272.346	25.77
272.562	15.53
272.777	89.26
272.993	-0.85
273.209	-45.91
273.425	15.53
273.64	-58.2
273.856	44.2
274.072	19.63
274.287	-29.52
274.503	-39.76
274.719	13.48
274.934	31.91
275.15	3.24
275.366	36.01
275.581	33.96
275.797	115.88
276.012	83.11
276.228	21.67
276.444	-33.62
276.659	109.74
276.875	1.19
277.09	56.49
277.306	36.01
277.521	-11.09
277.737	5.29
277.952	40.11
278.168	33.96
278.383	72.87
278.599	-19.29
278.814	31.91
279.03	-0.85
279.245	1.19
279.461	56.49
279.676	81.07
279.892	1.19
280.107	-72.53
280.322	1.19
280.538	42.15
280.753	19.63
280.969	50.35
281.184	64.68
281.399	95.4
281.615	23.72
281.83	27.82
282.045	15.53
282.26	60.59
282.476	-39.76
282.691	48.3
282.906	7.34
283.122	56.49
283.337	-33.62
283.552	-25.43
283.767	-47.96
283.983	38.06
284.198	64.68
284.413	-19.29
284.628	-15.19
284.843	9.39
285.058	44.2
285.274	-2.9
285.489	44.2
285.704	66.73
285.919	-15.19
286.134	5.29
286.349	19.63
286.564	66.73
286.779	13.48
286.995	42.15
287.21	23.72
287.425	-0.85
287.64	3.24
287.855	15.53
288.07	-64.34
288.285	1.19
288.5	42.15
288.715	111.78
288.93	60.59
289.145	-4.95
289.36	74.92
289.575	-99.16
289.79	-2.9
290.004	-7
290.219	-29.52
290.434	70.83
290.649	40.11
290.864	81.07
291.079	-7
291.294	-0.85
291.509	-11.09
291.724	-25.43
291.938	-4.95
292.153	40.11
292.368	19.63
292.583	99.5
292.798	-17.24
293.012	64.68
293.227	31.91
293.442	31.91
293.657	130.22
293.871	44.2
294.086	15.53
294.301	56.49
294.516	93.35
294.73	68.78
294.945	11.43
295.16	-7
295.374	-47.96
295.589	36.01
295.804	-2.9
296.018	21.67
296.233	124.07
296.447	1.19
296.662	-21.33
296.877	56.49
297.091	42.15
297.306	17.58
297.52	50.35
297.735	76.97
297.949	-17.24
298.164	42.15
298.378	-13.14
298.593	76.97
298.807	48.3
299.022	33.96
299.236	101.55
299.451	11.43
299.665	56.49
299.88	-23.38
300.094	-0.85
300.309	1.19
300.523	60.59
300.737	9.39
300.952	-15.19
301.166	15.53
301.381	19.63
301.595	13.48
301.809	23.72
302.024	-9.05
302.238	68.78
302.452	105.64
302.667	64.68
302.881	132.26
303.095	-11.09
303.309	58.54
303.524	87.21
303.738	-7
303.952	64.68
304.166	72.87
304.381	-50
304.595	76.97
304.809	-37.72
305.023	-25.43
305.237	-17.24
305.452	29.87
305.666	38.06
305.88	85.16
306.094	56.49
306.308	33.96
306.522	-4.95
306.736	23.72
306.95	56.49
307.164	23.72
307.379	44.2
307.593	107.69
307.807	74.92
308.021	64.68
308.235	48.3
308.449	54.44
308.663	42.15
308.877	85.16
309.091	-13.14
309.305	-17.24
309.519	-7
309.733	97.45
309.947	7.34
310.161	52.39
310.374	-0.85
310.588	-15.19
310.802	85.16
311.016	132.26
311.23	3.24
311.444	42.15
311.658	-25.43
311.872	122.02
312.085	27.82
312.299	74.92
312.513	60.59
312.727	31.91
312.941	103.59
313.154	23.72
313.368	11.43
313.582	60.59
313.796	-27.48
314.009	36.01
314.223	93.35
314.437	52.39
314.651	56.49
314.864	5.29
315.078	-23.38
315.292	11.43
315.505	72.87
315.719	23.72
315.933	-21.33
316.146	7.34
316.36	50.35
316.573	-29.52
316.787	58.54
317.001	72.87
317.214	9.39
317.428	15.53
317.641	-45.91
317.855	-31.57
318.068	40.11
318.282	15.53
318.495	52.39
318.709	60.59
318.922	36.01
319.136	105.64
319.349	187.56
319.563	7.34
319.776	1.19
319.99	-25.43
320.203	85.16
320.417	40.11
320.63	25.77
320.843	79.02
321.057	-2.9
321.27	54.44
321.483	-9.05
321.697	48.3
321.91	-39.76
322.124	5.29
322.337	42.15
322.55	-52.05
322.763	-7
322.977	3.24
323.19	13.48
323.403	48.3
323.617	31.91
323.83	64.68
324.043	54.44
324.256	36.01
324.469	23.72
324.683	38.06
324.896	17.58
325.109	66.73
325.322	-37.72
325.535	-29.52
325.748	11.43
325.962	31.91
326.175	-0.85
326.388	58.54
326.601	31.91
326.814	42.15
327.027	76.97
327.24	60.59
327.453	-47.96
327.666	85.16
327.879	-13.14
328.092	89.26
328.305	48.3
328.518	66.73
328.731	128.17
328.944	44.2
329.157	19.63
329.37	68.78
329.583	31.91
329.796	99.5
330.009	-29.52
330.222	101.55
330.435	-9.05
330.648	50.35
330.861	76.97
331.073	85.16
331.286	64.68
331.499	7.34
331.712	-33.62
331.925	7.34
332.138	54.44
332.35	36.01
332.563	60.59
332.776	113.83
332.989	33.96
333.202	66.73
333.414	79.02
333.627	25.77
333.84	9.39
334.053	58.54
334.265	-2.9
334.478	1.19
334.691	-33.62
334.903	3.24
335.116	40.11
335.329	-4.95
335.541	81.07
335.754	50.35
335.966	5.29
336.179	25.77
336.392	66.73
336.604	89.26
336.817	7.34
337.029	64.68
337.242	15.53
337.454	-23.38
337.667	-17.24
337.88	56.49
338.092	38.06
338.305	31.91
338.517	5.29
338.729	-15.19
338.942	79.02
339.154	115.88
339.367	1.19
339.579	64.68
339.792	17.58
340.004	91.31
340.217	50.35
340.429	48.3
340.641	-37.72
340.854	7.34
341.066	52.39
341.278	97.45
341.491	81.07
341.703	21.67
341.915	40.11
342.128	42.15
342.34	38.06
342.552	15.53
342.764	72.87
342.977	89.26
343.189	74.92
343.401	56.49
343.613	7.34
343.826	-54.1
344.038	64.68
344.25	48.3
344.462	33.96
344.674	-17.24
344.886	1.19
345.099	62.63
345.311	56.49
345.523	19.63
345.735	-82.77
345.947	31.91
346.159	-74.58
346.371	-37.72
346.583	9.39
346.795	97.45
347.007	31.91
347.219	7.34
347.431	64.68
347.643	31.91
347.855	83.11
348.067	122.02
348.279	-39.76
348.491	105.64
348.703	-27.48
348.915	23.72
349.127	-58.2
349.339	66.73
349.551	-15.19
349.763	25.77
349.975	42.15
350.187	101.55
350.399	101.55
350.61	36.01
350.822	15.53
351.034	50.35
351.246	5.29
351.458	-15.19
351.669	52.39
351.881	-11.09
352.093	56.49
352.305	81.07
352.517	42.15
352.728	50.35
352.94	29.87
353.152	31.91
353.363	50.35
353.575	15.53
353.787	3.24
353.999	-31.57
354.21	-0.85
354.422	36.01
354.633	-11.09
354.845	9.39
355.057	23.72
355.268	23.72
355.48	50.35
355.692	15.53
355.903	33.96
356.115	-39.76
356.326	-37.72
356.538	48.3
356.749	-0.85
356.961	60.59
357.172	52.39
357.384	33.96
357.595	89.26
357.807	38.06
358.018	56.49
358.23	11.43
358.441	31.91
358.653	103.59
358.864	124.07
359.075	72.87
359.287	46.25
359.498	27.82
359.709	-7
359.921	-0.85
360.132	42.15
360.344	76.97
360.555	-7
360.766	-50
360.977	83.11
361.189	44.2
361.4	64.68
361.611	64.68
361.823	19.63
362.034	13.48
362.245	1.19
362.456	7.34
362.667	50.35
362.879	-47.96
363.09	7.34
363.301	1.19
363.512	25.77
363.723	52.39
363.935	23.72
364.146	64.68
364.357	38.06
364.568	64.68
364.779	19.63
364.99	23.72
365.201	11.43
365.412	33.96
365.623	58.54
365.834	36.01
366.045	33.96
366.256	107.69
366.467	70.83
366.678	48.3
366.889	81.07
367.1	81.07
367.311	46.25
367.522	9.39
367.733	25.77
367.944	117.93
368.155	56.49
368.366	74.92
368.577	66.73
368.788	81.07
368.999	-25.43
369.209	56.49
369.42	66.73
369.631	87.21
369.842	81.07
370.053	64.68
370.264	40.11
370.474	97.45
370.685	9.39
370.896	76.97
371.107	48.3
371.317	105.64
371.528	19.63
371.739	46.25
371.95	56.49
372.16	48.3
372.371	-21.33
372.582	81.07
372.792	13.48
373.003	128.17
373.214	54.44
373.424	64.68
373.635	87.21
373.846	99.5
374.056	87.21
374.267	85.16
374.477	89.26
374.688	-17.24
374.898	36.01
375.109	72.87
375.319	64.68
375.53	144.55
375.74	33.96
375.951	52.39
376.161	36.01
376.372	97.45
376.582	17.58
376.793	138.41
377.003	68.78
377.214	115.88
377.424	-15.19
377.635	-9.05
377.845	33.96
378.055	3.24
378.266	7.34
378.476	36.01
378.686	36.01
378.897	109.74
379.107	31.91
379.317	64.68
379.528	15.53
379.738	23.72
379.948	-2.9
380.158	13.48
380.369	81.07
380.579	27.82
380.789	44.2
380.999	89.26
381.21	-4.95
381.42	99.5
381.63	-13.14
381.84	7.34
382.05	-11.09
382.261	13.48
382.471	66.73
382.681	101.55
382.891	72.87
383.101	48.3
383.311	-25.43
383.521	-33.62
383.731	36.01
383.941	74.92
384.151	89.26
384.361	113.83
384.571	93.35
384.781	97.45
384.991	58.54
385.201	81.07
385.411	15.53
385.621	85.16
385.831	42.15
386.041	42.15
386.251	74.92
386.461	58.54
386.671	85.16
386.881	-21.33
387.091	81.07
387.301	44.2
387.511	42.15
387.72	40.11
387.93	60.59
388.14	7.34
388.35	72.87
388.56	89.26
388.769	27.82
388.979	81.07
389.189	93.35
389.399	64.68
389.609	97.45
389.818	85.16
390.028	-29.52
390.238	119.98
390.447	23.72
390.657	-13.14
390.867	44.2
391.076	-15.19
391.286	19.63
391.496	25.77
391.705	9.39
391.915	107.69
392.125	25.77
392.334	17.58
392.544	85.16
392.753	48.3
392.963	52.39
393.172	33.96
393.382	48.3
393.591	122.02
393.801	136.36
394.01	76.97
394.22	89.26
394.429	62.63
394.639	15.53
394.848	56.49
395.058	97.45
395.267	72.87
395.477	33.96
395.686	48.3
395.895	148.65
396.105	109.74
396.314	23.72
396.524	74.92
396.733	62.63
396.942	107.69
397.152	68.78
397.361	115.88
397.57	52.39
397.78	81.07
397.989	52.39
398.198	146.6
398.407	91.31
398.617	99.5
398.826	107.69
399.035	134.31
399.244	72.87
399.453	81.07
399.663	93.35
399.872	103.59
400.081	132.26
400.29	113.83
400.499	48.3
400.708	165.03
400.917	101.55
401.127	31.91
401.336	126.12
401.545	113.83
401.754	191.66
401.963	203.94
402.172	117.93
402.381	68.78
402.59	119.98
402.799	138.41
403.008	122.02
403.217	158.89
403.426	132.26
403.635	76.97
403.844	165.03
404.053	185.51
404.262	122.02
404.471	234.66
404.68	218.28
404.888	140.46
405.097	144.55
405.306	97.45
405.515	138.41
405.724	140.46
405.933	197.8
406.142	253.09
406.35	142.5
406.559	85.16
406.768	183.46
406.977	212.14
407.185	210.09
407.394	195.75
407.603	183.46
407.812	261.29
408.02	271.53
408.229	253.09
408.438	222.38
408.646	253.09
408.855	257.19
409.064	271.53
409.272	320.68
409.481	259.24
409.69	263.33
409.898	300.2
410.107	316.58
410.315	388.26
410.524	310.44
410.733	388.26
410.941	363.69
411.15	359.59
411.358	392.36
411.567	429.22
411.775	404.64
411.984	414.88
412.192	443.56
412.401	449.7
412.609	523.43
412.818	443.56
413.026	511.14
413.234	539.81
413.443	504.99
413.651	584.87
413.86	566.43
414.068	654.5
414.276	668.83
414.485	631.97
414.693	760.99
414.901	740.51
415.11	656.54
415.318	730.27
415.526	754.85
415.734	724.13
415.943	736.42
416.151	869.53
416.359	832.67
416.567	877.73
416.776	844.96
416.984	1035.42
417.192	969.88
417.4	953.5
417.608	1064.09
417.817	1059.99
418.025	1227.93
418.233	1313.94
418.441	1266.84
418.649	1301.65
418.857	1309.85
419.065	1330.33
419.273	1262.74
419.481	1391.77
419.689	1434.77
419.897	1526.93
420.105	1477.78
420.313	1541.27
420.521	1709.2
420.729	1670.29
420.937	1807.5
421.145	1868.94
421.353	1866.89
421.561	1936.53
421.769	2096.27
421.977	2098.31
422.185	2069.64
422.393	2260.1
422.601	2358.41
422.809	2307.21
423.017	2387.08
423.224	2522.24
423.432	2587.78
423.64	2471.04
423.848	2722.95
424.056	2868.35
424.263	2851.97
424.471	2964.61
424.679	2942.08
424.887	3116.16
425.094	3142.78
425.302	3279.99
425.51	3456.12
425.718	3488.89
425.925	3417.21
426.133	3681.39
426.341	3748.98
426.548	4029.55
426.756	4013.17
426.964	4017.26
427.171	4279.4
427.379	4285.55
427.586	4570.21
427.794	4578.4
428.001	4672.61
428.209	5053.53
428.417	4904.03
428.624	5096.54
428.832	5256.28
429.039	5295.19
429.247	5301.34
429.454	5743.7
429.662	6028.37
429.869	5725.27
430.076	6224.97
430.284	5913.68
430.491	6188.11
430.699	6626.37
430.906	6421.58
431.114	6722.63
431.321	6929.47
431.528	6902.85
431.736	7459.9
431.943	7654.45
432.15	7576.63
432.358	7650.36
432.565	7906.35
432.772	8084.53
432.979	8381.48
433.187	8565.8
433.394	8686.63
433.601	9354.27
433.808	9331.74
434.016	9108.51
434.223	9462.81
434.43	9993.23
434.637	9915.41
434.844	10435.6
435.052	10658.82
435.259	10630.15
435.466	10810.37
435.673	10642.44
435.88	11287.55
436.087	11908.08
436.294	11924.47
436.501	11697.14
436.708	11762.68
436.915	12088.31
437.122	12862.44
437.329	12725.22
437.537	13190.11
437.743	13532.12
437.95	13036.52
438.157	14060.5
438.364	14547.92
438.571	14486.48
438.778	14451.66
438.985	15850.42
439.192	15236.03
439.399	15494.08
439.606	15080.39
439.813	16192.44
440.02	17073.06
440.227	16776.11
440.433	16952.23
440.64	17161.12
440.847	17351.59
441.054	17664.93
441.261	18795.4
441.467	18457.49
441.674	18924.43
441.881	19520.38
442.088	19538.82
442.294	19235.72
442.501	19729.28
442.708	20482.93
442.914	21103.46
443.121	21865.31
443.328	20972.39
443.534	22895.44
443.741	22149.98
443.948	21680.99
444.154	23546.69
444.361	23149.39
444.568	23384.9
444.774	23434.05
444.981	23784.26
445.187	24347.45
445.394	25322.28
445.6	24949.55
445.807	27573
446.013	26321.69
446.22	26643.22
446.426	27671.3
446.633	27853.57
446.839	28895.99
447.046	27798.27
447.252	28920.56
447.459	29324.01
447.665	29242.09
447.871	30327.52
448.078	31789.77
448.284	30323.42
448.491	31001.3
448.697	32148.16
448.903	32451.26
449.11	32584.38
449.316	32398.01
449.522	32692.92
449.728	33680.04
449.935	34120.35
450.141	34325.15
450.347	34542.24
450.553	33598.12
450.76	34089.63
450.966	35009.17
451.172	34771.61
451.378	35719.82
451.584	34867.86
451.791	35635.85
451.997	35814.02
452.203	36139.65
452.409	36450.94
452.615	36125.32
452.821	34726.55
453.027	34726.55
453.233	36137.6
453.44	34773.66
453.646	35682.95
453.852	35250.83
454.058	35977.86
454.264	34560.67
454.47	35558.03
454.676	35041.94
454.882	35955.33
455.088	32817.85
455.294	33583.79
455.5	34028.2
455.705	34339.49
455.911	33108.66
456.117	32225.98
456.323	31791.81
456.529	29913.83
456.735	31562.44
456.941	30853.84
457.147	30307.04
457.352	29633.25
457.558	29106.93
457.764	28807.92
457.97	28343.03
458.176	27632.39
458.381	27849.47
458.587	26632.98
458.793	26776.34
458.999	25219.88
459.204	27085.58
459.41	26450.71
459.616	24593.2
459.821	24693.55
460.027	24443.7
460.233	24208.19
460.438	23020.36
460.644	22911.82
460.85	22125.4
461.055	21601.12
461.261	21767.01
461.466	19975.03
461.672	19399.55
461.878	20777.84
462.083	19487.62
462.289	19108.74
462.494	19106.7
462.7	17890.2
462.905	17619.87
463.111	18084.76
463.316	18033.56
463.522	17947.54
463.727	17773.47
463.932	17734.56
464.138	17513.38
464.343	17816.47
464.549	17195.94
464.754	17748.89
464.959	17505.18
465.165	17464.22
465.37	16819.11
465.575	16559.02
465.781	16898.98
465.986	17056.68
466.191	16284.59
466.397	16073.65
466.602	15461.31
466.807	15973.3
467.012	15852.47
467.218	15506.37
467.423	15719.35
467.628	15528.89
467.833	16276.4
468.038	15821.75
468.244	15143.88
468.449	15883.19
468.654	15233.99
468.859	15332.29
469.064	15221.7
469.269	14535.63
469.474	14572.49
469.679	14793.67
469.885	14369.74
470.09	14611.4
470.295	14509.01
470.5	14220.24
470.705	14040.02
470.91	13911
471.115	13804.5
471.32	14361.55
471.525	13956.05
471.73	13558.75
471.935	13646.81
472.139	12917.73
472.344	13331.42
472.549	13196.26
472.754	12946.41
472.959	12719.08
473.164	12612.59
473.369	12504.04
473.574	12907.49
473.778	12706.79
473.983	12536.81
474.188	12475.37
474.393	12082.16
474.598	11908.08
474.802	11957.24
475.007	11877.37
475.212	11779.06
475.417	11447.29
475.621	11254.78
475.826	11410.43
476.031	11340.8
476.235	11041.79
476.44	11199.49
476.645	10986.5
476.849	10880
477.054	10851.33
477.259	10871.81
477.463	10808.33
477.668	10355.72
477.872	10370.06
478.077	10255.37
478.282	9913.36
478.486	10193.94
478.691	9966.61
478.895	9884.69
479.1	9831.44
479.304	9997.33
479.509	9610.26
479.713	9702.42
479.918	9591.83
480.122	9182.24
480.326	9569.3
480.531	9491.48
480.735	9493.53
480.94	9348.12
481.144	9681.94
481.348	9020.45
481.553	9317.4
481.757	9059.36
481.961	9432.09
482.166	9444.38
482.37	9409.56
482.574	9094.18
482.778	9141.28
482.983	9423.9
483.187	9186.33
483.391	9108.51
483.595	9092.13
483.8	8959.01
484.004	9239.58
484.208	9141.28
484.412	9151.52
484.616	9077.79
484.821	9102.37
485.025	8971.3
485.229	9092.13
485.433	8989.73
485.637	9198.62
485.841	8948.77
486.045	9075.74
486.249	9151.52
486.453	9141.28
486.657	9010.21
486.861	9260.06
487.065	8965.15
487.269	9192.48
487.473	8723.49
487.677	9034.78
487.881	9284.64
488.085	9040.93
488.289	9002.02
488.493	8985.63
488.697	9280.54
488.901	9110.56
489.105	9092.13
489.309	8895.52
489.512	9331.74
489.716	9348.12
489.92	9219.1
490.124	9026.59
490.328	9427.99
490.531	9215.01
490.735	9292.83
490.939	9337.88
491.143	9172
491.346	9315.36
491.55	9577.5
491.754	9321.5
491.958	9495.58
492.161	9634.84
492.365	9585.69
492.569	9518.11
492.772	9632.79
492.976	9706.52
493.18	9761.81
493.383	9917.46
493.587	9899.03
493.79	10114.06
493.994	9821.2
494.197	9894.93
494.401	10013.71
494.605	10167.31
494.808	10298.38
495.012	10374.16
495.215	10152.98
495.419	10374.16
495.622	10316.81
495.825	10439.69
496.029	10468.36
496.232	10718.22
496.436	10685.45
496.639	10998.79
496.843	10904.58
497.046	11150.34
497.249	11269.12
497.453	11090.95
497.656	11430.91
497.859	11377.66
498.063	11445.24
498.266	11668.47
498.469	11754.49
498.673	11834.36
498.876	11922.42
499.079	12047.35
499.282	12192.75
499.485	12313.58
499.689	12297.2
499.892	12567.53
500.095	12534.76
500.298	12839.91
500.501	12745.7
500.705	13052.9
500.908	13358.05
501.111	13462.49
501.314	13382.62
501.517	13900.76
501.72	13779.93
501.923	13831.13
502.126	14076.88
502.329	14310.35
502.532	14494.67
502.735	14400.46
502.938	14941.13
503.141	14775.24
503.344	15014.85
503.547	15125.44
503.75	15068.1
503.953	15662.01
504.156	15354.82
504.359	15770.55
504.562	15674.3
504.765	16214.96
504.968	16206.77
505.17	16683.95
505.373	16227.25
505.576	16921.51
505.779	17062.82
505.982	17152.93
506.185	17677.21
506.387	17519.52
506.59	17658.78
506.793	18129.81
506.996	17808.28
507.198	18207.64
507.401	18211.73
507.604	18647.95
507.807	18836.36
508.009	19008.39
508.212	19303.3
508.415	19499.91
508.617	19524.48
508.82	19684.22
509.022	19651.45
509.225	20075.38
509.428	20188.02
509.63	20325.24
509.833	20450.16
510.035	20822.89
510.238	21164.9
510.44	21027.69
510.643	21369.7
510.845	21547.87
511.048	21488.48
511.25	21967.71
511.453	22279
511.655	22946.64
511.858	22467.41
512.06	22713.17
512.262	23071.56
512.465	22987.6
512.667	23491.4
512.87	23733.06
513.072	23638.85
513.274	24183.61
513.477	24394.55
513.679	24402.74
513.881	24804.14
514.084	24783.66
514.286	25015.08
514.488	25441.06
514.69	25789.22
514.893	25869.09
515.095	25795.36
515.297	26364.7
515.499	26446.62
515.701	26725.14
515.904	26974.99
516.106	27185.93
516.308	27087.63
516.51	27554.57
516.712	27517.7
516.914	27769.6
517.116	28076.8
517.318	28463.86
517.52	28558.07
517.722	28582.65
517.925	29172.46
518.127	29356.78
518.329	29842.15
518.531	29420.27
518.733	30374.62
518.935	30042.85
519.136	30249.69
519.338	30667.48
519.54	30923.47
519.742	31304.4
519.944	31427.28
520.146	32078.53
520.348	32045.76
520.55	32182.98
520.752	32447.16
520.954	32895.67
521.155	32381.63
521.357	32993.97
521.559	33163.95
521.761	33671.85
521.963	33698.47
522.164	33819.3
522.366	34065.06
522.568	34294.43
522.77	34482.84
522.971	35119.76
523.173	34611.87
523.375	35115.67
523.576	34892.44
523.778	35480.21
523.98	35555.98
524.181	35828.36
524.383	35943.05
524.584	36450.94
524.786	36256.39
524.988	36147.84
525.189	36682.36
525.391	36588.16
525.592	36743.8
525.794	37003.89
525.995	37231.22
526.197	37431.92
526.398	37261.94
526.6	37458.54
526.801	37573.23
527.003	37753.45
527.204	37818.99
527.406	38290.02
527.607	37954.15
527.808	38464.1
528.01	38050.41
528.211	38099.56
528.412	39203.41
528.614	38597.21
528.815	38752.86
529.016	39180.88
529.218	38650.46
529.419	39070.29
529.62	39023.19
529.822	39086.68
530.023	38992.47
530.224	39322.19
530.425	39119.45
530.626	38814.3
530.828	39567.95
531.029	39967.3
531.23	39512.66
531.431	39672.4
531.632	39610.96
531.833	39760.46
532.035	39760.46
532.236	39938.63
532.437	39803.47
532.638	39613.01
532.839	40317.51
533.04	40053.32
533.241	39766.6
533.442	40421.95
533.643	40243.78
533.844	40108.61
534.045	40135.24
534.246	39938.63
534.447	40163.91
534.648	39893.58
534.849	39965.26
535.05	39774.8
535.251	40241.73
535.451	39664.21
535.652	40385.09
535.853	40098.37
536.054	40317.51
536.255	40200.77
536.456	39723.6
536.657	40589.89
536.857	39690.83
537.058	39934.54
537.259	40432.19
537.46	40028.74
537.66	40280.64
537.861	39985.74
538.062	39971.4
538.263	39938.63
538.463	39928.39
538.664	39860.81
538.865	40000.07
539.065	40206.92
539.266	39715.4
539.466	40288.84
539.667	39797.32
539.868	40319.56
540.068	39914.06
540.269	39905.87
540.469	40180.29
540.67	39993.93
540.87	40026.7
541.071	39651.92
541.271	40184.39
541.472	40012.36
541.672	39846.47
541.873	39729.74
542.073	39438.93
542.274	40086.09
542.474	39545.42
542.675	39723.6
542.875	39830.09
543.075	39766.6
543.276	39338.58
543.476	40133.19
543.676	39660.11
543.877	39608.91
544.077	39987.78
544.277	39737.93
544.478	39686.73
544.678	39776.84
544.878	39645.77
545.078	39836.23
545.279	39287.38
545.479	39514.7
545.679	39492.18
545.879	39682.64
546.079	39610.96
546.28	39512.66
546.48	39463.5
546.68	39498.32
546.88	39440.98
547.08	39787.08
547.28	39447.12
547.48	38896.22
547.68	39533.14
547.88	39160.41
548.081	39676.49
548.281	39582.29
548.481	39201.36
548.681	39412.31
548.881	39725.64
549.081	39289.43
549.28	39361.11
549.48	39600.72
549.68	39152.21
549.88	39457.36
550.08	38916.7
550.28	39498.32
550.48	38974.04
550.68	39447.12
550.88	39209.56
551.08	39348.82
551.279	39492.18
551.479	38806.11
551.679	39258.71
551.879	39062.1
552.079	39064.15
552.278	38879.83
552.478	39336.53
552.678	39004.76
552.878	39133.78
553.077	39135.83
553.277	38318.69
553.477	39078.49
553.676	38810.2
553.876	38752.86
554.076	38971.99
554.275	38621.79
554.475	38373.99
554.674	39029.34
554.874	38965.85
555.074	38498.91
555.273	38699.61
555.473	38879.83
555.672	38517.34
555.872	38572.64
556.071	38713.95
556.271	38664.8
556.47	38345.31
556.67	38380.13
556.869	38519.39
557.068	38124.13
557.268	38355.55
557.467	38341.22
557.667	38089.32
557.866	38398.56
558.065	38023.78
558.265	38107.75
558.464	37790.31
558.663	38623.84
558.863	37319.28
559.062	38406.75
559.261	37489.26
559.461	38208.1
559.66	37499.5
559.859	37984.87
560.058	37575.28
560.258	37706.35
560.457	37804.65
560.656	37941.86
560.855	37571.18
561.054	37481.07
561.253	37390.96
561.453	37800.55
561.652	37446.26
561.851	37450.35
562.05	37444.21
562.249	36786.81
562.448	37579.37
562.647	37147.25
562.846	37108.34
563.045	37032.57
563.244	36889.21
563.443	36848.25
563.642	36586.11
563.841	36917.88
564.04	36172.42
564.239	37141.11
564.438	36301.44
564.637	36733.56
564.836	36864.63
565.035	36196.99
565.234	35959.43
565.432	36280.96
565.631	36029.06
565.83	36426.37
566.029	36158.08
566.228	36258.43
566.427	36041.35
566.625	35861.13
566.824	35097.24
567.023	35730.06
567.222	35334.8
567.42	35951.24
567.619	35197.59
567.818	35334.8
568.016	35177.11
568.215	35613.32
568.414	35314.32
568.612	35539.6
568.811	35068.56
569.01	35248.78
569.208	34671.26
569.407	35158.67
569.605	34532
569.804	35140.24
570.002	34347.68
570.201	34871.96
570.4	34204.32
570.598	34189.98
570.797	34153.12
570.995	34345.63
571.193	34091.68
571.392	34411.17
571.59	33845.93
571.789	33786.54
571.987	33591.98
572.186	34052.77
572.384	33817.25
572.582	33766.06
572.781	33540.78
572.979	33284.78
573.177	33465
573.376	33473.2
573.574	33211.06
573.772	33860.26
573.971	32996.02
574.169	33084.08
574.367	33075.89
574.565	33143.47
574.763	32742.07
574.962	32684.73
575.16	32348.86
575.358	32664.25
575.556	32238.27
575.754	32889.52
575.952	32262.85
576.151	32764.6
576.349	31910.6
576.547	32012.99
576.745	32469.69
576.943	32228.03
577.141	31771.33
577.339	32234.17
577.537	32109.25
577.735	32070.34
577.933	31750.85
578.131	31724.23
578.329	31673.03
578.527	31099.6
578.725	31431.37
578.923	31640.26
579.121	31152.85
579.319	31015.63
579.516	31433.42
579.714	31046.35
579.912	30743.25
580.11	30718.68
580.308	30728.92
580.506	30685.91
580.704	29993.7
580.901	30829.27
581.099	30849.75
581.297	30403.29
581.495	30171.87
581.692	30425.82
581.89	30116.58
582.088	30178.01
582.285	30018.27
582.483	30157.53
582.681	29770.47
582.878	29620.97
583.076	29573.86
583.274	30063.33
583.471	29283.05
583.669	29651.69
583.866	29287.15
584.064	29752.04
584.262	28795.64
584.459	29377.26
584.657	29266.67
584.854	29405.93
585.052	28801.78
585.249	29010.67
585.447	28998.38
585.644	28427
585.841	28701.43
586.039	28783.35
586.236	28306.17
586.434	28439.29
586.631	28371.71
586.828	28455.67
587.026	28570.36
587.223	28470.01
587.42	28029.69
587.618	27927.3
587.815	27781.89
588.012	27796.23
588.21	27704.07
588.407	27906.82
588.604	27667.2
588.801	27536.13
588.999	27603.72
589.196	27489.03
589.393	27382.54
589.59	27415.3
589.787	27042.57
589.984	27058.96
590.182	26708.76
590.379	26905.36
590.576	26827.54
590.773	26954.51
590.97	26639.12
591.167	26780.43
591.364	26385.18
591.561	26207
591.758	26145.56
591.955	26088.22
592.152	26506.01
592.349	25998.11
592.546	26149.66
592.743	26172.19
592.94	25596.71
593.137	26018.59
593.334	25938.72
593.531	25776.93
593.727	25797.41
593.924	25393.96
594.121	25473.83
594.318	25260.84
594.515	25140.01
594.712	25328.42
594.908	25262.89
595.105	25422.63
595.302	25275.18
595.499	25017.13
595.696	25047.85
595.892	24779.57
596.089	24838.96
596.286	24605.49
596.482	24857.39
596.679	24476.47
596.876	24615.73
597.072	24613.68
597.269	24601.4
597.466	24187.71
597.662	24355.64
597.859	24279.86
598.055	24212.28
598.252	24091.45
598.448	23997.24
598.645	23759.68
598.841	23671.62
599.038	23933.76
599.234	23878.46
599.431	23415.62
599.627	23489.35
599.824	23405.38
600.02	23001.93
600.217	23743.3
600.413	23268.17
600.609	22960.97
600.806	22973.26
601.002	22907.73
601.198	23032.65
601.395	23024.46
601.591	23212.87
601.787	22852.43
601.984	22821.71
602.18	22717.26
602.376	22747.98
602.572	22473.56
602.769	22549.33
602.965	22326.1
603.161	22414.16
603.357	22035.29
603.553	22223.7
603.75	22240.09
603.946	22063.96
604.142	22170.46
604.338	21707.62
604.534	22010.71
604.73	21633.89
604.926	21478.24
605.122	21863.26
605.318	21680.99
605.514	21490.53
605.71	21367.65
605.906	21416.8
606.102	21513.06
606.298	21365.6
606.494	21648.22
606.69	21361.51
606.886	21209.96
607.082	20577.14
607.278	21197.67
607.474	20960.11
607.67	21109.61
607.866	20999.02
608.062	21271.4
608.257	20579.18
608.453	20765.55
608.649	20765.55
608.845	20732.78
609.041	20708.21
609.236	20763.5
609.432	20497.27
609.628	20603.76
609.824	20491.12
610.019	20464.5
610.215	20648.82
610.411	20468.59
610.606	20202.36
610.802	20665.2
610.998	20130.68
611.193	20476.79
611.389	19995.51
611.584	20069.24
611.78	19725.18
611.976	19940.22
612.171	20020.09
612.367	20079.48
612.562	19747.71
612.758	19655.55
612.953	19680.13
613.149	20112.25
613.344	19618.69
613.539	19745.66
613.735	19366.79
613.93	19678.08
614.126	19436.42
614.321	19716.99
614.517	19733.37
614.712	19280.77
614.907	19135.37
615.103	19598.21
615.298	19364.74
615.493	19311.49
615.688	18981.77
615.884	19508.1
616.079	18940.81
616.274	19164.04
616.47	19110.79
616.665	19256.2
616.86	19245.96
617.055	18994.06
617.25	18819.98
617.445	19110.79
617.641	18840.46
617.836	18877.32
618.031	18473.87
618.226	18899.85
618.421	18461.58
618.616	18828.17
618.811	18400.15
619.006	18723.72
619.201	18344.85
619.396	18484.11
619.591	18176.92
619.786	18234.26
619.981	17879.96
620.176	18322.32
620.371	17894.3
620.566	18051.99
620.761	17791.9
620.956	17855.39
621.151	17302.43
621.346	17515.42
621.541	17398.69
621.735	17607.58
621.93	16974.76
622.125	17279.91
622.32	17202.08
622.515	17216.42
622.709	16819.11
622.904	17124.26
623.099	16724.91
623.294	16733.1
623.488	16378.8
623.683	16692.14
623.878	16485.3
624.072	16487.34
624.267	16270.26
624.462	15932.34
624.656	16063.41
624.851	16128.95
625.046	15983.54
625.24	15860.66
625.435	15698.88
625.629	15406.02
625.824	15627.2
626.018	15690.68
626.213	15545.28
626.407	15219.65
626.602	15139.78
626.796	15375.3
626.991	15029.19
627.185	15072.2
627.38	14859.21
627.574	14951.37
627.768	14912.46
627.963	14693.32
628.157	14597.07
628.352	14670.79
628.546	14351.31
628.74	14678.99
628.935	14214.1
629.129	14474.19
629.323	14123.99
629.517	14097.36
629.712	13976.53
629.906	14142.42
630.1	13767.64
630.294	14007.25
630.489	13882.33
630.683	13874.13
630.877	13587.42
631.071	13581.28
631.265	13700.06
631.459	13384.67
631.653	13214.69
631.848	13327.33
632.042	12979.17
632.236	13312.99
632.43	13073.38
632.624	12944.36
632.818	12907.49
633.012	12962.79
633.206	12667.88
633.4	12835.81
633.594	12415.98
633.788	12493.8
633.982	12411.89
634.176	12434.41
634.369	12370.93
634.563	12256.24
634.757	12205.04
634.951	12340.21
635.145	12233.71
635.339	12282.86
635.533	11998.2
635.726	12209.14
635.92	11803.64
636.114	11846.65
636.308	11551.74
636.501	11561.98
636.695	11824.12
636.889	11527.16
637.083	11668.47
637.276	11312.13
637.47	11461.63
637.664	11250.69
637.857	11486.2
638.051	11193.34
638.244	11117.57
638.438	10894.34
638.632	11115.52
638.825	10865.67
639.019	11092.99
639.212	11011.07
639.406	10984.45
639.599	10714.12
639.793	10814.47
639.986	10593.29
640.18	10755.08
640.373	10425.36
640.567	10460.17
640.76	10519.56
640.954	10267.66
641.147	10241.04
641.34	10146.83
641.534	10075.15
641.727	10140.69
641.92	9997.33
642.114	9878.55
642.307	9985.04
642.5	10116.11
642.694	9864.21
642.887	9550.87
643.08	9798.68
643.273	9698.33
643.467	9653.27
643.66	9471
643.853	9427.99
644.046	9526.3
644.239	9634.84
644.432	9473.05
644.626	9237.53
644.819	9407.52
645.012	9174.05
645.205	9233.44
645.398	9098.27
645.591	9165.85
645.784	9075.74
645.977	8928.29
646.17	8965.15
646.363	8889.38
646.556	8838.18
646.749	8827.94
646.942	8813.6
647.135	8743.97
647.328	8743.97
647.521	8725.54
647.714	8580.14
647.907	8500.26
648.099	8571.94
648.292	8438.83
648.485	8485.93
648.678	8256.56
648.871	8328.24
649.064	8320.04
649.256	8348.72
649.449	8242.22
649.642	8010.8
649.835	8076.34
650.027	7971.89
650.22	7896.11
650.413	8047.66
650.605	7693.37
650.798	7945.27
650.991	7818.29
651.183	7828.53
651.376	7732.28
651.568	7756.85
651.761	7705.65
651.954	7564.34
652.146	7513.14
652.339	7734.32
652.531	7666.74
652.724	7486.52
652.916	7330.87
653.109	7601.21
653.301	7388.22
653.494	7386.17
653.686	7212.09
653.879	7355.45
654.071	7316.54
654.263	7167.04
654.456	7060.54
654.648	7208
654.84	7013.44
655.033	6900.8
655.225	6995.01
655.417	7052.35
655.61	6765.64
655.802	6833.22
655.994	6855.75
656.186	6720.58
656.379	6913.09
656.571	6693.96
656.763	6691.91
656.955	6632.52
657.148	6773.83
657.34	6642.76
657.532	6349.9
657.724	6495.3
657.916	6546.5
658.108	6397
658.3	6413.38
658.492	6382.67
658.684	6237.26
658.876	6313.03
659.068	6167.63
659.26	6136.91
659.452	6310.99
659.644	6143.05
659.836	6210.64
660.028	6032.46
660.22	5977.17
660.412	6267.98
660.604	6081.61
660.796	6100.05
660.988	5919.82
661.18	5946.45
661.372	6079.57
661.563	5831.76
661.755	5917.78
661.947	5952.59
662.139	5819.47
662.331	5815.38
662.522	5616.72
662.714	5696.6
662.906	5643.35
663.097	5760.08
663.289	5577.81
663.481	5502.04
663.673	5694.55
663.864	5508.18
664.056	5420.12
664.247	5450.84
664.439	5375.06
664.631	5383.26
664.822	5391.45
665.014	5315.67
665.205	5284.95
665.397	5225.56
665.588	5270.62
665.78	5184.6
665.971	5274.71
666.163	5266.52
666.354	5196.89
666.546	5151.84
666.737	5135.45
666.929	5151.84
667.12	5284.95
667.311	5100.64
667.503	4988
667.694	4965.47
667.885	5119.07
668.077	5028.96
668.268	5031.01
668.459	5008.48
668.651	4988
668.842	4832.35
669.033	4885.6
669.224	4842.59
669.416	4795.49
669.607	4881.5
669.798	4820.07
669.989	4858.98
670.18	4727.91
670.371	4656.23
670.563	4635.75
670.754	4729.95
670.945	4598.88
671.136	4662.37
671.327	4643.94
671.518	4668.52
671.709	4508.77
671.9	4641.89
672.091	4572.26
672.282	4430.95
672.473	4484.2
672.664	4539.49
672.855	4426.86
673.046	4512.87
673.237	4498.53
673.428	4492.39
673.619	4455.53
673.809	4344.94
674	4344.94
674.191	4410.47
674.382	4324.46
674.573	4297.83
674.764	4396.14
674.954	4490.34
675.145	4349.03
675.336	4181.1
675.527	4201.58
675.717	4185.19
675.908	4127.85
676.099	4299.88
676.289	4164.72
676.48	4199.53
676.671	4195.43
676.861	4246.63
677.052	4199.53
677.243	4267.11
677.433	4154.48
677.624	4062.32
677.814	4090.99
678.005	4158.57
678.195	4017.26
678.386	4080.75
678.576	4039.79
678.767	4056.17
678.957	4013.17
679.148	4017.26
679.338	3990.64
679.529	4000.88
679.719	4007.02
679.909	4047.98
680.1	3939.44
680.29	3947.63
680.481	3988.59
680.671	3929.2
680.861	3935.34
681.052	4052.08
681.242	3830.9
681.432	3873.9
681.622	3804.27
681.813	3937.39
682.003	3923.05
682.193	3804.27
682.383	3861.62
682.573	3875.95
682.764	3892.34
682.954	3816.56
683.144	3767.41
683.334	3753.07
683.524	3773.55
683.714	3628.15
683.904	3769.46
684.094	3730.55
684.284	3710.07
684.474	3828.85
684.664	3677.3
684.854	3722.35
685.044	3785.84
685.234	3644.53
685.424	3859.57
685.614	3716.21
685.804	3718.26
685.994	3624.05
686.184	3685.49
686.374	3716.21
686.564	3597.43
686.753	3564.66
686.943	3468.41
687.133	3611.76
687.323	3490.93
687.513	3646.58
687.702	3542.13
687.892	3456.12
688.082	3445.88
688.272	3353.72
688.461	3431.54
688.651	3361.91
688.841	3443.83
689.03	3361.91
689.22	3480.69
689.41	3466.36
689.599	3402.87
689.789	3329.14
689.979	3507.32
690.168	3454.07
690.358	3366.01
690.547	3265.66
690.737	3431.54
690.926	3411.06
691.116	3304.57
691.305	3255.42
691.495	3384.44
691.684	3196.03
691.874	3138.68
692.063	3261.56
692.252	3257.46
692.442	3200.12
692.631	3099.77
692.82	3130.49
693.01	3136.63
693.199	3024
693.388	3060.86
693.578	3112.06
693.767	3218.55
693.956	3103.87
694.146	2997.37
694.335	3214.46
694.524	2980.99
694.713	3075.2
694.902	2956.41
695.092	3079.29
695.281	3058.81
695.47	2935.93
695.659	2954.37
695.848	2872.45
696.037	2843.78
696.226	3052.67
696.415	2876.54
696.604	2913.41
696.793	2907.26
696.982	2880.64
697.171	2944.13
697.36	2997.37
697.549	2909.31
697.738	2899.07
697.927	2899.07
698.116	2808.96
698.305	2944.13
698.494	2927.74
698.683	2870.4
698.872	2911.36
699.061	2841.73
699.25	2808.96
699.438	2870.4
699.627	2727.04
699.816	2849.92
700.005	2868.35
700.193	2813.06
700.382	2727.04
700.571	2823.3
700.76	2866.3
700.948	2833.54
701.137	2862.21
701.326	2667.65
701.514	2784.38
701.703	2854.02
701.892	2763.9
702.08	2845.82
702.269	2729.09
702.457	2833.54
702.646	2780.29
702.834	2587.78
703.023	2712.71
703.212	2718.85
703.4	2794.62
703.589	2663.55
703.777	2874.49
703.965	2632.83
704.154	2815.1
704.342	2628.74
704.531	2657.41
704.719	2645.12
704.907	2714.75
705.096	2681.99
705.284	2706.56
705.472	2788.48
705.661	2749.57
705.849	2612.35
706.037	2694.27
706.226	2593.92
706.414	2616.45
706.602	2616.45
706.79	2696.32
706.979	2665.6
707.167	2585.73
707.355	2657.41
707.543	2620.55
707.731	2665.6
707.919	2571.4
708.107	2569.35
708.296	2567.3
708.484	2589.83
708.672	2448.52
708.86	2444.42
709.048	2618.5
709.236	2528.39
709.424	2622.59
709.612	2497.67
709.8	2501.76
709.988	2417.8
710.176	2636.93
710.364	2559.11
710.551	2485.38
710.739	2595.97
710.927	2522.24
711.115	2458.76
711.303	2563.2
711.491	2530.44
711.679	2489.48
711.866	2454.66
712.054	2483.33
712.242	2469
712.43	2546.82
712.617	2399.37
712.805	2497.67
712.993	2542.72
713.181	2534.53
713.368	2458.76
713.556	2464.9
713.744	2337.93
713.931	2569.35
714.119	2423.94
714.306	2581.64
714.494	2600.07
714.682	2464.9
714.869	2466.95
715.057	2405.51
715.244	2448.52
715.432	2419.85
715.619	2532.48
715.807	2469
715.994	2487.43
716.182	2358.41
716.369	2436.23
716.556	2450.57
716.744	2485.38
716.931	2417.8
717.119	2587.78
717.306	2405.51
717.493	2473.09
717.681	2460.81
717.868	2374.79
718.055	2368.65
718.242	2237.58
718.43	2317.45
718.617	2344.07
718.804	2360.45
718.991	2444.42
719.179	2399.37
719.366	2448.52
719.553	2417.8
719.74	2296.97
719.927	2387.08
720.114	2227.34
720.301	2317.45
720.488	2372.74
720.676	2299.02
720.863	2327.69
721.05	2262.15
721.237	2253.96
721.424	2393.22
721.611	2333.83
721.798	2303.11
721.985	2284.68
722.172	2223.24
722.358	2278.54
722.545	2317.45
722.732	2339.97
722.919	2333.83
723.106	2198.67
723.293	2262.15
723.48	2243.72
723.667	2331.78
723.853	2276.49
724.04	2221.19
724.227	2155.66
724.414	2270.34
724.6	2294.92
724.787	2251.91
724.974	2268.3
725.161	2294.92
725.347	2258.06
725.534	2288.78
725.72	2288.78
725.907	2210.95
726.094	2190.47
726.28	2327.69
726.467	2354.31
726.653	2155.66
726.84	2237.58
727.027	2251.91
727.213	2301.06
727.4	2325.64
727.586	2153.61
727.773	2311.3
727.959	2266.25
728.145	2243.72
728.332	2237.58
728.518	2262.15
728.705	2284.68
728.891	2245.77
729.077	2202.76
729.264	2167.95
729.45	2184.33
729.636	2288.78
729.823	2178.19
730.009	2194.57
730.195	2116.75
730.382	2235.53
730.568	2241.67
730.754	2280.58
730.94	2137.23
731.126	2272.39
731.313	2141.32
731.499	2192.52
731.685	2202.76
731.871	2256.01
732.057	2176.14
732.243	2137.23
732.429	2223.24
732.615	2288.78
732.801	2198.67
732.987	2165.9
733.173	2120.84
733.359	2180.23
733.545	2098.31
733.731	2096.27
733.917	2104.46
734.103	2131.08
734.289	2186.38
734.475	2059.4
734.661	2137.23
734.847	2079.88
735.033	2243.72
735.219	2079.88
735.404	2200.71
735.59	2088.07
735.776	2090.12
735.962	2096.27
736.148	2022.54
736.333	2063.5
736.519	2106.51
736.705	2186.38
736.89	2063.5
737.076	2006.16
737.262	2079.88
737.447	1981.58
737.633	2026.64
737.819	2077.83
738.004	1997.96
738.19	2026.64
738.375	2065.55
738.561	2055.31
738.747	2088.07
738.932	1973.39
739.118	2088.07
739.303	2006.16
739.489	2055.31
739.674	1973.39
739.859	2004.11
740.045	1991.82
740.23	2006.16
740.416	1893.52
740.601	2034.83
740.786	1985.68
740.972	1932.43
741.157	1979.53
741.342	2012.3
741.528	2016.4
741.713	1952.91
741.898	2032.78
742.084	1979.53
742.269	2004.11
742.454	2032.78
742.639	1811.6
742.824	1909.9
743.01	1901.71
743.195	1991.82
743.38	1782.93
743.565	1885.33
743.75	1852.56
743.935	1891.47
744.12	1977.48
744.305	1875.09
744.49	1920.14
744.675	1860.75
744.86	1813.65
745.045	1809.55
745.23	1809.55
745.415	1827.98
745.6	1805.46
745.785	1803.41
745.97	1766.54
746.155	1744.02
746.34	1729.68
746.525	1694.86
746.71	1694.86
746.895	1817.74
747.079	1676.43
747.264	1768.59
747.449	1651.86
747.634	1623.19
747.819	1692.82
748.003	1639.57
748.188	1590.42
748.373	1670.29
748.557	1752.21
748.742	1684.62
748.927	1670.29
749.111	1483.92
749.296	1514.64
749.481	1592.47
749.665	1588.37
749.85	1588.37
750.034	1655.95
750.219	1524.88
750.404	1531.03
750.588	1518.74
750.773	1488.02
750.957	1465.49
751.141	1461.4
751.326	1469.59
751.51	1463.44
751.695	1432.72
751.879	1397.91
752.064	1352.85
752.248	1410.2
752.432	1385.62
752.617	1389.72
752.801	1393.81
752.985	1320.09
753.17	1342.61
753.354	1328.28
753.538	1246.36
753.722	1350.81
753.907	1264.79
754.091	1322.13
754.275	1262.74
754.459	1260.7
754.643	1229.98
754.828	1336.47
755.012	1248.41
755.196	1338.52
755.38	1229.98
755.564	1232.02
755.748	1252.5
755.932	1227.93
756.116	1262.74
756.3	1225.88
756.484	1184.92
756.668	1168.54
756.852	1154.2
757.036	1156.25
757.22	1170.58
757.404	1139.87
757.588	1141.91
757.772	1121.43
757.956	1088.67
758.14	1137.82
758.323	1100.95
758.507	1074.33
758.691	1074.33
758.875	1117.34
759.059	1043.61
759.242	1092.76
759.426	1121.43
759.61	1096.86
759.794	994.46
759.977	1092.76
760.161	1072.28
760.345	1025.18
760.528	1051.8
760.712	1072.28
760.895	986.27
761.079	1117.34
761.263	984.22
761.446	990.36
761.63	953.5
761.813	1039.51
761.997	982.17
762.18	986.27
762.364	935.07
762.547	941.21
762.731	877.73
762.914	990.36
763.098	959.64
763.281	902.3
763.464	873.63
763.648	910.49
763.831	867.49
764.015	859.29
764.198	943.26
764.381	906.4
764.564	898.2
764.748	916.64
764.931	920.73
765.114	828.57
765.297	933.02
765.481	900.25
765.664	859.29
765.847	806.05
766.03	916.64
766.213	840.86
766.397	894.11
766.58	871.58
766.763	892.06
766.946	844.96
767.129	818.33
767.312	818.33
767.495	842.91
767.678	806.05
767.861	853.15
768.044	793.76
768.227	822.43
768.41	851.1
768.593	826.53
768.776	842.91
768.959	824.48
769.142	865.44
769.324	816.29
769.507	777.37
769.69	754.85
769.873	810.14
770.056	806.05
770.239	758.94
770.421	869.53
770.604	783.52
770.787	656.54
770.97	642.21
771.152	650.4
771.335	720.03
771.518	765.09
771.7	804
771.883	736.42
772.066	779.42
772.248	777.37
772.431	732.32
772.613	691.36
772.796	732.32
772.978	730.27
773.161	605.35
773.343	722.08
773.526	662.69
773.708	607.39
773.891	613.54
774.073	699.55
774.256	621.73
774.438	695.46
774.621	734.37
774.803	674.98
774.985	629.92
775.168	683.17
775.35	689.31
775.532	609.44
775.715	621.73
775.897	564.39
776.079	654.5
776.261	617.63
776.444	609.44
776.626	586.91
776.808	597.15
776.99	609.44
777.173	623.78
777.355	617.63
777.537	638.11
777.719	550.05
777.901	529.57
778.083	580.77
778.265	507.04
778.447	537.76
778.629	574.63
778.811	568.48
778.993	679.07
779.175	558.24
779.357	572.58
779.539	392.36
779.721	507.04
779.903	519.33
780.085	562.34
780.267	474.28
780.449	466.08
780.631	533.67
780.812	474.28
780.994	388.26
781.176	457.89
781.358	449.7
781.54	515.23
781.721	474.28
781.903	437.41
782.085	539.81
782.267	543.91
782.448	478.37
782.63	406.69
782.812	523.43
782.993	531.62
783.175	443.56
783.357	482.47
783.538	478.37
783.72	457.89
783.901	443.56
784.083	425.12
784.264	476.32
784.446	369.83
784.627	345.25
784.809	513.19
784.99	451.75
785.172	355.49
785.353	416.93
785.535	459.94
785.716	302.25
785.897	330.92
786.079	408.74
786.26	375.97
786.441	433.32
786.623	394.4
786.804	304.29
786.985	421.03
787.167	341.16
787.348	359.59
787.529	345.25
787.71	386.21
787.891	412.84
788.073	310.44
788.254	287.91
788.435	339.11
788.616	451.75
788.797	353.45
788.978	349.35
789.159	351.4
789.34	416.93
789.522	369.83
789.703	318.63
789.884	320.68
790.065	341.16
790.246	388.26
790.427	378.02
790.607	351.4
790.788	351.4
790.969	261.29
791.15	322.73
791.331	343.21
791.512	378.02
791.693	304.29
791.874	253.09
792.054	304.29
792.235	375.97
792.416	322.73
792.597	337.06
792.778	277.67
792.958	253.09
793.139	298.15
793.32	308.39
793.5	304.29
793.681	289.96
793.862	294.05
794.042	246.95
794.223	261.29
794.404	277.67
794.584	343.21
794.765	261.29
794.945	263.33
795.126	380.07
795.306	359.59
795.487	287.91
795.667	220.33
795.848	232.62
796.028	240.81
796.209	257.19
796.389	277.67
796.57	216.23
796.75	253.09
796.93	236.71
797.111	273.57
797.291	318.63
797.471	263.33
797.652	298.15
797.832	238.76
798.012	277.67
798.192	240.81
798.373	244.9
798.553	224.42
798.733	222.38
798.913	187.56
799.093	271.53
799.274	277.67
799.454	199.85
799.634	185.51
799.814	175.27
799.994	173.22
800.174	212.14
800.354	208.04
800.534	126.12
800.714	273.57
800.894	234.66
801.074	205.99
801.254	246.95
801.434	187.56
801.614	242.85
801.794	181.42
801.974	740.51
802.154	140.46
802.334	134.31
802.514	132.26
802.693	240.81
802.873	154.79
803.053	193.7
803.233	218.28
803.413	205.99
803.592	205.99
803.772	212.14
803.952	134.31
804.131	218.28
804.311	222.38
804.491	244.9
804.67	179.37
804.85	138.41
805.03	152.74
805.209	187.56
805.389	171.18
805.568	173.22
805.748	187.56
805.928	165.03
806.107	130.22
806.287	187.56
806.466	255.14
806.646	165.03
806.825	175.27
807.004	138.41
807.184	177.32
807.363	244.9
807.543	167.08
807.722	107.69
807.901	138.41
808.081	214.18
808.26	68.78
808.439	205.99
808.619	179.37
808.798	140.46
808.977	130.22
809.156	191.66
809.336	165.03
809.515	165.03
809.694	119.98
809.873	140.46
810.052	124.07
810.231	228.52
810.411	109.74
810.59	150.7
810.769	142.5
810.948	244.9
811.127	105.64
811.306	72.87
811.485	119.98
811.664	195.75
811.843	167.08
812.022	169.13
812.201	56.49
812.38	91.31
812.559	109.74
812.737	64.68
812.916	124.07
813.095	138.41
813.274	87.21
813.453	220.33
813.632	124.07
813.811	154.79
813.989	189.61
814.168	64.68
814.347	115.88
814.526	76.97
814.704	122.02
814.883	107.69
815.062	93.35
815.24	162.98
815.419	66.73
815.598	109.74
815.776	115.88
815.955	173.22
816.133	97.45
816.312	50.35
816.49	134.31
816.669	140.46
816.847	103.59
817.026	146.6
817.204	122.02
817.383	113.83
817.561	62.63
817.74	181.42
817.918	142.5
818.097	109.74
818.275	89.26
818.453	171.18
818.632	132.26
818.81	93.35
818.988	167.08
819.167	44.2
819.345	72.87
819.523	93.35
819.701	66.73
819.879	93.35
820.058	113.83
820.236	95.4
820.414	97.45
820.592	58.54
820.77	97.45
820.948	126.12
821.127	9.39
821.305	115.88
821.483	79.02
821.661	191.66
821.839	99.5
822.017	36.01
822.195	105.64
822.373	138.41
822.551	-2.9
822.729	60.59
822.907	74.92
823.085	115.88
823.262	56.49
823.44	111.78
823.618	5.29
823.796	81.07
823.974	38.06
824.152	99.5
824.329	97.45
824.507	173.22
824.685	85.16
824.863	99.5
825.04	93.35
825.218	105.64
825.396	31.91
825.574	89.26
825.751	54.44
825.929	107.69
826.107	66.73
826.284	117.93
826.462	105.64
826.639	15.53
826.817	111.78
826.994	66.73
827.172	9.39
827.349	105.64
827.527	97.45
827.704	83.11
827.882	99.5
828.059	64.68
828.237	66.73
828.414	99.5
828.591	48.3
828.769	85.16
828.946	74.92
829.124	115.88
829.301	142.5
829.478	68.78
829.655	40.11
829.833	42.15
830.01	-0.85
830.187	95.4
830.364	48.3
830.542	44.2
830.719	105.64
830.896	79.02
831.073	91.31
831.25	158.89
831.427	72.87
831.604	7.34
831.782	85.16
831.959	31.91
832.136	42.15
832.313	58.54
832.49	-29.52
832.667	122.02
832.844	9.39
833.021	109.74
833.198	19.63
833.374	117.93
833.551	64.68
833.728	15.53
833.905	40.11
834.082	11.43
834.259	113.83
834.436	99.5
834.612	101.55
834.789	33.96
834.966	64.68
835.143	9.39
835.319	-21.33
835.496	-15.19
835.673	40.11
835.85	99.5
836.026	115.88
836.203	48.3
836.38	11.43
836.556	74.92
836.733	81.07
836.909	146.6
837.086	83.11
837.262	9.39
837.439	68.78
837.616	68.78
837.792	13.48
837.968	29.87
838.145	-41.81
838.321	83.11
838.498	50.35
838.674	48.3
838.851	64.68
839.027	48.3
839.203	89.26
839.38	50.35
839.556	50.35
839.732	21.67
839.909	-33.62
840.085	56.49
840.261	31.91
840.437	13.48
840.614	17.58
840.79	-25.43
840.966	7.34
841.142	115.88
841.318	56.49
841.494	109.74
841.671	52.39
841.847	42.15
842.023	29.87
842.199	-9.05
842.375	105.64
842.551	29.87
842.727	-13.14
842.903	11.43
843.079	76.97
843.255	74.92
843.431	17.58
843.607	-0.85
843.783	1.19
843.959	89.26
844.134	-7
844.31	68.78
844.486	-68.44
844.662	-7
844.838	27.82
845.013	122.02
845.189	81.07
845.365	44.2
845.541	62.63
845.716	15.53
845.892	85.16
846.068	40.11
846.244	60.59
846.419	-50
846.595	15.53
846.77	56.49
846.946	89.26
847.122	101.55
847.297	29.87
847.473	91.31
847.648	89.26
847.824	25.77
847.999	-9.05
848.175	64.68
848.35	38.06
848.526	79.02
848.701	46.25
848.876	138.41
849.052	97.45
849.227	50.35
849.403	60.59
849.578	31.91
849.753	89.26
849.929	23.72
850.104	-37.72
850.279	31.91
850.454	-11.09
850.63	11.43
850.805	7.34
850.98	7.34
851.155	23.72
851.33	38.06
851.505	11.43
851.681	126.12
851.856	7.34
852.031	-58.2
852.206	58.54
852.381	-17.24
852.556	38.06
852.731	25.77
852.906	7.34
853.081	70.83
853.256	81.07
853.431	56.49
853.606	44.2
853.781	-27.48
853.956	9.39
854.131	50.35
854.305	85.16
854.48	-15.19
854.655	-21.33
854.83	105.64
855.005	-45.91
855.18	7.34
855.354	-54.1
855.529	-37.72
855.704	-4.95
855.879	13.48
856.053	-13.14
856.228	17.58
856.403	9.39
856.577	48.3
856.752	25.77
856.926	42.15
857.101	-17.24
857.276	-64.34
857.45	91.31
857.625	-37.72
857.799	-11.09
857.974	74.92
858.148	-19.29
858.323	60.59
858.497	52.39
858.672	-64.34
858.846	31.91
859.02	31.91
859.195	58.54
859.369	-11.09
859.543	-103.25
859.718	103.59
859.892	23.72
860.066	7.34
860.241	-64.34
860.415	-31.57
860.589	-50
860.763	56.49
860.938	-37.72
861.112	64.68
861.286	-9.05
861.46	7.34
861.634	3.24
861.808	56.49
861.982	44.2
862.157	70.83
862.331	29.87
862.505	-21.33
862.679	52.39
862.853	7.34
863.027	31.91
863.201	76.97
863.375	7.34
863.549	-15.19
863.722	-33.62
863.896	68.78
864.07	-33.62
864.244	64.68
864.418	-9.05
864.592	17.58
864.766	5.29
864.939	52.39
865.113	-109.4
865.287	58.54
865.461	-31.57
865.634	25.77
865.808	-2.9
865.982	33.96
866.156	23.72
866.329	9.39
866.503	19.63
866.676	-33.62
866.85	36.01
867.024	40.11
867.197	42.15
867.371	-4.95
867.544	48.3
867.718	-7
867.891	21.67
868.065	23.72
868.238	1.19
868.412	-45.91
868.585	7.34
868.759	-17.24
868.932	-21.33
869.105	27.82
869.279	19.63
869.452	72.87
869.625	-23.38
869.799	9.39
869.972	-62.29
870.145	-13.14
870.319	23.72
870.492	7.34
870.665	-23.38
870.838	-23.38
871.011	-33.62
871.185	7.34
871.358	52.39
871.531	-9.05
871.704	31.91
871.877	81.07
872.05	-43.86
872.223	9.39
872.396	9.39
872.569	56.49
872.742	-97.11
872.915	9.39
873.088	-33.62
873.261	-50
873.434	21.67
873.607	50.35
873.78	-4.95
873.953	74.92
874.126	7.34
874.299	56.49
874.471	42.15
874.644	-9.05
874.817	-11.09
874.99	7.34
875.163	-35.67
875.335	-4.95
875.508	-9.05
875.681	36.01
875.853	-15.19
876.026	-9.05
876.199	21.67
876.371	-80.72
876.544	-17.24
876.717	13.48
876.889	7.34
877.062	66.73
877.234	-58.2
877.407	-21.33
877.579	-95.06
877.752	-9.05
877.924	33.96
878.097	60.59
878.269	-2.9
878.442	9.39
878.614	-9.05
878.786	-15.19
878.959	25.77
879.131	21.67
879.303	23.72
879.476	-23.38
879.648	-0.85
879.82	48.3
879.993	15.53
880.165	19.63
880.337	-105.3
880.509	38.06
880.681	-50
880.854	-56.15
881.026	-23.38
881.198	93.35
881.37	-4.95
881.542	-0.85
881.714	15.53
881.886	-4.95
882.058	3.24
882.23	-13.14
882.402	-7
882.574	50.35
882.746	-0.85
882.918	72.87
883.09	-4.95
883.262	-9.05
883.434	17.58
883.606	62.63
883.778	38.06
883.95	-45.91
884.122	15.53
884.293	27.82
884.465	-50
884.637	38.06
884.809	17.58
884.98	50.35
885.152	89.26
885.324	36.01
885.496	-35.67
885.667	-0.85
885.839	23.72
886.011	103.59
886.182	15.53
886.354	33.96
886.525	31.91
886.697	19.63
886.869	-23.38
887.04	15.53
887.212	23.72
887.383	25.77
887.555	-50
887.726	-41.81
887.897	33.96
888.069	52.39
888.24	15.53
888.412	29.87
888.583	-15.19
888.754	15.53
888.926	23.72
889.097	7.34
889.268	-60.24
889.44	25.77
889.611	-58.2
889.782	27.82
889.953	-25.43
890.125	17.58
890.296	-56.15
890.467	-54.1
890.638	-68.44
890.809	50.35
890.98	-27.48
891.151	56.49
891.323	36.01
891.494	7.34
891.665	72.87
891.836	-52.05
892.007	9.39
892.178	-72.53
892.349	-4.95
892.52	50.35
892.691	29.87
892.862	40.11
893.032	-4.95
893.203	-0.85
893.374	33.96
893.545	33.96
893.716	17.58
893.887	-66.39
894.057	7.34
894.228	44.2
894.399	23.72
894.57	36.01
894.74	56.49
894.911	-11.09
895.082	9.39
895.253	-4.95
895.423	-45.91
895.594	-50
895.764	-9.05
895.935	-21.33
896.106	44.2
896.276	31.91
896.447	38.06
896.617	-27.48
896.788	-23.38
896.958	-52.05
897.129	-43.86
897.299	-11.09
897.47	25.77
897.64	-29.52
897.81	-17.24
897.981	46.25
898.151	19.63
898.322	7.34
898.492	-21.33
898.662	23.72
898.832	15.53
899.003	91.31
899.173	9.39
899.343	60.59
899.513	-39.76
