Data from USB4F104151__50__14-16-59-541.txt Node

Date: Thu Mar 13 14:16:59 EDT 2025
User: louis
Spectrometer: USB4F10415
Trigger mode: 4
Integration Time (sec): 2.000000E-2
Scans to average: 1
Electric dark correction enabled: true
Nonlinearity correction enabled: false
Boxcar width: 0
XAxis mode: Wavelengths
Number of Pixels in Spectrum: 3648
>>>>>Begin Spectral Data<<<<<
178.204	-110.76
178.424	-110.76
178.644	-110.76
178.864	-159.91
179.084	-166.06
179.304	28.5
179.524	-55.47
179.744	-28.84
179.964	48.98
180.184	-69.8
180.404	22.36
180.624	44.88
180.844	-53.42
181.064	3.93
181.283	-4.27
181.503	22.36
181.723	40.79
181.943	-24.75
182.163	32.6
182.383	20.31
182.602	77.65
182.822	130.9
183.042	22.36
183.262	36.69
183.482	46.93
183.701	38.74
183.921	-57.51
184.141	26.45
184.361	38.74
184.58	12.12
184.8	12.12
185.02	69.46
185.239	94.04
185.459	28.5
185.679	63.32
185.898	-53.42
186.118	102.23
186.338	-18.6
186.557	22.36
186.777	12.12
186.997	-2.22
187.216	-12.46
187.436	122.71
187.655	98.13
187.875	22.36
188.095	14.17
188.314	51.03
188.534	73.56
188.753	53.08
188.973	44.88
189.192	63.32
189.412	8.02
189.631	28.5
189.851	42.84
190.07	130.9
190.29	-43.18
190.509	-2.22
190.729	-37.03
190.948	24.4
191.168	63.32
191.387	96.08
191.607	-12.46
191.826	3.93
192.045	32.6
192.265	77.65
192.484	-20.65
192.704	12.12
192.923	-24.75
193.142	112.47
193.362	77.65
193.581	-4.27
193.8	-45.23
194.02	-0.17
194.239	26.45
194.458	44.88
194.678	38.74
194.897	59.22
195.116	32.6
195.335	36.69
195.555	36.69
195.774	-6.31
195.993	-28.84
196.212	28.5
196.432	-26.79
196.651	3.93
196.87	48.98
197.089	44.88
197.308	65.36
197.528	69.46
197.747	-37.03
197.966	-41.13
198.185	53.08
198.404	-61.61
198.623	83.8
198.842	85.84
199.062	71.51
199.281	44.88
199.5	14.17
199.719	30.55
199.938	71.51
200.157	61.27
200.376	61.27
200.595	51.03
200.814	73.56
201.033	10.07
201.252	77.65
201.471	55.12
201.69	63.32
201.909	14.17
202.128	3.93
202.347	77.65
202.566	22.36
202.785	-18.6
203.004	-2.22
203.223	151.38
203.442	65.36
203.661	36.69
203.879	53.08
204.098	69.46
204.317	-12.46
204.536	87.89
204.755	-20.65
204.974	65.36
205.193	20.31
205.411	112.47
205.63	61.27
205.849	65.36
206.068	104.28
206.287	16.21
206.505	12.12
206.724	22.36
206.943	77.65
207.162	108.37
207.381	61.27
207.599	22.36
207.818	-86.19
208.037	-4.27
208.255	32.6
208.474	-28.84
208.693	24.4
208.911	81.75
209.13	-49.32
209.349	-37.03
209.567	12.12
209.786	94.04
210.005	77.65
210.223	-12.46
210.442	32.6
210.661	-51.37
210.879	5.97
211.098	22.36
211.316	18.26
211.535	69.46
211.753	-10.41
211.972	20.31
212.191	-2.22
212.409	-0.17
212.628	44.88
212.846	16.21
213.065	69.46
213.283	81.75
213.502	3.93
213.72	18.26
213.938	-16.55
214.157	69.46
214.375	53.08
214.594	53.08
214.812	53.08
215.031	28.5
215.249	44.88
215.467	-4.27
215.686	38.74
215.904	118.61
216.122	-24.75
216.341	32.6
216.559	143.19
216.778	73.56
216.996	28.5
217.214	36.69
217.432	5.97
217.651	14.17
217.869	-51.37
218.087	5.97
218.306	12.12
218.524	-20.65
218.742	8.02
218.96	98.13
219.179	55.12
219.397	-8.36
219.615	65.36
219.833	48.98
220.051	3.93
220.27	-4.27
220.488	5.97
220.706	20.31
220.924	-2.22
221.142	5.97
221.36	-10.41
221.578	28.5
221.796	44.88
222.015	55.12
222.233	34.64
222.451	-51.37
222.669	-6.31
222.887	-2.22
223.105	-41.13
223.323	-2.22
223.541	22.36
223.759	53.08
223.977	-30.89
224.195	108.37
224.413	79.7
224.631	71.51
224.849	59.22
225.067	28.5
225.285	94.04
225.503	126.8
225.721	71.51
225.939	81.75
226.157	71.51
226.375	55.12
226.592	67.41
226.81	61.27
227.028	36.69
227.246	63.32
227.464	55.12
227.682	48.98
227.9	57.17
228.117	12.12
228.335	71.51
228.553	-12.46
228.771	3.93
228.989	61.27
229.206	53.08
229.424	-32.94
229.642	20.31
229.86	-22.7
230.077	65.36
230.295	12.12
230.513	63.32
230.731	38.74
230.948	53.08
231.166	61.27
231.384	51.03
231.601	22.36
231.819	20.31
232.037	-34.99
232.254	38.74
232.472	85.84
232.689	5.97
232.907	-0.17
233.125	-2.22
233.342	-4.27
233.56	5.97
233.777	71.51
233.995	-14.51
234.213	89.94
234.43	20.31
234.648	98.13
234.865	22.36
235.083	79.7
235.3	-4.27
235.518	-0.17
235.735	67.41
235.953	65.36
236.17	85.84
236.388	-2.22
236.605	28.5
236.822	-26.79
237.04	118.61
237.257	-12.46
237.475	-45.23
237.692	28.5
237.909	55.12
238.127	46.93
238.344	57.17
238.562	30.55
238.779	-12.46
238.996	53.08
239.214	106.32
239.431	112.47
239.648	22.36
239.865	69.46
240.083	53.08
240.3	40.79
240.517	-26.79
240.735	32.6
240.952	53.08
241.169	34.64
241.386	-0.17
241.603	65.36
241.821	-37.03
242.038	-0.17
242.255	28.5
242.472	-10.41
242.689	-8.36
242.907	100.18
243.124	16.21
243.341	38.74
243.558	40.79
243.775	-4.27
243.992	-20.65
244.209	20.31
244.426	5.97
244.643	44.88
244.86	-34.99
245.078	30.55
245.295	20.31
245.512	53.08
245.729	53.08
245.946	71.51
246.163	5.97
246.38	-0.17
246.597	-6.31
246.814	71.51
247.031	1.88
247.248	63.32
247.464	53.08
247.681	32.6
247.898	85.84
248.115	77.65
248.332	20.31
248.549	48.98
248.766	67.41
248.983	28.5
249.2	57.17
249.417	32.6
249.633	42.84
249.85	57.17
250.067	28.5
250.284	40.79
250.501	24.4
250.717	30.55
250.934	-32.94
251.151	77.65
251.368	-14.51
251.585	67.41
251.801	-4.27
252.018	3.93
252.235	85.84
252.451	3.93
252.668	53.08
252.885	44.88
253.102	79.7
253.318	18.26
253.535	-71.85
253.752	67.41
253.968	22.36
254.185	30.55
254.401	53.08
254.618	55.12
254.835	-63.66
255.051	91.99
255.268	20.31
255.484	28.5
255.701	18.26
255.917	36.69
256.134	67.41
256.351	-0.17
256.567	-100.52
256.784	61.27
257	61.27
257.217	57.17
257.433	98.13
257.65	22.36
257.866	77.65
258.082	61.27
258.299	30.55
258.515	-28.84
258.732	79.7
258.948	61.27
259.165	-26.79
259.381	20.31
259.597	102.23
259.814	36.69
260.03	-18.6
260.246	22.36
260.463	44.88
260.679	36.69
260.895	10.07
261.112	-6.31
261.328	24.4
261.544	75.6
261.761	48.98
261.977	69.46
262.193	-69.8
262.409	73.56
262.626	108.37
262.842	108.37
263.058	44.88
263.274	46.93
263.49	8.02
263.707	57.17
263.923	32.6
264.139	3.93
264.355	85.84
264.571	32.6
264.787	22.36
265.004	51.03
265.22	-12.46
265.436	20.31
265.652	30.55
265.868	36.69
266.084	55.12
266.3	51.03
266.516	63.32
266.732	-26.79
266.948	-24.75
267.164	40.79
267.38	53.08
267.596	48.98
267.812	79.7
268.028	26.45
268.244	102.23
268.46	-8.36
268.676	36.69
268.892	55.12
269.108	32.6
269.324	48.98
269.54	59.22
269.756	42.84
269.972	18.26
270.188	69.46
270.403	1.88
270.619	44.88
270.835	40.79
271.051	53.08
271.267	14.17
271.483	28.5
271.698	28.5
271.914	57.17
272.13	28.5
272.346	22.36
272.562	65.36
272.777	63.32
272.993	42.84
273.209	-37.03
273.425	63.32
273.64	-8.36
273.856	28.5
274.072	-0.17
274.287	20.31
274.503	67.41
274.719	28.5
274.934	28.5
275.15	26.45
275.366	-4.27
275.581	-8.36
275.797	5.97
276.012	22.36
276.228	36.69
276.444	79.7
276.659	10.07
276.875	67.41
277.09	55.12
277.306	-0.17
277.521	118.61
277.737	34.64
277.952	96.08
278.168	12.12
278.383	36.69
278.599	14.17
278.814	48.98
279.03	16.21
279.245	104.28
279.461	-2.22
279.676	44.88
279.892	48.98
280.107	77.65
280.322	-75.95
280.538	-14.51
280.753	8.02
280.969	57.17
281.184	96.08
281.399	81.75
281.615	8.02
281.83	-53.42
282.045	-45.23
282.26	55.12
282.476	-2.22
282.691	61.27
282.906	102.23
283.122	102.23
283.337	-18.6
283.552	85.84
283.767	-2.22
283.983	20.31
284.198	3.93
284.413	-22.7
284.628	20.31
284.843	5.97
285.058	-26.79
285.274	112.47
285.489	87.89
285.704	59.22
285.919	104.28
286.134	1.88
286.349	-18.6
286.564	14.17
286.779	100.18
286.995	22.36
287.21	-32.94
287.425	63.32
287.64	-2.22
287.855	32.6
288.07	55.12
288.285	114.52
288.5	143.19
288.715	141.14
288.93	-10.41
289.145	22.36
289.36	53.08
289.575	96.08
289.79	1.88
290.004	1.88
290.219	118.61
290.434	71.51
290.649	38.74
290.864	36.69
291.079	-41.13
291.294	44.88
291.509	61.27
291.724	53.08
291.938	44.88
292.153	63.32
292.368	55.12
292.583	34.64
292.798	-10.41
293.012	69.46
293.227	14.17
293.442	87.89
293.657	-24.75
293.871	44.88
294.086	24.4
294.301	71.51
294.516	85.84
294.73	59.22
294.945	30.55
295.16	5.97
295.374	67.41
295.589	104.28
295.804	-20.65
296.018	22.36
296.233	110.42
296.447	81.75
296.662	53.08
296.877	-45.23
297.091	28.5
297.306	32.6
297.52	44.88
297.735	20.31
297.949	30.55
298.164	26.45
298.378	16.21
298.593	3.93
298.807	-12.46
299.022	65.36
299.236	94.04
299.451	-32.94
299.665	32.6
299.88	-0.17
300.094	77.65
300.309	83.8
300.523	20.31
300.737	57.17
300.952	-43.18
301.166	32.6
301.381	40.79
301.595	36.69
301.809	30.55
302.024	53.08
302.238	48.98
302.452	79.7
302.667	-12.46
302.881	112.47
303.095	-4.27
303.309	-2.22
303.524	77.65
303.738	30.55
303.952	-49.32
304.166	73.56
304.381	81.75
304.595	96.08
304.809	-67.75
305.023	94.04
305.237	-65.71
305.452	48.98
305.666	48.98
305.88	-10.41
306.094	61.27
306.308	36.69
306.522	96.08
306.736	34.64
306.95	-37.03
307.164	28.5
307.379	-30.89
307.593	65.36
307.807	83.8
308.021	32.6
308.235	-59.56
308.449	-6.31
308.663	-12.46
308.877	135
309.091	114.52
309.305	36.69
309.519	-12.46
309.733	48.98
309.947	-12.46
310.161	12.12
310.374	53.08
310.588	20.31
310.802	-51.37
311.016	67.41
311.23	16.21
311.444	87.89
311.658	-20.65
311.872	106.32
312.085	85.84
312.299	57.17
312.513	46.93
312.727	38.74
312.941	5.97
313.154	104.28
313.368	-20.65
313.582	57.17
313.796	8.02
314.009	28.5
314.223	40.79
314.437	-75.95
314.651	130.9
314.864	65.36
315.078	44.88
315.292	-49.32
315.505	22.36
315.719	-34.99
315.933	53.08
316.146	42.84
316.36	-41.13
316.573	67.41
316.787	42.84
317.001	24.4
317.214	55.12
317.428	55.12
317.641	14.17
317.855	73.56
318.068	48.98
318.282	14.17
318.495	75.6
318.709	77.65
318.922	28.5
319.136	94.04
319.349	18.26
319.563	12.12
319.776	1.88
319.99	44.88
320.203	48.98
320.417	5.97
320.63	-0.17
320.843	51.03
321.057	36.69
321.27	79.7
321.483	79.7
321.697	59.22
321.91	57.17
322.124	44.88
322.337	53.08
322.55	-47.27
322.763	63.32
322.977	38.74
323.19	77.65
323.403	83.8
323.617	46.93
323.83	71.51
324.043	-12.46
324.256	28.5
324.469	20.31
324.683	118.61
324.896	22.36
325.109	110.42
325.322	44.88
325.535	-45.23
325.748	28.5
325.962	8.02
326.175	94.04
326.388	44.88
326.601	87.89
326.814	63.32
327.027	85.84
327.24	77.65
327.453	-4.27
327.666	30.55
327.879	63.32
328.092	71.51
328.305	16.21
328.518	44.88
328.731	77.65
328.944	42.84
329.157	-18.6
329.37	53.08
329.583	120.66
329.796	130.9
330.009	-37.03
330.222	57.17
330.435	28.5
330.648	12.12
330.861	34.64
331.073	46.93
331.286	-22.7
331.499	-12.46
331.712	-26.79
331.925	-18.6
332.138	55.12
332.35	108.37
332.563	53.08
332.776	28.5
332.989	32.6
333.202	89.94
333.414	36.69
333.627	65.36
333.84	-4.27
334.053	73.56
334.265	48.98
334.478	126.8
334.691	16.21
334.903	61.27
335.116	-14.51
335.329	3.93
335.541	61.27
335.754	71.51
335.966	-14.51
336.179	16.21
336.392	83.8
336.604	28.5
336.817	32.6
337.029	77.65
337.242	55.12
337.454	85.84
337.667	-6.31
337.88	75.6
338.092	32.6
338.305	34.64
338.517	98.13
338.729	8.02
338.942	89.94
339.154	53.08
339.367	32.6
339.579	94.04
339.792	20.31
340.004	44.88
340.217	5.97
340.429	20.31
340.641	12.12
340.854	-16.55
341.066	85.84
341.278	77.65
341.491	44.88
341.703	40.79
341.915	3.93
342.128	53.08
342.34	87.89
342.552	14.17
342.764	14.17
342.977	20.31
343.189	71.51
343.401	3.93
343.613	16.21
343.826	53.08
344.038	71.51
344.25	32.6
344.462	-16.55
344.674	53.08
344.886	44.88
345.099	-12.46
345.311	59.22
345.523	12.12
345.735	51.03
345.947	28.5
346.159	8.02
346.371	3.93
346.583	53.08
346.795	98.13
347.007	55.12
347.219	46.93
347.431	34.64
347.643	73.56
347.855	61.27
348.067	122.71
348.279	53.08
348.491	71.51
348.703	24.4
348.915	12.12
349.127	16.21
349.339	-18.6
349.551	85.84
349.763	59.22
349.975	3.93
350.187	18.26
350.399	38.74
350.61	40.79
350.822	22.36
351.034	118.61
351.246	85.84
351.458	53.08
351.669	26.45
351.881	16.21
352.093	34.64
352.305	77.65
352.517	120.66
352.728	53.08
352.94	-12.46
353.152	46.93
353.363	-16.55
353.575	5.97
353.787	3.93
353.999	85.84
354.21	122.71
354.422	16.21
354.633	5.97
354.845	-2.22
355.057	73.56
355.268	-0.17
355.48	32.6
355.692	-26.79
355.903	42.84
356.115	-12.46
356.326	20.31
356.538	48.98
356.749	59.22
356.961	87.89
357.172	-28.84
357.384	46.93
357.595	137.04
357.807	3.93
358.018	-28.84
358.23	69.46
358.441	55.12
358.653	34.64
358.864	89.94
359.075	8.02
359.287	26.45
359.498	3.93
359.709	-12.46
359.921	44.88
360.132	75.6
360.344	53.08
360.555	-53.42
360.766	32.6
360.977	55.12
361.189	46.93
361.4	120.66
361.611	79.7
361.823	-32.94
362.034	38.74
362.245	34.64
362.456	96.08
362.667	79.7
362.879	46.93
363.09	98.13
363.301	-37.03
363.512	-26.79
363.723	61.27
363.935	104.28
364.146	46.93
364.357	-30.89
364.568	79.7
364.779	-16.55
364.99	73.56
365.201	5.97
365.412	63.32
365.623	8.02
365.834	46.93
366.045	83.8
366.256	61.27
366.467	38.74
366.678	55.12
366.889	65.36
367.1	69.46
367.311	46.93
367.522	102.23
367.733	36.69
367.944	87.89
368.155	98.13
368.366	12.12
368.577	57.17
368.788	55.12
368.999	30.55
369.209	94.04
369.42	155.47
369.631	51.03
369.842	65.36
370.053	71.51
370.264	24.4
370.474	28.5
370.685	77.65
370.896	28.5
371.107	42.84
371.317	96.08
371.528	30.55
371.739	151.38
371.95	30.55
372.16	44.88
372.371	-4.27
372.582	-26.79
372.792	120.66
373.003	53.08
373.214	14.17
373.424	91.99
373.635	36.69
373.846	116.56
374.056	36.69
374.267	24.4
374.477	40.79
374.688	-26.79
374.898	104.28
375.109	36.69
375.319	55.12
375.53	91.99
375.74	57.17
375.951	42.84
376.161	143.19
376.372	30.55
376.582	44.88
376.793	112.47
377.003	44.88
377.214	12.12
377.424	48.98
377.635	61.27
377.845	5.97
378.055	71.51
378.266	102.23
378.476	3.93
378.686	-69.8
378.897	79.7
379.107	36.69
379.317	28.5
379.528	73.56
379.738	63.32
379.948	-45.23
380.158	100.18
380.369	59.22
380.579	20.31
380.789	-37.03
380.999	55.12
381.21	73.56
381.42	128.85
381.63	75.6
381.84	30.55
382.05	28.5
382.261	65.36
382.471	87.89
382.681	36.69
382.891	57.17
383.101	73.56
383.311	69.46
383.521	46.93
383.731	40.79
383.941	36.69
384.151	61.27
384.361	75.6
384.571	-4.27
384.781	26.45
384.991	44.88
385.201	135
385.411	96.08
385.621	112.47
385.831	69.46
386.041	53.08
386.251	38.74
386.461	159.57
386.671	-20.65
386.881	48.98
387.091	61.27
387.301	102.23
387.511	5.97
387.72	73.56
387.93	65.36
388.14	53.08
388.35	22.36
388.56	73.56
388.769	22.36
388.979	-22.7
389.189	100.18
389.399	73.56
389.609	130.9
389.818	100.18
390.028	104.28
390.238	69.46
390.447	-4.27
390.657	126.8
390.867	69.46
391.076	53.08
391.286	126.8
391.496	32.6
391.705	77.65
391.915	-0.17
392.125	85.84
392.334	94.04
392.544	126.8
392.753	89.94
392.963	28.5
393.172	34.64
393.382	110.42
393.591	91.99
393.801	28.5
394.01	130.9
394.22	89.94
394.429	135
394.639	71.51
394.848	151.38
395.058	1.88
395.267	55.12
395.477	110.42
395.686	159.57
395.895	79.7
396.105	94.04
396.314	110.42
396.524	44.88
396.733	71.51
396.942	118.61
397.152	139.09
397.361	102.23
397.57	65.36
397.78	137.04
397.989	3.93
398.198	200.53
398.407	98.13
398.617	38.74
398.826	163.67
399.035	135
399.244	122.71
399.453	128.85
399.663	147.28
399.872	94.04
400.081	38.74
400.29	118.61
400.499	110.42
400.708	135
400.917	137.04
401.127	67.41
401.336	139.09
401.545	221.01
401.754	63.32
401.963	89.94
402.172	114.52
402.381	89.94
402.59	102.23
402.799	104.28
403.008	200.53
403.217	120.66
403.426	69.46
403.635	161.62
403.844	96.08
404.053	112.47
404.262	106.32
404.471	196.43
404.68	147.28
404.888	116.56
405.097	126.8
405.306	130.9
405.515	94.04
405.724	208.72
405.933	153.43
406.142	175.95
406.35	186.19
406.559	151.38
406.768	126.8
406.977	218.96
407.185	208.72
407.394	145.24
407.603	167.76
407.812	202.58
408.02	261.97
408.229	178
408.438	202.58
408.646	180.05
408.855	266.07
409.064	237.39
409.272	239.44
409.481	247.63
409.69	309.07
409.898	243.54
410.107	309.07
410.315	366.42
410.524	278.35
410.733	319.31
410.941	317.26
411.15	354.13
411.358	307.02
411.567	472.91
411.775	335.7
411.984	327.5
412.192	362.32
412.401	483.15
412.609	483.15
412.818	470.86
413.026	507.73
413.234	503.63
413.443	474.96
413.651	448.33
413.86	554.83
414.068	517.97
414.276	665.42
414.485	534.35
414.693	565.07
414.901	661.32
415.11	685.9
415.318	655.18
415.526	757.58
415.734	741.19
415.943	786.25
416.151	841.54
416.359	802.63
416.567	859.98
416.776	814.92
416.984	1013.57
417.192	937.8
417.4	900.94
417.608	831.3
417.817	1036.1
418.025	1050.44
418.233	1154.88
418.441	1034.05
418.649	1150.79
418.857	1183.56
419.065	1318.72
419.273	1228.61
419.481	1308.48
419.689	1335.1
419.897	1392.45
420.105	1447.74
420.313	1457.98
420.521	1484.61
420.729	1627.96
420.937	1535.81
421.145	1634.11
421.353	1773.37
421.561	1769.27
421.769	1910.58
421.977	1904.44
422.185	1857.34
422.393	1963.83
422.601	2178.87
422.809	2086.71
423.017	2221.88
423.224	2330.42
423.432	2223.92
423.64	2393.9
423.848	2447.15
424.056	2512.69
424.263	2778.92
424.471	2613.04
424.679	2731.82
424.887	2821.93
425.094	2957.1
425.302	2869.03
425.51	3084.07
425.718	3106.6
425.925	3170.08
426.133	3424.03
426.341	3446.56
426.548	3620.64
426.756	3575.58
426.964	3764
427.171	3858.2
427.379	3948.31
427.586	3927.83
427.794	4126.49
428.001	4263.7
428.209	4558.61
428.417	4513.55
428.624	4892.43
428.832	4806.41
429.039	4722.45
429.247	4888.33
429.454	5099.27
429.662	5582.59
429.869	5144.33
430.076	5551.87
430.284	5379.84
430.491	5748.48
430.699	5959.42
430.906	6143.74
431.114	6133.5
431.321	6500.08
431.528	6285.05
431.736	6872.81
431.943	7212.78
432.15	6868.72
432.358	6889.2
432.565	7472.87
432.772	7159.53
432.979	7802.59
433.187	7978.72
433.394	8007.39
433.601	8478.42
433.808	8527.57
434.016	8310.49
434.223	8933.07
434.43	9246.41
434.637	9041.61
434.844	9598.66
435.052	9952.96
435.259	9975.49
435.466	9877.18
435.673	9854.65
435.88	10368.7
436.087	10991.28
436.294	10919.6
436.501	10653.36
436.708	11081.39
436.915	11083.44
437.122	11974.3
437.329	11714.21
437.537	12043.93
437.743	12404.38
437.95	12209.82
438.157	13145.74
438.364	13366.92
438.571	13319.82
438.778	13338.25
438.985	14560.89
439.192	14028.42
439.399	14380.67
439.606	14003.84
439.813	14792.31
440.02	16109.15
440.227	15588.97
440.433	15466.09
440.64	15795.81
440.847	15779.43
441.054	16199.26
441.261	17276.49
441.467	16950.87
441.674	17477.19
441.881	18007.62
442.088	18245.18
442.294	17780.29
442.501	18234.94
442.708	18470.46
442.914	19412.53
443.121	20272.67
443.328	19727.91
443.534	21018.13
443.741	20534.81
443.948	19979.81
444.154	21804.55
444.361	21384.72
444.568	21763.59
444.774	21741.07
444.981	22175.23
445.187	22472.19
445.394	23487.98
445.6	22982.13
445.807	25150.93
446.013	24200.68
446.22	24747.48
446.426	25523.66
446.633	25882.06
446.839	26611.14
447.046	25882.06
447.252	27205.05
447.459	27243.96
447.665	26666.43
447.871	27991.47
448.078	29054.36
448.284	27940.27
448.491	28718.5
448.697	29785.49
448.903	30573.95
449.11	30328.2
449.316	30018.96
449.522	30772.61
449.728	30928.25
449.935	31778.16
450.141	31298.94
450.347	32376.17
450.553	31292.79
450.76	31966.57
450.966	32660.83
451.172	32472.42
451.378	33332.57
451.584	32572.77
451.791	33453.4
451.997	33060.19
452.203	33965.39
452.409	33523.03
452.615	33574.23
452.821	32425.32
453.027	32034.16
453.233	33711.44
453.44	32546.15
453.646	32793.95
453.852	33002.85
454.058	33541.46
454.264	32284.01
454.47	33310.04
454.676	32421.22
454.882	33437.02
455.088	30811.52
455.294	31149.43
455.5	31358.33
455.705	31837.55
455.911	30629.25
456.117	29787.53
456.323	29795.73
456.529	28054.95
456.735	29592.98
456.941	28280.23
457.147	28163.5
457.352	27538.87
457.558	27207.09
457.764	27037.11
457.97	26490.31
458.176	25814.48
458.381	25943.5
458.587	24716.76
458.793	24810.97
458.999	23447.02
459.204	24909.27
459.41	24026.6
459.616	22558.21
459.821	22928.89
460.027	22840.82
460.233	22324.74
460.438	21419.53
460.644	21499.41
460.85	20493.85
461.055	20293.15
461.261	20071.97
461.466	18570.81
461.672	18232.9
461.878	19297.84
462.083	18009.67
462.289	17499.72
462.494	17665.61
462.7	16866.9
462.905	16594.52
463.111	16903.76
463.316	16911.96
463.522	16563.8
463.727	16670.29
463.932	16633.43
464.138	16240.22
464.343	16461.4
464.549	15865.44
464.754	16365.15
464.959	16451.16
465.165	16219.74
465.37	15543.91
465.575	15019.63
465.781	15679.08
465.986	15789.67
466.191	15216.24
466.397	15109.74
466.602	14206.59
466.807	14728.82
467.012	14773.88
467.218	14538.36
467.423	14407.29
467.628	14734.96
467.833	15195.76
468.038	14564.98
468.244	14474.87
468.449	14904.95
468.654	14354.04
468.859	14233.21
469.064	14087.81
469.269	13528.71
469.474	13588.1
469.679	13817.47
469.885	13536.9
470.09	13848.19
470.295	13442.7
470.5	13188.75
470.705	13317.77
470.91	13229.71
471.115	13004.43
471.32	13282.95
471.525	13315.72
471.73	12760.72
471.935	12633.75
472.139	12261.02
472.344	12654.23
472.549	12242.59
472.754	12002.97
472.959	12123.8
473.164	11722.4
473.369	11663.01
473.574	11937.44
473.778	11871.9
473.983	11773.6
474.188	11808.42
474.393	11259.56
474.598	11456.17
474.802	11329.19
475.007	11114.16
475.212	11097.77
475.417	10604.21
475.621	10829.49
475.826	10819.25
476.031	10524.34
476.235	10311.35
476.44	10495.67
476.645	10409.65
476.849	10340.02
477.054	10354.36
477.259	9838.27
477.463	10174.14
477.668	9801.41
477.872	10092.22
478.077	9877.18
478.282	9428.68
478.486	9404.1
478.691	9449.16
478.895	9459.4
479.1	9352.9
479.304	9346.76
479.509	9092.81
479.713	9400.01
479.918	8826.57
480.122	8707.79
480.326	9096.91
480.531	9088.71
480.735	8955.6
480.94	9051.85
481.144	9014.99
481.348	8730.32
481.553	8572.63
481.757	8638.16
481.961	8705.74
482.166	8896.21
482.37	8834.77
482.574	8654.55
482.778	8511.19
482.983	8793.81
483.187	8459.99
483.391	8675.02
483.595	8552.15
483.8	8619.73
484.004	8591.06
484.208	8881.87
484.412	8578.77
484.616	8689.36
484.821	8732.37
485.025	8548.05
485.229	8715.98
485.433	8681.17
485.637	8539.86
485.841	8441.56
486.045	8369.88
486.249	8498.9
486.453	8355.54
486.657	8484.56
486.861	8679.12
487.065	8353.49
487.269	8662.74
487.473	8316.63
487.677	8494.8
487.881	8695.5
488.085	8457.94
488.289	8898.25
488.493	8699.6
488.697	8498.9
488.901	8765.14
489.105	8752.85
489.309	8675.02
489.512	8634.07
489.716	8629.97
489.92	8574.67
490.124	8720.08
490.328	8914.64
490.531	8664.79
490.735	9074.38
490.939	8758.99
491.143	8994.51
491.346	8756.94
491.55	9006.8
491.754	8933.07
491.958	9014.99
492.161	8918.73
492.365	9221.83
492.569	9039.56
492.772	9244.36
492.976	9041.61
493.18	9113.29
493.383	9277.13
493.587	9232.07
493.79	9498.31
493.994	9162.44
494.197	9660.1
494.401	9561.8
494.605	9469.64
494.808	9952.96
495.012	9639.62
495.215	9764.54
495.419	9987.77
495.622	9967.29
495.825	10000.06
496.029	10010.3
496.232	10167.99
496.436	10153.66
496.639	10493.62
496.843	10368.7
497.046	10403.51
497.249	10831.54
497.453	10776.24
497.656	10983.09
497.859	10747.57
498.063	10974.89
498.266	11239.08
498.469	11277.99
498.673	11234.99
498.876	11400.87
499.079	11382.44
499.282	11622.05
499.485	11976.35
499.689	11785.89
499.892	12125.85
500.095	12156.57
500.298	12469.91
500.501	12195.48
500.705	12572.31
500.908	12803.73
501.111	12797.59
501.314	13000.33
501.517	13047.44
501.72	13282.95
501.923	13141.64
502.126	13674.12
502.329	13756.04
502.532	13637.25
502.735	13944.45
502.938	14075.52
503.141	14235.26
503.344	14249.6
503.547	14575.22
503.75	14734.96
503.953	14782.07
504.156	14786.16
504.359	14880.37
504.562	15175.28
504.765	15505
504.968	15666.79
505.17	15783.52
505.373	15916.64
505.576	16199.26
505.779	16447.07
505.982	16451.16
506.185	16582.23
506.387	16694.87
506.59	16606.81
506.793	17282.64
506.996	17305.17
507.198	17624.65
507.401	17620.55
507.604	17950.28
507.807	18249.28
508.009	18226.75
508.212	18140.74
508.415	18667.06
508.617	18650.68
508.82	18806.33
509.022	18980.4
509.225	19359.28
509.428	19674.67
509.63	19719.72
509.833	19383.85
510.035	20049.44
510.238	20043.3
510.44	20264.48
510.643	20483.61
510.845	20694.55
511.048	20686.36
511.25	20844.06
511.453	21028.37
511.655	21835.27
511.858	21648.91
512.06	22005.25
512.262	21997.06
512.465	22128.13
512.667	22310.4
512.87	22750.71
513.072	22674.94
513.274	23236.08
513.477	23289.33
513.679	23496.17
513.881	23891.43
514.084	23971.3
514.286	23825.9
514.488	24352.23
514.69	24790.49
514.893	25062.87
515.095	24825.31
515.297	25181.65
515.499	25195.99
515.701	25527.76
515.904	25664.97
516.106	26086.86
516.308	26232.26
516.51	26588.61
516.712	26455.49
516.914	26903.99
517.116	27239.86
517.318	27270.58
517.52	27504.05
517.722	27798.96
517.925	28067.24
518.127	28353.96
518.329	28579.23
518.531	28349.86
518.733	29056.41
518.935	29253.01
519.136	29113.75
519.338	29617.55
519.54	29791.63
519.742	30135.69
519.944	30600.58
520.146	30659.97
520.348	30999.93
520.55	30807.42
520.752	30799.23
520.954	31800.69
521.155	31561.08
521.357	31909.23
521.559	32028.01
521.761	32562.53
521.963	32382.31
522.164	32607.59
522.366	32679.27
522.568	33656.15
522.77	33623.38
522.971	33617.24
523.173	33621.33
523.375	33813.84
523.576	33721.68
523.778	33742.16
523.98	34493.77
524.181	34440.52
524.383	34686.28
524.584	35286.33
524.786	35061.05
524.988	35196.22
525.189	35386.68
525.391	35417.4
525.592	35845.43
525.794	35964.21
525.995	35962.16
526.197	36095.28
526.398	36463.91
526.6	36103.47
526.801	36949.28
527.003	36992.29
527.204	36824.36
527.406	37188.89
527.607	37123.36
527.808	37905.68
528.01	36932.9
528.211	37383.45
528.412	37776.66
528.614	37733.65
528.815	37610.78
529.016	37973.27
529.218	38069.52
529.419	38153.49
529.62	38180.11
529.822	38083.86
530.023	38526.22
530.224	38421.77
530.425	38546.7
530.626	38135.06
530.828	38190.35
531.029	38841.6
531.23	37913.87
531.431	38292.75
531.632	39003.39
531.833	39068.93
532.035	38581.51
532.236	39255.29
532.437	39288.06
532.638	38737.16
532.839	38929.67
533.04	39390.46
533.241	38677.77
533.442	39460.09
533.643	39208.19
533.844	38814.98
534.045	39218.43
534.246	38632.71
534.447	39343.36
534.648	39202.05
534.849	39347.45
535.05	38759.69
535.251	39363.84
535.451	39200
535.652	39380.22
535.853	39134.46
536.054	39283.97
536.255	39359.74
536.456	39077.12
536.657	39804.15
536.857	39341.31
537.058	39212.29
537.259	39775.48
537.46	39445.76
537.66	39476.47
537.861	39605.5
538.062	39001.35
538.263	39630.07
538.463	39337.21
538.664	38880.52
538.865	39191.81
539.065	39251.2
539.266	38984.96
539.466	39453.95
539.667	38823.17
539.868	39585.02
540.068	39042.31
540.269	39445.76
540.469	39572.73
540.67	39050.5
540.87	39156.99
541.071	39314.69
541.271	39300.35
541.472	38982.91
541.672	39048.45
541.873	39173.38
542.073	38571.27
542.274	39558.39
542.474	39214.33
542.675	38995.2
542.875	39099.65
543.075	39488.76
543.276	38874.37
543.476	39068.93
543.676	39232.77
543.877	39265.53
544.077	39044.35
544.277	39245.05
544.478	39122.18
544.678	39314.69
544.878	39118.08
545.078	39615.74
545.279	38653.19
545.479	38952.19
545.679	39011.59
545.879	39197.95
546.079	38755.59
546.28	38962.43
546.48	38718.73
546.68	38642.95
546.88	39177.47
547.08	39019.78
547.28	38784.26
547.48	38921.48
547.68	38931.72
547.88	38802.69
548.081	39109.89
548.281	39009.54
548.481	38806.79
548.681	39101.7
548.881	38878.47
549.081	39048.45
549.28	38823.17
549.48	39210.24
549.68	38804.74
549.88	39206.14
550.08	38249.74
550.28	38499.59
550.48	38798.6
550.68	39156.99
550.88	38720.77
551.08	38894.85
551.279	38919.43
551.479	38380.81
551.679	38761.73
551.879	38452.49
552.079	38673.67
552.278	38733.06
552.478	38835.46
552.678	38935.81
552.878	38767.88
553.077	38585.61
553.277	38493.45
553.477	39077.12
553.676	38509.83
553.876	38395.15
554.076	38249.74
554.275	38133.01
554.475	37631.26
554.674	38325.52
554.874	38319.37
555.074	38184.21
555.273	38440.2
555.473	38536.46
555.672	37989.65
555.872	38010.13
556.071	38337.8
556.271	38272.27
556.47	37848.34
556.67	37604.63
556.869	38419.72
557.068	37932.31
557.268	37987.6
557.467	37723.41
557.667	37967.12
557.866	38026.51
558.065	37776.66
558.265	37891.35
558.464	37657.88
558.663	38157.58
558.863	37420.31
559.062	38130.96
559.261	37645.59
559.461	37911.83
559.66	37147.93
559.859	37373.21
560.058	37156.13
560.258	37551.38
560.457	37182.75
560.656	37502.23
560.855	37166.37
561.054	37258.52
561.253	37184.8
561.453	37029.15
561.652	37209.37
561.851	37350.68
562.05	37102.88
562.249	36609.32
562.448	36828.45
562.647	36924.71
562.846	36578.6
563.045	36771.11
563.244	36527.4
563.443	36850.98
563.642	36035.89
563.841	36384.04
564.04	35575.09
564.239	36633.89
564.438	36226.35
564.637	36187.44
564.836	36369.71
565.035	36126
565.234	36097.33
565.432	35771.7
565.631	35743.03
565.83	35876.15
566.029	35749.17
566.228	35554.61
566.427	35640.63
566.625	35265.85
566.824	35128.64
567.023	35841.33
567.222	35028.29
567.42	35759.41
567.619	35237.18
567.818	35425.59
568.016	34995.52
568.215	35505.46
568.414	34901.31
568.612	35063.1
568.811	34628.93
569.01	35005.76
569.208	34377.03
569.407	34813.25
569.605	34704.71
569.804	34784.58
570.002	34225.48
570.201	34630.98
570.4	34610.5
570.598	34178.38
570.797	33959.25
570.995	34198.86
571.193	33506.65
571.392	34233.67
571.59	33535.32
571.789	34014.54
571.987	33828.18
572.186	33803.6
572.384	33529.17
572.582	33686.87
572.781	33561.94
572.979	33170.78
573.177	33363.29
573.376	33477.97
573.574	32955.74
573.772	33226.07
573.971	33430.87
574.169	32820.58
574.367	32187.75
574.565	32779.62
574.763	32834.91
574.962	32699.75
575.16	32394.6
575.358	32241
575.556	32410.98
575.754	32611.68
575.952	32435.56
576.151	32468.33
576.349	31937.9
576.547	32128.36
576.745	32042.35
576.943	32023.92
577.141	31690.1
577.339	31933.81
577.537	31894.89
577.735	31454.58
577.933	31171.96
578.131	31772.02
578.329	31495.54
578.527	31298.94
578.725	31239.54
578.923	31161.72
579.121	31051.13
579.319	30979.45
579.516	31217.02
579.714	31221.11
579.912	30723.46
580.11	31010.17
580.308	31042.94
580.506	30395.78
580.704	30240.14
580.901	30272.9
581.099	30254.47
581.297	30299.53
581.495	30254.47
581.692	30340.49
581.89	30227.85
582.088	30152.07
582.285	30096.78
582.483	30186.89
582.681	30125.45
582.878	30119.31
583.076	29646.22
583.274	29908.36
583.471	29386.13
583.669	29494.68
583.866	29167
584.064	29240.73
584.262	29044.12
584.459	29511.06
584.657	29126.04
584.854	29494.68
585.052	28794.27
585.249	28949.92
585.447	28915.1
585.644	28585.38
585.841	28847.52
586.039	29046.17
586.236	28251.56
586.434	28394.92
586.631	28237.22
586.828	28138.92
587.026	28155.3
587.223	28145.06
587.42	27952.55
587.618	27999.66
587.815	28087.72
588.012	27846.06
588.21	27671.98
588.407	28083.62
588.604	27651.5
588.801	27735.47
588.999	27712.94
589.196	27430.32
589.393	27211.19
589.59	27080.12
589.787	27203
589.984	27022.78
590.182	27094.46
590.379	27508.15
590.576	26869.18
590.773	26742.21
590.97	26582.46
591.167	26774.97
591.364	26518.98
591.561	26590.66
591.758	26332.61
591.955	26367.43
592.152	26631.61
592.349	26488.26
592.546	26402.24
592.743	26461.63
592.94	25683.41
593.137	26078.66
593.334	26203.59
593.531	25589.2
593.727	25748.94
593.924	25769.42
594.121	25458.13
594.318	25660.88
594.515	25204.18
594.712	25699.79
594.908	25433.55
595.105	25302.48
595.302	25116.12
595.499	25167.32
595.696	24841.69
595.892	24970.71
596.089	24853.98
596.286	25169.37
596.482	24882.65
596.679	24602.08
596.876	25001.43
597.072	24620.51
597.269	24952.28
597.466	24389.09
597.662	24174.05
597.859	24178.15
598.055	24530.4
598.252	24108.52
598.448	24339.94
598.645	23983.59
598.841	23873
599.038	23844.33
599.234	23875.05
599.431	23539.18
599.627	23457.26
599.824	23645.68
600.02	23221.75
600.217	23528.94
600.413	23301.62
600.609	23391.73
600.806	23594.48
601.002	23498.22
601.198	23188.98
601.395	22830.58
601.591	23219.7
601.787	22730.23
601.984	22863.35
602.18	22838.78
602.376	22744.57
602.572	22769.15
602.769	22806.01
602.965	22246.91
603.161	22650.36
603.357	22208
603.553	22365.7
603.75	22513.15
603.946	22009.35
604.142	22246.91
604.338	21937.67
604.534	22406.66
604.73	21984.77
604.926	21923.33
605.122	22113.8
605.318	21974.53
605.514	21767.69
605.71	21863.94
605.906	21741.07
606.102	21376.53
606.298	21554.7
606.494	21530.12
606.69	21526.03
606.886	21337.62
607.082	20954.65
607.278	21540.36
607.474	20946.45
607.67	21145.11
607.866	20680.22
608.062	20923.93
608.257	21173.78
608.453	20917.78
608.649	21294.61
608.845	20745.75
609.041	20919.83
609.236	20854.3
609.432	20618.78
609.628	20885.01
609.824	20743.7
610.019	20672.03
610.215	20780.57
610.411	20518.43
610.606	20358.69
610.802	20952.6
610.998	20563.48
611.193	20633.11
611.389	20399.65
611.584	20403.74
611.78	20233.76
611.976	20616.73
612.171	20377.12
612.367	20233.76
612.562	20147.75
612.758	19910.18
612.953	20055.59
613.149	20160.03
613.344	19951.14
613.539	20155.94
613.735	20000.29
613.93	19672.62
614.126	19631.66
614.321	19689
614.517	19820.07
614.712	19836.45
614.907	19689
615.103	19850.79
615.298	19312.17
615.493	19562.03
615.688	19373.61
615.884	19979.81
616.079	19240.5
616.274	19469.87
616.47	19447.34
616.665	19256.88
616.86	19183.15
617.055	19330.61
617.25	19107.38
617.445	19211.82
617.641	18894.39
617.836	19123.76
618.031	18949.68
618.226	19129.91
618.421	18884.15
618.616	19152.43
618.811	18722.36
619.006	19017.27
619.201	18255.42
619.396	18853.43
619.591	18546.23
619.786	18359.87
619.981	18239.04
620.176	18632.25
620.371	18124.35
620.566	18253.37
620.761	18091.59
620.956	18060.87
621.151	17751.62
621.346	17940.04
621.541	17485.39
621.735	17858.12
621.93	17329.74
622.125	17538.63
622.32	17409.61
622.515	17573.45
622.709	17235.53
622.904	17356.36
623.099	17071.7
623.294	17086.03
623.488	17004.11
623.683	16772.69
623.878	16670.29
624.072	16707.16
624.267	16698.97
624.462	16868.95
624.656	16592.47
624.851	16344.67
625.046	16283.23
625.24	16125.54
625.435	16027.23
625.629	16227.93
625.824	15828.58
626.018	15677.03
626.213	15761
626.407	15732.33
626.602	15672.93
626.796	15767.14
626.991	15677.03
627.185	15373.93
627.38	15261.29
627.574	15185.52
627.768	15023.73
627.963	14831.22
628.157	15040.11
628.352	14997.1
628.546	14653.05
628.74	14763.64
628.935	14757.49
629.129	14438.01
629.323	14597.75
629.517	14532.22
629.712	14458.49
629.906	14356.09
630.1	14108.29
630.294	14222.97
630.489	14048.89
630.683	14024.32
630.877	13776.52
631.071	13932.16
631.265	13989.5
631.459	13723.27
631.653	13588.1
631.848	13563.53
632.042	13379.21
632.236	13442.7
632.43	13325.96
632.624	13219.47
632.818	13149.84
633.012	13084.3
633.206	13063.82
633.4	13153.93
633.594	12963.47
633.788	13067.92
633.982	12965.52
634.176	12820.11
634.369	12506.77
634.563	12603.03
634.757	12557.97
634.951	12379.8
635.145	12310.17
635.339	12404.38
635.533	12390.04
635.726	12267.16
635.92	12127.9
636.114	12031.65
636.308	12037.79
636.501	12236.44
636.695	12172.96
636.889	11976.35
637.083	11613.86
637.276	11876
637.47	11626.15
637.664	11746.98
637.857	11663.01
638.051	11519.65
638.244	11402.92
638.438	11421.35
638.632	11366.06
638.825	11290.28
639.019	11267.75
639.212	11185.83
639.406	11243.18
639.599	11032.24
639.793	11169.45
639.986	10712.75
640.18	11005.61
640.373	10731.19
640.567	10522.29
640.76	10546.87
640.954	10774.19
641.147	10616.5
641.34	10489.53
641.534	10550.96
641.727	10532.53
641.92	10317.5
642.114	10485.43
642.307	10163.9
642.5	10270.39
642.694	10038.97
642.887	9866.94
643.08	10002.11
643.273	10139.32
643.467	10055.36
643.66	9899.71
643.853	9948.86
644.046	9768.64
644.239	9793.22
644.432	9641.67
644.626	9502.4
644.819	9711.3
645.012	9549.51
645.205	9508.55
645.398	9717.44
645.591	9236.17
645.784	9416.39
645.977	9227.98
646.17	9479.88
646.363	9309.9
646.556	9150.15
646.749	9125.58
646.942	9172.68
647.135	8949.45
647.328	9066.19
647.521	8935.12
647.714	9006.8
647.907	8853.2
648.099	8740.56
648.292	8842.96
648.485	8619.73
648.678	8527.57
648.871	8470.23
649.064	8494.8
649.256	8750.8
649.449	8560.34
649.642	8582.87
649.835	8416.98
650.027	8181.46
650.22	8316.63
650.413	8171.22
650.605	8085.21
650.798	8203.99
650.991	8025.82
651.183	8017.63
651.376	8181.46
651.568	8128.22
651.761	7995.1
651.954	7913.18
652.146	7845.6
652.339	8156.89
652.531	7648.99
652.724	7864.03
652.916	7687.9
653.109	7687.9
653.301	7931.61
653.494	7556.83
653.686	7384.8
653.879	7616.23
654.071	7622.37
654.263	7511.78
654.456	7372.52
654.648	7558.88
654.84	7429.86
655.033	7429.86
655.225	7294.69
655.417	7161.58
655.61	7229.16
655.802	7200.49
655.994	7007.98
656.186	7100.14
656.379	7196.39
656.571	7048.94
656.763	6895.34
656.955	6962.92
657.148	6737.65
657.34	7030.51
657.532	6813.42
657.724	6811.37
657.916	6825.71
658.108	6819.57
658.3	6665.97
658.492	6684.4
658.684	6598.38
658.876	6647.54
659.068	6534.9
659.26	6352.63
659.452	6520.56
659.644	6590.19
659.836	6412.02
660.028	6383.35
660.22	6285.05
660.412	6244.09
660.604	6321.91
660.796	6342.39
660.988	6330.1
661.18	6323.96
661.372	6049.53
661.563	6205.17
661.755	6342.39
661.947	6096.63
662.139	6125.3
662.331	6051.58
662.522	6057.72
662.714	5990.14
662.906	5959.42
663.097	6117.11
663.289	5945.08
663.481	5723.9
663.673	6039.29
663.864	5717.76
664.056	5705.47
664.247	5605.12
664.439	5711.61
664.631	5746.43
664.822	5668.61
665.014	5803.77
665.205	5598.98
665.397	5402.37
665.588	5633.79
665.78	5504.77
665.971	5529.34
666.163	5488.39
666.354	5531.39
666.546	5537.54
666.737	5394.18
666.929	5390.08
667.12	5461.76
667.311	5410.56
667.503	5252.87
667.694	5306.12
667.885	5324.55
668.077	5338.88
668.268	5265.16
668.459	5166.85
668.651	5148.42
668.842	5099.27
669.033	5091.08
669.224	4970.25
669.416	5052.17
669.607	5156.61
669.798	5054.22
669.989	5168.9
670.18	5113.61
670.371	5013.26
670.563	5048.07
670.754	5091.08
670.945	4968.2
671.136	5068.55
671.327	4898.57
671.518	4839.18
671.709	4904.71
671.9	4957.96
672.091	4769.55
672.282	4898.57
672.473	4765.45
672.664	4763.4
672.855	4790.03
673.046	4816.65
673.237	4787.98
673.428	4626.19
673.619	4816.65
673.809	4591.38
674	4814.6
674.191	4917
674.382	4734.73
674.573	4732.69
674.764	4593.42
674.954	4634.38
675.145	4554.51
675.336	4699.92
675.527	4636.43
675.717	4603.66
675.908	4607.76
676.099	4484.88
676.289	4650.77
676.48	4456.21
676.671	4482.83
676.861	4558.61
677.052	4419.35
677.243	4353.81
677.433	4323.09
677.624	4484.88
677.814	4380.43
678.005	4488.98
678.195	4419.35
678.386	4392.72
678.576	4341.52
678.767	4353.81
678.957	4290.32
679.148	4345.62
679.338	4450.07
679.529	4316.95
679.719	4327.19
679.909	4402.96
680.1	4380.43
680.29	4306.71
680.481	4378.39
680.671	4247.32
680.861	4288.28
681.052	4312.85
681.242	4290.32
681.432	4259.6
681.622	4323.09
681.813	4175.64
682.003	4206.36
682.193	4118.29
682.383	4396.82
682.573	4232.98
682.764	4151.06
682.954	4257.56
683.144	4329.24
683.334	4169.49
683.524	4054.81
683.714	4235.03
683.904	4232.98
684.094	4183.83
684.284	4087.57
684.474	4189.97
684.664	4206.36
684.854	4120.34
685.044	4081.43
685.234	4161.3
685.424	4097.81
685.614	4028.18
685.804	4112.15
685.994	4015.9
686.184	4134.68
686.374	4073.24
686.564	3925.79
686.753	4089.62
686.943	3946.27
687.133	4034.33
687.323	3925.79
687.513	3882.78
687.702	3882.78
687.892	3788.57
688.082	3903.26
688.272	3647.26
688.461	3776.28
688.651	3774.24
688.841	3723.04
689.03	3841.82
689.22	3854.11
689.41	3833.63
689.599	3790.62
689.789	3637.02
689.979	3700.51
690.168	3696.41
690.358	3639.07
690.547	3692.32
690.737	3618.59
690.926	3608.35
691.116	3616.54
691.305	3569.44
691.495	3518.24
691.684	3630.88
691.874	3641.12
692.063	3520.29
692.252	3563.29
692.442	3542.82
692.631	3563.29
692.82	3548.96
693.01	3317.54
693.199	3512.1
693.388	3370.79
693.578	3286.82
693.767	3440.42
693.956	3358.5
694.146	3389.22
694.335	3356.45
694.524	3344.16
694.713	3424.03
694.902	3288.87
695.092	3313.44
695.281	3151.65
695.47	3280.68
695.659	3217.19
695.848	3186.47
696.037	3133.22
696.226	3256.1
696.415	3235.62
696.604	3118.89
696.793	3274.53
696.982	3161.89
697.171	3225.38
697.36	3198.76
697.549	3069.73
697.738	3247.91
697.927	3233.57
698.116	3143.46
698.305	3227.43
698.494	3165.99
698.683	2993.96
698.872	3071.78
699.061	3108.65
699.25	3143.46
699.438	3184.42
699.627	3094.31
699.816	3004.2
700.005	3084.07
700.193	3020.58
700.382	3051.3
700.571	2996.01
700.76	3051.3
700.948	3026.73
701.137	3030.82
701.326	3032.87
701.514	3057.45
701.703	3026.73
701.892	3090.21
702.08	3063.59
702.269	3024.68
702.457	2977.58
702.646	2969.38
702.834	2993.96
703.023	2873.13
703.212	3039.01
703.4	2959.14
703.589	2840.36
703.777	3084.07
703.965	2924.33
704.154	3059.49
704.342	2903.85
704.531	2819.88
704.719	2957.1
704.907	2953
705.096	2883.37
705.284	2864.94
705.472	2854.7
705.661	2879.27
705.849	3002.15
706.037	2899.75
706.226	2959.14
706.414	2877.23
706.602	2854.7
706.79	2823.98
706.979	2909.99
707.167	2850.6
707.355	2957.1
707.543	2953
707.731	2920.23
707.919	2871.08
708.107	2711.34
708.296	2916.14
708.484	2740.01
708.672	2776.87
708.86	2866.99
709.048	2862.89
709.236	2805.55
709.424	2801.45
709.612	2869.03
709.8	2658.09
709.988	2750.25
710.176	2780.97
710.364	2723.63
710.551	2692.91
710.739	2678.57
710.927	2719.53
711.115	2783.02
711.303	2748.2
711.491	2766.64
711.679	2725.68
711.866	2823.98
712.054	2705.2
712.242	2764.59
712.43	2866.99
712.617	2772.78
712.805	2783.02
712.993	2856.75
713.181	2617.13
713.368	2676.52
713.556	2686.76
713.744	2737.96
713.931	2756.4
714.119	2635.57
714.306	2815.79
714.494	2678.57
714.682	2778.92
714.869	2643.76
715.057	2758.44
715.244	2692.91
715.432	2721.58
715.619	2668.33
715.807	2713.39
715.994	2635.57
716.182	2674.48
716.369	2654
716.556	2557.74
716.744	2613.04
716.931	2682.67
717.119	2656.04
717.306	2731.82
717.493	2602.8
717.681	2670.38
717.868	2744.11
718.055	2643.76
718.242	2625.33
718.43	2586.41
718.617	2600.75
718.804	2584.37
718.991	2723.63
719.179	2602.8
719.366	2727.72
719.553	2676.52
719.74	2496.3
719.927	2520.88
720.114	2576.17
720.301	2539.31
720.488	2578.22
720.676	2625.33
720.863	2543.41
721.05	2565.93
721.237	2498.35
721.424	2559.79
721.611	2561.84
721.798	2514.73
721.985	2619.18
722.172	2608.94
722.358	2586.41
722.545	2588.46
722.732	2563.89
722.919	2598.7
723.106	2608.94
723.293	2481.97
723.48	2604.85
723.667	2494.26
723.853	2535.21
724.04	2453.3
724.227	2481.97
724.414	2461.49
724.6	2590.51
724.787	2508.59
724.974	2545.45
725.161	2467.63
725.347	2510.64
725.534	2510.64
725.72	2563.89
725.907	2518.83
726.094	2496.3
726.28	2572.08
726.467	2496.3
726.653	2508.59
726.84	2537.26
727.027	2477.87
727.213	2408.24
727.4	2539.31
727.586	2527.02
727.773	2432.82
727.959	2430.77
728.145	2529.07
728.332	2389.81
728.518	2527.02
728.705	2529.07
728.891	2414.38
729.077	2375.47
729.264	2445.1
729.45	2428.72
729.636	2436.91
729.823	2371.38
730.009	2506.54
730.195	2420.53
730.382	2510.64
730.568	2305.84
730.754	2346.8
730.94	2477.87
731.126	2459.44
731.313	2395.95
731.499	2330.42
731.685	2477.87
731.871	2488.11
732.057	2434.86
732.243	2520.88
732.429	2428.72
732.615	2436.91
732.801	2336.56
732.987	2449.2
733.173	2330.42
733.359	2342.71
733.545	2424.62
733.731	2438.96
733.917	2424.62
734.103	2314.03
734.289	2408.24
734.475	2334.51
734.661	2453.3
734.847	2490.16
735.033	2461.49
735.219	2414.38
735.404	2404.14
735.59	2297.65
735.776	2387.76
735.962	2299.7
736.148	2402.1
736.333	2223.92
736.519	2352.95
736.705	2404.14
736.89	2395.95
737.076	2273.07
737.262	2354.99
737.447	2365.23
737.633	2320.18
737.819	2273.07
738.004	2338.61
738.19	2228.02
738.375	2334.51
738.561	2328.37
738.747	2379.57
738.932	2273.07
739.118	2301.75
739.303	2238.26
739.489	2318.13
739.674	2250.55
739.859	2191.16
740.045	2166.58
740.23	2252.59
740.416	2051.89
740.601	2203.44
740.786	2250.55
740.972	2133.81
741.157	2330.42
741.342	2279.22
741.528	2096.95
741.713	2180.92
741.898	2139.96
742.084	2240.31
742.269	2209.59
742.454	2146.1
742.639	2086.71
742.824	2142
743.01	2158.39
743.195	2162.48
743.38	2125.62
743.565	2090.81
743.75	2111.29
743.935	2101.05
744.12	2142
744.305	1976.12
744.49	2053.94
744.675	2068.28
744.86	1969.98
745.045	1996.6
745.23	1992.5
745.415	2019.13
745.6	2039.61
745.785	1969.98
745.97	1951.54
746.155	1904.44
746.34	2047.8
746.525	1957.69
746.71	1957.69
746.895	1902.39
747.079	1855.29
747.264	1931.06
747.449	1961.78
747.634	2027.32
747.819	1871.67
748.003	1810.23
748.188	1873.72
748.373	1840.95
748.557	1879.86
748.742	1701.69
748.927	1820.47
749.111	1787.71
749.296	1761.08
749.481	1752.89
749.665	1750.84
749.85	1677.12
750.034	1773.37
750.219	1740.6
750.404	1611.58
750.588	1576.77
750.773	1625.92
750.957	1580.86
751.141	1699.64
751.326	1642.3
751.51	1748.79
751.695	1584.96
751.879	1687.36
752.064	1562.43
752.248	1535.81
752.432	1611.58
752.617	1613.63
752.801	1613.63
752.985	1556.29
753.17	1513.28
753.354	1521.47
753.538	1558.33
753.722	1429.31
753.907	1535.81
754.091	1439.55
754.275	1556.29
754.459	1371.97
754.643	1466.17
754.828	1425.22
755.012	1392.45
755.196	1445.7
755.38	1445.7
755.564	1365.82
755.748	1404.74
755.932	1390.4
756.116	1265.47
756.3	1283.91
756.484	1380.16
756.668	1333.06
756.852	1224.51
757.036	1277.76
757.22	1244.99
757.404	1236.8
757.588	1273.67
757.772	1349.44
757.956	1355.58
758.14	1312.58
758.323	1236.8
758.507	1310.53
758.691	1185.6
758.875	1318.72
759.059	1247.04
759.242	1171.27
759.426	1193.8
759.61	1210.18
759.794	1171.27
759.977	1234.75
760.161	1167.17
760.345	1236.8
760.528	1199.94
760.712	1089.35
760.895	1144.64
761.079	1083.2
761.263	1134.4
761.446	1054.53
761.63	1146.69
761.813	1193.8
761.997	1072.96
762.18	1068.87
762.364	1093.44
762.547	1048.39
762.731	1187.65
762.914	1068.87
763.098	1101.64
763.281	1070.92
763.464	978.76
763.648	1023.81
763.831	1011.53
764.015	1015.62
764.198	923.46
764.381	966.47
764.564	956.23
764.748	1021.77
764.931	905.03
765.114	1050.44
765.297	1027.91
765.481	1015.62
765.664	923.46
765.847	960.33
766.03	1046.34
766.213	956.23
766.397	925.51
766.58	976.71
766.763	1003.33
766.946	970.57
767.129	989
767.312	972.61
767.495	950.09
767.678	855.88
767.861	933.7
768.044	841.54
768.227	900.94
768.41	962.37
768.593	937.8
768.776	945.99
768.959	835.4
769.142	896.84
769.324	933.7
769.507	913.22
769.69	859.98
769.873	759.63
770.056	907.08
770.239	872.26
770.421	950.09
770.604	868.17
770.787	849.74
770.97	814.92
771.152	888.65
771.335	786.25
771.518	755.53
771.7	950.09
771.883	864.07
772.066	773.96
772.248	819.02
772.431	837.45
772.613	800.59
772.796	726.86
772.978	786.25
773.161	778.06
773.343	839.5
773.526	798.54
773.708	788.3
773.891	667.47
774.073	728.91
774.256	765.77
774.438	839.5
774.621	800.59
774.803	767.82
774.985	694.09
775.168	749.39
775.35	739.15
775.532	733
775.715	696.14
775.897	720.71
776.079	626.51
776.261	773.96
776.444	724.81
776.626	649.04
776.808	692.04
776.99	733
777.173	735.05
777.355	675.66
777.537	694.09
777.719	606.03
777.901	612.17
778.083	696.14
778.265	663.37
778.447	628.56
778.629	593.74
778.811	601.93
778.993	624.46
779.175	593.74
779.357	534.35
779.539	653.13
779.721	597.84
779.903	577.36
780.085	585.55
780.267	577.36
780.449	589.64
780.631	589.64
780.812	546.64
780.994	558.92
781.176	536.4
781.358	569.16
781.54	540.49
781.721	595.79
781.903	487.25
782.085	466.77
782.267	573.26
782.448	505.68
782.63	544.59
782.812	532.3
782.993	454.48
783.175	511.82
783.357	505.68
783.538	517.97
783.72	538.45
783.901	507.73
784.083	530.25
784.264	477.01
784.446	395.09
784.627	456.53
784.809	350.03
784.99	503.63
785.172	429.9
785.353	446.29
785.535	388.94
785.716	524.11
785.897	446.29
786.079	337.74
786.26	399.18
786.441	409.42
786.623	329.55
786.804	397.14
786.985	362.32
787.167	431.95
787.348	413.52
787.529	421.71
787.71	335.7
787.891	405.33
788.073	407.38
788.254	384.85
788.435	390.99
788.616	472.91
788.797	382.8
788.978	421.71
789.159	350.03
789.34	399.18
789.522	331.6
789.703	364.37
789.884	421.71
790.065	374.61
790.246	368.46
790.427	358.22
790.607	399.18
790.788	347.98
790.969	399.18
791.15	339.79
791.331	333.65
791.512	366.42
791.693	323.41
791.874	382.8
792.054	347.98
792.235	347.98
792.416	298.83
792.597	294.74
792.778	378.7
792.958	266.07
793.139	360.27
793.32	329.55
793.5	235.35
793.681	380.75
793.862	341.84
794.042	341.84
794.223	298.83
794.404	317.26
794.584	259.92
794.765	268.11
794.945	319.31
795.126	329.55
795.306	331.6
795.487	311.12
795.667	304.98
795.848	304.98
796.028	327.5
796.209	255.83
796.389	280.4
796.57	327.5
796.75	276.31
796.93	218.96
797.111	327.5
797.291	282.45
797.471	290.64
797.652	251.73
797.832	261.97
798.012	233.3
798.192	229.2
798.373	218.96
798.553	259.92
798.733	235.35
798.913	296.78
799.093	292.69
799.274	210.77
799.454	270.16
799.634	290.64
799.814	309.07
799.994	245.59
800.174	173.91
800.354	270.16
800.534	259.92
800.714	247.63
800.894	208.72
801.074	253.78
801.254	182.1
801.434	274.26
801.614	243.54
801.794	225.11
801.974	798.54
802.154	294.74
802.334	247.63
802.514	233.3
802.693	292.69
802.873	227.15
803.053	241.49
803.233	192.34
803.413	225.11
803.592	155.47
803.772	200.53
803.952	235.35
804.131	153.43
804.311	206.67
804.491	214.87
804.67	173.91
804.85	216.91
805.03	216.91
805.209	186.19
805.389	128.85
805.568	214.87
805.748	225.11
805.928	200.53
806.107	196.43
806.287	143.19
806.466	237.39
806.646	194.39
806.825	200.53
807.004	237.39
807.184	184.15
807.363	188.24
807.543	231.25
807.722	178
807.901	282.45
808.081	216.91
808.26	102.23
808.439	171.86
808.619	182.1
808.798	169.81
808.977	196.43
809.156	216.91
809.336	190.29
809.515	210.77
809.694	110.42
809.873	218.96
810.052	200.53
810.231	196.43
810.411	149.33
810.59	231.25
810.769	112.47
810.948	268.11
811.127	32.6
811.306	153.43
811.485	202.58
811.664	104.28
811.843	141.14
812.022	169.81
812.201	161.62
812.38	173.91
812.559	102.23
812.737	192.34
812.916	173.91
813.095	81.75
813.274	120.66
813.453	163.67
813.632	151.38
813.811	208.72
813.989	87.89
814.168	198.48
814.347	194.39
814.526	110.42
814.704	184.15
814.883	130.9
815.062	155.47
815.24	208.72
815.419	53.08
815.598	155.47
815.776	159.57
815.955	126.8
816.133	143.19
816.312	180.05
816.49	143.19
816.669	143.19
816.847	118.61
817.026	171.86
817.204	137.04
817.383	104.28
817.561	124.76
817.74	96.08
817.918	126.8
818.097	155.47
818.275	114.52
818.453	153.43
818.632	192.34
818.81	98.13
818.988	110.42
819.167	184.15
819.345	157.52
819.523	167.76
819.701	94.04
819.879	114.52
820.058	167.76
820.236	73.56
820.414	24.4
820.592	126.8
820.77	102.23
820.948	126.8
821.127	135
821.305	151.38
821.483	126.8
821.661	171.86
821.839	128.85
822.017	135
822.195	57.17
822.373	145.24
822.551	126.8
822.729	143.19
822.907	55.12
823.085	69.46
823.262	135
823.44	114.52
823.618	67.41
823.796	126.8
823.974	110.42
824.152	57.17
824.329	104.28
824.507	135
824.685	106.32
824.863	77.65
825.04	145.24
825.218	135
825.396	155.47
825.574	112.47
825.751	110.42
825.929	139.09
826.107	77.65
826.284	85.84
826.462	94.04
826.639	48.98
826.817	46.93
826.994	143.19
827.172	94.04
827.349	151.38
827.527	98.13
827.704	8.02
827.882	110.42
828.059	61.27
828.237	63.32
828.414	83.8
828.591	-32.94
828.769	135
828.946	98.13
829.124	65.36
829.301	98.13
829.478	30.55
829.655	124.76
829.833	65.36
830.01	44.88
830.187	114.52
830.364	120.66
830.542	73.56
830.719	126.8
830.896	102.23
831.073	116.56
831.25	89.94
831.427	77.65
831.604	44.88
831.782	73.56
831.959	173.91
832.136	55.12
832.313	135
832.49	63.32
832.667	124.76
832.844	112.47
833.021	104.28
833.198	73.56
833.374	110.42
833.551	100.18
833.728	159.57
833.905	98.13
834.082	-28.84
834.259	63.32
834.436	96.08
834.612	-18.6
834.789	106.32
834.966	161.62
835.143	104.28
835.319	30.55
835.496	85.84
835.673	135
835.85	91.99
836.026	44.88
836.203	104.28
836.38	-10.41
836.556	116.56
836.733	8.02
836.909	69.46
837.086	85.84
837.262	22.36
837.439	73.56
837.616	104.28
837.792	36.69
837.968	32.6
838.145	48.98
838.321	67.41
838.498	-8.36
838.674	53.08
838.851	94.04
839.027	87.89
839.203	20.31
839.38	71.51
839.556	10.07
839.732	102.23
839.909	24.4
840.085	69.46
840.261	38.74
840.437	106.32
840.614	-2.22
840.79	-0.17
840.966	38.74
841.142	108.37
841.318	32.6
841.494	44.88
841.671	55.12
841.847	38.74
842.023	32.6
842.199	102.23
842.375	38.74
842.551	-41.13
842.727	28.5
842.903	100.18
843.079	10.07
843.255	135
843.431	32.6
843.607	3.93
843.783	-32.94
843.959	63.32
844.134	-0.17
844.31	55.12
844.486	14.17
844.662	14.17
844.838	40.79
845.013	81.75
845.189	-18.6
845.365	51.03
845.541	-37.03
845.716	69.46
845.892	-55.47
846.068	36.69
846.244	28.5
846.419	46.93
846.595	22.36
846.77	5.97
846.946	87.89
847.122	46.93
847.297	18.26
847.473	91.99
847.648	16.21
847.824	-28.84
847.999	-2.22
848.175	94.04
848.35	44.88
848.526	18.26
848.701	100.18
848.876	71.51
849.052	85.84
849.227	-0.17
849.403	38.74
849.578	38.74
849.753	-4.27
849.929	18.26
850.104	-32.94
850.279	-8.36
850.454	3.93
850.63	38.74
850.805	20.31
850.98	-16.55
851.155	-24.75
851.33	102.23
851.505	48.98
851.681	28.5
851.856	-6.31
852.031	-0.17
852.206	-12.46
852.381	83.8
852.556	81.75
852.731	16.21
852.906	36.69
853.081	55.12
853.256	5.97
853.431	77.65
853.606	-4.27
853.781	38.74
853.956	-32.94
854.131	85.84
854.305	-69.8
854.48	71.51
854.655	-4.27
854.83	75.6
855.005	14.17
855.18	59.22
855.354	71.51
855.529	69.46
855.704	135
855.879	38.74
856.053	30.55
856.228	91.99
856.403	-37.03
856.577	30.55
856.752	-18.6
856.926	12.12
857.101	57.17
857.276	22.36
857.45	28.5
857.625	65.36
857.799	34.64
857.974	83.8
858.148	44.88
858.323	102.23
858.497	32.6
858.672	24.4
858.846	40.79
859.02	57.17
859.195	61.27
859.369	10.07
859.543	-4.27
859.718	26.45
859.892	12.12
860.066	12.12
860.241	3.93
860.415	-77.99
860.589	20.31
860.763	12.12
860.938	14.17
861.112	96.08
861.286	-32.94
861.46	87.89
861.634	5.97
861.808	85.84
861.982	26.45
862.157	14.17
862.331	-75.95
862.505	-73.9
862.679	128.85
862.853	-0.17
863.027	69.46
863.201	112.47
863.375	12.12
863.549	18.26
863.722	75.6
863.896	67.41
864.07	61.27
864.244	96.08
864.418	61.27
864.592	44.88
864.766	44.88
864.939	-26.79
865.113	-0.17
865.287	-6.31
865.461	-6.31
865.634	53.08
865.808	57.17
865.982	-28.84
866.156	10.07
866.329	16.21
866.503	-24.75
866.676	5.97
866.85	14.17
867.024	61.27
867.197	75.6
867.371	-0.17
867.544	-45.23
867.718	-16.55
867.891	69.46
868.065	18.26
868.238	-20.65
868.412	36.69
868.585	44.88
868.759	8.02
868.932	-20.65
869.105	-20.65
869.279	-4.27
869.452	48.98
869.625	53.08
869.799	22.36
869.972	10.07
870.145	-8.36
870.319	36.69
870.492	24.4
870.665	12.12
870.838	-61.61
871.011	-69.8
871.185	3.93
871.358	-20.65
871.531	-0.17
871.704	8.02
871.877	67.41
872.05	-2.22
872.223	-16.55
872.396	10.07
872.569	38.74
872.742	-34.99
872.915	26.45
873.088	32.6
873.261	-4.27
873.434	110.42
873.607	46.93
873.78	32.6
873.953	61.27
874.126	-28.84
874.299	55.12
874.471	44.88
874.644	14.17
874.817	36.69
874.99	12.12
875.163	20.31
875.335	3.93
875.508	16.21
875.681	20.31
875.853	36.69
876.026	18.26
876.199	8.02
876.371	61.27
876.544	-20.65
876.717	137.04
876.889	8.02
877.062	12.12
877.234	-45.23
877.407	-6.31
877.579	-61.61
877.752	20.31
877.924	-12.46
878.097	69.46
878.269	65.36
878.442	14.17
878.614	-2.22
878.786	-6.31
878.959	5.97
879.131	38.74
879.303	24.4
879.476	30.55
879.648	59.22
879.82	-4.27
879.993	44.88
880.165	-12.46
880.337	-10.41
880.509	38.74
880.681	24.4
880.854	53.08
881.026	20.31
881.198	44.88
881.37	-63.66
881.542	71.51
881.714	-73.9
881.886	-0.17
882.058	-12.46
882.23	77.65
882.402	20.31
882.574	40.79
882.746	1.88
882.918	116.56
883.09	-53.42
883.262	-37.03
883.434	40.79
883.606	-28.84
883.778	114.52
883.95	94.04
884.122	22.36
884.293	5.97
884.465	44.88
884.637	36.69
884.809	8.02
884.98	-26.79
885.152	-4.27
885.324	46.93
885.496	-49.32
885.667	-2.22
885.839	-39.08
886.011	40.79
886.182	16.21
886.354	53.08
886.525	-32.94
886.697	-20.65
886.869	-98.47
887.04	-37.03
887.212	38.74
887.383	22.36
887.555	16.21
887.726	-43.18
887.897	53.08
888.069	3.93
888.24	44.88
888.412	-10.41
888.583	28.5
888.754	-6.31
888.926	28.5
889.097	-28.84
889.268	12.12
889.44	53.08
889.611	-12.46
889.782	-37.03
889.953	-43.18
890.125	32.6
890.296	-0.17
890.467	-12.46
890.638	-24.75
890.809	-4.27
890.98	69.46
891.151	26.45
891.323	-20.65
891.494	106.32
891.665	-10.41
891.836	55.12
892.007	65.36
892.178	77.65
892.349	-8.36
892.52	30.55
892.691	73.56
892.862	69.46
893.032	-37.03
893.203	30.55
893.374	61.27
893.545	24.4
893.716	26.45
893.887	12.12
894.057	-10.41
894.228	-24.75
894.399	-65.71
894.57	71.51
894.74	48.98
894.911	57.17
895.082	-2.22
895.253	-6.31
895.423	-24.75
895.594	16.21
895.764	-43.18
895.935	-4.27
896.106	38.74
896.276	5.97
896.447	81.75
896.617	-14.51
896.788	-24.75
896.958	12.12
897.129	-28.84
897.299	48.98
897.47	57.17
897.64	3.93
897.81	8.02
897.981	-4.27
898.151	12.12
898.322	20.31
898.492	32.6
898.662	44.88
898.832	44.88
899.003	-28.84
899.173	-43.18
899.343	30.55
899.513	5.97
