Data from USB4F104151__213__14-21-09-052.txt Node

Date: Thu Mar 13 14:21:09 EDT 2025
User: louis
Spectrometer: USB4F10415
Trigger mode: 4
Integration Time (sec): 2.000000E-2
Scans to average: 1
Electric dark correction enabled: true
Nonlinearity correction enabled: false
Boxcar width: 0
XAxis mode: Wavelengths
Number of Pixels in Spectrum: 3648
>>>>>Begin Spectral Data<<<<<
178.204	-141.31
178.424	-141.31
178.644	-141.31
178.864	-126.97
179.084	-106.49
179.304	-34.82
179.524	-14.34
179.744	12.29
179.964	14.34
180.184	61.44
180.404	22.53
180.624	-30.72
180.844	47.1
181.064	26.62
181.283	-90.11
181.503	-43.01
181.723	28.67
181.943	-8.19
182.163	141.31
182.383	-6.14
182.602	8.19
182.822	2.05
183.042	4.1
183.262	16.38
183.482	49.15
183.701	26.62
183.921	2.05
184.141	-14.34
184.361	18.43
184.58	-90.11
184.8	110.59
185.02	26.62
185.239	55.3
185.459	8.19
185.679	10.24
185.898	-47.1
186.118	32.77
186.338	32.77
186.557	40.96
186.777	-6.14
186.997	12.29
187.216	10.24
187.436	118.78
187.655	30.72
187.875	92.16
188.095	45.06
188.314	94.21
188.534	26.62
188.753	-24.58
188.973	38.91
189.192	63.49
189.412	-10.24
189.631	36.86
189.851	10.24
190.07	59.39
190.29	-81.92
190.509	94.21
190.729	14.34
190.948	-6.14
191.168	112.64
191.387	71.68
191.607	38.91
191.826	22.53
192.045	34.82
192.265	-4.1
192.484	83.97
192.704	67.58
192.923	-55.3
193.142	102.4
193.362	34.82
193.581	88.06
193.8	86.01
194.02	34.82
194.239	36.86
194.458	77.82
194.678	67.58
194.897	-0
195.116	-30.72
195.335	-18.43
195.555	12.29
195.774	75.77
195.993	8.19
196.212	-55.3
196.432	36.86
196.651	10.24
196.87	22.53
197.089	81.92
197.308	-4.1
197.528	-14.34
197.747	38.91
197.966	28.67
198.185	100.35
198.404	20.48
198.623	73.73
198.842	45.06
199.062	4.1
199.281	34.82
199.5	-30.72
199.719	14.34
199.938	4.1
200.157	30.72
200.376	12.29
200.595	22.53
200.814	-4.1
201.033	-30.72
201.252	32.77
201.471	-16.38
201.69	30.72
201.909	-6.14
202.128	43.01
202.347	10.24
202.566	-57.34
202.785	-53.25
203.004	-30.72
203.223	75.77
203.442	81.92
203.661	28.67
203.879	14.34
204.098	20.48
204.317	10.24
204.536	69.63
204.755	92.16
204.974	51.2
205.193	51.2
205.411	12.29
205.63	18.43
205.849	-36.86
206.068	24.58
206.287	59.39
206.505	-34.82
206.724	69.63
206.943	34.82
207.162	6.14
207.381	83.97
207.599	-2.05
207.818	10.24
208.037	59.39
208.255	47.1
208.474	61.44
208.693	22.53
208.911	6.14
209.13	92.16
209.349	22.53
209.567	49.15
209.786	51.2
210.005	43.01
210.223	18.43
210.442	-2.05
210.661	-30.72
210.879	-16.38
211.098	51.2
211.316	34.82
211.535	94.21
211.753	26.62
211.972	34.82
212.191	28.67
212.409	53.25
212.628	47.1
212.846	49.15
213.065	36.86
213.283	63.49
213.502	2.05
213.72	59.39
213.938	-26.62
214.157	32.77
214.375	-38.91
214.594	-36.86
214.812	-12.29
215.031	43.01
215.249	47.1
215.467	-0
215.686	38.91
215.904	28.67
216.122	-16.38
216.341	34.82
216.559	77.82
216.778	92.16
216.996	51.2
217.214	92.16
217.432	-40.96
217.651	26.62
217.869	22.53
218.087	53.25
218.306	83.97
218.524	92.16
218.742	2.05
218.96	104.45
219.179	43.01
219.397	-38.91
219.615	116.73
219.833	26.62
220.051	-38.91
220.27	67.58
220.488	55.3
220.706	24.58
220.924	53.25
221.142	-10.24
221.36	36.86
221.578	10.24
221.796	18.43
222.015	47.1
222.233	59.39
222.451	45.06
222.669	-6.14
222.887	53.25
223.105	59.39
223.323	2.05
223.541	55.3
223.759	-0
223.977	-34.82
224.195	26.62
224.413	75.77
224.631	28.67
224.849	43.01
225.067	43.01
225.285	26.62
225.503	108.54
225.721	75.77
225.939	63.49
226.157	28.67
226.375	77.82
226.592	45.06
226.81	-30.72
227.028	94.21
227.246	45.06
227.464	10.24
227.682	14.34
227.9	28.67
228.117	28.67
228.335	34.82
228.553	-4.1
228.771	10.24
228.989	34.82
229.206	18.43
229.424	22.53
229.642	-22.53
229.86	-34.82
230.077	61.44
230.295	47.1
230.513	40.96
230.731	59.39
230.948	30.72
231.166	4.1
231.384	26.62
231.601	59.39
231.819	8.19
232.037	69.63
232.254	-43.01
232.472	83.97
232.689	-14.34
232.907	47.1
233.125	30.72
233.342	-4.1
233.56	-43.01
233.777	36.86
233.995	10.24
234.213	12.29
234.43	28.67
234.648	57.34
234.865	28.67
235.083	81.92
235.3	43.01
235.518	43.01
235.735	36.86
235.953	34.82
236.17	61.44
236.388	34.82
236.605	22.53
236.822	45.06
237.04	36.86
237.257	94.21
237.475	45.06
237.692	55.3
237.909	18.43
238.127	12.29
238.344	-6.14
238.562	83.97
238.779	-18.43
238.996	-22.53
239.214	63.49
239.431	61.44
239.648	6.14
239.865	124.93
240.083	43.01
240.3	38.91
240.517	67.58
240.735	2.05
240.952	100.35
241.169	67.58
241.386	43.01
241.603	30.72
241.821	-2.05
242.038	75.77
242.255	-0
242.472	-12.29
242.689	69.63
242.907	47.1
243.124	16.38
243.341	-4.1
243.558	94.21
243.775	-47.1
243.992	-30.72
244.209	-24.58
244.426	124.93
244.643	43.01
244.86	28.67
245.078	43.01
245.295	43.01
245.512	22.53
245.729	92.16
245.946	6.14
246.163	67.58
246.38	53.25
246.597	4.1
246.814	-4.1
247.031	2.05
247.248	4.1
247.464	22.53
247.681	-4.1
247.898	43.01
248.115	2.05
248.332	-30.72
248.549	38.91
248.766	79.87
248.983	4.1
249.2	-20.48
249.417	79.87
249.633	4.1
249.85	157.69
250.067	-22.53
250.284	69.63
250.501	-43.01
250.717	36.86
250.934	-14.34
251.151	20.48
251.368	55.3
251.585	69.63
251.801	24.58
252.018	75.77
252.235	38.91
252.451	34.82
252.668	-10.24
252.885	86.01
253.102	71.68
253.318	32.77
253.535	4.1
253.752	67.58
253.968	16.38
254.185	92.16
254.401	40.96
254.618	-14.34
254.835	67.58
255.051	118.78
255.268	43.01
255.484	38.91
255.701	-36.86
255.917	67.58
256.134	55.3
256.351	38.91
256.567	40.96
256.784	59.39
257	-18.43
257.217	-14.34
257.433	34.82
257.65	100.35
257.866	47.1
258.082	10.24
258.299	-30.72
258.515	14.34
258.732	16.38
258.948	34.82
259.165	22.53
259.381	-34.82
259.597	83.97
259.814	14.34
260.03	69.63
260.246	53.25
260.463	69.63
260.679	18.43
260.895	-2.05
261.112	45.06
261.328	-12.29
261.544	10.24
261.761	63.49
261.977	-4.1
262.193	-30.72
262.409	63.49
262.626	22.53
262.842	47.1
263.058	-4.1
263.274	45.06
263.49	26.62
263.707	-63.49
263.923	53.25
264.139	-30.72
264.355	16.38
264.571	36.86
264.787	45.06
265.004	65.53
265.22	-32.77
265.436	-49.15
265.652	69.63
265.868	55.3
266.084	-20.48
266.3	83.97
266.516	2.05
266.732	26.62
266.948	-20.48
267.164	-30.72
267.38	18.43
267.596	55.3
267.812	45.06
268.028	36.86
268.244	61.44
268.46	51.2
268.676	38.91
268.892	-12.29
269.108	67.58
269.324	4.1
269.54	16.38
269.756	102.4
269.972	59.39
270.188	32.77
270.403	4.1
270.619	53.25
270.835	92.16
271.051	75.77
271.267	38.91
271.483	59.39
271.698	-20.48
271.914	-36.86
272.13	51.2
272.346	-10.24
272.562	47.1
272.777	49.15
272.993	-18.43
273.209	-4.1
273.425	51.2
273.64	28.67
273.856	63.49
274.072	28.67
274.287	-63.49
274.503	59.39
274.719	26.62
274.934	8.19
275.15	-14.34
275.366	-10.24
275.581	20.48
275.797	69.63
276.012	69.63
276.228	14.34
276.444	57.34
276.659	47.1
276.875	28.67
277.09	67.58
277.306	32.77
277.521	2.05
277.737	10.24
277.952	61.44
278.168	2.05
278.383	18.43
278.599	-36.86
278.814	94.21
279.03	-18.43
279.245	51.2
279.461	49.15
279.676	43.01
279.892	8.19
280.107	-8.19
280.322	-22.53
280.538	98.3
280.753	2.05
280.969	30.72
281.184	12.29
281.399	67.58
281.615	6.14
281.83	20.48
282.045	2.05
282.26	49.15
282.476	73.73
282.691	96.25
282.906	122.88
283.122	-6.14
283.337	16.38
283.552	71.68
283.767	-0
283.983	32.77
284.198	47.1
284.413	59.39
284.628	-36.86
284.843	83.97
285.058	6.14
285.274	-20.48
285.489	30.72
285.704	12.29
285.919	-2.05
286.134	14.34
286.349	55.3
286.564	67.58
286.779	67.58
286.995	18.43
287.21	24.58
287.425	24.58
287.64	75.77
287.855	92.16
288.07	4.1
288.285	-4.1
288.5	75.77
288.715	71.68
288.93	10.24
289.145	83.97
289.36	67.58
289.575	28.67
289.79	92.16
290.004	20.48
290.219	86.01
290.434	-10.24
290.649	28.67
290.864	-49.15
291.079	94.21
291.294	69.63
291.509	24.58
291.724	43.01
291.938	-36.86
292.153	6.14
292.368	36.86
292.583	45.06
292.798	143.36
293.012	18.43
293.227	8.19
293.442	34.82
293.657	-28.67
293.871	108.54
294.086	2.05
294.301	59.39
294.516	75.77
294.73	116.73
294.945	-36.86
295.16	61.44
295.374	67.58
295.589	2.05
295.804	43.01
296.018	55.3
296.233	12.29
296.447	2.05
296.662	34.82
296.877	22.53
297.091	61.44
297.306	83.97
297.52	-36.86
297.735	67.58
297.949	10.24
298.164	79.87
298.378	61.44
298.593	-38.91
298.807	53.25
299.022	67.58
299.236	108.54
299.451	34.82
299.665	59.39
299.88	34.82
300.094	43.01
300.309	43.01
300.523	43.01
300.737	32.77
300.952	34.82
301.166	61.44
301.381	2.05
301.595	65.53
301.809	22.53
302.024	83.97
302.238	8.19
302.452	86.01
302.667	12.29
302.881	106.49
303.095	51.2
303.309	108.54
303.524	-20.48
303.738	-22.53
303.952	-36.86
304.166	24.58
304.381	34.82
304.595	83.97
304.809	28.67
305.023	38.91
305.237	-30.72
305.452	67.58
305.666	77.82
305.88	59.39
306.094	51.2
306.308	77.82
306.522	65.53
306.736	65.53
306.95	-2.05
307.164	43.01
307.379	-2.05
307.593	49.15
307.807	51.2
308.021	26.62
308.235	75.77
308.449	10.24
308.663	59.39
308.877	94.21
309.091	61.44
309.305	45.06
309.519	-4.1
309.733	10.24
309.947	61.44
310.161	51.2
310.374	28.67
310.588	83.97
310.802	18.43
311.016	59.39
311.23	32.77
311.444	53.25
311.658	26.62
311.872	133.12
312.085	16.38
312.299	79.87
312.513	55.3
312.727	92.16
312.941	-16.38
313.154	-12.29
313.368	-2.05
313.582	43.01
313.796	65.53
314.009	151.55
314.223	116.73
314.437	-18.43
314.651	28.67
314.864	-28.67
315.078	-6.14
315.292	-63.49
315.505	26.62
315.719	92.16
315.933	28.67
316.146	14.34
316.36	32.77
316.573	98.3
316.787	67.58
317.001	2.05
317.214	-30.72
317.428	55.3
317.641	-43.01
317.855	24.58
318.068	-4.1
318.282	24.58
318.495	129.02
318.709	102.4
318.922	57.34
319.136	77.82
319.349	63.49
319.563	45.06
319.776	-22.53
319.99	61.44
320.203	22.53
320.417	59.39
320.63	4.1
320.843	55.3
321.057	40.96
321.27	104.45
321.483	12.29
321.697	94.21
321.91	4.1
322.124	71.68
322.337	65.53
322.55	90.11
322.763	40.96
322.977	-2.05
323.19	69.63
323.403	16.38
323.617	2.05
323.83	69.63
324.043	34.82
324.256	53.25
324.469	-24.58
324.683	71.68
324.896	67.58
325.109	49.15
325.322	-12.29
325.535	53.25
325.748	43.01
325.962	47.1
326.175	73.73
326.388	-18.43
326.601	-75.77
326.814	32.77
327.027	12.29
327.24	53.25
327.453	59.39
327.666	63.49
327.879	79.87
328.092	45.06
328.305	26.62
328.518	26.62
328.731	55.3
328.944	-20.48
329.157	-53.25
329.37	63.49
329.583	28.67
329.796	75.77
330.009	26.62
330.222	28.67
330.435	57.34
330.648	63.49
330.861	59.39
331.073	63.49
331.286	34.82
331.499	75.77
331.712	-38.91
331.925	38.91
332.138	75.77
332.35	55.3
332.563	-6.14
332.776	94.21
332.989	34.82
333.202	45.06
333.414	34.82
333.627	67.58
333.84	92.16
334.053	61.44
334.265	51.2
334.478	22.53
334.691	-24.58
334.903	10.24
335.116	-47.1
335.329	34.82
335.541	12.29
335.754	61.44
335.966	6.14
336.179	12.29
336.392	30.72
336.604	-8.19
336.817	36.86
337.029	73.73
337.242	-16.38
337.454	55.3
337.667	59.39
337.88	110.59
338.092	2.05
338.305	10.24
338.517	40.96
338.729	-30.72
338.942	6.14
339.154	4.1
339.367	51.2
339.579	92.16
339.792	-34.82
340.004	83.97
340.217	30.72
340.429	53.25
340.641	12.29
340.854	-6.14
341.066	55.3
341.278	40.96
341.491	110.59
341.703	38.91
341.915	-8.19
342.128	126.97
342.34	51.2
342.552	-22.53
342.764	4.1
342.977	94.21
343.189	55.3
343.401	67.58
343.613	67.58
343.826	59.39
344.038	-0
344.25	18.43
344.462	36.86
344.674	59.39
344.886	110.59
345.099	69.63
345.311	61.44
345.523	28.67
345.735	-57.34
345.947	30.72
346.159	38.91
346.371	47.1
346.583	-24.58
346.795	106.49
347.007	-2.05
347.219	45.06
347.431	-14.34
347.643	77.82
347.855	69.63
348.067	86.01
348.279	-14.34
348.491	6.14
348.703	2.05
348.915	43.01
349.127	55.3
349.339	67.58
349.551	47.1
349.763	55.3
349.975	71.68
350.187	110.59
350.399	67.58
350.61	59.39
350.822	20.48
351.034	61.44
351.246	4.1
351.458	34.82
351.669	24.58
351.881	96.25
352.093	71.68
352.305	90.11
352.517	61.44
352.728	79.87
352.94	96.25
353.152	86.01
353.363	4.1
353.575	22.53
353.787	83.97
353.999	65.53
354.21	118.78
354.422	-10.24
354.633	-12.29
354.845	-16.38
355.057	51.2
355.268	67.58
355.48	-18.43
355.692	36.86
355.903	88.06
356.115	30.72
356.326	-38.91
356.538	34.82
356.749	67.58
356.961	102.4
357.172	34.82
357.384	67.58
357.595	10.24
357.807	34.82
358.018	63.49
358.23	59.39
358.441	98.3
358.653	45.06
358.864	69.63
359.075	12.29
359.287	73.73
359.498	63.49
359.709	20.48
359.921	77.82
360.132	30.72
360.344	100.35
360.555	34.82
360.766	32.77
360.977	36.86
361.189	49.15
361.4	90.11
361.611	110.59
361.823	43.01
362.034	43.01
362.245	-6.14
362.456	30.72
362.667	63.49
362.879	43.01
363.09	92.16
363.301	59.39
363.512	10.24
363.723	-26.62
363.935	12.29
364.146	6.14
364.357	22.53
364.568	61.44
364.779	-47.1
364.99	110.59
365.201	28.67
365.412	75.77
365.623	40.96
365.834	20.48
366.045	57.34
366.256	73.73
366.467	69.63
366.678	22.53
366.889	-10.24
367.1	83.97
367.311	124.93
367.522	149.5
367.733	-4.1
367.944	18.43
368.155	-10.24
368.366	73.73
368.577	114.69
368.788	51.2
368.999	96.25
369.209	38.91
369.42	104.45
369.631	100.35
369.842	43.01
370.053	20.48
370.264	16.38
370.474	26.62
370.685	102.4
370.896	8.19
371.107	100.35
371.317	34.82
371.528	-26.62
371.739	137.21
371.95	53.25
372.16	59.39
372.371	-55.3
372.582	96.25
372.792	28.67
373.003	59.39
373.214	45.06
373.424	104.45
373.635	-22.53
373.846	53.25
374.056	53.25
374.267	14.34
374.477	59.39
374.688	59.39
374.898	38.91
375.109	98.3
375.319	34.82
375.53	36.86
375.74	36.86
375.951	34.82
376.161	2.05
376.372	10.24
376.582	26.62
376.793	43.01
377.003	38.91
377.214	61.44
377.424	69.63
377.635	75.77
377.845	20.48
378.055	83.97
378.266	59.39
378.476	86.01
378.686	61.44
378.897	61.44
379.107	40.96
379.317	14.34
379.528	32.77
379.738	75.77
379.948	4.1
380.158	129.02
380.369	38.91
380.579	12.29
380.789	32.77
380.999	104.45
381.21	38.91
381.42	94.21
381.63	-2.05
381.84	71.68
382.05	26.62
382.261	118.78
382.471	20.48
382.681	-0
382.891	110.59
383.101	79.87
383.311	53.25
383.521	102.4
383.731	59.39
383.941	51.2
384.151	32.77
384.361	38.91
384.571	43.01
384.781	43.01
384.991	165.89
385.201	137.21
385.411	12.29
385.621	77.82
385.831	10.24
386.041	51.2
386.251	112.64
386.461	51.2
386.671	26.62
386.881	43.01
387.091	98.3
387.301	135.17
387.511	79.87
387.72	92.16
387.93	88.06
388.14	32.77
388.35	51.2
388.56	100.35
388.769	83.97
388.979	83.97
389.189	-12.29
389.399	51.2
389.609	67.58
389.818	139.26
390.028	75.77
390.238	-4.1
390.447	75.77
390.657	126.97
390.867	75.77
391.076	32.77
391.286	96.25
391.496	92.16
391.705	59.39
391.915	118.78
392.125	126.97
392.334	28.67
392.544	38.91
392.753	63.49
392.963	34.82
393.172	79.87
393.382	67.58
393.591	51.2
393.801	65.53
394.01	161.79
394.22	57.34
394.429	102.4
394.639	59.39
394.848	102.4
395.058	73.73
395.267	26.62
395.477	102.4
395.686	-6.14
395.895	18.43
396.105	141.31
396.314	94.21
396.524	110.59
396.733	100.35
396.942	108.54
397.152	167.93
397.361	67.58
397.57	67.58
397.78	71.68
397.989	6.14
398.198	94.21
398.407	67.58
398.617	61.44
398.826	108.54
399.035	38.91
399.244	98.3
399.453	88.06
399.663	112.64
399.872	63.49
400.081	126.97
400.29	133.12
400.499	75.77
400.708	94.21
400.917	43.01
401.127	133.12
401.336	75.77
401.545	161.79
401.754	126.97
401.963	118.78
402.172	133.12
402.381	120.83
402.59	86.01
402.799	116.73
403.008	176.13
403.217	165.89
403.426	124.93
403.635	88.06
403.844	124.93
404.053	75.77
404.262	124.93
404.471	194.56
404.68	180.22
404.888	174.08
405.097	88.06
405.306	180.22
405.515	67.58
405.724	165.89
405.933	219.13
406.142	157.69
406.35	92.16
406.559	159.74
406.768	165.89
406.977	172.03
407.185	176.13
407.394	272.38
407.603	157.69
407.812	231.42
408.02	184.32
408.229	217.08
408.438	192.51
408.646	233.47
408.855	194.56
409.064	247.8
409.272	247.8
409.481	249.85
409.69	165.89
409.898	223.23
410.107	225.28
410.315	301.05
410.524	264.19
410.733	258.04
410.941	258.04
411.15	296.96
411.358	428.03
411.567	399.35
411.775	356.35
411.984	296.96
412.192	415.74
412.401	436.22
412.609	378.87
412.818	399.35
413.026	397.31
413.234	550.9
413.443	452.6
413.651	454.65
413.86	501.75
414.068	552.95
414.276	585.72
414.485	534.52
414.693	587.77
414.901	587.77
415.11	561.14
415.318	565.24
415.526	641.01
415.734	690.17
415.943	708.6
416.151	677.88
416.359	659.45
416.567	710.65
416.776	755.7
416.984	825.33
417.192	813.04
417.4	878.58
417.608	862.19
417.817	819.19
418.025	960.5
418.233	1105.9
418.441	909.3
418.649	985.07
418.857	1134.57
419.065	1077.23
419.273	1075.18
419.481	1163.25
419.689	1255.4
419.897	1331.18
420.105	1314.8
420.313	1339.37
420.521	1423.34
420.729	1476.59
420.937	1454.06
421.145	1519.59
421.353	1486.83
421.561	1746.92
421.769	1742.82
421.977	1820.64
422.185	1738.73
422.393	1914.85
422.601	1904.61
422.809	1939.43
423.017	1990.63
423.224	2160.61
423.432	2250.72
423.64	2109.41
423.848	2254.81
424.056	2295.77
424.263	2500.57
424.471	2463.71
424.679	2484.19
424.887	2592.73
425.094	2725.85
425.302	2650.07
425.51	2770.9
425.718	2891.73
425.925	2992.08
426.133	3047.38
426.341	3108.82
426.548	3272.65
426.756	3325.9
426.964	3336.14
427.171	3598.28
427.379	3747.78
427.586	3729.35
427.794	3917.76
428.001	3944.39
428.209	4450.24
428.417	4155.33
428.624	4362.17
428.832	4265.92
429.039	4466.62
429.247	4356.03
429.454	4876.21
429.662	5107.63
429.869	4890.55
430.076	5377.97
430.284	4966.32
430.491	5457.84
430.699	5459.88
430.906	5605.29
431.114	5742.5
431.321	5844.9
431.528	5941.16
431.736	6211.49
431.943	6680.47
432.15	6373.28
432.358	6342.56
432.565	6735.77
432.772	6682.52
432.979	7137.17
433.187	7399.31
433.394	7270.29
433.601	7792.52
433.808	7774.09
434.016	7735.18
434.223	7987.08
434.43	8605.56
434.637	8492.93
434.844	8927.1
435.052	9170.8
435.259	9072.5
435.466	9181.04
435.673	9166.71
435.88	9592.69
436.087	10149.73
436.294	10063.72
436.501	9922.41
436.708	9856.87
436.915	10524.51
437.122	10809.18
437.329	10823.51
437.537	11153.24
437.743	11515.73
437.95	11372.37
438.157	11841.36
438.364	12171.08
438.571	12177.22
438.778	12308.29
438.985	13483.83
439.192	13113.14
439.399	13385.52
439.606	12900.16
439.813	13840.17
440.02	14548.77
440.227	14391.08
440.433	14133.03
440.64	14661.41
440.847	14446.37
441.054	14747.42
441.261	15779.6
441.467	15658.77
441.674	16115.47
441.881	16568.07
442.088	16512.77
442.294	16340.74
442.501	16953.09
442.708	16975.61
442.914	17946.35
443.121	18413.29
443.328	18058.99
443.534	19273.43
443.741	18902.75
443.948	18384.62
444.154	19820.24
444.361	19891.92
444.568	19771.09
444.774	19803.86
444.981	19885.78
445.187	20731.59
445.394	21401.27
445.6	21108.41
445.807	23084.7
446.013	22333.1
446.22	22701.73
446.426	23350.94
446.633	23768.73
446.839	24651.4
447.046	23307.93
447.252	24653.45
447.459	24718.98
447.665	24864.39
447.871	25923.19
448.078	26801.77
448.284	25683.58
448.491	26541.67
448.697	27070.05
448.903	27782.74
449.11	28061.27
449.316	27268.7
449.522	27997.78
449.728	28646.99
449.935	28700.23
450.141	28589.64
450.347	29507.13
450.553	28556.88
450.76	29187.65
450.966	30131.76
451.172	29603.39
451.378	30475.82
451.584	29980.21
451.791	29998.65
451.997	30551.6
452.203	30711.34
452.409	31145.51
452.615	30965.29
452.821	29795.9
453.027	29650.49
453.233	30703.15
453.44	29554.24
453.646	30215.73
453.852	30127.67
454.058	30635.56
454.264	29644.35
454.47	30502.45
454.676	29621.82
454.882	30832.17
455.088	28286.54
455.294	28294.74
455.5	28913.22
455.705	29359.68
455.911	27829.85
456.117	27309.66
456.323	26934.89
456.529	25757.3
456.735	26691.18
456.941	26103.41
457.147	25740.92
457.352	24772.23
457.558	24673.93
457.764	24729.22
457.97	24286.86
458.176	24014.48
458.381	23688.85
458.587	22478.5
458.793	22632.1
458.999	21370.55
459.204	23023.26
459.41	22386.35
459.616	20831.94
459.821	20784.83
460.027	20735.68
460.233	20317.9
460.438	19408.6
460.644	19828.43
460.85	18730.72
461.055	18411.24
461.261	18370.28
461.466	17086.2
461.672	16586.5
461.878	17612.53
462.083	16541.44
462.289	16205.58
462.494	16115.47
462.7	15435.54
462.905	15009.56
463.111	15353.62
463.316	15507.22
463.522	15171.35
463.727	15095.58
463.932	15294.23
464.138	15015.71
464.343	14823.2
464.549	14630.69
464.754	15204.12
464.959	15263.51
465.165	14993.18
465.37	14143.27
465.575	13922.09
465.781	14419.75
465.986	14546.72
466.191	13963.05
466.397	13739.82
466.602	13219.64
466.807	13754.16
467.012	13512.5
467.218	13143.86
467.423	13248.31
467.628	13651.76
467.833	13952.81
468.038	13627.18
468.244	12818.24
468.449	13596.46
468.654	12994.36
468.859	13186.87
469.064	12943.16
469.269	12470.08
469.474	12556.1
469.679	12771.13
469.885	12457.79
470.09	12851
470.295	12601.15
470.5	12318.53
470.705	12287.81
470.91	12054.34
471.115	11915.08
471.32	12240.71
471.525	12179.27
471.73	11732.81
471.935	11626.32
472.139	11284.31
472.344	11437.91
472.549	11519.82
472.754	11319.12
472.959	11011.93
473.164	10737.5
473.369	10764.12
473.574	11077.46
473.778	10841.95
473.983	10981.21
474.188	10794.84
474.393	10520.42
474.598	10372.96
474.802	10428.26
475.007	10252.13
475.212	10258.28
475.417	9742.19
475.621	10047.33
475.826	9875.31
476.031	9664.36
476.235	9551.73
476.44	9647.98
476.645	9537.39
476.849	9508.72
477.054	9369.46
477.259	9242.48
477.463	9334.64
477.668	9195.38
477.872	9062.26
478.077	8898.42
478.282	8757.11
478.486	8853.37
478.691	8562.56
478.895	9031.54
479.1	8509.31
479.304	8546.17
479.509	8329.09
479.713	8537.98
479.918	8337.28
480.122	8263.55
480.326	8279.94
480.531	8400.77
480.735	8202.11
480.94	8152.96
481.144	8503.17
481.348	7890.82
481.553	7985.03
481.757	7993.22
481.961	8142.72
482.166	8187.78
482.37	8007.56
482.574	8046.47
482.778	7876.49
482.983	7974.79
483.187	7982.98
483.391	7931.78
483.595	7942.02
483.8	7823.24
484.004	8124.29
484.208	7935.88
484.412	8105.86
484.616	7925.64
484.821	8130.44
485.025	7860.1
485.229	7833.48
485.433	7802.76
485.637	7872.39
485.841	7931.78
486.045	7763.85
486.249	8013.7
486.453	7602.06
486.657	8013.7
486.861	8089.48
487.065	7810.95
487.269	7958.41
487.473	7774.09
487.677	7966.6
487.881	8075.14
488.085	7876.49
488.289	8038.28
488.493	8015.75
488.697	7970.69
488.901	7919.5
489.105	8077.19
489.309	8234.88
489.512	8234.88
489.716	7985.03
489.92	8095.62
490.124	7962.5
490.328	8103.81
490.531	8208.26
490.735	8062.85
490.939	8245.12
491.143	8218.5
491.346	8046.47
491.55	8322.94
491.754	8279.94
491.958	8316.8
492.161	8361.86
492.365	8351.62
492.569	8382.34
492.772	8255.36
492.976	8308.61
493.18	8570.75
493.383	8589.18
493.587	8767.35
493.79	8787.83
493.994	8781.69
494.197	8628.09
494.401	8671.1
494.605	8898.42
494.808	8982.39
495.012	9072.5
495.215	9021.3
495.419	9308.02
495.622	9054.07
495.825	9312.11
496.029	9115.51
496.232	9467.76
496.436	9285.49
496.639	9783.15
496.843	9662.32
497.046	9734
497.249	9844.59
497.453	10028.9
497.656	9979.75
497.859	10067.81
498.063	10205.03
498.266	10438.5
498.469	10413.92
498.673	10635.1
498.876	10573.66
499.079	10602.33
499.282	10661.73
499.485	10907.48
499.689	10952.54
499.892	11024.22
500.095	11128.66
500.298	11530.06
500.501	11347.79
500.705	11671.37
500.908	11519.82
501.111	11716.43
501.314	12029.77
501.517	12209.99
501.72	12228.42
501.923	12384.07
502.126	12556.1
502.329	12744.51
502.532	12791.61
502.735	12865.34
502.938	13057.85
503.141	13143.86
503.344	13199.16
503.547	13172.53
503.75	13344.56
503.953	13608.75
504.156	13739.82
504.359	13778.73
504.562	13879.08
504.765	14292.77
504.968	14300.97
505.17	14481.19
505.373	14604.07
505.576	14847.77
505.779	15157.02
505.982	15187.74
506.185	15499.03
506.387	15578.9
506.59	15644.43
506.793	15838.99
506.996	15732.5
507.198	16344.84
507.401	16248.58
507.604	16447.24
507.807	16668.42
508.009	16781.06
508.212	16877.31
508.415	17125.11
508.617	17295.1
508.82	17381.11
509.022	17585.91
509.225	17753.84
509.428	18181.87
509.63	17919.73
509.833	18108.14
510.035	18769.63
510.238	18472.68
510.44	18689.76
510.643	18783.97
510.845	19007.2
511.048	18788.07
511.25	19455.7
511.453	19285.72
511.655	20287.18
511.858	20195.02
512.06	20106.96
512.262	20262.6
512.465	20504.26
512.667	20893.38
512.87	20917.95
513.072	20944.58
513.274	21530.3
513.477	21663.41
513.679	21575.35
513.881	22064.82
514.084	22310.57
514.286	22687.4
514.488	22302.38
514.69	23197.34
514.893	22900.39
515.095	23162.53
515.297	23158.43
515.499	23568.02
515.701	23611.03
515.904	24004.24
516.106	24499.85
516.308	24415.88
516.51	24776.33
516.712	24534.67
516.914	24555.15
517.116	25587.32
517.318	25224.83
517.52	25554.55
517.722	25710.2
517.925	26189.42
518.127	26568.3
518.329	26596.97
518.531	26261.1
518.733	26871.4
518.935	27141.73
519.136	26795.62
519.338	27467.36
519.54	27647.58
519.742	27905.62
519.944	27938.39
520.146	28268.11
520.348	28679.75
520.55	28409.42
520.752	29052.48
520.954	29529.66
521.155	29122.12
521.357	29468.22
521.559	29726.27
521.761	30260.79
521.963	29873.72
522.164	30379.57
522.366	30348.85
522.568	30516.78
522.77	30780.97
522.971	31000.1
523.173	30744.11
523.375	31673.88
523.576	31290.91
523.778	31440.42
523.98	32220.69
524.181	31893.02
524.383	31985.18
524.584	32316.95
524.786	32751.12
524.988	32507.41
525.189	32644.62
525.391	32898.57
525.592	33127.94
525.794	33629.69
525.995	33431.04
526.197	33254.92
526.398	33461.76
526.6	33785.34
526.801	34070.01
527.003	34106.87
527.204	33871.36
527.406	34530.8
527.607	34364.92
527.808	34420.21
528.01	33945.08
528.211	34274.81
528.412	35194.34
528.614	34856.43
528.815	34774.51
529.016	35177.96
529.218	35022.31
529.419	34932.2
529.62	35333.6
529.822	35413.48
530.023	35562.98
530.224	35517.92
530.425	35335.65
530.626	35122.66
530.828	35202.53
531.029	36185.56
531.23	35667.42
531.431	35499.49
531.632	36195.8
531.833	35995.1
532.035	35681.76
532.236	35700.19
532.437	36193.75
532.638	35851.74
532.839	36167.13
533.04	36228.57
533.241	35489.25
533.442	36466.13
533.643	36054.49
533.844	35991
534.045	36384.21
534.246	35808.73
534.447	36130.26
534.648	36079.07
534.849	36218.33
535.05	36109.78
535.251	36222.42
535.451	35941.85
535.652	36509.14
535.853	36183.51
536.054	35904.99
536.255	36144.6
536.456	36019.67
536.657	36748.75
536.857	36677.07
537.058	36359.64
537.259	36269.53
537.46	36511.19
537.66	36335.06
537.861	36201.94
538.062	36339.16
538.263	36494.8
538.463	36136.41
538.664	36330.97
538.865	36365.78
539.065	36318.68
539.266	35775.97
539.466	36525.52
539.667	36085.21
539.868	36423.12
540.068	35968.48
540.269	36027.87
540.469	36478.42
540.67	36109.78
540.87	36580.82
541.071	36144.6
541.271	36175.32
541.472	36249.05
541.672	36003.29
541.873	36249.05
542.073	35622.37
542.274	36357.59
542.474	35823.07
542.675	35675.62
542.875	36363.73
543.075	36195.8
543.276	35515.87
543.476	36040.15
543.676	35878.36
543.877	36537.81
544.077	36378.07
544.277	35708.38
544.478	35972.57
544.678	36115.93
544.878	36017.63
545.078	36285.91
545.279	35528.16
545.479	35968.48
545.679	35931.61
545.879	36099.55
546.079	35870.17
546.28	35855.84
546.48	35436
546.68	36081.11
546.88	36070.87
547.08	36160.98
547.28	35648.99
547.48	35667.42
547.68	35948
547.88	35509.73
548.081	36003.29
548.281	35982.81
548.481	35968.48
548.681	36294.1
548.881	35804.64
549.081	36077.02
549.28	35337.7
549.48	35718.62
549.68	35710.43
549.88	36283.86
550.08	35732.96
550.28	35726.81
550.48	36027.87
550.68	35804.64
550.88	35610.08
551.08	35636.7
551.279	35843.55
551.479	35528.16
551.679	35757.53
551.879	35620.32
552.079	35911.13
552.278	35702.24
552.478	35896.8
552.678	35372.52
552.878	35714.53
553.077	35599.84
553.277	35202.53
553.477	36056.54
553.676	35436
553.876	35821.02
554.076	35661.28
554.275	35270.12
554.475	34987.5
554.674	35331.56
554.874	35368.42
555.074	34821.61
555.273	35290.6
555.473	35384.8
555.672	35266.02
555.872	35173.86
556.071	35653.09
556.271	35399.14
556.47	35042.79
556.67	34858.48
556.869	35382.76
557.068	35014.12
557.268	34799.08
557.467	35292.65
557.667	34799.08
557.866	34964.97
558.065	34713.07
558.265	34545.14
558.464	34868.72
558.663	34952.68
558.863	34280.95
559.062	34719.21
559.261	34512.37
559.461	34911.72
559.66	34502.13
559.859	34782.7
560.058	34229.75
560.258	34549.23
560.457	34084.34
560.656	34766.32
560.855	34395.64
561.054	34528.75
561.253	33897.98
561.453	34188.79
561.652	34237.94
561.851	34256.37
562.05	34053.62
562.249	34090.49
562.448	34039.29
562.647	33701.37
562.846	34000.38
563.045	33582.59
563.244	33682.94
563.443	34244.09
563.642	33441.28
563.841	34108.92
564.04	33367.55
564.239	33533.44
564.438	33441.28
564.637	33607.17
564.836	33424.9
565.035	32990.73
565.234	33584.64
565.432	33003.02
565.631	33054.22
565.83	33107.46
566.029	32849.42
566.228	33086.98
566.427	32695.82
566.625	32603.66
566.824	32552.46
567.023	32990.73
567.222	32306.71
567.42	32978.44
567.619	32499.22
567.818	32161.3
568.016	32341.52
568.215	32396.82
568.414	32226.84
568.612	32290.32
568.811	31956.5
569.01	32149.01
569.208	31716.89
569.407	32210.45
569.605	31680.03
569.804	32097.81
570.002	31548.96
570.201	32003.61
570.4	31725.08
570.598	31567.39
570.797	31327.78
570.995	31323.68
571.193	30944.81
571.392	31555.1
571.59	31190.56
571.789	30977.58
571.987	31071.78
572.186	31104.55
572.384	30963.24
572.582	31041.06
572.781	30615.08
572.979	30414.38
573.177	31137.32
573.376	30754.35
573.574	30045.75
573.772	30645.8
573.971	30426.67
574.169	30045.75
574.367	30350.9
574.565	30201.4
574.763	30088.76
574.962	29781.56
575.16	29535.81
575.358	30135.86
575.556	29578.81
575.754	30035.51
575.952	29726.27
576.151	29902.39
576.349	29867.58
576.547	29795.9
576.745	29478.46
576.943	29304.38
577.141	29257.28
577.339	29513.28
577.537	28733
577.735	29052.48
577.933	29138.5
578.131	29017.67
578.329	28468.81
578.527	28487.25
578.725	28481.1
578.923	28689.99
579.121	28597.84
579.319	28612.17
579.516	28563.02
579.714	28534.35
579.912	28350.03
580.11	28612.17
580.308	28247.63
580.506	28331.6
580.704	27457.12
580.901	27874.9
581.099	27856.47
581.297	27858.52
581.495	27795.03
581.692	27891.29
581.89	27620.95
582.088	27960.92
582.285	27493.98
582.483	27842.14
582.681	27289.18
582.878	27344.48
583.076	26973.8
583.274	27311.71
583.471	26971.75
583.669	27197.03
583.866	26928.74
584.064	27106.91
584.262	26744.42
584.459	26814.05
584.657	26916.45
584.854	27139.68
585.052	26381.93
585.249	26619.5
585.447	26564.2
585.644	26101.36
585.841	26433.13
586.039	26642.03
586.236	26218.1
586.434	26164.85
586.631	26029.68
586.828	26248.82
587.026	26154.61
587.223	26146.42
587.42	25685.62
587.618	25837.17
587.815	25527.93
588.012	25572.99
588.21	25095.81
588.407	25593.47
588.604	25398.91
588.801	25140.86
588.999	25079.43
589.196	25110.14
589.393	25134.72
589.59	25255.55
589.787	24854.15
589.984	24716.93
590.182	24655.5
590.379	24794.76
590.576	24755.85
590.773	24573.58
590.97	24569.48
591.167	24882.82
591.364	24159.89
591.561	24372.88
591.758	24098.45
591.955	24299.15
592.152	24532.62
592.349	24123.02
592.546	24032.91
592.743	24229.52
592.94	23643.8
593.137	23744.15
593.334	23981.71
593.531	23453.34
593.727	23824.02
593.924	23557.78
594.121	23301.79
594.318	23864.98
594.515	23228.06
594.712	23404.19
594.908	23086.75
595.105	23168.67
595.302	23090.85
595.499	22978.21
595.696	23015.07
595.892	22822.56
596.089	23000.74
596.286	22943.39
596.482	22851.24
596.679	22728.36
596.876	22527.66
597.072	22570.66
597.269	22261.42
597.466	22369.96
597.662	22460.07
597.859	22382.25
598.055	22216.36
598.252	22054.58
598.448	22345.39
598.645	22148.78
598.841	21837.49
599.038	22077.1
599.234	22120.11
599.431	21780.15
599.627	21589.69
599.824	21794.48
600.02	21857.97
600.217	21636.79
600.413	21536.44
600.609	21423.8
600.806	21098.17
601.002	21382.84
601.198	21206.72
601.395	20997.82
601.591	21116.61
601.787	20915.9
601.984	21112.51
602.18	21173.95
602.376	20778.69
602.572	20590.28
602.769	20928.19
602.965	20657.86
603.161	20917.95
603.357	20610.76
603.553	20506.31
603.75	20526.79
603.946	20399.82
604.142	20334.28
604.338	20008.65
604.534	20260.55
604.73	20207.31
604.926	20244.17
605.122	19979.98
605.318	20018.89
605.514	19713.75
605.71	20088.53
605.906	19840.72
606.102	19703.51
606.298	19590.87
606.494	19771.09
606.69	19664.6
606.886	19859.15
607.082	19361.5
607.278	19730.13
607.474	19533.53
607.67	19609.3
607.866	19132.12
608.062	19519.19
608.257	19263.19
608.453	19410.65
608.649	19128.03
608.845	19111.64
609.041	18925.28
609.236	19211.99
609.432	19289.82
609.628	19011.29
609.824	18958.05
610.019	18814.69
610.215	19021.53
610.411	18849.5
610.606	18636.52
610.802	18730.72
610.998	18634.47
611.193	18757.35
611.389	18831.07
611.584	18507.49
611.78	18386.66
611.976	18450.15
612.171	18599.65
612.367	18396.9
612.562	18441.96
612.758	18149.1
612.953	18325.22
613.149	18302.7
613.344	17964.78
613.539	18507.49
613.735	18290.41
613.93	18372.33
614.126	18073.32
614.321	18204.39
614.517	17897.2
614.712	17979.12
614.907	17843.95
615.103	17919.73
615.298	17905.39
615.493	18042.6
615.688	17950.45
615.884	17854.19
616.079	17692.4
616.274	18005.74
616.47	17608.44
616.665	17749.75
616.86	17663.73
617.055	17684.21
617.25	17585.91
617.445	17516.28
617.641	17108.73
617.836	17432.31
618.031	17338.1
618.226	17366.78
618.421	17264.38
618.616	17309.43
618.811	17286.9
619.006	17356.54
619.201	16918.27
619.396	17061.63
619.591	16649.99
619.786	17084.16
619.981	16692.99
620.176	16897.79
620.371	16602.88
620.566	16629.51
620.761	16447.24
620.956	16568.07
621.151	16338.69
621.346	16711.42
621.541	16183.05
621.735	16115.47
621.93	15853.33
622.125	16025.36
622.32	15820.56
622.515	15931.15
622.709	15763.22
622.904	15738.64
623.099	15636.24
623.294	15814.41
623.488	15394.58
623.683	15519.51
623.878	15496.98
624.072	15402.77
624.267	15220.5
624.462	15138.58
624.656	14880.54
624.851	15013.66
625.046	14888.73
625.24	14833.44
625.435	14688.03
625.629	14442.28
625.824	14567.2
626.018	14618.4
626.213	14239.53
626.407	14202.66
626.602	14217
626.796	14288.68
626.991	14204.71
627.185	13969.19
627.38	14061.35
627.574	13938.48
627.768	13819.69
627.963	13641.52
628.157	13678.38
628.352	13799.21
628.546	13397.81
628.74	13770.54
628.935	13510.45
629.129	13332.28
629.323	13086.52
629.517	13068.09
629.712	13309.75
629.906	13025.08
630.1	12808
630.294	12826.43
630.489	12869.44
630.683	12955.45
630.877	12775.23
631.071	12390.21
631.265	12504.9
631.459	12547.9
631.653	12496.71
631.848	12404.55
632.042	12121.93
632.236	12515.14
632.43	12142.41
632.624	12087.11
632.818	12068.68
633.012	12037.96
633.206	11818.83
633.4	11990.86
633.594	11657.04
633.788	11714.38
633.982	11683.66
634.176	11544.4
634.369	11632.46
634.563	11581.26
634.757	11523.92
634.951	11720.53
635.145	11349.84
635.339	11382.61
635.533	11052.89
635.726	11272.02
635.92	11032.41
636.114	11151.19
636.308	11151.19
636.501	10970.97
636.695	10878.81
636.889	10813.27
637.083	10682.2
637.276	10870.62
637.47	10516.32
637.664	10667.87
637.857	10508.13
638.051	10309.47
638.244	10420.06
638.438	10334.05
638.632	10321.76
638.825	10467.17
639.019	10039.14
639.212	10092.39
639.406	10233.7
639.599	10055.53
639.793	10178.4
639.986	9916.26
640.18	9807.72
640.373	9844.59
640.567	9842.54
640.76	9865.07
640.954	9815.91
641.147	9629.55
641.34	9500.53
641.534	9283.44
641.727	9334.64
641.92	9590.64
642.114	9490.29
642.307	9439.09
642.5	9318.26
642.694	9074.55
642.887	9219.96
643.08	9131.89
643.273	9258.87
643.467	9013.11
643.66	8959.86
643.853	9023.35
644.046	8804.22
644.239	8736.63
644.432	8728.44
644.626	8779.64
644.819	8851.32
645.012	8808.31
645.205	8656.76
645.398	8767.35
645.591	8435.58
645.784	8669.05
645.977	8488.83
646.17	8462.21
646.363	8468.35
646.556	8437.63
646.749	8302.47
646.942	8265.6
647.135	8243.07
647.328	8230.79
647.521	8142.72
647.714	7962.5
647.907	8025.99
648.099	8040.33
648.292	7952.26
648.485	7923.59
648.678	7667.59
648.871	7763.85
649.064	7767.95
649.256	7806.86
649.449	7640.97
649.642	7563.15
649.835	7622.54
650.027	7473.04
650.22	7788.43
650.413	7317.39
650.605	7571.34
650.798	7311.25
650.991	7448.46
651.183	7391.12
651.376	7309.2
651.568	7540.62
651.761	7202.71
651.954	7286.67
652.146	7069.59
652.339	7110.55
652.531	7174.03
652.724	7161.75
652.916	6997.91
653.109	7026.58
653.301	6989.72
653.494	6870.94
653.686	6809.5
653.879	6924.18
654.071	6686.62
654.263	6801.3
654.456	6809.5
654.648	6733.72
654.84	6481.82
655.033	6756.25
655.225	6612.89
655.417	6647.71
655.61	6580.12
655.802	6502.3
655.994	6490.01
656.186	6500.25
656.379	6506.4
656.571	6492.06
656.763	6360.99
656.955	6293.41
657.148	6176.67
657.34	6129.57
657.532	6252.45
657.724	6113.19
657.916	6178.72
658.108	6227.87
658.3	6129.57
658.492	5924.77
658.684	6074.28
658.876	5961.64
659.068	6064.04
659.26	6055.84
659.452	6016.93
659.644	5965.73
659.836	5834.66
660.028	5748.65
660.22	5812.14
660.412	5654.44
660.604	5744.55
660.796	5636.01
660.988	5621.67
661.18	5709.74
661.372	5679.02
661.563	5564.33
661.755	5648.3
661.947	5509.04
662.139	5390.25
662.331	5457.84
662.522	5353.39
662.714	5416.88
662.906	5392.3
663.097	5545.9
663.289	5449.64
663.481	5306.29
663.673	5306.29
663.864	5121.97
664.056	5171.12
664.247	5109.68
664.439	5132.21
664.631	5072.82
664.822	5187.5
665.014	5130.16
665.205	5128.11
665.397	5040.05
665.588	5064.63
665.78	5035.96
665.971	4943.8
666.163	4999.09
666.354	4870.07
666.546	5124.02
666.737	4851.64
666.929	4939.7
667.12	4829.11
667.311	4849.59
667.503	4739
667.694	4761.53
667.885	4831.16
668.077	4769.72
668.268	4829.11
668.459	4698.04
668.651	4677.56
668.842	4745.14
669.033	4628.41
669.224	4571.07
669.416	4671.42
669.607	4575.16
669.798	4528.06
669.989	4691.9
670.18	4552.63
670.371	4450.24
670.563	4468.67
670.754	4599.74
670.945	4466.62
671.136	4435.9
671.327	4464.57
671.518	4243.39
671.709	4411.32
671.9	4427.71
672.091	4341.69
672.282	4403.13
672.473	4263.87
672.664	4339.65
672.855	4270.01
673.046	4440
673.237	4296.64
673.428	4310.97
673.619	4331.45
673.809	4184
674	4265.92
674.191	4116.42
674.382	4100.03
674.573	4249.54
674.764	4005.83
674.954	4167.62
675.145	4138.94
675.336	4118.47
675.527	4126.66
675.717	4114.37
675.908	4030.4
676.099	4081.6
676.289	3983.3
676.48	4014.02
676.671	4040.64
676.861	4048.83
677.052	4130.75
677.243	3952.58
677.433	4022.21
677.624	3991.49
677.814	3901.38
678.005	3968.96
678.195	3919.81
678.386	3772.36
678.576	4024.26
678.767	3856.33
678.957	3887.04
679.148	4061.12
679.338	3921.86
679.529	3946.44
679.719	3891.14
679.909	3903.43
680.1	3829.7
680.29	3815.37
680.481	3794.89
680.671	3704.78
680.861	3717.06
681.052	3874.76
681.242	3862.47
681.432	3762.12
681.622	3774.41
681.813	3688.39
682.003	3856.33
682.193	3745.73
682.383	3813.32
682.573	3770.31
682.764	3696.58
682.954	3729.35
683.144	3690.44
683.334	3590.09
683.524	3747.78
683.714	3692.49
683.904	3749.83
684.094	3753.93
684.284	3700.68
684.474	3811.27
684.664	3690.44
684.854	3772.36
685.044	3567.56
685.234	3633.1
685.424	3551.18
685.614	3596.23
685.804	3813.32
685.994	3680.2
686.184	3495.88
686.374	3737.54
686.564	3547.08
686.753	3602.38
686.943	3459.02
687.133	3549.13
687.323	3512.27
687.513	3499.98
687.702	3540.94
687.892	3325.9
688.082	3282.89
688.272	3473.35
688.461	3426.25
688.651	3373
688.841	3469.26
689.03	3358.67
689.22	3334.09
689.41	3274.7
689.599	3243.98
689.789	3176.4
689.979	3215.31
690.168	3379.15
690.358	3157.97
690.547	3069.91
690.737	3239.89
690.926	3344.33
691.116	3231.69
691.305	3157.97
691.495	3092.43
691.684	3243.98
691.874	3065.81
692.063	3139.54
692.252	3194.83
692.442	3098.58
692.631	3071.95
692.82	3160.02
693.01	2942.93
693.199	3065.81
693.388	3041.23
693.578	3008.47
693.767	3119.06
693.956	2873.3
694.146	3082.19
694.335	3035.09
694.524	3033.04
694.713	2793.43
694.902	3180.5
695.092	2992.08
695.281	2840.53
695.47	2863.06
695.659	2676.7
695.848	2836.44
696.037	2828.24
696.226	2912.21
696.415	2807.77
696.604	2897.88
696.793	2766.81
696.982	2863.06
697.171	2879.44
697.36	2822.1
697.549	2873.3
697.738	2699.22
697.927	2578.39
698.116	2754.52
698.305	2750.42
698.494	2772.95
698.683	2738.13
698.872	2820.05
699.061	2658.26
699.25	2750.42
699.438	2756.57
699.627	2643.93
699.816	2709.46
700.005	2658.26
700.193	2787.29
700.382	2684.89
700.571	2758.61
700.76	2666.46
700.948	2731.99
701.137	2721.75
701.326	2629.59
701.514	2676.7
701.703	2662.36
701.892	2656.22
702.08	2830.29
702.269	2611.16
702.457	2551.77
702.646	2609.11
702.834	2559.96
703.023	2674.65
703.212	2609.11
703.4	2631.64
703.589	2568.15
703.777	2572.25
703.965	2623.45
704.154	2586.58
704.342	2750.42
704.531	2580.44
704.719	2643.93
704.907	2586.58
705.096	2541.53
705.284	2578.39
705.472	2600.92
705.661	2574.3
705.849	2576.34
706.037	2570.2
706.226	2502.62
706.414	2514.91
706.602	2484.19
706.79	2568.15
706.979	2519
707.167	2377.69
707.355	2516.95
707.543	2553.82
707.731	2541.53
707.919	2496.47
708.107	2611.16
708.296	2480.09
708.484	2437.08
708.672	2373.6
708.86	2541.53
709.048	2475.99
709.236	2428.89
709.424	2523.1
709.612	2641.88
709.8	2367.45
709.988	2570.2
710.176	2459.61
710.364	2549.72
710.551	2410.46
710.739	2508.76
710.927	2459.61
711.115	2488.28
711.303	2471.9
711.491	2428.89
711.679	2404.32
711.866	2377.69
712.054	2490.33
712.242	2455.51
712.43	2480.09
712.617	2430.94
712.805	2385.88
712.993	2467.8
713.181	2418.65
713.368	2349.02
713.556	2295.77
713.744	2396.12
713.931	2383.84
714.119	2381.79
714.306	2260.96
714.494	2443.23
714.682	2445.27
714.869	2402.27
715.057	2346.97
715.244	2371.55
715.432	2402.27
715.619	2324.44
715.807	2344.92
715.994	2459.61
716.182	2467.8
716.369	2342.88
716.556	2355.16
716.744	2205.66
716.931	2406.36
717.119	2189.28
717.306	2312.16
717.493	2283.49
717.681	2320.35
717.868	2322.4
718.055	2258.91
718.242	2338.78
718.43	2330.59
718.617	2377.69
718.804	2287.58
718.991	2369.5
719.179	2254.81
719.366	2387.93
719.553	2385.88
719.74	2320.35
719.927	2271.2
720.114	2273.25
720.301	2230.24
720.488	2170.85
720.676	2150.37
720.863	2230.24
721.05	2398.17
721.237	2283.49
721.424	2299.87
721.611	2303.96
721.798	2308.06
721.985	2230.24
722.172	2320.35
722.358	2316.25
722.545	2336.73
722.732	2269.15
722.919	2197.47
723.106	2248.67
723.293	2150.37
723.48	2185.18
723.667	2154.46
723.853	2156.51
724.04	2377.69
724.227	2252.77
724.414	2238.43
724.6	2224.09
724.787	2189.28
724.974	2174.94
725.161	2308.06
725.347	2209.76
725.534	2277.34
725.72	2246.62
725.907	2254.81
726.094	2162.65
726.28	2193.37
726.467	2123.74
726.653	2127.84
726.84	2129.89
727.027	2291.68
727.213	2140.13
727.4	2131.94
727.586	2197.47
727.773	2187.23
727.959	2160.61
728.145	2187.23
728.332	2123.74
728.518	2082.78
728.705	2287.58
728.891	2127.84
729.077	2207.71
729.264	2117.6
729.45	2168.8
729.636	2312.16
729.823	2035.68
730.009	2043.87
730.195	2158.56
730.382	2172.89
730.568	2170.85
730.754	2068.45
730.94	2074.59
731.126	2256.86
731.313	2164.7
731.499	2277.34
731.685	2050.02
731.871	2129.89
732.057	2111.46
732.243	2109.41
732.429	2068.45
732.615	2052.06
732.801	2191.33
732.987	2074.59
733.173	2187.23
733.359	2131.94
733.545	2090.98
733.731	2127.84
733.917	2150.37
734.103	2066.4
734.289	2111.46
734.475	1959.91
734.661	2050.02
734.847	2103.26
735.033	2123.74
735.219	2123.74
735.404	2076.64
735.59	2123.74
735.776	2201.57
735.962	2066.4
736.148	2117.6
736.333	2084.83
736.519	2076.64
736.705	1912.8
736.89	2013.15
737.076	2082.78
737.262	1992.67
737.447	1976.29
737.633	1910.75
737.819	2004.96
738.004	2033.63
738.19	2097.12
738.375	2025.44
738.561	2109.41
738.747	2054.11
738.932	1968.1
739.118	2017.25
739.303	1961.95
739.489	2093.02
739.674	1972.19
739.859	1980.39
740.045	1986.53
740.23	1937.38
740.416	2050.02
740.601	2097.12
740.786	2043.87
740.972	1953.76
741.157	1945.57
741.342	1810.4
741.528	1937.38
741.713	1992.67
741.898	2000.87
742.084	1863.65
742.269	1894.37
742.454	1912.8
742.639	1927.14
742.824	1939.43
743.01	1986.53
743.195	1863.65
743.38	1779.68
743.565	1890.28
743.75	1783.78
743.935	1843.17
744.12	1773.54
744.305	1812.45
744.49	1771.49
744.675	1828.84
744.86	1873.89
745.045	1806.31
745.23	1755.11
745.415	1738.73
745.6	1742.82
745.785	1787.88
745.97	1748.97
746.155	1804.26
746.34	1718.25
746.525	1746.92
746.71	1705.96
746.895	1601.51
747.079	1681.38
747.264	1724.39
747.449	1638.37
747.634	1662.95
747.819	1675.24
748.003	1605.61
748.188	1642.47
748.373	1560.55
748.557	1607.66
748.742	1562.6
748.927	1619.94
749.111	1509.35
749.296	1632.23
749.481	1501.16
749.665	1476.59
749.85	1550.31
750.034	1646.57
750.219	1503.21
750.404	1476.59
750.588	1427.43
750.773	1546.22
750.957	1521.64
751.141	1513.45
751.326	1517.54
751.51	1525.74
751.695	1337.32
751.879	1431.53
752.064	1484.78
752.248	1415.15
752.432	1468.39
752.617	1386.47
752.801	1337.32
752.985	1411.05
753.17	1370.09
753.354	1470.44
753.538	1331.18
753.722	1275.88
753.907	1249.26
754.091	1296.36
754.275	1349.61
754.459	1329.13
754.643	1255.4
754.828	1337.32
755.012	1333.23
755.196	1306.6
755.38	1198.06
755.564	1200.11
755.748	1275.88
755.932	1243.12
756.116	1206.25
756.3	1185.77
756.484	1257.45
756.668	1183.73
756.852	1126.38
757.036	1148.91
757.22	1230.83
757.404	1163.25
757.588	1148.91
757.772	1191.92
757.956	1091.57
758.14	1116.14
758.323	1075.18
758.507	1140.72
758.691	989.17
758.875	1114.09
759.059	1148.91
759.242	1066.99
759.426	1071.09
759.61	1050.61
759.794	1038.32
759.977	1097.71
760.161	1112.05
760.345	1189.87
760.528	1099.76
760.712	997.36
760.895	1050.61
761.079	1060.85
761.263	1005.55
761.446	929.78
761.63	1026.03
761.813	972.79
761.997	993.26
762.18	1019.89
762.364	1009.65
762.547	921.59
762.731	1030.13
762.914	917.49
763.098	940.02
763.281	929.78
763.464	944.11
763.648	978.93
763.831	927.73
764.015	839.67
764.198	821.24
764.381	952.31
764.564	915.44
764.748	841.72
764.931	911.35
765.114	851.95
765.297	880.63
765.481	796.66
765.664	825.33
765.847	952.31
766.03	923.63
766.213	831.48
766.397	763.89
766.58	796.66
766.763	913.39
766.946	833.52
767.129	849.91
767.312	839.67
767.495	829.43
767.678	745.46
767.861	888.82
768.044	862.19
768.227	813.04
768.41	753.65
768.593	747.51
768.776	892.91
768.959	798.71
769.142	778.23
769.324	821.24
769.507	774.13
769.69	763.89
769.873	706.55
770.056	854
770.239	751.6
770.421	886.77
770.604	788.47
770.787	772.08
770.97	792.56
771.152	755.7
771.335	770.04
771.518	755.7
771.7	716.79
771.883	780.28
772.066	690.17
772.248	706.55
772.431	806.9
772.613	788.47
772.796	641.01
772.978	724.98
773.161	802.8
773.343	657.4
773.526	630.77
773.708	657.4
773.891	675.83
774.073	714.74
774.256	673.78
774.438	765.94
774.621	600.05
774.803	634.87
774.985	612.34
775.168	702.45
775.35	598.01
775.532	690.17
775.715	663.54
775.897	649.21
776.079	591.86
776.261	651.25
776.444	630.77
776.626	559.1
776.808	591.86
776.99	604.15
777.173	552.95
777.355	600.05
777.537	657.4
777.719	542.71
777.901	530.42
778.083	571.38
778.265	520.18
778.447	559.1
778.629	542.71
778.811	573.43
778.993	514.04
779.175	602.1
779.357	569.34
779.539	583.67
779.721	522.23
779.903	540.66
780.085	489.46
780.267	528.38
780.449	532.47
780.631	493.56
780.812	534.52
780.994	442.36
781.176	524.28
781.358	454.65
781.54	468.98
781.721	518.14
781.903	536.57
782.085	477.18
782.267	536.57
782.448	423.93
782.63	454.65
782.812	518.14
782.993	419.83
783.175	471.03
783.357	401.4
783.538	464.89
783.72	401.4
783.901	509.94
784.083	393.21
784.264	452.6
784.446	329.72
784.627	423.93
784.809	403.45
784.99	378.87
785.172	391.16
785.353	430.07
785.535	403.45
785.716	403.45
785.897	378.87
786.079	327.67
786.26	403.45
786.441	395.26
786.623	356.35
786.804	284.67
786.985	358.39
787.167	305.15
787.348	407.55
787.529	397.31
787.71	362.49
787.891	323.58
788.073	342.01
788.254	370.68
788.435	401.4
788.616	329.72
788.797	389.11
788.978	405.5
789.159	337.91
789.34	290.81
789.522	333.82
789.703	362.49
789.884	331.77
790.065	301.05
790.246	446.46
790.427	272.38
790.607	358.39
790.788	301.05
790.969	301.05
791.15	385.02
791.331	256
791.512	260.09
791.693	227.32
791.874	321.53
792.054	221.18
792.235	292.86
792.416	329.72
792.597	307.2
792.778	266.24
792.958	323.58
793.139	284.67
793.32	368.63
793.5	311.29
793.681	321.53
793.862	231.42
794.042	350.2
794.223	215.04
794.404	266.24
794.584	235.52
794.765	272.38
794.945	280.57
795.126	313.34
795.306	251.9
795.487	305.15
795.667	231.42
795.848	296.96
796.028	206.84
796.209	286.72
796.389	274.43
796.57	307.2
796.75	176.13
796.93	235.52
797.111	215.04
797.291	198.65
797.471	329.72
797.652	288.76
797.832	184.32
798.012	202.75
798.192	272.38
798.373	157.69
798.553	217.08
798.733	202.75
798.913	264.19
799.093	196.6
799.274	149.5
799.454	260.09
799.634	249.85
799.814	153.6
799.994	274.43
800.174	219.13
800.354	223.23
800.534	176.13
800.714	276.48
800.894	159.74
801.074	184.32
801.254	212.99
801.434	202.75
801.614	260.09
801.794	223.23
801.974	782.32
802.154	163.84
802.334	192.51
802.514	215.04
802.693	239.61
802.873	190.46
803.053	198.65
803.233	200.7
803.413	196.6
803.592	223.23
803.772	210.94
803.952	116.73
804.131	167.93
804.311	167.93
804.491	206.84
804.67	169.98
804.85	184.32
805.03	165.89
805.209	219.13
805.389	247.8
805.568	161.79
805.748	112.64
805.928	204.8
806.107	174.08
806.287	151.55
806.466	139.26
806.646	229.37
806.825	133.12
807.004	139.26
807.184	155.65
807.363	141.31
807.543	143.36
807.722	141.31
807.901	153.6
808.081	210.94
808.26	116.73
808.439	208.89
808.619	118.78
808.798	116.73
808.977	118.78
809.156	247.8
809.336	174.08
809.515	145.41
809.694	241.66
809.873	198.65
810.052	145.41
810.231	137.21
810.411	79.87
810.59	221.18
810.769	159.74
810.948	165.89
811.127	63.49
811.306	75.77
811.485	145.41
811.664	190.46
811.843	149.5
812.022	149.5
812.201	141.31
812.38	116.73
812.559	153.6
812.737	141.31
812.916	129.02
813.095	86.01
813.274	94.21
813.453	229.37
813.632	184.32
813.811	149.5
813.989	112.64
814.168	174.08
814.347	43.01
814.526	126.97
814.704	118.78
814.883	151.55
815.062	122.88
815.24	100.35
815.419	147.45
815.598	174.08
815.776	59.39
815.955	190.46
816.133	26.62
816.312	133.12
816.49	96.25
816.669	133.12
816.847	45.06
817.026	94.21
817.204	139.26
817.383	163.84
817.561	126.97
817.74	157.69
817.918	116.73
818.097	92.16
818.275	94.21
818.453	116.73
818.632	137.21
818.81	151.55
818.988	122.88
819.167	120.83
819.345	120.83
819.523	43.01
819.701	155.65
819.879	51.2
820.058	81.92
820.236	88.06
820.414	114.69
820.592	143.36
820.77	96.25
820.948	116.73
821.127	53.25
821.305	137.21
821.483	61.44
821.661	63.49
821.839	92.16
822.017	139.26
822.195	92.16
822.373	104.45
822.551	45.06
822.729	83.97
822.907	131.07
823.085	124.93
823.262	110.59
823.44	100.35
823.618	112.64
823.796	83.97
823.974	108.54
824.152	53.25
824.329	71.68
824.507	182.27
824.685	63.49
824.863	96.25
825.04	108.54
825.218	90.11
825.396	126.97
825.574	124.93
825.751	149.5
825.929	92.16
826.107	45.06
826.284	51.2
826.462	124.93
826.639	18.43
826.817	47.1
826.994	94.21
827.172	32.77
827.349	98.3
827.527	30.72
827.704	141.31
827.882	55.3
828.059	65.53
828.237	141.31
828.414	59.39
828.591	40.96
828.769	106.49
828.946	53.25
829.124	190.46
829.301	108.54
829.478	126.97
829.655	75.77
829.833	83.97
830.01	73.73
830.187	126.97
830.364	75.77
830.542	147.45
830.719	92.16
830.896	86.01
831.073	30.72
831.25	161.79
831.427	59.39
831.604	110.59
831.782	2.05
831.959	18.43
832.136	61.44
832.313	77.82
832.49	43.01
832.667	75.77
832.844	34.82
833.021	151.55
833.198	104.45
833.374	30.72
833.551	100.35
833.728	51.2
833.905	51.2
834.082	-4.1
834.259	110.59
834.436	141.31
834.612	102.4
834.789	88.06
834.966	32.77
835.143	61.44
835.319	20.48
835.496	36.86
835.673	108.54
835.85	53.25
836.026	51.2
836.203	2.05
836.38	30.72
836.556	69.63
836.733	75.77
836.909	88.06
837.086	67.58
837.262	-20.48
837.439	86.01
837.616	45.06
837.792	38.91
837.968	59.39
838.145	-30.72
838.321	83.97
838.498	67.58
838.674	51.2
838.851	49.15
839.027	141.31
839.203	-20.48
839.38	38.91
839.556	59.39
839.732	98.3
839.909	28.67
840.085	100.35
840.261	38.91
840.437	59.39
840.614	30.72
840.79	73.73
840.966	47.1
841.142	124.93
841.318	-10.24
841.494	69.63
841.671	63.49
841.847	77.82
842.023	43.01
842.199	38.91
842.375	45.06
842.551	59.39
842.727	26.62
842.903	36.86
843.079	34.82
843.255	67.58
843.431	96.25
843.607	34.82
843.783	4.1
843.959	79.87
844.134	-10.24
844.31	61.44
844.486	92.16
844.662	45.06
844.838	57.34
845.013	135.17
845.189	53.25
845.365	26.62
845.541	-14.34
845.716	67.58
845.892	75.77
846.068	24.58
846.244	79.87
846.419	38.91
846.595	-14.34
846.77	81.92
846.946	69.63
847.122	12.29
847.297	28.67
847.473	45.06
847.648	53.25
847.824	53.25
847.999	-73.73
848.175	59.39
848.35	34.82
848.526	57.34
848.701	43.01
848.876	108.54
849.052	92.16
849.227	61.44
849.403	36.86
849.578	18.43
849.753	102.4
849.929	12.29
850.104	43.01
850.279	67.58
850.454	51.2
850.63	120.83
850.805	43.01
850.98	65.53
851.155	38.91
851.33	43.01
851.505	10.24
851.681	94.21
851.856	2.05
852.031	59.39
852.206	32.77
852.381	55.3
852.556	94.21
852.731	94.21
852.906	-36.86
853.081	34.82
853.256	79.87
853.431	59.39
853.606	55.3
853.781	22.53
853.956	-59.39
854.131	10.24
854.305	-38.91
854.48	-10.24
854.655	59.39
854.83	-22.53
855.005	20.48
855.18	116.73
855.354	30.72
855.529	30.72
855.704	38.91
855.879	55.3
856.053	36.86
856.228	32.77
856.403	14.34
856.577	51.2
856.752	-4.1
856.926	36.86
857.101	12.29
857.276	69.63
857.45	43.01
857.625	34.82
857.799	69.63
857.974	69.63
858.148	43.01
858.323	77.82
858.497	30.72
858.672	-2.05
858.846	36.86
859.02	-92.16
859.195	43.01
859.369	94.21
859.543	-10.24
859.718	65.53
859.892	-10.24
860.066	92.16
860.241	-12.29
860.415	2.05
860.589	-51.2
860.763	63.49
860.938	22.53
861.112	65.53
861.286	24.58
861.46	38.91
861.634	4.1
861.808	90.11
861.982	24.58
862.157	-0
862.331	-61.44
862.505	-22.53
862.679	-34.82
862.853	30.72
863.027	47.1
863.201	86.01
863.375	2.05
863.549	-32.77
863.722	51.2
863.896	92.16
864.07	61.44
864.244	43.01
864.418	-10.24
864.592	-28.67
864.766	38.91
864.939	-26.62
865.113	-40.96
865.287	71.68
865.461	18.43
865.634	-61.44
865.808	55.3
865.982	69.63
866.156	43.01
866.329	-63.49
866.503	36.86
866.676	86.01
866.85	34.82
867.024	20.48
867.197	16.38
867.371	83.97
867.544	86.01
867.718	-55.3
867.891	14.34
868.065	-32.77
868.238	-14.34
868.412	26.62
868.585	12.29
868.759	22.53
868.932	12.29
869.105	-4.1
869.279	47.1
869.452	-47.1
869.625	-4.1
869.799	12.29
869.972	-34.82
870.145	-20.48
870.319	10.24
870.492	-43.01
870.665	-32.77
870.838	38.91
871.011	-36.86
871.185	-12.29
871.358	-30.72
871.531	18.43
871.704	38.91
871.877	86.01
872.05	6.14
872.223	34.82
872.396	10.24
872.569	75.77
872.742	2.05
872.915	114.69
873.088	-63.49
873.261	6.14
873.434	22.53
873.607	53.25
873.78	-2.05
873.953	-49.15
874.126	6.14
874.299	47.1
874.471	-4.1
874.644	20.48
874.817	-28.67
874.99	129.02
875.163	-51.2
875.335	59.39
875.508	30.72
875.681	100.35
875.853	-55.3
876.026	14.34
876.199	67.58
876.371	47.1
876.544	32.77
876.717	34.82
876.889	8.19
877.062	-14.34
877.234	26.62
877.407	-2.05
877.579	34.82
877.752	12.29
877.924	38.91
878.097	-26.62
878.269	-0
878.442	77.82
878.614	36.86
878.786	75.77
878.959	40.96
879.131	26.62
879.303	24.58
879.476	-6.14
879.648	59.39
879.82	43.01
879.993	-22.53
880.165	-20.48
880.337	-14.34
880.509	-38.91
880.681	-47.1
880.854	2.05
881.026	2.05
881.198	34.82
881.37	34.82
881.542	14.34
881.714	-59.39
881.886	51.2
882.058	92.16
882.23	-12.29
882.402	100.35
882.574	94.21
882.746	51.2
882.918	43.01
883.09	14.34
883.262	75.77
883.434	-36.86
883.606	63.49
883.778	-36.86
883.95	26.62
884.122	38.91
884.293	92.16
884.465	22.53
884.637	10.24
884.809	6.14
884.98	40.96
885.152	-4.1
885.324	30.72
885.496	-20.48
885.667	30.72
885.839	83.97
886.011	96.25
886.182	-22.53
886.354	32.77
886.525	-38.91
886.697	-30.72
886.869	10.24
887.04	-63.49
887.212	10.24
887.383	8.19
887.555	-43.01
887.726	-0
887.897	-6.14
888.069	43.01
888.24	22.53
888.412	38.91
888.583	26.62
888.754	18.43
888.926	-20.48
889.097	34.82
889.268	-6.14
889.44	34.82
889.611	4.1
889.782	-26.62
889.953	36.86
890.125	34.82
890.296	-6.14
890.467	32.77
890.638	-38.91
890.809	-16.38
890.98	4.1
891.151	20.48
891.323	51.2
891.494	77.82
891.665	-20.48
891.836	8.19
892.007	-16.38
892.178	34.82
892.349	-30.72
892.52	-12.29
892.691	26.62
892.862	53.25
893.032	55.3
893.203	-20.48
893.374	4.1
893.545	16.38
893.716	30.72
893.887	10.24
894.057	-55.3
894.228	10.24
894.399	4.1
894.57	108.54
894.74	61.44
894.911	-43.01
895.082	2.05
895.253	18.43
895.423	59.39
895.594	14.34
895.764	51.2
895.935	12.29
896.106	6.14
896.276	-4.1
896.447	16.38
896.617	18.43
896.788	-32.77
896.958	-2.05
897.129	49.15
897.299	-22.53
897.47	8.19
897.64	-4.1
897.81	22.53
897.981	18.43
898.151	53.25
898.322	92.16
898.492	-26.62
898.662	-38.91
898.832	-22.53
899.003	18.43
899.173	22.53
899.343	34.82
899.513	-61.44
