Data from USB4F104151__201__14-20-32-346.txt Node

Date: Thu Mar 13 14:20:32 EDT 2025
User: louis
Spectrometer: USB4F10415
Trigger mode: 4
Integration Time (sec): 2.000000E-2
Scans to average: 1
Electric dark correction enabled: true
Nonlinearity correction enabled: false
Boxcar width: 0
XAxis mode: Wavelengths
Number of Pixels in Spectrum: 3648
>>>>>Begin Spectral Data<<<<<
178.204	-99.16
178.424	-99.16
178.644	-99.16
178.864	-129.88
179.084	-84.82
179.304	-31.57
179.524	-15.19
179.744	42.15
179.964	38.06
180.184	-11.09
180.404	-23.38
180.624	-52.05
180.844	-25.43
181.064	-21.33
181.283	50.35
181.503	-9.05
181.723	58.54
181.943	-45.91
182.163	38.06
182.383	29.87
182.602	52.39
182.822	107.69
183.042	42.15
183.262	48.3
183.482	42.15
183.701	-47.96
183.921	-41.81
184.141	-37.72
184.361	-9.05
184.58	1.19
184.8	-7
185.02	68.78
185.239	25.77
185.459	31.91
185.679	-31.57
185.898	-39.76
186.118	95.4
186.338	81.07
186.557	95.4
186.777	-80.72
186.997	-56.15
187.216	52.39
187.436	54.44
187.655	19.63
187.875	-31.57
188.095	-60.24
188.314	-7
188.534	87.21
188.753	52.39
188.973	66.73
189.192	13.48
189.412	-64.34
189.631	-0.85
189.851	-35.67
190.07	52.39
190.29	-35.67
190.509	42.15
190.729	-31.57
190.948	-27.48
191.168	115.88
191.387	1.19
191.607	60.59
191.826	66.73
192.045	-47.96
192.265	9.39
192.484	48.3
192.704	25.77
192.923	9.39
193.142	40.11
193.362	27.82
193.581	29.87
193.8	72.87
194.02	50.35
194.239	60.59
194.458	60.59
194.678	9.39
194.897	-15.19
195.116	-39.76
195.335	46.25
195.555	46.25
195.774	50.35
195.993	-2.9
196.212	21.67
196.432	1.19
196.651	-23.38
196.87	3.24
197.089	50.35
197.308	-19.29
197.528	76.97
197.747	-31.57
197.966	-0.85
198.185	33.96
198.404	-4.95
198.623	38.06
198.842	-4.95
199.062	-19.29
199.281	105.64
199.5	-15.19
199.719	-37.72
199.938	-13.14
200.157	52.39
200.376	33.96
200.595	-54.1
200.814	33.96
201.033	56.49
201.252	74.92
201.471	-0.85
201.69	52.39
201.909	56.49
202.128	81.07
202.347	25.77
202.566	-13.14
202.785	27.82
203.004	21.67
203.223	70.83
203.442	113.83
203.661	81.07
203.879	17.58
204.098	-27.48
204.317	36.01
204.536	17.58
204.755	5.29
204.974	87.21
205.193	66.73
205.411	9.39
205.63	-7
205.849	-56.15
206.068	-68.44
206.287	27.82
206.505	58.54
206.724	27.82
206.943	-7
207.162	66.73
207.381	13.48
207.599	33.96
207.818	54.44
208.037	-45.91
208.255	-11.09
208.474	27.82
208.693	58.54
208.911	46.25
209.13	-9.05
209.349	-7
209.567	-4.95
209.786	9.39
210.005	5.29
210.223	50.35
210.442	-31.57
210.661	9.39
210.879	-54.1
211.098	7.34
211.316	25.77
211.535	66.73
211.753	79.02
211.972	-4.95
212.191	1.19
212.409	-11.09
212.628	44.2
212.846	-72.53
213.065	36.01
213.283	72.87
213.502	-31.57
213.72	31.91
213.938	-21.33
214.157	-39.76
214.375	17.58
214.594	5.29
214.812	44.2
215.031	54.44
215.249	-25.43
215.467	33.96
215.686	-84.82
215.904	-7
216.122	33.96
216.341	29.87
216.559	58.54
216.778	70.83
216.996	38.06
217.214	9.39
217.432	17.58
217.651	48.3
217.869	-33.62
218.087	62.63
218.306	25.77
218.524	23.72
218.742	5.29
218.96	44.2
219.179	-2.9
219.397	-47.96
219.615	31.91
219.833	25.77
220.051	13.48
220.27	-7
220.488	-21.33
220.706	66.73
220.924	85.16
221.142	-37.72
221.36	52.39
221.578	33.96
221.796	-13.14
222.015	5.29
222.233	48.3
222.451	9.39
222.669	-29.52
222.887	23.72
223.105	-9.05
223.323	-54.1
223.541	-15.19
223.759	60.59
223.977	-4.95
224.195	15.53
224.413	33.96
224.631	58.54
224.849	33.96
225.067	-4.95
225.285	44.2
225.503	-29.52
225.721	-25.43
225.939	27.82
226.157	13.48
226.375	58.54
226.592	21.67
226.81	7.34
227.028	-21.33
227.246	91.31
227.464	79.02
227.682	70.83
227.9	58.54
228.117	11.43
228.335	25.77
228.553	76.97
228.771	-31.57
228.989	25.77
229.206	21.67
229.424	66.73
229.642	54.44
229.86	-62.29
230.077	-2.9
230.295	33.96
230.513	-23.38
230.731	60.59
230.948	9.39
231.166	-23.38
231.384	9.39
231.601	29.87
231.819	115.88
232.037	9.39
232.254	52.39
232.472	42.15
232.689	-25.43
232.907	42.15
233.125	11.43
233.342	-4.95
233.56	-54.1
233.777	1.19
233.995	-19.29
234.213	64.68
234.43	-15.19
234.648	36.01
234.865	33.96
235.083	-21.33
235.3	115.88
235.518	109.74
235.735	-37.72
235.953	56.49
236.17	-0.85
236.388	99.5
236.605	-84.82
236.822	58.54
237.04	38.06
237.257	-19.29
237.475	-13.14
237.692	-2.9
237.909	46.25
238.127	21.67
238.344	-7
238.562	3.24
238.779	66.73
238.996	48.3
239.214	-47.96
239.431	-11.09
239.648	11.43
239.865	15.53
240.083	-15.19
240.3	-23.38
240.517	-50
240.735	27.82
240.952	66.73
241.169	9.39
241.386	21.67
241.603	3.24
241.821	52.39
242.038	27.82
242.255	1.19
242.472	-23.38
242.689	42.15
242.907	13.48
243.124	13.48
243.341	72.87
243.558	-25.43
243.775	46.25
243.992	-17.24
244.209	3.24
244.426	40.11
244.643	36.01
244.86	1.19
245.078	68.78
245.295	74.92
245.512	62.63
245.729	17.58
245.946	1.19
246.163	3.24
246.38	50.35
246.597	50.35
246.814	9.39
247.031	21.67
247.248	81.07
247.464	-21.33
247.681	76.97
247.898	117.93
248.115	44.2
248.332	-11.09
248.549	60.59
248.766	48.3
248.983	19.63
249.2	27.82
249.417	81.07
249.633	46.25
249.85	58.54
250.067	-54.1
250.284	56.49
250.501	79.02
250.717	50.35
250.934	-4.95
251.151	76.97
251.368	-72.53
251.585	111.78
251.801	33.96
252.018	42.15
252.235	42.15
252.451	-0.85
252.668	-23.38
252.885	66.73
253.102	-19.29
253.318	27.82
253.535	-56.15
253.752	-4.95
253.968	52.39
254.185	-80.72
254.401	27.82
254.618	99.5
254.835	42.15
255.051	62.63
255.268	58.54
255.484	87.21
255.701	46.25
255.917	72.87
256.134	-13.14
256.351	33.96
256.567	1.19
256.784	50.35
257	-37.72
257.217	1.19
257.433	52.39
257.65	-11.09
257.866	-0.85
258.082	58.54
258.299	25.77
258.515	68.78
258.732	-2.9
258.948	17.58
259.165	13.48
259.381	36.01
259.597	-11.09
259.814	83.11
260.03	-23.38
260.246	-45.91
260.463	-0.85
260.679	62.63
260.895	17.58
261.112	60.59
261.328	33.96
261.544	17.58
261.761	81.07
261.977	-23.38
262.193	-15.19
262.409	-31.57
262.626	60.59
262.842	7.34
263.058	33.96
263.274	58.54
263.49	99.5
263.707	40.11
263.923	-39.76
264.139	48.3
264.355	-52.05
264.571	33.96
264.787	1.19
265.004	36.01
265.22	48.3
265.436	11.43
265.652	93.35
265.868	99.5
266.084	17.58
266.3	7.34
266.516	-52.05
266.732	25.77
266.948	1.19
267.164	91.31
267.38	33.96
267.596	44.2
267.812	23.72
268.028	-11.09
268.244	15.53
268.46	17.58
268.676	-25.43
268.892	54.44
269.108	3.24
269.324	-25.43
269.54	1.19
269.756	-23.38
269.972	-15.19
270.188	36.01
270.403	-54.1
270.619	36.01
270.835	-9.05
271.051	52.39
271.267	27.82
271.483	-58.2
271.698	33.96
271.914	5.29
272.13	7.34
272.346	-7
272.562	11.43
272.777	40.11
272.993	52.39
273.209	11.43
273.425	33.96
273.64	11.43
273.856	44.2
274.072	29.87
274.287	-29.52
274.503	33.96
274.719	52.39
274.934	29.87
275.15	-4.95
275.366	60.59
275.581	-13.14
275.797	58.54
276.012	38.06
276.228	19.63
276.444	38.06
276.659	74.92
276.875	44.2
277.09	3.24
277.306	33.96
277.521	83.11
277.737	-19.29
277.952	25.77
278.168	-99.16
278.383	83.11
278.599	-78.68
278.814	-39.76
279.03	44.2
279.245	60.59
279.461	1.19
279.676	107.69
279.892	25.77
280.107	-11.09
280.322	11.43
280.538	11.43
280.753	60.59
280.969	-4.95
281.184	-23.38
281.399	33.96
281.615	27.82
281.83	93.35
282.045	85.16
282.26	44.2
282.476	-2.9
282.691	36.01
282.906	25.77
283.122	17.58
283.337	13.48
283.552	36.01
283.767	-45.91
283.983	25.77
284.198	56.49
284.413	29.87
284.628	107.69
284.843	42.15
285.058	13.48
285.274	85.16
285.489	13.48
285.704	-15.19
285.919	13.48
286.134	-33.62
286.349	13.48
286.564	-80.72
286.779	83.11
286.995	9.39
287.21	-25.43
287.425	-31.57
287.64	7.34
287.855	66.73
288.07	19.63
288.285	11.43
288.5	62.63
288.715	31.91
288.93	-11.09
289.145	7.34
289.36	-62.29
289.575	60.59
289.79	50.35
290.004	-41.81
290.219	-4.95
290.434	74.92
290.649	19.63
290.864	66.73
291.079	29.87
291.294	19.63
291.509	56.49
291.724	36.01
291.938	-15.19
292.153	29.87
292.368	66.73
292.583	25.77
292.798	9.39
293.012	21.67
293.227	54.44
293.442	1.19
293.657	19.63
293.871	68.78
294.086	3.24
294.301	21.67
294.516	25.77
294.73	58.54
294.945	42.15
295.16	99.5
295.374	42.15
295.589	107.69
295.804	76.97
296.018	44.2
296.233	-9.05
296.447	25.77
296.662	-47.96
296.877	38.06
297.091	13.48
297.306	1.19
297.52	-56.15
297.735	-7
297.949	17.58
298.164	17.58
298.378	17.58
298.593	29.87
298.807	62.63
299.022	17.58
299.236	91.31
299.451	91.31
299.665	15.53
299.88	44.2
300.094	-19.29
300.309	25.77
300.523	-47.96
300.737	50.35
300.952	5.29
301.166	21.67
301.381	40.11
301.595	13.48
301.809	17.58
302.024	-43.86
302.238	19.63
302.452	1.19
302.667	27.82
302.881	17.58
303.095	29.87
303.309	9.39
303.524	40.11
303.738	-37.72
303.952	1.19
304.166	52.39
304.381	-31.57
304.595	68.78
304.809	33.96
305.023	50.35
305.237	36.01
305.452	-72.53
305.666	79.02
305.88	17.58
306.094	38.06
306.308	9.39
306.522	36.01
306.736	5.29
306.95	36.01
307.164	60.59
307.379	-45.91
307.593	62.63
307.807	33.96
308.021	52.39
308.235	-23.38
308.449	-29.52
308.663	38.06
308.877	42.15
309.091	66.73
309.305	17.58
309.519	-45.91
309.733	74.92
309.947	-7
310.161	144.55
310.374	-62.29
310.588	27.82
310.802	40.11
311.016	72.87
311.23	48.3
311.444	27.82
311.658	-15.19
311.872	-4.95
312.085	58.54
312.299	9.39
312.513	36.01
312.727	29.87
312.941	-47.96
313.154	89.26
313.368	-86.87
313.582	-15.19
313.796	-11.09
314.009	25.77
314.223	138.41
314.437	21.67
314.651	52.39
314.864	-0.85
315.078	54.44
315.292	-4.95
315.505	42.15
315.719	27.82
315.933	58.54
316.146	58.54
316.36	54.44
316.573	85.16
316.787	19.63
317.001	3.24
317.214	46.25
317.428	13.48
317.641	-80.72
317.855	-31.57
318.068	11.43
318.282	50.35
318.495	1.19
318.709	74.92
318.922	-50
319.136	81.07
319.349	15.53
319.563	-7
319.776	25.77
319.99	-0.85
320.203	79.02
320.417	13.48
320.63	50.35
320.843	79.02
321.057	19.63
321.27	1.19
321.483	11.43
321.697	66.73
321.91	42.15
322.124	83.11
322.337	38.06
322.55	-21.33
322.763	-17.24
322.977	79.02
323.19	11.43
323.403	27.82
323.617	-2.9
323.83	95.4
324.043	21.67
324.256	9.39
324.469	13.48
324.683	13.48
324.896	1.19
325.109	42.15
325.322	13.48
325.535	85.16
325.748	62.63
325.962	54.44
326.175	21.67
326.388	21.67
326.601	33.96
326.814	56.49
327.027	-4.95
327.24	76.97
327.453	13.48
327.666	46.25
327.879	62.63
328.092	-23.38
328.305	58.54
328.518	25.77
328.731	5.29
328.944	91.31
329.157	48.3
329.37	64.68
329.583	33.96
329.796	17.58
330.009	-56.15
330.222	79.02
330.435	52.39
330.648	66.73
330.861	99.5
331.073	9.39
331.286	56.49
331.499	46.25
331.712	-31.57
331.925	-21.33
332.138	21.67
332.35	85.16
332.563	29.87
332.776	89.26
332.989	27.82
333.202	27.82
333.414	1.19
333.627	27.82
333.84	52.39
334.053	38.06
334.265	-15.19
334.478	56.49
334.691	11.43
334.903	33.96
335.116	70.83
335.329	-13.14
335.541	60.59
335.754	95.4
335.966	-11.09
336.179	66.73
336.392	-47.96
336.604	109.74
336.817	38.06
337.029	74.92
337.242	15.53
337.454	122.02
337.667	79.02
337.88	68.78
338.092	21.67
338.305	42.15
338.517	48.3
338.729	60.59
338.942	13.48
339.154	58.54
339.367	-2.9
339.579	93.35
339.792	-21.33
340.004	58.54
340.217	38.06
340.429	91.31
340.641	5.29
340.854	50.35
341.066	-15.19
341.278	58.54
341.491	54.44
341.703	68.78
341.915	17.58
342.128	134.31
342.34	-11.09
342.552	1.19
342.764	33.96
342.977	42.15
343.189	-7
343.401	66.73
343.613	5.29
343.826	-39.76
344.038	-4.95
344.25	72.87
344.462	-29.52
344.674	54.44
344.886	60.59
345.099	-17.24
345.311	97.45
345.523	58.54
345.735	50.35
345.947	-31.57
346.159	13.48
346.371	33.96
346.583	21.67
346.795	99.5
347.007	33.96
347.219	58.54
347.431	13.48
347.643	44.2
347.855	27.82
348.067	87.21
348.279	52.39
348.491	9.39
348.703	29.87
348.915	83.11
349.127	9.39
349.339	128.17
349.551	42.15
349.763	17.58
349.975	46.25
350.187	83.11
350.399	66.73
350.61	50.35
350.822	-11.09
351.034	58.54
351.246	83.11
351.458	40.11
351.669	-4.95
351.881	27.82
352.093	79.02
352.305	44.2
352.517	13.48
352.728	93.35
352.94	52.39
353.152	66.73
353.363	9.39
353.575	29.87
353.787	54.44
353.999	42.15
354.21	-11.09
354.422	3.24
354.633	21.67
354.845	66.73
355.057	50.35
355.268	169.13
355.48	-2.9
355.692	76.97
355.903	3.24
356.115	42.15
356.326	-39.76
356.538	107.69
356.749	50.35
356.961	76.97
357.172	38.06
357.384	50.35
357.595	87.21
357.807	58.54
358.018	11.43
358.23	17.58
358.441	93.35
358.653	17.58
358.864	27.82
359.075	-0.85
359.287	46.25
359.498	38.06
359.709	19.63
359.921	79.02
360.132	36.01
360.344	62.63
360.555	36.01
360.766	70.83
360.977	27.82
361.189	68.78
361.4	81.07
361.611	40.11
361.823	42.15
362.034	83.11
362.245	44.2
362.456	95.4
362.667	83.11
362.879	29.87
363.09	103.59
363.301	31.91
363.512	36.01
363.723	54.44
363.935	89.26
364.146	23.72
364.357	17.58
364.568	89.26
364.779	1.19
364.99	148.65
365.201	17.58
365.412	60.59
365.623	-7
365.834	68.78
366.045	11.43
366.256	-23.38
366.467	19.63
366.678	1.19
366.889	56.49
367.1	62.63
367.311	70.83
367.522	68.78
367.733	64.68
367.944	19.63
368.155	17.58
368.366	36.01
368.577	66.73
368.788	36.01
368.999	19.63
369.209	46.25
369.42	58.54
369.631	56.49
369.842	56.49
370.053	132.26
370.264	99.5
370.474	76.97
370.685	15.53
370.896	11.43
371.107	-50
371.317	74.92
371.528	25.77
371.739	50.35
371.95	7.34
372.16	128.17
372.371	3.24
372.582	58.54
372.792	46.25
373.003	70.83
373.214	42.15
373.424	25.77
373.635	-66.39
373.846	91.31
374.056	11.43
374.267	5.29
374.477	83.11
374.688	115.88
374.898	107.69
375.109	-39.76
375.319	17.58
375.53	56.49
375.74	85.16
375.951	62.63
376.161	72.87
376.372	38.06
376.582	134.31
376.793	107.69
377.003	-29.52
377.214	25.77
377.424	95.4
377.635	21.67
377.845	58.54
378.055	46.25
378.266	81.07
378.476	23.72
378.686	56.49
378.897	115.88
379.107	19.63
379.317	68.78
379.528	-4.95
379.738	68.78
379.948	40.11
380.158	54.44
380.369	83.11
380.579	5.29
380.789	54.44
380.999	25.77
381.21	83.11
381.42	68.78
381.63	60.59
381.84	54.44
382.05	42.15
382.261	85.16
382.471	44.2
382.681	40.11
382.891	103.59
383.101	91.31
383.311	91.31
383.521	21.67
383.731	-21.33
383.941	44.2
384.151	31.91
384.361	42.15
384.571	33.96
384.781	85.16
384.991	89.26
385.201	132.26
385.411	31.91
385.621	31.91
385.831	-0.85
386.041	60.59
386.251	42.15
386.461	79.02
386.671	103.59
386.881	105.64
387.091	44.2
387.301	11.43
387.511	42.15
387.72	38.06
387.93	99.5
388.14	-11.09
388.35	68.78
388.56	91.31
388.769	42.15
388.979	33.96
389.189	38.06
389.399	9.39
389.609	160.94
389.818	66.73
390.028	95.4
390.238	101.55
390.447	25.77
390.657	40.11
390.867	76.97
391.076	101.55
391.286	83.11
391.496	19.63
391.705	21.67
391.915	111.78
392.125	58.54
392.334	99.5
392.544	97.45
392.753	-19.29
392.963	79.02
393.172	66.73
393.382	60.59
393.591	62.63
393.801	99.5
394.01	85.16
394.22	142.5
394.429	76.97
394.639	91.31
394.848	132.26
395.058	-2.9
395.267	62.63
395.477	117.93
395.686	101.55
395.895	138.41
396.105	187.56
396.314	-31.57
396.524	74.92
396.733	93.35
396.942	142.5
397.152	58.54
397.361	177.32
397.57	156.84
397.78	115.88
397.989	109.74
398.198	197.8
398.407	83.11
398.617	132.26
398.826	60.59
399.035	177.32
399.244	91.31
399.453	119.98
399.663	95.4
399.872	68.78
400.081	103.59
400.29	181.42
400.499	46.25
400.708	150.7
400.917	115.88
401.127	165.03
401.336	173.22
401.545	156.84
401.754	83.11
401.963	109.74
402.172	64.68
402.381	66.73
402.59	165.03
402.799	140.46
403.008	154.79
403.217	132.26
403.426	154.79
403.635	124.07
403.844	162.98
404.053	146.6
404.262	197.8
404.471	285.86
404.68	173.22
404.888	232.62
405.097	124.07
405.306	148.65
405.515	249
405.724	199.85
405.933	197.8
406.142	246.95
406.35	208.04
406.559	218.28
406.768	158.89
406.977	275.62
407.185	287.91
407.394	242.85
407.603	232.62
407.812	255.14
408.02	287.91
408.229	296.1
408.438	257.19
408.646	292.01
408.855	339.11
409.064	365.73
409.272	353.45
409.481	412.84
409.69	365.73
409.898	320.68
410.107	410.79
410.315	335.01
410.524	382.12
410.733	451.75
410.941	427.17
411.15	451.75
411.358	464.04
411.567	490.66
411.775	504.99
411.984	533.67
412.192	611.49
412.401	591.01
412.609	584.87
412.818	715.94
413.026	615.59
413.234	634.02
413.443	619.68
413.651	674.98
413.86	715.94
414.068	699.55
414.276	861.34
414.485	746.66
414.693	838.81
414.901	865.44
415.11	930.97
415.318	842.91
415.526	904.35
415.734	951.45
415.943	1057.95
416.151	1041.56
416.359	1039.51
416.567	1123.48
416.776	1197.21
416.984	1184.92
417.192	1410.2
417.4	1250.46
417.608	1334.42
417.817	1291.41
418.025	1434.77
418.233	1494.16
418.441	1492.12
418.649	1582.23
418.857	1688.72
419.065	1674.39
419.273	1690.77
419.481	1746.06
419.689	1868.94
419.897	1932.43
420.105	1993.87
420.313	2008.2
420.521	2178.19
420.729	1950.86
420.937	2282.63
421.145	2352.26
421.353	2354.31
421.561	2532.48
421.769	2616.45
421.977	2741.38
422.185	2632.83
422.393	2839.68
422.601	2909.31
422.809	3001.47
423.017	2933.89
423.224	3191.93
423.432	3288.18
423.64	3337.34
423.848	3583.09
424.056	3466.36
424.263	3665.01
424.471	3697.78
424.679	3927.15
424.887	3961.97
425.094	4078.7
425.302	4146.28
425.51	4162.67
425.718	4326.5
425.925	4531.3
426.133	4539.49
426.341	4877.41
426.548	5098.59
426.756	5223.51
426.964	5319.77
427.171	5502.04
427.379	5669.97
427.586	5682.26
427.794	6155.34
428.001	6034.51
428.209	6480.97
428.417	6378.57
428.624	6753.35
428.832	6704.2
429.039	6800.45
429.247	6786.12
429.454	7341.11
429.662	7996.46
429.869	7357.5
430.076	7853.11
430.284	7640.12
430.491	8113.2
430.699	8438.83
430.906	8414.25
431.114	8733.73
431.321	8899.62
431.528	8997.92
431.736	9548.82
431.943	10052.63
432.15	10013.71
432.358	9735.19
432.565	10546.19
432.772	10327.05
432.979	10961.92
433.187	11131.9
433.394	11430.91
433.601	11660.28
433.808	11856.89
434.016	11840.5
434.223	12184.56
434.43	12993.51
434.637	12719.08
434.844	13638.62
435.052	13689.82
435.259	13579.23
435.466	14052.31
435.673	13458.4
435.88	14576.59
436.087	15633.34
436.294	15418.3
436.501	15190.98
436.708	15432.64
436.915	15633.34
437.122	16505.77
437.329	16413.62
437.537	16847.79
437.743	17107.88
437.95	17120.17
438.157	18324.37
438.364	18781.07
438.571	18617.23
438.778	18903.95
438.985	20523.89
439.192	19520.38
439.399	20376.44
439.606	19846.01
439.813	20898.67
440.02	22268.76
440.227	21648.22
440.433	21322.6
440.64	22244.18
440.847	22111.07
441.054	22930.25
441.261	24134.46
441.467	23696.19
441.674	24326.97
441.881	25049.9
442.088	25281.32
442.294	24859.44
442.501	25426.73
442.708	26051.36
442.914	27169.55
443.121	28185.34
443.328	27421.45
443.534	29440.75
443.741	28609.27
443.948	28308.22
444.154	30057.18
444.361	30208.73
444.568	30153.44
444.774	30163.68
444.981	30395.1
445.187	31154.9
445.394	32764.6
445.6	32025.28
445.807	35570.32
446.013	33677.99
446.22	34372.25
446.426	35725.96
446.633	36037.25
446.839	37278.32
447.046	35818.12
447.252	37372.53
447.459	37593.71
447.665	37333.62
447.871	39125.59
448.078	41013.82
448.284	39201.36
448.491	39922.25
448.697	41622.06
448.903	42193.45
449.11	42179.11
449.316	41538.1
449.522	42379.81
449.728	43008.54
449.935	43659.79
450.141	43477.52
450.347	44890.62
450.553	43268.63
450.76	43751.95
450.966	45382.13
451.172	44907.01
451.378	46049.77
451.584	45330.93
451.791	45496.82
451.997	45758.96
452.203	46567.91
452.409	46746.08
452.615	46619.11
452.821	44489.22
453.027	44161.54
453.233	46582.24
453.44	44935.68
453.646	45273.59
453.852	45928.94
454.058	46385.64
454.264	44798.46
454.47	46363.11
454.676	44499.46
454.882	45990.38
455.088	42285.61
455.294	42861.08
455.5	43553.3
455.705	43670.03
455.911	42105.38
456.117	41386.55
456.323	40796.73
456.529	38724.19
456.735	40677.95
456.941	39217.75
457.147	38967.9
457.352	37685.87
457.558	37606
457.764	37245.55
457.97	36573.82
458.176	35666.57
458.381	35887.75
458.587	34382.49
458.793	34441.89
458.999	32854.71
459.204	34966.17
459.41	33634.99
459.616	31627.98
459.821	31861.44
460.027	31374.03
460.233	30737.11
460.438	29600.49
460.644	29788.9
460.85	28482.3
461.055	27972.35
461.261	28019.46
461.466	25467.69
461.672	25021.23
461.878	27077.39
462.083	24841.01
462.289	24851.25
462.494	24740.66
462.7	23118.67
462.905	22799.18
463.111	23380.81
463.316	23663.43
463.522	22913.87
463.727	22883.15
463.932	22723.41
464.138	22688.59
464.343	22727.5
464.549	22102.87
464.754	22938.44
464.959	22707.02
465.165	22647.63
465.37	21693.28
465.575	20990.83
465.781	21924.7
465.986	21982.04
466.191	21105.51
466.397	20734.83
466.602	19649.41
466.807	20783.98
467.012	20476.79
467.218	20394.87
467.423	20218.74
467.628	20237.17
467.833	21064.55
468.038	20341.62
468.244	19712.89
468.449	20595.57
468.654	19663.74
468.859	19776.38
469.064	19561.34
469.269	18936.71
469.474	18770.83
469.679	19393.41
469.885	18754.44
470.09	19131.27
470.295	18934.67
470.5	18449.3
470.705	18510.74
470.91	18420.63
471.115	17978.26
471.32	18121.62
471.525	17976.22
471.73	17628.06
471.935	17701.79
472.139	16917.42
472.344	17351.59
472.549	17359.78
472.754	17114.02
472.959	16661.42
473.164	15967.16
473.369	16022.45
473.574	16628.65
473.778	16368.56
473.983	16305.07
474.188	16249.78
474.393	15545.28
474.598	15522.75
474.802	15504.32
475.007	15356.86
475.212	15426.5
475.417	14922.69
475.621	14787.53
475.826	14709.71
476.031	14570.44
476.235	14470.09
476.44	14687.18
476.645	14207.95
476.849	14179.28
477.054	14066.64
477.259	13816.79
477.463	13550.56
477.668	13566.94
477.872	13646.81
478.077	13419.49
478.282	13097.95
478.486	13067.24
478.691	12919.78
478.895	12923.88
479.1	12835.81
479.304	13059.04
479.509	12538.86
479.713	12784.62
479.918	12340.21
480.122	12135.41
480.326	12342.25
480.531	12329.97
480.735	12166.13
480.94	12078.07
481.144	12608.49
481.348	12043.25
481.553	12229.62
481.757	11865.08
481.961	11774.97
482.166	12157.94
482.37	12071.92
482.574	11840.5
482.778	11815.93
482.983	12205.04
483.187	11836.41
483.391	11971.57
483.595	11797.49
483.8	11828.21
484.004	11903.99
484.208	12096.5
484.412	11555.83
484.616	11852.79
484.821	11860.98
485.025	11650.04
485.229	11871.22
485.433	11707.38
485.637	11975.67
485.841	11729.91
486.045	11803.64
486.249	11850.74
486.453	11799.54
486.657	11832.31
486.861	11856.89
487.065	11392
487.269	11670.52
487.473	11609.08
487.677	12030.96
487.881	11879.41
488.085	11824.12
488.289	11877.37
488.493	11822.07
488.697	11977.72
488.901	11947
489.105	11768.82
489.309	12006.39
489.512	12022.77
489.716	11947
489.92	11842.55
490.124	11981.81
490.328	12149.75
490.531	12020.72
490.735	12104.69
490.939	12182.51
491.143	12033.01
491.346	12205.04
491.55	12303.34
491.754	12110.83
491.958	12315.63
492.161	12391.41
492.365	12268.53
492.569	12145.65
492.772	12536.81
492.976	12407.79
493.18	12512.24
493.383	12698.6
493.587	12514.28
493.79	12930.02
493.994	12723.18
494.197	12829.67
494.401	12889.06
494.605	13036.52
494.808	13091.81
495.012	13282.27
495.215	13419.49
495.419	13425.63
495.622	13376.48
495.825	13495.26
496.029	13536.22
496.232	13841.37
496.436	13888.47
496.639	13941.72
496.843	14324.69
497.046	14422.99
497.249	14408.65
497.453	14447.57
497.656	14511.05
497.859	14828.49
498.063	14955.46
498.266	15393.73
498.469	15342.53
498.673	15371.2
498.876	15336.38
499.079	15508.41
499.282	15672.25
499.485	16081.85
499.689	15926.2
499.892	16356.27
500.095	16477.1
500.298	16741.29
500.501	16726.96
500.705	17226.66
500.908	17480.61
501.111	17271.72
501.314	17761.18
501.517	17779.61
501.72	17961.88
501.923	17965.98
502.126	18154.39
502.329	18545.55
502.532	18672.53
502.735	18764.68
502.938	19354.5
503.141	19198.85
503.344	19516.29
503.547	19417.99
503.75	19731.33
503.953	19977.08
504.156	20331.38
504.359	20382.58
504.562	20611.95
504.765	21115.75
504.968	21400.42
505.17	21580.64
505.373	21250.92
505.576	22115.16
505.779	21914.46
505.982	22319.96
506.185	22557.52
506.387	22608.72
506.59	22698.83
506.793	23360.33
506.996	23159.63
507.198	23880.51
507.401	24036.16
507.604	24148.79
507.807	24523.57
508.009	24580.92
508.212	24763.18
508.415	25135.92
508.617	25396.01
508.82	25457.45
509.022	25176.87
509.225	26022.69
509.428	25836.32
509.63	26342.17
509.833	26290.97
510.035	27249.42
510.238	27052.81
510.44	27464.46
510.643	27843.33
510.845	27771.65
511.048	27710.21
511.25	28173.05
511.453	28492.54
511.655	29344.49
511.858	29131.5
512.06	29004.53
512.262	29749.99
512.465	29850.34
512.667	30055.14
512.87	30159.58
513.072	30190.3
513.274	31034.07
513.477	31357.64
513.679	31414.99
513.881	31746.76
514.084	32168.64
514.286	31959.75
514.488	32217.79
514.69	32926.39
514.893	33487.53
515.095	33575.59
515.297	33434.28
515.499	33999.52
515.701	34298.53
515.904	34437.79
516.106	34714.26
516.308	34900.63
516.51	35646.09
516.712	35197.59
516.914	35838.6
517.116	36516.48
517.318	36512.38
517.52	36450.94
517.722	36694.65
517.925	37638.76
518.127	37716.59
518.329	37945.96
518.531	37479.02
518.733	38494.82
518.935	38709.85
519.136	38474.34
519.338	39045.72
519.54	39713.36
519.742	39549.52
519.944	39883.34
520.146	40047.18
520.348	40514.11
520.55	40557.12
520.752	40761.92
520.954	41419.31
521.155	41468.47
521.357	41857.58
521.559	41646.64
521.761	42504.74
521.963	42406.44
522.164	42783.26
522.366	42951.2
522.568	43590.16
522.77	43489.81
522.971	44210.7
523.173	43624.98
523.375	44200.46
523.576	44560.9
523.778	44309
523.98	44771.84
524.181	45265.4
524.383	45332.98
524.584	45599.22
524.786	45900.27
524.988	45457.91
525.189	45472.24
525.391	46025.2
525.592	46608.87
525.794	46258.66
525.995	46103.02
526.197	46666.21
526.398	46713.31
526.6	47167.96
526.801	46979.55
527.003	47520.21
527.204	47305.18
527.406	48265.67
527.607	47401.43
527.808	48034.25
528.01	47450.58
528.211	47870.42
528.412	48953.79
528.614	48359.88
528.815	48585.16
529.016	49000.89
529.218	48347.59
529.419	48687.56
529.62	48824.77
529.822	48576.97
530.023	48789.95
530.224	49000.89
530.425	49033.66
530.626	48730.56
530.828	48282.06
531.029	49347
531.23	48906.69
531.431	49242.56
531.632	49324.47
531.833	49232.32
532.035	48751.04
532.236	49756.6
532.437	49324.47
532.638	49246.65
532.839	49510.84
533.04	49744.31
533.241	49017.28
533.442	50051.5
533.643	49689.01
533.844	49283.51
534.045	49334.71
534.246	49146.3
534.447	49699.25
534.648	49551.8
534.849	49430.97
535.05	49263.03
535.251	49768.88
535.451	49500.6
535.652	49437.11
535.853	49740.21
536.054	49664.44
536.255	49928.62
536.456	49258.94
536.657	49789.36
536.857	49619.38
537.058	49287.61
537.259	49639.86
537.46	49592.76
537.66	49299.9
537.861	49410.49
538.062	49404.34
538.263	49758.64
538.463	49396.15
538.664	49418.68
538.865	49502.65
539.065	49902
539.266	48961.98
539.466	49502.65
539.667	49007.04
539.868	49928.62
540.068	49445.3
540.269	49308.09
540.469	49807.79
540.67	49301.95
540.87	49291.71
541.071	49019.33
541.271	49570.23
541.472	49383.87
541.672	48863.68
541.873	48972.22
542.073	48609.73
542.274	49338.81
542.474	49148.35
542.675	48787.91
542.875	49287.61
543.075	48972.22
543.276	48773.57
543.476	49322.43
543.676	48746.95
543.877	49404.34
544.077	49029.57
544.277	48935.36
544.478	49115.58
544.678	48878.02
544.878	48847.3
545.078	49134.01
545.279	48648.64
545.479	48837.06
545.679	48519.62
545.879	48767.43
546.079	49035.71
546.28	48390.6
546.48	48251.34
546.68	48980.42
546.88	49246.65
547.08	48849.35
547.28	48413.13
547.48	48398.79
547.68	48634.31
547.88	48241.1
548.081	48804.29
548.281	48898.5
548.481	48329.16
548.681	49015.23
548.881	48984.51
549.081	48253.39
549.28	48585.16
549.48	48824.77
549.68	48544.2
549.88	48646.6
550.08	48509.38
550.28	48574.92
550.48	48153.04
550.68	48388.55
550.88	48013.77
551.08	48392.65
551.279	48515.53
551.479	47798.74
551.679	48099.79
551.879	48241.1
552.079	48658.88
552.278	48060.88
552.478	48249.29
552.678	48359.88
552.878	48470.47
553.077	48413.13
553.277	47555.03
553.477	48859.59
553.676	47938
553.876	48245.19
554.076	47516.12
554.275	47929.81
554.475	47725.01
554.674	48194
554.874	48071.12
555.074	47587.8
555.273	48232.91
555.473	48218.57
555.672	47862.22
555.872	47591.89
556.071	48079.31
556.271	48259.53
556.47	47913.42
556.67	47045.08
556.869	47698.39
557.068	47841.74
557.268	47417.82
557.467	47462.87
557.667	47575.51
557.866	47557.08
558.065	47354.33
558.265	47360.47
558.464	47229.4
558.663	47743.44
558.863	46893.54
559.062	47897.04
559.261	46852.58
559.461	47505.88
559.66	46694.88
559.859	46823.9
560.058	46692.83
560.258	47016.41
560.457	46600.68
560.656	46905.82
560.855	46291.43
561.054	47014.37
561.253	46256.62
561.453	46631.4
561.652	46408.17
561.851	46526.95
562.05	46438.89
562.249	45793.78
562.448	47120.86
562.647	46637.54
562.846	46522.85
563.045	46057.96
563.244	45511.16
563.443	46735.84
563.642	45515.25
563.841	45988.33
564.04	45631.99
564.239	46369.26
564.438	45505.01
564.637	45744.62
564.836	45879.79
565.035	45429.24
565.234	45890.03
565.432	45441.53
565.631	45093.37
565.83	45486.58
566.029	44966.4
566.228	45189.63
566.427	45525.49
566.625	45550.07
566.824	44472.84
567.023	45044.22
567.222	44315.14
567.42	45183.48
567.619	44800.51
567.818	44911.1
568.016	44671.49
568.215	44784.13
568.414	44040.71
568.612	44591.62
568.811	44622.34
569.01	44519.94
569.208	43760.14
569.407	44593.67
569.605	43694.61
569.804	44710.4
570.002	43477.52
570.201	44233.22
570.4	43455
570.598	43436.56
570.797	43295.25
570.995	43661.84
571.193	43121.18
571.392	43592.21
571.59	43307.54
571.789	43344.41
571.987	43100.7
572.186	43201.05
572.384	42635.81
572.582	42873.37
572.781	43252.25
572.979	42385.96
573.177	42596.9
573.376	42611.23
573.574	42318.37
573.772	42971.67
573.971	42402.34
574.169	42242.6
574.367	41564.72
574.565	42402.34
574.763	42142.25
574.962	42082.86
575.16	41495.09
575.358	41781.81
575.556	41517.62
575.754	41892.4
575.952	40952.38
576.151	41753.13
576.349	41110.07
576.547	41220.66
576.745	41128.5
576.943	41368.12
577.141	40952.38
577.339	41101.88
577.537	40763.96
577.735	40645.18
577.933	40303.17
578.131	40782.4
578.329	40274.5
578.527	40344.13
578.725	40086.09
578.923	40608.32
579.121	40329.8
579.319	39723.6
579.516	40710.72
579.714	39985.74
579.912	39690.83
580.11	39709.26
580.308	39477.84
580.506	39531.09
580.704	39041.62
580.901	39463.5
581.099	39662.16
581.297	39156.31
581.495	39225.94
581.692	39232.08
581.89	38593.12
582.088	39256.66
582.285	38783.58
582.483	38797.91
582.681	38386.27
582.878	38777.43
583.076	38285.92
583.274	38638.17
583.471	38089.32
583.669	38496.86
583.866	38099.56
584.064	38132.32
584.262	37718.64
584.459	37950.06
584.657	37888.62
584.854	38085.22
585.052	36846.2
585.249	37505.65
585.447	37855.85
585.644	37247.6
585.841	37141.11
586.039	37384.82
586.236	36932.22
586.434	36973.17
586.631	36860.54
586.828	36919.93
587.026	37001.85
587.223	36659.84
587.42	36465.28
587.618	36143.75
587.815	35932.81
588.012	35902.09
588.21	35889.8
588.407	36170.37
588.604	35844.74
588.801	35627.66
588.999	35676.81
589.196	35437.2
589.393	35801.74
589.59	35826.31
589.787	35447.44
589.984	35142.29
590.182	34943.64
590.379	35340.94
590.576	34701.98
590.773	34865.81
590.97	34927.25
591.167	34806.42
591.364	34290.34
591.561	34552.48
591.758	34210.46
591.955	34491.04
592.152	34663.07
592.349	34187.94
592.546	34220.7
592.743	34097.83
592.94	33563.31
593.137	33870.5
593.334	33671.85
593.531	33434.28
593.727	33647.27
593.924	33794.73
594.121	33317.55
594.318	33544.87
594.515	33026.74
594.712	33395.37
594.908	32916.15
595.105	33077.94
595.302	32885.43
595.499	32684.73
595.696	32512.7
595.892	32666.3
596.089	32625.34
596.286	32625.34
596.482	32662.2
596.679	32361.15
596.876	32664.25
597.072	32252.61
597.269	31924.93
597.466	31822.53
597.662	31730.37
597.859	31738.57
598.055	31828.68
598.252	31697.61
598.448	31673.03
598.645	31320.78
598.841	31257.29
599.038	31146.7
599.234	31386.32
599.431	30997.2
599.627	30927.57
599.824	31064.78
600.02	30434.01
600.217	30735.06
600.413	30468.83
600.609	30579.42
600.806	30253.79
601.002	30329.56
601.198	30493.4
601.395	30094.05
601.591	30206.69
601.787	30259.93
601.984	29946.59
602.18	30399.19
602.376	29729.51
602.572	29735.65
602.769	29680.36
602.965	29672.17
603.161	29313.77
603.357	29065.97
603.553	29469.42
603.75	29453.03
603.946	29108.97
604.142	29328.11
604.338	28863.22
604.534	29031.15
604.73	28889.84
604.926	28474.1
605.122	28867.31
605.318	28685.04
605.514	28398.33
605.71	28297.98
605.906	28093.18
606.102	28052.22
606.298	27968.26
606.494	28453.62
606.69	28293.88
606.886	28046.08
607.082	27554.57
607.278	27937.54
607.474	27929.34
607.67	27865.86
607.866	27554.57
608.062	27507.46
608.257	27378.44
608.453	27550.47
608.649	27570.95
608.845	27136.78
609.041	27403.02
609.236	27351.82
609.432	27306.76
609.628	27331.34
609.824	27224.84
610.019	26989.33
610.215	26909.46
610.411	27212.56
610.606	26796.82
610.802	27235.08
610.998	26741.52
611.193	26856.21
611.389	26565.4
611.584	26628.88
611.78	26313.5
611.976	26716.95
612.171	26686.23
612.367	26395.42
612.562	26323.74
612.758	26159.9
612.953	25742.11
613.149	26192.67
613.344	25803.55
613.539	26178.33
613.735	26100.51
613.93	26276.63
614.126	25766.69
614.321	26102.56
614.517	25727.78
614.712	26096.41
614.907	25688.87
615.103	26139.42
615.298	25654.05
615.493	26008.35
615.688	25453.35
615.884	25738.02
616.079	25561.89
616.274	25641.76
616.47	25457.45
616.665	25508.65
616.86	25074.48
617.055	25234.22
617.25	25314.09
617.445	25451.3
617.641	24761.14
617.836	25160.49
618.031	24943.41
618.226	24924.97
618.421	24689.46
618.616	25019.18
618.811	24535.86
619.006	24757.04
619.201	24476.47
619.396	24460.09
619.591	24224.57
619.786	24283.96
619.981	24261.43
620.176	24212.28
620.371	23755.58
620.566	23913.28
620.761	23630.66
620.956	23898.94
621.151	23577.41
621.346	23532.36
621.541	22950.73
621.735	23259.98
621.93	22977.36
622.125	23143.24
622.32	22707.02
622.515	22881.1
622.709	22430.55
622.904	22498.13
623.099	22584.15
623.294	22733.65
623.488	22045.53
623.683	22135.64
623.878	21877.6
624.072	22063.96
624.267	21859.17
624.462	22143.83
624.656	21474.15
624.851	21648.22
625.046	21236.58
625.24	20937.58
625.435	20972.39
625.629	20841.32
625.824	20960.11
626.018	20720.49
626.213	20628.34
626.407	20378.48
626.602	20487.03
626.796	20358
626.991	20413.3
627.185	20151.16
627.38	20067.19
627.574	19932.03
627.768	19948.41
627.963	19426.18
628.157	19360.64
628.352	19989.37
628.546	18942.86
628.74	19311.49
628.935	19229.57
629.129	19112.84
629.323	19069.83
629.517	18998.15
629.712	18828.17
629.906	18883.47
630.1	18381.71
630.294	18502.54
630.489	18162.58
630.683	18326.42
630.877	18129.81
631.071	18119.57
631.265	18277.27
631.459	18068.37
631.653	17990.55
631.848	17826.71
632.042	17664.93
632.236	17748.89
632.43	17707.93
632.624	17587.1
632.818	17333.15
633.012	17236.9
633.206	17232.8
633.4	16952.23
633.594	16919.46
633.788	17032.1
633.982	16995.24
634.176	16913.32
634.369	16843.69
634.563	16741.29
634.757	16784.3
634.951	16618.41
635.145	16425.9
635.339	16323.51
635.533	16208.82
635.726	16268.21
635.92	15942.58
636.114	15934.39
636.308	15795.13
636.501	15881.14
636.695	15803.32
636.889	15518.65
637.083	15709.11
637.276	15504.32
637.47	15395.78
637.664	15315.9
637.857	15184.83
638.051	15174.6
638.244	15152.07
638.438	15037.38
638.632	15004.61
638.825	14853.06
639.019	14777.29
639.212	14615.5
639.406	14635.98
639.599	14582.73
639.793	14640.08
639.986	14513.1
640.18	14175.19
640.373	14312.4
640.567	14103.51
640.76	14218.19
640.954	13902.81
641.147	13945.81
641.34	13990.87
641.534	13730.78
641.727	13884.37
641.92	13511.64
642.114	13587.42
642.307	13626.33
642.5	13507.55
642.694	13388.77
642.887	13024.23
643.08	13464.54
643.273	13011.94
643.467	13304.8
643.66	13106.15
643.853	12891.11
644.046	12921.83
644.239	12868.58
644.432	12917.73
644.626	12856.29
644.819	12504.04
645.012	12733.42
645.205	12477.42
645.398	12360.69
645.591	12364.78
645.784	12266.48
645.977	12362.73
646.17	12446.7
646.363	12020.72
646.556	12129.27
646.749	11916.28
646.942	12092.4
647.135	11987.96
647.328	11914.23
647.521	11791.35
647.714	11465.72
647.907	11404.28
648.099	11549.69
648.292	11586.55
648.485	11592.7
648.678	11242.5
648.871	11547.64
649.064	11256.83
649.256	11387.9
649.449	11301.89
649.642	11166.72
649.835	10875.91
650.027	11226.11
650.22	10806.28
650.413	10912.77
650.605	10773.51
650.798	10822.66
650.991	10640.39
651.183	10908.68
651.376	10703.88
651.568	10380.3
651.761	10527.75
651.954	10509.32
652.146	10628.1
652.339	10177.55
652.531	10316.81
652.724	10183.7
652.916	9982.99
653.109	10107.92
653.301	10011.67
653.494	10075.15
653.686	9980.95
653.879	10009.62
654.071	9704.47
654.263	9767.96
654.456	9829.4
654.648	9999.38
654.84	9702.42
655.033	9729.05
655.225	9704.47
655.417	9675.8
655.61	9561.11
655.802	9538.59
655.994	9260.06
656.186	9378.84
656.379	9268.25
656.571	9471
656.763	9200.67
656.955	9094.18
657.148	9178.14
657.34	9278.49
657.532	9079.84
657.724	9045.02
657.916	8860.71
658.108	9014.31
658.3	8819.75
658.492	8905.76
658.684	8821.8
658.876	8899.62
659.068	8703.01
659.26	8496.17
659.452	8430.63
659.644	8596.52
659.836	8432.68
660.028	8528.94
660.22	8367.15
660.412	8469.55
660.604	8293.42
660.796	8193.07
660.988	8287.28
661.18	8217.65
661.372	8221.74
661.563	8236.08
661.755	7978.03
661.947	7980.08
662.139	8006.7
662.331	7994.42
662.522	7750.71
662.714	7916.59
662.906	7824.44
663.097	7744.56
663.289	7646.26
663.481	7808.05
663.673	7615.54
663.864	7502.9
664.056	7455.8
664.247	7685.17
664.439	7294.01
664.631	7529.53
664.822	7507
665.014	7560.25
665.205	7394.36
665.397	7392.31
665.588	7384.12
665.78	7296.06
665.971	7326.78
666.163	7294.01
666.354	7087.17
666.546	6992.96
666.737	6947.9
666.929	7009.34
667.12	7097.41
667.311	6970.43
667.503	6949.95
667.694	6931.52
667.885	6845.51
668.077	6816.83
668.268	6845.51
668.459	6808.64
668.651	6800.45
668.842	6784.07
669.033	6614.09
669.224	6534.21
669.416	6761.54
669.607	6523.98
669.798	6423.62
669.989	6558.79
670.18	6423.62
670.371	6464.58
670.563	6468.68
670.754	6476.87
670.945	6276.17
671.136	6505.54
671.327	6288.46
671.518	6327.37
671.709	6224.97
671.9	6407.24
672.091	6310.99
672.282	6120.53
672.473	6075.47
672.664	6151.24
672.855	6014.03
673.046	6118.48
673.237	6104.14
673.428	6089.81
673.619	6069.33
673.809	5925.97
674	5872.72
674.191	6048.85
674.382	5850.19
674.573	5848.15
674.764	5938.26
674.954	6100.05
675.145	5870.67
675.336	5739.6
675.527	5833.81
675.717	5891.15
675.908	5665.88
676.099	5532.76
676.289	5805.14
676.48	5583.96
676.671	5594.2
676.861	5743.7
677.052	5682.26
677.243	5647.44
677.433	5538.9
677.624	5571.67
677.814	5694.55
678.005	5522.52
678.195	5399.64
678.386	5327.96
678.576	5317.72
678.767	5669.97
678.957	5465.18
679.148	5289.05
679.338	5194.84
679.529	5352.54
679.719	5301.34
679.909	5360.73
680.1	5282.91
680.29	5280.86
680.481	5196.89
680.671	5219.42
680.861	5137.5
681.052	5260.38
681.242	5080.16
681.432	5252.19
681.622	5213.28
681.813	4856.93
682.003	5133.4
682.193	5123.16
682.383	5080.16
682.573	5031.01
682.764	5063.77
682.954	5100.64
683.144	4914.27
683.334	4949.09
683.524	5022.81
683.714	4893.79
683.904	4836.45
684.094	5024.86
684.284	4957.28
684.474	4916.32
684.664	4848.74
684.854	4869.22
685.044	4924.51
685.234	4820.07
685.424	4760.67
685.614	4699.23
685.804	4719.71
685.994	4719.71
686.184	4811.87
686.374	4867.17
686.564	4684.9
686.753	4691.04
686.943	4547.69
687.133	4736.1
687.323	4580.45
687.513	4496.49
687.702	4502.63
687.892	4562.02
688.082	4449.38
688.272	4596.84
688.461	4549.73
688.651	4490.34
688.841	4514.92
689.03	4457.57
689.22	4463.72
689.41	4445.29
689.599	4338.79
689.789	4203.63
689.979	4389.99
690.168	4457.57
690.358	4211.82
690.547	4326.5
690.737	4297.83
690.926	4363.37
691.116	4236.39
691.305	4265.07
691.495	4000.88
691.684	4105.32
691.874	4172.91
692.063	4113.52
692.252	4047.98
692.442	4121.71
692.631	3974.25
692.82	4066.41
693.01	3941.49
693.199	3955.82
693.388	3994.73
693.578	3998.83
693.767	3941.49
693.956	3959.92
694.146	3927.15
694.335	3966.06
694.524	3851.38
694.713	3896.43
694.902	3816.56
695.092	3779.7
695.281	3701.87
695.47	3777.65
695.659	3818.61
695.848	3761.27
696.037	3632.24
696.226	3902.58
696.415	3753.07
696.604	3761.27
696.793	3640.44
696.982	3744.88
697.171	3726.45
697.36	3785.84
697.549	3710.07
697.738	3636.34
697.927	3507.32
698.116	3695.73
698.305	3654.77
698.494	3472.5
698.683	3527.8
698.872	3675.25
699.061	3548.28
699.25	3531.89
699.438	3703.92
699.627	3507.32
699.816	3605.62
700.005	3368.06
700.193	3617.91
700.382	3511.41
700.571	3523.7
700.76	3464.31
700.948	3535.99
701.137	3490.93
701.326	3474.55
701.514	3376.25
701.703	3421.3
701.892	3409.01
702.08	3648.63
702.269	3396.73
702.457	3318.9
702.646	3343.48
702.834	3374.2
703.023	3378.3
703.212	3478.65
703.4	3411.06
703.589	3337.34
703.777	3173.5
703.965	3337.34
704.154	3404.92
704.342	3312.76
704.531	3472.5
704.719	3382.39
704.907	3216.51
705.096	3327.1
705.284	3218.55
705.472	3261.56
705.661	3308.66
705.849	3279.99
706.037	3279.99
706.226	3146.87
706.414	3241.08
706.602	3171.45
706.79	3144.83
706.979	3077.24
707.167	3298.42
707.355	3187.83
707.543	3230.84
707.731	3247.23
707.919	3189.88
708.107	3204.22
708.296	3230.84
708.484	3034.24
708.672	3032.19
708.86	3208.31
709.048	3196.03
709.236	3060.86
709.424	3134.59
709.612	3030.14
709.8	3019.9
709.988	3091.58
710.176	3167.35
710.364	3038.33
710.551	2987.13
710.739	2933.89
710.927	3064.96
711.115	2966.65
711.303	3050.62
711.491	2821.25
711.679	2872.45
711.866	3097.72
712.054	3204.22
712.242	2894.97
712.43	3021.95
712.617	3073.15
712.805	3110.01
712.993	3009.66
713.181	2999.42
713.368	2909.31
713.556	2974.85
713.744	2964.61
713.931	3026.04
714.119	2927.74
714.306	2958.46
714.494	2974.85
714.682	2847.87
714.869	2876.54
715.057	3032.19
715.244	2946.17
715.432	2868.35
715.619	2866.3
715.807	3026.04
715.994	2923.65
716.182	3007.61
716.369	2870.4
716.556	2946.17
716.744	2835.58
716.931	2845.82
717.119	2706.56
717.306	2894.97
717.493	2782.34
717.681	2876.54
717.868	2911.36
718.055	2753.66
718.242	2876.54
718.43	2888.83
718.617	2720.9
718.804	2823.3
718.991	2722.95
719.179	2778.24
719.366	2745.47
719.553	2759.81
719.74	2905.21
719.927	2704.51
720.114	2761.86
720.301	2817.15
720.488	2598.02
720.676	2614.4
720.863	2790.53
721.05	2829.44
721.237	2737.28
721.424	2835.58
721.611	2598.02
721.798	2643.07
721.985	2581.64
722.172	2741.38
722.358	2722.95
722.545	2548.87
722.732	2579.59
722.919	2831.49
723.106	2821.25
723.293	2636.93
723.48	2638.98
723.667	2729.09
723.853	2610.31
724.04	2632.83
724.227	2630.79
724.414	2790.53
724.6	2540.68
724.787	2700.42
724.974	2690.18
725.161	2509.96
725.347	2614.4
725.534	2569.35
725.72	2641.03
725.907	2614.4
726.094	2747.52
726.28	2526.34
726.467	2561.16
726.653	2434.18
726.84	2561.16
727.027	2681.99
727.213	2653.31
727.4	2684.03
727.586	2567.3
727.773	2550.92
727.959	2577.54
728.145	2491.52
728.332	2567.3
728.518	2524.29
728.705	2569.35
728.891	2526.34
729.077	2544.77
729.264	2591.88
729.45	2485.38
729.636	2452.61
729.823	2460.81
730.009	2536.58
730.195	2561.16
730.382	2595.97
730.568	2432.13
730.754	2534.53
730.94	2454.66
731.126	2415.75
731.313	2471.04
731.499	2479.24
731.685	2364.55
731.871	2512
732.057	2581.64
732.243	2452.61
732.429	2473.09
732.615	2419.85
732.801	2491.52
732.987	2499.72
733.173	2428.04
733.359	2514.05
733.545	2382.98
733.731	2364.55
733.917	2374.79
734.103	2337.93
734.289	2466.95
734.475	2389.13
734.661	2509.96
734.847	2450.57
735.033	2417.8
735.219	2428.04
735.404	2358.41
735.59	2385.03
735.776	2395.27
735.962	2301.06
736.148	2507.91
736.333	2368.65
736.519	2430.09
736.705	2434.18
736.89	2356.36
737.076	2385.03
737.262	2327.69
737.447	2294.92
737.633	2290.82
737.819	2303.11
738.004	2237.58
738.19	2292.87
738.375	2274.44
738.561	2288.78
738.747	2237.58
738.932	2163.85
739.118	2335.88
739.303	2319.5
739.489	2284.68
739.674	2305.16
739.859	2313.35
740.045	2233.48
740.23	2243.72
740.416	2131.08
740.601	2292.87
740.786	2172.04
740.972	2174.09
741.157	2227.34
741.342	2223.24
741.528	2174.09
741.713	2188.43
741.898	2075.79
742.084	2213
742.269	2151.56
742.454	2159.75
742.639	2131.08
742.824	2157.71
743.01	2122.89
743.195	2122.89
743.38	2079.88
743.565	2071.69
743.75	2165.9
743.935	2061.45
744.12	2000.01
744.305	1977.48
744.49	2030.73
744.675	2047.12
744.86	2045.07
745.045	1926.29
745.23	1897.61
745.415	1979.53
745.6	1952.91
745.785	1942.67
745.97	1973.39
746.155	2016.4
746.34	1967.24
746.525	1885.33
746.71	1840.27
746.895	1875.09
747.079	1879.18
747.264	1854.61
747.449	1803.41
747.634	1782.93
747.819	1868.94
748.003	1782.93
748.188	1784.98
748.373	1823.89
748.557	1799.31
748.742	1852.56
748.927	1815.69
749.111	1830.03
749.296	1721.49
749.481	1658
749.665	1789.07
749.85	1789.07
750.034	1711.25
750.219	1778.83
750.404	1647.76
750.588	1701.01
750.773	1701.01
750.957	1641.62
751.141	1662.1
751.326	1637.52
751.51	1561.75
751.695	1567.89
751.879	1608.85
752.064	1713.3
752.248	1649.81
752.432	1571.99
752.617	1701.01
752.801	1586.32
752.985	1514.64
753.17	1504.4
753.354	1524.88
753.538	1477.78
753.722	1473.68
753.907	1488.02
754.091	1416.34
754.275	1369.24
754.459	1426.58
754.643	1356.95
754.828	1426.58
755.012	1340.57
755.196	1393.81
755.38	1426.58
755.564	1340.57
755.748	1391.77
755.932	1369.24
756.116	1359
756.3	1359
756.484	1299.61
756.668	1295.51
756.852	1404.05
757.036	1252.5
757.22	1379.48
757.404	1281.18
757.588	1258.65
757.772	1258.65
757.956	1160.34
758.14	1275.03
758.323	1211.54
758.507	1193.11
758.691	1209.5
758.875	1203.35
759.059	1293.46
759.242	1184.92
759.426	1166.49
759.61	1133.72
759.794	1189.02
759.977	1105.05
760.161	1219.74
760.345	1301.65
760.528	1213.59
760.712	1100.95
760.895	1074.33
761.079	1203.35
761.263	1131.67
761.446	1094.81
761.63	1141.91
761.813	1039.51
761.997	1057.95
762.18	1098.91
762.364	1059.99
762.547	1109.15
762.731	1035.42
762.914	992.41
763.098	1033.37
763.281	1014.94
763.464	1021.08
763.648	939.16
763.831	1086.62
764.015	959.64
764.198	1031.32
764.381	1012.89
764.564	1057.95
764.748	998.56
764.931	1025.18
765.114	1027.23
765.297	1025.18
765.481	1029.27
765.664	951.45
765.847	982.17
766.03	1051.8
766.213	947.36
766.397	1033.37
766.58	955.55
766.763	967.84
766.946	847.01
767.129	916.64
767.312	935.07
767.495	873.63
767.678	937.12
767.861	937.12
768.044	883.87
768.227	918.68
768.41	873.63
768.593	976.03
768.776	896.16
768.959	873.63
769.142	1039.51
769.324	910.49
769.507	877.73
769.69	857.25
769.873	892.06
770.056	943.26
770.239	887.97
770.421	894.11
770.604	869.53
770.787	877.73
770.97	849.05
771.152	783.52
771.335	947.36
771.518	820.38
771.7	824.48
771.883	890.01
772.066	836.77
772.248	935.07
772.431	816.29
772.613	861.34
772.796	789.66
772.978	824.48
773.161	771.23
773.343	683.17
773.526	791.71
773.708	783.52
773.891	715.94
774.073	689.31
774.256	816.29
774.438	824.48
774.621	658.59
774.803	781.47
774.985	699.55
775.168	677.02
775.35	711.84
775.532	754.85
775.715	763.04
775.897	763.04
776.079	724.13
776.261	728.22
776.444	674.98
776.626	701.6
776.808	674.98
776.99	697.5
777.173	670.88
777.355	689.31
777.537	711.84
777.719	656.54
777.901	640.16
778.083	638.11
778.265	615.59
778.447	699.55
778.629	636.06
778.811	611.49
778.993	550.05
779.175	636.06
779.357	672.93
779.539	713.89
779.721	545.95
779.903	685.22
780.085	558.24
780.267	509.09
780.449	533.67
780.631	556.19
780.812	668.83
780.994	572.58
781.176	619.68
781.358	511.14
781.54	609.44
781.721	492.71
781.903	502.95
782.085	570.53
782.267	556.19
782.448	470.18
782.63	601.25
782.812	523.43
782.993	435.36
783.175	568.48
783.357	423.08
783.538	599.2
783.72	453.8
783.901	507.04
784.083	464.04
784.264	449.7
784.446	490.66
784.627	455.84
784.809	482.47
784.99	523.43
785.172	480.42
785.353	453.8
785.535	449.7
785.716	421.03
785.897	421.03
786.079	443.56
786.26	435.36
786.441	476.32
786.623	339.11
786.804	459.94
786.985	470.18
787.167	396.45
787.348	453.8
787.529	427.17
787.71	459.94
787.891	355.49
788.073	400.55
788.254	320.68
788.435	388.26
788.616	418.98
788.797	382.12
788.978	345.25
789.159	328.87
789.34	451.75
789.522	347.3
789.703	328.87
789.884	451.75
790.065	339.11
790.246	394.4
790.427	392.36
790.607	298.15
790.788	365.73
790.969	371.88
791.15	373.92
791.331	328.87
791.512	378.02
791.693	357.54
791.874	345.25
792.054	373.92
792.235	302.25
792.416	314.53
792.597	345.25
792.778	324.77
792.958	281.77
793.139	296.1
793.32	281.77
793.5	281.77
793.681	337.06
793.862	328.87
794.042	320.68
794.223	246.95
794.404	371.88
794.584	267.43
794.765	345.25
794.945	292.01
795.126	341.16
795.306	355.49
795.487	335.01
795.667	308.39
795.848	281.77
796.028	273.57
796.209	345.25
796.389	238.76
796.57	271.53
796.75	251.05
796.93	169.13
797.111	242.85
797.291	236.71
797.471	226.47
797.652	224.42
797.832	304.29
798.012	193.7
798.192	228.52
798.373	201.9
798.553	312.49
798.733	259.24
798.913	230.57
799.093	273.57
799.274	296.1
799.454	234.66
799.634	230.57
799.814	287.91
799.994	279.72
800.174	292.01
800.354	271.53
800.534	224.42
800.714	167.08
800.894	218.28
801.074	140.46
801.254	269.48
801.434	205.99
801.614	277.67
801.794	185.51
801.974	806.05
802.154	205.99
802.334	273.57
802.514	191.66
802.693	224.42
802.873	220.33
803.053	167.08
803.233	238.76
803.413	197.8
803.592	158.89
803.772	269.48
803.952	199.85
804.131	271.53
804.311	173.22
804.491	226.47
804.67	134.31
804.85	152.74
805.03	240.81
805.209	246.95
805.389	158.89
805.568	187.56
805.748	142.5
805.928	210.09
806.107	205.99
806.287	181.42
806.466	169.13
806.646	144.55
806.825	205.99
807.004	165.03
807.184	220.33
807.363	261.29
807.543	134.31
807.722	173.22
807.901	216.23
808.081	175.27
808.26	156.84
808.439	208.04
808.619	134.31
808.798	191.66
808.977	132.26
809.156	179.37
809.336	140.46
809.515	156.84
809.694	162.98
809.873	214.18
810.052	148.65
810.231	214.18
810.411	99.5
810.59	144.55
810.769	93.35
810.948	205.99
811.127	117.93
811.306	101.55
811.485	175.27
811.664	255.14
811.843	201.9
812.022	111.78
812.201	142.5
812.38	173.22
812.559	99.5
812.737	205.99
812.916	60.59
813.095	87.21
813.274	128.17
813.453	146.6
813.632	165.03
813.811	197.8
813.989	152.74
814.168	226.47
814.347	64.68
814.526	199.85
814.704	165.03
814.883	224.42
815.062	189.61
815.24	181.42
815.419	105.64
815.598	119.98
815.776	136.36
815.955	66.73
816.133	89.26
816.312	187.56
816.49	93.35
816.669	134.31
816.847	38.06
817.026	150.7
817.204	99.5
817.383	107.69
817.561	68.78
817.74	81.07
817.918	66.73
818.097	117.93
818.275	56.49
818.453	101.55
818.632	154.79
818.81	142.5
818.988	115.88
819.167	142.5
819.345	101.55
819.523	85.16
819.701	134.31
819.879	103.59
820.058	91.31
820.236	33.96
820.414	140.46
820.592	83.11
820.77	134.31
820.948	154.79
821.127	142.5
821.305	44.2
821.483	38.06
821.661	85.16
821.839	87.21
822.017	66.73
822.195	115.88
822.373	60.59
822.551	140.46
822.729	181.42
822.907	79.02
823.085	91.31
823.262	44.2
823.44	140.46
823.618	19.63
823.796	60.59
823.974	74.92
824.152	162.98
824.329	21.67
824.507	136.36
824.685	95.4
824.863	91.31
825.04	103.59
825.218	83.11
825.396	107.69
825.574	111.78
825.751	54.44
825.929	60.59
826.107	19.63
826.284	109.74
826.462	124.07
826.639	64.68
826.817	-13.14
826.994	91.31
827.172	46.25
827.349	109.74
827.527	60.59
827.704	79.02
827.882	93.35
828.059	132.26
828.237	9.39
828.414	70.83
828.591	60.59
828.769	117.93
828.946	40.11
829.124	19.63
829.301	126.12
829.478	105.64
829.655	31.91
829.833	93.35
830.01	95.4
830.187	132.26
830.364	138.41
830.542	119.98
830.719	52.39
830.896	214.18
831.073	13.48
831.25	99.5
831.427	66.73
831.604	70.83
831.782	99.5
831.959	66.73
832.136	58.54
832.313	64.68
832.49	7.34
832.667	99.5
832.844	50.35
833.021	103.59
833.198	85.16
833.374	81.07
833.551	25.77
833.728	36.01
833.905	42.15
834.082	9.39
834.259	91.31
834.436	115.88
834.612	13.48
834.789	42.15
834.966	29.87
835.143	85.16
835.319	105.64
835.496	87.21
835.673	115.88
835.85	122.02
836.026	136.36
836.203	54.44
836.38	1.19
836.556	76.97
836.733	68.78
836.909	74.92
837.086	21.67
837.262	13.48
837.439	38.06
837.616	58.54
837.792	79.02
837.968	33.96
838.145	31.91
838.321	9.39
838.498	36.01
838.674	85.16
838.851	25.77
839.027	81.07
839.203	-52.05
839.38	64.68
839.556	54.44
839.732	15.53
839.909	-9.05
840.085	115.88
840.261	-103.25
840.437	85.16
840.614	83.11
840.79	21.67
840.966	91.31
841.142	29.87
841.318	31.91
841.494	136.36
841.671	99.5
841.847	111.78
842.023	-2.9
842.199	42.15
842.375	50.35
842.551	9.39
842.727	25.77
842.903	115.88
843.079	7.34
843.255	103.59
843.431	56.49
843.607	9.39
843.783	-58.2
843.959	-21.33
844.134	60.59
844.31	54.44
844.486	87.21
844.662	58.54
844.838	-19.29
845.013	40.11
845.189	70.83
845.365	58.54
845.541	27.82
845.716	9.39
845.892	54.44
846.068	1.19
846.244	17.58
846.419	52.39
846.595	5.29
846.77	-60.24
846.946	60.59
847.122	142.5
847.297	46.25
847.473	46.25
847.648	-23.38
847.824	29.87
847.999	52.39
848.175	21.67
848.35	42.15
848.526	167.08
848.701	17.58
848.876	68.78
849.052	89.26
849.227	-11.09
849.403	29.87
849.578	93.35
849.753	25.77
849.929	42.15
850.104	-19.29
850.279	33.96
850.454	27.82
850.63	-7
850.805	9.39
850.98	3.24
851.155	9.39
851.33	13.48
851.505	-4.95
851.681	115.88
851.856	42.15
852.031	3.24
852.206	62.63
852.381	-7
852.556	-2.9
852.731	36.01
852.906	44.2
853.081	25.77
853.256	140.46
853.431	79.02
853.606	29.87
853.781	42.15
853.956	-15.19
854.131	-7
854.305	25.77
854.48	48.3
854.655	56.49
854.83	-23.38
855.005	42.15
855.18	-7
855.354	-80.72
855.529	-15.19
855.704	11.43
855.879	66.73
856.053	62.63
856.228	79.02
856.403	11.43
856.577	-7
856.752	-54.1
856.926	36.01
857.101	3.24
857.276	-56.15
857.45	-11.09
857.625	27.82
857.799	33.96
857.974	38.06
858.148	-2.9
858.323	13.48
858.497	40.11
858.672	25.77
858.846	27.82
859.02	-31.57
859.195	-35.67
859.369	31.91
859.543	87.21
859.718	-23.38
859.892	27.82
860.066	-2.9
860.241	52.39
860.415	1.19
860.589	-7
860.763	-23.38
860.938	40.11
861.112	-4.95
861.286	9.39
861.46	46.25
861.634	-41.81
861.808	27.82
861.982	-39.76
862.157	-29.52
862.331	-17.24
862.505	1.19
862.679	-19.29
862.853	23.72
863.027	-41.81
863.201	58.54
863.375	-4.95
863.549	-27.48
863.722	-2.9
863.896	29.87
864.07	-31.57
864.244	25.77
864.418	-27.48
864.592	5.29
864.766	-45.91
864.939	36.01
865.113	25.77
865.287	11.43
865.461	-2.9
865.634	36.01
865.808	-21.33
865.982	-37.72
866.156	44.2
866.329	-11.09
866.503	3.24
866.676	38.06
866.85	76.97
867.024	-15.19
867.197	19.63
867.371	-62.29
867.544	56.49
867.718	17.58
867.891	7.34
868.065	-31.57
868.238	-80.72
868.412	91.31
868.585	33.96
868.759	3.24
868.932	-35.67
869.105	-23.38
869.279	-13.14
869.452	-19.29
869.625	-0.85
869.799	36.01
869.972	-37.72
870.145	-64.34
870.319	13.48
870.492	7.34
870.665	-25.43
870.838	25.77
871.011	-31.57
871.185	60.59
871.358	5.29
871.531	-13.14
871.704	52.39
871.877	-39.76
872.05	-31.57
872.223	-39.76
872.396	66.73
872.569	-27.48
872.742	17.58
872.915	7.34
873.088	-39.76
873.261	-17.24
873.434	-7
873.607	25.77
873.78	31.91
873.953	-54.1
874.126	50.35
874.299	-9.05
874.471	-4.95
874.644	52.39
874.817	-7
874.99	36.01
875.163	17.58
875.335	36.01
875.508	-2.9
875.681	-7
875.853	-39.76
876.026	54.44
876.199	-11.09
876.371	33.96
876.544	46.25
876.717	9.39
876.889	-31.57
877.062	74.92
877.234	-129.88
877.407	-47.96
877.579	11.43
877.752	-2.9
877.924	56.49
878.097	-13.14
878.269	-47.96
878.442	-45.91
878.614	-35.67
878.786	3.24
878.959	-54.1
879.131	-23.38
879.303	-39.76
879.476	-21.33
879.648	-56.15
879.82	-13.14
879.993	1.19
880.165	64.68
880.337	-31.57
880.509	66.73
880.681	-13.14
880.854	25.77
881.026	66.73
881.198	13.48
881.37	-7
881.542	-52.05
881.714	50.35
881.886	-7
882.058	-52.05
882.23	1.19
882.402	-56.15
882.574	-0.85
882.746	5.29
882.918	11.43
883.09	27.82
883.262	17.58
883.434	-0.85
883.606	-7
883.778	1.19
883.95	42.15
884.122	42.15
884.293	-0.85
884.465	-23.38
884.637	25.77
884.809	-19.29
884.98	17.58
885.152	27.82
885.324	42.15
885.496	-17.24
885.667	42.15
885.839	-21.33
886.011	17.58
886.182	-45.91
886.354	50.35
886.525	25.77
886.697	-37.72
886.869	-15.19
887.04	-13.14
887.212	-0.85
887.383	36.01
887.555	93.35
887.726	17.58
887.897	-35.67
888.069	9.39
888.24	17.58
888.412	-11.09
888.583	-11.09
888.754	1.19
888.926	-70.48
889.097	-37.72
889.268	-31.57
889.44	11.43
889.611	-31.57
889.782	-37.72
889.953	-52.05
890.125	-37.72
890.296	-88.92
890.467	-45.91
890.638	1.19
890.809	-74.58
890.98	9.39
891.151	9.39
891.323	-11.09
891.494	11.43
891.665	-27.48
891.836	42.15
892.007	-29.52
892.178	50.35
892.349	9.39
892.52	-86.87
892.691	13.48
892.862	1.19
893.032	-37.72
893.203	-23.38
893.374	52.39
893.545	17.58
893.716	3.24
893.887	27.82
894.057	-35.67
894.228	-35.67
894.399	29.87
894.57	-31.57
894.74	-72.53
894.911	-64.34
895.082	-66.39
895.253	52.39
895.423	-39.76
895.594	40.11
895.764	-0.85
895.935	-105.3
896.106	-15.19
896.276	-2.9
896.447	11.43
896.617	-56.15
896.788	-17.24
896.958	-21.33
897.129	44.2
897.299	-43.86
897.47	66.73
897.64	50.35
897.81	-90.96
897.981	-37.72
898.151	-0.85
898.322	-41.81
898.492	7.34
898.662	-76.63
898.832	-25.43
899.003	21.67
899.173	-23.38
899.343	-23.38
899.513	21.67
