Data from USB4F104151__51__14-17-00-002.txt Node

Date: Thu Mar 13 14:17:00 EDT 2025
User: louis
Spectrometer: USB4F10415
Trigger mode: 4
Integration Time (sec): 2.000000E-2
Scans to average: 1
Electric dark correction enabled: true
Nonlinearity correction enabled: false
Boxcar width: 0
XAxis mode: Wavelengths
Number of Pixels in Spectrum: 3648
>>>>>Begin Spectral Data<<<<<
178.204	-64
178.424	-64
178.644	-64
178.864	-33.28
179.084	-135.68
179.304	-12.8
179.524	44.54
179.744	-2.56
179.964	3.58
180.184	30.21
180.404	30.21
180.624	46.59
180.844	-37.38
181.064	-59.9
181.283	38.4
181.503	-51.71
181.723	-29.18
181.943	-20.99
182.163	77.31
182.383	-8.7
182.602	60.93
182.822	5.63
183.042	46.59
183.262	24.06
183.482	46.59
183.701	-23.04
183.921	-53.76
184.141	-59.9
184.361	-12.8
184.58	15.87
184.8	-20.99
185.02	28.16
185.239	69.12
185.459	-2.56
185.679	85.5
185.898	-8.7
186.118	56.83
186.338	11.78
186.557	42.5
186.777	3.58
186.997	73.21
187.216	26.11
187.436	60.93
187.655	38.4
187.875	62.98
188.095	-53.76
188.314	24.06
188.534	77.31
188.753	-20.99
188.973	7.68
189.192	79.36
189.412	11.78
189.631	56.83
189.851	30.21
190.07	-2.56
190.29	-4.61
190.509	69.12
190.729	24.06
190.948	38.4
191.168	126.46
191.387	93.69
191.607	15.87
191.826	83.45
192.045	22.02
192.265	50.69
192.484	11.78
192.704	42.5
192.923	69.12
193.142	81.41
193.362	9.73
193.581	7.68
193.8	95.74
194.02	58.88
194.239	-2.56
194.458	-20.99
194.678	24.06
194.897	93.69
195.116	52.74
195.335	89.6
195.555	-10.75
195.774	7.68
195.993	62.98
196.212	44.54
196.432	-20.99
196.651	36.35
196.87	5.63
197.089	93.69
197.308	-6.66
197.528	134.65
197.747	36.35
197.966	32.26
198.185	87.55
198.404	5.63
198.623	1.54
198.842	28.16
199.062	130.56
199.281	151.04
199.5	87.55
199.719	105.98
199.938	24.06
200.157	1.54
200.376	30.21
200.595	99.84
200.814	118.27
201.033	36.35
201.252	79.36
201.471	67.07
201.69	65.02
201.909	75.26
202.128	97.79
202.347	28.16
202.566	48.64
202.785	-2.56
203.004	28.16
203.223	38.4
203.442	15.87
203.661	32.26
203.879	60.93
204.098	69.12
204.317	56.83
204.536	11.78
204.755	77.31
204.974	52.74
205.193	36.35
205.411	151.04
205.63	38.4
205.849	101.89
206.068	77.31
206.287	58.88
206.505	52.74
206.724	65.02
206.943	-4.61
207.162	3.58
207.381	38.4
207.599	85.5
207.818	124.41
208.037	77.31
208.255	-10.75
208.474	-25.09
208.693	40.45
208.911	17.92
209.13	93.69
209.349	87.55
209.567	26.11
209.786	36.35
210.005	85.5
210.223	36.35
210.442	-4.61
210.661	5.63
210.879	93.69
211.098	22.02
211.316	5.63
211.535	7.68
211.753	22.02
211.972	79.36
212.191	93.69
212.409	46.59
212.628	69.12
212.846	-27.14
213.065	46.59
213.283	58.88
213.502	-25.09
213.72	36.35
213.938	62.98
214.157	77.31
214.375	34.3
214.594	71.17
214.812	36.35
215.031	60.93
215.249	15.87
215.467	30.21
215.686	91.65
215.904	44.54
216.122	36.35
216.341	62.98
216.559	7.68
216.778	83.45
216.996	62.98
217.214	13.82
217.432	11.78
217.651	24.06
217.869	46.59
218.087	62.98
218.306	-14.85
218.524	44.54
218.742	24.06
218.96	34.3
219.179	30.21
219.397	-45.57
219.615	73.21
219.833	28.16
220.051	7.68
220.27	54.78
220.488	3.58
220.706	19.97
220.924	11.78
221.142	11.78
221.36	60.93
221.578	112.13
221.796	28.16
222.015	60.93
222.233	67.07
222.451	101.89
222.669	85.5
222.887	79.36
223.105	54.78
223.323	28.16
223.541	13.82
223.759	81.41
223.977	56.83
224.195	142.85
224.413	89.6
224.631	19.97
224.849	-6.66
225.067	110.08
225.285	-18.94
225.503	9.73
225.721	-12.8
225.939	48.64
226.157	24.06
226.375	60.93
226.592	11.78
226.81	54.78
227.028	24.06
227.246	69.12
227.464	19.97
227.682	54.78
227.9	13.82
228.117	-0.51
228.335	30.21
228.553	-4.61
228.771	73.21
228.989	15.87
229.206	44.54
229.424	44.54
229.642	69.12
229.86	30.21
230.077	126.46
230.295	62.98
230.513	110.08
230.731	46.59
230.948	36.35
231.166	71.17
231.384	11.78
231.601	103.93
231.819	77.31
232.037	17.92
232.254	58.88
232.472	32.26
232.689	48.64
232.907	91.65
233.125	11.78
233.342	73.21
233.56	54.78
233.777	44.54
233.995	105.98
234.213	81.41
234.43	9.73
234.648	52.74
234.865	19.97
235.083	28.16
235.3	22.02
235.518	44.54
235.735	60.93
235.953	60.93
236.17	46.59
236.388	44.54
236.605	24.06
236.822	85.5
237.04	134.65
237.257	62.98
237.475	13.82
237.692	81.41
237.909	52.74
238.127	93.69
238.344	-66.05
238.562	-2.56
238.779	77.31
238.996	-29.18
239.214	-39.42
239.431	110.08
239.648	48.64
239.865	-0.51
240.083	-31.23
240.3	28.16
240.517	-2.56
240.735	44.54
240.952	1.54
241.169	60.93
241.386	13.82
241.603	46.59
241.821	126.46
242.038	60.93
242.255	52.74
242.472	24.06
242.689	89.6
242.907	22.02
243.124	3.58
243.341	-6.66
243.558	30.21
243.775	42.5
243.992	13.82
244.209	89.6
244.426	56.83
244.643	22.02
244.86	15.87
245.078	-2.56
245.295	3.58
245.512	3.58
245.729	71.17
245.946	-29.18
246.163	54.78
246.38	87.55
246.597	-25.09
246.814	32.26
247.031	36.35
247.248	13.82
247.464	28.16
247.681	69.12
247.898	11.78
248.115	85.5
248.332	44.54
248.549	77.31
248.766	28.16
248.983	11.78
249.2	52.74
249.417	19.97
249.633	44.54
249.85	22.02
250.067	22.02
250.284	77.31
250.501	30.21
250.717	60.93
250.934	-20.99
251.151	67.07
251.368	28.16
251.585	67.07
251.801	22.02
252.018	-23.04
252.235	11.78
252.451	48.64
252.668	50.69
252.885	71.17
253.102	17.92
253.318	28.16
253.535	52.74
253.752	71.17
253.968	-20.99
254.185	65.02
254.401	-12.8
254.618	3.58
254.835	50.69
255.051	32.26
255.268	58.88
255.484	13.82
255.701	85.5
255.917	32.26
256.134	-39.42
256.351	71.17
256.567	-45.57
256.784	-8.7
257	13.82
257.217	112.13
257.433	65.02
257.65	97.79
257.866	56.83
258.082	-51.71
258.299	22.02
258.515	19.97
258.732	54.78
258.948	19.97
259.165	60.93
259.381	11.78
259.597	42.5
259.814	85.5
260.03	24.06
260.246	-78.33
260.463	95.74
260.679	95.74
260.895	77.31
261.112	60.93
261.328	19.97
261.544	26.11
261.761	105.98
261.977	54.78
262.193	-4.61
262.409	65.02
262.626	32.26
262.842	56.83
263.058	65.02
263.274	48.64
263.49	38.4
263.707	69.12
263.923	3.58
264.139	85.5
264.355	71.17
264.571	44.54
264.787	85.5
265.004	9.73
265.22	-8.7
265.436	1.54
265.652	11.78
265.868	-8.7
266.084	15.87
266.3	40.45
266.516	48.64
266.732	42.5
266.948	65.02
267.164	52.74
267.38	85.5
267.596	3.58
267.812	120.32
268.028	26.11
268.244	36.35
268.46	24.06
268.676	19.97
268.892	24.06
269.108	-2.56
269.324	-37.38
269.54	11.78
269.756	30.21
269.972	-12.8
270.188	32.26
270.403	-4.61
270.619	5.63
270.835	77.31
271.051	60.93
271.267	28.16
271.483	7.68
271.698	73.21
271.914	62.98
272.13	-10.75
272.346	46.59
272.562	-37.38
272.777	95.74
272.993	46.59
273.209	38.4
273.425	40.45
273.64	38.4
273.856	89.6
274.072	44.54
274.287	-0.51
274.503	7.68
274.719	7.68
274.934	19.97
275.15	-18.94
275.366	13.82
275.581	103.93
275.797	54.78
276.012	-20.99
276.228	44.54
276.444	-16.9
276.659	26.11
276.875	30.21
277.09	24.06
277.306	83.45
277.521	13.82
277.737	17.92
277.952	62.98
278.168	19.97
278.383	97.79
278.599	46.59
278.814	65.02
279.03	46.59
279.245	5.63
279.461	28.16
279.676	73.21
279.892	93.69
280.107	38.4
280.322	44.54
280.538	30.21
280.753	52.74
280.969	91.65
281.184	38.4
281.399	118.27
281.615	40.45
281.83	36.35
282.045	38.4
282.26	85.5
282.476	52.74
282.691	13.82
282.906	-8.7
283.122	60.93
283.337	58.88
283.552	85.5
283.767	5.63
283.983	93.69
284.198	24.06
284.413	19.97
284.628	7.68
284.843	32.26
285.058	26.11
285.274	56.83
285.489	-14.85
285.704	36.35
285.919	54.78
286.134	7.68
286.349	13.82
286.564	-4.61
286.779	69.12
286.995	60.93
287.21	9.73
287.425	-14.85
287.64	79.36
287.855	62.98
288.07	95.74
288.285	69.12
288.5	95.74
288.715	28.16
288.93	7.68
289.145	50.69
289.36	112.13
289.575	91.65
289.79	77.31
290.004	60.93
290.219	103.93
290.434	5.63
290.649	81.41
290.864	-10.75
291.079	13.82
291.294	-8.7
291.509	46.59
291.724	-66.05
291.938	36.35
292.153	103.93
292.368	-37.38
292.583	28.16
292.798	75.26
293.012	69.12
293.227	-0.51
293.442	19.97
293.657	89.6
293.871	44.54
294.086	79.36
294.301	67.07
294.516	38.4
294.73	54.78
294.945	-20.99
295.16	60.93
295.374	108.03
295.589	67.07
295.804	5.63
296.018	26.11
296.233	56.83
296.447	85.5
296.662	3.58
296.877	87.55
297.091	42.5
297.306	-0.51
297.52	-29.18
297.735	46.59
297.949	56.83
298.164	60.93
298.378	-16.9
298.593	56.83
298.807	-25.09
299.022	85.5
299.236	110.08
299.451	-8.7
299.665	7.68
299.88	38.4
300.094	67.07
300.309	81.41
300.523	93.69
300.737	71.17
300.952	7.68
301.166	-0.51
301.381	-33.28
301.595	44.54
301.809	50.69
302.024	-12.8
302.238	22.02
302.452	118.27
302.667	15.87
302.881	-0.51
303.095	73.21
303.309	93.69
303.524	-8.7
303.738	-12.8
303.952	17.92
304.166	-12.8
304.381	-39.42
304.595	1.54
304.809	-8.7
305.023	71.17
305.237	13.82
305.452	91.65
305.666	-12.8
305.88	19.97
306.094	44.54
306.308	67.07
306.522	-0.51
306.736	-0.51
306.95	19.97
307.164	5.63
307.379	44.54
307.593	28.16
307.807	-39.42
308.021	85.5
308.235	77.31
308.449	-8.7
308.663	-6.66
308.877	85.5
309.091	24.06
309.305	52.74
309.519	-35.33
309.733	60.93
309.947	-16.9
310.161	24.06
310.374	112.13
310.588	11.78
310.802	93.69
311.016	85.5
311.23	42.5
311.444	54.78
311.658	58.88
311.872	77.31
312.085	-8.7
312.299	105.98
312.513	128.51
312.727	46.59
312.941	116.22
313.154	54.78
313.368	40.45
313.582	151.04
313.796	60.93
314.009	36.35
314.223	46.59
314.437	30.21
314.651	71.17
314.864	38.4
315.078	81.41
315.292	30.21
315.505	69.12
315.719	52.74
315.933	44.54
316.146	36.35
316.36	-20.99
316.573	151.04
316.787	3.58
317.001	15.87
317.214	-47.62
317.428	95.74
317.641	22.02
317.855	114.17
318.068	15.87
318.282	97.79
318.495	38.4
318.709	128.51
318.922	22.02
319.136	69.12
319.349	52.74
319.563	36.35
319.776	144.89
319.99	-0.51
320.203	77.31
320.417	28.16
320.63	1.54
320.843	128.51
321.057	60.93
321.27	-8.7
321.483	-20.99
321.697	105.98
321.91	54.78
322.124	-0.51
322.337	-35.33
322.55	54.78
322.763	13.82
322.977	30.21
323.19	67.07
323.403	77.31
323.617	99.84
323.83	46.59
324.043	22.02
324.256	46.59
324.469	-35.33
324.683	15.87
324.896	32.26
325.109	48.64
325.322	5.63
325.535	42.5
325.748	38.4
325.962	77.31
326.175	54.78
326.388	71.17
326.601	52.74
326.814	81.41
327.027	-61.95
327.24	142.85
327.453	60.93
327.666	44.54
327.879	87.55
328.092	85.5
328.305	15.87
328.518	28.16
328.731	32.26
328.944	60.93
329.157	19.97
329.37	-2.56
329.583	40.45
329.796	15.87
330.009	52.74
330.222	71.17
330.435	75.26
330.648	87.55
330.861	44.54
331.073	60.93
331.286	89.6
331.499	22.02
331.712	3.58
331.925	-16.9
332.138	38.4
332.35	56.83
332.563	69.12
332.776	105.98
332.989	-43.52
333.202	3.58
333.414	26.11
333.627	32.26
333.84	-10.75
334.053	142.85
334.265	28.16
334.478	40.45
334.691	75.26
334.903	17.92
335.116	38.4
335.329	36.35
335.541	19.97
335.754	101.89
335.966	13.82
336.179	105.98
336.392	58.88
336.604	52.74
336.817	36.35
337.029	91.65
337.242	19.97
337.454	46.59
337.667	101.89
337.88	-6.66
338.092	60.93
338.305	62.98
338.517	15.87
338.729	13.82
338.942	36.35
339.154	-33.28
339.367	77.31
339.579	34.3
339.792	36.35
340.004	-23.04
340.217	71.17
340.429	3.58
340.641	-10.75
340.854	30.21
341.066	50.69
341.278	69.12
341.491	48.64
341.703	95.74
341.915	-6.66
342.128	91.65
342.34	36.35
342.552	30.21
342.764	13.82
342.977	36.35
343.189	38.4
343.401	24.06
343.613	56.83
343.826	54.78
344.038	22.02
344.25	97.79
344.462	22.02
344.674	44.54
344.886	26.11
345.099	83.45
345.311	19.97
345.523	48.64
345.735	-51.71
345.947	93.69
346.159	52.74
346.371	89.6
346.583	-18.94
346.795	110.08
347.007	48.64
347.219	71.17
347.431	28.16
347.643	69.12
347.855	67.07
348.067	81.41
348.279	26.11
348.491	85.5
348.703	60.93
348.915	44.54
349.127	-10.75
349.339	32.26
349.551	13.82
349.763	38.4
349.975	-2.56
350.187	73.21
350.399	54.78
350.61	87.55
350.822	19.97
351.034	-2.56
351.246	36.35
351.458	34.3
351.669	134.65
351.881	93.69
352.093	110.08
352.305	52.74
352.517	22.02
352.728	103.93
352.94	26.11
353.152	103.93
353.363	60.93
353.575	89.6
353.787	22.02
353.999	24.06
354.21	48.64
354.422	44.54
354.633	56.83
354.845	17.92
355.057	11.78
355.268	71.17
355.48	19.97
355.692	-4.61
355.903	62.98
356.115	19.97
356.326	-25.09
356.538	60.93
356.749	103.93
356.961	38.4
357.172	42.5
357.384	19.97
357.595	3.58
357.807	44.54
358.018	11.78
358.23	69.12
358.441	118.27
358.653	83.45
358.864	19.97
359.075	3.58
359.287	46.59
359.498	93.69
359.709	-16.9
359.921	122.37
360.132	22.02
360.344	15.87
360.555	-12.8
360.766	81.41
360.977	65.02
361.189	56.83
361.4	69.12
361.611	77.31
361.823	134.65
362.034	136.7
362.245	52.74
362.456	101.89
362.667	11.78
362.879	89.6
363.09	105.98
363.301	30.21
363.512	81.41
363.723	15.87
363.935	-0.51
364.146	24.06
364.357	71.17
364.568	36.35
364.779	-18.94
364.99	44.54
365.201	13.82
365.412	93.69
365.623	36.35
365.834	52.74
366.045	-39.42
366.256	60.93
366.467	7.68
366.678	11.78
366.889	38.4
367.1	11.78
367.311	-2.56
367.522	62.98
367.733	56.83
367.944	50.69
368.155	44.54
368.366	138.75
368.577	101.89
368.788	130.56
368.999	46.59
369.209	48.64
369.42	103.93
369.631	77.31
369.842	83.45
370.053	19.97
370.264	159.23
370.474	-25.09
370.685	114.17
370.896	122.37
371.107	52.74
371.317	69.12
371.528	22.02
371.739	73.21
371.95	54.78
372.16	56.83
372.371	3.58
372.582	126.46
372.792	97.79
373.003	52.74
373.214	95.74
373.424	19.97
373.635	65.02
373.846	93.69
374.056	5.63
374.267	52.74
374.477	9.73
374.688	40.45
374.898	17.92
375.109	5.63
375.319	-14.85
375.53	38.4
375.74	13.82
375.951	44.54
376.161	36.35
376.372	103.93
376.582	13.82
376.793	50.69
377.003	-25.09
377.214	40.45
377.424	105.98
377.635	52.74
377.845	7.68
378.055	69.12
378.266	91.65
378.476	26.11
378.686	75.26
378.897	79.36
379.107	87.55
379.317	1.54
379.528	30.21
379.738	58.88
379.948	101.89
380.158	71.17
380.369	83.45
380.579	52.74
380.789	13.82
380.999	105.98
381.21	128.51
381.42	151.04
381.63	40.45
381.84	54.78
382.05	36.35
382.261	85.5
382.471	-12.8
382.681	44.54
382.891	95.74
383.101	71.17
383.311	65.02
383.521	24.06
383.731	69.12
383.941	77.31
384.151	38.4
384.361	42.5
384.571	110.08
384.781	30.21
384.991	105.98
385.201	91.65
385.411	58.88
385.621	89.6
385.831	87.55
386.041	52.74
386.251	26.11
386.461	32.26
386.671	13.82
386.881	101.89
387.091	112.13
387.301	26.11
387.511	56.83
387.72	77.31
387.93	40.45
388.14	54.78
388.35	7.68
388.56	89.6
388.769	77.31
388.979	52.74
389.189	36.35
389.399	77.31
389.609	89.6
389.818	155.13
390.028	97.79
390.238	22.02
390.447	26.11
390.657	22.02
390.867	5.63
391.076	11.78
391.286	65.02
391.496	56.83
391.705	48.64
391.915	122.37
392.125	169.47
392.334	89.6
392.544	93.69
392.753	24.06
392.963	65.02
393.172	38.4
393.382	19.97
393.591	130.56
393.801	52.74
394.01	126.46
394.22	73.21
394.429	126.46
394.639	140.8
394.848	52.74
395.058	110.08
395.267	87.55
395.477	87.55
395.686	151.04
395.895	200.19
396.105	95.74
396.314	91.65
396.524	110.08
396.733	89.6
396.942	-4.61
397.152	138.75
397.361	153.09
397.57	60.93
397.78	144.89
397.989	138.75
398.198	169.47
398.407	79.36
398.617	52.74
398.826	85.5
399.035	85.5
399.244	179.71
399.453	101.89
399.663	97.79
399.872	93.69
400.081	130.56
400.29	132.61
400.499	101.89
400.708	161.28
400.917	159.23
401.127	142.85
401.336	85.5
401.545	194.05
401.754	165.37
401.963	165.37
402.172	93.69
402.381	103.93
402.59	99.84
402.799	134.65
403.008	130.56
403.217	79.36
403.426	91.65
403.635	105.98
403.844	114.17
404.053	110.08
404.262	89.6
404.471	220.67
404.68	122.37
404.888	181.76
405.097	155.13
405.306	118.27
405.515	155.13
405.724	110.08
405.933	110.08
406.142	173.57
406.35	155.13
406.559	249.34
406.768	153.09
406.977	202.24
407.185	183.81
407.394	206.33
407.603	200.19
407.812	208.38
408.02	306.68
408.229	200.19
408.438	265.72
408.646	194.05
408.855	237.05
409.064	290.3
409.272	278.01
409.481	249.34
409.69	314.88
409.898	308.73
410.107	316.92
410.315	392.7
410.524	327.16
410.733	308.73
410.941	386.55
411.15	361.98
411.358	398.84
411.567	351.74
411.775	384.51
411.984	388.6
412.192	357.88
412.401	374.27
412.609	466.42
412.818	517.62
413.026	523.77
413.234	556.54
413.443	497.14
413.651	472.57
413.86	429.56
414.068	605.69
414.276	554.49
414.485	554.49
414.693	611.83
414.901	579.06
415.11	755.19
415.318	734.71
415.526	636.41
415.734	724.47
415.943	706.04
416.151	798.2
416.359	808.44
416.567	851.44
416.776	916.98
416.984	925.17
417.192	914.93
417.4	947.7
417.608	931.31
417.817	1002.99
418.025	1023.47
418.233	1115.63
418.441	1080.82
418.649	1103.34
418.857	1201.65
419.065	1242.61
419.273	1203.69
419.481	1349.1
419.689	1332.72
419.897	1404.39
420.105	1404.39
420.313	1476.07
420.521	1523.18
420.729	1545.7
420.937	1668.58
421.145	1773.03
421.353	1770.98
421.561	1914.34
421.769	1805.8
421.977	1979.87
422.185	1943.01
422.393	2076.13
422.601	2121.18
422.809	2119.14
423.017	2196.96
423.224	2309.6
423.432	2328.03
423.64	2184.67
423.848	2510.3
424.056	2483.67
424.263	2579.93
424.471	2616.79
424.679	2760.15
424.887	2952.66
425.094	2870.74
425.302	2911.7
425.51	2995.67
425.718	3177.94
425.925	3263.95
426.133	3251.66
426.341	3405.26
426.548	3804.61
426.756	3630.54
426.964	3689.93
427.171	3763.65
427.379	4212.16
427.586	4120
427.794	4238.78
428.001	4378.05
428.209	4681.14
428.417	4492.73
428.624	4863.41
428.832	4748.73
429.039	4677.05
429.247	4715.96
429.454	5295.54
429.662	5737.9
429.869	5266.86
430.076	5729.7
430.284	5502.38
430.491	5672.36
430.699	5852.58
430.906	6077.86
431.114	6016.42
431.321	6557.08
431.528	6393.25
431.736	6704.54
431.943	7206.29
432.15	6884.76
432.358	6952.34
432.565	7409.04
432.772	7351.7
432.979	7828.87
433.187	7839.11
433.394	7941.51
433.601	8609.15
433.808	8390.02
434.016	8443.26
434.223	8703.36
434.43	9280.88
434.637	9098.61
434.844	9620.85
435.052	9815.4
435.259	9706.86
435.466	9833.83
435.673	9893.23
435.88	10321.25
436.087	11115.86
436.294	10947.93
436.501	10829.15
436.708	11023.7
436.915	11343.19
437.122	11885.9
437.329	11562.32
437.537	12168.52
437.743	12279.11
437.95	12217.67
438.157	12918.07
438.364	13305.14
438.571	13438.26
438.778	13378.87
438.985	14695.71
439.192	13819.18
439.399	14406.95
439.606	13921.58
439.813	14941.47
440.02	15992.08
440.227	15584.53
440.433	15306.01
440.64	15920.4
440.847	15662.35
441.054	16266.5
441.261	17325.3
441.467	17237.24
441.674	17476.85
441.881	17997.04
442.088	17935.6
442.294	17849.58
442.501	18240.75
442.708	18666.72
442.914	19354.84
443.121	20311.24
443.328	19811.54
443.534	21238.97
443.741	20171.98
443.948	20075.73
444.154	21542.07
444.361	21759.16
444.568	21513.4
444.774	21480.63
444.981	21810.36
445.187	22512.81
445.394	23540.89
445.6	23020.7
445.807	25226.37
446.013	24366.22
446.22	24433.8
446.426	25439.36
446.633	25633.91
446.839	26627.18
447.046	25531.51
447.252	27030.63
447.459	27206.75
447.665	27413.6
447.871	27960.41
448.078	29131.84
448.284	27958.36
448.491	28970.05
448.697	29695.03
448.903	30352.43
449.11	30286.9
449.316	29871.16
449.522	30207.03
449.728	31116.33
449.935	31456.29
450.141	31396.9
450.347	32269.33
450.553	31511.58
450.76	31448.1
450.966	32586.77
451.172	32060.44
451.378	32988.17
451.584	32449.55
451.791	32990.22
451.997	33235.97
452.203	33672.19
452.409	33426.43
452.615	33440.77
452.821	32277.52
453.027	31941.66
453.233	33670.14
453.44	32291.86
453.646	32547.86
453.852	32910.35
454.058	33588.22
454.264	32424.98
454.47	33311.75
454.676	32355.35
454.882	33555.46
455.088	30516.27
455.294	30848.04
455.5	31370.27
455.705	31869.98
455.911	30688.3
456.117	29899.83
456.323	29813.82
456.529	27913.3
456.735	29291.59
456.941	28632.14
457.147	28154.96
457.352	27442.27
457.558	26889.32
457.764	26911.85
457.97	26625.13
458.176	25869.43
458.381	25822.33
458.587	24616.07
458.793	24728.71
458.999	23483.55
459.204	25238.65
459.41	24335.5
459.616	23024.8
459.821	22750.37
460.027	22633.64
460.233	22226.09
460.438	21341.37
460.644	21447.86
460.85	20341.96
461.055	20040.91
461.261	20171.98
461.466	18752.74
461.672	17951.98
461.878	19227.87
462.083	18060.52
462.289	17720.56
462.494	17437.94
462.7	16907.52
462.905	16233.74
463.111	16618.75
463.316	16962.81
463.522	16733.44
463.727	16350.47
463.932	16542.98
464.138	16282.89
464.343	16473.35
464.549	16008.46
464.754	16620.8
464.959	16467.2
465.165	16108.81
465.37	15545.62
465.575	15000.86
465.781	15693.07
465.986	15904.01
466.191	15217.94
466.397	15351.06
466.602	13993.26
466.807	14660.9
467.012	14970.14
467.218	14798.11
467.423	14431.52
467.628	14818.59
467.833	15050.01
468.038	14572.83
468.244	14210.34
468.449	14697.76
468.654	14343.46
468.859	14224.68
469.064	14179.62
469.269	13610.29
469.474	13761.84
469.679	13989.16
469.885	13704.49
470.09	13804.85
470.295	13546.8
470.5	13325.62
470.705	13364.53
470.91	13151.54
471.115	13002.04
471.32	13258.04
471.525	13108.54
471.73	12764.48
471.935	12520.77
472.139	12129.61
472.344	12498.24
472.549	12348.74
472.754	12047.69
472.959	11791.69
473.164	11812.17
473.369	11586.9
473.574	11965.77
473.778	11996.49
473.983	11615.57
474.188	11754.83
474.393	11038.04
474.598	11425.11
474.802	11146.58
475.007	11232.6
475.212	11099.48
475.417	10757.47
475.621	10751.32
475.826	10687.84
476.031	10485.09
476.235	10243.43
476.44	10607.97
476.645	10372.45
476.849	10311.01
477.054	10204.52
477.259	10007.91
477.463	10149.22
477.668	9633.13
477.872	9919.85
478.077	9594.22
478.282	9346.42
478.486	9514.35
478.691	9395.57
478.895	9395.57
479.1	9352.56
479.304	9325.94
479.509	9002.36
479.713	9108.85
479.918	9090.42
480.122	8883.58
480.326	9092.47
480.531	9049.46
480.735	8928.63
480.94	8846.71
481.144	9033.08
481.348	8662.4
481.553	8625.53
481.757	8564.09
481.961	8557.95
482.166	8615.29
482.37	8729.98
482.574	8705.4
482.778	8541.57
482.983	8629.63
483.187	8766.84
483.391	8707.45
483.595	8672.64
483.8	8555.9
484.004	8672.64
484.208	8707.45
484.412	8539.52
484.616	8670.59
484.821	8680.83
485.025	8613.24
485.229	8889.72
485.433	8584.57
485.637	8637.82
485.841	8572.29
486.045	8662.4
486.249	8646.01
486.453	8344.96
486.657	8449.41
486.861	8748.41
487.065	8494.46
487.269	8541.57
487.473	8547.71
487.677	8662.4
487.881	8572.29
488.085	8471.93
488.289	8693.12
488.493	8555.9
488.697	8533.37
488.901	8736.12
489.105	8684.92
489.309	8701.31
489.512	8965.5
489.716	8850.81
489.92	8742.27
490.124	8621.44
490.328	9080.18
490.531	8672.64
490.735	8824.19
490.939	8822.14
491.143	8785.27
491.346	8953.21
491.55	9047.41
491.754	9022.84
491.958	9010.55
492.161	8904.06
492.365	9164.15
492.569	9067.89
492.772	9268.59
492.976	9305.46
493.18	9327.99
493.383	9428.34
493.587	9436.53
493.79	9452.91
493.994	9244.02
494.197	9473.39
494.401	9620.85
494.605	9524.59
494.808	9768.3
495.012	9704.81
495.215	9682.28
495.419	9788.78
495.622	9713
495.825	9872.75
496.029	10114.41
496.232	10292.58
496.436	10130.79
496.639	10571.1
496.843	10358.11
497.046	10530.14
497.249	10519.9
497.453	10556.77
497.656	10784.09
497.859	10882.39
498.063	11001.18
498.266	11165.01
498.469	11193.69
498.673	11287.89
498.876	11291.99
499.079	11525.46
499.282	11453.78
499.485	11760.97
499.689	11867.47
499.892	11883.85
500.095	12135.75
500.298	12455.23
500.501	12051.78
500.705	12375.36
500.908	12688.7
501.111	12999.99
501.314	12772.67
501.517	12924.22
501.72	13231.41
501.923	13219.13
502.126	13315.38
502.329	13319.48
502.532	13636.91
502.735	13753.65
502.938	14026.03
503.141	14130.47
503.344	14335.27
503.547	14322.98
503.75	14712.1
503.953	14581.03
504.156	14869.79
504.359	15152.41
504.562	15136.03
504.765	15609.11
504.968	15684.88
505.17	15748.37
505.373	15654.16
505.576	16276.74
505.779	16332.04
505.982	16338.18
506.185	16604.42
506.387	16684.29
506.59	16915.71
506.793	17083.64
506.996	17020.16
507.198	17878.26
507.401	17331.45
507.604	17763.57
507.807	18191.59
508.009	18201.83
508.212	18193.64
508.415	18638.05
508.617	18715.87
508.82	19119.32
509.022	18777.31
509.225	19061.98
509.428	19084.51
509.63	19629.27
509.833	19838.16
510.035	20389.06
510.238	19776.72
510.44	19999.95
510.643	20815.04
510.845	20616.39
511.048	20524.23
511.25	21126.33
511.453	21269.69
511.655	22109.36
511.858	21392.57
512.06	21742.77
512.262	21937.33
512.465	21970.1
512.667	22242.48
512.87	22510.76
513.072	22645.93
513.274	23375
513.477	23440.54
513.679	23542.94
513.881	23710.87
514.084	23727.25
514.286	23985.3
514.488	24231.05
514.69	24808.58
514.893	25087.11
515.095	25214.08
515.297	25218.18
515.499	25099.39
515.701	25670.78
515.904	25934.96
516.106	25869.43
516.308	26424.43
516.51	26637.42
516.712	26346.61
516.914	26580.07
517.116	27667.55
517.318	27151.46
517.52	27653.21
517.722	27546.72
517.925	27997.27
518.127	28255.31
518.329	28417.1
518.531	28431.44
518.733	29111.36
518.935	29185.09
519.136	29123.65
519.338	29463.61
519.54	29824.06
519.742	30266.42
519.944	30102.58
520.146	30655.53
520.348	30837.8
520.55	30884.9
520.752	30719.02
520.954	31661.08
521.155	31738.91
521.357	31646.75
521.559	32207.89
521.761	32414.74
521.963	32402.45
522.164	32617.49
522.366	32676.88
522.568	32930.83
522.77	33203.21
522.971	33668.09
523.173	33661.95
523.375	34001.91
523.576	33707.01
523.778	33993.72
523.98	34368.5
524.181	34741.23
524.383	34878.44
524.584	35075.05
524.786	35300.33
524.988	34860.01
525.189	35746.78
525.391	35484.64
525.592	35859.42
525.794	36119.51
525.995	36060.12
526.197	36258.77
526.398	35714.02
526.6	36594.64
526.801	36666.32
527.003	36973.52
527.204	36694.99
527.406	37286.86
527.607	37100.49
527.808	37135.31
528.01	36770.77
528.211	37020.62
528.412	37573.57
528.614	37698.5
528.815	38026.17
529.016	38179.77
529.218	37342.15
529.419	37997.5
529.62	38085.56
529.822	38001.6
530.023	38144.95
530.224	38204.35
530.425	38202.3
530.626	37946.3
530.828	38175.67
531.029	39033.77
531.23	38411.19
531.431	38337.46
531.632	38550.45
531.833	38730.67
532.035	39007.15
532.236	38822.83
532.437	38878.13
532.638	38697.91
532.839	39349.16
533.04	39115.69
533.241	38634.42
533.442	39400.36
533.643	38929.33
533.844	39224.23
534.045	39248.81
534.246	38757.3
534.447	39123.88
534.648	38814.64
534.849	39291.82
535.05	39121.84
535.251	39113.64
535.451	39142.31
535.652	39926.69
535.853	39136.17
536.054	39068.59
536.255	39226.28
536.456	38871.98
536.657	39613.35
536.857	38974.38
537.058	39101.36
537.259	39517.09
537.46	39478.18
537.66	38986.67
537.861	39590.82
538.062	39269.29
538.263	39332.78
538.463	39230.38
538.664	39332.78
538.865	39232.43
539.065	39807.9
539.266	39130.03
539.466	39429.03
539.667	39123.88
539.868	39371.69
540.068	39500.71
540.269	39250.86
540.469	39693.22
540.67	39207.85
540.87	38837.17
541.071	39383.98
541.271	39289.77
541.472	38939.57
541.672	38888.37
541.873	39025.58
542.073	38667.19
542.274	39451.56
542.474	38982.57
542.675	38706.1
542.875	39328.68
543.075	38978.48
543.276	38560.69
543.476	39179.18
543.676	39181.23
543.877	39168.94
544.077	39058.35
544.277	39099.31
544.478	38939.57
544.678	39095.21
544.878	39302.06
545.078	39166.89
545.279	38622.13
545.479	38534.07
545.679	38964.14
545.879	38534.07
546.079	38720.43
546.28	38970.29
546.48	38679.47
546.68	39046.06
546.88	38960.05
547.08	39052.2
547.28	38923.18
547.48	38726.58
547.68	39084.97
547.88	38658.99
548.081	39041.96
548.281	38702
548.481	38730.67
548.681	39119.79
548.881	38818.74
549.081	38669.23
549.28	38681.52
549.48	38804.4
549.68	38609.84
549.88	39312.3
550.08	38622.13
550.28	38853.55
550.48	38509.49
550.68	39117.74
550.88	38548.4
551.08	38605.75
551.279	38759.34
551.479	38257.59
551.679	38693.81
551.879	38650.8
552.079	38802.35
552.278	38648.75
552.478	38675.38
552.678	38986.67
552.878	38843.31
553.077	38112.19
553.277	38052.8
553.477	38847.41
553.676	38597.56
553.876	38486.96
554.076	38192.06
554.275	38249.4
554.475	38040.51
554.674	38523.83
554.874	38439.86
555.074	38601.65
555.273	38378.42
555.473	38265.78
555.672	38116.28
555.872	38413.24
556.071	38040.51
556.271	38067.13
556.47	38034.36
556.67	37845.95
556.869	37641.15
557.068	38089.66
557.268	37419.97
557.467	37872.57
557.667	37899.2
557.866	37915.58
558.065	37848
558.265	37761.98
558.464	37788.61
558.663	37764.03
558.863	37493.7
559.062	37852.09
559.261	37362.63
559.461	38081.47
559.66	37305.29
559.859	37157.83
560.058	37008.33
560.258	37702.59
560.457	37094.35
560.656	37434.31
560.855	37125.07
561.054	37372.87
561.253	37153.74
561.453	36926.41
561.652	37080.01
561.851	37004.24
562.05	36828.11
562.249	36750.29
562.448	36742.1
562.647	37032.91
562.846	36393.94
563.045	36439
563.244	36541.39
563.443	37082.06
563.642	36010.97
563.841	36469.72
564.04	35920.86
564.239	36795.34
564.438	36336.6
564.637	36324.31
564.836	36105.18
565.035	35920.86
565.234	35740.64
565.432	35728.35
565.631	35800.03
565.83	35988.44
566.029	36142.04
566.228	35634.14
566.427	35828.7
566.625	35312.61
566.824	34771.95
567.023	35591.14
567.222	34778.09
567.42	35660.77
567.619	35433.44
567.818	35013.61
568.016	35439.59
568.215	35230.69
568.414	34964.46
568.612	35136.49
568.811	34657.26
569.01	35116.01
569.208	34751.47
569.407	34522.1
569.605	34409.46
569.804	34900.97
570.002	34368.5
570.201	34567.15
570.4	33934.33
570.598	34022.39
570.797	34044.92
570.995	34253.81
571.193	33686.53
571.392	34253.81
571.59	33602.56
571.789	33752.06
571.987	33598.46
572.186	33682.43
572.384	33207.3
572.582	33627.13
572.781	33686.53
572.979	32943.11
573.177	33324.04
573.376	33289.22
573.574	32783.37
573.772	33297.41
573.971	32732.17
574.169	32853
574.367	32451.6
574.565	32873.48
574.763	32345.11
574.962	32320.53
575.16	32103.45
575.358	32488.46
575.556	32033.82
575.754	32726.03
575.952	32076.82
576.151	32191.51
576.349	31806.49
576.547	32136.21
576.745	31783.96
576.943	31826.97
577.141	31882.27
577.339	31720.48
577.537	31667.23
577.735	31603.74
577.933	31474.72
578.131	31460.38
578.329	30972.97
578.527	31245.35
578.725	31484.96
578.923	31206.44
579.121	31296.55
579.319	30874.66
579.516	31274.02
579.714	31056.93
579.912	30528.56
580.11	30489.65
580.308	30551.09
580.506	30673.96
580.704	30188.6
580.901	30243.89
581.099	30905.38
581.297	30270.51
581.495	30090.29
581.692	30612.52
581.89	29793.34
582.088	30391.34
582.285	29971.51
582.483	30139.44
582.681	29533.25
582.878	29426.75
583.076	29660.22
583.274	29422.66
583.471	29168.71
583.669	29613.12
583.866	29209.67
584.064	29299.78
584.262	28949.57
584.459	29348.93
584.657	28912.71
584.854	28908.61
585.052	28607.56
585.249	28748.87
585.447	28679.24
585.644	28300.37
585.841	28468.3
586.039	28554.32
586.236	28427.34
586.434	28204.11
586.631	28052.56
586.828	28376.14
587.026	28382.29
587.223	27909.21
587.42	27956.31
587.618	27749.46
587.815	27978.84
588.012	27911.25
588.21	27724.89
588.407	27874.39
588.604	27743.32
588.801	27589.72
588.999	27288.67
589.196	27298.91
589.393	27243.62
589.59	27112.55
589.787	27053.16
589.984	27137.12
590.182	26741.86
590.379	26692.71
590.576	26827.88
590.773	27266.14
590.97	26494.06
591.167	26485.87
591.364	26283.12
591.561	26596.46
591.758	26193.01
591.955	26424.43
592.152	26756.2
592.349	26158.19
592.546	26358.89
592.743	25853.05
592.94	25638.01
593.137	25898.1
593.334	26119.28
593.531	25474.17
593.727	25791.61
593.924	25599.1
594.121	25431.16
594.318	25635.96
594.515	25576.57
594.712	25480.32
594.908	25250.94
595.105	25150.59
595.302	24996.99
595.499	25302.14
595.696	24956.04
595.892	24845.44
596.089	24937.6
596.286	24784.01
596.482	24896.64
596.679	24626.31
596.876	24693.9
597.072	24315.02
597.269	24605.83
597.466	24521.87
597.662	24358.03
597.859	24349.84
598.055	24335.5
598.252	24226.96
598.448	24161.42
598.645	23991.44
598.841	23757.97
599.038	23895.19
599.234	23743.64
599.431	23598.23
599.627	23600.28
599.824	23575.7
600.02	23284.89
600.217	23409.82
600.413	23395.48
600.609	23346.33
600.806	23116.96
601.002	23280.8
601.198	23188.64
601.395	23069.86
601.591	22813.86
601.787	22949.03
601.984	22742.18
602.18	23192.73
602.376	22615.21
602.572	22899.87
602.769	22660.26
602.965	22420.65
603.161	22760.61
603.357	22494.38
603.553	22293.68
603.75	22170.8
603.946	21996.72
604.142	22371.5
604.338	21912.75
604.534	22045.87
604.73	21753.01
604.926	21861.55
605.122	21896.37
605.318	21636.28
605.514	21753.01
605.71	21703.86
605.906	21722.29
606.102	21738.68
606.298	21617.85
606.494	21574.84
606.69	21484.73
606.886	21632.18
607.082	20944.06
607.278	21458.1
607.474	20655.3
607.67	21380.28
607.866	20847.81
608.062	21345.47
608.257	20868.29
608.453	21124.29
608.649	20718.79
608.845	20772.04
609.041	20901.06
609.236	21054.65
609.432	20833.47
609.628	20845.76
609.824	20810.95
610.019	20790.47
610.215	20808.9
610.411	20550.85
610.606	20524.23
610.802	20438.22
610.998	20413.64
611.193	20339.91
611.389	20524.23
611.584	20163.79
611.78	19922.13
611.976	20303.05
612.171	20327.63
612.367	20382.92
612.562	20110.54
612.758	19616.98
612.953	19899.6
613.149	20163.79
613.344	19903.7
613.539	20249.8
613.735	19778.77
613.93	19958.99
614.126	19649.75
614.321	19987.66
614.517	19901.65
614.712	19934.42
614.907	19555.54
615.103	19614.93
615.298	19643.6
615.493	19887.31
615.688	19199.2
615.884	19858.64
616.079	19342.55
616.274	19700.95
616.47	19610.84
616.665	19434.71
616.86	19111.13
617.055	19293.4
617.25	18898.14
617.445	19162.33
617.641	19115.23
617.836	19033.31
618.031	18830.56
618.226	19156.19
618.421	18791.65
618.616	18994.4
618.811	18310.38
619.006	19002.59
619.201	18566.37
619.396	18789.6
619.591	18566.37
619.786	18537.7
619.981	18150.64
620.176	18337
620.371	17882.35
620.566	18244.84
620.761	18019.57
620.956	17841.39
621.151	17501.43
621.346	18025.71
621.541	17542.39
621.735	17937.65
621.93	17388.79
622.125	17499.38
622.32	17296.63
622.515	17454.33
622.709	17386.74
622.904	17165.56
623.099	17296.63
623.294	16950.53
623.488	16792.83
623.683	16909.57
623.878	16616.71
624.072	16889.09
624.267	16813.31
624.462	16526.6
624.656	16340.23
624.851	16235.78
625.046	16358.66
625.24	16303.37
625.435	16020.75
625.629	16014.6
625.824	15822.09
626.018	16022.8
626.213	15486.23
626.407	15932.68
626.602	15353.11
626.796	15666.45
626.991	15422.74
627.185	15387.93
627.38	15068.44
627.574	15146.26
627.768	15234.33
627.963	15074.59
628.157	15074.59
628.352	14980.38
628.546	14798.11
628.74	14777.63
628.935	14646.56
629.129	14640.42
629.323	14474.53
629.517	14333.22
629.712	14212.39
629.906	14466.34
630.1	13991.21
630.294	14255.4
630.489	14081.32
630.683	14241.06
630.877	13727.02
631.071	13759.79
631.265	13808.94
631.459	13634.86
631.653	13321.52
631.848	13747.5
632.042	13356.34
632.236	13622.58
632.43	13241.65
632.624	13313.33
632.818	13417.78
633.012	12905.79
633.206	12924.22
633.4	13118.78
633.594	12922.17
633.788	12987.71
633.982	12805.44
634.176	12789.05
634.369	12741.95
634.563	12586.3
634.757	12680.51
634.951	12555.58
635.145	12508.48
635.339	12596.54
635.533	12383.56
635.726	12254.53
635.92	12217.67
636.114	12178.76
636.308	11990.35
636.501	11996.49
636.695	12006.73
636.889	11767.12
637.083	11636.05
637.276	11691.34
637.47	11738.44
637.664	11703.63
637.857	11918.67
638.051	11482.45
638.244	11435.35
638.438	11386.19
638.632	11408.72
638.825	11203.93
639.019	11269.46
639.212	10988.89
639.406	11105.62
639.599	11076.95
639.793	11085.14
639.986	11052.38
640.18	10968.41
640.373	11005.27
640.567	10780
640.76	10728.8
640.954	10599.77
641.147	10616.16
641.34	10448.22
641.534	10497.38
641.727	10616.16
641.92	10419.55
642.114	10225
642.307	10261.86
642.5	10378.59
642.694	10251.62
642.887	10202.47
643.08	10241.38
643.273	10181.99
643.467	9885.03
643.66	9936.23
643.853	9829.74
644.046	9518.45
644.239	9745.77
644.432	9751.92
644.626	9784.68
644.819	9555.31
645.012	9547.12
645.205	9538.93
645.398	9500.02
645.591	9454.96
645.784	9309.55
645.977	9356.66
646.17	9270.64
646.363	9153.91
646.556	9090.42
646.749	8961.4
646.942	9186.68
647.135	8928.63
647.328	8949.11
647.521	8918.39
647.714	8770.94
647.907	9071.99
648.099	8838.52
648.292	8805.75
648.485	8766.84
648.678	8711.55
648.871	8342.91
649.064	8551.81
649.256	8553.85
649.449	8277.38
649.642	8396.16
649.835	8383.87
650.027	8334.72
650.22	8129.92
650.413	8228.23
650.605	8154.5
650.798	8101.25
650.991	7904.65
651.183	8183.17
651.376	8140.16
651.568	8088.96
651.761	8035.72
651.954	7951.75
652.146	7878.02
652.339	8088.96
652.531	7859.59
652.724	7851.4
652.916	7517.58
653.109	7697.8
653.301	7613.84
653.494	7746.95
653.686	7562.64
653.879	7601.55
654.071	7648.65
654.263	7404.94
654.456	7396.75
654.648	7501.2
654.84	7253.39
655.033	7253.39
655.225	7163.28
655.417	7210.39
655.61	7234.96
655.802	7120.28
655.994	6995.35
656.186	6968.73
656.379	7093.65
656.571	7007.64
656.763	6888.85
656.955	6911.38
657.148	7013.78
657.34	6860.18
657.532	6876.57
657.724	6757.78
657.916	6942.1
658.108	6700.44
658.3	6688.15
658.492	6958.49
658.684	6567.32
658.876	6526.36
659.068	6632.86
659.26	6610.33
659.452	6690.2
659.644	6430.11
659.836	6376.86
660.028	6466.97
660.22	6485.41
660.412	6270.37
660.604	6288.8
660.796	6311.33
660.988	6303.14
661.18	6317.47
661.372	6180.26
661.563	6237.6
661.755	6071.72
661.947	6110.63
662.139	6084
662.331	6032.8
662.522	5922.21
662.714	5891.49
662.906	5879.21
663.097	5926.31
663.289	6000.04
663.481	5877.16
663.673	5918.12
663.864	5799.34
664.056	5782.95
664.247	5907.88
664.439	5606.83
664.631	5748.14
664.822	5647.79
665.014	5662.12
665.205	5569.96
665.397	5543.34
665.588	5602.73
665.78	5510.57
665.971	5289.39
666.163	5316.01
666.354	5541.29
666.546	5307.82
666.737	5354.93
666.929	5332.4
667.12	5451.18
667.311	5336.49
667.503	5215.66
667.694	5453.23
667.885	5303.73
668.077	5369.26
668.268	5168.56
668.459	5205.42
668.651	5219.76
668.842	5088.69
669.033	5055.92
669.224	5057.97
669.416	5049.78
669.607	5242.29
669.798	5131.7
669.989	4976.05
670.18	4986.29
670.371	4982.2
670.563	4941.24
670.754	5123.51
670.945	4863.41
671.136	5033.4
671.327	4959.67
671.518	4906.42
671.709	5010.87
671.9	4894.13
672.091	4812.21
672.282	4928.95
672.473	4775.35
672.664	4834.74
672.855	4869.56
673.046	4967.86
673.237	4761.02
673.428	4804.02
673.619	4656.57
673.809	4801.97
674	4691.38
674.191	4586.94
674.382	4701.62
674.573	4656.57
674.764	4459.96
674.954	4754.87
675.145	4660.66
675.336	4558.27
675.527	4564.41
675.717	4496.83
675.908	4472.25
676.099	4521.4
676.289	4631.99
676.48	4566.46
676.671	4476.35
676.861	4427.2
677.052	4455.87
677.243	4320.7
677.433	4511.16
677.624	4527.55
677.814	4318.65
678.005	4326.85
678.195	4451.77
678.386	4451.77
678.576	4273.6
678.767	4242.88
678.957	4332.99
679.148	4302.27
679.338	4326.85
679.529	4257.22
679.719	4314.56
679.909	4472.25
680.1	4435.39
680.29	4304.32
680.481	4279.74
680.671	4498.88
680.861	4373.95
681.052	4206.02
681.242	4193.73
681.432	4261.31
681.622	4230.59
681.813	4296.13
682.003	4232.64
682.193	4230.59
682.383	4224.45
682.573	4099.52
682.764	4165.06
682.954	4132.29
683.144	4142.53
683.334	4128.19
683.524	4066.75
683.714	4081.09
683.904	4029.89
684.094	4130.24
684.284	4312.51
684.474	4318.65
684.664	4165.06
684.854	4083.14
685.044	4066.75
685.234	4152.77
685.424	4050.37
685.614	3956.16
685.804	4005.31
685.994	4044.23
686.184	4029.89
686.374	3976.64
686.564	3982.79
686.753	4011.46
686.943	3904.96
687.133	3943.88
687.323	3894.72
687.513	3894.72
687.702	3913.16
687.892	3968.45
688.082	3726.79
688.272	3907.01
688.461	3894.72
688.651	3821
688.841	3747.27
689.03	3847.62
689.22	3610.06
689.41	3655.11
689.599	3718.6
689.789	3843.53
689.979	3724.74
690.168	3755.46
690.358	3706.31
690.547	3513.8
690.737	3706.31
690.926	3540.43
691.116	3544.52
691.305	3603.91
691.495	3624.39
691.684	3591.63
691.874	3601.87
692.063	3577.29
692.252	3438.03
692.442	3427.79
692.631	3468.75
692.82	3372.49
693.01	3534.28
693.199	3493.32
693.388	3452.36
693.578	3274.19
693.767	3327.44
693.956	3544.52
694.146	3362.25
694.335	3266
694.524	3421.64
694.713	3272.14
694.902	3337.68
695.092	3362.25
695.281	3198.42
695.47	3184.08
695.659	3194.32
695.848	3124.69
696.037	3210.7
696.226	3198.42
696.415	3276.24
696.604	3124.69
696.793	3167.7
696.982	3128.78
697.171	3259.85
697.36	3241.42
697.549	3171.79
697.738	3157.46
697.927	3061.2
698.116	3253.71
698.305	3159.5
698.494	3132.88
698.683	3040.72
698.872	2999.76
699.061	3147.22
699.25	3139.02
699.438	3026.39
699.627	3116.5
699.816	3069.39
700.005	3028.43
700.193	3212.75
700.382	2981.33
700.571	3132.88
700.76	2944.47
700.948	3016.15
701.137	3149.26
701.326	3063.25
701.514	3128.78
701.703	3102.16
701.892	2995.67
702.08	3132.88
702.269	3048.91
702.457	2985.43
702.646	3028.43
702.834	2905.56
703.023	2942.42
703.212	3020.24
703.4	2993.62
703.589	3077.59
703.777	2870.74
703.965	2907.6
704.154	2938.32
704.342	2903.51
704.531	2923.99
704.719	2905.56
704.907	2942.42
705.096	2870.74
705.284	2919.89
705.472	2903.51
705.661	2928.08
705.849	2856.4
706.037	2948.56
706.226	2889.17
706.414	2864.6
706.602	2868.69
706.79	2903.51
706.979	2756.05
707.167	2905.56
707.355	2700.76
707.543	2860.5
707.731	2883.03
707.919	2858.45
708.107	2848.21
708.296	2807.25
708.484	2741.72
708.672	2833.88
708.86	2893.27
709.048	2856.4
709.236	2721.24
709.424	2837.97
709.612	2706.9
709.8	2788.82
709.988	2715.09
710.176	2852.31
710.364	2874.84
710.551	2797.01
710.739	2708.95
710.927	2825.68
711.115	2735.57
711.303	2756.05
711.491	2729.43
711.679	2682.33
711.866	2756.05
712.054	2862.55
712.242	2741.72
712.43	2764.25
712.617	2766.29
712.805	2747.86
712.993	2690.52
713.181	2706.9
713.368	2665.94
713.556	2764.25
713.744	2553.31
713.931	2633.18
714.119	2792.92
714.306	2749.91
714.494	2737.62
714.682	2708.95
714.869	2698.71
715.057	2645.46
715.244	2616.79
715.432	2727.38
715.619	2645.46
715.807	2797.01
715.994	2573.78
716.182	2676.18
716.369	2598.36
716.556	2602.46
716.744	2786.77
716.931	2627.03
717.119	2559.45
717.306	2694.61
717.493	2543.07
717.681	2629.08
717.868	2600.41
718.055	2502.11
718.242	2702.81
718.43	2557.4
718.617	2575.83
718.804	2549.21
718.991	2616.79
719.179	2573.78
719.366	2686.42
719.553	2727.38
719.74	2512.35
719.927	2602.46
720.114	2479.58
720.301	2512.35
720.488	2530.78
720.676	2592.22
720.863	2579.93
721.05	2741.72
721.237	2577.88
721.424	2649.56
721.611	2530.78
721.798	2551.26
721.985	2522.59
722.172	2524.63
722.358	2629.08
722.545	2616.79
722.732	2504.15
722.919	2526.68
723.106	2430.43
723.293	2524.63
723.48	2534.87
723.667	2616.79
723.853	2495.96
724.04	2575.83
724.227	2653.66
724.414	2518.49
724.6	2510.3
724.787	2455
724.974	2528.73
725.161	2545.11
725.347	2452.95
725.534	2563.54
725.72	2627.03
725.907	2530.78
726.094	2495.96
726.28	2393.56
726.467	2547.16
726.653	2565.59
726.84	2518.49
727.027	2543.07
727.213	2307.55
727.4	2534.87
727.586	2422.24
727.773	2469.34
727.959	2553.31
728.145	2543.07
728.332	2504.15
728.518	2387.42
728.705	2399.71
728.891	2412
729.077	2375.13
729.264	2510.3
729.45	2397.66
729.636	2444.76
729.823	2338.27
730.009	2428.38
730.195	2346.46
730.382	2452.95
730.568	2276.83
730.754	2389.47
730.94	2436.57
731.126	2448.86
731.313	2434.52
731.499	2383.32
731.685	2403.8
731.871	2461.15
732.057	2399.71
732.243	2371.04
732.429	2360.8
732.615	2528.73
732.801	2375.13
732.987	2459.1
733.173	2444.76
733.359	2403.8
733.545	2405.85
733.731	2477.53
733.917	2522.59
734.103	2321.88
734.289	2346.46
734.475	2387.42
734.661	2266.59
734.847	2321.88
735.033	2362.84
735.219	2282.97
735.404	2256.35
735.59	2420.19
735.776	2330.08
735.962	2397.66
736.148	2399.71
736.333	2293.21
736.519	2256.35
736.705	2407.9
736.89	2274.78
737.076	2233.82
737.262	2250.21
737.447	2340.32
737.633	2348.51
737.819	2280.93
738.004	2346.46
738.19	2254.3
738.375	2207.2
738.561	2297.31
738.747	2389.47
738.932	2139.62
739.118	2358.75
739.303	2313.69
739.489	2328.03
739.674	2317.79
739.859	2199.01
740.045	2231.77
740.23	2256.35
740.416	2174.43
740.601	2215.39
740.786	2201.05
740.972	2168.29
741.157	2217.44
741.342	2102.75
741.528	2125.28
741.713	2162.14
741.898	2223.58
742.084	2112.99
742.269	2153.95
742.454	2061.79
742.639	2137.57
742.824	2205.15
743.01	2080.22
743.195	2166.24
743.38	2102.75
743.565	2014.69
743.75	2129.38
743.935	2026.98
744.12	2125.28
744.305	2051.55
744.49	2092.51
744.675	2100.7
744.86	1988.07
745.045	1998.31
745.23	1889.76
745.415	2006.5
745.6	1979.87
745.785	1990.11
745.97	2006.5
746.155	1955.3
746.34	2002.4
746.525	1961.44
746.71	1979.87
746.895	1830.37
747.079	1881.57
747.264	1867.24
747.449	1846.76
747.634	1830.37
747.819	1813.99
748.003	1934.82
748.188	1789.41
748.373	1816.04
748.557	1813.99
748.742	1789.41
748.927	1844.71
749.111	1760.74
749.296	1799.65
749.481	1709.54
749.665	1732.07
749.85	1691.11
750.034	1824.23
750.219	1701.35
750.404	1619.43
750.588	1660.39
750.773	1639.91
750.957	1617.38
751.141	1609.19
751.326	1609.19
751.51	1560.04
751.695	1676.77
751.879	1609.19
752.064	1644.01
752.248	1631.72
752.432	1609.19
752.617	1455.59
752.801	1621.48
752.985	1543.66
753.17	1521.13
753.354	1502.7
753.538	1465.83
753.722	1531.37
753.907	1519.08
754.091	1480.17
754.275	1506.79
754.459	1373.68
754.643	1398.25
754.828	1412.59
755.012	1482.22
755.196	1420.78
755.38	1441.26
755.564	1363.44
755.748	1347.05
755.932	1228.27
756.116	1347.05
756.3	1363.44
756.484	1390.06
756.668	1334.76
756.852	1326.57
757.036	1289.71
757.22	1359.34
757.404	1193.45
757.588	1328.62
757.772	1302
757.956	1123.82
758.14	1258.99
758.323	1308.14
758.507	1224.17
758.691	1185.26
758.875	1168.88
759.059	1248.75
759.242	1265.13
759.426	1115.63
759.61	1148.4
759.794	1191.41
759.977	1142.25
760.161	1119.73
760.345	1127.92
760.528	1123.82
760.712	1222.13
760.895	1183.21
761.079	1064.43
761.263	1105.39
761.446	1140.21
761.63	1119.73
761.813	1113.58
761.997	1113.58
762.18	1107.44
762.364	1125.87
762.547	1027.57
762.731	1089.01
762.914	1095.15
763.098	992.75
763.281	1029.62
763.464	945.65
763.648	1054.19
763.831	1011.18
764.015	1084.91
764.198	1019.38
764.381	1056.24
764.564	953.84
764.748	1002.99
764.931	1091.06
765.114	1015.28
765.297	978.42
765.481	949.75
765.664	1062.38
765.847	929.27
766.03	1039.86
766.213	970.23
766.397	972.27
766.58	1027.57
766.763	947.7
766.946	908.79
767.129	925.17
767.312	867.83
767.495	904.69
767.678	927.22
767.861	914.93
768.044	945.65
768.227	939.51
768.41	908.79
768.593	962.03
768.776	908.79
768.959	871.92
769.142	849.4
769.324	888.31
769.507	941.55
769.69	814.58
769.873	927.22
770.056	931.31
770.239	900.59
770.421	939.51
770.604	849.4
770.787	833.01
770.97	914.93
771.152	919.03
771.335	822.77
771.518	806.39
771.7	927.22
771.883	773.62
772.066	835.06
772.248	839.16
772.431	830.96
772.613	847.35
772.796	767.48
772.978	830.96
773.161	863.73
773.343	871.92
773.526	773.62
773.708	683.51
773.891	783.86
774.073	753.14
774.256	691.7
774.438	726.52
774.621	757.24
774.803	683.51
774.985	816.63
775.168	802.29
775.35	681.46
775.532	671.22
775.715	687.61
775.897	658.93
776.079	658.93
776.261	663.03
776.444	652.79
776.626	626.17
776.808	759.28
776.99	671.22
777.173	701.94
777.355	675.32
777.537	699.89
777.719	716.28
777.901	611.83
778.083	564.73
778.265	620.02
778.447	660.98
778.629	640.5
778.811	603.64
778.993	699.89
779.175	636.41
779.357	648.69
779.539	560.63
779.721	624.12
779.903	656.89
780.085	597.49
780.267	611.83
780.449	556.54
780.631	562.68
780.812	595.45
780.994	568.82
781.176	482.81
781.358	568.82
781.54	622.07
781.721	538.1
781.903	509.43
782.085	568.82
782.267	650.74
782.448	519.67
782.63	585.21
782.812	544.25
782.993	513.53
783.175	609.78
783.357	517.62
783.538	478.71
783.72	462.33
783.901	404.99
784.083	552.44
784.264	486.9
784.446	437.75
784.627	474.62
784.809	456.19
784.99	478.71
785.172	480.76
785.353	435.71
785.535	470.52
785.716	497.14
785.897	419.32
786.079	544.25
786.26	388.6
786.441	445.95
786.623	372.22
786.804	409.08
786.985	359.93
787.167	427.51
787.348	380.41
787.529	456.19
787.71	429.56
787.891	454.14
788.073	349.69
788.254	382.46
788.435	486.9
788.616	460.28
788.797	398.84
788.978	333.31
789.159	325.12
789.34	419.32
789.522	351.74
789.703	359.93
789.884	454.14
790.065	364.03
790.246	343.55
790.427	364.03
790.607	321.02
790.788	411.13
790.969	359.93
791.15	378.36
791.331	331.26
791.512	333.31
791.693	318.97
791.874	404.99
792.054	318.97
792.235	323.07
792.416	331.26
792.597	347.64
792.778	372.22
792.958	364.03
793.139	351.74
793.32	349.69
793.5	300.54
793.681	278.01
793.862	296.44
794.042	335.35
794.223	282.11
794.404	318.97
794.584	368.12
794.765	374.27
794.945	245.24
795.126	355.83
795.306	300.54
795.487	331.26
795.667	359.93
795.848	235
796.028	275.96
796.209	316.92
796.389	275.96
796.57	169.47
796.75	175.61
796.93	378.36
797.111	343.55
797.291	232.96
797.471	249.34
797.652	241.15
797.832	241.15
798.012	269.82
798.192	153.09
798.373	202.24
798.553	282.11
798.733	251.39
798.913	226.81
799.093	273.92
799.274	294.4
799.454	282.11
799.634	263.68
799.814	341.5
799.994	245.24
800.174	235
800.354	269.82
800.534	192
800.714	222.72
800.894	208.38
801.074	228.86
801.254	224.76
801.434	237.05
801.614	275.96
801.794	218.62
801.974	742.9
802.154	196.09
802.334	269.82
802.514	218.62
802.693	163.33
802.873	167.42
803.053	224.76
803.233	261.63
803.413	228.86
803.592	183.81
803.772	214.52
803.952	265.72
804.131	192
804.311	222.72
804.491	241.15
804.67	202.24
804.85	208.38
805.03	130.56
805.209	241.15
805.389	241.15
805.568	177.66
805.748	151.04
805.928	275.96
806.107	177.66
806.287	214.52
806.466	224.76
806.646	200.19
806.825	194.05
807.004	280.06
807.184	151.04
807.363	216.57
807.543	204.28
807.722	202.24
807.901	175.61
808.081	151.04
808.26	198.14
808.439	171.52
808.619	228.86
808.798	136.7
808.977	212.48
809.156	138.75
809.336	173.57
809.515	153.09
809.694	192
809.873	159.23
810.052	226.81
810.231	253.44
810.411	245.24
810.59	210.43
810.769	146.94
810.948	128.51
811.127	122.37
811.306	171.52
811.485	159.23
811.664	202.24
811.843	208.38
812.022	189.95
812.201	171.52
812.38	146.94
812.559	194.05
812.737	202.24
812.916	95.74
813.095	192
813.274	216.57
813.453	163.33
813.632	153.09
813.811	142.85
813.989	151.04
814.168	97.79
814.347	91.65
814.526	97.79
814.704	110.08
814.883	136.7
815.062	83.45
815.24	208.38
815.419	226.81
815.598	126.46
815.776	136.7
815.955	175.61
816.133	93.69
816.312	105.98
816.49	140.8
816.669	155.13
816.847	95.74
817.026	142.85
817.204	101.89
817.383	181.76
817.561	189.95
817.74	85.5
817.918	142.85
818.097	134.65
818.275	19.97
818.453	126.46
818.632	134.65
818.81	216.57
818.988	95.74
819.167	134.65
819.345	169.47
819.523	120.32
819.701	196.09
819.879	208.38
820.058	120.32
820.236	95.74
820.414	167.42
820.592	85.5
820.77	196.09
820.948	155.13
821.127	185.85
821.305	136.7
821.483	40.45
821.661	142.85
821.839	114.17
822.017	85.5
822.195	128.51
822.373	208.38
822.551	134.65
822.729	159.23
822.907	99.84
823.085	124.41
823.262	91.65
823.44	60.93
823.618	126.46
823.796	103.93
823.974	97.79
824.152	85.5
824.329	101.89
824.507	101.89
824.685	118.27
824.863	144.89
825.04	148.99
825.218	163.33
825.396	60.93
825.574	81.41
825.751	85.5
825.929	87.55
826.107	155.13
826.284	118.27
826.462	136.7
826.639	93.69
826.817	36.35
826.994	101.89
827.172	81.41
827.349	192
827.527	13.82
827.704	112.13
827.882	91.65
828.059	77.31
828.237	200.19
828.414	161.28
828.591	155.13
828.769	103.93
828.946	77.31
829.124	138.75
829.301	44.54
829.478	91.65
829.655	116.22
829.833	151.04
830.01	67.07
830.187	155.13
830.364	124.41
830.542	24.06
830.719	95.74
830.896	159.23
831.073	93.69
831.25	120.32
831.427	44.54
831.604	79.36
831.782	44.54
831.959	116.22
832.136	36.35
832.313	28.16
832.49	19.97
832.667	73.21
832.844	65.02
833.021	151.04
833.198	81.41
833.374	56.83
833.551	58.88
833.728	101.89
833.905	77.31
834.082	134.65
834.259	130.56
834.436	101.89
834.612	85.5
834.789	105.98
834.966	128.51
835.143	95.74
835.319	69.12
835.496	79.36
835.673	134.65
835.85	71.17
836.026	79.36
836.203	46.59
836.38	-6.66
836.556	30.21
836.733	9.73
836.909	101.89
837.086	50.69
837.262	69.12
837.439	126.46
837.616	105.98
837.792	26.11
837.968	60.93
838.145	38.4
838.321	56.83
838.498	132.61
838.674	60.93
838.851	69.12
839.027	85.5
839.203	50.69
839.38	48.64
839.556	40.45
839.732	60.93
839.909	40.45
840.085	38.4
840.261	48.64
840.437	179.71
840.614	118.27
840.79	69.12
840.966	36.35
841.142	99.84
841.318	79.36
841.494	54.78
841.671	93.69
841.847	46.59
842.023	40.45
842.199	19.97
842.375	65.02
842.551	60.93
842.727	42.5
842.903	99.84
843.079	97.79
843.255	44.54
843.431	-8.7
843.607	79.36
843.783	62.98
843.959	11.78
844.134	62.98
844.31	153.09
844.486	85.5
844.662	-4.61
844.838	79.36
845.013	81.41
845.189	110.08
845.365	-8.7
845.541	19.97
845.716	77.31
845.892	60.93
846.068	130.56
846.244	36.35
846.419	93.69
846.595	52.74
846.77	56.83
846.946	118.27
847.122	15.87
847.297	62.98
847.473	60.93
847.648	-20.99
847.824	36.35
847.999	85.5
848.175	54.78
848.35	11.78
848.526	95.74
848.701	93.69
848.876	79.36
849.052	34.3
849.227	108.03
849.403	-45.57
849.578	52.74
849.753	103.93
849.929	69.12
850.104	9.73
850.279	79.36
850.454	30.21
850.63	60.93
850.805	7.68
850.98	67.07
851.155	60.93
851.33	105.98
851.505	1.54
851.681	103.93
851.856	52.74
852.031	24.06
852.206	22.02
852.381	7.68
852.556	62.98
852.731	44.54
852.906	5.63
853.081	15.87
853.256	116.22
853.431	62.98
853.606	-6.66
853.781	3.58
853.956	48.64
854.131	77.31
854.305	75.26
854.48	62.98
854.655	52.74
854.83	32.26
855.005	42.5
855.18	24.06
855.354	26.11
855.529	118.27
855.704	28.16
855.879	40.45
856.053	11.78
856.228	-39.42
856.403	44.54
856.577	62.98
856.752	-16.9
856.926	77.31
857.101	-20.99
857.276	36.35
857.45	44.54
857.625	36.35
857.799	50.69
857.974	118.27
858.148	40.45
858.323	19.97
858.497	48.64
858.672	-41.47
858.846	42.5
859.02	-8.7
859.195	-61.95
859.369	44.54
859.543	65.02
859.718	97.79
859.892	-12.8
860.066	93.69
860.241	26.11
860.415	-8.7
860.589	7.68
860.763	13.82
860.938	58.88
861.112	15.87
861.286	-0.51
861.46	-8.7
861.634	-2.56
861.808	77.31
861.982	-14.85
862.157	105.98
862.331	-2.56
862.505	46.59
862.679	-0.51
862.853	-2.56
863.027	-0.51
863.201	93.69
863.375	19.97
863.549	118.27
863.722	75.26
863.896	112.13
864.07	-16.9
864.244	32.26
864.418	54.78
864.592	44.54
864.766	-8.7
864.939	77.31
865.113	71.17
865.287	71.17
865.461	-37.38
865.634	-12.8
865.808	44.54
865.982	22.02
866.156	-2.56
866.329	-12.8
866.503	71.17
866.676	62.98
866.85	13.82
867.024	-10.75
867.197	65.02
867.371	30.21
867.544	-4.61
867.718	3.58
867.891	50.69
868.065	19.97
868.238	54.78
868.412	85.5
868.585	13.82
868.759	73.21
868.932	11.78
869.105	-8.7
869.279	13.82
869.452	-2.56
869.625	56.83
869.799	81.41
869.972	-12.8
870.145	-8.7
870.319	101.89
870.492	36.35
870.665	9.73
870.838	-29.18
871.011	-41.47
871.185	-55.81
871.358	-8.7
871.531	46.59
871.704	3.58
871.877	-2.56
872.05	38.4
872.223	3.58
872.396	5.63
872.569	79.36
872.742	-53.76
872.915	7.68
873.088	19.97
873.261	-31.23
873.434	19.97
873.607	-6.66
873.78	114.17
873.953	-41.47
874.126	-10.75
874.299	79.36
874.471	-12.8
874.644	5.63
874.817	69.12
874.99	65.02
875.163	11.78
875.335	44.54
875.508	-10.75
875.681	7.68
875.853	69.12
876.026	44.54
876.199	30.21
876.371	54.78
876.544	3.58
876.717	97.79
876.889	22.02
877.062	65.02
877.234	52.74
877.407	60.93
877.579	32.26
877.752	11.78
877.924	11.78
878.097	13.82
878.269	62.98
878.442	50.69
878.614	13.82
878.786	30.21
878.959	15.87
879.131	26.11
879.303	60.93
879.476	79.36
879.648	134.65
879.82	36.35
879.993	22.02
880.165	-2.56
880.337	-45.57
880.509	95.74
880.681	5.63
880.854	22.02
881.026	32.26
881.198	65.02
881.37	13.82
881.542	3.58
881.714	1.54
881.886	38.4
882.058	-23.04
882.23	44.54
882.402	44.54
882.574	-8.7
882.746	-80.38
882.918	34.3
883.09	-39.42
883.262	30.21
883.434	36.35
883.606	15.87
883.778	19.97
883.95	19.97
884.122	7.68
884.293	99.84
884.465	22.02
884.637	24.06
884.809	3.58
884.98	38.4
885.152	-49.66
885.324	69.12
885.496	40.45
885.667	24.06
885.839	28.16
886.011	5.63
886.182	-0.51
886.354	11.78
886.525	-6.66
886.697	28.16
886.869	30.21
887.04	7.68
887.212	38.4
887.383	3.58
887.555	-64
887.726	56.83
887.897	-16.9
888.069	-8.7
888.24	-27.14
888.412	-49.66
888.583	34.3
888.754	46.59
888.926	-12.8
889.097	-2.56
889.268	-25.09
889.44	44.54
889.611	65.02
889.782	36.35
889.953	-4.61
890.125	69.12
890.296	22.02
890.467	-14.85
890.638	7.68
890.809	112.13
890.98	17.92
891.151	93.69
891.323	48.64
891.494	9.73
891.665	-10.75
891.836	46.59
892.007	-70.14
892.178	34.3
892.349	17.92
892.52	-4.61
892.691	-84.48
892.862	24.06
893.032	69.12
893.203	9.73
893.374	-43.52
893.545	30.21
893.716	24.06
893.887	46.59
894.057	-29.18
894.228	40.45
894.399	-76.29
894.57	56.83
894.74	5.63
894.911	36.35
895.082	-98.81
895.253	-12.8
895.423	3.58
895.594	46.59
895.764	85.5
895.935	30.21
896.106	3.58
896.276	42.5
896.447	67.07
896.617	9.73
896.788	22.02
896.958	26.11
897.129	-23.04
897.299	17.92
897.47	77.31
897.64	56.83
897.81	-43.52
897.981	-8.7
898.151	19.97
898.322	1.54
898.492	-6.66
898.662	19.97
898.832	-8.7
899.003	-29.18
899.173	36.35
899.343	-14.85
899.513	79.36
