Data from USB4F104151__168__14-19-52-680.txt Node

Date: Thu Mar 13 14:19:52 EDT 2025
User: louis
Spectrometer: USB4F10415
Trigger mode: 4
Integration Time (sec): 2.000000E-2
Scans to average: 1
Electric dark correction enabled: true
Nonlinearity correction enabled: false
Boxcar width: 0
XAxis mode: Wavelengths
Number of Pixels in Spectrum: 3648
>>>>>Begin Spectral Data<<<<<
178.204	-146.94
178.424	-146.94
178.644	-146.94
178.864	-87.55
179.084	-136.7
179.304	25.09
179.524	66.05
179.744	4.61
179.964	-11.78
180.184	-11.78
180.404	0.51
180.624	10.75
180.844	-36.35
181.064	-28.16
181.283	-44.54
181.503	0.51
181.723	25.09
181.943	-34.3
182.163	66.05
182.383	8.7
182.602	29.18
182.822	53.76
183.042	-11.78
183.262	43.52
183.482	43.52
183.701	25.09
183.921	14.85
184.141	-19.97
184.361	33.28
184.58	82.43
184.8	16.9
185.02	-44.54
185.239	-28.16
185.459	-11.78
185.679	-19.97
185.898	-7.68
186.118	-19.97
186.338	57.86
186.557	59.9
186.777	-62.98
186.997	-22.02
187.216	-22.02
187.436	51.71
187.655	51.71
187.875	109.05
188.095	10.75
188.314	33.28
188.534	-24.06
188.753	35.33
188.973	57.86
189.192	41.47
189.412	2.56
189.631	-15.87
189.851	51.71
190.07	92.67
190.29	-52.74
190.509	-40.45
190.729	-15.87
190.948	55.81
191.168	33.28
191.387	72.19
191.607	-7.68
191.826	43.52
192.045	-60.93
192.265	18.94
192.484	-24.06
192.704	0.51
192.923	0.51
193.142	92.67
193.362	-73.21
193.581	25.09
193.8	-22.02
194.02	96.77
194.239	39.42
194.458	25.09
194.678	61.95
194.897	2.56
195.116	-32.26
195.335	16.9
195.555	25.09
195.774	45.57
195.993	78.33
196.212	0.51
196.432	-22.02
196.651	-11.78
196.87	6.66
197.089	20.99
197.308	107.01
197.528	41.47
197.747	-48.64
197.966	70.14
198.185	74.24
198.404	-75.26
198.623	31.23
198.842	61.95
199.062	16.9
199.281	10.75
199.5	82.43
199.719	41.47
199.938	55.81
200.157	2.56
200.376	-24.06
200.595	31.23
200.814	-32.26
201.033	45.57
201.252	12.8
201.471	-7.68
201.69	98.81
201.909	16.9
202.128	41.47
202.347	-62.98
202.566	35.33
202.785	53.76
203.004	84.48
203.223	68.09
203.442	31.23
203.661	10.75
203.879	39.42
204.098	51.71
204.317	-26.11
204.536	51.71
204.755	55.81
204.974	-30.21
205.193	-3.58
205.411	137.73
205.63	-7.68
205.849	35.33
206.068	25.09
206.287	12.8
206.505	-7.68
206.724	41.47
206.943	33.28
207.162	74.24
207.381	-15.87
207.599	70.14
207.818	-38.4
208.037	-15.87
208.255	72.19
208.474	53.76
208.693	16.9
208.911	51.71
209.13	45.57
209.349	-24.06
209.567	43.52
209.786	66.05
210.005	47.62
210.223	-7.68
210.442	-48.64
210.661	43.52
210.879	31.23
211.098	-32.26
211.316	55.81
211.535	59.9
211.753	29.18
211.972	10.75
212.191	-15.87
212.409	12.8
212.628	43.52
212.846	-79.36
213.065	53.76
213.283	98.81
213.502	-24.06
213.72	14.85
213.938	-19.97
214.157	-9.73
214.375	-38.4
214.594	-11.78
214.812	25.09
215.031	27.14
215.249	-28.16
215.467	53.76
215.686	20.99
215.904	55.81
216.122	41.47
216.341	66.05
216.559	8.7
216.778	18.94
216.996	72.19
217.214	51.71
217.432	0.51
217.651	70.14
217.869	-22.02
218.087	37.38
218.306	-34.3
218.524	64
218.742	-28.16
218.96	16.9
219.179	-22.02
219.397	43.52
219.615	94.72
219.833	88.57
220.051	29.18
220.27	8.7
220.488	0.51
220.706	45.57
220.924	16.9
221.142	31.23
221.36	-40.45
221.578	43.52
221.796	37.38
222.015	18.94
222.233	68.09
222.451	49.66
222.669	-22.02
222.887	12.8
223.105	35.33
223.323	8.7
223.541	-30.21
223.759	80.38
223.977	12.8
224.195	90.62
224.413	0.51
224.631	45.57
224.849	10.75
225.067	49.66
225.285	-30.21
225.503	-38.4
225.721	-24.06
225.939	76.29
226.157	-19.97
226.375	98.81
226.592	27.14
226.81	-7.68
227.028	45.57
227.246	49.66
227.464	55.81
227.682	74.24
227.9	70.14
228.117	51.71
228.335	51.71
228.553	8.7
228.771	0.51
228.989	10.75
229.206	8.7
229.424	39.42
229.642	-7.68
229.86	-73.21
230.077	41.47
230.295	43.52
230.513	82.43
230.731	-9.73
230.948	8.7
231.166	109.05
231.384	8.7
231.601	18.94
231.819	0.51
232.037	-24.06
232.254	-44.54
232.472	25.09
232.689	16.9
232.907	70.14
233.125	14.85
233.342	53.76
233.56	16.9
233.777	64
233.995	-22.02
234.213	109.05
234.43	47.62
234.648	66.05
234.865	8.7
235.083	-19.97
235.3	0.51
235.518	-52.74
235.735	94.72
235.953	107.01
236.17	-13.82
236.388	-22.02
236.605	29.18
236.822	12.8
237.04	35.33
237.257	37.38
237.475	-32.26
237.692	12.8
237.909	37.38
238.127	-24.06
238.344	33.28
238.562	25.09
238.779	8.7
238.996	8.7
239.214	2.56
239.431	-17.92
239.648	25.09
239.865	100.86
240.083	25.09
240.3	37.38
240.517	-30.21
240.735	25.09
240.952	41.47
241.169	-73.21
241.386	47.62
241.603	-13.82
241.821	-48.64
242.038	18.94
242.255	90.62
242.472	-60.93
242.689	25.09
242.907	49.66
243.124	-9.73
243.341	33.28
243.558	10.75
243.775	82.43
243.992	16.9
244.209	49.66
244.426	133.63
244.643	82.43
244.86	-71.17
245.078	31.23
245.295	-15.87
245.512	33.28
245.729	27.14
245.946	16.9
246.163	20.99
246.38	16.9
246.597	-5.63
246.814	39.42
247.031	41.47
247.248	96.77
247.464	59.9
247.681	74.24
247.898	6.66
248.115	86.53
248.332	57.86
248.549	45.57
248.766	41.47
248.983	31.23
249.2	2.56
249.417	33.28
249.633	20.99
249.85	57.86
250.067	57.86
250.284	10.75
250.501	61.95
250.717	25.09
250.934	8.7
251.151	4.61
251.368	-46.59
251.585	156.16
251.801	-38.4
252.018	6.66
252.235	-46.59
252.451	2.56
252.668	-1.54
252.885	37.38
253.102	43.52
253.318	45.57
253.535	-24.06
253.752	18.94
253.968	16.9
254.185	57.86
254.401	-32.26
254.618	49.66
254.835	2.56
255.051	37.38
255.268	0.51
255.484	-36.35
255.701	61.95
255.917	10.75
256.134	-7.68
256.351	92.67
256.567	-32.26
256.784	25.09
257	12.8
257.217	66.05
257.433	16.9
257.65	49.66
257.866	-24.06
258.082	-28.16
258.299	8.7
258.515	2.56
258.732	-3.58
258.948	-65.02
259.165	31.23
259.381	-69.12
259.597	-5.63
259.814	0.51
260.03	-32.26
260.246	14.85
260.463	47.62
260.679	12.8
260.895	70.14
261.112	51.71
261.328	8.7
261.544	-15.87
261.761	104.96
261.977	10.75
262.193	-5.63
262.409	25.09
262.626	-30.21
262.842	66.05
263.058	25.09
263.274	86.53
263.49	14.85
263.707	61.95
263.923	35.33
264.139	-7.68
264.355	20.99
264.571	68.09
264.787	74.24
265.004	37.38
265.22	16.9
265.436	-7.68
265.652	57.86
265.868	16.9
266.084	80.38
266.3	59.9
266.516	23.04
266.732	-48.64
266.948	47.62
267.164	10.75
267.38	16.9
267.596	76.29
267.812	12.8
268.028	59.9
268.244	-44.54
268.46	16.9
268.676	82.43
268.892	33.28
269.108	8.7
269.324	0.51
269.54	25.09
269.756	37.38
269.972	-85.5
270.188	-30.21
270.403	27.14
270.619	53.76
270.835	41.47
271.051	-11.78
271.267	12.8
271.483	-30.21
271.698	2.56
271.914	98.81
272.13	14.85
272.346	-7.68
272.562	45.57
272.777	74.24
272.993	0.51
273.209	10.75
273.425	20.99
273.64	-30.21
273.856	12.8
274.072	111.1
274.287	55.81
274.503	100.86
274.719	88.57
274.934	-17.92
275.15	16.9
275.366	53.76
275.581	49.66
275.797	82.43
276.012	41.47
276.228	59.9
276.444	70.14
276.659	33.28
276.875	-32.26
277.09	57.86
277.306	-28.16
277.521	25.09
277.737	-15.87
277.952	10.75
278.168	86.53
278.383	39.42
278.599	64
278.814	39.42
279.03	8.7
279.245	74.24
279.461	23.04
279.676	35.33
279.892	35.33
280.107	-26.11
280.322	23.04
280.538	-1.54
280.753	-40.45
280.969	-65.02
281.184	-54.78
281.399	37.38
281.615	-22.02
281.83	35.33
282.045	35.33
282.26	16.9
282.476	-28.16
282.691	51.71
282.906	39.42
283.122	4.61
283.337	-15.87
283.552	84.48
283.767	43.52
283.983	-30.21
284.198	-28.16
284.413	23.04
284.628	-32.26
284.843	20.99
285.058	68.09
285.274	57.86
285.489	25.09
285.704	35.33
285.919	33.28
286.134	43.52
286.349	-3.58
286.564	98.81
286.779	27.14
286.995	8.7
287.21	-30.21
287.425	90.62
287.64	-52.74
287.855	96.77
288.07	51.71
288.285	2.56
288.5	86.53
288.715	70.14
288.93	49.66
289.145	61.95
289.36	86.53
289.575	59.9
289.79	27.14
290.004	57.86
290.219	-15.87
290.434	-32.26
290.649	18.94
290.864	20.99
291.079	16.9
291.294	74.24
291.509	94.72
291.724	2.56
291.938	-30.21
292.153	-24.06
292.368	92.67
292.583	74.24
292.798	45.57
293.012	51.71
293.227	76.29
293.442	-15.87
293.657	8.7
293.871	43.52
294.086	20.99
294.301	131.58
294.516	33.28
294.73	-15.87
294.945	-15.87
295.16	74.24
295.374	29.18
295.589	49.66
295.804	-17.92
296.018	90.62
296.233	68.09
296.447	74.24
296.662	18.94
296.877	78.33
297.091	-48.64
297.306	-7.68
297.52	41.47
297.735	86.53
297.949	-24.06
298.164	-26.11
298.378	-5.63
298.593	27.14
298.807	-11.78
299.022	82.43
299.236	57.86
299.451	37.38
299.665	53.76
299.88	25.09
300.094	33.28
300.309	16.9
300.523	25.09
300.737	-73.21
300.952	-28.16
301.166	14.85
301.381	84.48
301.595	-7.68
301.809	41.47
302.024	8.7
302.238	12.8
302.452	76.29
302.667	33.28
302.881	80.38
303.095	61.95
303.309	10.75
303.524	-5.63
303.738	-1.54
303.952	92.67
304.166	-24.06
304.381	20.99
304.595	98.81
304.809	-28.16
305.023	18.94
305.237	94.72
305.452	-24.06
305.666	107.01
305.88	49.66
306.094	68.09
306.308	-7.68
306.522	59.9
306.736	-7.68
306.95	-7.68
307.164	66.05
307.379	23.04
307.593	92.67
307.807	18.94
308.021	-1.54
308.235	41.47
308.449	53.76
308.663	-3.58
308.877	98.81
309.091	14.85
309.305	25.09
309.519	-5.63
309.733	-7.68
309.947	20.99
310.161	66.05
310.374	49.66
310.588	18.94
310.802	20.99
311.016	45.57
311.23	18.94
311.444	-9.73
311.658	29.18
311.872	59.9
312.085	51.71
312.299	-7.68
312.513	59.9
312.727	41.47
312.941	4.61
313.154	-44.54
313.368	41.47
313.582	8.7
313.796	25.09
314.009	66.05
314.223	-5.63
314.437	35.33
314.651	115.2
314.864	-5.63
315.078	0.51
315.292	8.7
315.505	43.52
315.719	-30.21
315.933	20.99
316.146	0.51
316.36	-7.68
316.573	98.81
316.787	90.62
317.001	78.33
317.214	16.9
317.428	37.38
317.641	-3.58
317.855	8.7
318.068	18.94
318.282	-13.82
318.495	86.53
318.709	68.09
318.922	100.86
319.136	78.33
319.349	57.86
319.563	43.52
319.776	57.86
319.99	16.9
320.203	94.72
320.417	41.47
320.63	59.9
320.843	139.77
321.057	-40.45
321.27	-15.87
321.483	31.23
321.697	102.91
321.91	-24.06
322.124	-5.63
322.337	-38.4
322.55	47.62
322.763	92.67
322.977	-24.06
323.19	25.09
323.403	49.66
323.617	-5.63
323.83	74.24
324.043	8.7
324.256	66.05
324.469	35.33
324.683	45.57
324.896	-24.06
325.109	57.86
325.322	14.85
325.535	20.99
325.748	57.86
325.962	-9.73
326.175	53.76
326.388	-3.58
326.601	51.71
326.814	41.47
327.027	2.56
327.24	131.58
327.453	-15.87
327.666	59.9
327.879	23.04
328.092	86.53
328.305	25.09
328.518	-36.35
328.731	53.76
328.944	35.33
329.157	37.38
329.37	-7.68
329.583	64
329.796	57.86
330.009	-22.02
330.222	20.99
330.435	16.9
330.648	74.24
330.861	18.94
331.073	0.51
331.286	0.51
331.499	-15.87
331.712	39.42
331.925	-5.63
332.138	82.43
332.35	45.57
332.563	61.95
332.776	57.86
332.989	125.44
333.202	18.94
333.414	53.76
333.627	16.9
333.84	4.61
334.053	102.91
334.265	66.05
334.478	29.18
334.691	78.33
334.903	70.14
335.116	-30.21
335.329	2.56
335.541	57.86
335.754	76.29
335.966	6.66
336.179	57.86
336.392	78.33
336.604	102.91
336.817	59.9
337.029	0.51
337.242	49.66
337.454	18.94
337.667	18.94
337.88	8.7
338.092	59.9
338.305	-13.82
338.517	-36.35
338.729	-1.54
338.942	8.7
339.154	0.51
339.367	27.14
339.579	41.47
339.792	-22.02
340.004	-26.11
340.217	25.09
340.429	47.62
340.641	90.62
340.854	-22.02
341.066	-7.68
341.278	86.53
341.491	68.09
341.703	6.66
341.915	-26.11
342.128	0.51
342.34	49.66
342.552	4.61
342.764	-28.16
342.977	100.86
343.189	29.18
343.401	6.66
343.613	-15.87
343.826	-11.78
344.038	41.47
344.25	39.42
344.462	-11.78
344.674	66.05
344.886	98.81
345.099	80.38
345.311	27.14
345.523	-1.54
345.735	-44.54
345.947	86.53
346.159	-13.82
346.371	-38.4
346.583	33.28
346.795	20.99
347.007	2.56
347.219	29.18
347.431	80.38
347.643	68.09
347.855	10.75
348.067	14.85
348.279	-46.59
348.491	-17.92
348.703	94.72
348.915	94.72
349.127	78.33
349.339	-40.45
349.551	-40.45
349.763	90.62
349.975	59.9
350.187	98.81
350.399	107.01
350.61	-7.68
350.822	25.09
351.034	-11.78
351.246	49.66
351.458	68.09
351.669	16.9
351.881	49.66
352.093	-11.78
352.305	123.39
352.517	92.67
352.728	18.94
352.94	59.9
353.152	68.09
353.363	0.51
353.575	78.33
353.787	49.66
353.999	18.94
354.21	33.28
354.422	10.75
354.633	82.43
354.845	12.8
355.057	82.43
355.268	16.9
355.48	41.47
355.692	2.56
355.903	20.99
356.115	4.61
356.326	61.95
356.538	117.25
356.749	4.61
356.961	88.57
357.172	-26.11
357.384	-7.68
357.595	80.38
357.807	51.71
358.018	61.95
358.23	27.14
358.441	98.81
358.653	41.47
358.864	16.9
359.075	2.56
359.287	53.76
359.498	74.24
359.709	33.28
359.921	68.09
360.132	86.53
360.344	25.09
360.555	16.9
360.766	-13.82
360.977	59.9
361.189	29.18
361.4	-5.63
361.611	8.7
361.823	59.9
362.034	76.29
362.245	-5.63
362.456	68.09
362.667	-5.63
362.879	2.56
363.09	35.33
363.301	-19.97
363.512	76.29
363.723	47.62
363.935	-24.06
364.146	-11.78
364.357	45.57
364.568	96.77
364.779	-9.73
364.99	92.67
365.201	109.05
365.412	107.01
365.623	-15.87
365.834	12.8
366.045	-28.16
366.256	16.9
366.467	2.56
366.678	117.25
366.889	-22.02
367.1	64
367.311	35.33
367.522	90.62
367.733	43.52
367.944	55.81
368.155	-38.4
368.366	57.86
368.577	31.23
368.788	53.76
368.999	29.18
369.209	51.71
369.42	139.77
369.631	45.57
369.842	74.24
370.053	59.9
370.264	27.14
370.474	78.33
370.685	59.9
370.896	20.99
371.107	98.81
371.317	59.9
371.528	27.14
371.739	27.14
371.95	25.09
372.16	33.28
372.371	29.18
372.582	51.71
372.792	33.28
373.003	121.34
373.214	57.86
373.424	84.48
373.635	14.85
373.846	78.33
374.056	86.53
374.267	8.7
374.477	6.66
374.688	4.61
374.898	59.9
375.109	64
375.319	57.86
375.53	107.01
375.74	-17.92
375.951	-3.58
376.161	86.53
376.372	121.34
376.582	70.14
376.793	57.86
377.003	57.86
377.214	-30.21
377.424	66.05
377.635	51.71
377.845	8.7
378.055	29.18
378.266	31.23
378.476	8.7
378.686	102.91
378.897	57.86
379.107	41.47
379.317	2.56
379.528	53.76
379.738	53.76
379.948	4.61
380.158	49.66
380.369	27.14
380.579	84.48
380.789	4.61
380.999	37.38
381.21	20.99
381.42	100.86
381.63	35.33
381.84	45.57
382.05	66.05
382.261	-11.78
382.471	35.33
382.681	8.7
382.891	4.61
383.101	107.01
383.311	14.85
383.521	39.42
383.731	35.33
383.941	123.39
384.151	-38.4
384.361	12.8
384.571	-15.87
384.781	25.09
384.991	59.9
385.201	127.49
385.411	82.43
385.621	47.62
385.831	25.09
386.041	-32.26
386.251	107.01
386.461	8.7
386.671	35.33
386.881	25.09
387.091	-7.68
387.301	82.43
387.511	49.66
387.72	49.66
387.93	51.71
388.14	-3.58
388.35	102.91
388.56	86.53
388.769	76.29
388.979	88.57
389.189	16.9
389.399	37.38
389.609	66.05
389.818	47.62
390.028	45.57
390.238	51.71
390.447	18.94
390.657	80.38
390.867	82.43
391.076	0.51
391.286	39.42
391.496	12.8
391.705	27.14
391.915	90.62
392.125	43.52
392.334	102.91
392.544	74.24
392.753	94.72
392.963	61.95
393.172	72.19
393.382	51.71
393.591	143.87
393.801	98.81
394.01	125.44
394.22	33.28
394.429	133.63
394.639	14.85
394.848	18.94
395.058	90.62
395.267	18.94
395.477	-5.63
395.686	-32.26
395.895	107.01
396.105	111.1
396.314	119.29
396.524	125.44
396.733	100.86
396.942	98.81
397.152	29.18
397.361	82.43
397.57	86.53
397.78	123.39
397.989	86.53
398.198	107.01
398.407	131.58
398.617	51.71
398.826	76.29
399.035	109.05
399.244	82.43
399.453	43.52
399.663	74.24
399.872	90.62
400.081	90.62
400.29	117.25
400.499	49.66
400.708	57.86
400.917	68.09
401.127	115.2
401.336	92.67
401.545	152.06
401.754	141.82
401.963	98.81
402.172	127.49
402.381	45.57
402.59	115.2
402.799	121.34
403.008	158.21
403.217	104.96
403.426	88.57
403.635	57.86
403.844	84.48
404.053	127.49
404.262	45.57
404.471	209.4
404.68	150.01
404.888	156.16
405.097	98.81
405.306	221.69
405.515	145.92
405.724	143.87
405.933	100.86
406.142	213.5
406.35	180.73
406.559	68.09
406.768	209.4
406.977	209.4
407.185	182.78
407.394	207.36
407.603	111.1
407.812	287.23
408.02	248.32
408.229	131.58
408.438	203.26
408.646	254.46
408.855	221.69
409.064	193.02
409.272	252.41
409.481	258.56
409.69	250.36
409.898	244.22
410.107	279.04
410.315	291.32
410.524	254.46
410.733	330.23
410.941	309.76
411.15	297.47
411.358	352.76
411.567	393.72
411.775	391.67
411.984	340.47
412.192	369.15
412.401	410.11
412.609	430.59
412.818	338.43
413.026	451.07
413.234	469.5
413.443	459.26
413.651	467.45
413.86	524.79
414.068	610.81
414.276	551.42
414.485	610.81
414.693	559.61
414.901	614.9
415.11	573.94
415.318	621.05
415.526	619
415.734	668.15
415.943	737.78
416.151	745.97
416.359	748.02
416.567	774.64
416.776	834.04
416.984	817.65
417.192	827.89
417.4	805.36
417.608	893.43
417.817	918
418.025	983.54
418.233	1016.3
418.441	981.49
418.649	1010.16
418.857	1067.5
419.065	1214.96
419.273	1087.98
419.481	1104.37
419.689	1165.81
419.897	1337.84
420.105	1307.12
420.313	1319.4
420.521	1374.7
420.729	1399.27
420.937	1503.72
421.145	1632.74
421.353	1597.93
421.561	1745.38
421.769	1704.42
421.977	1845.73
422.185	1747.43
422.393	1802.72
422.601	2050.53
422.809	2046.43
423.017	2036.19
423.224	2171.36
423.432	2195.93
423.64	2187.74
423.848	2310.62
424.056	2331.1
424.263	2435.55
424.471	2453.98
424.679	2515.42
424.887	2654.68
425.094	2695.64
425.302	2793.94
425.51	2873.81
425.718	2943.44
425.925	2851.28
426.133	3037.65
426.341	3242.45
426.548	3424.72
426.756	3426.76
426.964	3312.08
427.171	3690.95
427.379	3811.78
427.586	3703.24
427.794	3869.12
428.001	4141.5
428.209	4354.49
428.417	4172.22
428.624	4565.43
428.832	4479.42
429.039	4438.46
429.247	4547
429.454	4934.07
429.662	5212.59
429.869	4807.09
430.076	5308.85
430.284	5089.71
430.491	5284.27
430.699	5583.27
430.906	5624.23
431.114	5695.91
431.321	5974.44
431.528	5992.87
431.736	6218.15
431.943	6549.92
432.15	6515.1
432.358	6537.63
432.565	6824.34
432.772	6916.5
432.979	7410.06
433.187	7330.19
433.394	7446.93
433.601	7803.27
433.808	7797.13
434.016	7768.46
434.223	8020.36
434.43	8860.02
434.637	8569.21
434.844	8980.85
435.052	9140.6
435.259	9218.42
435.466	9040.25
435.673	9167.22
435.88	9900.39
436.087	10262.88
436.294	10240.36
436.501	10002.79
436.708	10131.81
436.915	10711.39
437.122	11004.25
437.329	10924.38
437.537	11280.72
437.743	11534.67
437.95	11659.6
438.157	11665.74
438.364	12486.98
438.571	12536.13
438.778	12437.83
438.985	13484.34
439.192	13207.86
439.399	13224.25
439.606	12927.29
439.813	13973.8
440.02	14758.17
440.227	14461.22
440.433	14389.54
440.64	14825.76
440.847	14836
441.054	15251.74
441.261	16161.03
441.467	15829.26
441.674	16271.62
441.881	16769.28
442.088	16638.21
442.294	16441.61
442.501	17115.39
442.708	17035.52
442.914	18034.92
443.121	18718.95
443.328	18172.14
443.534	19124.44
443.741	19071.2
443.948	18858.21
444.154	20109.52
444.361	20119.76
444.568	20232.4
444.774	20148.43
444.981	20392.14
445.187	20779.2
445.394	21833.91
445.6	21694.64
445.807	23715.99
446.013	22524.07
446.22	23199.9
446.426	23838.87
446.633	24219.79
446.839	24846.47
447.046	23668.89
447.252	25182.34
447.459	25026.69
447.665	24899.72
447.871	26366.06
448.078	27406.43
448.284	26255.47
448.491	26937.44
448.697	28139.6
448.903	28452.94
449.11	28067.92
449.316	27699.29
449.522	28285.01
449.728	29370.43
449.935	29204.55
450.141	29456.45
450.347	29937.72
450.553	29122.63
450.76	28956.74
450.966	30335.03
451.172	29894.71
451.378	30947.37
451.584	30126.13
451.791	31291.43
451.997	30783.53
452.203	31395.87
452.409	31447.07
452.615	31551.52
452.821	29952.05
453.027	29904.95
453.233	31019.05
453.44	29853.75
453.646	30316.59
453.852	30490.67
454.058	31131.68
454.264	29950.01
454.47	30709.8
454.676	30036.02
454.882	31121.45
455.088	28121.17
455.294	28850.25
455.5	29098.05
455.705	29679.68
455.911	28213.33
456.117	27713.63
456.323	27363.42
456.529	26120.31
456.735	26882.15
456.941	26538.09
457.147	26144.88
457.352	25315.45
457.558	24813.7
457.764	25151.62
457.97	24670.34
458.176	23863.44
458.381	23781.53
458.587	22982.82
458.793	22802.6
458.999	21821.62
459.204	23498.91
459.41	22507.69
459.616	21287.1
459.821	21190.84
460.027	21209.28
460.233	20488.39
460.438	19646.68
460.644	19939.54
460.85	19136.73
461.055	18718.95
461.261	18526.44
461.466	17223.93
461.672	16761.09
461.878	17854.7
462.083	16578.82
462.289	16646.4
462.494	16195.85
462.7	15391
462.905	14999.84
463.111	15847.69
463.316	15653.14
463.522	15354.13
463.727	15360.28
463.932	15350.04
464.138	14975.26
464.343	15460.63
464.549	14792.99
464.754	15343.89
464.959	15331.61
465.165	15034.65
465.37	14317.86
465.575	13674.8
465.781	14717.22
465.986	14700.83
466.191	14184.74
466.397	13685.04
466.602	13082.94
466.807	13599.02
467.012	13644.08
467.218	13498.67
467.423	13394.23
467.628	13369.65
467.833	14141.74
468.038	13631.79
468.244	13216.05
468.449	13773.1
468.654	13052.22
468.859	13228.34
469.064	13084.98
469.269	12656.96
469.474	12763.45
469.679	13173.05
469.885	12732.73
470.09	12591.42
470.295	12898.62
470.5	12210.5
470.705	12468.55
470.91	12228.93
471.115	12001.61
471.32	12235.08
471.525	12190.02
471.73	11886.92
471.935	11919.69
472.139	11397.46
472.344	11522.38
472.549	11276.63
472.754	11452.75
472.959	11086.17
473.164	10975.58
473.369	10717.53
473.574	11092.31
473.778	11043.16
473.983	10883.42
474.188	10977.62
474.393	10396
474.598	10580.32
474.802	10463.58
475.007	10522.98
475.212	10289.51
475.417	9904.49
475.621	10162.53
475.826	9961.83
476.031	9855.34
476.235	9562.48
476.44	9773.42
476.645	9312.63
476.849	9605.49
477.054	9298.29
477.259	9351.54
477.463	9308.53
477.668	9050.49
477.872	9199.99
478.077	8943.99
478.282	8745.34
478.486	8923.51
478.691	8753.53
478.895	8960.38
479.1	8626.56
479.304	8659.32
479.509	8458.62
479.713	8597.88
479.918	8413.57
480.122	8169.86
480.326	8401.28
480.531	8364.42
480.735	8315.27
480.94	8292.74
481.144	8429.95
481.348	7784.84
481.553	8221.06
481.757	8118.66
481.961	8110.47
482.166	8126.85
482.37	8196.48
482.574	7995.78
482.778	8026.5
482.983	8235.39
483.187	8149.38
483.391	8153.48
483.595	7905.67
483.8	7803.27
484.004	7999.88
484.208	8049.03
484.412	7930.25
484.616	8173.96
484.821	7897.48
485.025	8014.21
485.229	7993.73
485.433	8110.47
485.637	8184.2
485.841	8096.13
486.045	8026.5
486.249	8038.79
486.453	7766.41
486.657	7995.78
486.861	8001.93
487.065	7848.33
487.269	8046.98
487.473	7610.76
487.677	8049.03
487.881	8038.79
488.085	8034.69
488.289	8116.61
488.493	7819.66
488.697	7856.52
488.901	7958.92
489.105	7975.3
489.309	7985.54
489.512	8149.38
489.716	7977.35
489.92	7989.64
490.124	8030.6
490.328	8126.85
490.531	8126.85
490.735	8126.85
490.939	8057.22
491.143	7997.83
491.346	8290.69
491.55	8251.78
491.754	8397.18
491.958	8399.23
492.161	8259.97
492.365	8499.58
492.569	8305.03
492.772	8427.9
492.976	8554.88
493.18	8470.91
493.383	8817.02
493.587	8628.6
493.79	8778.11
493.994	8520.06
494.197	8747.39
494.401	8642.94
494.605	8882.55
494.808	8913.27
495.012	9046.39
495.215	9027.96
495.419	9159.03
495.622	9048.44
495.825	9226.61
496.029	9212.28
496.232	9539.95
496.436	9429.36
496.639	9578.86
496.843	9546.09
497.046	9589.1
497.249	9857.39
497.453	9650.54
497.656	10078.57
497.859	9797.99
498.063	10113.38
498.266	10383.71
498.469	10334.56
498.673	10363.23
498.876	10633.57
499.079	10676.57
499.282	10641.76
499.485	10948.95
499.689	10926.43
499.892	10942.81
500.095	11166.04
500.298	11608.4
500.501	11243.86
500.705	11635.02
500.908	11612.49
501.111	11665.74
501.314	11880.78
501.517	12155.21
501.72	12304.71
501.923	12185.93
502.126	12474.69
502.329	12476.74
502.532	12618.05
502.735	12894.52
502.938	12988.73
503.141	13134.14
503.344	13289.78
503.547	13132.09
503.75	13467.95
503.953	13762.86
504.156	13887.79
504.359	13838.64
504.562	14055.72
504.765	14209.32
504.968	14641.44
505.17	14520.61
505.373	14956.83
505.576	14819.61
505.779	15155.48
505.982	15180.06
506.185	15618.32
506.387	15434
506.59	15714.58
506.793	15919.37
506.996	15665.42
507.198	16318.73
507.401	15984.91
507.604	16320.77
507.807	16623.87
508.009	16767.23
508.212	16847.1
508.415	17164.54
508.617	17613.04
508.82	17289.46
509.022	17266.94
509.225	17762.54
509.428	17692.91
509.63	17830.13
509.833	18006.25
510.035	18686.18
510.238	18395.37
510.44	18761.95
510.643	18628.84
510.845	18872.54
511.048	19153.12
511.25	19427.54
511.453	19738.83
511.655	20355.27
511.858	19968.21
512.06	20175.05
512.262	20332.75
512.465	20275.4
512.667	20832.45
512.87	21070.01
513.072	20857.03
513.274	21328.06
513.477	21504.18
513.679	21573.81
513.881	21897.39
514.084	22085.81
514.286	22200.49
514.488	22382.76
514.69	23023.78
514.893	23054.5
515.095	22915.23
515.297	23218.33
515.499	23126.18
515.701	23656.6
515.904	24301.71
516.106	23974.03
516.308	24187.02
516.51	24346.76
516.712	24348.81
516.914	24887.43
517.116	25294.97
517.318	25405.56
517.52	25262.21
517.722	25237.63
517.925	25948.28
518.127	26163.31
518.329	26421.36
518.531	26482.8
518.733	26613.87
518.935	26939.49
519.136	26927.21
519.338	27091.04
519.54	27504.73
519.742	28072.02
519.944	27908.18
520.146	28035.16
520.348	28325.97
520.55	28346.45
520.752	28766.28
520.954	29085.76
521.155	28844.1
521.357	29403.2
521.559	29632.57
521.761	29947.96
521.963	29788.22
522.164	30040.12
522.366	30163
522.568	30533.68
522.77	30861.35
522.971	30916.65
523.173	31094.82
523.375	30908.46
523.576	30838.83
523.778	31500.32
523.98	31604.77
524.181	31555.61
524.383	31492.13
524.584	32077.85
524.786	32337.94
524.988	31940.63
525.189	32479.25
525.391	32669.71
525.592	32778.25
525.794	32823.31
525.995	32811.02
526.197	33085.45
526.398	33216.52
526.6	33392.64
526.801	33695.74
527.003	33677.31
527.204	33538.05
527.406	34056.18
527.607	33595.39
527.808	33910.78
528.01	33992.7
528.211	33861.63
528.412	34760.69
528.614	34195.45
528.815	34533.36
529.016	34834.41
529.218	34783.21
529.419	34404.34
529.62	35012.59
529.822	34707.44
530.023	35004.39
530.224	34965.48
530.425	34854.89
530.626	34828.27
530.828	34881.52
531.029	35653.6
531.23	35104.74
531.431	35176.42
531.632	35227.62
531.833	35495.91
532.035	35063.78
532.236	35076.07
532.437	35702.75
532.638	35332.07
532.839	35473.38
533.04	35594.21
533.241	35114.98
533.442	35614.69
533.643	35657.7
533.844	35334.12
534.045	35790.81
534.246	35373.03
534.447	35444.71
534.648	35459.04
534.849	35756
535.05	35506.15
535.251	35362.79
535.451	35438.56
535.652	35430.37
535.853	35659.74
536.054	35393.51
536.255	35692.51
536.456	35086.31
536.657	35950.56
536.857	35387.36
537.058	35649.5
537.259	35633.12
537.46	35682.27
537.66	35098.6
537.861	35344.36
538.062	35315.69
538.263	35520.48
538.463	35215.33
538.664	35151.85
538.865	35401.7
539.065	35913.69
539.266	35049.45
539.466	35817.44
539.667	35055.59
539.868	35799.01
540.068	35549.15
540.269	35141.61
540.469	35725.28
540.67	35377.12
540.87	35067.88
541.071	35430.37
541.271	35680.22
541.472	35395.56
541.672	35248.1
541.873	35125.22
542.073	34953.19
542.274	35725.28
542.474	35094.5
542.675	34938.86
542.875	35790.81
543.075	35096.55
543.276	34955.24
543.476	35375.08
543.676	35112.94
543.877	35379.17
544.077	35536.87
544.277	35182.57
544.478	35035.11
544.678	35201
544.878	35071.98
545.078	35340.26
545.279	34750.45
545.479	35069.93
545.679	35317.73
545.879	35098.6
546.079	35403.75
546.28	34854.89
546.48	34934.76
546.68	35491.81
546.88	35094.5
547.08	35297.25
547.28	35037.16
547.48	34703.34
547.68	35358.69
547.88	34824.17
548.081	35350.5
548.281	35303.4
548.481	34801.64
548.681	35084.26
548.881	35039.21
549.081	35041.26
549.28	35090.41
549.48	35205.09
549.68	34801.64
549.88	35213.29
550.08	35334.12
550.28	35172.33
550.48	34729.97
550.68	35268.58
550.88	34807.79
551.08	34945
551.279	34711.53
551.479	34508.79
551.679	34945
551.879	35117.03
552.079	35174.38
552.278	34639.86
552.478	34740.21
552.678	34918.38
552.878	34877.42
553.077	34711.53
553.277	34525.17
553.477	35141.61
553.676	34639.86
553.876	34781.17
554.076	34390
554.275	34461.68
554.475	34525.17
554.674	34895.85
554.874	34740.21
555.074	34383.86
555.273	34795.5
555.473	34865.13
555.672	34543.6
555.872	34750.45
556.071	34334.71
556.271	34695.15
556.47	34373.62
556.67	34332.66
556.869	34516.98
557.068	34344.95
557.268	34385.91
557.467	34344.95
557.667	34203.64
557.866	34164.73
558.065	34271.22
558.265	34041.85
558.464	33927.16
558.663	34375.67
558.863	33839.1
559.062	34238.45
559.261	34000.89
559.461	34359.28
559.66	33357.83
559.859	33949.69
560.058	33738.75
560.258	33470.47
560.457	33253.38
560.656	33875.96
560.855	33675.26
561.054	33972.22
561.253	33415.17
561.453	33470.47
561.652	33654.78
561.851	33765.37
562.05	33413.12
562.249	33167.37
562.448	33583.1
562.647	33271.81
562.846	33271.81
563.045	33067.02
563.244	32913.42
563.443	33357.83
563.642	32888.84
563.841	32792.59
564.04	32942.09
564.239	33271.81
564.438	32714.76
564.637	32886.79
564.836	32763.92
565.035	32569.36
565.234	32907.27
565.432	32442.38
565.631	32237.59
565.83	32571.41
566.029	32600.08
566.228	32759.82
566.427	32221.2
566.625	32190.48
566.824	32053.27
567.023	32145.43
567.222	31512.61
567.42	32278.55
567.619	31557.66
567.818	31733.79
568.016	31852.57
568.215	32077.85
568.414	31832.09
568.612	31875.1
568.811	31723.55
569.01	31782.94
569.208	31103.01
569.407	31584.29
569.605	31002.66
569.804	31983.64
570.002	31301.67
570.201	31367.2
570.4	31117.35
570.598	30875.69
570.797	30646.32
570.995	31240.23
571.193	30466.1
571.392	30875.69
571.59	30726.19
571.789	30748.71
571.987	30466.1
572.186	30359.6
572.384	30527.53
572.582	30634.03
572.781	30466.1
572.979	30324.79
573.177	30230.58
573.376	30486.57
573.574	29788.22
573.772	30136.37
573.971	29878.33
574.169	29964.34
574.367	29720.63
574.565	29941.82
574.763	29478.97
574.962	29585.47
575.16	29233.22
575.358	29661.24
575.556	29302.85
575.754	29321.28
575.952	29216.83
576.151	29671.48
576.349	29034.56
576.547	28993.61
576.745	29237.31
576.943	29179.97
577.141	28684.36
577.339	28862.54
577.537	28790.86
577.735	28860.49
577.933	28551.24
578.131	28524.62
578.329	28291.15
578.527	28457.04
578.725	28584.01
578.923	28735.56
579.121	28209.23
579.319	28139.6
579.516	28541
579.714	28051.54
579.912	28000.34
580.11	27988.05
580.308	28067.92
580.506	27908.18
580.704	27064.42
580.901	27977.81
581.099	28229.71
581.297	27549.79
581.495	27289.7
581.692	27590.75
581.89	27035.75
582.088	27584.6
582.285	26972.26
582.483	27443.29
582.681	27388
582.878	26890.34
583.076	26728.55
583.274	27261.02
583.471	26638.44
583.669	26591.34
583.866	26511.47
584.064	26800.23
584.262	26468.46
584.459	26783.85
584.657	26224.75
584.854	26835.05
585.052	26083.44
585.249	26339.44
585.447	26396.78
585.644	26110.07
585.841	26370.16
586.039	26234.99
586.236	25753.72
586.434	26044.53
586.631	25974.9
586.828	25682.04
587.026	25841.78
587.223	25671.8
587.42	25323.65
587.618	25743.48
587.815	25342.08
588.012	25047.17
588.21	25340.03
588.407	25229.44
588.604	24909.96
588.801	24694.92
588.999	24766.6
589.196	24920.2
589.393	24938.63
589.59	24823.94
589.787	24850.56
589.984	24572.04
590.182	24365.2
590.379	24782.98
590.576	24424.59
590.773	24594.57
590.97	23967.89
591.167	24467.59
591.364	24084.62
591.561	24076.43
591.758	23918.74
591.955	23879.83
592.152	23715.99
592.349	23715.99
592.546	23726.23
592.743	23507.1
592.94	23302.3
593.137	23539.86
593.334	23740.57
593.531	23163.04
593.727	23427.23
593.924	23449.75
594.121	23031.97
594.318	23206.05
594.515	23320.73
594.712	23416.99
594.908	22790.31
595.105	22956.19
595.302	22626.47
595.499	23046.3
595.696	22970.53
595.892	22630.57
596.089	22710.44
596.286	22712.49
596.482	22532.26
596.679	22669.48
596.876	22481.06
597.072	22128.81
597.269	22091.95
597.466	22216.88
597.662	21905.59
597.859	21987.5
598.055	22263.98
598.252	22012.08
598.448	22028.46
598.645	21743.8
598.841	21704.88
599.038	21848.24
599.234	21553.34
599.431	21438.65
599.627	21432.5
599.824	21893.3
600.02	21473.46
600.217	21452.98
600.413	21274.81
600.609	21495.99
600.806	21330.11
601.002	21110.97
601.198	20850.88
601.395	21076.16
601.591	21024.96
601.787	20902.08
601.984	20791.49
602.18	21240
602.376	20570.31
602.572	20848.83
602.769	20633.8
602.965	20263.11
603.161	20375.75
603.357	20494.54
603.553	20443.34
603.75	20320.46
603.946	19980.5
604.142	20179.15
604.338	19853.52
604.534	19796.18
604.73	19740.88
604.926	19781.84
605.122	19753.17
605.318	19925.2
605.514	19620.05
605.71	19665.11
605.906	19458.26
606.102	19583.19
606.298	19493.08
606.494	19458.26
606.69	19701.97
606.886	19671.25
607.082	19536.09
607.278	19325.15
607.474	19265.75
607.67	19368.15
607.866	19271.9
608.062	19296.47
608.257	19202.27
608.453	19063.01
608.649	19011.81
608.845	18720.99
609.041	19044.57
609.236	18792.67
609.432	18802.91
609.628	18893.02
609.824	18901.22
610.019	19128.54
610.215	18817.25
610.411	18956.51
610.606	18641.12
610.802	18743.52
610.998	18673.89
611.193	18659.56
611.389	18589.92
611.584	18563.3
611.78	18311.4
611.976	18776.29
612.171	18467.05
612.367	18301.16
612.562	18147.56
612.758	18059.5
612.953	17996.01
613.149	18401.51
613.344	18163.95
613.539	18415.85
613.735	17733.87
613.93	18059.5
614.126	17928.43
614.321	18120.94
614.517	17953.01
614.712	17807.6
614.907	17873.14
615.103	18073.84
615.298	18067.69
615.493	18098.41
615.688	17613.04
615.884	18079.98
616.079	17611
616.274	17678.58
616.47	17613.04
616.665	17547.51
616.86	17486.07
617.055	17678.58
617.25	17572.08
617.445	17576.18
617.641	17441.01
617.836	17498.36
618.031	17242.36
618.226	17275.13
618.421	17170.68
618.616	17379.57
618.811	16992.51
619.006	16984.32
619.201	16947.45
619.396	17004.8
619.591	16455.94
619.786	16877.82
619.981	16531.72
620.176	16795.9
620.371	16574.72
620.566	16623.87
620.761	16468.23
620.956	16525.57
621.151	16433.41
621.346	16441.61
621.541	15980.81
621.735	16238.86
621.93	15966.48
622.125	16044.3
622.32	15880.46
622.515	15991.05
622.709	15741.2
622.904	15790.35
623.099	15716.62
623.294	15360.28
623.488	15595.79
623.683	15335.7
623.878	15354.13
624.072	15200.54
624.267	15057.18
624.462	14897.44
624.656	14782.75
624.851	14995.74
625.046	14991.64
625.24	14858.53
625.435	14608.67
625.629	14688.54
625.824	14588.19
626.018	14254.37
626.213	14278.95
626.407	14332.2
626.602	14025
626.796	14086.44
626.991	14176.55
627.185	14270.76
627.38	14014.76
627.574	13857.07
627.768	13631.79
627.963	13873.45
628.157	13723.95
628.352	13781.29
628.546	13381.94
628.74	13435.19
628.935	13242.68
629.129	13418.8
629.323	13082.94
629.517	13275.45
629.712	13197.62
629.906	12994.87
630.1	12802.36
630.294	12783.93
630.489	12581.18
630.683	12671.29
630.877	12489.03
631.071	12517.7
631.265	12788.03
631.459	12400.96
631.653	12329.28
631.848	12493.12
632.042	12374.34
632.236	12366.15
632.43	12071.24
632.624	12104.01
632.818	12034.38
633.012	11891.02
633.206	11809.1
633.4	11848.01
633.594	11870.54
633.788	11866.44
633.982	11985.23
634.176	11665.74
634.369	11780.43
634.563	11567.44
634.757	11526.48
634.951	11602.25
635.145	11424.08
635.339	11456.85
635.533	11460.95
635.726	11295.06
635.92	10940.76
636.114	10963.29
636.308	10883.42
636.501	11082.07
636.695	11049.3
636.889	10936.67
637.083	10914.14
637.276	10692.96
637.47	10574.17
637.664	10570.08
637.857	10760.54
638.051	10404.19
638.244	10426.72
638.438	10543.46
638.632	10359.14
638.825	10195.3
639.019	10068.33
639.212	10232.16
639.406	10209.64
639.599	10312.03
639.793	10013.03
639.986	10047.85
640.18	9873.77
640.373	9816.43
640.567	9732.46
640.76	9800.04
640.954	9576.81
641.147	9754.99
641.34	9720.17
641.534	9617.77
641.727	9570.67
641.92	9369.97
642.114	9304.43
642.307	9224.56
642.5	9329.01
642.694	9156.98
642.887	9240.95
643.08	9271.67
643.273	9177.46
643.467	9253.23
643.66	8978.81
643.853	8888.7
644.046	8700.28
644.239	8796.54
644.432	8905.08
644.626	8833.4
644.819	8690.04
645.012	8733.05
645.205	8612.22
645.398	8849.78
645.591	8409.47
645.784	8307.07
645.977	8395.14
646.17	8368.51
646.363	8497.53
646.556	8251.78
646.749	8354.18
646.942	8352.13
647.135	8192.39
647.328	8454.53
647.521	8229.25
647.714	8032.65
647.907	7991.69
648.099	8098.18
648.292	7979.4
648.485	8061.32
648.678	7913.86
648.871	7817.61
649.064	7915.91
649.256	7770.51
649.449	7836.04
649.642	7709.07
649.835	7678.35
650.027	7647.63
650.22	7516.56
650.413	7571.85
650.605	7547.28
650.798	7573.9
650.991	7410.06
651.183	7516.56
651.376	7283.09
651.568	7324.05
651.761	7258.51
651.954	7262.61
652.146	7258.51
652.339	7100.82
652.531	7213.46
652.724	7125.4
652.916	7039.38
653.109	6904.21
653.301	6979.99
653.494	6986.13
653.686	6820.25
653.879	6939.03
654.071	6750.62
654.263	6572.44
654.456	6779.29
654.648	6760.86
654.84	6660.51
655.033	6715.8
655.225	6865.3
655.417	6652.31
655.61	6406.56
655.802	6633.88
655.994	6562.2
656.186	6447.52
656.379	6465.95
656.571	6529.44
656.763	6408.61
656.955	6402.46
657.148	6412.7
657.34	6304.16
657.532	6189.47
657.724	6250.91
657.916	6277.54
658.108	6332.83
658.3	6222.24
658.492	6054.31
658.684	5951.91
658.876	6160.8
659.068	6015.4
659.26	5974.44
659.452	5960.1
659.644	5910.95
659.836	5751.21
660.028	5996.96
660.22	5734.82
660.412	5808.55
660.604	5669.29
660.796	5800.36
660.988	5753.26
661.18	5622.19
661.372	5499.31
661.563	5654.95
661.755	5632.43
661.947	5548.46
662.139	5513.64
662.331	5489.07
662.522	5611.95
662.714	5355.95
662.906	5505.45
663.097	5370.29
663.289	5325.23
663.481	5339.57
663.673	5407.15
663.864	5335.47
664.056	5317.04
664.247	5286.32
664.439	5177.78
664.631	5247.41
664.822	5007.8
665.014	5081.52
665.205	5013.94
665.397	5155.25
665.588	5007.8
665.78	4987.32
665.971	5079.47
666.163	5163.44
666.354	4989.36
666.546	5009.84
666.737	4886.97
666.929	5001.65
667.12	4858.29
667.311	4948.4
667.503	4983.22
667.694	4792.76
667.885	4925.88
668.077	4805.05
668.268	4719.03
668.459	4714.94
668.651	4743.61
668.842	4751.8
669.033	4669.88
669.224	4805.05
669.416	4786.61
669.607	4618.68
669.798	4493.76
669.989	4610.49
670.18	4622.78
670.371	4514.24
670.563	4465.08
670.754	4528.57
670.945	4657.59
671.136	4469.18
671.327	4526.52
671.518	4553.15
671.709	4606.39
671.9	4354.49
672.091	4358.59
672.282	4272.57
672.473	4393.4
672.664	4231.62
672.855	4280.77
673.046	4426.17
673.237	4415.93
673.428	4391.36
673.619	4336.06
673.809	4184.51
674	4342.21
674.191	4280.77
674.382	4235.71
674.573	4198.85
674.764	4137.41
674.954	4227.52
675.145	4186.56
675.336	4237.76
675.527	3910.08
675.717	4116.93
675.908	4055.49
676.099	4141.5
676.289	4082.11
676.48	4075.97
676.671	4080.07
676.861	4096.45
677.052	4129.22
677.243	3938.76
677.433	3957.19
677.624	4084.16
677.814	4043.2
678.005	3916.23
678.195	4049.35
678.386	4030.91
678.576	4030.91
678.767	3965.38
678.957	3785.16
679.148	4024.77
679.338	3959.24
679.529	3901.89
679.719	3869.12
679.909	3932.61
680.1	3793.35
680.29	3875.27
680.481	3844.55
680.671	3793.35
680.861	3940.8
681.052	3803.59
681.242	3828.17
681.432	3840.45
681.622	3893.7
681.813	3711.43
682.003	3785.16
682.193	3776.97
682.383	3785.16
682.573	3705.29
682.764	3738.05
682.954	3801.54
683.144	3586.51
683.334	3752.39
683.524	3631.56
683.714	3774.92
683.904	3703.24
684.094	3731.91
684.284	3752.39
684.474	3682.76
684.664	3602.89
684.854	3662.28
685.044	3670.47
685.234	3678.66
685.424	3563.98
685.614	3623.37
685.804	3582.41
685.994	3606.98
686.184	3463.63
686.374	3688.9
686.564	3523.02
686.753	3516.87
686.943	3467.72
687.133	3486.15
687.323	3432.91
687.513	3498.44
687.702	3432.91
687.892	3488.2
688.082	3404.24
688.272	3367.37
688.461	3463.63
688.651	3385.8
688.841	3482.06
689.03	3305.93
689.22	3361.23
689.41	3326.41
689.599	3172.82
689.789	3174.86
689.979	3305.93
690.168	3205.58
690.358	3267.02
690.547	3224.01
690.737	3285.45
690.926	3121.62
691.116	3213.77
691.305	3254.73
691.495	3099.09
691.684	3105.23
691.874	3107.28
692.063	3162.58
692.252	3041.75
692.442	3172.82
692.631	2988.5
692.82	2941.4
693.01	3039.7
693.199	3056.08
693.388	2941.4
693.578	3039.7
693.767	3047.89
693.956	3017.17
694.146	2820.56
694.335	2902.48
694.524	2800.09
694.713	3148.24
694.902	2839
695.092	2853.33
695.281	2916.82
695.47	2744.79
695.659	2910.68
695.848	2830.8
696.037	2763.22
696.226	2826.71
696.415	2773.46
696.604	2826.71
696.793	2863.57
696.982	2709.97
697.171	2798.04
697.36	2824.66
697.549	2662.87
697.738	2855.38
697.927	2740.69
698.116	2802.13
698.305	2662.87
698.494	2714.07
698.683	2564.57
698.872	2695.64
699.061	2765.27
699.25	2683.35
699.438	2816.47
699.627	2679.26
699.816	2763.22
700.005	2755.03
700.193	2781.65
700.382	2812.37
700.571	2714.07
700.76	2613.72
700.948	2589.14
701.137	2628.06
701.326	2748.89
701.514	2712.02
701.703	2648.54
701.892	2554.33
702.08	2634.2
702.269	2648.54
702.457	2535.9
702.646	2560.47
702.834	2671.06
703.023	2576.86
703.212	2730.45
703.4	2505.18
703.589	2576.86
703.777	2535.9
703.965	2482.65
704.154	2589.14
704.342	2607.58
704.531	2531.8
704.719	2427.35
704.907	2580.95
705.096	2486.75
705.284	2503.13
705.472	2474.46
705.661	2615.77
705.849	2519.51
706.037	2566.62
706.226	2533.85
706.414	2529.75
706.602	2417.12
706.79	2564.57
706.979	2509.27
707.167	2626.01
707.355	2353.63
707.543	2556.38
707.731	2478.55
707.919	2515.42
708.107	2408.92
708.296	2453.98
708.484	2449.88
708.672	2542.04
708.86	2468.31
709.048	2503.13
709.236	2435.55
709.424	2638.3
709.612	2496.99
709.8	2478.55
709.988	2558.42
710.176	2410.97
710.364	2415.07
710.551	2478.55
710.739	2429.4
710.927	2421.21
711.115	2482.65
711.303	2550.23
711.491	2445.79
711.679	2271.71
711.866	2402.78
712.054	2488.79
712.242	2437.59
712.43	2361.82
712.617	2402.78
712.805	2392.54
712.993	2564.57
713.181	2367.96
713.368	2462.17
713.556	2390.49
713.744	2255.33
713.931	2335.2
714.119	2503.13
714.306	2490.84
714.494	2468.31
714.682	2458.07
714.869	2388.44
715.057	2398.68
715.244	2415.07
715.432	2441.69
715.619	2449.88
715.807	2302.43
715.994	2460.12
716.182	2423.26
716.369	2435.55
716.556	2503.13
716.744	2394.59
716.931	2466.27
717.119	2394.59
717.306	2304.48
717.493	2376.16
717.681	2441.69
717.868	2470.36
718.055	2388.44
718.242	2470.36
718.43	2327
718.617	2435.55
718.804	2384.35
718.991	2345.44
719.179	2408.92
719.366	2378.2
719.553	2392.54
719.74	2484.7
719.927	2386.4
720.114	2351.58
720.301	2466.27
720.488	2380.25
720.676	2306.52
720.863	2349.53
721.05	2458.07
721.237	2417.12
721.424	2425.31
721.611	2281.95
721.798	2220.51
721.985	2281.95
722.172	2281.95
722.358	2400.73
722.545	2400.73
722.732	2306.52
722.919	2417.12
723.106	2314.72
723.293	2304.48
723.48	2298.33
723.667	2185.69
723.853	2384.35
724.04	2333.15
724.227	2367.96
724.414	2486.75
724.6	2402.78
724.787	2281.95
724.974	2304.48
725.161	2468.31
725.347	2413.02
725.534	2413.02
725.72	2353.63
725.907	2384.35
726.094	2257.37
726.28	2204.13
726.467	2347.48
726.653	2327
726.84	2304.48
727.027	2470.36
727.213	2279.9
727.4	2253.28
727.586	2398.68
727.773	2345.44
727.959	2343.39
728.145	2277.85
728.332	2216.41
728.518	2322.91
728.705	2392.54
728.891	2335.2
729.077	2302.43
729.264	2290.14
729.45	2222.56
729.636	2310.62
729.823	2286.05
730.009	2304.48
730.195	2296.28
730.382	2351.58
730.568	2220.51
730.754	2286.05
730.94	2277.85
731.126	2408.92
731.313	2380.25
731.499	2220.51
731.685	2361.82
731.871	2310.62
732.057	2339.29
732.243	2329.05
732.429	2359.77
732.615	2238.94
732.801	2191.84
732.987	2322.91
733.173	2384.35
733.359	2351.58
733.545	2335.2
733.731	2351.58
733.917	2318.81
734.103	2361.82
734.289	2345.44
734.475	2200.03
734.661	2337.24
734.847	2240.99
735.033	2361.82
735.219	2294.24
735.404	2286.05
735.59	2173.41
735.776	2339.29
735.962	2290.14
736.148	2279.9
736.333	2343.39
736.519	2220.51
736.705	2318.81
736.89	2124.26
737.076	2279.9
737.262	2228.7
737.447	2114.02
737.633	2187.74
737.819	2193.89
738.004	2255.33
738.19	2154.98
738.375	2257.37
738.561	2179.55
738.747	2210.27
738.932	2120.16
739.118	2269.66
739.303	2222.56
739.489	2195.93
739.674	2159.07
739.859	2111.97
740.045	2228.7
740.23	2232.8
740.416	2159.07
740.601	2200.03
740.786	2169.31
740.972	2118.11
741.157	2197.98
741.342	2189.79
741.528	2050.53
741.713	2173.41
741.898	2087.39
742.084	2210.27
742.269	2134.5
742.454	2034.14
742.639	2161.12
742.824	2015.71
743.01	2003.43
743.195	2015.71
743.38	2197.98
743.565	2058.72
743.75	2015.71
743.935	2093.54
744.12	2062.82
744.305	1991.14
744.49	1966.56
744.675	2017.76
744.86	1974.75
745.045	2001.38
745.23	1933.79
745.415	1925.6
745.6	1839.59
745.785	1954.27
745.97	1958.37
746.155	1966.56
746.34	1958.37
746.525	1941.99
746.71	1929.7
746.895	1878.5
747.079	1837.54
747.264	1866.21
747.449	1843.68
747.634	1835.49
747.819	1733.09
748.003	1823.2
748.188	1759.72
748.373	1810.92
748.557	1872.36
748.742	1673.7
748.927	1790.44
749.111	1786.34
749.296	1667.56
749.481	1837.54
749.665	1679.85
749.85	1657.32
750.034	1606.12
750.219	1642.98
750.404	1628.65
750.588	1681.89
750.773	1534.44
750.957	1591.78
751.141	1612.26
751.326	1683.94
751.51	1612.26
751.695	1542.63
751.879	1612.26
752.064	1679.85
752.248	1642.98
752.432	1624.55
752.617	1561.06
752.801	1577.45
752.985	1442.28
753.17	1522.15
753.354	1599.98
753.538	1505.77
753.722	1423.85
753.907	1528.3
754.091	1368.56
754.275	1427.95
754.459	1450.47
754.643	1393.13
754.828	1380.84
755.012	1376.75
755.196	1327.6
755.38	1415.66
755.564	1391.08
755.748	1321.45
755.932	1417.71
756.116	1272.3
756.3	1311.21
756.484	1352.17
756.668	1288.68
756.852	1341.93
757.036	1305.07
757.22	1296.88
757.404	1298.92
757.588	1286.64
757.772	1327.6
757.956	1288.68
758.14	1311.21
758.323	1116.65
758.507	1188.33
758.691	1270.25
758.875	1229.29
759.059	1225.2
759.242	1130.99
759.426	1145.33
759.61	1171.95
759.794	1147.37
759.977	1204.72
760.161	1343.98
760.345	1141.23
760.528	1223.15
760.712	1204.72
760.895	1184.24
761.079	1061.36
761.263	1145.33
761.446	1032.69
761.63	1098.22
761.813	1075.7
761.997	1034.74
762.18	995.82
762.364	1106.42
762.547	1059.31
762.731	1049.07
762.914	1069.55
763.098	1051.12
763.281	1071.6
763.464	1081.84
763.648	1024.5
763.831	1145.33
764.015	1042.93
764.198	995.82
764.381	991.73
764.564	1020.4
764.748	1016.3
764.931	1042.93
765.114	1085.94
765.297	1042.93
765.481	975.35
765.664	1001.97
765.847	965.11
766.03	961.01
766.213	1038.83
766.397	942.58
766.58	895.47
766.763	983.54
766.946	934.39
767.129	856.56
767.312	985.58
767.495	868.85
767.678	895.47
767.861	893.43
768.044	864.75
768.227	961.01
768.41	911.86
768.593	862.71
768.776	950.77
768.959	872.95
769.142	877.04
769.324	854.51
769.507	856.56
769.69	885.23
769.873	856.56
770.056	922.1
770.239	819.7
770.421	872.95
770.604	758.26
770.787	819.7
770.97	844.28
771.152	809.46
771.335	780.79
771.518	920.05
771.7	844.28
771.883	903.67
772.066	801.27
772.248	823.8
772.431	844.28
772.613	879.09
772.796	788.98
772.978	821.75
773.161	852.47
773.343	797.17
773.526	752.12
773.708	827.89
773.891	709.11
774.073	750.07
774.256	733.68
774.438	846.32
774.621	713.21
774.803	682.49
774.985	725.49
775.168	811.51
775.35	717.3
775.532	688.63
775.715	672.25
775.897	762.36
776.079	610.81
776.261	707.06
776.444	614.9
776.626	627.19
776.808	653.81
776.99	649.72
777.173	684.53
777.355	590.33
777.537	647.67
777.719	705.01
777.901	635.38
778.083	608.76
778.265	590.33
778.447	692.73
778.629	532.98
778.811	631.29
778.993	649.72
779.175	655.86
779.357	688.63
779.539	561.66
779.721	664.05
779.903	549.37
780.085	559.61
780.267	569.85
780.449	526.84
780.631	594.42
780.812	553.46
780.994	569.85
781.176	573.94
781.358	514.55
781.54	518.65
781.721	559.61
781.903	541.18
782.085	473.59
782.267	608.76
782.448	428.54
782.63	504.31
782.812	483.83
782.993	541.18
783.175	528.89
783.357	537.08
783.538	426.49
783.72	410.11
783.901	459.26
784.083	475.64
784.264	463.35
784.446	446.97
784.627	403.96
784.809	461.3
784.99	467.45
785.172	506.36
785.353	444.92
785.535	397.82
785.716	477.69
785.897	373.24
786.079	383.48
786.26	494.07
786.441	416.25
786.623	344.57
786.804	451.07
786.985	426.49
787.167	420.35
787.348	371.19
787.529	434.68
787.71	444.92
787.891	385.53
788.073	451.07
788.254	354.81
788.435	432.63
788.616	326.14
788.797	430.59
788.978	373.24
789.159	348.67
789.34	369.15
789.522	410.11
789.703	389.63
789.884	336.38
790.065	363
790.246	393.72
790.427	328.19
790.607	322.04
790.788	377.34
790.969	354.81
791.15	305.66
791.331	336.38
791.512	309.76
791.693	418.3
791.874	336.38
792.054	442.87
792.235	344.57
792.416	430.59
792.597	336.38
792.778	377.34
792.958	305.66
793.139	322.04
793.32	360.95
793.5	383.48
793.681	412.15
793.862	287.23
794.042	299.52
794.223	256.51
794.404	283.13
794.584	262.65
794.765	283.13
794.945	287.23
795.126	254.46
795.306	375.29
795.487	297.47
795.667	221.69
795.848	262.65
796.028	270.84
796.209	287.23
796.389	285.18
796.57	311.8
796.75	262.65
796.93	231.93
797.111	262.65
797.291	320
797.471	303.61
797.652	190.97
797.832	252.41
798.012	317.95
798.192	244.22
798.373	264.7
798.553	270.84
798.733	272.89
798.913	244.22
799.093	307.71
799.274	229.88
799.454	379.39
799.634	262.65
799.814	240.12
799.994	246.27
800.174	262.65
800.354	326.14
800.534	231.93
800.714	221.69
800.894	180.73
801.074	150.01
801.254	256.51
801.434	250.36
801.614	217.6
801.794	233.98
801.974	707.06
802.154	256.51
802.334	276.99
802.514	158.21
802.693	219.64
802.873	170.49
803.053	221.69
803.233	166.4
803.413	205.31
803.592	231.93
803.772	168.45
803.952	180.73
804.131	264.7
804.311	215.55
804.491	246.27
804.67	209.4
804.85	131.58
805.03	131.58
805.209	240.12
805.389	201.21
805.568	182.78
805.748	227.84
805.928	225.79
806.107	195.07
806.287	166.4
806.466	240.12
806.646	182.78
806.825	207.36
807.004	199.16
807.184	223.74
807.363	223.74
807.543	195.07
807.722	90.62
807.901	240.12
808.081	246.27
808.26	131.58
808.439	186.88
808.619	156.16
808.798	168.45
808.977	193.02
809.156	147.97
809.336	184.83
809.515	180.73
809.694	156.16
809.873	172.54
810.052	168.45
810.231	174.59
810.411	135.68
810.59	207.36
810.769	115.2
810.948	139.77
811.127	94.72
811.306	207.36
811.485	143.87
811.664	168.45
811.843	143.87
812.022	197.12
812.201	164.35
812.38	227.84
812.559	199.16
812.737	147.97
812.916	139.77
813.095	166.4
813.274	164.35
813.453	133.63
813.632	193.02
813.811	217.6
813.989	135.68
814.168	156.16
814.347	123.39
814.526	-11.78
814.704	115.2
814.883	141.82
815.062	123.39
815.24	172.54
815.419	84.48
815.598	160.25
815.776	152.06
815.955	178.69
816.133	82.43
816.312	160.25
816.49	86.53
816.669	143.87
816.847	109.05
817.026	86.53
817.204	104.96
817.383	123.39
817.561	141.82
817.74	176.64
817.918	164.35
818.097	90.62
818.275	139.77
818.453	66.05
818.632	111.1
818.81	37.38
818.988	115.2
819.167	102.91
819.345	98.81
819.523	98.81
819.701	180.73
819.879	82.43
820.058	74.24
820.236	29.18
820.414	131.58
820.592	109.05
820.77	131.58
820.948	184.83
821.127	123.39
821.305	90.62
821.483	113.15
821.661	150.01
821.839	90.62
822.017	82.43
822.195	111.1
822.373	150.01
822.551	98.81
822.729	74.24
822.907	147.97
823.085	152.06
823.262	104.96
823.44	66.05
823.618	164.35
823.796	82.43
823.974	29.18
824.152	72.19
824.329	98.81
824.507	57.86
824.685	82.43
824.863	80.38
825.04	102.91
825.218	74.24
825.396	123.39
825.574	135.68
825.751	88.57
825.929	147.97
826.107	64
826.284	25.09
826.462	143.87
826.639	74.24
826.817	109.05
826.994	94.72
827.172	35.33
827.349	158.21
827.527	94.72
827.704	41.47
827.882	133.63
828.059	111.1
828.237	139.77
828.414	98.81
828.591	135.68
828.769	59.9
828.946	57.86
829.124	78.33
829.301	104.96
829.478	41.47
829.655	74.24
829.833	74.24
830.01	20.99
830.187	78.33
830.364	131.58
830.542	59.9
830.719	25.09
830.896	141.82
831.073	109.05
831.25	111.1
831.427	61.95
831.604	102.91
831.782	35.33
831.959	-17.92
832.136	6.66
832.313	18.94
832.49	49.66
832.667	109.05
832.844	51.71
833.021	47.62
833.198	86.53
833.374	141.82
833.551	88.57
833.728	102.91
833.905	98.81
834.082	-30.21
834.259	76.29
834.436	33.28
834.612	41.47
834.789	147.97
834.966	45.57
835.143	57.86
835.319	78.33
835.496	94.72
835.673	49.66
835.85	90.62
836.026	119.29
836.203	35.33
836.38	25.09
836.556	76.29
836.733	-15.87
836.909	57.86
837.086	-7.68
837.262	20.99
837.439	16.9
837.616	2.56
837.792	14.85
837.968	64
838.145	4.61
838.321	66.05
838.498	37.38
838.674	88.57
838.851	41.47
839.027	66.05
839.203	10.75
839.38	100.86
839.556	-26.11
839.732	98.81
839.909	70.14
840.085	59.9
840.261	-17.92
840.437	119.29
840.614	55.81
840.79	27.14
840.966	104.96
841.142	0.51
841.318	41.47
841.494	82.43
841.671	70.14
841.847	-1.54
842.023	-11.78
842.199	100.86
842.375	45.57
842.551	49.66
842.727	16.9
842.903	141.82
843.079	68.09
843.255	98.81
843.431	74.24
843.607	53.76
843.783	86.53
843.959	68.09
844.134	41.47
844.31	98.81
844.486	8.7
844.662	86.53
844.838	-1.54
845.013	53.76
845.189	41.47
845.365	37.38
845.541	70.14
845.716	70.14
845.892	-3.58
846.068	23.04
846.244	33.28
846.419	53.76
846.595	25.09
846.77	57.86
846.946	45.57
847.122	-40.45
847.297	74.24
847.473	80.38
847.648	66.05
847.824	20.99
847.999	6.66
848.175	82.43
848.35	4.61
848.526	98.81
848.701	107.01
848.876	57.86
849.052	2.56
849.227	123.39
849.403	8.7
849.578	100.86
849.753	53.76
849.929	90.62
850.104	12.8
850.279	82.43
850.454	-22.02
850.63	104.96
850.805	82.43
850.98	-13.82
851.155	-9.73
851.33	39.42
851.505	4.61
851.681	12.8
851.856	27.14
852.031	68.09
852.206	49.66
852.381	-40.45
852.556	20.99
852.731	78.33
852.906	-11.78
853.081	-28.16
853.256	98.81
853.431	59.9
853.606	-34.3
853.781	-65.02
853.956	-22.02
854.131	10.75
854.305	74.24
854.48	41.47
854.655	35.33
854.83	8.7
855.005	-28.16
855.18	-13.82
855.354	-5.63
855.529	150.01
855.704	12.8
855.879	49.66
856.053	53.76
856.228	27.14
856.403	0.51
856.577	107.01
856.752	10.75
856.926	102.91
857.101	25.09
857.276	-7.68
857.45	-34.3
857.625	82.43
857.799	16.9
857.974	-7.68
858.148	-36.35
858.323	115.2
858.497	33.28
858.672	-52.74
858.846	-24.06
859.02	90.62
859.195	43.52
859.369	-30.21
859.543	119.29
859.718	66.05
859.892	18.94
860.066	-7.68
860.241	25.09
860.415	33.28
860.589	2.56
860.763	4.61
860.938	14.85
861.112	33.28
861.286	29.18
861.46	72.19
861.634	4.61
861.808	-56.83
861.982	4.61
862.157	8.7
862.331	4.61
862.505	-26.11
862.679	-17.92
862.853	33.28
863.027	29.18
863.201	57.86
863.375	-24.06
863.549	16.9
863.722	43.52
863.896	29.18
864.07	-38.4
864.244	-11.78
864.418	45.57
864.592	78.33
864.766	29.18
864.939	33.28
865.113	-38.4
865.287	51.71
865.461	-7.68
865.634	0.51
865.808	-36.35
865.982	-44.54
866.156	-5.63
866.329	12.8
866.503	-28.16
866.676	33.28
866.85	16.9
867.024	8.7
867.197	-65.02
867.371	25.09
867.544	0.51
867.718	-24.06
867.891	45.57
868.065	16.9
868.238	72.19
868.412	-19.97
868.585	-7.68
868.759	27.14
868.932	4.61
869.105	35.33
869.279	-1.54
869.452	70.14
869.625	-19.97
869.799	-30.21
869.972	-44.54
870.145	-15.87
870.319	-7.68
870.492	-32.26
870.665	12.8
870.838	-17.92
871.011	-1.54
871.185	-42.5
871.358	-19.97
871.531	25.09
871.704	-9.73
871.877	66.05
872.05	-110.08
872.223	59.9
872.396	70.14
872.569	33.28
872.742	12.8
872.915	10.75
873.088	10.75
873.261	-7.68
873.434	33.28
873.607	0.51
873.78	84.48
873.953	-7.68
874.126	100.86
874.299	-46.59
874.471	43.52
874.644	59.9
874.817	90.62
874.99	33.28
875.163	-60.93
875.335	-7.68
875.508	37.38
875.681	-24.06
875.853	-30.21
876.026	-52.74
876.199	0.51
876.371	31.23
876.544	-46.59
876.717	-46.59
876.889	-7.68
877.062	25.09
877.234	0.51
877.407	29.18
877.579	16.9
877.752	111.1
877.924	33.28
878.097	18.94
878.269	6.66
878.442	6.66
878.614	2.56
878.786	14.85
878.959	-15.87
879.131	49.66
879.303	-60.93
879.476	-7.68
879.648	68.09
879.82	74.24
879.993	59.9
880.165	12.8
880.337	2.56
880.509	16.9
880.681	-40.45
880.854	-38.4
881.026	-40.45
881.198	-15.87
881.37	25.09
881.542	41.47
881.714	-32.26
881.886	-15.87
882.058	0.51
882.23	25.09
882.402	41.47
882.574	45.57
882.746	82.43
882.918	31.23
883.09	29.18
883.262	8.7
883.434	84.48
883.606	-19.97
883.778	57.86
883.95	20.99
884.122	51.71
884.293	18.94
884.465	53.76
884.637	8.7
884.809	45.57
884.98	-44.54
885.152	-81.41
885.324	10.75
885.496	12.8
885.667	47.62
885.839	-56.83
886.011	16.9
886.182	66.05
886.354	64
886.525	33.28
886.697	29.18
886.869	-11.78
887.04	-40.45
887.212	37.38
887.383	74.24
887.555	-38.4
887.726	18.94
887.897	23.04
888.069	25.09
888.24	20.99
888.412	-65.02
888.583	-32.26
888.754	57.86
888.926	-30.21
889.097	-42.5
889.268	-3.58
889.44	70.14
889.611	-19.97
889.782	2.56
889.953	-38.4
890.125	107.01
890.296	-19.97
890.467	39.42
890.638	-1.54
890.809	-38.4
890.98	4.61
891.151	70.14
891.323	35.33
891.494	59.9
891.665	37.38
891.836	72.19
892.007	16.9
892.178	68.09
892.349	-40.45
892.52	-22.02
892.691	-26.11
892.862	-5.63
893.032	-58.88
893.203	61.95
893.374	47.62
893.545	86.53
893.716	18.94
893.887	-48.64
894.057	-7.68
894.228	-17.92
894.399	-1.54
894.57	-46.59
894.74	-56.83
894.911	16.9
895.082	-7.68
895.253	-15.87
895.423	-36.35
895.594	57.86
895.764	-24.06
895.935	10.75
896.106	-28.16
896.276	-13.82
896.447	10.75
896.617	10.75
896.788	12.8
896.958	2.56
897.129	33.28
897.299	-48.64
897.47	59.9
897.64	53.76
897.81	-30.21
897.981	8.7
898.151	41.47
898.322	-3.58
898.492	-15.87
898.662	16.9
898.832	8.7
899.003	27.14
899.173	59.9
899.343	-46.59
899.513	-9.73
