Data from USB4F104151__48__14-16-49-626.txt Node

Date: Thu Mar 13 14:16:49 EDT 2025
User: louis
Spectrometer: USB4F10415
Trigger mode: 4
Integration Time (sec): 2.000000E-2
Scans to average: 1
Electric dark correction enabled: true
Nonlinearity correction enabled: false
Boxcar width: 0
XAxis mode: Wavelengths
Number of Pixels in Spectrum: 3648
>>>>>Begin Spectral Data<<<<<
178.204	-69.29
178.424	-69.29
178.644	-69.29
178.864	-87.72
179.084	-87.72
179.304	35.16
179.524	-1.71
179.744	-32.43
179.964	-18.09
180.184	92.5
180.404	33.11
180.624	-65.19
180.844	69.97
181.064	-48.81
181.283	-57
181.503	0.34
181.723	-7.85
181.943	-63.15
182.163	67.92
182.383	57.68
182.602	51.54
182.822	115.03
183.042	49.49
183.262	16.73
183.482	74.07
183.701	51.54
183.921	39.25
184.141	-63.15
184.361	37.2
184.58	39.25
184.8	35.16
185.02	-7.85
185.239	135.51
185.459	131.41
185.679	90.45
185.898	86.36
186.118	49.49
186.338	49.49
186.557	90.45
186.777	26.96
186.997	53.59
187.216	65.88
187.436	37.2
187.655	20.82
187.875	74.07
188.095	49.49
188.314	24.92
188.534	16.73
188.753	-3.75
188.973	41.3
189.192	2.39
189.412	41.3
189.631	-16.04
189.851	37.2
190.07	74.07
190.29	2.39
190.509	2.39
190.729	78.16
190.948	127.32
191.168	104.79
191.387	84.31
191.607	26.96
191.826	41.3
192.045	18.77
192.265	8.53
192.484	26.96
192.704	127.32
192.923	-18.09
193.142	160.08
193.362	-16.04
193.581	92.5
193.8	92.5
194.02	33.11
194.239	37.2
194.458	106.84
194.678	92.5
194.897	84.31
195.116	37.2
195.335	24.92
195.555	6.49
195.774	119.12
195.993	51.54
196.212	45.4
196.432	49.49
196.651	-52.91
196.87	10.58
197.089	125.27
197.308	82.26
197.528	65.88
197.747	14.68
197.966	0.34
198.185	65.88
198.404	-40.62
198.623	90.45
198.842	16.73
199.062	29.01
199.281	192.85
199.5	-9.9
199.719	106.84
199.938	0.34
200.157	106.84
200.376	18.77
200.595	74.07
200.814	-7.85
201.033	80.21
201.252	133.46
201.471	47.44
201.69	108.88
201.909	43.35
202.128	55.64
202.347	29.01
202.566	22.87
202.785	10.58
203.004	-5.8
203.223	106.84
203.442	26.96
203.661	41.3
203.879	108.88
204.098	98.64
204.317	-16.04
204.536	33.11
204.755	57.68
204.974	57.68
205.193	51.54
205.411	135.51
205.63	78.16
205.849	37.2
206.068	16.73
206.287	33.11
206.505	98.64
206.724	29.01
206.943	74.07
207.162	10.58
207.381	94.55
207.599	2.39
207.818	96.6
208.037	33.11
208.255	18.77
208.474	74.07
208.693	49.49
208.911	65.88
209.13	26.96
209.349	80.21
209.567	74.07
209.786	55.64
210.005	8.53
210.223	51.54
210.442	31.06
210.661	37.2
210.879	74.07
211.098	102.74
211.316	49.49
211.535	49.49
211.753	69.97
211.972	10.58
212.191	43.35
212.409	51.54
212.628	24.92
212.846	29.01
213.065	100.69
213.283	41.3
213.502	31.06
213.72	39.25
213.938	65.88
214.157	8.53
214.375	49.49
214.594	61.78
214.812	2.39
215.031	49.49
215.249	0.34
215.467	-16.04
215.686	102.74
215.904	20.82
216.122	108.88
216.341	78.16
216.559	37.2
216.778	149.84
216.996	90.45
217.214	8.53
217.432	49.49
217.651	-3.75
217.869	24.92
218.087	18.77
218.306	88.4
218.524	49.49
218.742	98.64
218.96	49.49
219.179	12.63
219.397	-32.43
219.615	143.7
219.833	35.16
220.051	74.07
220.27	51.54
220.488	108.88
220.706	90.45
220.924	-3.75
221.142	137.56
221.36	45.4
221.578	78.16
221.796	14.68
222.015	20.82
222.233	49.49
222.451	61.78
222.669	49.49
222.887	82.26
223.105	4.44
223.323	18.77
223.541	-11.95
223.759	59.73
223.977	43.35
224.195	98.64
224.413	29.01
224.631	45.4
224.849	76.12
225.067	39.25
225.285	-5.8
225.503	-30.38
225.721	-20.14
225.939	45.4
226.157	92.5
226.375	106.84
226.592	-5.8
226.81	-11.95
227.028	53.59
227.246	125.27
227.464	-7.85
227.682	86.36
227.9	-7.85
228.117	88.4
228.335	-30.38
228.553	57.68
228.771	78.16
228.989	149.84
229.206	69.97
229.424	-24.23
229.642	141.65
229.86	61.78
230.077	20.82
230.295	98.64
230.513	67.92
230.731	57.68
230.948	33.11
231.166	35.16
231.384	35.16
231.601	26.96
231.819	115.03
232.037	59.73
232.254	26.96
232.472	-28.33
232.689	8.53
232.907	106.84
233.125	12.63
233.342	82.26
233.56	-52.91
233.777	41.3
233.995	33.11
234.213	147.8
234.43	22.87
234.648	16.73
234.865	53.59
235.083	65.88
235.3	94.55
235.518	22.87
235.735	41.3
235.953	-7.85
236.17	123.22
236.388	10.58
236.605	57.68
236.822	94.55
237.04	-28.33
237.257	43.35
237.475	-26.28
237.692	24.92
237.909	55.64
238.127	2.39
238.344	10.58
238.562	18.77
238.779	-46.76
238.996	20.82
239.214	78.16
239.431	106.84
239.648	43.35
239.865	49.49
240.083	125.27
240.3	57.68
240.517	8.53
240.735	-18.09
240.952	115.03
241.169	115.03
241.386	49.49
241.603	33.11
241.821	49.49
242.038	86.36
242.255	74.07
242.472	18.77
242.689	67.92
242.907	147.8
243.124	88.4
243.341	92.5
243.558	35.16
243.775	35.16
243.992	-20.14
244.209	26.96
244.426	76.12
244.643	49.49
244.86	49.49
245.078	53.59
245.295	76.12
245.512	84.31
245.729	-24.23
245.946	43.35
246.163	35.16
246.38	49.49
246.597	-9.9
246.814	74.07
247.031	143.7
247.248	84.31
247.464	61.78
247.681	33.11
247.898	92.5
248.115	45.4
248.332	29.01
248.549	41.3
248.766	16.73
248.983	-11.95
249.2	53.59
249.417	63.83
249.633	0.34
249.85	26.96
250.067	-28.33
250.284	2.39
250.501	74.07
250.717	37.2
250.934	43.35
251.151	67.92
251.368	2.39
251.585	-11.95
251.801	16.73
252.018	45.4
252.235	55.64
252.451	26.96
252.668	55.64
252.885	82.26
253.102	129.36
253.318	-28.33
253.535	31.06
253.752	51.54
253.968	-5.8
254.185	41.3
254.401	104.79
254.618	51.54
254.835	72.02
255.051	135.51
255.268	-13.99
255.484	0.34
255.701	92.5
255.917	94.55
256.134	8.53
256.351	86.36
256.567	110.93
256.784	76.12
257	65.88
257.217	86.36
257.433	51.54
257.65	2.39
257.866	143.7
258.082	55.64
258.299	24.92
258.515	90.45
258.732	43.35
258.948	72.02
259.165	8.53
259.381	84.31
259.597	18.77
259.814	45.4
260.03	8.53
260.246	65.88
260.463	90.45
260.679	74.07
260.895	8.53
261.112	59.73
261.328	-85.67
261.544	16.73
261.761	67.92
261.977	12.63
262.193	4.44
262.409	96.6
262.626	129.36
262.842	63.83
263.058	20.82
263.274	55.64
263.49	31.06
263.707	45.4
263.923	-7.85
264.139	16.73
264.355	41.3
264.571	65.88
264.787	16.73
265.004	49.49
265.22	-7.85
265.436	41.3
265.652	67.92
265.868	-11.95
266.084	24.92
266.3	74.07
266.516	102.74
266.732	65.88
266.948	65.88
267.164	100.69
267.38	84.31
267.596	18.77
267.812	31.06
268.028	33.11
268.244	16.73
268.46	96.6
268.676	4.44
268.892	41.3
269.108	51.54
269.324	24.92
269.54	51.54
269.756	104.79
269.972	-40.62
270.188	131.41
270.403	59.73
270.619	24.92
270.835	51.54
271.051	51.54
271.267	61.78
271.483	49.49
271.698	51.54
271.914	67.92
272.13	65.88
272.346	-79.53
272.562	22.87
272.777	74.07
272.993	8.53
273.209	92.5
273.425	78.16
273.64	47.44
273.856	33.11
274.072	31.06
274.287	-11.95
274.503	18.77
274.719	51.54
274.934	49.49
275.15	55.64
275.366	0.34
275.581	16.73
275.797	-5.8
276.012	47.44
276.228	-40.62
276.444	51.54
276.659	57.68
276.875	24.92
277.09	10.58
277.306	0.34
277.521	90.45
277.737	-7.85
277.952	51.54
278.168	59.73
278.383	125.27
278.599	123.22
278.814	59.73
279.03	61.78
279.245	-1.71
279.461	76.12
279.676	65.88
279.892	35.16
280.107	41.3
280.322	53.59
280.538	98.64
280.753	82.26
280.969	35.16
281.184	78.16
281.399	59.73
281.615	24.92
281.83	88.4
282.045	37.2
282.26	-5.8
282.476	8.53
282.691	8.53
282.906	76.12
283.122	51.54
283.337	8.53
283.552	164.18
283.767	-11.95
283.983	41.3
284.198	129.36
284.413	33.11
284.628	16.73
284.843	100.69
285.058	69.97
285.274	112.98
285.489	24.92
285.704	49.49
285.919	2.39
286.134	74.07
286.349	67.92
286.564	49.49
286.779	51.54
286.995	33.11
287.21	-30.38
287.425	100.69
287.64	-5.8
287.855	67.92
288.07	-16.04
288.285	90.45
288.5	67.92
288.715	82.26
288.93	94.55
289.145	37.2
289.36	24.92
289.575	35.16
289.79	108.88
290.004	84.31
290.219	80.21
290.434	43.35
290.649	4.44
290.864	8.53
291.079	-11.95
291.294	86.36
291.509	108.88
291.724	2.39
291.938	12.63
292.153	67.92
292.368	51.54
292.583	67.92
292.798	84.31
293.012	6.49
293.227	-9.9
293.442	24.92
293.657	76.12
293.871	90.45
294.086	51.54
294.301	84.31
294.516	41.3
294.73	84.31
294.945	8.53
295.16	45.4
295.374	57.68
295.589	98.64
295.804	-48.81
296.018	65.88
296.233	90.45
296.447	121.17
296.662	86.36
296.877	86.36
297.091	104.79
297.306	18.77
297.52	-5.8
297.735	112.98
297.949	41.3
298.164	45.4
298.378	82.26
298.593	-7.85
298.807	53.59
299.022	59.73
299.236	82.26
299.451	90.45
299.665	41.3
299.88	43.35
300.094	33.11
300.309	4.44
300.523	45.4
300.737	74.07
300.952	16.73
301.166	82.26
301.381	18.77
301.595	65.88
301.809	29.01
302.024	55.64
302.238	59.73
302.452	82.26
302.667	22.87
302.881	86.36
303.095	119.12
303.309	-1.71
303.524	-1.71
303.738	18.77
303.952	43.35
304.166	123.22
304.381	10.58
304.595	10.58
304.809	8.53
305.023	16.73
305.237	100.69
305.452	121.17
305.666	117.08
305.88	49.49
306.094	35.16
306.308	112.98
306.522	-11.95
306.736	53.59
306.95	6.49
307.164	61.78
307.379	29.01
307.593	59.73
307.807	41.3
308.021	41.3
308.235	26.96
308.449	35.16
308.663	12.63
308.877	53.59
309.091	82.26
309.305	90.45
309.519	6.49
309.733	33.11
309.947	4.44
310.161	47.44
310.374	84.31
310.588	57.68
310.802	-3.75
311.016	53.59
311.23	-13.99
311.444	10.58
311.658	78.16
311.872	131.41
312.085	76.12
312.299	-13.99
312.513	35.16
312.727	72.02
312.941	61.78
313.154	74.07
313.368	55.64
313.582	20.82
313.796	49.49
314.009	90.45
314.223	76.12
314.437	115.03
314.651	55.64
314.864	61.78
315.078	-11.95
315.292	12.63
315.505	96.6
315.719	65.88
315.933	49.49
316.146	33.11
316.36	0.34
316.573	65.88
316.787	67.92
317.001	141.65
317.214	18.77
317.428	90.45
317.641	37.2
317.855	115.03
318.068	37.2
318.282	100.69
318.495	100.69
318.709	51.54
318.922	51.54
319.136	65.88
319.349	53.59
319.563	24.92
319.776	41.3
319.99	0.34
320.203	67.92
320.417	80.21
320.63	84.31
320.843	90.45
321.057	84.31
321.27	65.88
321.483	65.88
321.697	41.3
321.91	33.11
322.124	84.31
322.337	18.77
322.55	67.92
322.763	20.82
322.977	90.45
323.19	41.3
323.403	65.88
323.617	65.88
323.83	123.22
324.043	39.25
324.256	94.55
324.469	43.35
324.683	35.16
324.896	-20.14
325.109	67.92
325.322	76.12
325.535	100.69
325.748	57.68
325.962	51.54
326.175	80.21
326.388	98.64
326.601	74.07
326.814	59.73
327.027	12.63
327.24	82.26
327.453	80.21
327.666	12.63
327.879	57.68
328.092	-5.8
328.305	84.31
328.518	53.59
328.731	90.45
328.944	45.4
329.157	26.96
329.37	78.16
329.583	96.6
329.796	65.88
330.009	4.44
330.222	35.16
330.435	20.82
330.648	115.03
330.861	82.26
331.073	53.59
331.286	84.31
331.499	37.2
331.712	-28.33
331.925	82.26
332.138	16.73
332.35	131.41
332.563	0.34
332.776	65.88
332.989	16.73
333.202	2.39
333.414	22.87
333.627	139.6
333.84	29.01
334.053	41.3
334.265	82.26
334.478	74.07
334.691	49.49
334.903	-3.75
335.116	57.68
335.329	35.16
335.541	100.69
335.754	57.68
335.966	20.82
336.179	57.68
336.392	90.45
336.604	96.6
336.817	47.44
337.029	24.92
337.242	51.54
337.454	22.87
337.667	-34.47
337.88	82.26
338.092	108.88
338.305	112.98
338.517	-22.19
338.729	131.41
338.942	57.68
339.154	49.49
339.367	49.49
339.579	37.2
339.792	-24.23
340.004	65.88
340.217	92.5
340.429	51.54
340.641	143.7
340.854	82.26
341.066	16.73
341.278	108.88
341.491	57.68
341.703	57.68
341.915	35.16
342.128	94.55
342.34	45.4
342.552	57.68
342.764	80.21
342.977	-32.43
343.189	100.69
343.401	74.07
343.613	37.2
343.826	106.84
344.038	76.12
344.25	65.88
344.462	24.92
344.674	33.11
344.886	90.45
345.099	51.54
345.311	61.78
345.523	76.12
345.735	16.73
345.947	92.5
346.159	-20.14
346.371	104.79
346.583	74.07
346.795	90.45
347.007	24.92
347.219	98.64
347.431	69.97
347.643	94.55
347.855	53.59
348.067	100.69
348.279	80.21
348.491	141.65
348.703	106.84
348.915	51.54
349.127	78.16
349.339	106.84
349.551	69.97
349.763	137.56
349.975	119.12
350.187	110.93
350.399	117.08
350.61	41.3
350.822	90.45
351.034	143.7
351.246	20.82
351.458	106.84
351.669	59.73
351.881	117.08
352.093	57.68
352.305	155.99
352.517	49.49
352.728	55.64
352.94	65.88
353.152	33.11
353.363	100.69
353.575	49.49
353.787	115.03
353.999	100.69
354.21	90.45
354.422	90.45
354.633	41.3
354.845	115.03
355.057	43.35
355.268	49.49
355.48	86.36
355.692	33.11
355.903	65.88
356.115	106.84
356.326	35.16
356.538	74.07
356.749	45.4
356.961	131.41
357.172	18.77
357.384	74.07
357.595	164.18
357.807	8.53
358.018	106.84
358.23	90.45
358.441	84.31
358.653	121.17
358.864	55.64
359.075	-48.81
359.287	67.92
359.498	69.97
359.709	90.45
359.921	43.35
360.132	33.11
360.344	29.01
360.555	22.87
360.766	74.07
360.977	16.73
361.189	100.69
361.4	98.64
361.611	80.21
361.823	96.6
362.034	65.88
362.245	49.49
362.456	108.88
362.667	39.25
362.879	82.26
363.09	37.2
363.301	55.64
363.512	74.07
363.723	6.49
363.935	45.4
364.146	119.12
364.357	59.73
364.568	82.26
364.779	33.11
364.99	104.79
365.201	43.35
365.412	106.84
365.623	47.44
365.834	51.54
366.045	18.77
366.256	53.59
366.467	104.79
366.678	106.84
366.889	24.92
367.1	53.59
367.311	35.16
367.522	45.4
367.733	170.32
367.944	166.23
368.155	2.39
368.366	125.27
368.577	65.88
368.788	112.98
368.999	31.06
369.209	51.54
369.42	110.93
369.631	153.94
369.842	-9.9
370.053	57.68
370.264	24.92
370.474	49.49
370.685	141.65
370.896	29.01
371.107	98.64
371.317	92.5
371.528	74.07
371.739	90.45
371.95	72.02
372.16	37.2
372.371	24.92
372.582	74.07
372.792	102.74
373.003	39.25
373.214	100.69
373.424	45.4
373.635	-30.38
373.846	123.22
374.056	125.27
374.267	53.59
374.477	67.92
374.688	33.11
374.898	61.78
375.109	24.92
375.319	84.31
375.53	78.16
375.74	84.31
375.951	78.16
376.161	22.87
376.372	100.69
376.582	61.78
376.793	82.26
377.003	53.59
377.214	96.6
377.424	127.32
377.635	92.5
377.845	55.64
378.055	205.14
378.266	26.96
378.476	100.69
378.686	63.83
378.897	102.74
379.107	61.78
379.317	82.26
379.528	33.11
379.738	53.59
379.948	12.63
380.158	106.84
380.369	20.82
380.579	127.32
380.789	69.97
380.999	125.27
381.21	125.27
381.42	102.74
381.63	45.4
381.84	69.97
382.05	80.21
382.261	141.65
382.471	82.26
382.681	67.92
382.891	145.75
383.101	16.73
383.311	-18.09
383.521	108.88
383.731	131.41
383.941	133.46
384.151	127.32
384.361	76.12
384.571	155.99
384.781	123.22
384.991	115.03
385.201	55.64
385.411	133.46
385.621	61.78
385.831	72.02
386.041	98.64
386.251	16.73
386.461	115.03
386.671	26.96
386.881	74.07
387.091	110.93
387.301	127.32
387.511	108.88
387.72	106.84
387.93	49.49
388.14	53.59
388.35	153.94
388.56	49.49
388.769	149.84
388.979	20.82
389.189	-5.8
389.399	53.59
389.609	106.84
389.818	106.84
390.028	2.39
390.238	67.92
390.447	82.26
390.657	119.12
390.867	84.31
391.076	57.68
391.286	22.87
391.496	98.64
391.705	166.23
391.915	74.07
392.125	80.21
392.334	100.69
392.544	82.26
392.753	67.92
392.963	59.73
393.172	121.17
393.382	84.31
393.591	98.64
393.801	31.06
394.01	65.88
394.22	92.5
394.429	174.42
394.639	74.07
394.848	127.32
395.058	57.68
395.267	115.03
395.477	94.55
395.686	117.08
395.895	119.12
396.105	164.18
396.314	92.5
396.524	131.41
396.733	57.68
396.942	127.32
397.152	104.79
397.361	119.12
397.57	155.99
397.78	131.41
397.989	127.32
398.198	196.95
398.407	155.99
398.617	78.16
398.826	123.22
399.035	100.69
399.244	65.88
399.453	127.32
399.663	158.03
399.872	127.32
400.081	90.45
400.29	166.23
400.499	127.32
400.708	158.03
400.917	104.79
401.127	69.97
401.336	129.36
401.545	176.47
401.754	221.52
401.963	256.34
402.172	123.22
402.381	188.75
402.59	164.18
402.799	196.95
403.008	188.75
403.217	129.36
403.426	178.51
403.635	186.71
403.844	182.61
404.053	141.65
404.262	143.7
404.471	174.42
404.68	242
404.888	192.85
405.097	172.37
405.306	229.71
405.515	209.23
405.724	256.34
405.933	225.62
406.142	303.44
406.35	221.52
406.559	223.57
406.768	117.08
406.977	262.48
407.185	256.34
407.394	262.48
407.603	280.91
407.812	348.5
408.02	307.54
408.229	325.97
408.438	297.3
408.646	301.39
408.855	352.59
409.064	287.06
409.272	428.37
409.481	352.59
409.69	323.92
409.898	319.82
410.107	438.61
410.315	379.22
410.524	411.98
410.733	409.94
410.941	375.12
411.15	457.04
411.358	442.7
411.567	477.52
411.775	520.53
411.984	491.85
412.192	598.35
412.401	575.82
412.609	524.62
412.818	629.07
413.026	592.2
413.234	541.01
413.443	672.08
413.651	559.44
413.86	739.66
414.068	786.76
414.276	778.57
414.485	708.94
414.693	782.67
414.901	934.22
415.11	889.16
415.318	928.07
415.526	909.64
415.734	1083.72
415.943	977.22
416.151	1040.71
416.359	1093.96
416.567	1026.37
416.776	1167.68
416.984	1206.59
417.192	1255.75
417.4	1272.13
417.608	1212.74
417.817	1327.43
418.025	1319.23
418.233	1413.44
418.441	1360.19
418.649	1438.02
418.857	1651
419.065	1560.89
419.273	1536.32
419.481	1532.22
419.689	1730.87
419.897	1913.14
420.105	1863.99
420.313	1886.52
420.521	1898.81
420.729	2005.3
420.937	2111.8
421.145	2210.1
421.353	2240.82
421.561	2242.87
421.769	2498.86
421.977	2615.6
422.185	2427.18
422.393	2588.97
422.601	2791.72
422.809	2787.63
423.017	2765.1
423.224	2842.92
423.432	3178.79
423.64	3066.15
423.848	3197.22
424.056	3195.17
424.263	3359.01
424.471	3485.98
424.679	3604.77
424.887	3830.04
425.094	3911.96
425.302	3875.1
425.51	3959.06
425.718	4223.25
425.925	4303.12
426.133	4415.76
426.341	4655.37
426.548	4763.92
426.756	4911.37
426.964	4786.44
427.171	5189.89
427.379	5286.15
427.586	5325.06
427.794	5595.39
428.001	5632.26
428.209	5982.46
428.417	5843.2
428.624	6293.75
428.832	6205.69
429.039	6303.99
429.247	6271.22
429.454	7004.39
429.662	7291.11
429.869	6873.32
430.076	7235.81
430.284	7078.12
430.491	7454.95
430.699	7751.9
430.906	7889.12
431.114	8052.95
431.321	8509.65
431.528	8530.13
431.736	9095.37
431.943	9259.21
432.15	9015.5
432.358	9130.19
432.565	9580.74
432.772	9478.34
432.979	10111.16
433.187	10234.04
433.394	10176.7
433.601	11018.41
433.808	11190.44
434.016	10817.71
434.223	11301.03
434.43	11933.86
434.637	11937.95
434.844	12513.43
435.052	12984.46
435.259	12869.78
435.466	12832.91
435.673	12882.06
435.88	13789.31
436.087	14295.16
436.294	14319.74
436.501	13809.79
436.708	14256.25
436.915	14573.69
437.122	15503.46
437.329	15167.6
437.537	15904.87
437.743	16140.38
437.95	16306.27
438.157	16863.32
438.364	17334.35
438.571	17492.04
438.778	17483.85
438.985	19017.78
439.192	18460.73
439.399	18939.96
439.606	18778.17
439.813	19783.72
440.02	21008.4
440.227	20324.38
440.433	20138.02
440.64	20897.81
440.847	20822.04
441.054	21409.81
441.261	22581.24
441.467	22263.81
441.674	22894.58
441.881	23298.03
442.088	23654.38
442.294	23349.23
442.501	23863.27
442.708	24401.89
442.914	25198.55
443.121	26560.45
443.328	25812.94
443.534	27547.57
443.741	26644.41
443.948	26302.4
444.154	28260.26
444.361	28434.34
444.568	28446.63
444.774	28127.14
444.981	28495.78
445.187	29409.17
445.394	30558.08
445.6	30289.8
445.807	32911.2
446.013	31485.81
446.22	32333.67
446.426	33283.93
446.633	33429.34
446.839	34768.71
447.046	33378.14
447.252	35262.27
447.459	35252.03
447.665	35041.09
447.871	36527.91
448.078	38010.64
448.284	36480.81
448.491	37379.87
448.697	38571.78
448.903	39276.29
449.11	39565.05
449.316	38717.19
449.522	39325.44
449.728	40564.46
449.935	41031.4
450.141	40775.4
450.347	42034.9
450.553	40959.72
450.76	41135.84
450.966	42221.27
451.172	42026.71
451.378	43042.5
451.584	42200.79
451.791	43208.39
451.997	43202.24
452.203	43505.34
452.409	43667.13
452.615	43796.15
452.821	41807.58
453.027	41279.2
453.233	43796.15
453.44	41795.29
453.646	42303.18
453.852	42454.73
454.058	43562.68
454.264	41789.14
454.47	42745.55
454.676	41582.3
454.882	43253.44
455.088	39184.13
455.294	40249.07
455.5	40599.27
455.705	41008.87
455.911	39456.51
456.117	38600.46
456.323	38231.82
456.529	36597.54
456.735	37975.83
456.941	36550.44
457.147	36206.38
457.352	35194.68
457.558	35071.81
457.764	35012.42
457.97	34144.08
458.176	33423.19
458.381	33533.78
458.587	31866.74
458.793	31643.51
458.999	30306.18
459.204	32255.85
459.41	31336.31
459.616	29323.16
459.821	29519.76
460.027	29814.67
460.233	28964.76
460.438	27598.77
460.644	28090.28
460.85	26363.84
461.055	26238.92
461.261	25984.97
461.466	23961.58
461.672	23330.8
461.878	25085.91
462.083	23257.07
462.289	22988.79
462.494	22947.83
462.7	21585.93
462.905	21039.12
463.111	21739.53
463.316	22110.21
463.522	21475.34
463.727	21370.9
463.932	21553.16
464.138	21053.46
464.343	21147.67
464.549	20619.29
464.754	21458.96
464.959	20969.49
465.165	20658.2
465.37	19984.42
465.575	19841.06
465.781	20275.23
465.986	20736.02
466.191	19548.2
466.397	19382.32
466.602	18311.23
466.807	19083.31
467.012	19232.82
467.218	19046.45
467.423	18782.26
467.628	18946.1
467.833	19589.16
468.038	18876.47
468.244	18311.23
468.449	19071.03
468.654	18477.12
468.859	18309.18
469.064	18507.83
469.269	17729.61
469.474	17651.78
469.679	17952.84
469.885	17446.99
470.09	17434.7
470.295	17682.5
470.5	17129.55
470.705	17334.35
470.91	16808.02
471.115	16828.5
471.32	16965.71
471.525	16871.51
471.73	16613.46
471.935	16367.71
472.139	16250.97
472.344	15986.79
472.549	16124
472.754	15761.51
472.959	15589.48
473.164	15128.69
473.369	14876.79
473.574	15468.65
473.778	15278.19
473.983	14958.71
474.188	15282.28
474.393	14596.21
474.598	14561.4
474.802	14485.62
475.007	14102.65
475.212	14397.56
475.417	13625.48
475.621	13758.6
475.826	13985.92
476.031	13666.44
476.235	13377.67
476.44	13590.66
476.645	13197.45
476.849	13262.99
477.054	13248.65
477.259	12822.67
477.463	13009.04
477.668	12509.33
477.872	12984.46
478.077	12624.02
478.282	12241.05
478.486	12187.8
478.691	12478.61
478.895	12040.35
479.1	12001.44
479.304	11972.77
479.509	11593.89
479.713	11757.73
479.918	11612.32
480.122	11493.54
480.326	11767.97
480.531	11620.52
480.735	11415.72
480.94	11587.75
481.144	11815.07
481.348	11165.87
481.553	11321.51
481.757	10981.55
481.961	11131.05
482.166	11419.82
482.37	11385
482.574	10903.73
482.778	11133.1
482.983	11313.32
483.187	11042.99
483.391	11114.67
483.595	11079.85
483.8	10877.1
484.004	10959.02
484.208	11151.53
484.412	11002.03
484.616	11301.03
484.821	11204.78
485.025	10989.74
485.229	11055.28
485.433	10950.83
485.637	11122.86
485.841	10801.33
486.045	10913.97
486.249	11004.08
486.453	10793.14
486.657	11118.76
486.861	11255.98
487.065	10817.71
487.269	10975.41
487.473	10928.3
487.677	11116.72
487.881	11225.26
488.085	11167.91
488.289	11163.82
488.493	11047.08
488.697	11184.3
488.901	11258.03
489.105	11077.8
489.309	10987.69
489.512	11290.79
489.716	11110.57
489.92	11110.57
490.124	11182.25
490.328	11413.67
490.531	11307.18
490.735	11172.01
490.939	11421.86
491.143	11315.37
491.346	11169.96
491.55	11634.85
491.754	11352.23
491.958	11634.85
492.161	11387.05
492.365	11411.62
492.569	11653.28
492.772	11559.08
492.976	11727.01
493.18	11702.43
493.383	11780.26
493.587	12132.51
493.79	11995.29
493.994	11755.68
494.197	12066.97
494.401	12087.45
494.605	12583.06
494.808	12361.88
495.012	12378.26
495.215	12681.36
495.419	12734.61
495.622	12669.08
495.825	12832.91
496.029	12863.63
496.232	13025.42
496.436	13070.48
496.639	13320.33
496.843	13361.29
497.046	13344.91
497.249	13680.77
497.453	13510.79
497.656	13967.49
497.859	13840.51
498.063	13959.3
498.266	14164.09
498.469	14286.97
498.673	14671.99
498.876	14645.37
499.079	14680.18
499.282	14618.74
499.485	15024.24
499.689	15429.74
499.892	15390.83
500.095	15274.09
500.298	15657.06
500.501	15603.82
500.705	16189.53
500.908	16359.52
501.111	16232.54
501.314	16607.32
501.517	16824.4
501.72	16760.92
501.923	16769.11
502.126	17221.71
502.329	17453.13
502.532	17590.34
502.735	17735.75
502.938	18294.85
503.141	18167.87
503.344	18315.33
503.547	18483.26
503.75	18753.59
503.953	18964.53
504.156	19060.79
504.359	19372.08
504.562	19652.65
504.765	20127.78
504.968	19892.26
505.17	20520.99
505.373	19984.42
505.576	20629.53
505.779	20946.97
505.982	20926.49
506.185	21350.42
506.387	21676.04
506.59	21766.15
506.793	21975.05
506.996	21973
507.198	22652.92
507.401	22482.94
507.604	22747.13
507.807	23267.31
508.009	23607.28
508.212	23396.34
508.415	23832.55
508.617	24037.35
508.82	24448.99
509.022	24055.78
509.225	24815.58
509.428	25090.01
509.63	25122.77
509.833	25343.95
510.035	25962.44
510.238	25812.94
510.44	26210.25
510.643	26785.72
510.845	26806.2
511.048	26499.01
511.25	27264.95
511.453	27568.05
511.655	27987.88
511.858	27912.11
512.06	28006.31
512.262	28565.41
512.465	28422.05
512.667	28968.86
512.87	29022.11
513.072	29302.68
513.274	29988.75
513.477	29904.78
513.679	30549.89
513.881	30349.19
514.084	30943.1
514.286	30961.53
514.488	31289.21
514.69	32046.96
514.893	32030.57
515.095	32149.35
515.297	32647.01
515.499	32753.51
515.701	32749.41
515.904	33326.94
516.106	33730.39
516.308	34344.78
516.51	34178.89
516.712	34088.78
516.914	35018.56
517.116	35411.77
517.318	35333.95
517.52	35387.19
517.722	35387.19
517.925	36171.57
518.127	36486.95
518.329	36831.01
518.531	37113.63
518.733	37363.48
518.935	37836.56
519.136	37807.89
519.338	38154
519.54	38749.96
519.742	39018.24
519.944	39223.04
520.146	39542.52
520.348	39925.49
520.55	39786.23
520.752	40011.51
520.954	40531.69
521.155	40535.79
521.357	41115.36
521.559	41285.34
521.761	41866.97
521.963	41789.14
522.164	42073.81
522.366	42317.52
522.568	42737.35
522.77	42809.03
522.971	43400.9
523.173	43026.12
523.375	43470.53
523.576	43667.13
523.778	43787.96
523.98	44076.72
524.181	44342.96
524.383	44701.36
524.584	45356.71
524.786	45199.01
524.988	44920.49
525.189	45461.15
525.391	45387.42
525.592	46206.61
525.794	46153.37
525.995	46229.14
526.197	46245.52
526.398	46198.42
526.6	46558.86
526.801	46864.01
527.003	47005.32
527.204	46714.51
527.406	47353.47
527.607	47435.39
527.808	47937.15
528.01	47197.83
528.211	47259.27
528.412	48330.36
528.614	47787.64
528.815	47853.18
529.016	48510.58
529.218	47922.81
529.419	48227.96
529.62	48012.92
529.822	48117.37
530.023	48250.49
530.224	48055.93
530.425	48352.88
530.626	48291.44
530.828	48442.99
531.029	48766.57
531.23	48367.22
531.431	48813.68
531.632	48535.15
531.833	49088.1
532.035	49538.66
532.236	49385.06
532.437	49165.93
532.638	48805.48
532.839	48987.75
533.04	49200.74
533.241	48871.02
533.442	49804.89
533.643	49065.58
533.844	48854.64
534.045	49340
534.246	48989.8
534.447	49297
534.648	49079.91
534.849	49692.26
535.05	49049.19
535.251	49366.63
535.451	48987.75
535.652	49251.94
535.853	49077.86
536.054	49131.11
536.255	49131.11
536.456	48752.24
536.657	49507.94
536.857	49235.56
537.058	48832.11
537.259	49464.93
537.46	49071.72
537.66	48813.68
537.861	49129.06
538.062	49004.14
538.263	49098.34
538.463	48983.66
538.664	49450.59
538.865	49299.05
539.065	48944.75
539.266	48707.18
539.466	49657.44
539.667	48535.15
539.868	49012.33
540.068	48655.98
540.269	48467.57
540.469	49057.38
540.67	48549.49
540.87	48838.25
541.071	48764.53
541.271	49202.79
541.472	48717.42
541.672	48207.48
541.873	48291.44
542.073	47976.06
542.274	48549.49
542.474	48295.54
542.675	48473.71
542.875	48533.1
543.075	48610.93
543.276	48051.83
543.476	48936.55
543.676	48057.98
543.877	48488.05
544.077	48328.31
544.277	48477.81
544.478	48592.5
544.678	48682.61
544.878	48445.04
545.078	48637.55
545.279	48612.98
545.479	47822.46
545.679	48502.39
545.879	47842.94
546.079	48502.39
546.28	48176.76
546.48	47943.29
546.68	48225.91
546.88	48672.37
547.08	48221.81
547.28	48113.27
547.48	47984.25
547.68	48502.39
547.88	47877.75
548.081	48586.35
548.281	48285.3
548.481	47955.58
548.681	48023.16
548.881	48309.88
549.081	47894.14
549.28	47840.89
549.48	48363.12
549.68	48422.51
549.88	48762.48
550.08	47834.75
550.28	48365.17
550.48	48416.37
550.68	48211.57
550.88	47853.18
551.08	47584.9
551.279	47961.72
551.479	47785.6
551.679	48393.84
551.879	47816.32
552.079	48051.83
552.278	47935.1
552.478	47814.27
552.678	48139.89
552.878	48203.38
553.077	47963.77
553.277	47445.63
553.477	48412.27
553.676	47642.24
553.876	47529.6
554.076	47636.09
554.275	47705.73
554.475	47146.63
554.674	47636.09
554.874	47720.06
555.074	47629.95
555.273	47754.88
555.473	47806.08
555.672	47224.45
555.872	47392.39
556.071	47562.37
556.271	47646.33
556.47	47077
556.67	47074.95
556.869	47513.22
557.068	47582.85
557.268	47154.82
557.467	47093.38
557.667	47437.44
557.866	47457.92
558.065	47580.8
558.265	47472.26
558.464	46976.65
558.663	47601.28
558.863	46495.38
559.062	47449.73
559.261	46782.09
559.461	47539.84
559.66	46362.26
559.859	46909.07
560.058	46765.71
560.258	47064.71
560.457	46386.83
560.656	47115.91
560.855	46542.48
561.054	47169.16
561.253	46276.24
561.453	46581.39
561.652	46454.42
561.851	46544.53
562.05	45960.86
562.249	46112.41
562.448	46732.94
562.647	46468.75
562.846	46235.28
563.045	45934.23
563.244	45692.57
563.443	46440.08
563.642	45307.55
563.841	45852.31
564.04	45600.41
564.239	46089.88
564.438	45682.33
564.637	46028.44
564.836	46061.21
565.035	45145.76
565.234	45514.4
565.432	45608.61
565.631	45577.89
565.83	45520.54
566.029	45221.54
566.228	45176.48
566.427	44973.74
566.625	44756.65
566.824	44379.82
567.023	45026.98
567.222	43814.58
567.42	44813.99
567.619	44609.2
567.818	43974.33
568.016	44394.16
568.215	44773.03
568.414	44527.28
568.612	44713.64
568.811	44246.71
569.01	44347.06
569.208	43923.13
569.407	44699.31
569.605	43538.11
569.804	44043.96
570.002	43904.7
570.201	43624.12
570.4	43615.93
570.598	43341.5
570.797	43376.32
570.995	43175.62
571.193	43118.28
571.392	43382.46
571.59	42835.66
571.789	42927.81
571.987	42901.19
572.186	42813.13
572.384	42745.55
572.582	42571.47
572.781	42634.95
572.979	41748.18
573.177	42251.98
573.376	42075.86
573.574	42051.28
573.772	42118.87
573.971	42247.89
574.169	41684.7
574.367	41336.54
574.565	42112.72
574.763	41252.58
574.962	41350.88
575.16	41176.8
575.358	41524.96
575.556	40556.27
575.754	41125.6
575.952	40621.8
576.151	41375.45
576.349	40795.88
576.547	40685.29
576.745	40742.63
576.943	40742.63
577.141	40652.52
577.339	40505.07
577.537	40388.33
577.735	40113.91
577.933	39939.83
578.131	40126.19
578.329	39980.79
578.527	39589.63
578.725	39812.85
578.923	40089.33
579.121	39184.13
579.319	39270.14
579.516	39618.3
579.714	39220.99
579.912	39366.4
580.11	38682.38
580.308	39266.05
580.506	39055.11
580.704	38389.52
580.901	39153.41
581.099	39112.45
581.297	38276.88
581.495	38149.9
581.692	38412.04
581.89	37920.53
582.088	38303.5
582.285	37898
582.483	38063.89
582.681	38029.07
582.878	37721.88
583.076	37568.28
583.274	37674.77
583.471	37420.83
583.669	37775.12
583.866	37238.56
584.064	37537.56
584.262	37007.14
584.459	37766.93
584.657	36738.85
584.854	37150.49
585.052	36439.85
585.249	36998.94
585.447	36427.56
585.644	36103.98
585.841	36472.62
586.039	36198.19
586.236	36099.89
586.434	36136.75
586.631	35798.84
586.828	36083.5
587.026	35921.71
587.223	35696.44
587.42	35741.49
587.618	35252.03
587.815	35354.43
588.012	35456.82
588.21	35366.71
588.407	35557.17
588.604	35204.92
588.801	34623.3
588.999	34758.47
589.196	34473.8
589.393	34871.11
589.59	34723.65
589.787	34563.91
589.984	34230.09
590.182	33961.81
590.379	34203.47
590.576	34056.01
590.773	34088.78
590.97	33967.95
591.167	33804.11
591.364	33515.35
591.561	33855.31
591.758	33384.28
591.955	33509.21
592.152	33832.79
592.349	33269.59
592.546	33630.04
592.743	33265.5
592.94	32984.93
593.137	33529.69
593.334	33116
593.531	32636.77
593.727	32851.81
593.924	32714.59
594.121	32305
594.318	32868.19
594.515	32538.47
594.712	32384.87
594.908	32239.47
595.105	32319.34
595.302	31688.56
595.499	32057.2
595.696	31803.25
595.892	31623.03
596.089	31901.55
596.286	31858.54
596.482	31188.86
596.679	31299.45
596.876	31412.09
597.072	31459.19
597.269	31555.44
597.466	30717.82
597.662	30877.57
597.859	31412.09
598.055	30941.05
598.252	30396.29
598.448	30771.07
598.645	30732.16
598.841	30527.36
599.038	30492.55
599.234	30576.51
599.431	29992.84
599.627	30021.52
599.824	30240.65
600.02	29912.97
600.217	29898.64
600.413	29765.52
600.609	29642.64
600.806	29568.91
601.002	29284.25
601.198	29656.98
601.395	29329.3
601.591	29259.67
601.787	29321.11
601.984	29063.07
602.18	29249.43
602.376	29020.06
602.572	28612.51
602.769	29087.64
602.965	28313.51
603.161	28649.38
603.357	28639.14
603.553	28458.92
603.75	28530.59
603.946	28006.31
604.142	28544.93
604.338	27871.15
604.534	28270.5
604.73	27957.16
604.926	27744.17
605.122	27852.72
605.318	27858.86
605.514	27778.99
605.71	27570.1
605.906	27529.14
606.102	27477.94
606.298	27467.7
606.494	27652.02
606.69	27422.64
606.886	27176.89
607.082	27054.01
607.278	27023.29
607.474	26914.75
607.67	27099.06
607.866	26533.82
608.062	27230.13
608.257	26685.37
608.453	26875.84
608.649	26955.71
608.845	26738.62
609.041	26529.73
609.236	26662.85
609.432	26283.97
609.628	26564.54
609.824	26320.84
610.019	26140.61
610.215	26316.74
610.411	26365.89
610.606	26064.84
610.802	26365.89
610.998	26232.77
611.193	26202.05
611.389	25933.77
611.584	25669.58
611.78	25702.35
611.976	25647.05
612.171	25829.32
612.367	25665.49
612.562	25360.34
612.758	24915.93
612.953	25411.54
613.149	25825.23
613.344	25235.41
613.539	25530.32
613.735	25294.8
613.93	25389.01
614.126	25196.5
614.321	25599.95
614.517	25343.95
614.712	25186.26
614.907	24825.82
615.103	25356.24
615.298	24801.24
615.493	25370.58
615.688	24975.32
615.884	25018.33
616.079	24336.35
616.274	25210.84
616.47	24641.5
616.665	24868.83
616.86	24395.75
617.055	24514.53
617.25	24403.94
617.445	24606.69
617.641	24113.13
617.836	24657.89
618.031	24387.55
618.226	24414.18
618.421	23926.76
618.616	24305.63
618.811	23574.51
619.006	23939.05
619.201	23642.09
619.396	23787.5
619.591	23338.99
619.786	23793.64
619.981	23324.66
620.176	23527.41
620.371	23128.05
620.566	23136.24
620.761	23228.4
620.956	23156.72
621.151	22441.98
621.346	22913.02
621.541	22579.2
621.735	22605.82
621.93	22366.21
622.125	22484.99
622.32	21929.99
622.515	22122.5
622.709	21973
622.904	21874.7
623.099	21975.05
623.294	22032.39
623.488	21311.5
623.683	21592.08
623.878	21276.69
624.072	21284.88
624.267	21356.56
624.462	21047.32
624.656	20881.43
624.851	21045.27
625.046	20545.56
625.24	20459.55
625.435	20525.08
625.629	20377.63
625.824	20224.03
626.018	20172.83
626.213	19982.37
626.407	20047.91
626.602	19689.51
626.796	19693.61
626.991	19800.1
627.185	19802.15
627.38	19556.39
627.574	19367.98
627.768	18731.06
627.963	19032.11
628.157	19007.54
628.352	19001.4
628.546	18810.93
628.74	18755.64
628.935	18442.3
629.129	18694.2
629.323	18565.18
629.517	18485.31
629.712	18251.84
629.906	18088
630.1	18088
630.294	18016.32
630.489	17850.44
630.683	18131.01
630.877	17594.44
631.071	17678.41
631.265	17588.3
631.459	17461.32
631.653	17160.27
631.848	17399.88
632.042	17205.33
632.236	17129.55
632.43	16748.63
632.624	17365.07
632.818	16951.38
633.012	16638.04
633.206	16441.43
633.4	16666.71
633.594	16554.07
633.788	16476.25
633.982	16627.8
634.176	16359.52
634.369	16173.15
634.563	15990.88
634.757	15962.21
634.951	16117.86
635.145	15876.2
635.339	15865.96
635.533	15683.69
635.726	15808.61
635.92	15372.39
636.114	15632.49
636.308	15171.69
636.501	15364.2
636.695	15335.53
636.889	15040.62
637.083	15106.16
637.276	14993.52
637.47	14628.98
637.664	14762.1
637.857	14772.34
638.051	14878.83
638.244	14309.5
638.438	14401.66
638.632	14319.74
638.825	14440.57
639.019	14297.21
639.212	14194.81
639.406	14180.48
639.599	14059.65
639.793	13877.38
639.986	13820.03
640.18	13791.36
640.373	13803.65
640.567	13820.03
640.76	13430.92
640.954	13287.56
641.147	13453.45
641.34	13160.59
641.534	13387.91
641.727	13152.4
641.92	13287.56
642.114	13213.84
642.307	13123.73
642.5	13154.44
642.694	12767.38
642.887	12689.56
643.08	12855.44
643.273	12863.63
643.467	12443.8
643.66	12585.11
643.853	12406.94
644.046	12189.85
644.239	12365.98
644.432	12148.89
644.626	12165.28
644.819	12169.37
645.012	12077.21
645.205	12034.21
645.398	12175.52
645.591	11956.38
645.784	11870.37
645.977	11491.49
646.17	11702.43
646.363	11716.77
646.556	11505.83
646.749	11329.7
646.942	11526.31
647.135	11126.96
647.328	11399.34
647.521	11225.26
647.714	10934.45
647.907	11126.96
648.099	10991.79
648.292	10944.69
648.485	11329.7
648.678	11014.32
648.871	10909.87
649.064	11024.56
649.256	10707.12
649.449	10715.31
649.642	10676.4
649.835	10414.26
650.027	10600.63
650.22	10551.48
650.413	10436.79
650.605	10348.73
650.798	10270.9
650.991	10094.78
651.183	10148.03
651.376	10186.94
651.568	10389.69
651.761	9892.03
651.954	10141.88
652.146	10021.05
652.339	9953.47
652.531	9767.1
652.724	9633.99
652.916	9728.19
653.109	9617.6
653.301	9652.42
653.494	9558.21
653.686	9607.36
653.879	9580.74
654.071	9459.91
654.263	9238.73
654.456	9363.65
654.648	9394.37
654.84	9064.65
655.033	9144.52
655.225	9242.82
655.417	9058.51
655.61	9109.71
655.802	8882.38
655.994	8872.14
656.186	8786.13
656.379	8831.18
656.571	8769.74
656.763	8732.88
656.955	8820.94
657.148	8749.26
657.34	8532.18
657.532	8435.92
657.724	8618.19
657.916	8671.44
658.108	8388.82
658.3	8388.82
658.492	8548.56
658.684	8380.63
658.876	8325.33
659.068	8188.12
659.26	8231.13
659.452	8038.62
659.644	8141.02
659.836	8075.48
660.028	7971.04
660.22	7936.22
660.412	7874.78
660.604	7905.5
660.796	7811.29
660.988	7784.67
661.18	7497.95
661.372	7448.8
661.563	7756
661.755	7579.87
661.947	7803.1
662.139	7547.11
662.331	7260.39
662.522	7362.79
662.714	7547.11
662.906	7479.52
663.097	7338.21
663.289	7241.96
663.481	7350.5
663.673	7241.96
663.864	7401.7
664.056	7190.76
664.247	7125.22
664.439	7094.51
664.631	7092.46
664.822	7035.11
665.014	6945
665.205	6787.31
665.397	6930.67
665.588	6865.13
665.78	6707.44
665.971	6803.69
666.163	6848.75
666.354	6727.92
666.546	6641.9
666.737	6641.9
666.929	6652.14
667.12	6627.57
667.311	6668.53
667.503	6455.54
667.694	6637.81
667.885	6555.89
668.077	6379.76
668.268	6426.87
668.459	6377.72
668.651	6320.37
668.842	6324.47
669.033	6308.09
669.224	6330.61
669.416	6265.08
669.607	6267.13
669.798	6201.59
669.989	6183.16
670.18	6146.3
670.371	6252.79
670.563	6064.38
670.754	6183.16
670.945	6203.64
671.136	6164.73
671.327	5929.21
671.518	6082.81
671.709	5843.2
671.9	6074.62
672.091	5939.45
672.282	5931.26
672.473	5826.81
672.664	5816.57
672.855	5730.56
673.046	5904.64
673.237	5902.59
673.428	5689.6
673.619	5738.75
673.809	5581.06
674	5622.02
674.191	5708.03
674.382	5712.13
674.573	5613.82
674.764	5566.72
674.954	5656.83
675.145	5529.86
675.336	5413.12
675.527	5492.99
675.717	5462.27
675.908	5589.25
676.099	5570.82
676.289	5574.91
676.48	5349.64
676.671	5441.79
676.861	5398.79
677.052	5226.76
677.243	5306.63
677.433	5366.02
677.624	5337.35
677.814	5275.91
678.005	5288.2
678.195	5259.53
678.386	5263.62
678.576	5202.18
678.767	5218.57
678.957	5187.85
679.148	5228.81
679.338	5171.46
679.529	5167.37
679.719	5144.84
679.909	5038.34
680.1	5206.28
680.29	4948.23
680.481	5130.5
680.671	5103.88
680.861	4905.23
681.052	5087.5
681.242	4946.19
681.432	4899.08
681.622	4839.69
681.813	4854.03
682.003	5017.86
682.193	4933.9
682.383	4794.64
682.573	4981
682.764	4788.49
682.954	4884.75
683.144	4956.43
683.334	4981
683.524	4770.06
683.714	4811.02
683.904	4913.42
684.094	4882.7
684.284	4751.63
684.474	4763.92
684.664	4733.2
684.854	4665.61
685.044	4882.7
685.234	4610.32
685.424	4706.57
685.614	4546.83
685.804	4657.42
685.994	4606.22
686.184	4634.89
686.374	4638.99
686.564	4522.26
686.753	4600.08
686.943	4464.91
687.133	4497.68
687.323	4575.5
687.513	4499.73
687.702	4360.47
687.892	4417.81
688.082	4423.95
688.272	4380.95
688.461	4331.8
688.651	4464.91
688.841	4415.76
689.03	4409.62
689.22	4358.42
689.41	4358.42
689.599	4331.8
689.789	4247.83
689.979	4366.61
690.168	4077.85
690.358	4219.16
690.547	4196.63
690.737	4120.85
690.926	4335.89
691.116	4075.8
691.305	4133.14
691.495	4270.36
691.684	4059.42
691.874	4075.8
692.063	3991.83
692.252	4131.09
692.442	4204.82
692.631	4016.41
692.82	4118.81
693.01	3850.52
693.199	3936.54
693.388	3991.83
693.578	3963.16
693.767	3916.06
693.956	4016.41
694.146	3850.52
694.335	3787.04
694.524	3768.6
694.713	4006.17
694.902	3899.67
695.092	3825.95
695.281	3879.19
695.47	3885.34
695.659	3916.06
695.848	3768.6
696.037	3924.25
696.226	3750.17
696.415	3799.32
696.604	3830.04
696.793	3764.51
696.982	3789.08
697.171	3764.51
697.36	3766.56
697.549	3719.45
697.738	3631.39
697.927	3713.31
698.116	3678.49
698.305	3533.09
698.494	3565.85
698.683	3645.73
698.872	3703.07
699.061	3670.3
699.25	3633.44
699.438	3746.08
699.627	3649.82
699.816	3621.15
700.005	3592.48
700.193	3637.53
700.382	3715.36
700.571	3543.33
700.76	3610.91
700.948	3703.07
701.137	3545.38
701.326	3680.54
701.514	3535.14
701.703	3662.11
701.892	3512.61
702.08	3619.1
702.269	3465.5
702.457	3551.52
702.646	3502.37
702.834	3649.82
703.023	3365.15
703.212	3420.45
703.4	3383.59
703.589	3428.64
703.777	3408.16
703.965	3410.21
704.154	3426.59
704.342	3342.63
704.531	3377.44
704.719	3410.21
704.907	3402.02
705.096	3338.53
705.284	3313.95
705.472	3385.63
705.661	3471.65
705.849	3371.3
706.037	3295.52
706.226	3289.38
706.414	3334.43
706.602	3285.28
706.79	3399.97
706.979	3215.65
707.167	3311.91
707.355	3254.56
707.543	3289.38
707.731	3180.84
707.919	3328.29
708.107	3225.89
708.296	3338.53
708.484	3152.17
708.672	3268.9
708.86	3244.32
709.048	3141.93
709.236	3070.25
709.424	3146.02
709.612	3234.08
709.8	3080.49
709.988	3131.69
710.176	3084.58
710.364	3223.84
710.551	3182.88
710.739	3086.63
710.927	3162.41
711.115	3100.97
711.303	3148.07
711.491	3100.97
711.679	3012.9
711.866	3076.39
712.054	3043.62
712.242	2959.66
712.43	3154.21
712.617	3049.77
712.805	3105.06
712.993	2967.85
713.181	3041.57
713.368	3080.49
713.556	2951.46
713.744	2988.33
713.931	2947.37
714.119	3023.14
714.306	2961.7
714.494	2951.46
714.682	2836.78
714.869	2914.6
715.057	2998.57
715.244	2777.39
715.432	2937.13
715.619	2801.96
715.807	2937.13
715.994	2900.27
716.182	2933.03
716.369	2953.51
716.556	2799.91
716.744	2795.82
716.931	2736.43
717.119	2861.35
717.306	2793.77
717.493	2736.43
717.681	2754.86
717.868	2859.31
718.055	2754.86
718.242	2810.15
718.43	2875.69
718.617	2808.11
718.804	2853.16
718.991	2703.66
719.179	2711.85
719.366	2783.53
719.553	2713.9
719.74	2670.89
719.927	2738.48
720.114	2699.56
720.301	2658.6
720.488	2683.18
720.676	2621.74
720.863	2629.93
721.05	2720.04
721.237	2720.04
721.424	2558.25
721.611	2574.64
721.798	2642.22
721.985	2697.52
722.172	2574.64
722.358	2482.48
722.545	2658.6
722.732	2718
722.919	2599.21
723.106	2511.15
723.293	2515.25
723.48	2498.86
723.667	2496.82
723.853	2507.06
724.04	2462
724.227	2507.06
724.414	2588.97
724.6	2531.63
724.787	2453.81
724.974	2511.15
725.161	2466.1
725.347	2435.38
725.534	2523.44
725.72	2355.51
725.907	2484.53
726.094	2617.65
726.28	2427.18
726.467	2441.52
726.653	2435.38
726.84	2441.52
727.027	2423.09
727.213	2371.89
727.4	2214.2
727.586	2494.77
727.773	2361.65
727.959	2298.16
728.145	2304.31
728.332	2337.07
728.518	2304.31
728.705	2359.6
728.891	2304.31
729.077	2263.35
729.264	2273.59
729.45	2322.74
729.636	2476.34
729.823	2269.49
730.009	2335.03
730.195	2238.77
730.382	2316.59
730.568	2203.96
730.754	2267.44
730.94	2283.83
731.126	2347.31
731.313	2343.22
731.499	2271.54
731.685	2380.08
731.871	2343.22
732.057	2326.83
732.243	2246.96
732.429	2347.31
732.615	2232.63
732.801	2199.86
732.987	2236.72
733.173	2220.34
733.359	2187.57
733.545	2167.09
733.731	2255.15
733.917	2197.81
734.103	2163
734.289	2136.37
734.475	2122.04
734.661	2199.86
734.847	2203.96
735.033	2060.6
735.219	2195.76
735.404	2220.34
735.59	2183.48
735.776	2236.72
735.962	2165.04
736.148	2249.01
736.333	2238.77
736.519	2115.89
736.705	2130.23
736.89	2072.89
737.076	2025.78
737.262	2113.85
737.447	2046.26
737.633	2089.27
737.819	2117.94
738.004	2040.12
738.19	2019.64
738.375	2036.02
738.561	2105.65
738.747	2076.98
738.932	2031.93
739.118	2093.37
739.303	2140.47
739.489	1962.3
739.674	2064.69
739.859	1872.18
740.045	1995.06
740.23	2054.45
740.416	1898.81
740.601	2001.21
740.786	1999.16
740.972	1970.49
741.157	1933.62
741.342	1915.19
741.528	1958.2
741.713	1909.05
741.898	1886.52
742.084	1868.09
742.269	1931.58
742.454	1808.7
742.639	1798.46
742.824	1835.32
743.01	1894.71
743.195	1943.86
743.38	1859.9
743.565	1847.61
743.75	1794.36
743.935	1802.55
744.12	1866.04
744.305	1671.48
744.49	1704.25
744.675	1909.05
744.86	1763.64
745.045	1753.4
745.23	1777.98
745.415	1671.48
745.6	1722.68
745.785	1724.73
745.97	1761.59
746.155	1780.03
746.34	1651
746.525	1589.57
746.71	1706.3
746.895	1646.91
747.079	1534.27
747.264	1583.42
747.449	1739.07
747.634	1661.24
747.819	1569.09
748.003	1603.9
748.188	1585.47
748.373	1628.48
748.557	1706.3
748.742	1567.04
748.927	1564.99
749.111	1640.76
749.296	1589.57
749.481	1540.41
749.665	1534.27
749.85	1433.92
750.034	1503.55
750.219	1521.98
750.404	1442.11
750.588	1509.69
750.773	1438.02
750.957	1460.54
751.141	1495.36
751.326	1362.24
751.51	1352
751.695	1423.68
751.879	1378.62
752.064	1409.34
752.248	1388.86
752.432	1503.55
752.617	1372.48
752.801	1388.86
752.985	1308.99
753.17	1356.1
753.354	1321.28
753.538	1257.79
753.722	1265.99
753.907	1272.13
754.091	1204.55
754.275	1286.47
754.459	1179.97
754.643	1268.03
754.828	1311.04
755.012	1280.32
755.196	1196.36
755.38	1190.21
755.564	1208.64
755.748	1173.83
755.932	1227.07
756.116	1225.03
756.3	1163.59
756.484	1106.24
756.668	1139.01
756.852	1182.02
757.036	1073.48
757.22	1116.48
757.404	1161.54
757.588	1157.44
757.772	1089.86
757.956	1171.78
758.14	1087.81
758.323	1081.67
758.507	1061.19
758.691	1116.48
758.875	1132.87
759.059	1081.67
759.242	993.61
759.426	1022.28
759.61	1073.48
759.794	1007.94
759.977	1093.96
760.161	1073.48
760.345	1065.29
760.528	1077.57
760.712	930.12
760.895	1001.8
761.079	958.79
761.263	991.56
761.446	887.11
761.63	983.37
761.813	1048.9
761.997	934.22
762.18	901.45
762.364	946.5
762.547	860.49
762.731	917.83
762.914	944.45
763.098	946.5
763.281	880.97
763.464	895.3
763.648	1044.81
763.831	835.91
764.015	911.69
764.198	958.79
764.381	928.07
764.564	829.77
764.748	860.49
764.931	917.83
765.114	844.1
765.297	897.35
765.481	860.49
765.664	885.06
765.847	831.82
766.03	919.88
766.213	809.29
766.397	782.67
766.58	803.15
766.763	846.15
766.946	819.53
767.129	856.39
767.312	962.89
767.495	778.57
767.678	856.39
767.861	923.98
768.044	831.82
768.227	835.91
768.41	803.15
768.593	799.05
768.776	784.71
768.959	770.38
769.142	766.28
769.324	725.32
769.507	778.57
769.69	848.2
769.873	788.81
770.056	876.87
770.239	794.95
770.421	852.3
770.604	784.71
770.787	770.38
770.97	741.71
771.152	680.27
771.335	749.9
771.518	733.51
771.7	770.38
771.883	792.91
772.066	876.87
772.248	790.86
772.431	749.9
772.613	786.76
772.796	772.43
772.978	758.09
773.161	743.75
773.343	698.7
773.526	667.98
773.708	665.93
773.891	645.45
774.073	663.88
774.256	717.13
774.438	721.23
774.621	696.65
774.803	706.89
774.985	610.64
775.168	655.69
775.35	635.21
775.532	713.03
775.715	641.36
775.897	614.73
776.079	653.64
776.261	641.36
776.444	608.59
776.626	600.4
776.808	624.97
776.99	586.06
777.173	665.93
777.355	588.11
777.537	663.88
777.719	690.51
777.901	565.58
778.083	541.01
778.265	571.72
778.447	565.58
778.629	616.78
778.811	573.77
778.993	520.53
779.175	565.58
779.357	584.01
779.539	491.85
779.721	516.43
779.903	598.35
780.085	541.01
780.267	559.44
780.449	581.96
780.631	500.05
780.812	616.78
780.994	622.92
781.176	516.43
781.358	631.12
781.54	434.51
781.721	436.56
781.903	483.66
782.085	559.44
782.267	524.62
782.448	506.19
782.63	491.85
782.812	498
782.993	504.14
783.175	450.89
783.357	483.66
783.538	475.47
783.72	424.27
783.901	391.5
784.083	547.15
784.264	442.7
784.446	428.37
784.627	385.36
784.809	526.67
784.99	428.37
785.172	522.57
785.353	459.09
785.535	405.84
785.716	373.07
785.897	420.17
786.079	452.94
786.26	397.65
786.441	463.18
786.623	432.46
786.804	373.07
786.985	393.55
787.167	459.09
787.348	383.31
787.529	373.07
787.71	448.85
787.891	377.17
788.073	330.06
788.254	323.92
788.435	407.89
788.616	373.07
788.797	344.4
788.978	381.26
789.159	344.4
789.34	348.5
789.522	352.59
789.703	373.07
789.884	393.55
790.065	352.59
790.246	414.03
790.427	385.36
790.607	323.92
790.788	401.74
790.969	344.4
791.15	293.2
791.331	414.03
791.512	356.69
791.693	366.93
791.874	280.91
792.054	336.21
792.235	348.5
792.416	295.25
792.597	375.12
792.778	434.51
792.958	272.72
793.139	328.02
793.32	303.44
793.5	313.68
793.681	381.26
793.862	233.81
794.042	272.72
794.223	221.52
794.404	239.95
794.584	297.3
794.765	233.81
794.945	313.68
795.126	287.06
795.306	358.74
795.487	282.96
795.667	289.1
795.848	270.67
796.028	223.57
796.209	371.02
796.389	252.24
796.57	278.87
796.75	285.01
796.93	328.02
797.111	321.87
797.291	266.58
797.471	205.14
797.652	205.14
797.832	262.48
798.012	344.4
798.192	231.76
798.373	315.73
798.553	254.29
798.733	256.34
798.913	196.95
799.093	258.39
799.274	260.43
799.454	223.57
799.634	219.47
799.814	237.91
799.994	242
800.174	287.06
800.354	192.85
800.534	194.9
800.714	250.19
800.894	229.71
801.074	188.75
801.254	229.71
801.434	266.58
801.614	198.99
801.794	201.04
801.974	717.13
802.154	196.95
802.334	303.44
802.514	160.08
802.693	215.38
802.873	207.19
803.053	221.52
803.233	272.72
803.413	172.37
803.592	180.56
803.772	239.95
803.952	205.14
804.131	192.85
804.311	221.52
804.491	233.81
804.67	205.14
804.85	205.14
805.03	141.65
805.209	155.99
805.389	155.99
805.568	180.56
805.748	145.75
805.928	186.71
806.107	147.8
806.287	213.33
806.466	170.32
806.646	192.85
806.825	160.08
807.004	223.57
807.184	174.42
807.363	250.19
807.543	196.95
807.722	147.8
807.901	188.75
808.081	180.56
808.26	198.99
808.439	211.28
808.619	147.8
808.798	180.56
808.977	217.43
809.156	246.1
809.336	168.27
809.515	139.6
809.694	184.66
809.873	123.22
810.052	188.75
810.231	151.89
810.411	172.37
810.59	180.56
810.769	127.32
810.948	139.6
811.127	131.41
811.306	172.37
811.485	115.03
811.664	176.47
811.843	117.08
812.022	227.67
812.201	123.22
812.38	190.8
812.559	184.66
812.737	139.6
812.916	125.27
813.095	115.03
813.274	141.65
813.453	139.6
813.632	102.74
813.811	213.33
813.989	110.93
814.168	194.9
814.347	67.92
814.526	223.57
814.704	86.36
814.883	217.43
815.062	96.6
815.24	147.8
815.419	108.88
815.598	188.75
815.776	100.69
815.955	123.22
816.133	86.36
816.312	166.23
816.49	170.32
816.669	98.64
816.847	86.36
817.026	74.07
817.204	172.37
817.383	117.08
817.561	135.51
817.74	123.22
817.918	164.18
818.097	106.84
818.275	160.08
818.453	131.41
818.632	172.37
818.81	94.55
818.988	63.83
819.167	80.21
819.345	141.65
819.523	135.51
819.701	84.31
819.879	160.08
820.058	139.6
820.236	84.31
820.414	84.31
820.592	166.23
820.77	203.09
820.948	108.88
821.127	131.41
821.305	94.55
821.483	106.84
821.661	164.18
821.839	147.8
822.017	233.81
822.195	94.55
822.373	227.67
822.551	88.4
822.729	153.94
822.907	102.74
823.085	78.16
823.262	115.03
823.44	188.75
823.618	51.54
823.796	131.41
823.974	86.36
824.152	162.13
824.329	61.78
824.507	37.2
824.685	102.74
824.863	51.54
825.04	117.08
825.218	96.6
825.396	94.55
825.574	84.31
825.751	61.78
825.929	61.78
826.107	35.16
826.284	100.69
826.462	205.14
826.639	115.03
826.817	51.54
826.994	172.37
827.172	69.97
827.349	147.8
827.527	131.41
827.704	139.6
827.882	182.61
828.059	53.59
828.237	115.03
828.414	129.36
828.591	55.64
828.769	117.08
828.946	82.26
829.124	139.6
829.301	158.03
829.478	106.84
829.655	24.92
829.833	127.32
830.01	100.69
830.187	102.74
830.364	90.45
830.542	98.64
830.719	131.41
830.896	61.78
831.073	131.41
831.25	188.75
831.427	84.31
831.604	57.68
831.782	67.92
831.959	37.2
832.136	115.03
832.313	94.55
832.49	69.97
832.667	94.55
832.844	135.51
833.021	106.84
833.198	123.22
833.374	47.44
833.551	69.97
833.728	125.27
833.905	76.12
834.082	82.26
834.259	151.89
834.436	59.73
834.612	74.07
834.789	43.35
834.966	51.54
835.143	123.22
835.319	65.88
835.496	90.45
835.673	112.98
835.85	98.64
836.026	127.32
836.203	112.98
836.38	12.63
836.556	-22.19
836.733	45.4
836.909	78.16
837.086	37.2
837.262	29.01
837.439	115.03
837.616	131.41
837.792	65.88
837.968	123.22
838.145	90.45
838.321	115.03
838.498	80.21
838.674	102.74
838.851	74.07
839.027	49.49
839.203	67.92
839.38	90.45
839.556	10.58
839.732	110.93
839.909	108.88
840.085	82.26
840.261	45.4
840.437	59.73
840.614	35.16
840.79	41.3
840.966	26.96
841.142	82.26
841.318	-1.71
841.494	86.36
841.671	176.47
841.847	37.2
842.023	35.16
842.199	74.07
842.375	86.36
842.551	96.6
842.727	67.92
842.903	96.6
843.079	-24.23
843.255	172.37
843.431	90.45
843.607	18.77
843.783	0.34
843.959	133.46
844.134	8.53
844.31	92.5
844.486	57.68
844.662	37.2
844.838	0.34
845.013	24.92
845.189	45.4
845.365	67.92
845.541	67.92
845.716	35.16
845.892	37.2
846.068	47.44
846.244	61.78
846.419	98.64
846.595	106.84
846.77	98.64
846.946	12.63
847.122	67.92
847.297	57.68
847.473	106.84
847.648	-20.14
847.824	12.63
847.999	47.44
848.175	74.07
848.35	100.69
848.526	90.45
848.701	43.35
848.876	98.64
849.052	59.73
849.227	10.58
849.403	-13.99
849.578	94.55
849.753	51.54
849.929	84.31
850.104	57.68
850.279	6.49
850.454	45.4
850.63	72.02
850.805	33.11
850.98	61.78
851.155	29.01
851.33	80.21
851.505	10.58
851.681	41.3
851.856	-26.28
852.031	59.73
852.206	45.4
852.381	24.92
852.556	98.64
852.731	47.44
852.906	-13.99
853.081	53.59
853.256	86.36
853.431	74.07
853.606	12.63
853.781	-5.8
853.956	90.45
854.131	82.26
854.305	37.2
854.48	31.06
854.655	49.49
854.83	-7.85
855.005	-26.28
855.18	24.92
855.354	20.82
855.529	12.63
855.704	55.64
855.879	147.8
856.053	12.63
856.228	80.21
856.403	80.21
856.577	90.45
856.752	65.88
856.926	65.88
857.101	78.16
857.276	69.97
857.45	51.54
857.625	65.88
857.799	37.2
857.974	33.11
858.148	16.73
858.323	115.03
858.497	49.49
858.672	16.73
858.846	-7.85
859.02	67.92
859.195	-40.62
859.369	57.68
859.543	12.63
859.718	43.35
859.892	98.64
860.066	127.32
860.241	-1.71
860.415	65.88
860.589	-5.8
860.763	43.35
860.938	65.88
861.112	100.69
861.286	-48.81
861.46	59.73
861.634	20.82
861.808	41.3
861.982	63.83
862.157	98.64
862.331	10.58
862.505	0.34
862.679	6.49
862.853	-24.23
863.027	33.11
863.201	123.22
863.375	0.34
863.549	69.97
863.722	-16.04
863.896	102.74
864.07	8.53
864.244	24.92
864.418	35.16
864.592	29.01
864.766	-120.49
864.939	41.3
865.113	-1.71
865.287	37.2
865.461	-36.52
865.634	59.73
865.808	33.11
865.982	16.73
866.156	-18.09
866.329	-16.04
866.503	24.92
866.676	74.07
866.85	104.79
867.024	-22.19
867.197	49.49
867.371	59.73
867.544	4.44
867.718	20.82
867.891	72.02
868.065	82.26
868.238	26.96
868.412	55.64
868.585	24.92
868.759	16.73
868.932	35.16
869.105	0.34
869.279	57.68
869.452	45.4
869.625	16.73
869.799	18.77
869.972	-30.38
870.145	2.39
870.319	49.49
870.492	57.68
870.665	59.73
870.838	53.59
871.011	20.82
871.185	20.82
871.358	24.92
871.531	43.35
871.704	86.36
871.877	65.88
872.05	82.26
872.223	-22.19
872.396	67.92
872.569	45.4
872.742	-28.33
872.915	0.34
873.088	-34.47
873.261	63.83
873.434	-7.85
873.607	35.16
873.78	65.88
873.953	24.92
874.126	26.96
874.299	45.4
874.471	33.11
874.644	57.68
874.817	37.2
874.99	147.8
875.163	43.35
875.335	90.45
875.508	51.54
875.681	115.03
875.853	61.78
876.026	-3.75
876.199	49.49
876.371	43.35
876.544	63.83
876.717	0.34
876.889	16.73
877.062	82.26
877.234	26.96
877.407	51.54
877.579	-3.75
877.752	45.4
877.924	131.41
878.097	-16.04
878.269	-44.71
878.442	74.07
878.614	61.78
878.786	80.21
878.959	57.68
879.131	69.97
879.303	26.96
879.476	-44.71
879.648	8.53
879.82	-1.71
879.993	-3.75
880.165	55.64
880.337	4.44
880.509	22.87
880.681	84.31
880.854	51.54
881.026	-5.8
881.198	82.26
881.37	51.54
881.542	-36.52
881.714	-67.24
881.886	26.96
882.058	-44.71
882.23	20.82
882.402	0.34
882.574	-38.57
882.746	29.01
882.918	43.35
883.09	33.11
883.262	55.64
883.434	-3.75
883.606	-40.62
883.778	-1.71
883.95	55.64
884.122	12.63
884.293	-44.71
884.465	14.68
884.637	35.16
884.809	-18.09
884.98	94.55
885.152	-16.04
885.324	49.49
885.496	-36.52
885.667	115.03
885.839	-24.23
886.011	-9.9
886.182	104.79
886.354	94.55
886.525	18.77
886.697	51.54
886.869	-1.71
887.04	-3.75
887.212	12.63
887.383	18.77
887.555	6.49
887.726	90.45
887.897	82.26
888.069	-30.38
888.24	37.2
888.412	20.82
888.583	-52.91
888.754	117.08
888.926	-5.8
889.097	-13.99
889.268	57.68
889.44	0.34
889.611	6.49
889.782	-5.8
889.953	10.58
890.125	65.88
890.296	-16.04
890.467	-28.33
890.638	43.35
890.809	59.73
890.98	8.53
891.151	57.68
891.323	37.2
891.494	33.11
891.665	-48.81
891.836	8.53
892.007	-30.38
892.178	22.87
892.349	49.49
892.52	8.53
892.691	14.68
892.862	155.99
893.032	18.77
893.203	37.2
893.374	26.96
893.545	59.73
893.716	33.11
893.887	20.82
894.057	-16.04
894.228	12.63
894.399	-9.9
894.57	31.06
894.74	14.68
894.911	16.73
895.082	33.11
895.253	-30.38
895.423	67.92
895.594	2.39
895.764	49.49
895.935	74.07
896.106	-26.28
896.276	29.01
896.447	0.34
896.617	59.73
896.788	29.01
896.958	-57
897.129	26.96
897.299	-22.19
897.47	84.31
897.64	119.12
897.81	-38.57
897.981	98.64
898.151	55.64
898.322	26.96
898.492	-3.75
898.662	65.88
898.832	-5.8
899.003	57.68
899.173	61.78
899.343	10.58
899.513	57.68
