Data from USB4F104151__199__14-20-31-415.txt Node

Date: Thu Mar 13 14:20:31 EDT 2025
User: louis
Spectrometer: USB4F10415
Trigger mode: 4
Integration Time (sec): 2.000000E-2
Scans to average: 1
Electric dark correction enabled: true
Nonlinearity correction enabled: false
Boxcar width: 0
XAxis mode: Wavelengths
Number of Pixels in Spectrum: 3648
>>>>>Begin Spectral Data<<<<<
178.204	-138.07
178.424	-138.07
178.644	-138.07
178.864	-58.2
179.084	-45.91
179.304	-31.57
179.524	-4.95
179.744	64.68
179.964	38.06
180.184	-13.14
180.404	15.53
180.624	-13.14
180.844	-37.72
181.064	-9.05
181.283	42.15
181.503	7.34
181.723	-58.2
181.943	15.53
182.163	48.3
182.383	-64.34
182.602	83.11
182.822	56.49
183.042	165.03
183.262	23.72
183.482	40.11
183.701	66.73
183.921	33.96
184.141	64.68
184.361	70.83
184.58	15.53
184.8	3.24
185.02	23.72
185.239	50.35
185.459	3.24
185.679	64.68
185.898	-9.05
186.118	56.49
186.338	54.44
186.557	7.34
186.777	3.24
186.997	11.43
187.216	81.07
187.436	48.3
187.655	-0.85
187.875	70.83
188.095	-15.19
188.314	29.87
188.534	81.07
188.753	31.91
188.973	74.92
189.192	15.53
189.412	23.72
189.631	83.11
189.851	25.77
190.07	136.36
190.29	93.35
190.509	29.87
190.729	15.53
190.948	48.3
191.168	115.88
191.387	130.22
191.607	-45.91
191.826	85.16
192.045	-70.48
192.265	64.68
192.484	72.87
192.704	-54.1
192.923	-33.62
193.142	44.2
193.362	27.82
193.581	66.73
193.8	52.39
194.02	58.54
194.239	-37.72
194.458	113.83
194.678	79.02
194.897	72.87
195.116	-9.05
195.335	13.48
195.555	-25.43
195.774	42.15
195.993	-4.95
196.212	95.4
196.432	-17.24
196.651	58.54
196.87	54.44
197.089	58.54
197.308	101.55
197.528	31.91
197.747	23.72
197.966	-11.09
198.185	44.2
198.404	40.11
198.623	31.91
198.842	103.59
199.062	99.5
199.281	105.64
199.5	15.53
199.719	11.43
199.938	19.63
200.157	93.35
200.376	52.39
200.595	165.03
200.814	91.31
201.033	76.97
201.252	117.93
201.471	130.22
201.69	156.84
201.909	62.63
202.128	85.16
202.347	58.54
202.566	29.87
202.785	15.53
203.004	17.58
203.223	111.78
203.442	72.87
203.661	3.24
203.879	21.67
204.098	-15.19
204.317	-11.09
204.536	91.31
204.755	40.11
204.974	97.45
205.193	-9.05
205.411	50.35
205.63	3.24
205.849	105.64
206.068	81.07
206.287	74.92
206.505	74.92
206.724	31.91
206.943	17.58
207.162	-11.09
207.381	7.34
207.599	9.39
207.818	9.39
208.037	7.34
208.255	17.58
208.474	60.59
208.693	48.3
208.911	-29.52
209.13	89.26
209.349	99.5
209.567	52.39
209.786	11.43
210.005	15.53
210.223	-33.62
210.442	33.96
210.661	-9.05
210.879	56.49
211.098	44.2
211.316	36.01
211.535	50.35
211.753	64.68
211.972	25.77
212.191	7.34
212.409	7.34
212.628	62.63
212.846	25.77
213.065	97.45
213.283	105.64
213.502	-7
213.72	23.72
213.938	89.26
214.157	7.34
214.375	79.02
214.594	-25.43
214.812	-4.95
215.031	40.11
215.249	13.48
215.467	-17.24
215.686	76.97
215.904	42.15
216.122	62.63
216.341	97.45
216.559	138.41
216.778	-15.19
216.996	72.87
217.214	-9.05
217.432	31.91
217.651	-23.38
217.869	19.63
218.087	72.87
218.306	38.06
218.524	3.24
218.742	3.24
218.96	85.16
219.179	-33.62
219.397	7.34
219.615	40.11
219.833	-25.43
220.051	81.07
220.27	81.07
220.488	81.07
220.706	52.39
220.924	-25.43
221.142	74.92
221.36	31.91
221.578	9.39
221.796	-2.9
222.015	7.34
222.233	111.78
222.451	40.11
222.669	19.63
222.887	72.87
223.105	13.48
223.323	48.3
223.541	-15.19
223.759	97.45
223.977	-15.19
224.195	105.64
224.413	107.69
224.631	-2.9
224.849	27.82
225.067	48.3
225.285	3.24
225.503	101.55
225.721	-60.24
225.939	40.11
226.157	68.78
226.375	72.87
226.592	103.59
226.81	40.11
227.028	48.3
227.246	105.64
227.464	-2.9
227.682	48.3
227.9	54.44
228.117	42.15
228.335	23.72
228.553	56.49
228.771	50.35
228.989	83.11
229.206	56.49
229.424	36.01
229.642	-19.29
229.86	9.39
230.077	50.35
230.295	40.11
230.513	56.49
230.731	25.77
230.948	70.83
231.166	58.54
231.384	-37.72
231.601	-9.05
231.819	64.68
232.037	27.82
232.254	-9.05
232.472	-4.95
232.689	64.68
232.907	56.49
233.125	9.39
233.342	23.72
233.56	66.73
233.777	-19.29
233.995	46.25
234.213	79.02
234.43	-37.72
234.648	9.39
234.865	64.68
235.083	50.35
235.3	40.11
235.518	72.87
235.735	109.74
235.953	11.43
236.17	74.92
236.388	9.39
236.605	83.11
236.822	134.31
237.04	76.97
237.257	19.63
237.475	40.11
237.692	85.16
237.909	36.01
238.127	50.35
238.344	-58.2
238.562	58.54
238.779	93.35
238.996	119.98
239.214	81.07
239.431	72.87
239.648	52.39
239.865	31.91
240.083	-2.9
240.3	-0.85
240.517	-9.05
240.735	48.3
240.952	165.03
241.169	15.53
241.386	103.59
241.603	64.68
241.821	15.53
242.038	72.87
242.255	83.11
242.472	-2.9
242.689	7.34
242.907	56.49
243.124	1.19
243.341	-9.05
243.558	50.35
243.775	11.43
243.992	-11.09
244.209	74.92
244.426	27.82
244.643	64.68
244.86	44.2
245.078	79.02
245.295	85.16
245.512	-23.38
245.729	52.39
245.946	9.39
246.163	54.44
246.38	11.43
246.597	15.53
246.814	19.63
247.031	62.63
247.248	62.63
247.464	48.3
247.681	-19.29
247.898	7.34
248.115	48.3
248.332	-17.24
248.549	27.82
248.766	91.31
248.983	36.01
249.2	15.53
249.417	124.07
249.633	15.53
249.85	119.98
250.067	11.43
250.284	-50
250.501	33.96
250.717	107.69
250.934	-11.09
251.151	15.53
251.368	76.97
251.585	64.68
251.801	17.58
252.018	97.45
252.235	107.69
252.451	23.72
252.668	23.72
252.885	48.3
253.102	83.11
253.318	15.53
253.535	-7
253.752	23.72
253.968	31.91
254.185	33.96
254.401	54.44
254.618	31.91
254.835	44.2
255.051	66.73
255.268	-13.14
255.484	72.87
255.701	81.07
255.917	56.49
256.134	23.72
256.351	50.35
256.567	-9.05
256.784	9.39
257	17.58
257.217	40.11
257.433	7.34
257.65	54.44
257.866	3.24
258.082	33.96
258.299	5.29
258.515	50.35
258.732	-19.29
258.948	11.43
259.165	25.77
259.381	25.77
259.597	85.16
259.814	87.21
260.03	-33.62
260.246	-4.95
260.463	62.63
260.679	66.73
260.895	11.43
261.112	58.54
261.328	-17.24
261.544	-0.85
261.761	136.36
261.977	-17.24
262.193	-7
262.409	58.54
262.626	7.34
262.842	99.5
263.058	-50
263.274	66.73
263.49	68.78
263.707	68.78
263.923	72.87
264.139	40.11
264.355	52.39
264.571	-25.43
264.787	99.5
265.004	113.83
265.22	-4.95
265.436	97.45
265.652	11.43
265.868	60.59
266.084	-0.85
266.3	64.68
266.516	33.96
266.732	56.49
266.948	23.72
267.164	-7
267.38	29.87
267.596	48.3
267.812	115.88
268.028	46.25
268.244	31.91
268.46	64.68
268.676	-4.95
268.892	31.91
269.108	29.87
269.324	60.59
269.54	11.43
269.756	44.2
269.972	1.19
270.188	13.48
270.403	62.63
270.619	48.3
270.835	-37.72
271.051	64.68
271.267	13.48
271.483	58.54
271.698	13.48
271.914	48.3
272.13	44.2
272.346	66.73
272.562	83.11
272.777	105.64
272.993	40.11
273.209	23.72
273.425	11.43
273.64	36.01
273.856	79.02
274.072	-25.43
274.287	-17.24
274.503	97.45
274.719	48.3
274.934	70.83
275.15	29.87
275.366	142.5
275.581	-41.81
275.797	-0.85
276.012	40.11
276.228	-23.38
276.444	42.15
276.659	72.87
276.875	27.82
277.09	72.87
277.306	15.53
277.521	23.72
277.737	31.91
277.952	103.59
278.168	68.78
278.383	89.26
278.599	54.44
278.814	1.19
279.03	38.06
279.245	142.5
279.461	60.59
279.676	64.68
279.892	-9.05
280.107	1.19
280.322	7.34
280.538	33.96
280.753	27.82
280.969	46.25
281.184	79.02
281.399	105.64
281.615	44.2
281.83	72.87
282.045	-4.95
282.26	66.73
282.476	42.15
282.691	130.22
282.906	87.21
283.122	76.97
283.337	25.77
283.552	40.11
283.767	-15.19
283.983	89.26
284.198	64.68
284.413	-0.85
284.628	-58.2
284.843	68.78
285.058	46.25
285.274	70.83
285.489	-17.24
285.704	103.59
285.919	38.06
286.134	-19.29
286.349	15.53
286.564	109.74
286.779	-4.95
286.995	31.91
287.21	7.34
287.425	-0.85
287.64	-9.05
287.855	46.25
288.07	-17.24
288.285	74.92
288.5	58.54
288.715	107.69
288.93	52.39
289.145	-9.05
289.36	99.5
289.575	-0.85
289.79	62.63
290.004	48.3
290.219	105.64
290.434	19.63
290.649	60.59
290.864	11.43
291.079	36.01
291.294	72.87
291.509	44.2
291.724	17.58
291.938	-17.24
292.153	50.35
292.368	-0.85
292.583	23.72
292.798	62.63
293.012	83.11
293.227	46.25
293.442	31.91
293.657	48.3
293.871	70.83
294.086	44.2
294.301	83.11
294.516	9.39
294.73	46.25
294.945	-11.09
295.16	60.59
295.374	62.63
295.589	50.35
295.804	42.15
296.018	58.54
296.233	60.59
296.447	7.34
296.662	-2.9
296.877	124.07
297.091	142.5
297.306	15.53
297.52	79.02
297.735	-23.38
297.949	52.39
298.164	115.88
298.378	103.59
298.593	15.53
298.807	42.15
299.022	33.96
299.236	13.48
299.451	83.11
299.665	81.07
299.88	54.44
300.094	74.92
300.309	33.96
300.523	19.63
300.737	19.63
300.952	76.97
301.166	44.2
301.381	-29.52
301.595	15.53
301.809	66.73
302.024	66.73
302.238	23.72
302.452	52.39
302.667	40.11
302.881	60.59
303.095	140.46
303.309	-17.24
303.524	31.91
303.738	81.07
303.952	72.87
304.166	25.77
304.381	-123.73
304.595	89.26
304.809	3.24
305.023	66.73
305.237	-13.14
305.452	23.72
305.666	31.91
305.88	42.15
306.094	76.97
306.308	58.54
306.522	113.83
306.736	31.91
306.95	-29.52
307.164	72.87
307.379	52.39
307.593	66.73
307.807	150.7
308.021	97.45
308.235	44.2
308.449	56.49
308.663	52.39
308.877	66.73
309.091	115.88
309.305	38.06
309.519	62.63
309.733	9.39
309.947	9.39
310.161	50.35
310.374	3.24
310.588	56.49
310.802	-4.95
311.016	60.59
311.23	66.73
311.444	76.97
311.658	52.39
311.872	44.2
312.085	79.02
312.299	122.02
312.513	64.68
312.727	81.07
312.941	31.91
313.154	38.06
313.368	40.11
313.582	21.67
313.796	-58.2
314.009	91.31
314.223	42.15
314.437	122.02
314.651	76.97
314.864	81.07
315.078	66.73
315.292	38.06
315.505	-45.91
315.719	50.35
315.933	95.4
316.146	7.34
316.36	76.97
316.573	109.74
316.787	60.59
317.001	58.54
317.214	-29.52
317.428	40.11
317.641	7.34
317.855	50.35
318.068	17.58
318.282	74.92
318.495	105.64
318.709	68.78
318.922	103.59
319.136	48.3
319.349	29.87
319.563	68.78
319.776	72.87
319.99	-21.33
320.203	33.96
320.417	9.39
320.63	48.3
320.843	48.3
321.057	3.24
321.27	40.11
321.483	56.49
321.697	91.31
321.91	101.55
322.124	52.39
322.337	-0.85
322.55	33.96
322.763	25.77
322.977	15.53
323.19	-11.09
323.403	48.3
323.617	60.59
323.83	60.59
324.043	64.68
324.256	50.35
324.469	31.91
324.683	91.31
324.896	-41.81
325.109	107.69
325.322	27.82
325.535	-23.38
325.748	87.21
325.962	111.78
326.175	15.53
326.388	138.41
326.601	23.72
326.814	-9.05
327.027	58.54
327.24	11.43
327.453	56.49
327.666	87.21
327.879	74.92
328.092	74.92
328.305	66.73
328.518	1.19
328.731	25.77
328.944	66.73
329.157	93.35
329.37	134.31
329.583	72.87
329.796	101.55
330.009	64.68
330.222	36.01
330.435	74.92
330.648	50.35
330.861	54.44
331.073	87.21
331.286	117.93
331.499	27.82
331.712	11.43
331.925	91.31
332.138	60.59
332.35	66.73
332.563	11.43
332.776	97.45
332.989	50.35
333.202	97.45
333.414	70.83
333.627	48.3
333.84	36.01
334.053	60.59
334.265	58.54
334.478	33.96
334.691	23.72
334.903	33.96
335.116	-0.85
335.329	89.26
335.541	33.96
335.754	72.87
335.966	70.83
336.179	19.63
336.392	68.78
336.604	122.02
336.817	25.77
337.029	130.22
337.242	56.49
337.454	122.02
337.667	11.43
337.88	60.59
338.092	54.44
338.305	138.41
338.517	52.39
338.729	113.83
338.942	52.39
339.154	93.35
339.367	3.24
339.579	132.26
339.792	58.54
340.004	17.58
340.217	19.63
340.429	52.39
340.641	25.77
340.854	72.87
341.066	38.06
341.278	66.73
341.491	124.07
341.703	44.2
341.915	97.45
342.128	56.49
342.34	-31.57
342.552	-9.05
342.764	-2.9
342.977	62.63
343.189	115.88
343.401	79.02
343.613	89.26
343.826	27.82
344.038	25.77
344.25	115.88
344.462	23.72
344.674	60.59
344.886	66.73
345.099	105.64
345.311	27.82
345.523	97.45
345.735	72.87
345.947	-25.43
346.159	122.02
346.371	105.64
346.583	-9.05
346.795	74.92
347.007	7.34
347.219	7.34
347.431	33.96
347.643	122.02
347.855	40.11
348.067	36.01
348.279	60.59
348.491	60.59
348.703	144.55
348.915	23.72
349.127	36.01
349.339	58.54
349.551	31.91
349.763	-17.24
349.975	25.77
350.187	89.26
350.399	93.35
350.61	89.26
350.822	44.2
351.034	64.68
351.246	46.25
351.458	83.11
351.669	68.78
351.881	64.68
352.093	48.3
352.305	60.59
352.517	93.35
352.728	117.93
352.94	85.16
353.152	7.34
353.363	3.24
353.575	66.73
353.787	89.26
353.999	105.64
354.21	76.97
354.422	31.91
354.633	72.87
354.845	25.77
355.057	103.59
355.268	93.35
355.48	1.19
355.692	70.83
355.903	93.35
356.115	11.43
356.326	13.48
356.538	76.97
356.749	56.49
356.961	126.12
357.172	3.24
357.384	-13.14
357.595	7.34
357.807	76.97
358.018	64.68
358.23	72.87
358.441	126.12
358.653	33.96
358.864	5.29
359.075	52.39
359.287	60.59
359.498	109.74
359.709	25.77
359.921	50.35
360.132	48.3
360.344	89.26
360.555	130.22
360.766	119.98
360.977	-25.43
361.189	31.91
361.4	15.53
361.611	42.15
361.823	130.22
362.034	72.87
362.245	68.78
362.456	160.94
362.667	97.45
362.879	27.82
363.09	44.2
363.301	19.63
363.512	105.64
363.723	17.58
363.935	48.3
364.146	91.31
364.357	-11.09
364.568	115.88
364.779	72.87
364.99	91.31
365.201	76.97
365.412	60.59
365.623	36.01
365.834	97.45
366.045	60.59
366.256	31.91
366.467	44.2
366.678	23.72
366.889	44.2
367.1	113.83
367.311	140.46
367.522	23.72
367.733	58.54
367.944	76.97
368.155	113.83
368.366	109.74
368.577	74.92
368.788	97.45
368.999	58.54
369.209	25.77
369.42	142.5
369.631	138.41
369.842	99.5
370.053	31.91
370.264	31.91
370.474	27.82
370.685	138.41
370.896	66.73
371.107	101.55
371.317	138.41
371.528	52.39
371.739	148.65
371.95	58.54
372.16	31.91
372.371	36.01
372.582	48.3
372.792	-0.85
373.003	97.45
373.214	99.5
373.424	134.31
373.635	52.39
373.846	113.83
374.056	76.97
374.267	138.41
374.477	1.19
374.688	56.49
374.898	50.35
375.109	103.59
375.319	85.16
375.53	72.87
375.74	107.69
375.951	52.39
376.161	99.5
376.372	89.26
376.582	66.73
376.793	48.3
377.003	44.2
377.214	115.88
377.424	79.02
377.635	-17.24
377.845	23.72
378.055	138.41
378.266	44.2
378.476	101.55
378.686	99.5
378.897	21.67
379.107	138.41
379.317	105.64
379.528	31.91
379.738	68.78
379.948	-9.05
380.158	81.07
380.369	11.43
380.579	64.68
380.789	42.15
380.999	132.26
381.21	33.96
381.42	173.22
381.63	79.02
381.84	122.02
382.05	44.2
382.261	146.6
382.471	64.68
382.681	1.19
382.891	134.31
383.101	83.11
383.311	23.72
383.521	56.49
383.731	119.98
383.941	113.83
384.151	62.63
384.361	40.11
384.571	68.78
384.781	17.58
384.991	83.11
385.201	130.22
385.411	66.73
385.621	56.49
385.831	44.2
386.041	93.35
386.251	58.54
386.461	136.36
386.671	72.87
386.881	93.35
387.091	72.87
387.301	93.35
387.511	81.07
387.72	66.73
387.93	122.02
388.14	48.3
388.35	89.26
388.56	97.45
388.769	76.97
388.979	17.58
389.189	42.15
389.399	87.21
389.609	64.68
389.818	72.87
390.028	60.59
390.238	105.64
390.447	48.3
390.657	48.3
390.867	62.63
391.076	76.97
391.286	58.54
391.496	72.87
391.705	25.77
391.915	76.97
392.125	81.07
392.334	185.51
392.544	66.73
392.753	85.16
392.963	52.39
393.172	150.7
393.382	64.68
393.591	105.64
393.801	89.26
394.01	105.64
394.22	79.02
394.429	146.6
394.639	40.11
394.848	87.21
395.058	105.64
395.267	99.5
395.477	173.22
395.686	76.97
395.895	81.07
396.105	105.64
396.314	89.26
396.524	99.5
396.733	36.01
396.942	173.22
397.152	132.26
397.361	193.7
397.57	97.45
397.78	122.02
397.989	101.55
398.198	154.79
398.407	175.27
398.617	109.74
398.826	216.23
399.035	144.55
399.244	138.41
399.453	85.16
399.663	109.74
399.872	195.75
400.081	107.69
400.29	122.02
400.499	136.36
400.708	87.21
400.917	138.41
401.127	162.98
401.336	158.89
401.545	181.42
401.754	171.18
401.963	236.71
402.172	249
402.381	93.35
402.59	138.41
402.799	158.89
403.008	277.67
403.217	91.31
403.426	142.5
403.635	107.69
403.844	140.46
404.053	195.75
404.262	214.18
404.471	283.81
404.68	115.88
404.888	181.42
405.097	191.66
405.306	148.65
405.515	234.66
405.724	251.05
405.933	208.04
406.142	226.47
406.35	267.43
406.559	189.61
406.768	216.23
406.977	335.01
407.185	308.39
407.394	271.53
407.603	230.57
407.812	244.9
408.02	318.63
408.229	322.73
408.438	378.02
408.646	251.05
408.855	367.78
409.064	351.4
409.272	349.35
409.481	378.02
409.69	285.86
409.898	384.16
410.107	427.17
410.315	457.89
410.524	490.66
410.733	539.81
410.941	474.28
411.15	535.71
411.358	472.23
411.567	541.86
411.775	588.96
411.984	539.81
412.192	588.96
412.401	566.43
412.609	699.55
412.818	697.5
413.026	672.93
413.234	662.69
413.443	752.8
413.651	738.46
413.86	693.41
414.068	765.09
414.276	801.95
414.485	781.47
414.693	883.87
414.901	928.92
415.11	949.4
415.318	869.53
415.526	926.88
415.734	1078.43
415.943	996.51
416.151	1096.86
416.359	1105.05
416.567	1154.2
416.776	1146.01
416.984	1283.22
417.192	1361.05
417.4	1361.05
417.608	1213.59
417.817	1395.86
418.025	1404.05
418.233	1596.56
418.441	1518.74
418.649	1522.84
418.857	1612.95
419.065	1719.44
419.273	1670.29
419.481	1875.09
419.689	1940.62
419.897	1961.1
420.105	2002.06
420.313	1940.62
420.521	2204.81
420.729	2206.86
420.937	2278.54
421.145	2344.07
421.353	2423.94
421.561	2518.15
421.769	2696.32
421.977	2612.35
422.185	2620.55
422.393	2804.86
422.601	3003.52
422.809	2927.74
423.017	3042.43
423.224	3015.8
423.432	3202.17
423.64	3392.63
423.848	3501.17
424.056	3468.41
424.263	3812.46
424.471	3863.66
424.679	3892.34
424.887	4144.24
425.094	4119.66
425.302	4058.22
425.51	4246.63
425.718	4422.76
425.925	4435.05
426.133	4682.85
426.341	4947.04
426.548	5289.05
426.756	5143.64
426.964	5205.08
427.171	5407.83
427.379	5721.17
427.586	5684.31
427.794	5946.45
428.001	6231.12
428.209	6474.82
428.417	6210.64
428.624	6859.84
428.832	6650.95
429.039	6798.4
429.247	6868.03
429.454	7449.66
429.662	7855.15
429.869	7349.31
430.076	7945.27
430.284	7568.44
430.491	7875.63
430.699	8311.85
430.906	8373.29
431.114	8641.57
431.321	8870.95
431.528	8985.63
431.736	9557.02
431.943	10085.39
432.15	9858.07
432.358	9837.59
432.565	10486.79
432.772	10404.88
432.979	10906.63
433.187	11033.6
433.394	10980.36
433.601	11951.09
433.808	11721.72
434.016	11953.14
434.223	12336.11
434.43	13061.09
434.637	12970.98
434.844	13710.3
435.052	13743.06
435.259	13644.76
435.466	13976.53
435.673	13562.84
435.88	14640.08
436.087	15248.32
436.294	15297.47
436.501	15057.86
436.708	15320
436.915	15971.25
437.122	16776.11
437.329	16417.71
437.537	16792.49
437.743	17302.43
437.95	17197.99
438.157	18113.43
438.364	18629.52
438.571	18557.84
438.778	18580.37
438.985	20491.12
439.192	19493.76
439.399	20370.29
439.606	19915.64
439.813	21037.93
440.02	22244.18
440.227	22119.26
440.433	21439.33
440.64	22299.48
440.847	22295.38
441.054	22750.03
441.261	24230.71
441.467	23804.74
441.674	24636.21
441.881	25084.72
442.088	25228.07
442.294	25326.38
442.501	25643.81
442.708	26274.59
442.914	27450.12
443.121	28037.89
443.328	27462.41
443.534	29100.78
443.741	28474.1
443.948	28334.84
444.154	30214.88
444.361	30302.94
444.568	30374.62
444.774	29979.36
444.981	30657.24
445.187	31521.48
445.394	32676.54
445.6	32553.66
445.807	35574.41
446.013	34157.22
446.22	34362.01
446.426	35521.16
446.633	35973.77
446.839	37515.89
447.046	35824.26
447.252	37769.83
447.459	37712.49
447.665	37544.56
447.871	39400.02
448.078	40770.11
448.284	39035.48
448.491	40071.75
448.697	41472.56
448.903	42160.68
449.11	42584.61
449.316	41765.42
449.522	42359.33
449.728	43430.42
449.935	43813.39
450.141	44204.55
450.347	44626.43
450.553	43215.38
450.76	43909.64
450.966	44943.87
451.172	44714.5
451.378	45756.91
451.584	44874.24
451.791	46086.64
451.997	45844.98
452.203	46555.62
452.409	46479.85
452.615	46363.11
452.821	44597.76
453.027	44022.28
453.233	46846.43
453.44	45068.79
453.646	45244.92
453.852	46033.39
454.058	46297.58
454.264	45128.19
454.47	45849.07
454.676	44874.24
454.882	46045.68
455.088	41945.64
455.294	42883.61
455.5	43477.52
455.705	44071.43
455.911	42172.97
456.117	41572.91
456.323	40729.15
456.529	38771.29
456.735	40587.84
456.941	39490.13
457.147	39268.95
457.352	37646.96
457.558	37382.77
457.764	37458.54
457.97	36686.46
458.176	36188.8
458.381	35994.25
458.587	34341.53
458.793	34048.68
458.999	32492.22
459.204	34818.71
459.41	33911.46
459.616	31570.63
459.821	31814.34
460.027	31699.65
460.233	31095.5
460.438	29643.49
460.644	29987.55
460.85	28496.63
461.055	28097.28
461.261	27820.8
461.466	26176.28
461.672	25107.24
461.878	27249.42
462.083	24927.02
462.289	24740.66
462.494	24404.79
462.7	23184.2
462.905	22836.05
463.111	23667.52
463.316	23690.05
463.522	23010.12
463.727	23038.8
463.932	23321.41
464.138	22704.98
464.343	22915.92
464.549	22102.87
464.754	22944.59
464.959	23040.84
465.165	22391.64
465.37	21642.08
465.575	21134.18
465.781	22092.63
465.986	21984.09
466.191	21295.97
466.397	20853.61
466.602	19719.04
466.807	20355.96
467.012	20609.9
467.218	20757.36
467.423	20085.62
467.628	20550.51
467.833	21222.25
468.038	20507.51
468.244	19868.54
468.449	20757.36
468.654	19989.37
468.859	20243.32
469.064	19714.94
469.269	18719.63
469.474	19161.99
469.679	19522.43
469.885	18979.72
470.09	19061.64
470.295	19368.84
470.5	18482.06
470.705	18467.73
470.91	18117.53
471.115	17732.51
471.32	18375.57
471.525	17908.63
471.73	17699.74
471.935	17720.22
472.139	17312.67
472.344	17273.76
472.549	17167.27
472.754	16858.03
472.959	16769.96
473.164	16223.16
473.369	15926.2
473.574	16794.54
473.778	16466.86
473.983	16243.63
474.188	16358.32
474.393	15662.01
474.598	15350.72
474.802	15659.96
475.007	15514.56
475.212	15238.08
475.417	14808.01
475.621	14721.99
475.826	14791.62
476.031	14543.82
476.235	14216.15
476.44	14683.08
476.645	14246.87
476.849	14291.92
477.054	14216.15
477.259	13798.36
477.463	13906.9
477.668	13399.01
477.872	13935.57
478.077	13485.02
478.282	13171.68
478.486	13169.63
478.691	12979.17
478.895	12934.12
479.1	12909.54
479.304	12833.77
479.509	12502
479.713	12850.15
479.918	12426.22
480.122	12401.65
480.326	12323.82
480.531	12372.97
480.735	12358.64
480.94	12403.69
481.144	12522.48
481.348	12166.13
481.553	11973.62
481.757	11983.86
481.961	12037.11
482.166	11983.86
482.37	12051.44
482.574	11811.83
482.778	11830.26
482.983	12035.06
483.187	11961.33
483.391	11922.42
483.595	11734.01
483.8	11512.83
484.004	11828.21
484.208	12057.59
484.412	11822.07
484.616	11772.92
484.821	11877.37
485.025	11754.49
485.229	11713.53
485.433	11621.37
485.637	11748.34
485.841	11762.68
486.045	11873.27
486.249	11949.04
486.453	11746.3
486.657	11795.45
486.861	11848.69
487.065	11385.85
487.269	11856.89
487.473	11668.47
487.677	11967.48
487.881	11834.36
488.085	11797.49
488.289	12053.49
488.493	11834.36
488.697	11809.78
488.901	11865.08
489.105	11918.32
489.309	11860.98
489.512	11725.82
489.716	12131.31
489.92	12155.89
490.124	12028.92
490.328	12139.51
490.531	12018.68
490.735	12246
490.939	12114.93
491.143	11916.28
491.346	11975.67
491.55	12295.15
491.754	12243.95
491.958	12319.73
492.161	12299.25
492.365	12461.04
492.569	12336.11
492.772	12475.37
492.976	12442.6
493.18	12557.29
493.383	13050.85
493.587	12927.97
493.79	12889.06
493.994	12786.66
494.197	12911.59
494.401	13106.15
494.605	13134.82
494.808	13364.19
495.012	13241.31
495.215	13394.91
495.419	13714.39
495.622	13564.89
495.825	13679.58
496.029	13540.32
496.232	14021.59
496.436	14044.12
496.639	14279.63
496.843	14097.36
497.046	14644.17
497.249	14558.16
497.453	14302.16
497.656	14812.1
497.859	14848.97
498.063	14769.1
498.266	15244.23
498.469	15018.95
498.673	15592.38
498.876	15690.68
499.079	15723.45
499.282	15690.68
499.485	16219.06
499.689	16006.07
499.892	16401.33
500.095	16413.62
500.298	17097.64
500.501	16849.83
500.705	17327.01
500.908	17333.15
501.111	17898.39
501.314	17615.77
501.517	17601.44
501.72	17957.78
501.923	17922.97
502.126	18281.36
502.329	18621.33
502.532	18766.73
502.735	18903.95
502.938	19291.01
503.141	19301.25
503.344	19587.97
503.547	19768.19
503.75	20261.75
503.953	20460.4
504.156	20231.03
504.359	20808.56
504.562	20759.41
504.765	21117.8
504.968	21013.35
505.17	21416.8
505.373	21441.38
505.576	22078.3
505.779	21898.08
505.982	22217.56
506.185	22512.47
506.387	22653.78
506.59	23057.23
506.793	23296.84
506.996	23208.78
507.198	23599.94
507.401	23843.65
507.604	24027.96
507.807	24580.92
508.009	24597.3
508.212	24501.04
508.415	24931.12
508.617	25117.48
508.82	25203.5
509.022	25551.65
509.225	26014.49
509.428	26305.31
509.63	26137.37
509.833	26309.4
510.035	26661.65
510.238	26893.07
510.44	27554.57
510.643	27702.02
510.845	27962.11
511.048	27697.92
511.25	28447.48
511.453	28445.43
511.655	29135.6
511.858	28912.37
512.06	29653.73
512.262	29821.67
512.465	29709.03
512.667	30239.45
512.87	30382.81
513.072	30487.26
513.274	30968.53
513.477	31494.86
513.679	31343.31
513.881	31734.47
514.084	32135.87
514.286	31859.4
514.488	32178.88
514.69	33444.52
514.893	33280.69
515.095	33022.64
515.297	33637.03
515.499	34296.48
515.701	34357.92
515.904	34843.29
516.106	34570.91
516.308	34962.07
516.51	35574.41
516.712	35287.7
516.914	35943.05
517.116	36625.02
517.318	35965.57
517.52	36958.84
517.722	36942.45
517.925	37132.92
518.127	37638.76
518.329	37818.99
518.531	37515.89
518.733	38376.03
518.935	38482.53
519.136	38572.64
519.338	39199.32
519.54	39412.31
519.742	39719.5
519.944	39621.2
520.146	40538.69
520.348	40536.64
520.55	40725.05
520.752	41235
520.954	41513.52
521.155	41075.26
521.357	41921.07
521.559	41959.98
521.761	42691.1
521.963	42623.52
522.164	42680.86
522.366	42709.53
522.568	43467.28
522.77	43672.08
522.971	44110.35
523.173	43528.72
523.375	44313.09
523.576	44208.65
523.778	44349.96
523.98	44937.72
524.181	45425.14
524.383	45363.7
524.584	45404.66
524.786	45584.88
524.988	44947.96
525.189	46135.79
525.391	46156.27
525.592	46354.92
525.794	46711.27
525.995	46588.39
526.197	46670.31
526.398	46686.69
526.6	47188.44
526.801	46965.21
527.003	47493.59
527.204	47497.69
527.406	47751.63
527.607	47827.41
527.808	48062.93
528.01	47399.38
528.211	47987.15
528.412	49039.81
528.614	48400.84
528.815	48431.56
529.016	49285.56
529.218	48708.04
529.419	49181.12
529.62	48738.75
529.822	48554.44
530.023	49031.61
530.224	48875.97
530.425	48714.18
530.626	48628.16
530.828	48992.7
531.029	49992.11
531.23	49066.43
531.431	48929.22
531.632	49322.43
531.833	49381.82
532.035	49269.18
532.236	49410.49
532.437	49689.01
532.638	49248.7
532.839	49686.96
533.04	49686.96
533.241	49148.35
533.442	50088.37
533.643	49375.67
533.844	49308.09
534.045	49674.68
534.246	49621.43
534.447	49813.94
534.648	49256.89
534.849	50024.88
535.05	49097.15
535.251	49435.06
535.451	49752.5
535.652	50004.4
535.853	49406.39
536.054	49746.36
536.255	49861.04
536.456	49220.03
536.657	50071.98
536.857	49504.7
537.058	49494.46
537.259	49748.4
537.46	49793.46
537.66	49383.87
537.861	49625.53
538.062	49353.15
538.263	49680.82
538.463	49603
538.664	49549.75
538.865	49523.13
539.065	49734.07
539.266	49379.77
539.466	49830.32
539.667	48918.98
539.868	49885.62
540.068	49342.91
540.269	49314.23
540.469	49689.01
540.67	48964.03
540.87	49152.44
541.071	49066.43
541.271	49650.1
541.472	49230.27
541.672	49064.38
541.873	49521.08
542.073	48837.06
542.274	49525.17
542.474	48990.66
542.675	48972.22
542.875	49742.26
543.075	48941.5
543.276	48435.66
543.476	49508.79
543.676	48558.53
543.877	49140.16
544.077	48959.94
544.277	49181.12
544.478	49222.08
544.678	49185.21
544.878	49039.81
545.078	48974.27
545.279	49058.24
545.479	48755.14
545.679	48935.36
545.879	48482.76
546.079	48787.91
546.28	48648.64
546.48	48363.98
546.68	49158.59
546.88	49119.68
547.08	48445.9
547.28	48949.7
547.48	48357.83
547.68	48589.25
547.88	48648.64
548.081	48740.8
548.281	48935.36
548.481	48548.29
548.681	48941.5
548.881	48599.49
549.081	48523.72
549.28	48349.64
549.48	48646.6
549.68	48349.64
549.88	49082.81
550.08	48359.88
550.28	48726.47
550.48	48460.23
550.68	48759.23
550.88	48343.5
551.08	48677.32
551.279	48607.68
551.479	48175.56
551.679	48415.18
551.879	48392.65
552.079	49025.47
552.278	48259.53
552.478	47976.91
552.678	48333.26
552.878	48607.68
553.077	48363.98
553.277	47759.83
553.477	48728.52
553.676	47919.57
553.876	48257.48
554.076	47858.13
554.275	48187.85
554.475	47690.19
554.674	48150.99
554.874	47981.01
555.074	47860.18
555.273	48138.7
555.473	48140.75
555.672	47538.65
555.872	47634.9
556.071	48050.64
556.271	47942.1
556.47	47792.59
556.67	47389.14
556.869	47258.07
557.068	47622.61
557.268	47559.12
557.467	47737.3
557.667	47370.71
557.866	47331.8
558.065	47233.5
558.265	47469.01
558.464	47339.99
558.663	47706.58
558.863	46651.87
559.062	47751.63
559.261	47018.46
559.461	47591.89
559.66	46887.39
559.859	46967.26
560.058	46850.53
560.258	47059.42
560.457	46561.76
560.656	46629.35
560.855	46813.66
561.054	46828
561.253	46629.35
561.453	46696.93
561.652	46590.44
561.851	46805.47
562.05	46180.84
562.249	46320.1
562.448	46428.65
562.647	46514.66
562.846	46365.16
563.045	46000.62
563.244	45701.62
563.443	46477.8
563.642	45683.19
563.841	45826.54
564.04	45734.38
564.239	46635.49
564.438	46019.05
564.637	46060.01
564.836	45697.52
565.035	45654.51
565.234	45869.55
565.432	45337.08
565.631	45308.41
565.83	45531.64
566.029	45330.93
566.228	45011.45
566.427	45683.19
566.625	44870.14
566.824	44632.58
567.023	45167.1
567.222	44464.64
567.42	45079.03
567.619	44868.09
567.818	44372.49
568.016	44818.94
568.215	44700.16
568.414	44198.41
568.612	44831.23
568.811	44790.27
569.01	44575.23
569.208	43792.91
569.407	44636.67
569.605	43778.57
569.804	44284.42
570.002	43579.92
570.201	43880.97
570.4	43467.28
570.598	43680.27
570.797	43221.53
570.995	43551.25
571.193	43014.68
571.392	43672.08
571.59	42873.37
571.789	43518.48
571.987	43057.69
572.186	43180.57
572.384	42920.48
572.582	43455
572.781	43178.52
572.979	42365.48
573.177	42639.9
573.376	42760.73
573.574	42459.68
573.772	42633.76
573.971	42203.69
574.169	42123.82
574.367	42136.1
574.565	42486.31
574.763	41863.72
574.962	41869.87
575.16	41544.24
575.358	41806.38
575.556	41474.61
575.754	42353.19
575.952	40995.39
576.151	41882.16
576.349	40995.39
576.547	41007.67
576.745	41695.79
576.943	41103.93
577.141	41321.01
577.339	40944.19
577.537	40694.33
577.735	40972.86
577.933	40233.54
578.131	40680
578.329	40387.14
578.527	40151.62
578.725	40127.05
578.923	40557.12
579.121	40239.68
579.319	40133.19
579.516	40333.89
579.714	40200.77
579.912	39799.37
580.11	39819.85
580.308	39760.46
580.506	39639.63
580.704	39201.36
580.901	39649.87
581.099	39574.09
581.297	38566.49
581.495	39105.11
581.692	39250.52
581.89	38707.8
582.088	39019.1
582.285	38826.59
582.483	39318.1
582.681	38761.05
582.878	38818.39
583.076	38126.18
583.274	38406.75
583.471	38496.86
583.669	38484.58
583.866	38111.85
584.064	38122.08
584.262	37597.8
584.459	38093.41
584.657	37833.32
584.854	37982.82
585.052	37253.75
585.249	37859.94
585.447	37814.89
585.644	37145.2
585.841	37339.76
586.039	37540.46
586.236	36772.47
586.434	36649.6
586.631	37247.6
586.828	36938.36
587.026	36727.42
587.223	36455.04
587.42	36586.11
587.618	36700.79
587.815	36407.94
588.012	36240
588.21	36078.21
588.407	36211.33
588.604	36119.17
588.801	35756.68
588.999	35959.43
589.196	35619.47
589.393	36199.04
589.59	35340.94
589.787	35398.29
589.984	35140.24
590.182	35467.92
590.379	35322.51
590.576	35289.74
590.773	35170.96
590.97	34734.74
591.167	35078.8
591.364	34153.12
591.561	34824.86
591.758	34290.34
591.955	34230.94
592.152	34626.2
592.349	34308.77
592.546	34214.56
592.743	34048.68
592.94	33868.45
593.137	34189.98
593.334	34015.91
593.531	33604.27
593.727	33364.65
593.924	33641.13
594.121	33094.32
594.318	33485.48
594.515	33223.34
594.712	33323.69
594.908	33376.94
595.105	33485.48
595.302	32795.32
595.499	32821.94
595.696	32867
595.892	32658.1
596.089	32594.62
596.286	32742.07
596.482	32520.89
596.679	32469.69
596.876	32283.33
597.072	32135.87
597.269	32398.01
597.466	31630.02
597.662	32146.11
597.859	31945.41
598.055	31967.94
598.252	31617.74
598.448	31709.89
598.645	31312.59
598.841	31249.1
599.038	31255.25
599.234	31359.69
599.431	31050.45
599.627	30997.2
599.824	31169.23
600.02	30806.74
600.217	30726.87
600.413	30558.94
600.609	30456.54
600.806	30427.87
601.002	30149.34
601.198	30278.36
601.395	30204.64
601.591	30173.92
601.787	30030.56
601.984	30149.34
602.18	30294.75
602.376	29864.67
602.572	29752.04
602.769	29197.04
602.965	29270.76
603.161	29268.72
603.357	29301.48
603.553	29151.98
603.75	29745.89
603.946	29111.02
604.142	29391.59
604.338	28642.04
604.534	29254.38
604.73	28836.59
604.926	28437.24
605.122	28560.12
605.318	28605.17
605.514	28459.77
605.71	28406.52
605.906	28228.35
606.102	28386.04
606.298	28361.47
606.494	28222.2
606.69	28074.75
606.886	28095.23
607.082	27509.51
607.278	27986.69
607.474	27368.2
607.67	28267.26
607.866	27112.2
608.062	27788.03
608.257	27443.98
608.453	27380.49
608.649	27628.29
608.845	26974.99
609.041	27636.48
609.236	27548.42
609.432	27040.53
609.628	27325.19
609.824	26886.93
610.019	26780.43
610.215	26905.36
610.411	27194.12
610.606	26880.78
610.802	27093.77
610.998	26794.77
611.193	27030.29
611.389	26536.73
611.584	26698.52
611.78	26606.36
611.976	26645.27
612.171	26188.57
612.367	26393.37
612.562	26514.2
612.758	25994.01
612.953	25989.92
613.149	26333.98
613.344	25912.1
613.539	26235.67
613.735	25924.38
613.93	26137.37
614.126	25852.7
614.321	26293.02
614.517	26254.11
614.712	25918.24
614.907	25828.13
615.103	25879.33
615.298	25742.11
615.493	26018.59
615.688	25156.39
615.884	25967.39
616.079	25432.87
616.274	25662.24
616.47	25836.32
616.665	25705.25
616.86	25258.79
617.055	25357.1
617.25	25250.6
617.445	25525.03
617.641	24638.26
617.836	25266.99
618.031	25115.44
618.226	25129.77
618.421	24947.5
618.616	25047.85
618.811	24300.34
619.006	24814.38
619.201	24351.54
619.396	24703.79
619.591	23978.81
619.786	24326.97
619.981	24228.66
620.176	24197.95
620.371	23933.76
620.566	23972.67
620.761	23696.19
620.956	23786.3
621.151	23323.46
621.346	23774.02
621.541	23046.99
621.735	23524.16
621.93	23151.43
622.125	23278.41
622.32	22311.77
622.515	22977.36
622.709	22526.8
622.904	22516.56
623.099	22362.97
623.294	22600.53
623.488	22293.33
623.683	22352.73
623.878	22127.45
624.072	22012.76
624.267	22008.67
624.462	22014.81
624.656	21486.43
624.851	21488.48
625.046	21355.36
625.24	21187.43
625.435	21070.7
625.629	21312.36
625.824	20775.79
626.018	20867.95
626.213	20642.67
626.407	20831.08
626.602	20192.12
626.796	20421.49
626.991	20480.88
627.185	20059
627.38	20001.66
627.574	19968.89
627.768	19786.62
627.963	19925.88
628.157	19594.11
628.352	19798.91
628.546	19213.19
628.74	19420.03
628.935	19264.39
629.129	19098.5
629.323	18738.06
629.517	18858.89
629.712	19159.94
629.906	18944.91
630.1	18418.58
630.294	18635.66
630.489	18469.78
630.683	18523.02
630.877	18084.76
631.071	18115.48
631.265	18158.49
631.459	17906.59
631.653	17763.23
631.848	17867.67
632.042	17742.75
632.236	17689.5
632.43	17470.37
632.624	17578.91
632.818	17486.75
633.012	17013.67
633.206	17011.62
633.4	17415.07
633.594	17054.63
633.788	17062.82
633.982	17005.48
634.176	16675.76
634.369	16567.21
634.563	16698.28
634.757	16548.78
634.951	16294.83
635.145	16296.88
635.339	16346.03
635.533	16270.26
635.726	16178.1
635.92	16034.74
636.114	15721.4
636.308	16022.45
636.501	15897.53
636.695	15743.93
636.889	15514.56
637.083	15567.81
637.276	15414.21
637.47	15363.01
637.664	15215.55
637.857	15238.08
638.051	15332.29
638.244	15131.59
638.438	14971.85
638.632	15217.6
638.825	14728.14
639.019	14785.48
639.212	14746.57
639.406	14826.44
639.599	14744.52
639.793	14607.31
639.986	14244.82
640.18	14420.94
640.373	14425.04
640.567	14271.44
640.76	14154.71
640.954	14093.27
641.147	13796.31
641.34	13884.37
641.534	13960.15
641.727	13876.18
641.92	13870.04
642.114	13642.71
642.307	13659.1
642.5	13648.86
642.694	13317.09
642.887	13345.76
643.08	13317.09
643.273	13298.66
643.467	13269.98
643.66	13075.43
643.853	13198.31
644.046	12868.58
644.239	12788.71
644.432	12794.86
644.626	12714.98
644.819	12614.63
645.012	12643.31
645.205	12696.55
645.398	12391.41
645.591	12534.76
645.784	12299.25
645.977	12309.49
646.17	12477.42
646.363	11981.81
646.556	12151.79
646.749	12035.06
646.942	12180.46
647.135	11715.58
647.328	11938.8
647.521	11721.72
647.714	11641.85
647.907	11742.2
648.099	11574.27
648.292	11713.53
648.485	11459.58
648.678	11469.82
648.871	11299.84
649.064	11551.74
649.256	11295.74
649.449	11285.5
649.642	11078.66
649.835	11125.76
650.027	10871.81
650.22	10978.31
650.413	10732.55
650.605	10918.92
650.798	10734.6
650.991	10578.95
651.183	10736.65
651.376	10724.36
651.568	10554.38
651.761	10730.5
651.954	10568.71
652.146	10560.52
652.339	10417.16
652.531	10490.89
652.724	10370.06
652.916	9944.08
653.109	9956.37
653.301	10255.37
653.494	10105.87
653.686	9956.37
653.879	9985.04
654.071	10034.19
654.263	9616.41
654.456	9974.8
654.648	9661.46
654.84	9653.27
655.033	9784.34
655.225	9649.18
655.417	9692.18
655.61	9657.37
655.802	9419.8
655.994	9495.58
656.186	9464.86
656.379	9458.71
656.571	9481.24
656.763	9298.97
656.955	9061.41
657.148	9223.2
657.34	9229.34
657.532	9149.47
657.724	9004.07
657.916	8959.01
658.108	8944.67
658.3	8971.3
658.492	9014.31
658.684	8823.84
658.876	8637.48
659.068	8674.34
659.26	8641.57
659.452	8492.07
659.644	8541.22
659.836	8430.63
660.028	8473.64
660.22	8305.71
660.412	8455.21
660.604	8287.28
660.796	8301.61
660.988	8283.18
661.18	8225.84
661.372	8141.87
661.563	8051.76
661.755	8023.09
661.947	8207.41
662.139	8037.42
662.331	7898.16
662.522	7994.42
662.714	7885.87
662.906	7783.48
663.097	7900.21
663.289	7914.55
663.481	7715.89
663.673	7730.23
663.864	7521.34
664.056	7636.02
664.247	7654.45
664.439	7525.43
664.631	7590.97
664.822	7500.86
665.014	7535.67
665.205	7519.29
665.397	7511.1
665.588	7197.76
665.78	7341.11
665.971	7156.8
666.163	7199.8
666.354	7076.93
666.546	7271.48
666.737	7062.59
666.929	7138.37
667.12	7056.45
667.311	6982.72
667.503	6902.85
667.694	7105.6
667.885	6851.65
668.077	6847.55
668.268	6784.07
668.459	6956.1
668.651	6728.77
668.842	6655.05
669.033	6560.84
669.224	6583.37
669.416	6593.61
669.607	6683.72
669.798	6487.11
669.989	6597.7
670.18	6732.87
670.371	6538.31
670.563	6454.34
670.754	6429.77
670.945	6519.88
671.136	6372.43
671.327	6343.75
671.518	6202.44
671.709	6333.51
671.9	6413.38
672.091	6308.94
672.282	6270.03
672.473	6255.69
672.664	6270.03
672.855	5979.22
673.046	6093.9
673.237	6136.91
673.428	6202.44
673.619	5917.78
673.809	6151.24
674	5895.25
674.191	5979.22
674.382	5887.06
674.573	5891.15
674.764	5925.97
674.954	5856.34
675.145	5723.22
675.336	5827.67
675.527	5708.88
675.717	5758.03
675.908	5717.08
676.099	5803.09
676.289	5788.75
676.48	5692.5
676.671	5712.98
676.861	5631.06
677.052	5657.68
677.243	5602.39
677.433	5436.5
677.624	5602.39
677.814	5555.29
678.005	5596.25
678.195	5653.59
678.386	5583.96
678.576	5487.7
678.767	5497.94
678.957	5569.62
679.148	5411.93
679.338	5469.27
679.529	5358.68
679.719	5325.91
679.909	5325.91
680.1	5332.06
680.29	5323.87
680.481	5237.85
680.671	5393.5
680.861	5137.5
681.052	5309.53
681.242	5184.6
681.432	5166.17
681.622	5164.12
681.813	5039.2
682.003	5127.26
682.193	5184.6
682.383	5014.62
682.573	5063.77
682.764	5082.21
682.954	5102.68
683.144	4994.14
683.334	4916.32
683.524	5192.8
683.714	5084.25
683.904	5016.67
684.094	4885.6
684.284	5041.25
684.474	5078.11
684.664	4858.98
684.854	4930.66
685.044	4914.27
685.234	4801.63
685.424	4846.69
685.614	4885.6
685.804	4805.73
685.994	4815.97
686.184	4748.39
686.374	4885.6
686.564	4627.56
686.753	4668.52
686.943	4572.26
687.133	4734.05
687.323	4609.12
687.513	4621.41
687.702	4541.54
687.892	4588.64
688.082	4570.21
688.272	4635.75
688.461	4582.5
688.651	4521.06
688.841	4387.94
689.03	4496.49
689.22	4381.8
689.41	4250.73
689.599	4480.1
689.789	4308.07
689.979	4244.59
690.168	4260.97
690.358	4328.55
690.547	4361.32
690.737	4308.07
690.926	4238.44
691.116	4244.59
691.305	4340.84
691.495	4097.13
691.684	4138.09
691.874	4142.19
692.063	4189.29
692.252	4115.56
692.442	4269.16
692.631	3923.05
692.82	4119.66
693.01	4002.93
693.199	3984.49
693.388	3902.58
693.578	4035.69
693.767	4056.17
693.956	4037.74
694.146	3882.1
694.335	3916.91
694.524	3888.24
694.713	4078.7
694.902	3914.86
695.092	3851.38
695.281	3794.03
695.47	3828.85
695.659	3841.14
695.848	3791.98
696.037	3966.06
696.226	3783.79
696.415	3767.41
696.604	3771.51
696.793	3863.66
696.982	3820.66
697.171	3816.56
697.36	3689.59
697.549	3644.53
697.738	3712.11
697.927	3634.29
698.116	3773.55
698.305	3652.72
698.494	3603.57
698.683	3611.76
698.872	3640.44
699.061	3622
699.25	3570.8
699.438	3648.63
699.627	3546.23
699.816	3560.56
700.005	3511.41
700.193	3624.05
700.382	3671.15
700.571	3560.56
700.76	3521.65
700.948	3466.36
701.137	3523.7
701.326	3415.16
701.514	3533.94
701.703	3370.1
701.892	3464.31
702.08	3390.58
702.269	3447.93
702.457	3458.17
702.646	3472.5
702.834	3390.58
703.023	3384.44
703.212	3464.31
703.4	3357.82
703.589	3300.47
703.777	3378.3
703.965	3161.21
704.154	3292.28
704.342	3390.58
704.531	3417.21
704.719	3386.49
704.907	3290.23
705.096	3312.76
705.284	3282.04
705.472	3302.52
705.661	3284.09
705.849	3351.67
706.037	3357.82
706.226	3185.79
706.414	3245.18
706.602	3284.09
706.79	3167.35
706.979	3314.81
707.167	3286.14
707.355	3103.87
707.543	3204.22
707.731	3196.03
707.919	3222.65
708.107	2985.09
708.296	3261.56
708.484	2968.7
708.672	3144.83
708.86	3228.79
709.048	3077.24
709.236	3161.21
709.424	3140.73
709.612	3155.07
709.8	3140.73
709.988	3021.95
710.176	3011.71
710.364	3091.58
710.551	3058.81
710.739	3060.86
710.927	3081.34
711.115	3011.71
711.303	2958.46
711.491	2987.13
711.679	3034.24
711.866	2991.23
712.054	3132.54
712.242	3048.57
712.43	3042.43
712.617	2997.37
712.805	3132.54
712.993	3032.19
713.181	3026.04
713.368	3036.28
713.556	2974.85
713.744	2944.13
713.931	3026.04
714.119	2901.12
714.306	2995.32
714.494	2745.47
714.682	3075.2
714.869	2917.5
715.057	2915.45
715.244	2884.73
715.432	2817.15
715.619	2948.22
715.807	2858.11
715.994	2811.01
716.182	2980.99
716.369	2915.45
716.556	2987.13
716.744	2878.59
716.931	2960.51
717.119	2751.62
717.306	2847.87
717.493	2808.96
717.681	2907.26
717.868	2798.72
718.055	3021.95
718.242	2833.54
718.43	2737.28
718.617	2731.14
718.804	2704.51
718.991	2862.21
719.179	2778.24
719.366	2763.9
719.553	2727.04
719.74	2892.93
719.927	2755.71
720.114	2729.09
720.301	2786.43
720.488	2722.95
720.676	2843.78
720.863	2739.33
721.05	2735.23
721.237	2722.95
721.424	2614.4
721.611	2813.06
721.798	2729.09
721.985	2784.38
722.172	2792.58
722.358	2690.18
722.545	2712.71
722.732	2714.75
722.919	2747.52
723.106	2694.27
723.293	2604.16
723.48	2579.59
723.667	2671.75
723.853	2565.25
724.04	2604.16
724.227	2657.41
724.414	2663.55
724.6	2675.84
724.787	2677.89
724.974	2735.23
725.161	2636.93
725.347	2669.7
725.534	2620.55
725.72	2749.57
725.907	2557.06
726.094	2724.99
726.28	2428.04
726.467	2559.11
726.653	2583.68
726.84	2514.05
727.027	2647.17
727.213	2579.59
727.4	2649.22
727.586	2530.44
727.773	2655.36
727.959	2518.15
728.145	2702.47
728.332	2589.83
728.518	2516.1
728.705	2532.48
728.891	2624.64
729.077	2532.48
729.264	2565.25
729.45	2628.74
729.636	2571.4
729.823	2571.4
730.009	2540.68
730.195	2466.95
730.382	2602.11
730.568	2583.68
730.754	2520.2
730.94	2534.53
731.126	2542.72
731.313	2499.72
731.499	2514.05
731.685	2567.3
731.871	2518.15
732.057	2507.91
732.243	2575.49
732.429	2569.35
732.615	2487.43
732.801	2514.05
732.987	2436.23
733.173	2415.75
733.359	2444.42
733.545	2391.17
733.731	2456.71
733.917	2473.09
734.103	2374.79
734.289	2436.23
734.475	2411.65
734.661	2464.9
734.847	2395.27
735.033	2487.43
735.219	2454.66
735.404	2432.13
735.59	2454.66
735.776	2401.41
735.962	2387.08
736.148	2442.37
736.333	2436.23
736.519	2354.31
736.705	2393.22
736.89	2507.91
737.076	2464.9
737.262	2329.74
737.447	2245.77
737.633	2360.45
737.819	2456.71
738.004	2243.72
738.19	2342.02
738.375	2403.46
738.561	2364.55
738.747	2245.77
738.932	2301.06
739.118	2329.74
739.303	2346.12
739.489	2319.5
739.674	2294.92
739.859	2268.3
740.045	2223.24
740.23	2305.16
740.416	2213
740.601	2323.59
740.786	2292.87
740.972	2155.66
741.157	2258.06
741.342	2153.61
741.528	2198.67
741.713	2092.17
741.898	2186.38
742.084	2200.71
742.269	2161.8
742.454	2202.76
742.639	2247.82
742.824	2092.17
743.01	2243.72
743.195	2194.57
743.38	2102.41
743.565	2192.52
743.75	2098.31
743.935	2075.79
744.12	2112.65
744.305	2055.31
744.49	2012.3
744.675	2057.36
744.86	2049.16
745.045	2047.12
745.23	2165.9
745.415	2096.27
745.6	2096.27
745.785	1918.09
745.97	1973.39
746.155	2018.44
746.34	1901.71
746.525	2014.35
746.71	1995.92
746.895	2065.55
747.079	2024.59
747.264	1950.86
747.449	1899.66
747.634	1856.65
747.819	1881.23
748.003	1809.55
748.188	1883.28
748.373	1965.2
748.557	1895.57
748.742	1854.61
748.927	1844.37
749.111	1768.59
749.296	1819.79
749.481	1791.12
749.665	1803.41
749.85	1741.97
750.034	1809.55
750.219	1760.4
750.404	1735.82
750.588	1793.17
750.773	1723.54
750.957	1727.63
751.141	1739.92
751.326	1780.88
751.51	1647.76
751.695	1658
751.879	1594.51
752.064	1672.34
752.248	1574.03
752.432	1633.43
752.617	1621.14
752.801	1490.07
752.985	1531.03
753.17	1590.42
753.354	1637.52
753.538	1617.04
753.722	1490.07
753.907	1500.31
754.091	1555.6
754.275	1453.2
754.459	1397.91
754.643	1402.01
754.828	1465.49
755.012	1393.81
755.196	1453.2
755.38	1432.72
755.564	1277.08
755.748	1379.48
755.932	1402.01
756.116	1488.02
756.3	1432.72
756.484	1244.31
756.668	1361.05
756.852	1342.61
757.036	1315.99
757.22	1328.28
757.404	1270.94
757.588	1359
757.772	1254.55
757.956	1258.65
758.14	1279.13
758.323	1232.02
758.507	1211.54
758.691	1281.18
758.875	1279.13
759.059	1248.41
759.242	1227.93
759.426	1166.49
759.61	1244.31
759.794	1238.17
759.977	1229.98
760.161	1260.7
760.345	1221.78
760.528	1203.35
760.712	1244.31
760.895	1219.74
761.079	1059.99
761.263	1137.82
761.446	1146.01
761.63	1227.93
761.813	1137.82
761.997	1121.43
762.18	1119.39
762.364	1137.82
762.547	1113.24
762.731	1100.95
762.914	1047.71
763.098	1090.71
763.281	1109.15
763.464	1080.47
763.648	1047.71
763.831	1031.32
764.015	1055.9
764.198	1057.95
764.381	1121.43
764.564	990.36
764.748	1043.61
764.931	1066.14
765.114	990.36
765.297	959.64
765.481	935.07
765.664	973.98
765.847	973.98
766.03	1084.57
766.213	990.36
766.397	1064.09
766.58	965.79
766.763	965.79
766.946	953.5
767.129	926.88
767.312	885.92
767.495	920.73
767.678	947.36
767.861	969.88
768.044	914.59
768.227	1055.9
768.41	933.02
768.593	957.6
768.776	918.68
768.959	941.21
769.142	992.41
769.324	875.68
769.507	918.68
769.69	939.16
769.873	994.46
770.056	947.36
770.239	865.44
770.421	857.25
770.604	941.21
770.787	810.14
770.97	885.92
771.152	853.15
771.335	810.14
771.518	847.01
771.7	982.17
771.883	890.01
772.066	781.47
772.248	832.67
772.431	867.49
772.613	820.38
772.796	822.43
772.978	855.2
773.161	855.2
773.343	648.35
773.526	814.24
773.708	744.61
773.891	752.8
774.073	750.75
774.256	760.99
774.438	857.25
774.621	793.76
774.803	773.28
774.985	722.08
775.168	793.76
775.35	763.04
775.532	728.22
775.715	652.45
775.897	728.22
776.079	760.99
776.261	752.8
776.444	760.99
776.626	689.31
776.808	701.6
776.99	695.46
777.173	697.5
777.355	724.13
777.537	728.22
777.719	760.99
777.901	691.36
778.083	656.54
778.265	595.11
778.447	634.02
778.629	662.69
778.811	613.54
778.993	666.78
779.175	717.98
779.357	582.82
779.539	588.96
779.721	650.4
779.903	621.73
780.085	623.78
780.267	654.5
780.449	580.77
780.631	638.11
780.812	584.87
780.994	584.87
781.176	545.95
781.358	588.96
781.54	576.67
781.721	586.91
781.903	564.39
782.085	570.53
782.267	554.15
782.448	564.39
782.63	543.91
782.812	556.19
782.993	545.95
783.175	640.16
783.357	613.54
783.538	519.33
783.72	515.23
783.901	558.24
784.083	431.27
784.264	535.71
784.446	461.99
784.627	453.8
784.809	552.1
784.99	470.18
785.172	498.85
785.353	441.51
785.535	476.32
785.716	507.04
785.897	410.79
786.079	392.36
786.26	427.17
786.441	527.52
786.623	369.83
786.804	466.08
786.985	423.08
787.167	451.75
787.348	416.93
787.529	457.89
787.71	466.08
787.891	441.51
788.073	447.65
788.254	392.36
788.435	445.6
788.616	392.36
788.797	408.74
788.978	431.27
789.159	353.45
789.34	337.06
789.522	486.56
789.703	441.51
789.884	394.4
790.065	427.17
790.246	474.28
790.427	353.45
790.607	412.84
790.788	466.08
790.969	361.64
791.15	363.69
791.331	402.6
791.512	378.02
791.693	361.64
791.874	375.97
792.054	380.07
792.235	363.69
792.416	304.29
792.597	353.45
792.778	361.64
792.958	345.25
793.139	332.97
793.32	285.86
793.5	294.05
793.681	384.16
793.862	375.97
794.042	318.63
794.223	255.14
794.404	285.86
794.584	302.25
794.765	367.78
794.945	269.48
795.126	312.49
795.306	347.3
795.487	375.97
795.667	224.42
795.848	386.21
796.028	326.82
796.209	302.25
796.389	253.09
796.57	396.45
796.75	328.87
796.93	353.45
797.111	259.24
797.291	261.29
797.471	273.57
797.652	277.67
797.832	285.86
798.012	285.86
798.192	203.94
798.373	269.48
798.553	269.48
798.733	267.43
798.913	261.29
799.093	277.67
799.274	277.67
799.454	343.21
799.634	302.25
799.814	255.14
799.994	302.25
800.174	277.67
800.354	294.05
800.534	199.85
800.714	228.52
800.894	271.53
801.074	191.66
801.254	296.1
801.434	312.49
801.614	371.88
801.794	212.14
801.974	765.09
802.154	162.98
802.334	322.73
802.514	224.42
802.693	179.37
802.873	294.05
803.053	302.25
803.233	167.08
803.413	224.42
803.592	222.38
803.772	228.52
803.952	283.81
804.131	212.14
804.311	289.96
804.491	205.99
804.67	240.81
804.85	220.33
805.03	230.57
805.209	183.46
805.389	185.51
805.568	158.89
805.748	89.26
805.928	238.76
806.107	251.05
806.287	269.48
806.466	189.61
806.646	253.09
806.825	183.46
807.004	285.86
807.184	285.86
807.363	197.8
807.543	203.94
807.722	181.42
807.901	197.8
808.081	234.66
808.26	208.04
808.439	171.18
808.619	154.79
808.798	148.65
808.977	222.38
809.156	218.28
809.336	220.33
809.515	222.38
809.694	230.57
809.873	195.75
810.052	154.79
810.231	177.32
810.411	177.32
810.59	173.22
810.769	181.42
810.948	197.8
811.127	152.74
811.306	165.03
811.485	154.79
811.664	165.03
811.843	46.25
812.022	79.02
812.201	191.66
812.38	189.61
812.559	210.09
812.737	140.46
812.916	169.13
813.095	142.5
813.274	162.98
813.453	187.56
813.632	230.57
813.811	187.56
813.989	130.22
814.168	230.57
814.347	99.5
814.526	173.22
814.704	113.83
814.883	156.84
815.062	152.74
815.24	203.94
815.419	109.74
815.598	179.37
815.776	136.36
815.955	167.08
816.133	70.83
816.312	126.12
816.49	181.42
816.669	162.98
816.847	126.12
817.026	179.37
817.204	126.12
817.383	156.84
817.561	140.46
817.74	169.13
817.918	140.46
818.097	218.28
818.275	72.87
818.453	148.65
818.632	212.14
818.81	154.79
818.988	130.22
819.167	156.84
819.345	115.88
819.523	158.89
819.701	122.02
819.879	113.83
820.058	91.31
820.236	138.41
820.414	171.18
820.592	132.26
820.77	156.84
820.948	107.69
821.127	195.75
821.305	60.59
821.483	122.02
821.661	187.56
821.839	85.16
822.017	156.84
822.195	76.97
822.373	140.46
822.551	107.69
822.729	154.79
822.907	162.98
823.085	216.23
823.262	11.43
823.44	115.88
823.618	81.07
823.796	105.64
823.974	66.73
824.152	119.98
824.329	136.36
824.507	83.11
824.685	134.31
824.863	160.94
825.04	109.74
825.218	146.6
825.396	97.45
825.574	40.11
825.751	107.69
825.929	105.64
826.107	76.97
826.284	25.77
826.462	48.3
826.639	89.26
826.817	107.69
826.994	154.79
827.172	85.16
827.349	146.6
827.527	119.98
827.704	115.88
827.882	126.12
828.059	99.5
828.237	138.41
828.414	97.45
828.591	58.54
828.769	113.83
828.946	103.59
829.124	105.64
829.301	105.64
829.478	66.73
829.655	122.02
829.833	105.64
830.01	3.24
830.187	113.83
830.364	87.21
830.542	162.98
830.719	138.41
830.896	220.33
831.073	128.17
831.25	72.87
831.427	97.45
831.604	95.4
831.782	64.68
831.959	113.83
832.136	70.83
832.313	154.79
832.49	124.07
832.667	52.39
832.844	115.88
833.021	142.5
833.198	81.07
833.374	122.02
833.551	134.31
833.728	64.68
833.905	70.83
834.082	52.39
834.259	87.21
834.436	62.63
834.612	95.4
834.789	31.91
834.966	50.35
835.143	132.26
835.319	-0.85
835.496	89.26
835.673	119.98
835.85	130.22
836.026	74.92
836.203	103.59
836.38	23.72
836.556	103.59
836.733	115.88
836.909	105.64
837.086	-29.52
837.262	68.78
837.439	97.45
837.616	113.83
837.792	76.97
837.968	76.97
838.145	29.87
838.321	89.26
838.498	60.59
838.674	56.49
838.851	27.82
839.027	56.49
839.203	76.97
839.38	27.82
839.556	89.26
839.732	124.07
839.909	40.11
840.085	50.35
840.261	72.87
840.437	89.26
840.614	-7
840.79	36.01
840.966	81.07
841.142	89.26
841.318	15.53
841.494	95.4
841.671	109.74
841.847	95.4
842.023	7.34
842.199	19.63
842.375	-4.95
842.551	-0.85
842.727	66.73
842.903	54.44
843.079	60.59
843.255	81.07
843.431	40.11
843.607	62.63
843.783	31.91
843.959	124.07
844.134	40.11
844.31	50.35
844.486	66.73
844.662	62.63
844.838	44.2
845.013	15.53
845.189	27.82
845.365	-78.68
845.541	56.49
845.716	-43.86
845.892	72.87
846.068	83.11
846.244	9.39
846.419	60.59
846.595	97.45
846.77	-7
846.946	72.87
847.122	31.91
847.297	15.53
847.473	146.6
847.648	1.19
847.824	64.68
847.999	27.82
848.175	81.07
848.35	9.39
848.526	97.45
848.701	113.83
848.876	83.11
849.052	44.2
849.227	64.68
849.403	46.25
849.578	36.01
849.753	54.44
849.929	138.41
850.104	89.26
850.279	23.72
850.454	132.26
850.63	66.73
850.805	31.91
850.98	23.72
851.155	15.53
851.33	-2.9
851.505	-17.24
851.681	162.98
851.856	27.82
852.031	-9.05
852.206	13.48
852.381	25.77
852.556	19.63
852.731	74.92
852.906	109.74
853.081	42.15
853.256	62.63
853.431	-35.67
853.606	-23.38
853.781	64.68
853.956	13.48
854.131	54.44
854.305	9.39
854.48	87.21
854.655	36.01
854.83	48.3
855.005	56.49
855.18	58.54
855.354	23.72
855.529	-0.85
855.704	60.59
855.879	-29.52
856.053	13.48
856.228	38.06
856.403	-21.33
856.577	60.59
856.752	-33.62
856.926	3.24
857.101	7.34
857.276	-17.24
857.45	33.96
857.625	40.11
857.799	7.34
857.974	99.5
858.148	60.59
858.323	97.45
858.497	33.96
858.672	50.35
858.846	40.11
859.02	48.3
859.195	-45.91
859.369	17.58
859.543	44.2
859.718	42.15
859.892	-9.05
860.066	27.82
860.241	31.91
860.415	56.49
860.589	68.78
860.763	85.16
860.938	62.63
861.112	97.45
861.286	113.83
861.46	68.78
861.634	9.39
861.808	89.26
861.982	5.29
862.157	-17.24
862.331	48.3
862.505	17.58
862.679	-9.05
862.853	44.2
863.027	42.15
863.201	72.87
863.375	19.63
863.549	62.63
863.722	40.11
863.896	21.67
864.07	-23.38
864.244	7.34
864.418	44.2
864.592	122.02
864.766	72.87
864.939	40.11
865.113	-25.43
865.287	81.07
865.461	72.87
865.634	7.34
865.808	44.2
865.982	66.73
866.156	-13.14
866.329	74.92
866.503	-17.24
866.676	89.26
866.85	58.54
867.024	76.97
867.197	72.87
867.371	38.06
867.544	3.24
867.718	-15.19
867.891	56.49
868.065	-9.05
868.238	3.24
868.412	81.07
868.585	11.43
868.759	15.53
868.932	42.15
869.105	23.72
869.279	-17.24
869.452	64.68
869.625	38.06
869.799	9.39
869.972	-0.85
870.145	31.91
870.319	70.83
870.492	-41.81
870.665	-13.14
870.838	7.34
871.011	-66.39
871.185	13.48
871.358	-9.05
871.531	58.54
871.704	13.48
871.877	48.3
872.05	-33.62
872.223	40.11
872.396	31.91
872.569	7.34
872.742	31.91
872.915	101.55
873.088	31.91
873.261	-29.52
873.434	44.2
873.607	23.72
873.78	87.21
873.953	7.34
874.126	15.53
874.299	19.63
874.471	17.58
874.644	25.77
874.817	17.58
874.99	64.68
875.163	-56.15
875.335	91.31
875.508	130.22
875.681	33.96
875.853	72.87
876.026	-72.53
876.199	111.78
876.371	38.06
876.544	5.29
876.717	13.48
876.889	31.91
877.062	-9.05
877.234	85.16
877.407	33.96
877.579	23.72
877.752	31.91
877.924	13.48
878.097	19.63
878.269	-0.85
878.442	50.35
878.614	50.35
878.786	79.02
878.959	15.53
879.131	-35.67
879.303	-50
879.476	44.2
879.648	48.3
879.82	-33.62
879.993	40.11
880.165	25.77
880.337	-50
880.509	11.43
880.681	-25.43
880.854	7.34
881.026	56.49
881.198	60.59
881.37	29.87
881.542	31.91
881.714	3.24
881.886	17.58
882.058	5.29
882.23	-0.85
882.402	25.77
882.574	9.39
882.746	-23.38
882.918	107.69
883.09	23.72
883.262	15.53
883.434	-9.05
883.606	-25.43
883.778	-21.33
883.95	-13.14
884.122	-11.09
884.293	38.06
884.465	72.87
884.637	29.87
884.809	25.77
884.98	52.39
885.152	-41.81
885.324	17.58
885.496	-4.95
885.667	19.63
885.839	38.06
886.011	-7
886.182	27.82
886.354	64.68
886.525	-47.96
886.697	56.49
886.869	-66.39
887.04	29.87
887.212	50.35
887.383	17.58
887.555	-19.29
887.726	-7
887.897	40.11
888.069	-27.48
888.24	-39.76
888.412	-33.62
888.583	5.29
888.754	17.58
888.926	9.39
889.097	15.53
889.268	-39.76
889.44	7.34
889.611	27.82
889.782	3.24
889.953	17.58
890.125	38.06
890.296	-25.43
890.467	36.01
890.638	7.34
890.809	-33.62
890.98	21.67
891.151	42.15
891.323	40.11
891.494	-13.14
891.665	15.53
891.836	36.01
892.007	-56.15
892.178	17.58
892.349	-31.57
892.52	-39.76
892.691	54.44
892.862	40.11
893.032	-17.24
893.203	21.67
893.374	85.16
893.545	40.11
893.716	-13.14
893.887	66.73
894.057	31.91
894.228	15.53
894.399	-15.19
894.57	7.34
894.74	-7
894.911	64.68
895.082	31.91
895.253	-7
895.423	-2.9
895.594	31.91
895.764	7.34
895.935	38.06
896.106	33.96
896.276	1.19
896.447	64.68
896.617	7.34
896.788	31.91
896.958	-33.62
897.129	52.39
897.299	-17.24
897.47	23.72
897.64	46.25
897.81	-37.72
897.981	36.01
898.151	1.19
898.322	33.96
898.492	48.3
898.662	33.96
898.832	-25.43
899.003	-41.81
899.173	-33.62
899.343	31.91
899.513	27.82
