Data from USB4F104151__52__14-17-00-441.txt Node

Date: Thu Mar 13 14:17:00 EDT 2025
User: louis
Spectrometer: USB4F10415
Trigger mode: 4
Integration Time (sec): 2.000000E-2
Scans to average: 1
Electric dark correction enabled: true
Nonlinearity correction enabled: false
Boxcar width: 0
XAxis mode: Wavelengths
Number of Pixels in Spectrum: 3648
>>>>>Begin Spectral Data<<<<<
178.204	-91.65
178.424	-91.65
178.644	-91.65
178.864	-73.21
179.084	-46.59
179.304	-24.06
179.524	-36.35
179.744	-22.02
179.964	23.04
180.184	18.94
180.404	68.09
180.624	-32.26
180.844	-22.02
181.064	4.61
181.283	10.75
181.503	-22.02
181.723	33.28
181.943	-34.3
182.163	100.86
182.383	49.66
182.602	27.14
182.822	72.19
183.042	55.81
183.262	31.23
183.482	23.04
183.701	-5.63
183.921	-9.73
184.141	-26.11
184.361	55.81
184.58	74.24
184.8	6.66
185.02	-30.21
185.239	129.53
185.459	-32.26
185.679	64
185.898	-5.63
186.118	129.53
186.338	18.94
186.557	64
186.777	-19.97
186.997	74.24
187.216	10.75
187.436	10.75
187.655	-11.78
187.875	31.23
188.095	-1.54
188.314	35.33
188.534	-5.63
188.753	35.33
188.973	92.67
189.192	90.62
189.412	64
189.631	-9.73
189.851	57.86
190.07	35.33
190.29	0.51
190.509	74.24
190.729	-3.58
190.948	55.81
191.168	76.29
191.387	115.2
191.607	-34.3
191.826	49.66
192.045	31.23
192.265	29.18
192.484	33.28
192.704	66.05
192.923	-44.54
193.142	45.57
193.362	18.94
193.581	80.38
193.8	55.81
194.02	55.81
194.239	57.86
194.458	90.62
194.678	43.52
194.897	47.62
195.116	74.24
195.335	96.77
195.555	43.52
195.774	18.94
195.993	45.57
196.212	41.47
196.432	-17.92
196.651	47.62
196.87	33.28
197.089	94.72
197.308	59.9
197.528	80.38
197.747	25.09
197.966	20.99
198.185	68.09
198.404	66.05
198.623	18.94
198.842	96.77
199.062	37.38
199.281	86.53
199.5	-15.87
199.719	18.94
199.938	47.62
200.157	123.39
200.376	18.94
200.595	55.81
200.814	35.33
201.033	25.09
201.252	100.86
201.471	-56.83
201.69	53.76
201.909	-5.63
202.128	29.18
202.347	59.9
202.566	-26.11
202.785	57.86
203.004	39.42
203.223	84.48
203.442	33.28
203.661	37.38
203.879	-1.54
204.098	25.09
204.317	31.23
204.536	0.51
204.755	72.19
204.974	68.09
205.193	31.23
205.411	6.66
205.63	78.33
205.849	6.66
206.068	20.99
206.287	86.53
206.505	39.42
206.724	41.47
206.943	57.86
207.162	-22.02
207.381	41.47
207.599	43.52
207.818	8.7
208.037	23.04
208.255	6.66
208.474	25.09
208.693	33.28
208.911	33.28
209.13	152.06
209.349	64
209.567	45.57
209.786	104.96
210.005	49.66
210.223	115.2
210.442	-15.87
210.661	-42.5
210.879	-42.5
211.098	23.04
211.316	-26.11
211.535	47.62
211.753	39.42
211.972	27.14
212.191	47.62
212.409	-54.78
212.628	29.18
212.846	-15.87
213.065	-7.68
213.283	10.75
213.502	-24.06
213.72	-1.54
213.938	27.14
214.157	33.28
214.375	23.04
214.594	0.51
214.812	6.66
215.031	68.09
215.249	-1.54
215.467	27.14
215.686	39.42
215.904	104.96
216.122	-19.97
216.341	-13.82
216.559	18.94
216.778	2.56
216.996	49.66
217.214	-11.78
217.432	86.53
217.651	-26.11
217.869	72.19
218.087	-15.87
218.306	14.85
218.524	90.62
218.742	23.04
218.96	113.15
219.179	49.66
219.397	-3.58
219.615	86.53
219.833	47.62
220.051	27.14
220.27	139.77
220.488	96.77
220.706	16.9
220.924	37.38
221.142	-5.63
221.36	59.9
221.578	14.85
221.796	25.09
222.015	90.62
222.233	27.14
222.451	55.81
222.669	-9.73
222.887	14.85
223.105	96.77
223.323	55.81
223.541	-42.5
223.759	31.23
223.977	6.66
224.195	27.14
224.413	16.9
224.631	39.42
224.849	-9.73
225.067	162.3
225.285	23.04
225.503	16.9
225.721	-19.97
225.939	31.23
226.157	39.42
226.375	51.71
226.592	78.33
226.81	29.18
227.028	2.56
227.246	82.43
227.464	16.9
227.682	74.24
227.9	39.42
228.117	16.9
228.335	47.62
228.553	43.52
228.771	31.23
228.989	45.57
229.206	23.04
229.424	41.47
229.642	16.9
229.86	-24.06
230.077	18.94
230.295	-46.59
230.513	145.92
230.731	104.96
230.948	82.43
231.166	8.7
231.384	45.57
231.601	27.14
231.819	47.62
232.037	-7.68
232.254	-67.07
232.472	35.33
232.689	10.75
232.907	0.51
233.125	45.57
233.342	-1.54
233.56	14.85
233.777	43.52
233.995	-69.12
234.213	102.91
234.43	47.62
234.648	74.24
234.865	4.61
235.083	18.94
235.3	68.09
235.518	113.15
235.735	55.81
235.953	80.38
236.17	-5.63
236.388	14.85
236.605	55.81
236.822	90.62
237.04	88.57
237.257	33.28
237.475	-9.73
237.692	-1.54
237.909	41.47
238.127	2.56
238.344	88.57
238.562	74.24
238.779	-9.73
238.996	-26.11
239.214	64
239.431	27.14
239.648	23.04
239.865	129.53
240.083	64
240.3	-24.06
240.517	39.42
240.735	49.66
240.952	55.81
241.169	4.61
241.386	70.14
241.603	127.49
241.821	-15.87
242.038	113.15
242.255	6.66
242.472	-1.54
242.689	18.94
242.907	-9.73
243.124	29.18
243.341	72.19
243.558	39.42
243.775	88.57
243.992	64
244.209	59.9
244.426	41.47
244.643	96.77
244.86	47.62
245.078	80.38
245.295	23.04
245.512	6.66
245.729	-22.02
245.946	72.19
246.163	47.62
246.38	55.81
246.597	66.05
246.814	59.9
247.031	29.18
247.248	33.28
247.464	84.48
247.681	57.86
247.898	14.85
248.115	70.14
248.332	8.7
248.549	55.81
248.766	61.95
248.983	55.81
249.2	-28.16
249.417	12.8
249.633	-17.92
249.85	74.24
250.067	33.28
250.284	55.81
250.501	47.62
250.717	10.75
250.934	-32.26
251.151	-26.11
251.368	23.04
251.585	68.09
251.801	-26.11
252.018	49.66
252.235	41.47
252.451	43.52
252.668	-1.54
252.885	-46.59
253.102	10.75
253.318	25.09
253.535	43.52
253.752	12.8
253.968	53.76
254.185	39.42
254.401	-17.92
254.618	59.9
254.835	-7.68
255.051	39.42
255.268	53.76
255.484	51.71
255.701	64
255.917	86.53
256.134	35.33
256.351	104.96
256.567	57.86
256.784	129.53
257	-13.82
257.217	27.14
257.433	16.9
257.65	121.34
257.866	80.38
258.082	-7.68
258.299	-1.54
258.515	80.38
258.732	-5.63
258.948	18.94
259.165	6.66
259.381	31.23
259.597	31.23
259.814	14.85
260.03	96.77
260.246	-9.73
260.463	-19.97
260.679	66.05
260.895	47.62
261.112	66.05
261.328	-67.07
261.544	25.09
261.761	59.9
261.977	-9.73
262.193	90.62
262.409	68.09
262.626	33.28
262.842	14.85
263.058	-32.26
263.274	72.19
263.49	88.57
263.707	25.09
263.923	49.66
264.139	68.09
264.355	16.9
264.571	139.77
264.787	33.28
265.004	31.23
265.22	55.81
265.436	39.42
265.652	66.05
265.868	59.9
266.084	10.75
266.3	23.04
266.516	66.05
266.732	76.29
266.948	43.52
267.164	-26.11
267.38	64
267.596	59.9
267.812	80.38
268.028	31.23
268.244	-1.54
268.46	68.09
268.676	55.81
268.892	-5.63
269.108	37.38
269.324	43.52
269.54	53.76
269.756	113.15
269.972	-40.45
270.188	-26.11
270.403	76.29
270.619	-28.16
270.835	-17.92
271.051	-17.92
271.267	72.19
271.483	39.42
271.698	45.57
271.914	109.05
272.13	31.23
272.346	39.42
272.562	-9.73
272.777	70.14
272.993	-3.58
273.209	14.85
273.425	6.66
273.64	-26.11
273.856	8.7
274.072	31.23
274.287	-34.3
274.503	90.62
274.719	133.63
274.934	82.43
275.15	6.66
275.366	16.9
275.581	35.33
275.797	4.61
276.012	27.14
276.228	84.48
276.444	6.66
276.659	113.15
276.875	-1.54
277.09	39.42
277.306	-1.54
277.521	70.14
277.737	102.91
277.952	68.09
278.168	107.01
278.383	47.62
278.599	68.09
278.814	57.86
279.03	8.7
279.245	70.14
279.461	92.67
279.676	-5.63
279.892	33.28
280.107	6.66
280.322	68.09
280.538	23.04
280.753	96.77
280.969	47.62
281.184	-58.88
281.399	23.04
281.615	160.25
281.83	100.86
282.045	76.29
282.26	-5.63
282.476	43.52
282.691	59.9
282.906	-3.58
283.122	70.14
283.337	2.56
283.552	94.72
283.767	-1.54
283.983	82.43
284.198	31.23
284.413	82.43
284.628	39.42
284.843	33.28
285.058	66.05
285.274	47.62
285.489	25.09
285.704	12.8
285.919	-9.73
286.134	125.44
286.349	47.62
286.564	-17.92
286.779	49.66
286.995	59.9
287.21	-91.65
287.425	47.62
287.64	16.9
287.855	86.53
288.07	16.9
288.285	74.24
288.5	14.85
288.715	76.29
288.93	45.57
289.145	33.28
289.36	59.9
289.575	39.42
289.79	76.29
290.004	-42.5
290.219	33.28
290.434	-22.02
290.649	-19.97
290.864	-65.02
291.079	68.09
291.294	39.42
291.509	25.09
291.724	66.05
291.938	33.28
292.153	80.38
292.368	-42.5
292.583	127.49
292.798	55.81
293.012	72.19
293.227	74.24
293.442	47.62
293.657	107.01
293.871	23.04
294.086	57.86
294.301	86.53
294.516	66.05
294.73	72.19
294.945	-17.92
295.16	25.09
295.374	18.94
295.589	16.9
295.804	90.62
296.018	16.9
296.233	37.38
296.447	0.51
296.662	39.42
296.877	115.2
297.091	90.62
297.306	82.43
297.52	18.94
297.735	43.52
297.949	49.66
298.164	47.62
298.378	39.42
298.593	-7.68
298.807	35.33
299.022	12.8
299.236	2.56
299.451	6.66
299.665	80.38
299.88	51.71
300.094	74.24
300.309	59.9
300.523	25.09
300.737	31.23
300.952	-3.58
301.166	129.53
301.381	-1.54
301.595	68.09
301.809	88.57
302.024	121.34
302.238	47.62
302.452	107.01
302.667	-9.73
302.881	68.09
303.095	-24.06
303.309	25.09
303.524	61.95
303.738	25.09
303.952	4.61
304.166	51.71
304.381	2.56
304.595	59.9
304.809	8.7
305.023	-56.83
305.237	45.57
305.452	23.04
305.666	82.43
305.88	18.94
306.094	66.05
306.308	33.28
306.522	-1.54
306.736	121.34
306.95	27.14
307.164	98.81
307.379	49.66
307.593	53.76
307.807	68.09
308.021	18.94
308.235	57.86
308.449	-5.63
308.663	68.09
308.877	64
309.091	-9.73
309.305	23.04
309.519	41.47
309.733	37.38
309.947	16.9
310.161	104.96
310.374	76.29
310.588	14.85
310.802	49.66
311.016	53.76
311.23	16.9
311.444	14.85
311.658	64
311.872	74.24
312.085	-9.73
312.299	96.77
312.513	80.38
312.727	-48.64
312.941	47.62
313.154	129.53
313.368	90.62
313.582	-11.78
313.796	43.52
314.009	78.33
314.223	47.62
314.437	43.52
314.651	8.7
314.864	39.42
315.078	59.9
315.292	47.62
315.505	41.47
315.719	14.85
315.933	47.62
316.146	-1.54
316.36	84.48
316.573	104.96
316.787	43.52
317.001	25.09
317.214	-24.06
317.428	-5.63
317.641	49.66
317.855	55.81
318.068	131.58
318.282	-9.73
318.495	76.29
318.709	23.04
318.922	39.42
319.136	88.57
319.349	64
319.563	-34.3
319.776	12.8
319.99	74.24
320.203	115.2
320.417	78.33
320.63	57.86
320.843	76.29
321.057	39.42
321.27	53.76
321.483	121.34
321.697	111.1
321.91	16.9
322.124	41.47
322.337	61.95
322.55	-11.78
322.763	64
322.977	64
323.19	39.42
323.403	88.57
323.617	14.85
323.83	6.66
324.043	78.33
324.256	53.76
324.469	43.52
324.683	55.81
324.896	45.57
325.109	-26.11
325.322	8.7
325.535	59.9
325.748	39.42
325.962	64
326.175	-22.02
326.388	115.2
326.601	16.9
326.814	88.57
327.027	107.01
327.24	74.24
327.453	10.75
327.666	35.33
327.879	109.05
328.092	64
328.305	8.7
328.518	72.19
328.731	33.28
328.944	31.23
329.157	10.75
329.37	100.86
329.583	64
329.796	74.24
330.009	64
330.222	37.38
330.435	115.2
330.648	14.85
330.861	14.85
331.073	66.05
331.286	104.96
331.499	115.2
331.712	-11.78
331.925	31.23
332.138	47.62
332.35	66.05
332.563	0.51
332.776	27.14
332.989	14.85
333.202	43.52
333.414	49.66
333.627	104.96
333.84	-5.63
334.053	80.38
334.265	98.81
334.478	104.96
334.691	35.33
334.903	109.05
335.116	51.71
335.329	-17.92
335.541	33.28
335.754	82.43
335.966	-7.68
336.179	31.23
336.392	20.99
336.604	88.57
336.817	74.24
337.029	31.23
337.242	-28.16
337.454	88.57
337.667	33.28
337.88	47.62
338.092	25.09
338.305	66.05
338.517	-48.64
338.729	-1.54
338.942	102.91
339.154	92.67
339.367	23.04
339.579	23.04
339.792	49.66
340.004	109.05
340.217	-34.3
340.429	72.19
340.641	43.52
340.854	14.85
341.066	49.66
341.278	78.33
341.491	59.9
341.703	129.53
341.915	29.18
342.128	82.43
342.34	53.76
342.552	31.23
342.764	66.05
342.977	16.9
343.189	37.38
343.401	84.48
343.613	74.24
343.826	80.38
344.038	29.18
344.25	68.09
344.462	35.33
344.674	-42.5
344.886	20.99
345.099	84.48
345.311	16.9
345.523	51.71
345.735	39.42
345.947	43.52
346.159	-17.92
346.371	61.95
346.583	104.96
346.795	121.34
347.007	4.61
347.219	80.38
347.431	16.9
347.643	14.85
347.855	41.47
348.067	121.34
348.279	80.38
348.491	82.43
348.703	37.38
348.915	43.52
349.127	72.19
349.339	70.14
349.551	41.47
349.763	76.29
349.975	33.28
350.187	76.29
350.399	29.18
350.61	23.04
350.822	92.67
351.034	43.52
351.246	18.94
351.458	8.7
351.669	131.58
351.881	72.19
352.093	35.33
352.305	55.81
352.517	49.66
352.728	39.42
352.94	29.18
353.152	72.19
353.363	-9.73
353.575	10.75
353.787	104.96
353.999	55.81
354.21	100.86
354.422	43.52
354.633	18.94
354.845	104.96
355.057	80.38
355.268	113.15
355.48	8.7
355.692	25.09
355.903	31.23
356.115	23.04
356.326	74.24
356.538	115.2
356.749	74.24
356.961	72.19
357.172	129.53
357.384	23.04
357.595	59.9
357.807	-26.11
358.018	23.04
358.23	109.05
358.441	72.19
358.653	49.66
358.864	33.28
359.075	25.09
359.287	80.38
359.498	68.09
359.709	33.28
359.921	39.42
360.132	82.43
360.344	68.09
360.555	-34.3
360.766	16.9
360.977	59.9
361.189	33.28
361.4	-11.78
361.611	55.81
361.823	74.24
362.034	137.73
362.245	14.85
362.456	41.47
362.667	53.76
362.879	16.9
363.09	20.99
363.301	25.09
363.512	-30.21
363.723	25.09
363.935	35.33
364.146	68.09
364.357	31.23
364.568	51.71
364.779	23.04
364.99	88.57
365.201	74.24
365.412	90.62
365.623	61.95
365.834	82.43
366.045	27.14
366.256	23.04
366.467	66.05
366.678	96.77
366.889	25.09
367.1	-19.97
367.311	12.8
367.522	27.14
367.733	98.81
367.944	23.04
368.155	-5.63
368.366	104.96
368.577	59.9
368.788	119.29
368.999	39.42
369.209	119.29
369.42	39.42
369.631	131.58
369.842	135.68
370.053	84.48
370.264	39.42
370.474	35.33
370.685	51.71
370.896	66.05
371.107	64
371.317	64
371.528	68.09
371.739	74.24
371.95	64
372.16	6.66
372.371	59.9
372.582	6.66
372.792	29.18
373.003	51.71
373.214	100.86
373.424	88.57
373.635	-1.54
373.846	-9.73
374.056	-1.54
374.267	98.81
374.477	27.14
374.688	16.9
374.898	96.77
375.109	39.42
375.319	-15.87
375.53	104.96
375.74	33.28
375.951	23.04
376.161	45.57
376.372	43.52
376.582	27.14
376.793	33.28
377.003	64
377.214	39.42
377.424	55.81
377.635	55.81
377.845	23.04
378.055	41.47
378.266	90.62
378.476	80.38
378.686	2.56
378.897	27.14
379.107	64
379.317	-3.58
379.528	64
379.738	88.57
379.948	-9.73
380.158	64
380.369	57.86
380.579	37.38
380.789	6.66
380.999	88.57
381.21	84.48
381.42	66.05
381.63	39.42
381.84	33.28
382.05	80.38
382.261	113.15
382.471	-34.3
382.681	82.43
382.891	107.01
383.101	170.49
383.311	-1.54
383.521	72.19
383.731	49.66
383.941	55.81
384.151	74.24
384.361	55.81
384.571	92.67
384.781	59.9
384.991	88.57
385.201	55.81
385.411	86.53
385.621	39.42
385.831	76.29
386.041	55.81
386.251	68.09
386.461	107.01
386.671	-5.63
386.881	72.19
387.091	-11.78
387.301	74.24
387.511	16.9
387.72	100.86
387.93	25.09
388.14	66.05
388.35	4.61
388.56	55.81
388.769	70.14
388.979	47.62
389.189	0.51
389.399	64
389.609	33.28
389.818	121.34
390.028	39.42
390.238	66.05
390.447	70.14
390.657	72.19
390.867	109.05
391.076	10.75
391.286	100.86
391.496	96.77
391.705	70.14
391.915	137.73
392.125	47.62
392.334	78.33
392.544	23.04
392.753	129.53
392.963	39.42
393.172	104.96
393.382	92.67
393.591	199.16
393.801	68.09
394.01	113.15
394.22	170.49
394.429	59.9
394.639	55.81
394.848	195.07
395.058	66.05
395.267	150.01
395.477	139.77
395.686	64
395.895	96.77
396.105	98.81
396.314	59.9
396.524	104.96
396.733	55.81
396.942	98.81
397.152	107.01
397.361	82.43
397.57	59.9
397.78	127.49
397.989	66.05
398.198	88.57
398.407	117.25
398.617	109.05
398.826	59.9
399.035	129.53
399.244	88.57
399.453	195.07
399.663	129.53
399.872	88.57
400.081	119.29
400.29	129.53
400.499	94.72
400.708	195.07
400.917	72.19
401.127	121.34
401.336	80.38
401.545	145.92
401.754	115.2
401.963	145.92
402.172	98.81
402.381	107.01
402.59	92.67
402.799	98.81
403.008	190.97
403.217	141.82
403.426	135.68
403.635	55.81
403.844	123.39
404.053	113.15
404.262	152.06
404.471	236.03
404.68	154.11
404.888	109.05
405.097	211.45
405.306	137.73
405.515	240.12
405.724	137.73
405.933	211.45
406.142	272.89
406.35	164.35
406.559	197.12
406.768	170.49
406.977	164.35
407.185	201.21
407.394	135.68
407.603	129.53
407.812	219.64
408.02	293.37
408.229	231.93
408.438	227.84
408.646	281.08
408.855	227.84
409.064	254.46
409.272	276.99
409.481	250.36
409.69	252.41
409.898	260.6
410.107	270.84
410.315	311.8
410.524	270.84
410.733	334.33
410.941	279.04
411.15	324.09
411.358	328.19
411.567	350.71
411.775	473.59
411.984	436.73
412.192	432.63
412.401	416.25
412.609	489.98
412.818	489.98
413.026	432.63
413.234	518.65
413.443	553.46
413.651	563.7
413.86	526.84
414.068	580.09
414.276	645.62
414.485	539.13
414.693	702.97
414.901	604.66
415.11	633.33
415.318	657.91
415.526	770.55
415.734	678.39
415.943	713.21
416.151	780.79
416.359	788.98
416.567	754.16
416.776	866.8
416.984	877.04
417.192	952.82
417.4	926.19
417.608	942.58
417.817	983.54
418.025	1104.37
418.233	1071.6
418.441	1061.36
418.649	1202.67
418.857	1278.44
419.065	1169.9
419.273	1284.59
419.481	1315.31
419.689	1415.66
419.897	1337.84
420.105	1413.61
420.313	1544.68
420.521	1505.77
420.729	1522.15
420.937	1538.54
421.145	1630.7
421.353	1724.9
421.561	1812.96
421.769	1792.48
421.977	1982.95
422.185	1927.65
422.393	2030.05
422.601	2202.08
422.809	2163.17
423.017	2071.01
423.224	2206.17
423.432	2327
423.64	2417.12
423.848	2632.15
424.056	2525.66
424.263	2595.29
424.471	2681.3
424.679	2677.21
424.887	2963.92
425.094	2937.3
425.302	2916.82
425.51	3070.42
425.718	3082.7
425.925	3150.29
426.133	3437
426.341	3611.08
426.548	3701.19
426.756	3594.7
426.964	3705.29
427.171	3852.74
427.379	3910.08
427.586	4112.83
427.794	4241.86
428.001	4299.2
428.209	4610.49
428.417	4508.09
428.624	4821.43
428.832	4759.99
429.039	4712.89
429.247	4741.56
429.454	5304.75
429.662	5583.27
429.869	5380.53
430.076	5536.17
430.284	5431.73
430.491	5773.74
430.699	6080.93
430.906	6009.25
431.114	6191.52
431.321	6252.96
431.528	6511
431.736	6683.03
431.943	7068.05
432.15	7002.52
432.358	6965.65
432.565	7461.26
432.772	7319.95
432.979	7801.22
433.187	7762.31
433.394	8001.93
433.601	8427.9
433.808	8464.77
434.016	8509.82
434.223	8642.94
434.43	9298.29
434.637	9027.96
434.844	9675.12
435.052	9853.29
435.259	9752.94
435.466	9754.99
435.673	9632.11
435.88	10361.19
436.087	11039.06
436.294	11102.55
436.501	10672.48
436.708	10926.43
436.915	11458.9
437.122	11850.06
437.329	11516.24
437.537	12175.69
437.743	12366.15
437.95	12200.26
438.157	12740.93
438.364	13324.6
438.571	13306.16
438.778	13515.06
438.985	14379.3
439.192	14219.56
439.399	14422.31
439.606	14090.54
439.813	14930.2
440.02	15835.41
440.227	15675.66
440.433	15565.07
440.64	16021.77
440.847	15948.04
441.054	16294.15
441.261	17164.54
441.467	17070.33
441.674	17357.05
441.881	17918.19
442.088	17852.66
442.294	17647.86
442.501	18391.27
442.708	18770.15
442.914	19529.94
443.121	19863.76
443.328	19445.98
443.534	20940.99
443.741	20562.12
443.948	20250.83
444.154	21678.26
444.361	21272.76
444.568	21522.62
444.774	21444.79
444.981	21934.26
445.187	22503.59
445.394	23533.72
445.6	23120.03
445.807	25118.85
446.013	24152.21
446.22	24512.65
446.426	25550.97
446.633	26017.91
446.839	26691.69
447.046	25639.03
447.252	27132
447.459	26916.97
447.665	26773.61
447.871	28078.16
448.078	29454.4
448.284	27510.88
448.491	28682.31
448.697	29950.01
448.903	30341.17
449.11	30244.91
449.316	30029.88
449.522	30511.15
449.728	31299.62
449.935	31432.74
450.141	31342.63
450.347	32307.22
450.553	30988.33
450.76	31447.07
450.966	32337.94
451.172	32315.41
451.378	33349.64
451.584	32579.6
451.791	33210.37
451.997	33234.95
452.203	33687.55
452.409	33949.69
452.615	33519.62
452.821	32217.11
453.027	31899.67
453.233	33720.32
453.44	32174.1
453.646	32544.78
453.852	32954.38
454.058	33511.42
454.264	32374.8
454.47	33458.18
454.676	32075.8
454.882	33490.94
455.088	30281.78
455.294	31086.63
455.5	31291.43
455.705	32061.46
455.911	30257.2
456.117	29974.58
456.323	29599.8
456.529	27918.42
456.735	29677.63
456.941	28366.93
457.147	28035.16
457.352	27402.33
457.558	26876.01
457.764	26843.24
457.97	26968.16
458.176	25983.09
458.381	26134.64
458.587	24785.03
458.793	24717.45
458.999	23685.27
459.204	25118.85
459.41	24270.99
459.616	22743.2
459.821	22821.03
460.027	22966.43
460.233	22472.87
460.438	21276.86
460.644	21508.28
460.85	20723.91
461.055	19953.87
461.261	20076.75
461.466	18700.51
461.672	18168.04
461.878	19239.13
462.083	18272.49
462.289	17670.39
462.494	17701.11
462.7	16685.31
462.905	16550.15
463.111	17021.18
463.316	16849.15
463.522	16474.37
463.727	16460.04
463.932	16646.4
464.138	16408.84
464.343	16390.41
464.549	15984.91
464.754	16486.66
464.959	16404.74
465.165	16273.67
465.37	15700.24
465.575	15141.14
465.781	15888.65
465.986	15767.82
466.191	15149.34
466.397	15018.27
466.602	14213.42
466.807	14821.66
467.012	14729.5
467.218	14725.41
467.423	14602.53
467.628	14610.72
467.833	15094.04
468.038	14573.86
468.244	14244.13
468.449	14840.09
468.654	14424.36
468.859	14338.34
469.064	14084.39
469.269	13586.74
469.474	13777.2
469.679	14156.07
469.885	13662.51
470.09	13695.28
470.295	13879.6
470.5	13338.93
470.705	13211.96
470.91	13113.66
471.115	13066.55
471.32	13363.51
471.525	13146.42
471.73	12767.55
471.935	12937.53
472.139	12341.57
472.344	12599.62
472.549	12419.39
472.754	12173.64
472.959	12036.42
473.164	11667.79
473.369	11606.35
473.574	12097.86
473.778	11688.27
473.983	11819.34
474.188	11780.43
474.393	11307.35
474.598	11116.89
474.802	11163.99
475.007	11080.02
475.212	11317.59
475.417	10594.65
475.621	10789.21
475.826	10867.03
476.031	10557.79
476.235	10195.3
476.44	10504.54
476.645	10232.16
476.849	10400.1
477.054	10140.01
477.259	9822.57
477.463	10082.66
477.668	9920.87
477.872	9812.33
478.077	9644.4
478.282	9599.34
478.486	9548.14
478.691	9335.15
478.895	9423.22
479.1	9173.36
479.304	9329.01
479.509	9146.74
479.713	9314.67
479.918	8976.76
480.122	8817.02
480.326	9077.11
480.531	9101.69
480.735	8909.18
480.94	8765.82
481.144	9206.13
481.348	8632.7
481.553	8919.42
481.757	8528.25
481.961	8761.72
482.166	8948.09
482.37	8710.52
482.574	8595.84
482.778	8669.56
482.983	8737.15
483.187	8759.67
483.391	8673.66
483.595	8595.84
483.8	8542.59
484.004	8655.23
484.208	8737.15
484.412	8653.18
484.616	8526.21
484.821	8651.13
485.025	8573.31
485.229	8825.21
485.433	8591.74
485.637	8638.84
485.841	8446.34
486.045	8460.67
486.249	8620.41
486.453	8591.74
486.657	8409.47
486.861	8749.43
487.065	8313.22
487.269	8438.14
487.473	8386.94
487.677	8745.34
487.881	8743.29
488.085	8661.37
488.289	8663.42
488.493	8417.66
488.697	8657.28
488.901	8448.38
489.105	8663.42
489.309	8642.94
489.512	8612.22
489.716	8853.88
489.92	8544.64
490.124	8892.79
490.328	9021.81
490.531	9017.72
490.735	8896.89
490.939	8831.35
491.143	8780.15
491.346	8741.24
491.55	9126.26
491.754	8976.76
491.958	9177.46
492.161	8978.81
492.365	9011.57
492.569	9103.73
492.772	9001.33
492.976	9345.39
493.18	9208.18
493.383	9271.67
493.587	9318.77
493.79	9597.29
493.994	9214.32
494.197	9453.94
494.401	9435.5
494.605	9451.89
494.808	9595.25
495.012	9775.47
495.215	9738.6
495.419	9703.79
495.622	9736.56
495.825	10123.62
496.029	9892.2
496.232	10191.2
496.436	10162.53
496.639	10531.17
496.843	10363.23
497.046	10613.09
497.249	10555.74
497.453	10764.64
497.656	10824.03
497.859	10846.55
498.063	11114.84
498.266	11157.85
498.469	11204.95
498.673	11252.05
498.876	11493.71
499.079	11581.78
499.282	11440.47
499.485	11934.03
499.689	11884.87
499.892	12204.36
500.095	12228.93
500.298	12405.06
500.501	12239.17
500.705	12390.72
500.908	12742.97
501.111	12712.25
501.314	13150.52
501.517	12958.01
501.72	13097.27
501.923	13093.18
502.126	13451.57
502.329	13680.94
502.532	13754.67
502.735	13646.13
502.938	14100.78
503.141	14324.01
503.344	14246.18
503.547	14412.07
503.75	14817.57
503.953	14899.48
504.156	14827.81
504.359	15032.6
504.562	15122.71
504.765	15427.86
504.968	15855.89
505.17	16089.35
505.373	15905.04
505.576	16109.83
505.779	16384.26
505.982	16335.11
506.185	16677.12
506.387	16800
506.59	16953.6
506.793	17092.86
506.996	17074.43
507.198	17533.17
507.401	17533.17
507.604	17848.56
507.807	18065.64
508.009	18254.06
508.212	18206.95
508.415	18733.28
508.617	18667.75
508.82	18845.92
509.022	18608.36
509.225	19087.58
509.428	19431.64
509.63	19685.59
509.833	19626.2
510.035	19884.24
510.238	20011.21
510.44	20216.01
510.643	20633.8
510.845	20797.63
511.048	20689.09
511.25	21123.26
511.453	21266.62
511.655	21668.02
511.858	21592.25
512.06	21569.72
512.262	22083.76
512.465	22073.52
512.667	22247.6
512.87	22708.39
513.072	22749.35
513.274	22997.15
513.477	23298.2
513.679	23175.33
513.881	23902.36
514.084	23990.42
514.286	24027.28
514.488	24184.97
514.69	24977.54
514.893	24701.06
515.095	24995.97
515.297	25221.25
515.499	25503.87
515.701	25436.28
515.904	26003.57
516.106	26093.68
516.308	26327.15
516.51	26749.03
516.712	26744.94
516.914	27129.95
517.116	27422.81
517.318	27521.12
517.52	27635.8
517.722	27662.43
517.925	28090.45
518.127	28414.03
518.329	28467.28
518.531	28592.2
518.733	29081.67
518.935	29399.1
519.136	29249.6
519.338	29384.77
519.54	29528.13
519.742	30130.23
519.944	30140.47
520.146	30683.18
520.348	30930.98
520.55	30718
520.752	31064.1
520.954	31705.12
521.155	31416.35
521.357	31827.99
521.559	32106.52
521.761	32727.05
521.963	32393.23
522.164	32802.83
522.366	32972.81
522.568	33046.54
522.77	33202.18
522.971	33685.5
523.173	33568.77
523.375	33929.21
523.576	33814.52
523.778	34025.46
523.98	34379.76
524.181	34488.31
524.383	34828.27
524.584	35307.49
524.786	34871.28
524.988	35287.01
525.189	35526.63
525.391	35606.5
525.592	35954.65
525.794	35968.99
525.995	35876.83
526.197	35801.05
526.398	35833.82
526.6	36462.55
526.801	36532.18
527.003	36728.78
527.204	36751.31
527.406	37279.69
527.607	37005.26
527.808	37447.62
528.01	37169.1
528.211	36861.9
528.412	38105.02
528.614	37451.72
528.815	37916.61
529.016	38318.01
529.218	37937.09
529.419	38414.26
529.62	38174.65
529.822	38234.04
530.023	38066.11
530.224	38098.87
530.425	38182.84
530.626	38205.37
530.828	38418.36
531.029	38596.53
531.23	38580.15
531.431	38412.21
531.632	38850.48
531.833	38817.71
532.035	38997.93
532.236	38758.32
532.437	39114.67
532.638	38369.21
532.839	38991.79
533.04	39180.2
533.241	38907.82
533.442	39540.64
533.643	39215.02
533.844	39167.91
534.045	39106.48
534.246	38623.15
534.447	39434.15
534.648	38936.49
534.849	39180.2
535.05	38858.67
535.251	39325.61
535.451	39348.14
535.652	39331.75
535.853	39122.86
536.054	39083.95
536.255	39636.9
536.456	39008.17
536.657	39817.12
536.857	39264.17
537.058	39241.64
537.259	39362.47
537.46	39198.63
537.66	39569.32
537.861	39239.59
538.062	38907.82
538.263	39511.97
538.463	39065.52
538.664	39294.89
538.865	39364.52
539.065	38924.21
539.266	38809.52
539.466	39321.51
539.667	38707.12
539.868	39264.17
540.068	39514.02
540.269	39309.22
540.469	39165.87
540.67	39032.75
540.87	39258.02
541.071	39247.79
541.271	39575.46
541.472	39255.98
541.672	39208.87
541.873	38987.69
542.073	38590.39
542.274	39430.05
542.474	38873.01
542.675	39065.52
542.875	39389.09
543.075	39030.7
543.276	39055.28
543.476	39733.15
543.676	38870.96
543.877	39122.86
544.077	39147.43
544.277	38924.21
544.478	39104.43
544.678	39126.95
544.878	38784.94
545.078	38950.83
545.279	38764.46
545.479	38447.03
545.679	39329.7
545.879	39225.26
546.079	38916.01
546.28	38504.37
546.48	38956.97
546.68	39079.85
546.88	39550.88
547.08	38758.32
547.28	38760.37
547.48	39180.2
547.68	38629.3
547.88	38868.91
548.081	39284.65
548.281	38686.64
548.481	38754.22
548.681	39129
548.881	39075.76
549.081	39167.91
549.28	38795.18
549.48	39045.04
549.68	38766.51
549.88	39131.05
550.08	38469.56
550.28	38555.57
550.48	38676.4
550.68	39057.32
550.88	38678.45
551.08	38690.74
551.279	39004.08
551.479	38084.54
551.679	38660.02
551.879	38227.9
552.079	38897.58
552.278	38516.66
552.478	38791.09
552.678	38516.66
552.878	38969.26
553.077	38088.63
553.277	38092.73
553.477	38754.22
553.676	38375.35
553.876	38520.76
554.076	38399.93
554.275	38105.02
554.475	38291.38
554.674	38891.44
554.874	38430.65
555.074	37996.48
555.273	38244.28
555.473	38520.76
555.672	38387.64
555.872	38285.24
556.071	38039.48
556.271	38211.51
556.47	38139.83
556.67	37674.95
556.869	37955.52
557.068	38090.68
557.268	38023.1
557.467	37930.94
557.667	37824.45
557.866	37998.52
558.065	38229.94
558.265	37466.05
558.464	37844.93
558.663	37939.13
558.863	37595.07
559.062	37783.49
559.261	37332.93
559.461	37816.25
559.66	36925.39
559.859	37427.14
560.058	37167.05
560.258	37351.37
560.457	37025.74
560.656	37408.71
560.855	37066.7
561.054	37693.38
561.253	36835.28
561.453	37302.21
561.652	37322.69
561.851	37199.82
562.05	36976.59
562.249	36597.71
562.448	37066.7
562.647	36745.17
562.846	36595.67
563.045	36249.56
563.244	36138.97
563.443	36587.47
563.642	36159.45
563.841	36374.48
564.04	36110.3
564.239	36528.08
564.438	36247.51
564.637	36038.62
564.836	36171.74
565.035	35876.83
565.234	35985.37
565.432	35950.56
565.631	35366.88
565.83	36018.14
566.029	35731.42
566.228	35696.61
566.427	35987.42
566.625	35571.68
566.824	34899.95
567.023	35559.39
567.222	35112.94
567.42	35698.66
567.619	35207.14
567.818	35504.1
568.016	35250.15
568.215	35452.9
568.414	34971.63
568.612	35682.27
568.811	34723.82
569.01	35016.68
569.208	34539.5
569.407	35028.97
569.605	34336.76
569.804	34328.56
570.002	34172.92
570.201	34611.18
570.4	34226.17
570.598	34174.97
570.797	34168.82
570.995	34234.36
571.193	33716.22
571.392	34039.8
571.59	33546.24
571.789	33804.28
571.987	33480.71
572.186	33533.95
572.384	33343.49
572.582	33685.5
572.781	33298.44
572.979	33257.48
573.177	33247.24
573.376	33462.27
573.574	33077.26
573.772	33136.65
573.971	32929.8
574.169	33036.3
574.367	32561.17
574.565	32882.7
574.763	32925.71
574.962	32772.11
575.16	32225.3
575.358	32544.78
575.556	31995.93
575.754	32612.37
575.952	32159.77
576.151	32466.96
576.349	31481.89
576.547	31645.73
576.745	31969.3
576.943	31907.87
577.141	31987.74
577.339	31713.31
577.537	31563.81
577.735	31410.21
577.933	31461.41
578.131	31586.33
578.329	31313.95
578.527	31135.78
578.725	31166.5
578.923	31242.28
579.121	31025.19
579.319	30908.46
579.516	30949.42
579.714	30988.33
579.912	30662.7
580.11	30410.8
580.308	30636.08
580.506	30748.71
580.704	30425.14
580.901	30363.7
581.099	30640.17
581.297	30531.63
581.495	30076.98
581.692	30410.8
581.89	29722.68
582.088	30103.6
582.285	29941.82
582.483	30095.41
582.681	29780.03
582.878	29792.31
583.076	29792.31
583.274	29773.88
583.471	29247.55
583.669	29257.79
583.866	29237.31
584.064	29136.96
584.262	28868.68
584.459	29388.86
584.657	29028.42
584.854	29360.19
585.052	28661.83
585.249	28985.41
585.447	28797
585.644	28612.68
585.841	28584.01
586.039	28987.46
586.236	28512.33
586.434	28325.97
586.631	28147.79
586.828	28264.53
587.026	28125.27
587.223	27979.86
587.42	27975.77
587.618	28065.88
587.815	27717.72
588.012	27949.14
588.21	27363.42
588.407	28006.48
588.604	27578.46
588.801	27197.54
588.999	27287.65
589.196	27299.94
589.393	27316.32
589.59	27261.02
589.787	27297.89
589.984	27070.56
590.182	26988.64
590.379	26695.78
590.576	26740.84
590.773	26703.98
590.97	26945.64
591.167	26818.66
591.364	26384.49
591.561	26810.47
591.758	26376.3
591.955	26280.05
592.152	26290.29
592.349	25997.43
592.546	26275.95
592.743	26288.24
592.94	25546.87
593.137	26097.78
593.334	26101.87
593.531	25565.31
593.727	25864.31
593.924	25725.05
594.121	25532.54
594.318	25444.48
594.515	25190.53
594.712	25385.08
594.908	25135.23
595.105	25512.06
595.302	25086.08
595.499	25098.37
595.696	25094.27
595.892	24940.68
596.089	24756.36
596.286	24895.62
596.482	24406.16
596.679	24688.78
596.876	24860.8
597.072	24871.04
597.269	24475.79
597.466	24496.27
597.662	24324.24
597.859	24152.21
598.055	24314
598.252	24291.47
598.448	24094.86
598.645	24019.09
598.841	23689.37
599.038	23892.12
599.234	23736.47
599.431	23791.76
599.627	23734.42
599.824	23646.36
600.02	23414.94
600.217	23210.14
600.413	23613.59
600.609	23373.98
600.806	23138.46
601.002	23173.28
601.198	23085.22
601.395	22952.1
601.591	22880.42
601.787	23017.63
601.984	22982.82
602.18	22952.1
602.376	22702.25
602.572	22612.13
602.769	22583.46
602.965	22130.86
603.161	22519.98
603.357	22292.65
603.553	22444.2
603.75	22384.81
603.946	22087.85
604.142	22489.26
604.338	22081.71
604.534	21964.98
604.73	22030.51
604.926	21897.39
605.122	22227.12
605.318	21776.56
605.514	21518.52
605.71	21694.64
605.906	21518.52
606.102	21790.9
606.298	21749.94
606.494	21682.36
606.69	21205.18
606.886	21446.84
607.082	21231.8
607.278	21457.08
607.474	21035.2
607.67	21340.35
607.866	20848.83
608.062	21078.21
608.257	21047.49
608.453	21059.77
608.649	21047.49
608.845	20598.98
609.041	20865.22
609.236	21067.97
609.432	20678.85
609.628	20578.5
609.824	20773.06
610.019	20523.21
610.215	20451.53
610.411	20818.11
610.606	20592.84
610.802	20349.13
610.998	20478.15
611.193	20467.91
611.389	20596.93
611.584	20234.44
611.78	20228.3
611.976	20150.48
612.171	20289.74
612.367	20197.58
612.562	19865.81
612.758	19822.8
612.953	20015.31
613.149	20103.37
613.344	19849.43
613.539	20283.59
613.735	19603.67
613.93	20035.79
614.126	19736.79
614.321	20211.92
614.517	20025.55
614.712	20039.89
614.907	19615.96
615.103	19708.12
615.298	19675.35
615.493	19968.21
615.688	19480.79
615.884	19900.62
616.079	19022.05
616.274	19724.5
616.47	19206.36
616.665	19329.24
616.86	19335.38
617.055	19044.57
617.25	18798.82
617.445	19497.17
617.641	19161.31
617.836	18811.1
618.031	18774.24
618.226	18880.74
618.421	18950.37
618.616	18954.46
618.811	18378.98
619.006	18909.41
619.201	18587.88
619.396	18708.71
619.591	18415.85
619.786	18481.38
619.981	18157.8
620.176	18532.58
620.371	18063.6
620.566	18168.04
620.761	18135.28
620.956	17965.29
621.151	17907.95
621.346	17991.92
621.541	17752.31
621.735	17914.09
621.93	17533.17
622.125	17576.18
622.32	17367.29
622.515	17346.81
622.709	17199.35
622.904	17352.95
623.099	17160.44
623.294	17266.94
623.488	16730.37
623.683	16982.27
623.878	16648.45
624.072	16730.37
624.267	16574.72
624.462	16482.56
624.656	16371.97
624.851	16333.06
625.046	16136.46
625.24	16273.67
625.435	15868.17
625.629	16118.03
625.824	16013.58
626.018	15919.37
626.213	15663.38
626.407	15606.03
626.602	15595.79
626.796	15626.51
626.991	15560.98
627.185	15300.89
627.38	15538.45
627.574	15046.94
627.768	15091.99
627.963	15055.13
628.157	14893.34
628.352	15218.97
628.546	14670.11
628.74	14858.53
628.935	14709.02
629.129	14563.62
629.323	14512.42
629.517	14383.4
629.712	14330.15
629.906	14268.71
630.1	13943.08
630.294	14332.2
630.489	13920.56
630.683	14149.93
630.877	13740.33
631.071	13822.25
631.265	13912.36
631.459	13807.92
631.653	13543.73
631.848	13723.95
632.042	13590.83
632.236	13422.9
632.43	13250.87
632.624	13250.87
632.818	13259.06
633.012	12966.2
633.206	13001.02
633.4	13211.96
633.594	12984.63
633.788	12970.3
633.982	13056.31
634.176	12753.21
634.369	12810.56
634.563	12683.58
634.757	12511.55
634.951	12550.46
635.145	12390.72
635.339	12491.07
635.533	12167.49
635.726	12394.82
635.92	12132.68
636.114	12114.25
636.308	12034.38
636.501	12147.01
636.695	11995.46
636.889	11784.52
637.083	12036.42
637.276	11950.41
637.47	11895.11
637.664	11802.96
637.857	11778.38
638.051	11675.98
638.244	11495.76
638.438	11344.21
638.632	11442.51
638.825	11272.53
639.019	11209.04
639.212	11032.92
639.406	11188.57
639.599	11108.69
639.793	11159.89
639.986	10813.79
640.18	10832.22
640.373	10905.95
640.567	10844.51
640.76	10811.74
640.954	10606.94
641.147	10568.03
641.34	10555.74
641.534	10330.47
641.727	10287.46
641.92	10467.68
642.114	10492.26
642.307	10543.46
642.5	10330.47
642.694	10191.2
642.887	10135.91
643.08	10166.63
643.273	10099.05
643.467	9918.82
643.66	9851.24
643.853	9724.27
644.046	9718.12
644.239	9716.08
644.432	9599.34
644.626	9611.63
644.819	9648.49
645.012	9607.53
645.205	9681.26
645.398	9290.1
645.591	9292.15
645.784	9183.6
645.977	9066.87
646.17	9355.63
646.363	9165.17
646.556	9034.1
646.749	9187.7
646.942	9173.36
647.135	8960.38
647.328	8833.4
647.521	8794.49
647.714	8751.48
647.907	8710.52
648.099	8843.64
648.292	8802.68
648.485	8706.43
648.678	8747.39
648.871	8386.94
649.064	8520.06
649.256	8528.25
649.449	8626.56
649.642	8466.81
649.835	8296.83
650.027	8362.37
650.22	8264.07
650.413	8188.29
650.605	8200.58
650.798	8124.8
650.991	8143.24
651.183	8202.63
651.376	7971.21
651.568	8026.5
651.761	7944.58
651.954	7883.14
652.146	7788.94
652.339	7963.01
652.531	7969.16
652.724	7580.04
652.916	7641.48
653.109	7668.11
653.301	7498.13
653.494	7647.63
653.686	7543.18
653.879	7586.19
654.071	7373.2
654.263	7381.39
654.456	7516.56
654.648	7483.79
654.84	7149.97
655.033	7324.05
655.225	7397.78
655.417	7078.29
655.61	7135.64
655.802	7235.99
655.994	7182.74
656.186	7088.53
656.379	7174.55
656.571	7055.76
656.763	7047.57
656.955	7043.48
657.148	6922.65
657.34	6914.45
657.532	6742.43
657.724	6769.05
657.916	6707.61
658.108	6775.19
658.3	6726.04
658.492	6781.34
658.684	6592.92
658.876	6566.3
659.068	6470.05
659.26	6441.37
659.452	6617.5
659.644	6594.97
659.836	6420.89
660.028	6400.41
660.22	6330.78
660.412	6404.51
660.604	6318.5
660.796	6318.5
660.988	6433.18
661.18	6140.32
661.372	6203.81
661.563	6236.58
661.755	6140.32
661.947	6080.93
662.139	6144.42
662.331	6046.12
662.522	5865.89
662.714	5972.39
662.906	5933.48
663.097	5966.24
663.289	5681.58
663.481	5847.46
663.673	5915.05
663.864	5826.98
664.056	5771.69
664.247	5792.17
664.439	5867.94
664.631	5757.35
664.822	5732.78
665.014	5695.91
665.205	5722.54
665.397	5513.64
665.588	5401.01
665.78	5534.12
665.971	5417.39
666.163	5622.19
666.354	5462.44
666.546	5448.11
666.737	5403.05
666.929	5505.45
667.12	5411.25
667.311	5507.5
667.503	5290.42
667.694	5190.06
667.885	5267.89
668.077	5382.57
668.268	5298.61
668.459	5136.82
668.651	5167.54
668.842	5190.06
669.033	5069.23
669.224	5083.57
669.416	5198.26
669.607	5177.78
669.798	5071.28
669.989	5015.99
670.18	5013.94
670.371	5005.75
670.563	4884.92
670.754	4938.16
670.945	4950.45
671.136	5024.18
671.327	4827.57
671.518	5038.52
671.709	4835.77
671.9	4856.25
672.091	4856.25
672.282	4794.81
672.473	4829.62
672.664	4856.25
672.855	4796.85
673.046	4819.38
673.237	4757.94
673.428	4686.26
673.619	4626.87
673.809	4819.38
674	4614.59
674.191	4663.74
674.382	4559.29
674.573	4606.39
674.764	4555.19
674.954	4594.11
675.145	4581.82
675.336	4630.97
675.527	4600.25
675.717	4538.81
675.908	4626.87
676.099	4471.23
676.289	4563.39
676.48	4448.7
676.671	4538.81
676.861	4594.11
677.052	4553.15
677.243	4323.77
677.433	4504
677.624	4495.8
677.814	4448.7
678.005	4532.67
678.195	4438.46
678.386	4377.02
678.576	4268.48
678.767	4471.23
678.957	4366.78
679.148	4415.93
679.338	4327.87
679.529	4436.41
679.719	4313.53
679.909	4295.1
680.1	4307.39
680.29	4321.73
680.481	4381.12
680.671	4323.77
680.861	4276.67
681.052	4336.06
681.242	4248
681.432	4331.97
681.622	4137.41
681.813	4317.63
682.003	4192.7
682.193	4030.91
682.383	4299.2
682.573	4149.7
682.764	4147.65
682.954	4159.94
683.144	4211.14
683.334	4014.53
683.524	4133.31
683.714	4213.18
683.904	4047.3
684.094	4032.96
684.284	4192.7
684.474	4235.71
684.664	3940.8
684.854	4057.54
685.044	4055.49
685.234	4028.87
685.424	4086.21
685.614	3942.85
685.804	4053.44
685.994	3957.19
686.184	4014.53
686.374	4075.97
686.564	4049.35
686.753	4000.19
686.943	3844.55
687.133	3949
687.323	3901.89
687.513	3895.75
687.702	3889.6
687.892	3811.78
688.082	3748.29
688.272	3738.05
688.461	3772.87
688.651	3733.96
688.841	3709.38
689.03	3721.67
689.22	3697.1
689.41	3729.86
689.599	3709.38
689.789	3649.99
689.979	3805.64
690.168	3568.07
690.358	3623.37
690.547	3672.52
690.737	3711.43
690.926	3566.03
691.116	3500.49
691.305	3627.46
691.495	3547.59
691.684	3527.11
691.874	3572.17
692.063	3580.36
692.252	3377.61
692.442	3445.2
692.631	3506.63
692.82	3457.48
693.01	3373.52
693.199	3307.98
693.388	3332.56
693.578	3394
693.767	3250.64
693.956	3359.18
694.146	3283.41
694.335	3394
694.524	3310.03
694.713	3236.3
694.902	3348.94
695.092	3344.84
695.281	3185.1
695.47	3307.98
695.659	3305.93
695.848	3209.68
696.037	3267.02
696.226	3185.1
696.415	3301.84
696.604	3326.41
696.793	3209.68
696.982	3088.85
697.171	3129.81
697.36	3138
697.549	3160.53
697.738	3060.18
697.927	3058.13
698.116	3162.58
698.305	3054.03
698.494	3211.73
698.683	3094.99
698.872	3135.95
699.061	3054.03
699.25	3066.32
699.438	3015.12
699.627	3015.12
699.816	3146.19
700.005	3064.27
700.193	3105.23
700.382	3117.52
700.571	3006.93
700.76	2949.59
700.948	2929.11
701.137	2990.55
701.326	2998.74
701.514	2992.59
701.703	3025.36
701.892	2888.15
702.08	3027.41
702.269	2947.54
702.457	3033.55
702.646	2974.16
702.834	2900.44
703.023	2925.01
703.212	2939.35
703.4	2955.73
703.589	2808.28
703.777	3013.07
703.965	2859.48
704.154	2939.35
704.342	2810.33
704.531	2886.1
704.719	2941.4
704.907	3002.83
705.096	2820.56
705.284	2834.9
705.472	2906.58
705.661	2957.78
705.849	2941.4
706.037	2922.96
706.226	2857.43
706.414	2857.43
706.602	2849.24
706.79	2916.82
706.979	2791.89
707.167	2953.68
707.355	2816.47
707.543	2879.96
707.731	2892.24
707.919	2896.34
708.107	2685.4
708.296	2810.33
708.484	2841.04
708.672	2804.18
708.86	2834.9
709.048	2781.65
709.236	2679.26
709.424	2834.9
709.612	2777.56
709.8	2750.93
709.988	2812.37
710.176	2660.82
710.364	2709.97
710.551	2701.78
710.739	2759.13
710.927	2664.92
711.115	2640.34
711.303	2777.56
711.491	2714.07
711.679	2697.69
711.866	2769.37
712.054	2808.28
712.242	2783.7
712.43	2752.98
712.617	2802.13
712.805	2744.79
712.993	2775.51
713.181	2589.14
713.368	2703.83
713.556	2832.85
713.744	2693.59
713.931	2896.34
714.119	2652.63
714.306	2679.26
714.494	2677.21
714.682	2638.3
714.869	2664.92
715.057	2638.3
715.244	2578.9
715.432	2714.07
715.619	2636.25
715.807	2626.01
715.994	2738.65
716.182	2687.45
716.369	2666.97
716.556	2759.13
716.744	2714.07
716.931	2531.8
717.119	2759.13
717.306	2697.69
717.493	2755.03
717.681	2742.74
717.868	2628.06
718.055	2611.67
718.242	2677.21
718.43	2613.72
718.617	2623.96
718.804	2597.34
718.991	2599.38
719.179	2677.21
719.366	2519.51
719.553	2529.75
719.74	2566.62
719.927	2583
720.114	2513.37
720.301	2480.6
720.488	2572.76
720.676	2490.84
720.863	2654.68
721.05	2660.82
721.237	2593.24
721.424	2396.64
721.611	2595.29
721.798	2472.41
721.985	2466.27
722.172	2519.51
722.358	2533.85
722.545	2570.71
722.732	2425.31
722.919	2628.06
723.106	2611.67
723.293	2486.75
723.48	2523.61
723.667	2560.47
723.853	2423.26
724.04	2607.58
724.227	2513.37
724.414	2386.4
724.6	2496.99
724.787	2437.59
724.974	2513.37
725.161	2539.99
725.347	2529.75
725.534	2445.79
725.72	2499.03
725.907	2501.08
726.094	2554.33
726.28	2333.15
726.467	2517.47
726.653	2394.59
726.84	2517.47
727.027	2572.76
727.213	2431.45
727.4	2462.17
727.586	2431.45
727.773	2402.78
727.959	2423.26
728.145	2546.14
728.332	2396.64
728.518	2507.23
728.705	2478.55
728.891	2562.52
729.077	2355.68
729.264	2427.35
729.45	2515.42
729.636	2548.19
729.823	2380.25
730.009	2529.75
730.195	2400.73
730.382	2425.31
730.568	2374.11
730.754	2318.81
730.94	2513.37
731.126	2365.92
731.313	2376.16
731.499	2318.81
731.685	2341.34
731.871	2472.41
732.057	2402.78
732.243	2437.59
732.429	2353.63
732.615	2318.81
732.801	2318.81
732.987	2376.16
733.173	2294.24
733.359	2261.47
733.545	2365.92
733.731	2335.2
733.917	2398.68
734.103	2443.74
734.289	2394.59
734.475	2290.14
734.661	2390.49
734.847	2392.54
735.033	2300.38
735.219	2417.12
735.404	2292.19
735.59	2318.81
735.776	2333.15
735.962	2372.06
736.148	2374.11
736.333	2267.61
736.519	2310.62
736.705	2204.13
736.89	2308.57
737.076	2337.24
737.262	2247.13
737.447	2169.31
737.633	2279.9
737.819	2269.66
738.004	2308.57
738.19	2327
738.375	2345.44
738.561	2292.19
738.747	2251.23
738.932	2292.19
739.118	2349.53
739.303	2124.26
739.489	2193.89
739.674	2222.56
739.859	2236.89
740.045	2351.58
740.23	2179.55
740.416	2212.32
740.601	2208.22
740.786	2146.78
740.972	2058.72
741.157	2140.64
741.342	2062.82
741.528	2128.35
741.713	2191.84
741.898	2091.49
742.084	2163.17
742.269	2105.82
742.454	2081.25
742.639	2138.59
742.824	2099.68
743.01	2075.1
743.195	2079.2
743.38	2089.44
743.565	2042.34
743.75	2167.26
743.935	1987.04
744.12	2097.63
744.305	2023.91
744.49	2001.38
744.675	1993.19
744.86	1939.94
745.045	2048.48
745.23	2007.52
745.415	2083.3
745.6	1925.6
745.785	1960.42
745.97	1960.42
746.155	1923.55
746.34	1933.79
746.525	1903.07
746.71	1866.21
746.895	1907.17
747.079	1941.99
747.264	1884.64
747.449	1898.98
747.634	1890.79
747.819	1825.25
748.003	1753.57
748.188	1837.54
748.373	1849.83
748.557	1823.2
748.742	1763.81
748.927	1808.87
749.111	1806.82
749.296	1841.64
749.481	1767.91
749.665	1720.81
749.85	1718.76
750.034	1755.62
750.219	1669.61
750.404	1690.09
750.588	1681.89
750.773	1624.55
750.957	1769.96
751.141	1636.84
751.326	1640.93
751.51	1649.13
751.695	1638.89
751.879	1597.93
752.064	1692.13
752.248	1624.55
752.432	1565.16
752.617	1579.5
752.801	1628.65
752.985	1520.1
753.17	1526.25
753.354	1468.91
753.538	1493.48
753.722	1493.48
753.907	1522.15
754.091	1423.85
754.275	1464.81
754.459	1546.73
754.643	1501.67
754.828	1473
755.012	1407.47
755.196	1374.7
755.38	1399.27
755.564	1403.37
755.748	1288.68
755.932	1452.52
756.116	1382.89
756.3	1358.32
756.484	1366.51
756.668	1321.45
756.852	1350.12
757.036	1270.25
757.22	1276.4
757.404	1253.87
757.588	1292.78
757.772	1206.77
757.956	1325.55
758.14	1331.69
758.323	1188.33
758.507	1206.77
758.691	1186.29
758.875	1149.42
759.059	1210.86
759.242	1151.47
759.426	1235.44
759.61	1198.57
759.794	1206.77
759.977	1174
760.161	1188.33
760.345	1118.7
760.528	1153.52
760.712	1112.56
760.895	1202.67
761.079	1202.67
761.263	1135.09
761.446	1106.42
761.63	1128.94
761.813	1014.26
761.997	1161.71
762.18	973.3
762.364	1108.46
762.547	1044.98
762.731	1073.65
762.914	1038.83
763.098	993.78
763.281	1012.21
763.464	1040.88
763.648	1057.26
763.831	1016.3
764.015	1034.74
764.198	1126.89
764.381	993.78
764.564	961.01
764.748	991.73
764.931	1055.22
765.114	942.58
765.297	1038.83
765.481	944.63
765.664	932.34
765.847	981.49
766.03	1014.26
766.213	934.39
766.397	971.25
766.58	956.91
766.763	874.99
766.946	1040.88
767.129	944.63
767.312	821.75
767.495	985.58
767.678	942.58
767.861	891.38
768.044	985.58
768.227	866.8
768.41	948.72
768.593	956.91
768.776	934.39
768.959	942.58
769.142	981.49
769.324	901.62
769.507	932.34
769.69	844.28
769.873	850.42
770.056	948.72
770.239	915.95
770.421	930.29
770.604	809.46
770.787	827.89
770.97	799.22
771.152	817.65
771.335	895.47
771.518	793.08
771.7	885.23
771.883	817.65
772.066	866.8
772.248	930.29
772.431	887.28
772.613	821.75
772.796	797.17
772.978	868.85
773.161	817.65
773.343	811.51
773.526	813.56
773.708	788.98
773.891	705.01
774.073	735.73
774.256	715.25
774.438	846.32
774.621	711.16
774.803	725.49
774.985	635.38
775.168	727.54
775.35	713.21
775.532	766.45
775.715	668.15
775.897	696.82
776.079	682.49
776.261	719.35
776.444	616.95
776.626	719.35
776.808	664.05
776.99	649.72
777.173	686.58
777.355	631.29
777.537	705.01
777.719	651.77
777.901	690.68
778.083	670.2
778.265	559.61
778.447	707.06
778.629	608.76
778.811	571.9
778.993	625.14
779.175	582.14
779.357	571.9
779.539	539.13
779.721	571.9
779.903	557.56
780.085	655.86
780.267	547.32
780.449	625.14
780.631	541.18
780.812	586.23
780.994	530.94
781.176	571.9
781.358	567.8
781.54	473.59
781.721	555.51
781.903	547.32
782.085	518.65
782.267	514.55
782.448	528.89
782.63	498.17
782.812	543.22
782.993	573.94
783.175	559.61
783.357	530.94
783.538	492.02
783.72	489.98
783.901	637.43
784.083	508.41
784.264	514.55
784.446	469.5
784.627	391.67
784.809	481.78
784.99	469.5
785.172	440.83
785.353	434.68
785.535	385.53
785.716	524.79
785.897	416.25
786.079	391.67
786.26	428.54
786.441	449.02
786.623	408.06
786.804	465.4
786.985	451.07
787.167	428.54
787.348	387.58
787.529	412.15
787.71	446.97
787.891	442.87
788.073	383.48
788.254	379.39
788.435	416.25
788.616	401.91
788.797	309.76
788.978	403.96
789.159	379.39
789.34	401.91
789.522	377.34
789.703	422.39
789.884	494.07
790.065	336.38
790.246	344.57
790.427	399.87
790.607	385.53
790.788	350.71
790.969	367.1
791.15	344.57
791.331	309.76
791.512	311.8
791.693	260.6
791.874	326.14
792.054	363
792.235	324.09
792.416	326.14
792.597	367.1
792.778	399.87
792.958	330.23
793.139	281.08
793.32	309.76
793.5	322.04
793.681	363
793.862	297.47
794.042	383.48
794.223	242.17
794.404	305.66
794.584	262.65
794.765	322.04
794.945	274.94
795.126	344.57
795.306	330.23
795.487	301.56
795.667	236.03
795.848	326.14
796.028	270.84
796.209	320
796.389	291.32
796.57	346.62
796.75	250.36
796.93	293.37
797.111	285.18
797.291	317.95
797.471	287.23
797.652	305.66
797.832	254.46
798.012	350.71
798.192	240.12
798.373	174.59
798.553	272.89
798.733	256.51
798.913	219.64
799.093	295.42
799.274	309.76
799.454	213.5
799.634	303.61
799.814	293.37
799.994	211.45
800.174	209.4
800.354	236.03
800.534	285.18
800.714	252.41
800.894	205.31
801.074	223.74
801.254	205.31
801.434	225.79
801.614	186.88
801.794	285.18
801.974	801.27
802.154	176.64
802.334	268.8
802.514	244.22
802.693	227.84
802.873	199.16
803.053	248.32
803.233	244.22
803.413	264.7
803.592	186.88
803.772	229.88
803.952	186.88
804.131	205.31
804.311	270.84
804.491	211.45
804.67	162.3
804.85	231.93
805.03	270.84
805.209	285.18
805.389	150.01
805.568	207.36
805.748	338.43
805.928	203.26
806.107	242.17
806.287	186.88
806.466	215.55
806.646	162.3
806.825	96.77
807.004	182.78
807.184	129.53
807.363	207.36
807.543	145.92
807.722	178.69
807.901	184.83
808.081	186.88
808.26	113.15
808.439	195.07
808.619	209.4
808.798	158.21
808.977	184.83
809.156	158.21
809.336	166.4
809.515	143.87
809.694	203.26
809.873	162.3
810.052	240.12
810.231	227.84
810.411	178.69
810.59	199.16
810.769	207.36
810.948	209.4
811.127	174.59
811.306	186.88
811.485	195.07
811.664	145.92
811.843	150.01
812.022	80.38
812.201	131.58
812.38	115.2
812.559	154.11
812.737	66.05
812.916	109.05
813.095	174.59
813.274	186.88
813.453	117.25
813.632	102.91
813.811	180.73
813.989	125.44
814.168	131.58
814.347	139.77
814.526	195.07
814.704	164.35
814.883	174.59
815.062	154.11
815.24	170.49
815.419	276.99
815.598	211.45
815.776	164.35
815.955	223.74
816.133	197.12
816.312	96.77
816.49	123.39
816.669	80.38
816.847	211.45
817.026	221.69
817.204	156.16
817.383	166.4
817.561	174.59
817.74	227.84
817.918	104.96
818.097	121.34
818.275	141.82
818.453	143.87
818.632	147.97
818.81	182.78
818.988	74.24
819.167	156.16
819.345	104.96
819.523	158.21
819.701	156.16
819.879	125.44
820.058	113.15
820.236	119.29
820.414	137.73
820.592	145.92
820.77	66.05
820.948	121.34
821.127	168.45
821.305	190.97
821.483	88.57
821.661	125.44
821.839	88.57
822.017	-1.54
822.195	145.92
822.373	137.73
822.551	180.73
822.729	186.88
822.907	178.69
823.085	123.39
823.262	141.82
823.44	90.62
823.618	125.44
823.796	96.77
823.974	121.34
824.152	76.29
824.329	154.11
824.507	90.62
824.685	33.28
824.863	143.87
825.04	82.43
825.218	141.82
825.396	129.53
825.574	172.54
825.751	98.81
825.929	55.81
826.107	104.96
826.284	113.15
826.462	133.63
826.639	131.58
826.817	115.2
826.994	125.44
827.172	25.09
827.349	129.53
827.527	168.45
827.704	104.96
827.882	186.88
828.059	20.99
828.237	104.96
828.414	90.62
828.591	0.51
828.769	131.58
828.946	76.29
829.124	82.43
829.301	137.73
829.478	74.24
829.655	180.73
829.833	150.01
830.01	74.24
830.187	115.2
830.364	115.2
830.542	43.52
830.719	195.07
830.896	88.57
831.073	215.55
831.25	121.34
831.427	23.04
831.604	74.24
831.782	82.43
831.959	59.9
832.136	70.14
832.313	-17.92
832.49	117.25
832.667	111.1
832.844	172.54
833.021	164.35
833.198	68.09
833.374	129.53
833.551	35.33
833.728	68.09
833.905	98.81
834.082	61.95
834.259	88.57
834.436	193.02
834.612	88.57
834.789	31.23
834.966	64
835.143	98.81
835.319	55.81
835.496	125.44
835.673	18.94
835.85	139.77
836.026	57.86
836.203	88.57
836.38	33.28
836.556	4.61
836.733	119.29
836.909	59.9
837.086	74.24
837.262	84.48
837.439	123.39
837.616	68.09
837.792	115.2
837.968	76.29
838.145	16.9
838.321	59.9
838.498	80.38
838.674	90.62
838.851	104.96
839.027	53.76
839.203	96.77
839.38	104.96
839.556	14.85
839.732	92.67
839.909	47.62
840.085	96.77
840.261	80.38
840.437	80.38
840.614	57.86
840.79	145.92
840.966	90.62
841.142	88.57
841.318	10.75
841.494	35.33
841.671	123.39
841.847	57.86
842.023	8.7
842.199	47.62
842.375	51.71
842.551	96.77
842.727	64
842.903	55.81
843.079	92.67
843.255	92.67
843.431	64
843.607	35.33
843.783	47.62
843.959	84.48
844.134	55.81
844.31	82.43
844.486	27.14
844.662	107.01
844.838	59.9
845.013	80.38
845.189	18.94
845.365	16.9
845.541	104.96
845.716	80.38
845.892	98.81
846.068	90.62
846.244	53.76
846.419	35.33
846.595	59.9
846.77	72.19
846.946	88.57
847.122	68.09
847.297	47.62
847.473	88.57
847.648	39.42
847.824	96.77
847.999	51.71
848.175	66.05
848.35	107.01
848.526	104.96
848.701	23.04
848.876	41.47
849.052	16.9
849.227	8.7
849.403	53.76
849.578	-22.02
849.753	107.01
849.929	72.19
850.104	53.76
850.279	57.86
850.454	-1.54
850.63	33.28
850.805	64
850.98	25.09
851.155	33.28
851.33	72.19
851.505	23.04
851.681	113.15
851.856	6.66
852.031	113.15
852.206	98.81
852.381	104.96
852.556	55.81
852.731	98.81
852.906	-9.73
853.081	25.09
853.256	39.42
853.431	14.85
853.606	-1.54
853.781	55.81
853.956	72.19
854.131	-26.11
854.305	-40.45
854.48	16.9
854.655	14.85
854.83	78.33
855.005	-9.73
855.18	55.81
855.354	51.71
855.529	64
855.704	25.09
855.879	31.23
856.053	43.52
856.228	123.39
856.403	45.57
856.577	33.28
856.752	-67.07
856.926	-99.84
857.101	45.57
857.276	47.62
857.45	98.81
857.625	90.62
857.799	57.86
857.974	68.09
858.148	-17.92
858.323	-1.54
858.497	35.33
858.672	37.38
858.846	10.75
859.02	23.04
859.195	6.66
859.369	-9.73
859.543	57.86
859.718	27.14
859.892	37.38
860.066	-32.26
860.241	39.42
860.415	98.81
860.589	14.85
860.763	39.42
860.938	64
861.112	18.94
861.286	45.57
861.46	72.19
861.634	14.85
861.808	59.9
861.982	16.9
862.157	8.7
862.331	53.76
862.505	55.81
862.679	-42.5
862.853	43.52
863.027	4.61
863.201	43.52
863.375	59.9
863.549	80.38
863.722	135.68
863.896	133.63
864.07	18.94
864.244	-34.3
864.418	18.94
864.592	47.62
864.766	-22.02
864.939	47.62
865.113	39.42
865.287	-22.02
865.461	12.8
865.634	59.9
865.808	25.09
865.982	-1.54
866.156	20.99
866.329	-32.26
866.503	8.7
866.676	109.05
866.85	55.81
867.024	-24.06
867.197	-42.5
867.371	66.05
867.544	121.34
867.718	0.51
867.891	80.38
868.065	29.18
868.238	16.9
868.412	113.15
868.585	20.99
868.759	121.34
868.932	-1.54
869.105	66.05
869.279	-19.97
869.452	-17.92
869.625	61.95
869.799	51.71
869.972	23.04
870.145	31.23
870.319	55.81
870.492	25.09
870.665	-30.21
870.838	-1.54
871.011	-22.02
871.185	10.75
871.358	12.8
871.531	-26.11
871.704	-5.63
871.877	-1.54
872.05	-7.68
872.223	-15.87
872.396	78.33
872.569	39.42
872.742	-46.59
872.915	68.09
873.088	66.05
873.261	39.42
873.434	39.42
873.607	31.23
873.78	64
873.953	72.19
874.126	-1.54
874.299	6.66
874.471	-24.06
874.644	66.05
874.817	25.09
874.99	31.23
875.163	57.86
875.335	6.66
875.508	-40.45
875.681	16.9
875.853	-32.26
876.026	74.24
876.199	16.9
876.371	66.05
876.544	68.09
876.717	66.05
876.889	-13.82
877.062	6.66
877.234	-44.54
877.407	23.04
877.579	31.23
877.752	-5.63
877.924	27.14
878.097	37.38
878.269	14.85
878.442	-3.58
878.614	-1.54
878.786	-26.11
878.959	14.85
879.131	23.04
879.303	35.33
879.476	47.62
879.648	-17.92
879.82	0.51
879.993	39.42
880.165	27.14
880.337	-15.87
880.509	35.33
880.681	-7.68
880.854	6.66
881.026	78.33
881.198	47.62
881.37	-54.78
881.542	55.81
881.714	6.66
881.886	31.23
882.058	6.66
882.23	-7.68
882.402	-26.11
882.574	27.14
882.746	104.96
882.918	72.19
883.09	25.09
883.262	31.23
883.434	18.94
883.606	-19.97
883.778	14.85
883.95	61.95
884.122	-3.58
884.293	66.05
884.465	39.42
884.637	96.77
884.809	-1.54
884.98	51.71
885.152	39.42
885.324	92.67
885.496	61.95
885.667	39.42
885.839	80.38
886.011	82.43
886.182	70.14
886.354	27.14
886.525	-11.78
886.697	-26.11
886.869	8.7
887.04	92.67
887.212	-38.4
887.383	80.38
887.555	-9.73
887.726	39.42
887.897	-22.02
888.069	41.47
888.24	6.66
888.412	74.24
888.583	-22.02
888.754	6.66
888.926	-46.59
889.097	31.23
889.268	-42.5
889.44	29.18
889.611	-19.97
889.782	74.24
889.953	41.47
890.125	162.3
890.296	78.33
890.467	-28.16
890.638	0.51
890.809	-1.54
890.98	39.42
891.151	29.18
891.323	57.86
891.494	18.94
891.665	2.56
891.836	-7.68
892.007	-34.3
892.178	51.71
892.349	-13.82
892.52	-36.35
892.691	-9.73
892.862	23.04
893.032	16.9
893.203	29.18
893.374	55.81
893.545	10.75
893.716	-36.35
893.887	72.19
894.057	-3.58
894.228	33.28
894.399	10.75
894.57	6.66
894.74	31.23
894.911	-48.64
895.082	-50.69
895.253	64
895.423	35.33
895.594	6.66
895.764	-13.82
895.935	-5.63
896.106	-36.35
896.276	33.28
896.447	78.33
896.617	-97.79
896.788	25.09
896.958	-22.02
897.129	14.85
897.299	-17.92
897.47	6.66
897.64	10.75
897.81	-17.92
897.981	72.19
898.151	-65.02
898.322	23.04
898.492	51.71
898.662	66.05
898.832	37.38
899.003	31.23
899.173	12.8
899.343	37.38
899.513	8.7
