Data from USB4F104151__239__14-22-16-048.txt Node

Date: Thu Mar 13 14:22:16 EDT 2025
User: louis
Spectrometer: USB4F10415
Trigger mode: 4
Integration Time (sec): 2.000000E-2
Scans to average: 1
Electric dark correction enabled: true
Nonlinearity correction enabled: false
Boxcar width: 0
XAxis mode: Wavelengths
Number of Pixels in Spectrum: 3648
>>>>>Begin Spectral Data<<<<<
178.204	-132.78
178.424	-132.78
178.644	-132.78
178.864	-143.02
179.084	-134.82
179.304	-22.19
179.524	-5.8
179.744	41.3
179.964	-22.19
180.184	-11.95
180.404	6.49
180.624	4.44
180.844	65.88
181.064	-24.23
181.283	41.3
181.503	-91.82
181.723	18.77
181.943	-71.34
182.163	35.16
182.383	-26.28
182.602	31.06
182.822	31.06
183.042	-5.8
183.262	-32.43
183.482	-30.38
183.701	29.01
183.921	-28.33
184.141	76.12
184.361	131.41
184.58	6.49
184.8	-42.67
185.02	2.39
185.239	18.77
185.459	-3.75
185.679	-5.8
185.898	-61.1
186.118	22.87
186.338	-20.14
186.557	63.83
186.777	-81.58
186.997	14.68
187.216	49.49
187.436	47.44
187.655	-13.99
187.875	47.44
188.095	-61.1
188.314	-9.9
188.534	12.63
188.753	82.26
188.973	90.45
189.192	-22.19
189.412	-9.9
189.631	-11.95
189.851	39.25
190.07	55.64
190.29	18.77
190.509	55.64
190.729	14.68
190.948	69.97
191.168	112.98
191.387	39.25
191.607	-16.04
191.826	6.49
192.045	-9.9
192.265	-71.34
192.484	-1.71
192.704	0.34
192.923	-22.19
193.142	112.98
193.362	47.44
193.581	49.49
193.8	-13.99
194.02	67.92
194.239	76.12
194.458	63.83
194.678	-1.71
194.897	-11.95
195.116	76.12
195.335	22.87
195.555	18.77
195.774	26.96
195.993	8.53
196.212	65.88
196.432	10.58
196.651	39.25
196.87	67.92
197.089	84.31
197.308	84.31
197.528	26.96
197.747	-132.78
197.966	59.73
198.185	96.6
198.404	-1.71
198.623	6.49
198.842	-38.57
199.062	24.92
199.281	20.82
199.5	29.01
199.719	43.35
199.938	76.12
200.157	2.39
200.376	74.07
200.595	74.07
200.814	33.11
201.033	55.64
201.252	20.82
201.471	16.73
201.69	2.39
201.909	33.11
202.128	112.98
202.347	-1.71
202.566	-59.05
202.785	-50.86
203.004	-42.67
203.223	98.64
203.442	18.77
203.661	33.11
203.879	39.25
204.098	72.02
204.317	106.84
204.536	72.02
204.755	57.68
204.974	-44.71
205.193	26.96
205.411	117.08
205.63	-11.95
205.849	39.25
206.068	63.83
206.287	-18.09
206.505	-5.8
206.724	6.49
206.943	-3.75
207.162	12.63
207.381	26.96
207.599	0.34
207.818	-18.09
208.037	53.59
208.255	-50.86
208.474	74.07
208.693	57.68
208.911	6.49
209.13	12.63
209.349	24.92
209.567	49.49
209.786	63.83
210.005	0.34
210.223	24.92
210.442	-1.71
210.661	51.54
210.879	88.4
211.098	43.35
211.316	76.12
211.535	22.87
211.753	-34.47
211.972	92.5
212.191	-16.04
212.409	67.92
212.628	51.54
212.846	-18.09
213.065	-3.75
213.283	10.58
213.502	4.44
213.72	41.3
213.938	-11.95
214.157	-3.75
214.375	-9.9
214.594	41.3
214.812	-16.04
215.031	24.92
215.249	37.2
215.467	-16.04
215.686	80.21
215.904	53.59
216.122	31.06
216.341	51.54
216.559	-120.49
216.778	47.44
216.996	-7.85
217.214	53.59
217.432	-57
217.651	0.34
217.869	-5.8
218.087	63.83
218.306	12.63
218.524	51.54
218.742	10.58
218.96	49.49
219.179	22.87
219.397	16.73
219.615	33.11
219.833	22.87
220.051	6.49
220.27	2.39
220.488	67.92
220.706	55.64
220.924	39.25
221.142	61.78
221.36	18.77
221.578	-5.8
221.796	69.97
222.015	63.83
222.233	49.49
222.451	47.44
222.669	74.07
222.887	74.07
223.105	10.58
223.323	90.45
223.541	47.44
223.759	119.12
223.977	-50.86
224.195	100.69
224.413	-1.71
224.631	-22.19
224.849	-54.95
225.067	33.11
225.285	-40.62
225.503	-26.28
225.721	-26.28
225.939	76.12
226.157	16.73
226.375	112.98
226.592	8.53
226.81	100.69
227.028	33.11
227.246	57.68
227.464	104.79
227.682	39.25
227.9	20.82
228.117	80.21
228.335	88.4
228.553	57.68
228.771	24.92
228.989	31.06
229.206	16.73
229.424	-42.67
229.642	-24.23
229.86	4.44
230.077	-5.8
230.295	37.2
230.513	6.49
230.731	84.31
230.948	-28.33
231.166	94.55
231.384	33.11
231.601	41.3
231.819	49.49
232.037	6.49
232.254	22.87
232.472	43.35
232.689	-7.85
232.907	76.12
233.125	-11.95
233.342	47.44
233.56	-34.47
233.777	39.25
233.995	80.21
234.213	80.21
234.43	90.45
234.648	-16.04
234.865	-1.71
235.083	8.53
235.3	57.68
235.518	-18.09
235.735	98.64
235.953	88.4
236.17	35.16
236.388	14.68
236.605	22.87
236.822	65.88
237.04	69.97
237.257	-28.33
237.475	10.58
237.692	76.12
237.909	59.73
238.127	-9.9
238.344	26.96
238.562	41.3
238.779	49.49
238.996	-5.8
239.214	63.83
239.431	26.96
239.648	49.49
239.865	-26.28
240.083	-1.71
240.3	65.88
240.517	-13.99
240.735	-24.23
240.952	80.21
241.169	-18.09
241.386	72.02
241.603	16.73
241.821	43.35
242.038	96.6
242.255	6.49
242.472	-16.04
242.689	39.25
242.907	86.36
243.124	14.68
243.341	-22.19
243.558	-26.28
243.775	35.16
243.992	-30.38
244.209	80.21
244.426	67.92
244.643	170.32
244.86	22.87
245.078	-1.71
245.295	41.3
245.512	57.68
245.729	6.49
245.946	63.83
246.163	80.21
246.38	57.68
246.597	2.39
246.814	2.39
247.031	22.87
247.248	51.54
247.464	29.01
247.681	-1.71
247.898	74.07
248.115	63.83
248.332	10.58
248.549	6.49
248.766	88.4
248.983	37.2
249.2	39.25
249.417	63.83
249.633	55.64
249.85	96.6
250.067	-26.28
250.284	8.53
250.501	55.64
250.717	31.06
250.934	43.35
251.151	22.87
251.368	31.06
251.585	57.68
251.801	16.73
252.018	-20.14
252.235	10.58
252.451	10.58
252.668	-54.95
252.885	35.16
253.102	47.44
253.318	-18.09
253.535	47.44
253.752	22.87
253.968	-40.62
254.185	22.87
254.401	-9.9
254.618	0.34
254.835	59.73
255.051	55.64
255.268	-9.9
255.484	72.02
255.701	-40.62
255.917	-5.8
256.134	33.11
256.351	33.11
256.567	-24.23
256.784	41.3
257	49.49
257.217	41.3
257.433	35.16
257.65	92.5
257.866	47.44
258.082	24.92
258.299	6.49
258.515	72.02
258.732	72.02
258.948	51.54
259.165	39.25
259.381	-7.85
259.597	59.73
259.814	45.4
260.03	10.58
260.246	96.6
260.463	76.12
260.679	110.93
260.895	41.3
261.112	33.11
261.328	31.06
261.544	31.06
261.761	96.6
261.977	80.21
262.193	65.88
262.409	74.07
262.626	4.44
262.842	6.49
263.058	14.68
263.274	78.16
263.49	72.02
263.707	63.83
263.923	20.82
264.139	2.39
264.355	53.59
264.571	82.26
264.787	41.3
265.004	98.64
265.22	-46.76
265.436	-50.86
265.652	-42.67
265.868	82.26
266.084	31.06
266.3	31.06
266.516	6.49
266.732	121.17
266.948	-34.47
267.164	41.3
267.38	-9.9
267.596	57.68
267.812	55.64
268.028	14.68
268.244	57.68
268.46	-34.47
268.676	41.3
268.892	-9.9
269.108	-24.23
269.324	18.77
269.54	-48.81
269.756	39.25
269.972	10.58
270.188	86.36
270.403	-32.43
270.619	88.4
270.835	31.06
271.051	10.58
271.267	6.49
271.483	47.44
271.698	43.35
271.914	6.49
272.13	65.88
272.346	55.64
272.562	33.11
272.777	33.11
272.993	55.64
273.209	22.87
273.425	-9.9
273.64	49.49
273.856	76.12
274.072	6.49
274.287	-73.39
274.503	33.11
274.719	74.07
274.934	33.11
275.15	-75.43
275.366	16.73
275.581	-36.52
275.797	-34.47
276.012	-26.28
276.228	90.45
276.444	121.17
276.659	2.39
276.875	12.63
277.09	55.64
277.306	92.5
277.521	10.58
277.737	0.34
277.952	82.26
278.168	-1.71
278.383	-24.23
278.599	-24.23
278.814	112.98
279.03	-9.9
279.245	129.36
279.461	39.25
279.676	82.26
279.892	20.82
280.107	10.58
280.322	31.06
280.538	110.93
280.753	92.5
280.969	22.87
281.184	80.21
281.399	-1.71
281.615	20.82
281.83	10.58
282.045	63.83
282.26	14.68
282.476	8.53
282.691	78.16
282.906	41.3
283.122	35.16
283.337	6.49
283.552	92.5
283.767	37.2
283.983	59.73
284.198	39.25
284.413	10.58
284.628	45.4
284.843	16.73
285.058	55.64
285.274	2.39
285.489	67.92
285.704	14.68
285.919	86.36
286.134	47.44
286.349	-48.81
286.564	-5.8
286.779	51.54
286.995	24.92
287.21	10.58
287.425	72.02
287.64	-11.95
287.855	112.98
288.07	-26.28
288.285	14.68
288.5	61.78
288.715	10.58
288.93	-22.19
289.145	121.17
289.36	90.45
289.575	-11.95
289.79	84.31
290.004	31.06
290.219	33.11
290.434	51.54
290.649	-18.09
290.864	35.16
291.079	-28.33
291.294	72.02
291.509	51.54
291.724	102.74
291.938	100.69
292.153	22.87
292.368	31.06
292.583	29.01
292.798	47.44
293.012	6.49
293.227	63.83
293.442	18.77
293.657	88.4
293.871	133.46
294.086	51.54
294.301	98.64
294.516	86.36
294.73	4.44
294.945	-3.75
295.16	29.01
295.374	74.07
295.589	102.74
295.804	-18.09
296.018	-57
296.233	59.73
296.447	43.35
296.662	-40.62
296.877	49.49
297.091	45.4
297.306	31.06
297.52	14.68
297.735	-34.47
297.949	22.87
298.164	92.5
298.378	33.11
298.593	65.88
298.807	-1.71
299.022	123.22
299.236	33.11
299.451	61.78
299.665	0.34
299.88	-1.71
300.094	10.58
300.309	49.49
300.523	47.44
300.737	29.01
300.952	33.11
301.166	6.49
301.381	59.73
301.595	6.49
301.809	98.64
302.024	65.88
302.238	10.58
302.452	-26.28
302.667	55.64
302.881	98.64
303.095	31.06
303.309	26.96
303.524	59.73
303.738	2.39
303.952	22.87
304.166	37.2
304.381	-13.99
304.595	72.02
304.809	47.44
305.023	31.06
305.237	-5.8
305.452	112.98
305.666	110.93
305.88	90.45
306.094	43.35
306.308	117.08
306.522	-26.28
306.736	90.45
306.95	92.5
307.164	57.68
307.379	72.02
307.593	115.03
307.807	72.02
308.021	-7.85
308.235	39.25
308.449	8.53
308.663	94.55
308.877	92.5
309.091	47.44
309.305	108.88
309.519	26.96
309.733	67.92
309.947	-26.28
310.161	96.6
310.374	115.03
310.588	61.78
310.802	49.49
311.016	41.3
311.23	16.73
311.444	65.88
311.658	35.16
311.872	117.08
312.085	31.06
312.299	112.98
312.513	-57
312.727	31.06
312.941	55.64
313.154	53.59
313.368	47.44
313.582	100.69
313.796	14.68
314.009	88.4
314.223	88.4
314.437	43.35
314.651	45.4
314.864	26.96
315.078	-9.9
315.292	67.92
315.505	6.49
315.719	37.2
315.933	76.12
316.146	49.49
316.36	82.26
316.573	80.21
316.787	24.92
317.001	20.82
317.214	63.83
317.428	72.02
317.641	-32.43
317.855	0.34
318.068	37.2
318.282	92.5
318.495	49.49
318.709	69.97
318.922	90.45
319.136	123.22
319.349	100.69
319.563	55.64
319.776	31.06
319.99	49.49
320.203	98.64
320.417	16.73
320.63	125.27
320.843	18.77
321.057	33.11
321.27	-16.04
321.483	22.87
321.697	0.34
321.91	59.73
322.124	65.88
322.337	16.73
322.55	43.35
322.763	14.68
322.977	43.35
323.19	18.77
323.403	57.68
323.617	14.68
323.83	63.83
324.043	-11.95
324.256	90.45
324.469	4.44
324.683	-9.9
324.896	47.44
325.109	94.55
325.322	12.63
325.535	8.53
325.748	74.07
325.962	24.92
326.175	65.88
326.388	47.44
326.601	14.68
326.814	65.88
327.027	82.26
327.24	51.54
327.453	31.06
327.666	80.21
327.879	86.36
328.092	72.02
328.305	45.4
328.518	-9.9
328.731	-50.86
328.944	63.83
329.157	-9.9
329.37	82.26
329.583	211.28
329.796	57.68
330.009	53.59
330.222	59.73
330.435	65.88
330.648	72.02
330.861	22.87
331.073	47.44
331.286	24.92
331.499	47.44
331.712	6.49
331.925	-20.14
332.138	22.87
332.35	2.39
332.563	43.35
332.776	14.68
332.989	22.87
333.202	104.79
333.414	14.68
333.627	51.54
333.84	78.16
334.053	35.16
334.265	-16.04
334.478	18.77
334.691	55.64
334.903	-5.8
335.116	-16.04
335.329	88.4
335.541	47.44
335.754	8.53
335.966	102.74
336.179	76.12
336.392	45.4
336.604	49.49
336.817	41.3
337.029	16.73
337.242	43.35
337.454	145.75
337.667	-44.71
337.88	72.02
338.092	31.06
338.305	80.21
338.517	121.17
338.729	76.12
338.942	86.36
339.154	-1.71
339.367	88.4
339.579	63.83
339.792	63.83
340.004	123.22
340.217	-3.75
340.429	43.35
340.641	26.96
340.854	59.73
341.066	39.25
341.278	59.73
341.491	108.88
341.703	55.64
341.915	24.92
342.128	59.73
342.34	47.44
342.552	12.63
342.764	104.79
342.977	43.35
343.189	18.77
343.401	43.35
343.613	22.87
343.826	45.4
344.038	4.44
344.25	39.25
344.462	-57
344.674	139.6
344.886	86.36
345.099	31.06
345.311	80.21
345.523	55.64
345.735	-34.47
345.947	84.31
346.159	-7.85
346.371	55.64
346.583	45.4
346.795	39.25
347.007	88.4
347.219	63.83
347.431	8.53
347.643	82.26
347.855	63.83
348.067	131.41
348.279	14.68
348.491	35.16
348.703	69.97
348.915	20.82
349.127	33.11
349.339	35.16
349.551	29.01
349.763	117.08
349.975	-24.23
350.187	88.4
350.399	45.4
350.61	137.56
350.822	0.34
351.034	22.87
351.246	49.49
351.458	61.78
351.669	47.44
351.881	55.64
352.093	53.59
352.305	170.32
352.517	29.01
352.728	72.02
352.94	65.88
353.152	80.21
353.363	-26.28
353.575	31.06
353.787	121.17
353.999	143.7
354.21	129.36
354.422	-50.86
354.633	72.02
354.845	-3.75
355.057	41.3
355.268	117.08
355.48	92.5
355.692	6.49
355.903	67.92
356.115	20.82
356.326	47.44
356.538	51.54
356.749	43.35
356.961	104.79
357.172	74.07
357.384	49.49
357.595	90.45
357.807	61.78
358.018	0.34
358.23	57.68
358.441	129.36
358.653	80.21
358.864	57.68
359.075	90.45
359.287	76.12
359.498	41.3
359.709	43.35
359.921	78.16
360.132	65.88
360.344	55.64
360.555	-7.85
360.766	31.06
360.977	24.92
361.189	63.83
361.4	22.87
361.611	55.64
361.823	59.73
362.034	-9.9
362.245	-50.86
362.456	55.64
362.667	57.68
362.879	43.35
363.09	0.34
363.301	72.02
363.512	22.87
363.723	18.77
363.935	41.3
364.146	49.49
364.357	106.84
364.568	84.31
364.779	63.83
364.99	51.54
365.201	22.87
365.412	18.77
365.623	45.4
365.834	55.64
366.045	74.07
366.256	98.64
366.467	69.97
366.678	35.16
366.889	-9.9
367.1	121.17
367.311	59.73
367.522	10.58
367.733	33.11
367.944	137.56
368.155	63.83
368.366	74.07
368.577	67.92
368.788	55.64
368.999	16.73
369.209	76.12
369.42	188.75
369.631	29.01
369.842	80.21
370.053	82.26
370.264	104.79
370.474	35.16
370.685	57.68
370.896	72.02
371.107	90.45
371.317	94.55
371.528	14.68
371.739	57.68
371.95	33.11
372.16	84.31
372.371	86.36
372.582	63.83
372.792	139.6
373.003	55.64
373.214	94.55
373.424	63.83
373.635	29.01
373.846	190.8
374.056	47.44
374.267	39.25
374.477	117.08
374.688	90.45
374.898	45.4
375.109	43.35
375.319	92.5
375.53	131.41
375.74	55.64
375.951	0.34
376.161	0.34
376.372	84.31
376.582	12.63
376.793	96.6
377.003	18.77
377.214	76.12
377.424	155.99
377.635	53.59
377.845	39.25
378.055	90.45
378.266	20.82
378.476	59.73
378.686	65.88
378.897	123.22
379.107	106.84
379.317	41.3
379.528	33.11
379.738	147.8
379.948	-5.8
380.158	96.6
380.369	121.17
380.579	14.68
380.789	96.6
380.999	49.49
381.21	143.7
381.42	74.07
381.63	100.69
381.84	131.41
382.05	125.27
382.261	205.14
382.471	131.41
382.681	115.03
382.891	98.64
383.101	115.03
383.311	35.16
383.521	59.73
383.731	43.35
383.941	39.25
384.151	43.35
384.361	96.6
384.571	67.92
384.781	49.49
384.991	53.59
385.201	145.75
385.411	115.03
385.621	115.03
385.831	57.68
386.041	104.79
386.251	47.44
386.461	162.13
386.671	69.97
386.881	29.01
387.091	49.49
387.301	100.69
387.511	-1.71
387.72	110.93
387.93	65.88
388.14	78.16
388.35	22.87
388.56	137.56
388.769	49.49
388.979	65.88
389.189	8.53
389.399	14.68
389.609	61.78
389.818	90.45
390.028	2.39
390.238	115.03
390.447	41.3
390.657	92.5
390.867	53.59
391.076	80.21
391.286	47.44
391.496	153.94
391.705	33.11
391.915	106.84
392.125	112.98
392.334	59.73
392.544	104.79
392.753	55.64
392.963	61.78
393.172	141.65
393.382	80.21
393.591	115.03
393.801	104.79
394.01	98.64
394.22	47.44
394.429	72.02
394.639	82.26
394.848	112.98
395.058	80.21
395.267	100.69
395.477	80.21
395.686	76.12
395.895	108.88
396.105	164.18
396.314	135.51
396.524	104.79
396.733	102.74
396.942	125.27
397.152	96.6
397.361	98.64
397.57	121.17
397.78	51.54
397.989	176.47
398.198	149.84
398.407	112.98
398.617	108.88
398.826	149.84
399.035	104.79
399.244	221.52
399.453	137.56
399.663	84.31
399.872	108.88
400.081	127.32
400.29	137.56
400.499	129.36
400.708	192.85
400.917	158.03
401.127	108.88
401.336	141.65
401.545	227.67
401.754	239.95
401.963	98.64
402.172	139.6
402.381	145.75
402.59	121.17
402.799	100.69
403.008	174.42
403.217	155.99
403.426	158.03
403.635	205.14
403.844	192.85
404.053	190.8
404.262	215.38
404.471	178.51
404.68	254.29
404.888	158.03
405.097	139.6
405.306	110.93
405.515	205.14
405.724	254.29
405.933	254.29
406.142	303.44
406.35	325.97
406.559	305.49
406.768	330.06
406.977	309.58
407.185	213.33
407.394	272.72
407.603	268.63
407.812	418.13
408.02	252.24
408.229	301.39
408.438	280.91
408.646	301.39
408.855	379.22
409.064	362.83
409.272	344.4
409.481	467.28
409.69	424.27
409.898	371.02
410.107	491.85
410.315	430.41
410.524	477.52
410.733	512.33
410.941	481.61
411.15	555.34
411.358	557.39
411.567	631.12
411.775	557.39
411.984	631.12
412.192	612.68
412.401	620.88
412.609	612.68
412.818	762.19
413.026	753.99
413.234	756.04
413.443	723.27
413.651	688.46
413.86	815.43
414.068	999.75
414.276	940.36
414.485	1005.89
414.693	909.64
414.901	1032.52
415.11	1075.52
415.318	1093.96
415.526	1063.24
415.734	1202.5
415.943	1161.54
416.151	1294.66
416.359	1155.4
416.567	1212.74
416.776	1390.91
416.984	1317.19
417.192	1417.54
417.4	1427.78
417.608	1464.64
417.817	1528.13
418.025	1603.9
418.233	1767.74
418.441	1671.48
418.649	1868.09
418.857	1825.08
419.065	1931.58
419.273	1970.49
419.481	2023.73
419.689	2119.99
419.897	2259.25
420.105	2191.67
420.313	2410.8
420.521	2267.44
420.729	2480.43
420.937	2492.72
421.145	2619.69
421.353	2701.61
421.561	2869.55
421.769	2941.22
421.977	3053.86
422.185	3053.86
422.393	3156.26
422.601	3340.58
422.809	3455.26
423.017	3381.54
423.224	3506.46
423.432	3637.53
423.64	3660.06
423.848	4051.22
424.056	3897.63
424.263	4278.55
424.471	4329.75
424.679	4213.01
424.887	4495.63
425.094	4526.35
425.302	4636.94
425.51	4813.07
425.718	4931.85
425.925	5075.21
426.133	5210.37
426.341	5409.03
426.548	5964.03
426.756	5613.82
426.964	5748.99
427.171	6203.64
427.379	6306.04
427.586	6455.54
427.794	6553.84
428.001	6994.15
428.209	7196.9
428.417	7106.79
428.624	7536.87
428.832	7618.79
429.039	7444.71
429.247	7559.39
429.454	8181.98
429.662	8691.92
429.869	8192.22
430.076	8890.57
430.284	8579.28
430.491	9015.5
430.699	9449.67
430.906	9494.72
431.114	9472.2
431.321	10016.96
431.528	9990.33
431.736	10770.61
431.943	11223.21
432.15	11049.13
432.358	10963.12
432.565	11581.6
432.772	11706.53
432.979	12093.6
433.187	12568.73
433.394	12269.72
433.601	13430.92
433.808	13361.29
434.016	13404.3
434.223	13809.79
434.43	14571.64
434.637	14162.05
434.844	15032.43
435.052	15640.68
435.259	15595.62
435.466	15798.37
435.673	15353.96
435.88	16390.24
436.087	17201.23
436.294	17178.7
436.501	16840.79
436.708	17100.88
436.915	17725.51
437.122	18630.71
437.329	18356.29
437.537	19175.47
437.743	19746.86
437.95	19445.8
438.157	20150.31
438.364	20906.01
438.571	20938.77
438.778	21245.97
438.985	22890.49
439.192	21909.51
439.399	22812.67
439.606	22370.3
439.813	23554.03
440.02	24795.1
440.227	24313.83
440.433	24383.46
440.64	24649.69
440.847	24686.56
441.054	25479.12
441.261	27150.26
441.467	26998.71
441.674	27160.5
441.881	28411.81
442.088	28237.73
442.294	27801.52
442.501	28657.57
442.708	29253.53
442.914	30148.49
443.121	31336.31
443.328	30703.49
443.534	32810.85
443.741	31780.72
443.948	31180.67
444.154	33904.46
444.361	33609.56
444.568	34107.21
444.774	33845.07
444.981	34500.42
445.187	34989.89
445.394	36517.67
445.6	35796.79
445.807	39264
446.013	37949.2
446.22	38717.19
446.426	39945.97
446.633	40267.5
446.839	41742.04
447.046	39661.3
447.252	42104.53
447.459	42004.18
447.665	42034.9
447.871	43970.23
448.078	45731.48
448.284	43214.53
448.491	44715.69
448.697	46401.17
448.903	47072.9
449.11	47771.26
449.316	46386.83
449.522	47201.93
449.728	48371.32
449.935	48969.32
450.141	48529.01
450.347	50071.13
450.553	48199.29
450.76	49016.43
450.966	50853.45
451.172	49837.66
451.378	50908.75
451.584	50667.09
451.791	51246.66
451.997	51228.23
452.203	51838.53
452.409	52276.79
452.615	52162.11
452.821	49913.44
453.027	49651.3
453.233	52260.41
453.44	50095.7
453.646	51056.2
453.852	51127.88
454.058	51918.4
454.264	50245.21
454.47	51473.99
454.676	50140.76
454.882	52037.18
455.088	47242.88
455.294	48336.5
455.5	48885.36
455.705	49317.48
455.911	47206.02
456.117	46503.57
456.323	46282.39
456.529	43851.45
456.735	45715.1
456.941	44498.61
457.147	43843.26
457.352	42399.44
457.558	42284.75
457.764	42028.76
457.97	41248.48
458.176	40627.95
458.381	40783.59
458.587	38885.12
458.793	38352.65
458.999	36751.14
459.204	39202.56
459.41	38293.26
459.616	35542.84
459.821	35925.81
460.027	36067.12
460.233	35307.32
460.438	33146.72
460.644	33781.59
460.85	32274.28
461.055	31672.18
461.261	31725.43
461.466	29607.83
461.672	28268.45
461.878	30439.3
462.083	28438.44
462.289	28084.14
462.494	28037.03
462.7	26273.73
462.905	25962.44
463.111	26759.1
463.316	27039.67
463.522	26036.17
463.727	25872.33
463.932	26224.58
464.138	25817.04
464.343	26064.84
464.549	25178.07
464.754	25970.63
464.959	25616.33
465.165	25403.35
465.37	24666.08
465.575	23963.62
465.781	24831.96
465.986	25137.11
466.191	23863.27
466.397	23732.2
466.602	22622.2
466.807	23363.57
467.012	23496.69
467.218	23478.26
467.423	23099.38
467.628	23019.51
467.833	23867.37
468.038	23179.25
468.244	22556.67
468.449	23537.65
468.654	22941.69
468.859	22845.43
469.064	22419.46
469.269	21727.24
469.474	21682.19
469.679	22183.94
469.885	21542.92
470.09	21747.72
470.295	21747.72
470.5	21383.18
470.705	21303.31
470.91	20658.2
471.115	20568.09
471.32	20938.77
471.525	20912.15
471.73	20328.48
471.935	20455.45
472.139	19785.77
472.344	19724.33
472.549	19664.94
472.754	19509.29
472.959	19073.07
473.164	18724.92
473.369	18509.88
473.574	19038.26
473.778	18980.92
473.983	18989.11
474.188	18729.02
474.393	17858.63
474.598	18090.05
474.802	17891.4
475.007	17672.26
475.212	17700.94
475.417	16934.99
475.621	16932.95
475.826	17297.49
476.031	16877.65
476.235	16572.5
476.44	16670.81
476.645	16494.68
476.849	16646.23
477.054	16001.12
477.259	15685.73
477.463	15882.34
477.668	15804.52
477.872	15857.76
478.077	15319.15
478.282	15100.01
478.486	14878.83
478.691	14940.27
478.895	14950.51
479.1	14661.75
479.304	14743.67
479.509	14393.47
479.713	14698.61
479.918	14274.68
480.122	14237.82
480.326	14235.77
480.531	14262.4
480.735	14094.46
480.94	13834.37
481.144	14448.76
481.348	13832.32
481.553	14137.47
481.757	13648.01
481.961	13738.12
482.166	13920.38
482.37	13805.7
482.574	13547.65
482.778	13701.25
482.983	13838.47
483.187	13539.46
483.391	13828.23
483.595	13623.43
483.8	13322.38
484.004	13686.92
484.208	13424.78
484.412	13879.43
484.616	13662.34
484.821	13697.16
485.025	13459.59
485.229	13727.88
485.433	13490.31
485.637	13691.01
485.841	13623.43
486.045	13545.61
486.249	13705.35
486.453	13416.58
486.657	13594.76
486.861	13656.2
487.065	13445.26
487.269	13584.52
487.473	13402.25
487.677	13330.57
487.881	13682.82
488.085	13676.68
488.289	13715.59
488.493	13754.5
488.697	13852.8
488.901	13752.45
489.105	13666.44
489.309	13650.05
489.512	13846.66
489.716	13934.72
489.92	13844.61
490.124	13656.2
490.328	14221.44
490.531	13973.63
490.735	14141.57
490.939	14194.81
491.143	14119.04
491.346	13944.96
491.55	14137.47
491.754	14114.94
491.958	14415.99
492.161	14143.61
492.365	14540.92
492.569	14203
492.772	14366.84
492.976	14489.72
493.18	14567.54
493.383	14792.82
493.587	14946.42
493.79	14901.36
493.994	14641.27
494.197	14966.9
494.401	15171.69
494.605	15161.45
494.808	15202.41
495.012	15591.53
495.215	15663.21
495.419	15407.21
495.622	15431.79
495.825	15818.85
496.029	15939.68
496.232	16267.36
496.436	15800.42
496.639	16509.02
496.843	16420.95
497.046	16633.94
497.249	16875.6
497.453	16939.09
497.656	17111.12
497.859	16969.81
498.063	17414.22
498.266	17604.68
498.469	17440.84
498.673	17403.98
498.876	18339.9
499.079	18055.23
499.282	18300.99
499.485	18657.34
499.689	18677.82
499.892	18982.96
500.095	18796.6
500.298	19482.67
500.501	19269.68
500.705	19726.38
500.908	19929.13
501.111	20326.43
501.314	20396.06
501.517	20453.41
501.72	20584.48
501.923	20674.59
502.126	21100.56
502.329	21604.36
502.532	21465.1
502.735	21911.56
502.938	21944.33
503.141	22382.59
503.344	22548.48
503.547	22611.96
503.75	23379.95
503.953	23283.7
504.156	23742.44
504.359	23709.68
504.562	23719.92
504.765	24426.46
504.968	24528.86
505.17	25096.15
505.373	24889.31
505.576	25534.42
505.779	25786.32
505.982	25706.45
506.185	26347.46
506.387	26503.1
506.59	26582.98
506.793	27123.64
506.996	26798.01
507.198	27727.79
507.401	27414.45
507.604	27942.83
507.807	28602.27
508.009	28278.69
508.212	28790.69
508.415	29532.05
508.617	29058.97
508.82	29437.84
509.022	29429.65
509.225	30345.09
509.428	30586.75
509.63	30607.23
509.833	31264.63
510.035	31696.75
510.238	31266.68
510.44	31950.7
510.643	32458.6
510.845	32802.66
511.048	32522.09
511.25	33120.09
511.453	33306.46
511.655	34654.02
511.858	33845.07
512.06	34246.47
512.262	34826.05
512.465	34709.32
512.667	35227.45
512.87	35280.7
513.072	35639.09
513.274	36402.99
513.477	36529.96
513.679	36970.27
513.881	37797.65
514.084	37687.06
514.286	37670.68
514.488	38162.19
514.69	39026.43
514.893	39151.36
515.095	38854.4
515.297	39419.64
515.499	39761.65
515.701	39798.52
515.904	40027.89
516.106	41039.59
516.308	41101.03
516.51	41658.07
516.712	41406.17
516.914	41975.51
517.116	42591.95
517.318	43038.4
517.52	43077.32
517.722	43323.07
517.925	44072.63
518.127	44193.46
518.329	44480.17
518.531	44371.63
518.733	45162.15
518.935	45579.93
519.136	45448.86
519.338	46263.96
519.54	46497.42
519.742	46708.36
519.944	46919.31
520.146	47947.39
520.348	47959.67
520.55	47900.28
520.752	48060.02
520.954	48711.28
521.155	48234.1
521.357	49348.2
521.559	49587.81
521.761	49837.66
521.963	50013.79
522.164	50212.44
522.366	50832.97
522.568	51154.5
522.77	51469.89
522.971	51834.43
523.173	51367.49
523.375	51863.1
523.576	52074.04
523.778	52217.4
523.98	53095.98
524.181	52946.48
524.383	52874.8
524.584	53665.31
524.786	53939.74
524.988	53646.88
525.189	54013.47
525.391	54345.24
525.592	54840.85
525.794	54763.03
525.995	55205.39
526.197	55383.56
526.398	54971.92
526.6	55549.45
526.801	55842.31
527.003	55762.43
527.204	55717.38
527.406	56460.79
527.607	56552.95
527.808	56786.42
528.01	55731.71
528.211	56788.47
528.412	57521.64
528.614	57019.89
528.815	57146.86
529.016	57918.95
529.218	57441.77
529.419	57441.77
529.62	57748.96
529.822	57380.33
530.023	57886.18
530.224	57757.16
530.425	57877.99
530.626	57560.55
530.828	57155.05
531.029	58670.55
531.23	57906.66
531.431	58113.5
531.632	58123.74
531.833	58443.23
532.035	58385.88
532.236	58277.34
532.437	58699.22
532.638	58588.63
532.839	58566.1
533.04	58320.35
533.241	58156.51
533.442	59305.42
533.643	58469.85
533.844	58580.44
534.045	58623.45
534.246	58396.12
534.447	58936.79
534.648	58271.2
534.849	58674.65
535.05	58471.9
535.251	58619.35
535.451	58306.01
535.652	58752.47
535.853	58664.41
536.054	58918.35
536.255	58772.95
536.456	58666.45
536.657	59418.06
536.857	58865.11
537.058	58369.5
537.259	58791.38
537.46	58801.62
537.66	58338.78
537.861	58723.8
538.062	58508.76
538.263	58951.12
538.463	58248.67
538.664	58940.88
538.865	58910.16
539.065	58856.92
539.266	58408.41
539.466	58985.94
539.667	58101.21
539.868	59157.97
540.068	58353.11
540.269	58220
540.469	58795.48
540.67	58166.75
540.87	58230.24
541.071	58703.32
541.271	58885.59
541.472	58676.69
541.672	58195.42
541.873	58189.28
542.073	57546.22
542.274	58516.95
542.474	58496.47
542.675	58443.23
542.875	58207.71
543.075	58076.64
543.276	57687.53
543.476	58699.22
543.676	57605.61
543.877	58207.71
544.077	58125.79
544.277	58293.72
544.478	58162.65
544.678	58326.49
544.878	58080.74
545.078	57806.31
545.279	58011.1
545.479	57687.53
545.679	58080.74
545.879	58076.64
546.079	58158.56
546.28	57966.05
546.48	57601.51
546.68	58543.58
546.88	58234.33
547.08	57916.9
547.28	57462.25
547.48	57746.92
547.68	58140.13
547.88	57624.04
548.081	58109.41
548.281	58017.25
548.481	57417.19
548.681	57673.19
548.881	57730.53
549.081	57245.16
549.28	57781.73
549.48	58064.35
549.68	57454.06
549.88	57861.6
550.08	57619.94
550.28	57888.23
550.48	57392.62
550.68	58133.98
550.88	57089.52
551.08	57394.67
551.279	57282.03
551.479	56681.97
551.679	57443.82
551.879	57261.55
552.079	57640.42
552.278	57615.85
552.478	57632.23
552.678	57634.28
552.878	58068.45
553.077	57198.06
553.277	56677.88
553.477	58125.79
553.676	57359.85
553.876	57304.55
554.076	56968.69
554.275	57349.61
554.475	56665.59
554.674	57036.27
554.874	57179.63
555.074	57112.05
555.273	57345.51
555.473	57245.16
555.672	57060.85
555.872	56708.6
556.071	57099.76
556.271	57101.81
556.47	56530.42
556.67	56145.4
556.869	56552.95
557.068	57142.77
557.268	56598.01
557.467	56708.6
557.667	56753.65
557.866	56952.3
558.065	56665.59
558.265	56446.46
558.464	56292.86
558.663	56647.16
558.863	55856.64
559.062	56585.72
559.261	55936.51
559.461	56425.98
559.66	55574.02
559.859	56327.67
560.058	55911.94
560.258	56325.63
560.457	55490.05
560.656	55938.56
560.855	55588.36
561.054	55979.52
561.253	55428.62
561.453	55860.74
561.652	55467.53
561.851	55627.27
562.05	55674.37
562.249	55160.33
562.448	55651.84
562.647	55313.93
562.846	55369.22
563.045	55033.36
563.244	54967.82
563.443	55311.88
563.642	54558.23
563.841	54912.53
564.04	54685.2
564.239	55047.69
564.438	54496.79
564.637	54918.67
564.836	54726.16
565.035	54103.58
565.234	54726.16
565.432	54205.98
565.631	54289.94
565.83	54341.14
566.029	54052.38
566.228	54025.76
566.427	53894.69
566.625	54052.38
566.824	53509.67
567.023	53915.17
567.222	53435.94
567.42	53843.49
567.619	53751.33
567.818	53290.54
568.016	53251.62
568.215	53440.04
568.414	53620.26
568.612	53636.64
568.811	53288.49
569.01	53073.45
569.208	52414.01
569.407	52811.31
569.605	52391.48
569.804	53231.15
570.002	52334.13
570.201	52969.01
570.4	52436.53
570.598	52039.23
570.797	52270.65
570.995	52194.87
571.193	51740.22
571.392	52399.67
571.59	51574.34
571.789	51912.25
571.987	52012.6
572.186	51551.81
572.384	51422.79
572.582	51725.89
572.781	51848.77
572.979	50527.83
573.177	50910.8
573.376	51736.13
573.574	50841.17
573.772	51316.29
573.971	50425.43
574.169	50187.86
574.367	50277.97
574.565	50667.09
574.763	50611.79
574.962	50548.31
575.16	49778.27
575.358	49950.3
575.556	49542.75
575.754	50171.48
575.952	50075.23
576.151	49942.11
576.349	49133.16
576.547	49397.35
576.745	49419.88
576.943	49321.57
577.141	49266.28
577.339	49383.01
577.537	48676.46
577.735	48733.81
577.933	48662.13
578.131	48842.35
578.329	48709.23
578.527	48053.88
578.725	48373.36
578.923	48459.38
579.121	48137.85
579.319	47969.91
579.516	48096.89
579.714	47963.77
579.912	47902.33
580.11	47490.69
580.308	47486.59
580.506	47320.71
580.704	47050.38
580.901	47230.6
581.099	47277.7
581.297	46687.88
581.495	47001.22
581.692	47199.88
581.89	46345.87
582.088	47095.43
582.285	46552.72
582.483	46577.29
582.681	46517.9
582.878	46112.41
583.076	45751.96
583.274	46278.29
583.471	45774.49
583.669	46188.18
583.866	45459.1
584.064	46044.82
584.262	44865.19
584.459	45956.76
584.657	45067.94
584.854	45438.62
585.052	44740.27
585.249	45213.35
585.447	44467.89
585.644	44467.89
585.841	44482.22
586.039	44963.5
586.236	44342.96
586.434	44066.48
586.631	43763.39
586.828	44136.12
587.026	44428.98
587.223	43925.18
587.42	43671.23
587.618	43484.86
587.815	43333.31
588.012	43134.66
588.21	42948.29
588.407	43546.3
588.604	43142.85
588.801	43026.12
588.999	42753.74
589.196	42628.81
589.393	42890.95
589.59	42782.41
589.787	42596.04
589.984	42069.72
590.182	41938.65
590.379	42305.23
590.576	41670.36
590.773	41842.39
590.97	41547.48
591.167	41768.66
591.364	41033.44
591.561	41328.35
591.758	41311.97
591.955	41010.92
592.152	41418.46
592.349	41240.29
592.546	40998.63
592.743	40683.24
592.94	40349.42
593.137	40247.02
593.334	40785.64
593.531	39890.68
593.727	40511.21
593.924	40193.78
594.121	39431.93
594.318	40072.95
594.515	39399.16
594.712	39933.68
594.908	39218.94
595.105	39427.84
595.302	38956.8
595.499	39155.46
595.696	39245.57
595.892	38754.05
596.089	39104.26
596.286	39194.37
596.482	38412.04
596.679	38428.43
596.876	38883.08
597.072	38129.42
597.269	38276.88
597.466	37859.09
597.662	37689.11
597.859	37879.57
598.055	37904.15
598.252	37592.86
598.448	37717.78
598.645	37789.46
598.841	36890.4
599.038	37111.58
599.234	37265.18
599.431	36876.07
599.627	36839.2
599.824	37058.34
600.02	36632.36
600.217	36722.47
600.413	36765.48
600.609	36376.36
600.806	36314.92
601.002	36345.64
601.198	36165.42
601.395	35958.58
601.591	36253.48
601.787	35946.29
601.984	35583.8
602.18	35950.38
602.376	35530.55
602.572	34918.21
602.769	35438.39
602.965	34807.62
603.161	35041.09
603.357	34852.67
603.553	35008.32
603.75	34869.06
603.946	34885.44
604.142	34428.74
604.338	33939.28
604.534	34668.36
604.73	34234.19
604.926	33765.2
605.122	34344.78
605.318	33711.95
605.514	33496.92
605.71	33523.54
605.906	33627.99
606.102	33646.42
606.298	33474.39
606.494	33525.59
606.69	33582.93
606.886	33378.14
607.082	32946.01
607.278	32958.3
607.474	32649.06
607.67	33339.22
607.866	32526.18
608.062	32923.49
608.257	32835.42
608.453	33089.37
608.649	33032.03
608.845	32419.69
609.041	32458.6
609.236	32821.09
609.432	32456.55
609.628	32257.9
609.824	32319.34
610.019	31991.66
610.215	32159.59
610.411	31948.65
610.606	31924.08
610.802	31905.65
610.998	31952.75
611.193	31893.36
611.389	31389.56
611.584	31457.14
611.78	31049.6
611.976	31172.47
612.171	31768.43
612.367	31293.3
612.562	31381.37
612.758	31160.19
612.953	30967.68
613.149	31471.48
613.344	30435.2
613.539	31215.48
613.735	30934.91
613.93	30824.32
614.126	30711.68
614.321	30953.34
614.517	30904.19
614.712	30771.07
614.907	30357.38
615.103	30687.11
615.298	30486.4
615.493	30957.44
615.688	30549.89
615.884	30680.96
616.079	30070.67
616.274	30166.92
616.47	30089.1
616.665	30343.05
616.86	29984.65
617.055	29843.34
617.25	30101.39
617.445	29935.5
617.641	29325.21
617.836	29802.38
618.031	29370.26
618.226	29716.37
618.421	29474.71
618.616	29865.87
618.811	29147.03
619.006	29611.92
619.201	28862.36
619.396	28809.12
619.591	28661.66
619.786	28866.46
619.981	28149.67
620.176	28657.57
620.371	28278.69
620.566	28407.72
620.761	28299.17
620.956	28368.8
621.151	27809.71
621.346	27807.66
621.541	27942.83
621.735	27711.41
621.93	27430.83
622.125	27340.72
622.32	27152.31
622.515	27307.96
622.709	26959.8
622.904	26709.95
623.099	26712
623.294	26388.42
623.488	26154.95
623.683	26697.66
623.878	25673.68
624.072	26253.25
624.267	25911.24
624.462	25765.84
624.656	25642.96
624.851	25835.47
625.046	25317.33
625.24	25284.56
625.435	25018.33
625.629	25090.01
625.824	24623.07
626.018	24928.22
626.213	24252.39
626.407	24414.18
626.602	24182.76
626.796	24391.65
626.991	24156.13
627.185	23832.55
627.38	23838.7
627.574	23873.51
627.768	23406.58
627.963	23451.63
628.157	23324.66
628.352	23080.95
628.546	22945.78
628.74	23543.79
628.935	23138.29
629.129	22751.23
629.323	22315.01
629.517	22507.52
629.712	22370.3
629.906	22319.1
630.1	21964.81
630.294	22054.92
630.489	21932.04
630.683	22020.1
630.877	21479.44
631.071	21608.46
631.265	21497.87
631.459	21440.53
631.653	21403.66
631.848	21317.65
632.042	21053.46
632.236	21270.54
632.43	20936.73
632.624	20897.81
632.818	20858.9
633.012	20461.6
633.206	20412.45
633.4	20578.33
633.594	20240.42
633.788	20240.42
633.982	20103.2
634.176	20072.48
634.369	19750.95
634.563	19970.08
634.757	19750.95
634.951	19800.1
635.145	19355.69
635.339	19472.43
635.533	19327.02
635.726	19191.86
635.92	18774.07
636.114	18872.37
636.308	19064.88
636.501	18917.43
636.695	18790.45
636.889	18800.69
637.083	18448.44
637.276	18276.41
637.47	18589.75
637.664	18321.47
637.857	18106.43
638.051	18272.32
638.244	17889.35
638.438	17825.86
638.632	17741.89
638.825	17713.22
639.019	17739.85
639.212	17772.61
639.406	17406.03
639.599	17596.49
639.793	17291.34
639.986	17207.37
640.18	17092.69
640.373	16814.16
640.567	16699.48
640.76	16869.46
640.954	16818.26
641.147	16578.65
641.34	16304.22
641.534	16427.1
641.727	16328.8
641.92	16445.53
642.114	16240.73
642.307	16128.1
642.5	15753.32
642.694	15630.44
642.887	15919.2
643.08	16066.66
643.273	15544.42
643.467	15728.74
643.66	15487.08
643.853	15523.94
644.046	15401.07
644.239	15274.09
644.432	15321.2
644.626	15009.9
644.819	14964.85
645.012	14960.75
645.205	15026.29
645.398	14870.64
645.591	14719.09
645.784	14733.43
645.977	14604.41
646.17	14440.57
646.363	14565.5
646.556	14356.6
646.749	14323.83
646.942	14303.36
647.135	14063.74
647.328	14082.17
647.521	13875.33
647.714	13912.19
647.907	13731.97
648.099	13703.3
648.292	13817.99
648.485	13713.54
648.678	13688.96
648.871	13602.95
649.064	13318.28
649.256	13428.87
649.449	13301.9
649.642	13428.87
649.835	13035.66
650.027	12949.65
650.22	13041.81
650.413	12861.59
650.605	13072.53
650.798	12953.74
650.991	12761.23
651.183	12822.67
651.376	12626.07
651.568	12611.73
651.761	12531.86
651.954	12441.75
652.146	12470.42
652.339	12499.09
652.531	12206.24
652.724	12228.76
652.916	12052.64
653.109	11919.52
653.301	11978.91
653.494	12048.54
653.686	11876.51
653.879	11853.98
654.071	11774.11
654.263	11651.24
654.456	11729.06
654.648	11790.5
654.84	11376.81
655.033	11319.46
655.225	11376.81
655.417	11208.87
655.61	11163.82
655.802	11319.46
655.994	11122.86
656.186	11135.15
656.379	11122.86
656.571	11077.8
656.763	10997.93
656.955	11174.06
657.148	10672.31
657.34	10811.57
657.532	10617.01
657.724	10641.59
657.916	10782.9
658.108	10526.9
658.3	10438.84
658.492	10569.91
658.684	10295.48
658.876	10365.11
659.068	10336.44
659.26	10248.38
659.452	10041.53
659.644	9945.28
659.836	10066.11
660.028	10180.79
660.22	10057.92
660.412	9892.03
660.604	9697.47
660.796	9859.26
660.988	9867.45
661.18	9892.03
661.372	9500.87
661.563	9674.95
661.755	9576.64
661.947	9566.4
662.139	9464
662.331	9443.53
662.522	9337.03
662.714	9265.35
662.906	9410.76
663.097	9165
663.289	9226.44
663.481	8913.1
663.673	8954.06
663.864	9021.64
664.056	8894.67
664.247	9210.06
664.439	8892.62
664.631	8825.04
664.822	8716.5
665.014	8892.62
665.205	8687.82
665.397	8796.37
665.588	8743.12
665.78	8583.38
665.971	8681.68
666.163	8468.69
666.354	8681.68
666.546	8440.02
666.737	8452.31
666.929	8347.86
667.12	8358.1
667.311	8300.76
667.503	8014.04
667.694	8208.6
667.885	8386.77
668.077	8261.85
668.268	7995.61
668.459	7940.32
668.651	8001.76
668.842	7960.8
669.033	8040.67
669.224	7772.38
669.416	7930.08
669.607	7768.29
669.798	7700.7
669.989	7790.81
670.18	7721.18
670.371	7559.39
670.563	7528.67
670.754	7590.11
670.945	7485.67
671.136	7702.75
671.327	7608.55
671.518	7520.48
671.709	7284.97
671.9	7594.21
672.091	7305.45
672.282	7446.76
672.473	7381.22
672.664	7366.88
672.855	7108.84
673.046	7256.29
673.237	7301.35
673.428	7168.23
673.619	7037.16
673.809	7002.35
674	6826.22
674.191	7031.02
674.382	7061.74
674.573	7067.88
674.764	6871.28
674.954	6891.76
675.145	6826.22
675.336	6805.74
675.527	6822.13
675.717	6973.67
675.908	6734.06
676.099	6723.82
676.289	6709.49
676.48	6795.5
676.671	6570.23
676.861	6643.95
677.052	6658.29
677.243	6691.06
677.433	6549.75
677.624	6629.62
677.814	6500.59
678.005	6486.26
678.195	6457.59
678.386	6443.25
678.576	6498.55
678.767	6445.3
678.957	6314.23
679.148	6494.45
679.338	6205.69
679.529	6404.34
679.719	6297.85
679.909	6404.34
680.1	6211.83
680.29	6217.97
680.481	6209.78
680.671	6215.93
680.861	6291.7
681.052	6404.34
681.242	6179.06
681.432	6166.78
681.622	5986.55
681.813	6074.62
682.003	6185.21
682.193	6093.05
682.383	6109.43
682.573	5953.79
682.764	6031.61
682.954	6123.77
683.144	6111.48
683.334	6177.02
683.524	6045.95
683.714	5908.73
683.904	5742.85
684.094	5730.56
684.284	5892.35
684.474	5927.16
684.664	6011.13
684.854	5843.2
685.044	5564.67
685.234	5751.04
685.424	5708.03
685.614	5701.89
685.804	5771.52
685.994	5579.01
686.184	5763.33
686.374	5644.54
686.564	5736.7
686.753	5568.77
686.943	5568.77
687.133	5583.1
687.323	5490.95
687.513	5495.04
687.702	5384.45
687.892	5441.79
688.082	5400.83
688.272	5282.05
688.461	5388.55
688.651	5353.73
688.841	5323.01
689.03	5298.44
689.22	5216.52
689.41	5253.38
689.599	5204.23
689.789	5226.76
689.979	5245.19
690.168	5208.33
690.358	5118.22
690.547	5062.92
690.737	5079.3
690.926	5196.04
691.116	5046.54
691.305	5253.38
691.495	4929.8
691.684	4987.15
691.874	4784.4
692.063	5056.78
692.252	4888.84
692.442	4839.69
692.631	4735.25
692.82	4901.13
693.01	4774.16
693.199	4899.08
693.388	4811.02
693.578	4925.71
693.767	4712.72
693.956	4641.04
694.146	4702.48
694.335	4704.53
694.524	4677.9
694.713	4636.94
694.902	4643.09
695.092	4677.9
695.281	4579.6
695.47	4636.94
695.659	4450.58
695.848	4534.54
696.037	4561.17
696.226	4563.22
696.415	4407.57
696.604	4614.41
696.793	4391.19
696.982	4532.5
697.171	4542.74
697.36	4370.71
697.549	4180.25
697.738	4344.08
697.927	4364.56
698.116	4415.76
698.305	4348.18
698.494	4415.76
698.683	4184.34
698.872	4325.65
699.061	4213.01
699.25	4196.63
699.438	4284.69
699.627	4208.92
699.816	4294.93
700.005	4167.96
700.193	4172.05
700.382	4387.09
700.571	4282.64
700.76	4145.43
700.948	4061.46
701.137	4071.7
701.326	4090.13
701.514	4206.87
701.703	4165.91
701.892	4008.22
702.08	4049.18
702.269	4045.08
702.457	4038.94
702.646	4049.18
702.834	4000.02
703.023	4061.46
703.212	4071.7
703.4	4012.31
703.589	3987.74
703.777	3963.16
703.965	3748.12
704.154	3914.01
704.342	3967.26
704.531	3858.71
704.719	3887.39
704.907	3963.16
705.096	3817.76
705.284	3844.38
705.472	3719.45
705.661	3989.78
705.849	3852.57
706.037	3819.8
706.226	3836.19
706.414	3830.04
706.602	3696.92
706.79	3862.81
706.979	3662.11
707.167	3741.98
707.355	3754.27
707.543	3709.21
707.731	3807.52
707.919	3684.64
708.107	3772.7
708.296	3619.1
708.484	3578.14
708.672	3737.88
708.86	3780.89
709.048	3647.77
709.236	3684.64
709.424	3672.35
709.612	3641.63
709.8	3604.77
709.988	3516.7
710.176	3539.23
710.364	3596.57
710.551	3510.56
710.739	3569.95
710.927	3512.61
711.115	3541.28
711.303	3502.37
711.491	3498.27
711.679	3541.28
711.866	3408.16
712.054	3352.87
712.242	3438.88
712.43	3514.66
712.617	3449.12
712.805	3389.73
712.993	3455.26
713.181	3330.34
713.368	3414.31
713.556	3426.59
713.744	3389.73
713.931	3434.78
714.119	3350.82
714.306	3363.11
714.494	3176.74
714.682	3287.33
714.869	3176.74
715.057	3299.62
715.244	3348.77
715.432	3277.09
715.619	3221.8
715.807	3330.34
715.994	3301.67
716.182	3273
716.369	3250.47
716.556	3229.99
716.744	3254.56
716.931	3209.51
717.119	3260.71
717.306	3193.12
717.493	3133.73
717.681	3170.6
717.868	3146.02
718.055	3129.64
718.242	3092.77
718.43	3100.97
718.617	3166.5
718.804	3119.4
718.991	3037.48
719.179	3098.92
719.366	2986.28
719.553	3113.25
719.74	3164.45
719.927	3135.78
720.114	3053.86
720.301	3060.01
720.488	3037.48
720.676	3025.19
720.863	3103.01
721.05	2990.38
721.237	3049.77
721.424	2988.33
721.611	3121.45
721.798	3074.34
721.985	2971.94
722.172	3004.71
722.358	3000.62
722.545	2990.38
722.732	2922.79
722.919	2881.83
723.106	2844.97
723.293	2885.93
723.48	2941.22
723.667	2904.36
723.853	2908.46
724.04	2930.98
724.227	2859.31
724.414	2718
724.6	2799.91
724.787	2949.42
724.974	2935.08
725.161	2767.15
725.347	2918.7
725.534	2898.22
725.72	2793.77
725.907	2711.85
726.094	2826.54
726.28	2756.91
726.467	2705.71
726.653	2709.8
726.84	2758.96
727.027	2832.68
727.213	2607.41
727.4	2730.28
727.586	2799.91
727.773	2791.72
727.959	2640.17
728.145	2734.38
728.332	2679.08
728.518	2627.89
728.705	2677.04
728.891	2697.52
729.077	2697.52
729.264	2619.69
729.45	2599.21
729.636	2722.09
729.823	2478.38
730.009	2548.01
730.195	2660.65
730.382	2691.37
730.568	2722.09
730.754	2599.21
730.94	2605.36
731.126	2685.23
731.313	2595.12
731.499	2576.69
731.685	2513.2
731.871	2572.59
732.057	2660.65
732.243	2564.4
732.429	2685.23
732.615	2550.06
732.801	2648.36
732.987	2525.49
733.173	2613.55
733.359	2593.07
733.545	2572.59
733.731	2595.12
733.917	2505.01
734.103	2578.73
734.289	2537.77
734.475	2505.01
734.661	2615.6
734.847	2484.53
735.033	2418.99
735.219	2437.42
735.404	2373.94
735.59	2582.83
735.776	2496.82
735.962	2441.52
736.148	2560.3
736.333	2353.46
736.519	2576.69
736.705	2486.58
736.89	2459.95
737.076	2527.53
737.262	2320.69
737.447	2449.71
737.633	2468.14
737.819	2330.93
738.004	2404.66
738.19	2396.46
738.375	2474.29
738.561	2320.69
738.747	2441.52
738.932	2308.4
739.118	2324.79
739.303	2283.83
739.489	2482.48
739.674	2320.69
739.859	2355.51
740.045	2236.72
740.23	2179.38
740.416	2193.72
740.601	2279.73
740.786	2318.64
740.972	2193.72
741.157	2226.48
741.342	2138.42
741.528	2273.59
741.713	2210.1
741.898	2165.04
742.084	2193.72
742.269	2226.48
742.454	2160.95
742.639	2220.34
742.824	2083.13
743.01	2177.33
743.195	2234.68
743.38	2083.13
743.565	2134.32
743.75	2093.37
743.935	2025.78
744.12	2124.08
744.305	2013.49
744.49	2070.84
744.675	2169.14
744.86	2015.54
745.045	2109.75
745.23	1966.39
745.415	2017.59
745.6	2107.7
745.785	1995.06
745.97	1968.44
746.155	1931.58
746.34	2152.76
746.525	1792.31
746.71	1993.01
746.895	1827.13
747.079	1898.81
747.264	1976.63
747.449	1921.34
747.634	1915.19
747.819	2005.3
748.003	1855.8
748.188	1716.54
748.373	1915.19
748.557	1761.59
748.742	1786.17
748.927	1859.9
749.111	1833.27
749.296	1743.16
749.481	1757.5
749.665	1710.4
749.85	1739.07
750.034	1777.98
750.219	1694.01
750.404	1769.79
750.588	1808.7
750.773	1644.86
750.957	1655.1
751.141	1579.33
751.326	1665.34
751.51	1587.52
751.695	1634.62
751.879	1575.23
752.064	1644.86
752.248	1626.43
752.432	1589.57
752.617	1628.48
752.801	1601.85
752.985	1564.99
753.17	1556.8
753.354	1542.46
753.538	1612.09
753.722	1417.54
753.907	1515.84
754.091	1495.36
754.275	1435.97
754.459	1452.35
754.643	1405.25
754.828	1579.33
755.012	1519.93
755.196	1431.87
755.38	1456.45
755.564	1448.26
755.748	1358.14
755.932	1366.34
756.116	1325.38
756.3	1419.58
756.484	1321.28
756.668	1294.66
756.852	1374.53
757.036	1329.47
757.22	1296.71
757.404	1284.42
757.588	1259.84
757.772	1302.85
757.956	1321.28
758.14	1282.37
758.323	1182.02
758.507	1243.46
758.691	1317.19
758.875	1308.99
759.059	1272.13
759.242	1251.65
759.426	1229.12
759.61	1216.83
759.794	1231.17
759.977	1141.06
760.161	1196.36
760.345	1145.16
760.528	1368.38
760.712	1265.99
760.895	1149.25
761.079	1085.76
761.263	1096
761.446	1106.24
761.63	1112.39
761.813	1104.2
761.997	1141.06
762.18	1151.3
762.364	1100.1
762.547	1116.48
762.731	1151.3
762.914	1139.01
763.098	1024.33
763.281	1079.62
763.464	950.6
763.648	979.27
763.831	1001.8
764.015	1001.8
764.198	1122.63
764.381	952.65
764.564	1003.85
764.748	995.65
764.931	1079.62
765.114	1053
765.297	1024.33
765.481	917.83
765.664	964.93
765.847	960.84
766.03	1009.99
766.213	883.02
766.397	997.7
766.58	932.17
766.763	1032.52
766.946	960.84
767.129	1032.52
767.312	997.7
767.495	946.5
767.678	964.93
767.861	952.65
768.044	872.78
768.227	1007.94
768.41	966.98
768.593	1050.95
768.776	950.6
768.959	915.78
769.142	897.35
769.324	891.21
769.507	895.3
769.69	934.22
769.873	934.22
770.056	903.5
770.239	872.78
770.421	923.98
770.604	932.17
770.787	932.17
770.97	835.91
771.152	821.58
771.335	874.82
771.518	848.2
771.7	874.82
771.883	809.29
772.066	837.96
772.248	788.81
772.431	842.06
772.613	860.49
772.796	872.78
772.978	809.29
773.161	858.44
773.343	864.58
773.526	825.67
773.708	801.1
773.891	756.04
774.073	801.1
774.256	737.61
774.438	760.14
774.621	733.51
774.803	743.75
774.985	776.52
775.168	753.99
775.35	817.48
775.532	801.1
775.715	788.81
775.897	721.23
776.079	719.18
776.261	723.27
776.444	721.23
776.626	698.7
776.808	702.79
776.99	649.55
777.173	715.08
777.355	723.27
777.537	715.08
777.719	737.61
777.901	680.27
778.083	672.08
778.265	651.6
778.447	624.97
778.629	639.31
778.811	733.51
778.993	696.65
779.175	657.74
779.357	596.3
779.539	596.3
779.721	604.49
779.903	649.55
780.085	547.15
780.267	672.08
780.449	610.64
780.631	598.35
780.812	604.49
780.994	590.16
781.176	579.92
781.358	586.06
781.54	612.68
781.721	567.63
781.903	543.05
782.085	565.58
782.267	481.61
782.448	620.88
782.63	528.72
782.812	592.2
782.993	516.43
783.175	575.82
783.357	602.44
783.538	551.24
783.72	475.47
783.901	551.24
784.083	547.15
784.264	483.66
784.446	522.57
784.627	487.76
784.809	528.72
784.99	432.46
785.172	518.48
785.353	538.96
785.535	463.18
785.716	418.13
785.897	530.77
786.079	498
786.26	508.24
786.441	485.71
786.623	416.08
786.804	424.27
786.985	500.05
787.167	483.66
787.348	389.46
787.529	373.07
787.71	467.28
787.891	434.51
788.073	461.13
788.254	391.5
788.435	377.17
788.616	440.65
788.797	401.74
788.978	457.04
789.159	414.03
789.34	391.5
789.522	342.35
789.703	420.17
789.884	405.84
790.065	383.31
790.246	387.41
790.427	383.31
790.607	418.13
790.788	418.13
790.969	373.07
791.15	330.06
791.331	358.74
791.512	334.16
791.693	297.3
791.874	424.27
792.054	405.84
792.235	377.17
792.416	360.78
792.597	297.3
792.778	317.78
792.958	356.69
793.139	366.93
793.32	391.5
793.5	364.88
793.681	373.07
793.862	393.55
794.042	301.39
794.223	272.72
794.404	328.02
794.584	313.68
794.765	297.3
794.945	278.87
795.126	211.28
795.306	336.21
795.487	301.39
795.667	252.24
795.848	317.78
796.028	325.97
796.209	350.54
796.389	323.92
796.57	289.1
796.75	301.39
796.93	323.92
797.111	203.09
797.291	311.63
797.471	315.73
797.652	246.1
797.832	215.38
798.012	354.64
798.192	270.67
798.373	278.87
798.553	311.63
798.733	229.71
798.913	248.15
799.093	276.82
799.274	299.34
799.454	321.87
799.634	272.72
799.814	323.92
799.994	295.25
800.174	301.39
800.354	313.68
800.534	237.91
800.714	201.04
800.894	235.86
801.074	139.6
801.254	268.63
801.434	297.3
801.614	246.1
801.794	252.24
801.974	760.14
802.154	194.9
802.334	198.99
802.514	196.95
802.693	223.57
802.873	219.47
803.053	301.39
803.233	170.32
803.413	332.11
803.592	237.91
803.772	186.71
803.952	235.86
804.131	211.28
804.311	221.52
804.491	231.76
804.67	237.91
804.85	221.52
805.03	198.99
805.209	217.43
805.389	229.71
805.568	219.47
805.748	153.94
805.928	190.8
806.107	160.08
806.287	170.32
806.466	252.24
806.646	162.13
806.825	211.28
807.004	121.17
807.184	192.85
807.363	235.86
807.543	235.86
807.722	192.85
807.901	174.42
808.081	215.38
808.26	121.17
808.439	106.84
808.619	274.77
808.798	147.8
808.977	196.95
809.156	285.01
809.336	235.86
809.515	217.43
809.694	172.37
809.873	139.6
810.052	147.8
810.231	213.33
810.411	155.99
810.59	227.67
810.769	182.61
810.948	229.71
811.127	196.95
811.306	180.56
811.485	145.75
811.664	211.28
811.843	170.32
812.022	127.32
812.201	174.42
812.38	174.42
812.559	121.17
812.737	149.84
812.916	133.46
813.095	123.22
813.274	129.36
813.453	162.13
813.632	117.08
813.811	133.46
813.989	166.23
814.168	104.79
814.347	123.22
814.526	162.13
814.704	178.51
814.883	233.81
815.062	137.56
815.24	80.21
815.419	47.44
815.598	143.7
815.776	112.98
815.955	121.17
816.133	203.09
816.312	201.04
816.49	203.09
816.669	153.94
816.847	137.56
817.026	100.69
817.204	137.56
817.383	137.56
817.561	112.98
817.74	168.27
817.918	76.12
818.097	129.36
818.275	137.56
818.453	192.85
818.632	153.94
818.81	149.84
818.988	80.21
819.167	145.75
819.345	110.93
819.523	145.75
819.701	147.8
819.879	153.94
820.058	90.45
820.236	125.27
820.414	106.84
820.592	80.21
820.77	57.68
820.948	65.88
821.127	84.31
821.305	96.6
821.483	125.27
821.661	147.8
821.839	162.13
822.017	131.41
822.195	137.56
822.373	139.6
822.551	178.51
822.729	203.09
822.907	125.27
823.085	180.56
823.262	141.65
823.44	119.12
823.618	162.13
823.796	143.7
823.974	112.98
824.152	72.02
824.329	129.36
824.507	115.03
824.685	96.6
824.863	63.83
825.04	74.07
825.218	55.64
825.396	26.96
825.574	131.41
825.751	53.59
825.929	88.4
826.107	174.42
826.284	190.8
826.462	82.26
826.639	37.2
826.817	-9.9
826.994	196.95
827.172	16.73
827.349	121.17
827.527	176.47
827.704	84.31
827.882	57.68
828.059	112.98
828.237	147.8
828.414	151.89
828.591	63.83
828.769	172.37
828.946	147.8
829.124	90.45
829.301	119.12
829.478	43.35
829.655	129.36
829.833	63.83
830.01	43.35
830.187	137.56
830.364	131.41
830.542	96.6
830.719	112.98
830.896	106.84
831.073	51.54
831.25	96.6
831.427	67.92
831.604	98.64
831.782	31.06
831.959	115.03
832.136	80.21
832.313	123.22
832.49	26.96
832.667	43.35
832.844	31.06
833.021	129.36
833.198	151.89
833.374	86.36
833.551	147.8
833.728	67.92
833.905	180.56
834.082	0.34
834.259	84.31
834.436	98.64
834.612	22.87
834.789	90.45
834.966	137.56
835.143	162.13
835.319	33.11
835.496	129.36
835.673	121.17
835.85	129.36
836.026	129.36
836.203	47.44
836.38	80.21
836.556	22.87
836.733	31.06
836.909	57.68
837.086	-5.8
837.262	51.54
837.439	96.6
837.616	65.88
837.792	78.16
837.968	16.73
838.145	47.44
838.321	49.49
838.498	82.26
838.674	115.03
838.851	117.08
839.027	37.2
839.203	94.55
839.38	59.73
839.556	61.78
839.732	84.31
839.909	35.16
840.085	110.93
840.261	63.83
840.437	98.64
840.614	63.83
840.79	115.03
840.966	47.44
841.142	35.16
841.318	41.3
841.494	65.88
841.671	39.25
841.847	51.54
842.023	67.92
842.199	88.4
842.375	100.69
842.551	72.02
842.727	14.68
842.903	14.68
843.079	51.54
843.255	80.21
843.431	-26.28
843.607	80.21
843.783	0.34
843.959	69.97
844.134	67.92
844.31	92.5
844.486	63.83
844.662	-7.85
844.838	26.96
845.013	45.4
845.189	31.06
845.365	96.6
845.541	76.12
845.716	-7.85
845.892	37.2
846.068	49.49
846.244	47.44
846.419	35.16
846.595	37.2
846.77	22.87
846.946	88.4
847.122	22.87
847.297	61.78
847.473	47.44
847.648	14.68
847.824	6.49
847.999	-5.8
848.175	100.69
848.35	22.87
848.526	31.06
848.701	94.55
848.876	14.68
849.052	49.49
849.227	-9.9
849.403	0.34
849.578	10.58
849.753	24.92
849.929	33.11
850.104	22.87
850.279	33.11
850.454	-1.71
850.63	102.74
850.805	22.87
850.98	49.49
851.155	-26.28
851.33	33.11
851.505	14.68
851.681	80.21
851.856	10.58
852.031	147.8
852.206	-9.9
852.381	14.68
852.556	31.06
852.731	84.31
852.906	33.11
853.081	0.34
853.256	65.88
853.431	-1.71
853.606	84.31
853.781	31.06
853.956	6.49
854.131	-5.8
854.305	55.64
854.48	-1.71
854.655	31.06
854.83	16.73
855.005	20.82
855.18	-1.71
855.354	31.06
855.529	47.44
855.704	-1.71
855.879	39.25
856.053	-20.14
856.228	47.44
856.403	2.39
856.577	-9.9
856.752	14.68
856.926	22.87
857.101	31.06
857.276	51.54
857.45	-13.99
857.625	35.16
857.799	-83.63
857.974	57.68
858.148	-38.57
858.323	47.44
858.497	-1.71
858.672	45.4
858.846	-48.81
859.02	-9.9
859.195	80.21
859.369	35.16
859.543	78.16
859.718	-48.81
859.892	4.44
860.066	10.58
860.241	55.64
860.415	37.2
860.589	-7.85
860.763	0.34
860.938	-26.28
861.112	18.77
861.286	108.88
861.46	22.87
861.634	-38.57
861.808	94.55
861.982	6.49
862.157	-11.95
862.331	-28.33
862.505	6.49
862.679	-7.85
862.853	-42.67
863.027	47.44
863.201	74.07
863.375	24.92
863.549	43.35
863.722	-20.14
863.896	22.87
864.07	-73.39
864.244	33.11
864.418	35.16
864.592	14.68
864.766	33.11
864.939	90.45
865.113	31.06
865.287	14.68
865.461	4.44
865.634	41.3
865.808	55.64
865.982	51.54
866.156	-5.8
866.329	-59.05
866.503	0.34
866.676	65.88
866.85	41.3
867.024	-16.04
867.197	2.39
867.371	88.4
867.544	110.93
867.718	0.34
867.891	24.92
868.065	14.68
868.238	10.58
868.412	47.44
868.585	-24.23
868.759	2.39
868.932	20.82
869.105	-20.14
869.279	94.55
869.452	22.87
869.625	14.68
869.799	14.68
869.972	6.49
870.145	-5.8
870.319	39.25
870.492	22.87
870.665	16.73
870.838	12.63
871.011	-24.23
871.185	53.59
871.358	26.96
871.531	-5.8
871.704	-42.67
871.877	-20.14
872.05	-22.19
872.223	39.25
872.396	72.02
872.569	39.25
872.742	14.68
872.915	45.4
873.088	-22.19
873.261	35.16
873.434	6.49
873.607	49.49
873.78	26.96
873.953	-7.85
874.126	10.58
874.299	12.63
874.471	63.83
874.644	49.49
874.817	-5.8
874.99	76.12
875.163	55.64
875.335	59.73
875.508	-26.28
875.681	74.07
875.853	14.68
876.026	-1.71
876.199	-11.95
876.371	106.84
876.544	47.44
876.717	31.06
876.889	4.44
877.062	47.44
877.234	31.06
877.407	-9.9
877.579	-42.67
877.752	98.64
877.924	49.49
878.097	24.92
878.269	47.44
878.442	49.49
878.614	-28.33
878.786	24.92
878.959	22.87
879.131	0.34
879.303	-34.47
879.476	29.01
879.648	-3.75
879.82	63.83
879.993	-63.15
880.165	-11.95
880.337	-81.58
880.509	-16.04
880.681	-59.05
880.854	47.44
881.026	121.17
881.198	67.92
881.37	18.77
881.542	-18.09
881.714	10.58
881.886	78.16
882.058	-73.39
882.23	-100.01
882.402	0.34
882.574	-9.9
882.746	65.88
882.918	10.58
883.09	16.73
883.262	-59.05
883.434	-11.95
883.606	-52.91
883.778	-13.99
883.95	43.35
884.122	2.39
884.293	31.06
884.465	16.73
884.637	-11.95
884.809	12.63
884.98	10.58
885.152	-24.23
885.324	29.01
885.496	-3.75
885.667	33.11
885.839	12.63
886.011	82.26
886.182	31.06
886.354	26.96
886.525	20.82
886.697	16.73
886.869	24.92
887.04	10.58
887.212	49.49
887.383	51.54
887.555	55.64
887.726	-16.04
887.897	-1.71
888.069	43.35
888.24	31.06
888.412	6.49
888.583	-42.67
888.754	18.77
888.926	-50.86
889.097	-9.9
889.268	6.49
889.44	57.68
889.611	-73.39
889.782	-9.9
889.953	35.16
890.125	121.17
890.296	-24.23
890.467	-32.43
890.638	20.82
890.809	76.12
890.98	-38.57
891.151	35.16
891.323	-34.47
891.494	39.25
891.665	-3.75
891.836	-22.19
892.007	29.01
892.178	26.96
892.349	-16.04
892.52	-54.95
892.691	22.87
892.862	-18.09
893.032	-26.28
893.203	31.06
893.374	-5.8
893.545	22.87
893.716	10.58
893.887	-9.9
894.057	24.92
894.228	-5.8
894.399	-22.19
894.57	-28.33
894.74	-34.47
894.911	6.49
895.082	10.58
895.253	-22.19
895.423	-50.86
895.594	53.59
895.764	-34.47
895.935	-24.23
896.106	-52.91
896.276	-7.85
896.447	18.77
896.617	-1.71
896.788	-85.67
896.958	-9.9
897.129	-32.43
897.299	10.58
897.47	6.49
897.64	31.06
897.81	20.82
897.981	-38.57
898.151	-3.75
898.322	16.73
898.492	-5.8
898.662	-32.43
898.832	-13.99
899.003	-24.23
899.173	-3.75
899.343	-20.14
899.513	-38.57
