Data from USB4F104151__60__14-17-10-578.txt Node

Date: Thu Mar 13 14:17:10 EDT 2025
User: louis
Spectrometer: USB4F10415
Trigger mode: 4
Integration Time (sec): 2.000000E-2
Scans to average: 1
Electric dark correction enabled: true
Nonlinearity correction enabled: false
Boxcar width: 0
XAxis mode: Wavelengths
Number of Pixels in Spectrum: 3648
>>>>>Begin Spectral Data<<<<<
178.204	-116.39
178.424	-116.39
178.644	-116.39
178.864	-186.02
179.084	-61.1
179.304	-3.75
179.524	-13.99
179.744	26.96
179.964	51.54
180.184	-54.95
180.404	43.35
180.624	-3.75
180.844	35.16
181.064	-71.34
181.283	-1.71
181.503	39.25
181.723	-46.76
181.943	-112.3
182.163	51.54
182.383	14.68
182.602	-5.8
182.822	72.02
183.042	51.54
183.262	18.77
183.482	-20.14
183.701	-11.95
183.921	-13.99
184.141	-30.38
184.361	-38.57
184.58	18.77
184.8	18.77
185.02	-11.95
185.239	20.82
185.459	-34.47
185.679	-13.99
185.898	-7.85
186.118	-18.09
186.338	47.44
186.557	61.78
186.777	4.44
186.997	84.31
187.216	74.07
187.436	59.73
187.655	72.02
187.875	2.39
188.095	43.35
188.314	88.4
188.534	29.01
188.753	-9.9
188.973	-3.75
189.192	76.12
189.412	47.44
189.631	31.06
189.851	12.63
190.07	-1.71
190.29	-48.81
190.509	78.16
190.729	45.4
190.948	35.16
191.168	102.74
191.387	4.44
191.607	26.96
191.826	-32.43
192.045	14.68
192.265	69.97
192.484	-1.71
192.704	-3.75
192.923	-40.62
193.142	33.11
193.362	80.21
193.581	63.83
193.8	29.01
194.02	-1.71
194.239	26.96
194.458	-18.09
194.678	-1.71
194.897	-1.71
195.116	35.16
195.335	29.01
195.555	98.64
195.774	37.2
195.993	22.87
196.212	31.06
196.432	-132.78
196.651	2.39
196.87	14.68
197.089	-30.38
197.308	-32.43
197.528	59.73
197.747	-46.76
197.966	4.44
198.185	51.54
198.404	-5.8
198.623	69.97
198.842	45.4
199.062	16.73
199.281	-22.19
199.5	-26.28
199.719	10.58
199.938	45.4
200.157	53.59
200.376	-71.34
200.595	51.54
200.814	2.39
201.033	37.2
201.252	-22.19
201.471	53.59
201.69	53.59
201.909	41.3
202.128	20.82
202.347	31.06
202.566	41.3
202.785	18.77
203.004	35.16
203.223	80.21
203.442	115.03
203.661	-26.28
203.879	26.96
204.098	78.16
204.317	-1.71
204.536	18.77
204.755	6.49
204.974	37.2
205.193	104.79
205.411	84.31
205.63	102.74
205.849	35.16
206.068	8.53
206.287	12.63
206.505	-46.76
206.724	-50.86
206.943	31.06
207.162	-1.71
207.381	-42.67
207.599	-24.23
207.818	-34.47
208.037	6.49
208.255	24.92
208.474	61.78
208.693	45.4
208.911	31.06
209.13	6.49
209.349	14.68
209.567	90.45
209.786	78.16
210.005	-1.71
210.223	-52.91
210.442	-30.38
210.661	18.77
210.879	51.54
211.098	-13.99
211.316	-34.47
211.535	24.92
211.753	-38.57
211.972	26.96
212.191	29.01
212.409	18.77
212.628	10.58
212.846	-30.38
213.065	-13.99
213.283	22.87
213.502	8.53
213.72	-28.33
213.938	12.63
214.157	37.2
214.375	37.2
214.594	31.06
214.812	67.92
215.031	45.4
215.249	-1.71
215.467	45.4
215.686	-32.43
215.904	33.11
216.122	26.96
216.341	96.6
216.559	125.27
216.778	-26.28
216.996	12.63
217.214	-50.86
217.432	47.44
217.651	33.11
217.869	-36.52
218.087	39.25
218.306	67.92
218.524	-28.33
218.742	-5.8
218.96	102.74
219.179	-28.33
219.397	55.64
219.615	82.26
219.833	37.2
220.051	2.39
220.27	26.96
220.488	-9.9
220.706	117.08
220.924	51.54
221.142	43.35
221.36	49.49
221.578	37.2
221.796	2.39
222.015	74.07
222.233	-3.75
222.451	4.44
222.669	-11.95
222.887	59.73
223.105	102.74
223.323	-11.95
223.541	14.68
223.759	76.12
223.977	14.68
224.195	47.44
224.413	18.77
224.631	22.87
224.849	-36.52
225.067	57.68
225.285	61.78
225.503	37.2
225.721	-32.43
225.939	-18.09
226.157	39.25
226.375	143.7
226.592	10.58
226.81	-9.9
227.028	-1.71
227.246	43.35
227.464	6.49
227.682	6.49
227.9	2.39
228.117	100.69
228.335	20.82
228.553	35.16
228.771	18.77
228.989	-11.95
229.206	-34.47
229.424	-3.75
229.642	12.63
229.86	26.96
230.077	39.25
230.295	26.96
230.513	26.96
230.731	123.22
230.948	119.12
231.166	88.4
231.384	39.25
231.601	-36.52
231.819	55.64
232.037	-46.76
232.254	61.78
232.472	59.73
232.689	96.6
232.907	72.02
233.125	-46.76
233.342	8.53
233.56	33.11
233.777	-38.57
233.995	-13.99
234.213	-9.9
234.43	-16.04
234.648	35.16
234.865	72.02
235.083	59.73
235.3	67.92
235.518	26.96
235.735	10.58
235.953	108.88
236.17	-36.52
236.388	18.77
236.605	74.07
236.822	43.35
237.04	18.77
237.257	43.35
237.475	10.58
237.692	57.68
237.909	-7.85
238.127	16.73
238.344	4.44
238.562	-28.33
238.779	49.49
238.996	29.01
239.214	29.01
239.431	20.82
239.648	49.49
239.865	59.73
240.083	6.49
240.3	10.58
240.517	12.63
240.735	33.11
240.952	47.44
241.169	20.82
241.386	4.44
241.603	-30.38
241.821	0.34
242.038	-13.99
242.255	59.73
242.472	-9.9
242.689	-9.9
242.907	125.27
243.124	-1.71
243.341	100.69
243.558	-24.23
243.775	-18.09
243.992	65.88
244.209	4.44
244.426	26.96
244.643	43.35
244.86	80.21
245.078	72.02
245.295	82.26
245.512	59.73
245.729	55.64
245.946	20.82
246.163	-38.57
246.38	-50.86
246.597	18.77
246.814	37.2
247.031	2.39
247.248	67.92
247.464	-5.8
247.681	45.4
247.898	16.73
248.115	53.59
248.332	-67.24
248.549	20.82
248.766	31.06
248.983	65.88
249.2	35.16
249.417	-52.91
249.633	22.87
249.85	12.63
250.067	-7.85
250.284	2.39
250.501	22.87
250.717	4.44
250.934	35.16
251.151	-30.38
251.368	18.77
251.585	26.96
251.801	80.21
252.018	-7.85
252.235	0.34
252.451	51.54
252.668	-59.05
252.885	10.58
253.102	160.08
253.318	18.77
253.535	22.87
253.752	2.39
253.968	-26.28
254.185	-11.95
254.401	29.01
254.618	-38.57
254.835	-20.14
255.051	43.35
255.268	-13.99
255.484	-11.95
255.701	43.35
255.917	4.44
256.134	-28.33
256.351	26.96
256.567	-16.04
256.784	76.12
257	-63.15
257.217	43.35
257.433	76.12
257.65	-5.8
257.866	-9.9
258.082	-71.34
258.299	22.87
258.515	26.96
258.732	12.63
258.948	-38.57
259.165	78.16
259.381	53.59
259.597	2.39
259.814	-9.9
260.03	47.44
260.246	67.92
260.463	49.49
260.679	4.44
260.895	10.58
261.112	18.77
261.328	4.44
261.544	65.88
261.761	63.83
261.977	10.58
262.193	-11.95
262.409	35.16
262.626	8.53
262.842	43.35
263.058	22.87
263.274	33.11
263.49	-32.43
263.707	12.63
263.923	35.16
264.139	-36.52
264.355	-5.8
264.571	6.49
264.787	10.58
265.004	18.77
265.22	45.4
265.436	-50.86
265.652	-52.91
265.868	39.25
266.084	-50.86
266.3	6.49
266.516	37.2
266.732	61.78
266.948	-38.57
267.164	-5.8
267.38	72.02
267.596	69.97
267.812	143.7
268.028	33.11
268.244	67.92
268.46	59.73
268.676	35.16
268.892	108.88
269.108	51.54
269.324	-52.91
269.54	20.82
269.756	26.96
269.972	-9.9
270.188	84.31
270.403	-34.47
270.619	-5.8
270.835	-34.47
271.051	4.44
271.267	-30.38
271.483	16.73
271.698	29.01
271.914	100.69
272.13	-7.85
272.346	-118.44
272.562	55.64
272.777	26.96
272.993	65.88
273.209	55.64
273.425	-13.99
273.64	-5.8
273.856	-5.8
274.072	61.78
274.287	61.78
274.503	53.59
274.719	24.92
274.934	22.87
275.15	92.5
275.366	18.77
275.581	-46.76
275.797	59.73
276.012	24.92
276.228	65.88
276.444	45.4
276.659	14.68
276.875	80.21
277.09	10.58
277.306	10.58
277.521	2.39
277.737	-5.8
277.952	49.49
278.168	69.97
278.383	45.4
278.599	24.92
278.814	37.2
279.03	18.77
279.245	78.16
279.461	4.44
279.676	84.31
279.892	67.92
280.107	-9.9
280.322	-1.71
280.538	-16.04
280.753	20.82
280.969	4.44
281.184	-16.04
281.399	35.16
281.615	-24.23
281.83	35.16
282.045	-1.71
282.26	-3.75
282.476	10.58
282.691	2.39
282.906	45.4
283.122	10.58
283.337	43.35
283.552	33.11
283.767	-22.19
283.983	-9.9
284.198	26.96
284.413	-13.99
284.628	-52.91
284.843	-30.38
285.058	69.97
285.274	-42.67
285.489	94.55
285.704	26.96
285.919	67.92
286.134	-22.19
286.349	26.96
286.564	39.25
286.779	35.16
286.995	-13.99
287.21	2.39
287.425	72.02
287.64	-18.09
287.855	72.02
288.07	10.58
288.285	78.16
288.5	26.96
288.715	59.73
288.93	-71.34
289.145	18.77
289.36	-5.8
289.575	102.74
289.79	22.87
290.004	-26.28
290.219	-20.14
290.434	-11.95
290.649	-5.8
290.864	6.49
291.079	49.49
291.294	-20.14
291.509	45.4
291.724	4.44
291.938	102.74
292.153	-22.19
292.368	-61.1
292.583	-11.95
292.798	-11.95
293.012	20.82
293.227	-20.14
293.442	39.25
293.657	67.92
293.871	59.73
294.086	-9.9
294.301	59.73
294.516	4.44
294.73	55.64
294.945	-54.95
295.16	43.35
295.374	31.06
295.589	69.97
295.804	33.11
296.018	31.06
296.233	67.92
296.447	63.83
296.662	-13.99
296.877	20.82
297.091	45.4
297.306	67.92
297.52	12.63
297.735	47.44
297.949	37.2
298.164	106.84
298.378	2.39
298.593	-22.19
298.807	22.87
299.022	29.01
299.236	43.35
299.451	-22.19
299.665	29.01
299.88	29.01
300.094	-75.43
300.309	26.96
300.523	67.92
300.737	-16.04
300.952	12.63
301.166	39.25
301.381	47.44
301.595	18.77
301.809	88.4
302.024	59.73
302.238	-30.38
302.452	61.78
302.667	45.4
302.881	53.59
303.095	-5.8
303.309	51.54
303.524	-22.19
303.738	65.88
303.952	2.39
304.166	29.01
304.381	12.63
304.595	51.54
304.809	45.4
305.023	92.5
305.237	67.92
305.452	-30.38
305.666	35.16
305.88	51.54
306.094	18.77
306.308	22.87
306.522	43.35
306.736	43.35
306.95	72.02
307.164	35.16
307.379	-5.8
307.593	47.44
307.807	31.06
308.021	43.35
308.235	20.82
308.449	29.01
308.663	-18.09
308.877	69.97
309.091	78.16
309.305	-18.09
309.519	22.87
309.733	78.16
309.947	-54.95
310.161	100.69
310.374	74.07
310.588	72.02
310.802	12.63
311.016	6.49
311.23	69.97
311.444	-7.85
311.658	6.49
311.872	43.35
312.085	2.39
312.299	35.16
312.513	18.77
312.727	-22.19
312.941	18.77
313.154	18.77
313.368	41.3
313.582	37.2
313.796	78.16
314.009	41.3
314.223	76.12
314.437	63.83
314.651	76.12
314.864	82.26
315.078	2.39
315.292	35.16
315.505	-9.9
315.719	29.01
315.933	53.59
316.146	-5.8
316.36	29.01
316.573	133.46
316.787	59.73
317.001	59.73
317.214	2.39
317.428	51.54
317.641	14.68
317.855	29.01
318.068	31.06
318.282	10.58
318.495	51.54
318.709	51.54
318.922	-36.52
319.136	112.98
319.349	-13.99
319.563	18.77
319.776	14.68
319.99	41.3
320.203	63.83
320.417	63.83
320.63	59.73
320.843	67.92
321.057	96.6
321.27	2.39
321.483	29.01
321.697	108.88
321.91	10.58
322.124	20.82
322.337	-1.71
322.55	-11.95
322.763	96.6
322.977	10.58
323.19	-13.99
323.403	10.58
323.617	41.3
323.83	110.93
324.043	-3.75
324.256	37.2
324.469	-38.57
324.683	67.92
324.896	-13.99
325.109	104.79
325.322	47.44
325.535	39.25
325.748	86.36
325.962	61.78
326.175	61.78
326.388	-26.28
326.601	12.63
326.814	18.77
327.027	51.54
327.24	145.75
327.453	61.78
327.666	53.59
327.879	88.4
328.092	55.64
328.305	0.34
328.518	-5.8
328.731	-24.23
328.944	-9.9
329.157	35.16
329.37	35.16
329.583	59.73
329.796	59.73
330.009	-36.52
330.222	-9.9
330.435	57.68
330.648	63.83
330.861	6.49
331.073	61.78
331.286	-3.75
331.499	-1.71
331.712	-32.43
331.925	10.58
332.138	45.4
332.35	100.69
332.563	4.44
332.776	22.87
332.989	61.78
333.202	78.16
333.414	29.01
333.627	43.35
333.84	51.54
334.053	39.25
334.265	43.35
334.478	20.82
334.691	22.87
334.903	43.35
335.116	-13.99
335.329	4.44
335.541	94.55
335.754	203.09
335.966	35.16
336.179	43.35
336.392	6.49
336.604	-9.9
336.817	67.92
337.029	35.16
337.242	76.12
337.454	14.68
337.667	37.2
337.88	31.06
338.092	94.55
338.305	49.49
338.517	59.73
338.729	108.88
338.942	59.73
339.154	-79.53
339.367	8.53
339.579	67.92
339.792	43.35
340.004	67.92
340.217	55.64
340.429	69.97
340.641	61.78
340.854	51.54
341.066	4.44
341.278	29.01
341.491	102.74
341.703	53.59
341.915	72.02
342.128	43.35
342.34	-1.71
342.552	45.4
342.764	37.2
342.977	41.3
343.189	76.12
343.401	26.96
343.613	-42.67
343.826	115.03
344.038	35.16
344.25	45.4
344.462	20.82
344.674	69.97
344.886	10.58
345.099	59.73
345.311	35.16
345.523	121.17
345.735	47.44
345.947	61.78
346.159	45.4
346.371	84.31
346.583	-38.57
346.795	102.74
347.007	-22.19
347.219	43.35
347.431	-61.1
347.643	69.97
347.855	12.63
348.067	18.77
348.279	51.54
348.491	29.01
348.703	67.92
348.915	98.64
349.127	45.4
349.339	35.16
349.551	26.96
349.763	43.35
349.975	-20.14
350.187	47.44
350.399	90.45
350.61	76.12
350.822	29.01
351.034	65.88
351.246	45.4
351.458	57.68
351.669	6.49
351.881	37.2
352.093	10.58
352.305	-13.99
352.517	-9.9
352.728	35.16
352.94	18.77
353.152	2.39
353.363	10.58
353.575	8.53
353.787	96.6
353.999	78.16
354.21	84.31
354.422	80.21
354.633	14.68
354.845	80.21
355.057	-7.85
355.268	6.49
355.48	41.3
355.692	47.44
355.903	-11.95
356.115	104.79
356.326	-48.81
356.538	94.55
356.749	29.01
356.961	133.46
357.172	24.92
357.384	18.77
357.595	100.69
357.807	2.39
358.018	12.63
358.23	67.92
358.441	80.21
358.653	69.97
358.864	8.53
359.075	55.64
359.287	51.54
359.498	139.6
359.709	69.97
359.921	63.83
360.132	-46.76
360.344	59.73
360.555	-13.99
360.766	-36.52
360.977	51.54
361.189	43.35
361.4	35.16
361.611	51.54
361.823	106.84
362.034	8.53
362.245	43.35
362.456	67.92
362.667	31.06
362.879	0.34
363.09	100.69
363.301	108.88
363.512	41.3
363.723	-11.95
363.935	-28.33
364.146	117.08
364.357	29.01
364.568	16.73
364.779	53.59
364.99	84.31
365.201	35.16
365.412	51.54
365.623	6.49
365.834	84.31
366.045	26.96
366.256	53.59
366.467	51.54
366.678	10.58
366.889	55.64
367.1	41.3
367.311	67.92
367.522	108.88
367.733	100.69
367.944	35.16
368.155	-13.99
368.366	102.74
368.577	41.3
368.788	98.64
368.999	4.44
369.209	45.4
369.42	61.78
369.631	61.78
369.842	61.78
370.053	-34.47
370.264	131.41
370.474	33.11
370.685	51.54
370.896	61.78
371.107	57.68
371.317	53.59
371.528	59.73
371.739	104.79
371.95	-30.38
372.16	67.92
372.371	10.58
372.582	-5.8
372.792	35.16
373.003	49.49
373.214	31.06
373.424	14.68
373.635	69.97
373.846	22.87
374.056	35.16
374.267	104.79
374.477	-54.95
374.688	55.64
374.898	26.96
375.109	67.92
375.319	0.34
375.53	61.78
375.74	53.59
375.951	-3.75
376.161	102.74
376.372	67.92
376.582	45.4
376.793	67.92
377.003	-20.14
377.214	22.87
377.424	31.06
377.635	53.59
377.845	26.96
378.055	61.78
378.266	69.97
378.476	84.31
378.686	53.59
378.897	57.68
379.107	4.44
379.317	37.2
379.528	4.44
379.738	43.35
379.948	35.16
380.158	35.16
380.369	55.64
380.579	59.73
380.789	-18.09
380.999	20.82
381.21	69.97
381.42	80.21
381.63	72.02
381.84	72.02
382.05	33.11
382.261	102.74
382.471	22.87
382.681	45.4
382.891	67.92
383.101	63.83
383.311	-18.09
383.521	-34.47
383.731	20.82
383.941	78.16
384.151	18.77
384.361	84.31
384.571	63.83
384.781	94.55
384.991	35.16
385.201	108.88
385.411	117.08
385.621	92.5
385.831	-5.8
386.041	78.16
386.251	41.3
386.461	61.78
386.671	84.31
386.881	49.49
387.091	100.69
387.301	78.16
387.511	10.58
387.72	63.83
387.93	20.82
388.14	84.31
388.35	104.79
388.56	94.55
388.769	6.49
388.979	26.96
389.189	24.92
389.399	92.5
389.609	78.16
389.818	61.78
390.028	63.83
390.238	2.39
390.447	51.54
390.657	92.5
390.867	0.34
391.076	121.17
391.286	78.16
391.496	16.73
391.705	76.12
391.915	55.64
392.125	104.79
392.334	12.63
392.544	129.36
392.753	51.54
392.963	-77.48
393.172	67.92
393.382	59.73
393.591	67.92
393.801	155.99
394.01	63.83
394.22	51.54
394.429	26.96
394.639	115.03
394.848	94.55
395.058	139.6
395.267	67.92
395.477	88.4
395.686	53.59
395.895	117.08
396.105	166.23
396.314	100.69
396.524	90.45
396.733	22.87
396.942	96.6
397.152	84.31
397.361	104.79
397.57	90.45
397.78	82.26
397.989	117.08
398.198	149.84
398.407	76.12
398.617	100.69
398.826	133.46
399.035	72.02
399.244	90.45
399.453	78.16
399.663	201.04
399.872	84.31
400.081	51.54
400.29	108.88
400.499	39.25
400.708	149.84
400.917	108.88
401.127	201.04
401.336	78.16
401.545	209.23
401.754	102.74
401.963	117.08
402.172	115.03
402.381	37.2
402.59	123.22
402.799	108.88
403.008	172.37
403.217	119.12
403.426	129.36
403.635	127.32
403.844	166.23
404.053	117.08
404.262	69.97
404.471	149.84
404.68	74.07
404.888	55.64
405.097	162.13
405.306	65.88
405.515	209.23
405.724	155.99
405.933	186.71
406.142	172.37
406.35	137.56
406.559	137.56
406.768	147.8
406.977	246.1
407.185	201.04
407.394	151.89
407.603	186.71
407.812	215.38
408.02	305.49
408.229	158.03
408.438	198.99
408.646	223.57
408.855	219.47
409.064	291.15
409.272	248.15
409.481	207.19
409.69	285.01
409.898	264.53
410.107	192.85
410.315	274.77
410.524	289.1
410.733	350.54
410.941	272.72
411.15	477.52
411.358	420.17
411.567	391.5
411.775	383.31
411.984	387.41
412.192	491.85
412.401	401.74
412.609	471.37
412.818	559.44
413.026	440.65
413.234	534.86
413.443	459.09
413.651	432.46
413.86	559.44
414.068	555.34
414.276	577.87
414.485	594.25
414.693	723.27
414.901	655.69
415.11	768.33
415.318	764.23
415.526	735.56
415.734	774.47
415.943	817.48
416.151	817.48
416.359	817.48
416.567	833.86
416.776	923.98
416.984	915.78
417.192	1009.99
417.4	981.32
417.608	942.41
417.817	1087.81
418.025	1132.87
418.233	1198.4
418.441	1155.4
418.649	1222.98
418.857	1276.23
419.065	1274.18
419.273	1286.47
419.481	1370.43
419.689	1354.05
419.897	1468.73
420.105	1558.85
420.313	1509.69
420.521	1579.33
420.729	1556.8
420.937	1616.19
421.145	1689.92
421.353	1812.79
421.561	1941.82
421.769	1947.96
421.977	2107.7
422.185	1956.15
422.393	2117.94
422.601	2033.97
422.809	2191.67
423.017	2287.92
423.224	2335.03
423.432	2543.92
423.64	2449.71
423.848	2726.19
424.056	2529.58
424.263	2779.43
424.471	2849.07
424.679	2887.98
424.887	2982.18
425.094	3123.49
425.302	3107.11
425.51	3111.21
425.718	3375.39
425.925	3365.15
426.133	3504.42
426.341	3672.35
426.548	3737.88
426.756	3825.95
426.964	3891.48
427.171	4139.29
427.379	4172.05
427.586	4182.29
427.794	4483.34
428.001	4567.31
428.209	4854.03
428.417	4682
428.624	5089.54
428.832	4970.76
429.039	5032.2
429.247	5044.49
429.454	5472.51
429.662	5933.31
429.869	5499.14
430.076	5939.45
430.284	5798.14
430.491	5826.81
430.699	6258.93
430.906	6336.76
431.114	6383.86
431.321	6596.85
431.528	6977.77
431.736	7428.32
431.943	7424.23
432.15	7373.03
432.358	7401.7
432.565	7966.94
432.772	7880.93
432.979	8181.98
433.187	8186.07
433.394	8327.38
433.601	8835.28
433.808	8917.2
434.016	9066.7
434.223	9271.5
434.43	9801.92
434.637	9509.06
434.844	10309.82
435.052	10367.16
435.259	10367.16
435.466	10463.41
435.673	10332.34
435.88	10967.21
436.087	11608.23
436.294	11604.13
436.501	11497.64
436.708	11704.48
436.915	12140.7
437.122	12531.86
437.329	12628.12
437.537	12806.29
437.743	12966.03
437.95	12845.2
438.157	13584.52
438.364	14028.93
438.571	13934.72
438.778	13957.25
438.985	15644.77
439.192	14839.92
439.399	14948.47
439.606	14780.53
439.813	15890.53
440.02	16875.6
440.227	16537.69
440.433	16265.31
440.64	16679
440.847	16724.05
441.054	17346.64
441.261	18372.67
441.467	17836.1
441.674	18321.47
441.881	18876.47
442.088	19046.45
442.294	18851.89
442.501	19374.13
442.708	19939.37
442.914	20576.28
443.121	21377.04
443.328	20758.55
443.534	22116.36
443.741	21473.29
443.948	21051.41
444.154	22835.19
444.361	22607.87
444.568	22837.24
444.774	22706.17
444.981	22988.79
445.187	23726.06
445.394	24690.65
445.6	24408.03
445.807	26859.45
446.013	25702.35
446.22	26054.6
446.426	27117.5
446.633	27412.4
446.839	28149.67
447.046	26765.24
447.252	28493.73
447.459	28727.2
447.665	28538.79
447.871	29624.21
448.078	30728.06
448.284	29349.78
448.491	30244.74
448.697	31704.95
448.903	32489.32
449.11	32472.93
449.316	31537.01
449.522	32450.41
449.728	32884.58
449.935	33572.69
450.141	33007.45
450.347	33812.31
450.553	33044.32
450.76	33302.36
450.966	34258.76
451.172	34158.41
451.378	34879.3
451.584	34021.2
451.791	35419.96
451.997	35028.8
452.203	35673.91
452.409	35901.23
452.615	35542.84
452.821	34309.96
453.027	33902.42
453.233	35706.68
453.44	34371.4
453.646	34539.33
453.852	34844.48
454.058	35686.2
454.264	34180.94
454.47	35221.31
454.676	34082.64
454.882	35311.42
455.088	31995.76
455.294	32841.57
455.5	33367.9
455.705	33740.63
455.911	32126.83
456.117	32085.87
456.323	31117.18
456.529	29646.74
456.735	31063.93
456.941	30488.45
457.147	29792.14
457.352	29048.73
457.558	28383.14
457.764	28522.4
457.97	28432.29
458.176	27412.4
458.381	27647.92
458.587	26183.62
458.793	25948.11
458.999	24852.44
459.204	26566.59
459.41	25739.21
459.616	24285.15
459.821	24614.88
460.027	24375.27
460.233	23773.16
460.438	22675.45
460.644	22710.27
460.85	21983.24
461.055	21463.05
461.261	21188.63
461.466	19894.31
461.672	19114.03
461.878	20293.66
462.083	18815.03
462.289	18970.68
462.494	18688.06
462.7	17854.53
462.905	17424.46
463.111	17827.91
463.316	18149.44
463.522	17533
463.727	17391.69
463.932	17743.94
464.138	17250.38
464.343	17274.96
464.549	16861.27
464.754	17393.74
464.959	17320.01
465.165	17150.03
465.37	16443.48
465.575	15849.57
465.781	16746.58
465.986	16676.95
466.191	16121.95
466.397	15947.87
466.602	14893.17
466.807	15482.99
467.012	15800.42
467.218	15650.92
467.423	15169.65
467.628	15495.27
467.833	15978.59
468.038	15593.58
468.244	15042.67
468.449	15536.23
468.654	15079.54
468.859	15190.13
469.064	14983.28
469.269	14135.42
469.474	14502.01
469.679	14905.46
469.885	14647.41
470.09	14518.39
470.295	14418.04
470.5	13994.11
470.705	14059.65
470.91	13932.67
471.115	13852.8
471.32	13899.91
471.525	13609.09
471.73	13617.29
471.935	13461.64
472.139	12925.07
472.344	13189.26
472.549	12978.32
472.754	12927.12
472.959	12630.16
473.164	12363.93
473.369	12359.83
473.574	12920.98
473.778	12521.62
473.983	12650.64
474.188	12554.39
474.393	11741.35
474.598	11733.15
474.802	11802.79
475.007	11532.45
475.212	12058.78
475.417	11522.21
475.621	11294.89
475.826	11602.08
476.031	11169.96
476.235	10995.89
476.44	11069.61
476.645	10948.78
476.849	10954.93
477.054	10676.4
477.259	10752.18
477.463	10617.01
477.668	10350.78
477.872	10662.07
478.077	10344.63
478.282	9918.65
478.486	10014.91
478.691	9734.34
478.895	9924.8
479.1	9844.93
479.304	9875.65
479.509	9603.27
479.713	9742.53
479.918	9259.21
480.122	9435.33
480.326	9623.75
480.531	9476.29
480.735	9457.86
480.94	9341.13
481.144	9531.59
481.348	9300.17
481.553	9242.82
481.757	8982.73
481.961	9146.57
482.166	9504.96
482.37	9021.64
482.574	9130.19
482.778	8976.59
482.983	9427.14
483.187	9228.49
483.391	9412.81
483.595	9167.05
483.8	9136.33
484.004	9173.19
484.208	9089.23
484.412	9019.6
484.616	9418.95
484.821	8919.25
485.025	8992.97
485.229	9150.67
485.433	9050.32
485.637	9011.4
485.841	9083.08
486.045	9093.32
486.249	9033.93
486.453	9013.45
486.657	9255.11
486.861	9128.14
487.065	8892.62
487.269	9308.36
487.473	8874.19
487.677	9029.84
487.881	9220.3
488.085	9187.53
488.289	9251.02
488.493	9324.74
488.697	9259.21
488.901	9218.25
489.105	9189.58
489.309	9324.74
489.512	9289.93
489.716	9169.1
489.92	9177.29
490.124	9095.37
490.328	9337.03
490.531	9283.78
490.735	9461.96
490.939	9283.78
491.143	9177.29
491.346	9117.9
491.55	9537.73
491.754	9631.94
491.958	9744.58
492.161	9547.97
492.365	9738.43
492.569	9662.66
492.772	9826.5
492.976	9861.31
493.18	9818.3
493.383	10039.48
493.587	9791.68
493.79	10121.4
493.994	9932.99
494.197	9963.71
494.401	10186.94
494.605	10260.66
494.808	10209.47
495.012	10221.75
495.215	10498.23
495.419	10543.28
495.622	10291.38
495.825	10668.21
496.029	10627.25
496.232	10721.46
496.436	10932.4
496.639	10969.26
496.843	10987.69
497.046	11282.6
497.249	11253.93
497.453	11491.49
497.656	11718.82
497.859	11487.4
498.063	11604.13
498.266	11937.95
498.469	12003.49
498.673	11776.16
498.876	12056.73
499.079	12257.43
499.282	12200.09
499.485	12601.49
499.689	12421.27
499.892	12757.14
500.095	12904.59
500.298	12898.45
500.501	12837.01
500.705	13582.47
500.908	13443.21
501.111	13633.67
501.314	14012.54
501.517	13834.37
501.72	14057.6
501.923	14135.42
502.126	14305.4
502.329	14645.37
502.532	14692.47
502.735	14661.75
502.938	15095.92
503.141	14837.87
503.344	15214.7
503.547	15399.02
503.75	15640.68
503.953	15784.04
504.156	15964.26
504.359	15915.11
504.562	16244.83
504.765	16549.98
504.968	16586.84
505.17	16848.98
505.373	16859.22
505.576	17354.83
505.779	17352.78
505.982	17358.92
506.185	17840.2
506.387	17977.41
506.59	17954.88
506.793	18640.95
506.996	18126.91
507.198	18690.1
507.401	18747.45
507.604	19001.4
507.807	19609.64
508.009	19109.94
508.212	19437.61
508.415	19806.25
508.617	20029.48
508.82	20486.17
509.022	20092.96
509.225	20385.82
509.428	20668.44
509.63	20867.09
509.833	20967.45
510.035	21565.45
510.238	21340.18
510.44	21606.41
510.643	21901.32
510.845	22239.23
511.048	22091.78
511.25	22259.71
511.453	22702.07
511.655	23291.89
511.858	23205.88
512.06	23148.53
512.262	23699.44
512.465	23316.47
512.667	23959.53
512.87	24149.99
513.072	24383.46
513.274	24956.89
513.477	24981.46
513.679	25372.63
513.881	25438.16
514.084	25718.73
514.286	25511.89
514.488	25864.14
514.69	26548.16
514.893	26441.67
515.095	26476.48
515.297	27307.96
515.499	26994.62
515.701	27250.61
515.904	27461.55
516.106	28004.27
516.308	27981.74
516.51	28589.99
516.712	28368.8
516.914	28784.54
517.116	29149.08
517.318	29351.83
517.52	29575.06
517.722	29620.11
517.925	29722.51
518.127	30330.76
518.329	30447.49
518.531	30367.62
518.733	31354.74
518.935	31178.62
519.136	31143.8
519.338	31913.84
519.54	31668.08
519.742	32288.62
519.944	32384.87
520.146	32939.87
520.348	33023.84
520.55	33099.61
520.752	33511.25
520.954	33826.64
521.155	33699.67
521.357	34178.89
521.559	34379.59
521.761	34852.67
521.963	34877.25
522.164	35067.71
522.366	34981.7
522.568	35505.98
522.77	35802.93
522.971	35929.91
523.173	35643.19
523.375	36298.54
523.576	36134.7
523.778	36562.73
523.98	36861.73
524.181	37256.99
524.383	37461.79
524.584	37691.16
524.786	37175.07
524.988	37377.82
525.189	37957.39
525.391	38223.63
525.592	38467.34
525.794	38264.59
525.995	38383.37
526.197	38665.99
526.398	38625.03
526.6	39096.06
526.801	39057.15
527.003	39476.99
527.204	39212.8
527.406	39722.74
527.607	39395.07
527.808	39741.17
528.01	39307.01
528.211	39597.82
528.412	40767.21
528.614	40578.79
528.815	40212.21
529.016	40945.38
529.218	40376.05
529.419	40634.09
529.62	40756.97
529.822	40533.74
530.023	40726.25
530.224	40730.34
530.425	40992.48
530.626	40562.41
530.828	40709.86
531.029	41793.24
531.23	41058.02
531.431	41088.74
531.632	41479.9
531.833	41516.76
532.035	41570.01
532.236	41252.58
532.437	42215.12
532.638	41488.09
532.839	41748.18
533.04	41912.02
533.241	41135.84
533.442	42202.83
533.643	41570.01
533.844	41897.69
534.045	42047.19
534.246	41309.92
534.447	41778.9
534.648	42079.96
534.849	41952.98
535.05	41637.59
535.251	41932.5
535.451	41934.55
535.652	41709.27
535.853	41639.64
536.054	42200.79
536.255	41823.96
536.456	41631.45
536.657	42868.42
536.857	41508.57
537.058	41496.28
537.259	42305.23
537.46	42147.54
537.66	41924.31
537.861	42184.4
538.062	42108.63
538.263	42292.94
538.463	42208.98
538.664	41920.21
538.865	42149.59
539.065	41938.65
539.266	41570.01
539.466	42428.11
539.667	41123.55
539.868	42108.63
540.068	42137.3
540.269	42008.28
540.469	42620.62
540.67	42051.28
540.87	42114.77
541.071	41998.04
541.271	41672.41
541.472	42006.23
541.672	42131.15
541.873	41692.89
542.073	41293.54
542.274	42112.72
542.474	42098.39
542.675	41508.57
542.875	42239.7
543.075	41811.67
543.276	41365.21
543.476	42039
543.676	41823.96
543.877	42114.77
544.077	41555.68
544.277	41590.49
544.478	41893.59
544.678	41940.69
544.878	41670.36
545.078	41512.67
545.279	41672.41
545.479	41365.21
545.679	41658.07
545.879	41682.65
546.079	41625.31
546.28	41301.73
546.48	41256.67
546.68	42098.39
546.88	41588.44
547.08	41531.1
547.28	41619.16
547.48	41197.28
547.68	41952.98
547.88	41500.38
548.081	41969.36
548.281	41174.75
548.481	41381.6
548.681	41733.85
548.881	41586.39
549.081	41520.86
549.28	41156.32
549.48	41881.3
549.68	41207.52
549.88	41703.13
550.08	41297.63
550.28	41271.01
550.48	41213.66
550.68	41393.89
550.88	41223.9
551.08	40861.41
551.279	41156.32
551.479	40709.86
551.679	41416.41
551.879	41107.17
552.079	41561.82
552.278	41078.5
552.478	41424.61
552.678	41221.86
552.878	41268.96
553.077	41072.35
553.277	40935.14
553.477	41236.19
553.676	41367.26
553.876	41053.92
554.076	40974.05
554.275	40736.49
554.475	40898.28
554.674	40808.17
554.874	41113.31
555.074	40662.76
555.273	41250.53
555.473	40986.34
555.672	40732.39
555.872	40830.69
556.071	40963.81
556.271	40826.6
556.47	40691.43
556.67	40347.37
556.869	40351.47
557.068	40771.3
557.268	40283.89
557.467	40148.72
557.667	40527.59
557.866	40460.01
558.065	40689.38
558.265	40214.26
558.464	40136.43
558.663	40199.92
558.863	39952.12
559.062	40312.56
559.261	40187.63
559.461	40292.08
559.66	39651.06
559.859	39819
560.058	39374.59
560.258	39929.59
560.457	39735.03
560.656	40244.98
560.855	39509.75
561.054	39997.17
561.253	39513.85
561.453	39231.23
561.652	39708.41
561.851	39528.19
562.05	39034.63
562.249	39190.27
562.448	39778.04
562.647	39483.13
562.846	39104.26
563.045	39245.57
563.244	38776.58
563.443	39214.85
563.642	38692.61
563.841	38768.39
564.04	38795.01
564.239	39051.01
564.438	38588.17
564.637	38551.31
564.836	38721.29
565.035	38364.94
565.234	38407.95
565.432	38305.55
565.631	38092.56
565.83	38510.35
566.029	37996.31
566.228	38168.33
566.427	38090.51
566.625	37887.76
566.824	37619.48
567.023	38145.81
567.222	37365.53
567.42	37988.11
567.619	37533.46
567.818	37459.74
568.016	37295.9
568.215	37723.93
568.414	37287.71
568.612	37404.44
568.811	37224.22
569.01	37332.76
569.208	36462.38
569.407	37140.25
569.605	36790.05
569.804	36769.57
570.002	36656.93
570.201	36966.18
570.4	36245.29
570.598	36261.68
570.797	36489
570.995	36183.85
571.193	36095.79
571.392	36314.92
571.59	35921.71
571.789	36132.65
571.987	35985.2
572.186	35440.44
572.384	35483.45
572.582	35911.47
572.781	35813.17
572.979	35274.56
573.177	35890.99
573.376	35766.07
573.574	35120.96
573.772	35469.11
573.971	35204.92
574.169	34924.35
574.367	35004.22
574.565	35010.37
574.763	34957.12
574.962	34424.65
575.16	34393.93
575.358	34688.84
575.556	34649.92
575.754	34731.84
575.952	34330.44
576.151	34625.35
576.349	34101.07
576.547	34082.64
576.745	34281.29
576.943	33859.41
577.141	33970
577.339	34113.36
577.537	34021.2
577.735	33374.04
577.933	33638.23
578.131	33525.59
578.329	33255.26
578.527	33120.09
578.725	33462.1
578.923	33249.11
579.121	33261.4
579.319	32870.24
579.516	33144.67
579.714	32931.68
579.912	32649.06
580.11	32542.56
580.308	32741.22
580.506	32513.89
580.704	32245.61
580.901	32794.46
581.099	32561
581.297	32098.16
581.495	32268.14
581.692	31899.5
581.89	31819.63
582.088	32526.18
582.285	31962.99
582.483	32055.15
582.681	32104.3
582.878	31510.39
583.076	31469.43
583.274	31647.6
583.471	31420.28
583.669	31553.4
583.866	31467.38
584.064	31367.03
584.262	31070.08
584.459	31272.82
584.657	31012.73
584.854	31082.36
585.052	30523.27
585.249	30752.64
585.447	30785.41
585.644	30582.66
585.841	30406.53
586.039	30732.16
586.236	30058.38
586.434	30148.49
586.631	29939.6
586.828	30105.48
587.026	30209.93
587.223	29972.36
587.42	29626.26
587.618	29945.74
587.815	29667.22
588.012	29603.73
588.21	29718.42
588.407	29396.88
588.604	29464.47
588.801	29067.16
588.999	29034.39
589.196	29067.16
589.393	29261.72
589.59	29153.18
589.787	28766.11
589.984	28643.23
590.182	28542.88
590.379	28827.55
590.576	28620.7
590.773	28796.83
590.97	28227.49
591.167	28579.75
591.364	27940.78
591.561	28188.58
591.758	27991.98
591.955	27893.68
592.152	28184.49
592.349	27957.16
592.546	28149.67
592.743	27645.87
592.94	27457.46
593.137	27774.89
593.334	27582.38
593.531	27312.05
593.727	27592.62
593.924	27350.96
594.121	26986.43
594.318	27391.92
594.515	26859.45
594.712	27426.74
594.908	27039.67
595.105	27086.78
595.302	26654.65
595.499	26605.5
595.696	26517.44
595.892	26560.45
596.089	26822.59
596.286	26410.95
596.482	26363.84
596.679	26445.76
596.876	26482.63
597.072	25890.76
597.269	26386.37
597.466	25857.99
597.662	25741.26
597.859	25769.93
598.055	25997.26
598.252	25700.3
598.448	25679.82
598.645	25212.88
598.841	25434.07
599.038	25530.32
599.234	25667.53
599.431	25309.14
599.627	25278.42
599.824	25311.19
600.02	24997.85
600.217	25276.37
600.413	24817.63
600.609	24672.22
600.806	24897.5
601.002	25112.53
601.198	24592.35
601.395	24492
601.591	24596.45
601.787	24475.62
601.984	24448.99
602.18	24403.94
602.376	24104.93
602.572	24258.53
602.769	24129.51
602.965	23807.98
603.161	23977.96
603.357	23783.4
603.553	23861.23
603.75	23703.53
603.946	23400.43
604.142	23572.46
604.338	23334.9
604.534	23441.39
604.73	23244.79
604.926	23318.51
605.122	23580.65
605.318	22925.3
605.514	23164.92
605.71	22970.36
605.906	22947.83
606.102	22622.2
606.298	22949.88
606.494	22794.23
606.69	22730.75
606.886	22794.23
607.082	22341.63
607.278	22767.61
607.474	22239.23
607.67	22550.53
607.866	21911.56
608.062	22640.64
608.257	22411.26
608.453	22044.68
608.649	22599.68
608.845	21854.22
609.041	22267.91
609.236	22093.83
609.432	21688.33
609.628	21968.9
609.824	21817.35
610.019	22026.25
610.215	22042.63
610.411	22153.22
610.606	21768.2
610.802	21839.88
610.998	21534.73
611.193	21616.65
611.389	21426.19
611.584	21491.73
611.78	21616.65
611.976	21852.17
612.171	21233.68
612.367	21194.77
612.562	21465.1
612.758	20912.15
612.953	20906.01
613.149	21364.75
613.344	21227.54
613.539	21155.86
613.735	21213.2
613.93	21051.41
614.126	21078.04
614.321	21094.42
614.517	20838.42
614.712	20699.16
614.907	20725.79
615.103	20871.19
615.298	20772.89
615.493	20903.96
615.688	20383.77
615.884	20588.57
616.079	20625.43
616.274	20733.98
616.47	20615.19
616.665	20461.6
616.86	20529.18
617.055	20166.69
617.25	20164.64
617.445	20574.24
617.641	19961.89
617.836	20164.64
618.031	19996.71
618.226	20039.72
618.421	19767.34
618.616	19873.83
618.811	19734.57
619.006	20619.29
619.201	19394.61
619.396	19851.3
619.591	19032.11
619.786	19810.34
619.981	19273.78
620.176	19595.31
620.371	19044.4
620.566	19195.95
620.761	18849.85
620.956	19363.89
621.151	18810.93
621.346	18974.77
621.541	18772.02
621.735	18716.73
621.93	18372.67
622.125	18364.48
622.32	18292.8
622.515	18454.59
622.709	18194.5
622.904	18411.58
623.099	18157.63
623.294	17956.93
623.488	17909.83
623.683	18059.33
623.878	17535.05
624.072	17754.18
624.267	17676.36
624.462	17639.5
624.656	17227.85
624.851	17348.68
625.046	17272.91
625.24	17047.63
625.435	16982.1
625.629	16969.81
625.824	16969.81
626.018	16830.55
626.213	16296.03
626.407	16502.87
626.602	16427.1
626.796	16308.32
626.991	16476.25
627.185	16138.34
627.38	15943.78
627.574	15712.36
627.768	15888.48
627.963	15790.18
628.157	15569
628.352	15534.18
628.546	15511.66
628.74	15425.64
628.935	15212.65
629.129	15433.83
629.323	15085.68
629.517	15204.46
629.712	15132.78
629.906	15065.2
630.1	14930.03
630.294	15034.48
630.489	14850.16
630.683	14755.96
630.877	14645.37
631.071	14440.57
631.265	14631.03
631.459	14645.37
631.653	14381.18
631.848	14084.22
632.042	13899.91
632.236	13953.15
632.43	13969.54
632.624	14104.7
632.818	13953.15
633.012	13668.48
633.206	13740.16
633.4	13908.1
633.594	13588.61
633.788	13545.61
633.982	13478.02
634.176	13453.45
634.369	13475.98
634.563	13246.6
634.757	13146.25
634.951	13103.25
635.145	13248.65
635.339	13193.36
635.533	12781.71
635.726	12859.54
635.92	12839.06
636.114	12896.4
636.308	12503.19
636.501	12587.16
636.695	12687.51
636.889	12429.46
637.083	12472.47
637.276	12302.49
637.47	12396.7
637.664	12112.03
637.857	12284.06
638.051	11964.57
638.244	11788.45
638.438	11958.43
638.632	11833.5
638.825	11802.79
639.019	11839.65
639.212	11782.31
639.406	11741.35
639.599	11497.64
639.793	11557.03
639.986	11348.14
640.18	11430.05
640.373	11505.83
640.567	11196.59
640.76	11399.34
640.954	11047.08
641.147	11081.9
641.34	11190.44
641.534	11040.94
641.727	10780.85
641.92	10938.54
642.114	10766.51
642.307	10690.74
642.5	10627.25
642.694	10537.14
642.887	10367.16
643.08	10645.68
643.273	10447.03
643.467	10406.07
643.66	10162.36
643.853	10178.75
644.046	10225.85
644.239	10201.27
644.432	10047.68
644.626	10033.34
644.819	10021.05
645.012	10051.77
645.205	10041.53
645.398	10035.39
645.591	9707.71
645.784	9670.85
645.977	9547.97
646.17	9527.49
646.363	9693.38
646.556	9509.06
646.749	9533.64
646.942	9572.55
647.135	9259.21
647.328	9476.29
647.521	9177.29
647.714	9437.38
647.907	9091.27
648.099	9001.16
648.292	8990.92
648.485	9085.13
648.678	8917.2
648.871	9066.7
649.064	8874.19
649.256	8945.87
649.449	8751.31
649.642	8777.94
649.835	8755.41
650.027	8538.32
650.22	8677.58
650.413	8636.63
650.605	8458.45
650.798	8431.83
650.991	8235.22
651.183	8358.1
651.376	8480.98
651.568	8435.92
651.761	8341.72
651.954	8280.28
652.146	8155.35
652.339	7944.41
652.531	8214.74
652.724	7942.36
652.916	8034.52
653.109	7944.41
653.301	8091.87
653.494	7968.99
653.686	7731.42
653.879	7960.8
654.071	7891.16
654.263	7588.07
654.456	7721.18
654.648	7760.09
654.84	7629.02
655.033	7629.02
655.225	7653.6
655.417	7497.95
655.61	7450.85
655.802	7559.39
655.994	7229.67
656.186	7473.38
656.379	7483.62
656.571	7362.79
656.763	7325.93
656.955	7203.05
657.148	7227.62
657.34	7168.23
657.532	7078.12
657.724	7020.78
657.916	7014.63
658.108	6990.06
658.3	6932.72
658.492	6875.37
658.684	6922.48
658.876	6881.52
659.068	6818.03
659.26	6828.27
659.452	6889.71
659.644	6826.22
659.836	6609.14
660.028	6762.73
660.22	6539.51
660.412	6508.79
660.604	6414.58
660.796	6531.31
660.988	6414.58
661.18	6392.05
661.372	6408.44
661.563	6303.99
661.755	6312.18
661.947	6281.46
662.139	6383.86
662.331	6215.93
662.522	6328.56
662.714	6252.79
662.906	6091
663.097	6185.21
663.289	6170.87
663.481	6068.47
663.673	6056.18
663.864	5884.16
664.056	5916.92
664.247	5843.2
664.439	5781.76
664.631	5959.93
664.822	5904.64
665.014	5859.58
665.205	5843.2
665.397	5619.97
665.588	5863.68
665.78	5662.97
665.971	5660.93
666.163	5615.87
666.354	5576.96
666.546	5579.01
666.737	5421.31
666.929	5509.38
667.12	5662.97
667.311	5570.82
667.503	5384.45
667.694	5495.04
667.885	5544.19
668.077	5452.03
668.268	5208.33
668.459	5310.72
668.651	5482.75
668.842	5370.12
669.033	5175.56
669.224	5216.52
669.416	5204.23
669.607	5175.56
669.798	5198.09
669.989	5353.73
670.18	5228.81
670.371	5122.31
670.563	5130.5
670.754	5173.51
670.945	4886.79
671.136	4999.43
671.327	5081.35
671.518	4983.05
671.709	4868.36
671.9	4983.05
672.091	4892.94
672.282	5044.49
672.473	4993.29
672.664	4917.51
672.855	4739.34
673.046	4780.3
673.237	4874.51
673.428	4868.36
673.619	4802.83
673.809	4774.16
674	4874.51
674.191	4659.47
674.382	4612.37
674.573	4700.43
674.764	4540.69
674.954	4565.26
675.145	4763.92
675.336	4741.39
675.527	4616.46
675.717	4747.53
675.908	4518.16
676.099	4552.98
676.289	4647.18
676.48	4505.87
676.671	4469.01
676.861	4512.02
677.052	4628.75
677.243	4448.53
677.433	4516.11
677.624	4401.43
677.814	4471.06
678.005	4401.43
678.195	4385.04
678.386	4487.44
678.576	4360.47
678.767	4460.82
678.957	4374.8
679.148	4327.7
679.338	4301.08
679.529	4475.15
679.719	4403.47
679.909	4503.82
680.1	4319.51
680.29	4327.7
680.481	4278.55
680.671	4339.99
680.861	4286.74
681.052	4286.74
681.242	4323.6
681.432	4331.8
681.622	4155.67
681.813	4157.72
682.003	4253.97
682.193	4122.9
682.383	4231.44
682.573	4008.22
682.764	4272.4
682.954	4221.2
683.144	4184.34
683.334	4165.91
683.524	4163.86
683.714	4104.47
683.904	4106.52
684.094	3940.63
684.284	4024.6
684.474	4088.09
684.664	4043.03
684.854	4059.42
685.044	4012.31
685.234	4008.22
685.424	3836.19
685.614	3971.35
685.804	4051.22
685.994	4098.33
686.184	4061.46
686.374	4069.66
686.564	3846.43
686.753	3748.12
686.943	3897.63
687.133	3862.81
687.323	3813.66
687.513	3885.34
687.702	3852.57
687.892	3696.92
688.082	3729.69
688.272	3866.91
688.461	3813.66
688.651	3840.28
688.841	3778.84
689.03	3787.04
689.22	3737.88
689.41	3750.17
689.599	3703.07
689.789	3565.85
689.979	3633.44
690.168	3641.63
690.358	3559.71
690.547	3617.05
690.737	3555.62
690.926	3631.39
691.116	3561.76
691.305	3651.87
691.495	3467.55
691.684	3514.66
691.874	3471.65
692.063	3520.8
692.252	3346.72
692.442	3359.01
692.631	3336.48
692.82	3385.63
693.01	3336.48
693.199	3469.6
693.388	3291.43
693.578	3311.91
693.767	3412.26
693.956	3279.14
694.146	3412.26
694.335	3197.22
694.524	3186.98
694.713	3316
694.902	3180.84
695.092	3275.04
695.281	3141.93
695.47	3279.14
695.659	3316
695.848	3293.48
696.037	3176.74
696.226	3324.19
696.415	3254.56
696.604	3217.7
696.793	3172.64
696.982	3109.16
697.171	3240.23
697.36	3205.41
697.549	3164.45
697.738	3090.73
697.927	3221.8
698.116	3100.97
698.305	3150.12
698.494	3354.91
698.683	3084.58
698.872	3225.89
699.061	3021.1
699.25	3037.48
699.438	3068.2
699.627	3062.05
699.816	3100.97
700.005	3064.1
700.193	3019.05
700.382	3135.78
700.571	3209.51
700.76	3164.45
700.948	3164.45
701.137	2914.6
701.326	3027.24
701.514	2935.08
701.703	3094.82
701.892	2935.08
702.08	3363.11
702.269	3008.81
702.457	2920.74
702.646	3131.69
702.834	2896.17
703.023	2947.37
703.212	2928.94
703.4	2994.47
703.589	2906.41
703.777	3002.66
703.965	2967.85
704.154	2853.16
704.342	2879.79
704.531	2885.93
704.719	2961.7
704.907	2971.94
705.096	2838.83
705.284	2842.92
705.472	2996.52
705.661	2926.89
705.849	2877.74
706.037	2984.23
706.226	2744.62
706.414	2828.59
706.602	2752.81
706.79	2754.86
706.979	2791.72
707.167	2732.33
707.355	2806.06
707.543	2853.16
707.731	2918.7
707.919	2804.01
708.107	2787.63
708.296	2799.91
708.484	2730.28
708.672	2779.43
708.86	2847.02
709.048	2801.96
709.236	2836.78
709.424	2754.86
709.612	2683.18
709.8	2791.72
709.988	2795.82
710.176	2836.78
710.364	2775.34
710.551	2783.53
710.739	2683.18
710.927	2718
711.115	2820.39
711.303	2742.57
711.491	2662.7
711.679	2640.17
711.866	2648.36
712.054	2668.84
712.242	2662.7
712.43	2720.04
712.617	2705.71
712.805	2615.6
712.993	2552.11
713.181	2558.25
713.368	2732.33
713.556	2595.12
713.744	2554.16
713.931	2636.08
714.119	2707.76
714.306	2652.46
714.494	2599.21
714.682	2644.27
714.869	2672.94
715.057	2713.9
715.244	2625.84
715.432	2605.36
715.619	2476.34
715.807	2648.36
715.994	2611.5
716.182	2642.22
716.369	2459.95
716.556	2705.71
716.744	2656.56
716.931	2564.4
717.119	2726.19
717.306	2513.2
717.493	2484.53
717.681	2552.11
717.868	2591.02
718.055	2621.74
718.242	2570.54
718.43	2545.97
718.617	2492.72
718.804	2353.46
718.991	2558.25
719.179	2566.45
719.366	2535.73
719.553	2566.45
719.74	2429.23
719.927	2507.06
720.114	2492.72
720.301	2459.95
720.488	2439.47
720.676	2541.87
720.863	2531.63
721.05	2576.69
721.237	2543.92
721.424	2431.28
721.611	2599.21
721.798	2402.61
721.985	2353.46
722.172	2431.28
722.358	2414.9
722.545	2502.96
722.732	2494.77
722.919	2449.71
723.106	2343.22
723.293	2513.2
723.48	2568.49
723.667	2445.62
723.853	2427.18
724.04	2390.32
724.227	2427.18
724.414	2298.16
724.6	2414.9
724.787	2433.33
724.974	2378.03
725.161	2410.8
725.347	2322.74
725.534	2445.62
725.72	2328.88
725.907	2410.8
726.094	2447.66
726.28	2349.36
726.467	2337.07
726.653	2263.35
726.84	2371.89
727.027	2423.09
727.213	2259.25
727.4	2380.08
727.586	2316.59
727.773	2296.11
727.959	2337.07
728.145	2330.93
728.332	2298.16
728.518	2242.87
728.705	2318.64
728.891	2281.78
729.077	2224.44
729.264	2332.98
729.45	2152.76
729.636	2281.78
729.823	2289.97
730.009	2382.13
730.195	2273.59
730.382	2246.96
730.568	2271.54
730.754	2341.17
730.94	2257.2
731.126	2185.52
731.313	2253.11
731.499	2275.63
731.685	2388.27
731.871	2322.74
732.057	2287.92
732.243	2292.02
732.429	2167.09
732.615	2255.15
732.801	2296.11
732.987	2230.58
733.173	2320.69
733.359	2193.72
733.545	2308.4
733.731	2122.04
733.917	2281.78
734.103	2238.77
734.289	2201.91
734.475	2208.05
734.661	2136.37
734.847	2265.39
735.033	2294.07
735.219	2146.61
735.404	2156.85
735.59	2099.51
735.776	2134.32
735.962	2165.04
736.148	2222.39
736.333	2111.8
736.519	2210.1
736.705	2054.45
736.89	2206
737.076	2210.1
737.262	2214.2
737.447	2181.43
737.633	2068.79
737.819	2070.84
738.004	2150.71
738.19	2199.86
738.375	2197.81
738.561	2140.47
738.747	2091.32
738.932	2126.13
739.118	2206
739.303	2113.85
739.489	2091.32
739.674	1986.87
739.859	2038.07
740.045	2036.02
740.23	2093.37
740.416	1978.68
740.601	2087.22
740.786	1970.49
740.972	1894.71
741.157	2107.7
741.342	1972.54
741.528	1976.63
741.713	1933.62
741.898	2011.45
742.084	1947.96
742.269	2044.21
742.454	1976.63
742.639	1874.23
742.824	2027.83
743.01	1882.42
743.195	2033.97
743.38	1859.9
743.565	1874.23
743.75	1943.86
743.935	1833.27
744.12	2005.3
744.305	1898.81
744.49	1892.66
744.675	1843.51
744.86	1888.57
745.045	1863.99
745.23	1863.99
745.415	1939.77
745.6	1890.62
745.785	1653.05
745.97	1702.2
746.155	1814.84
746.34	1833.27
746.525	1753.4
746.71	1808.7
746.895	1640.76
747.079	1704.25
747.264	1812.79
747.449	1796.41
747.634	1765.69
747.819	1765.69
748.003	1679.68
748.188	1628.48
748.373	1734.97
748.557	1687.87
748.742	1638.72
748.927	1620.28
749.111	1585.47
749.296	1605.95
749.481	1626.43
749.665	1698.11
749.85	1534.27
750.034	1603.9
750.219	1636.67
750.404	1476.93
750.588	1581.37
750.773	1411.39
750.957	1585.47
751.141	1509.69
751.326	1567.04
751.51	1401.15
751.695	1444.16
751.879	1497.41
752.064	1528.13
752.248	1499.45
752.432	1476.93
752.617	1364.29
752.801	1458.5
752.985	1442.11
753.17	1438.02
753.354	1431.87
753.538	1411.39
753.722	1372.48
753.907	1415.49
754.091	1333.57
754.275	1413.44
754.459	1298.75
754.643	1362.24
754.828	1290.56
755.012	1259.84
755.196	1296.71
755.38	1292.61
755.564	1270.08
755.748	1321.28
755.932	1263.94
756.116	1311.04
756.3	1126.72
756.484	1151.3
756.668	1233.22
756.852	1143.11
757.036	1274.18
757.22	1173.83
757.404	1081.67
757.588	1110.34
757.772	1165.64
757.956	1132.87
758.14	1130.82
758.323	1050.95
758.507	1128.77
758.691	1192.26
758.875	1077.57
759.059	1130.82
759.242	1020.23
759.426	1093.96
759.61	1126.72
759.794	1055.05
759.977	1132.87
760.161	1132.87
760.345	1100.1
760.528	1026.37
760.712	1079.62
760.895	1034.57
761.079	1141.06
761.263	1034.57
761.446	989.51
761.63	960.84
761.813	1081.67
761.997	993.61
762.18	1003.85
762.364	1012.04
762.547	891.21
762.731	858.44
762.914	958.79
763.098	874.82
763.281	977.22
763.464	923.98
763.648	969.03
763.831	979.27
764.015	926.02
764.198	926.02
764.381	952.65
764.564	962.89
764.748	895.3
764.931	936.26
765.114	880.97
765.297	934.22
765.481	956.74
765.664	889.16
765.847	817.48
766.03	905.54
766.213	833.86
766.397	821.58
766.58	825.67
766.763	977.22
766.946	866.63
767.129	885.06
767.312	803.15
767.495	870.73
767.678	817.48
767.861	797
768.044	825.67
768.227	815.43
768.41	866.63
768.593	870.73
768.776	741.71
768.959	905.54
769.142	784.71
769.324	874.82
769.507	844.1
769.69	842.06
769.873	788.81
770.056	858.44
770.239	725.32
770.421	815.43
770.604	821.58
770.787	741.71
770.97	817.48
771.152	710.99
771.335	797
771.518	747.85
771.7	751.95
771.883	715.08
772.066	698.7
772.248	784.71
772.431	737.61
772.613	772.43
772.796	823.62
772.978	772.43
773.161	790.86
773.343	741.71
773.526	751.95
773.708	674.12
773.891	706.89
774.073	678.22
774.256	756.04
774.438	651.6
774.621	665.93
774.803	659.79
774.985	584.01
775.168	674.12
775.35	641.36
775.532	708.94
775.715	577.87
775.897	706.89
776.079	618.83
776.261	731.47
776.444	653.64
776.626	586.06
776.808	594.25
776.99	579.92
777.173	600.4
777.355	522.57
777.537	592.2
777.719	618.83
777.901	575.82
778.083	545.1
778.265	526.67
778.447	665.93
778.629	596.3
778.811	594.25
778.993	608.59
779.175	565.58
779.357	547.15
779.539	467.28
779.721	547.15
779.903	479.57
780.085	489.81
780.267	504.14
780.449	547.15
780.631	586.06
780.812	561.48
780.994	567.63
781.176	498
781.358	514.38
781.54	547.15
781.721	502.09
781.903	428.37
782.085	465.23
782.267	545.1
782.448	403.79
782.63	448.85
782.812	487.76
782.993	536.91
783.175	452.94
783.357	469.33
783.538	481.61
783.72	461.13
783.901	411.98
784.083	465.23
784.264	375.12
784.446	444.75
784.627	405.84
784.809	403.79
784.99	383.31
785.172	418.13
785.353	389.46
785.535	414.03
785.716	354.64
785.897	362.83
786.079	330.06
786.26	481.61
786.441	399.7
786.623	362.83
786.804	354.64
786.985	325.97
787.167	440.65
787.348	436.56
787.529	395.6
787.71	389.46
787.891	354.64
788.073	328.02
788.254	301.39
788.435	403.79
788.616	405.84
788.797	348.5
788.978	315.73
789.159	289.1
789.34	340.3
789.522	301.39
789.703	405.84
789.884	381.26
790.065	305.49
790.246	395.6
790.427	338.26
790.607	442.7
790.788	338.26
790.969	264.53
791.15	330.06
791.331	266.58
791.512	295.25
791.693	291.15
791.874	330.06
792.054	346.45
792.235	360.78
792.416	280.91
792.597	244.05
792.778	379.22
792.958	305.49
793.139	282.96
793.32	330.06
793.5	268.63
793.681	362.83
793.862	285.01
794.042	321.87
794.223	287.06
794.404	239.95
794.584	217.43
794.765	235.86
794.945	270.67
795.126	280.91
795.306	258.39
795.487	256.34
795.667	280.91
795.848	301.39
796.028	215.38
796.209	248.15
796.389	252.24
796.57	244.05
796.75	266.58
796.93	301.39
797.111	323.92
797.291	330.06
797.471	242
797.652	285.01
797.832	198.99
798.012	244.05
798.192	248.15
798.373	182.61
798.553	223.57
798.733	274.77
798.913	194.9
799.093	262.48
799.274	170.32
799.454	305.49
799.634	252.24
799.814	248.15
799.994	201.04
800.174	223.57
800.354	242
800.534	125.27
800.714	162.13
800.894	184.66
801.074	194.9
801.254	225.62
801.434	321.87
801.614	190.8
801.794	80.21
801.974	747.85
802.154	174.42
802.334	178.51
802.514	178.51
802.693	188.75
802.873	186.71
803.053	203.09
803.233	182.61
803.413	235.86
803.592	252.24
803.772	166.23
803.952	182.61
804.131	196.95
804.311	198.99
804.491	143.7
804.67	180.56
804.85	137.56
805.03	211.28
805.209	207.19
805.389	205.14
805.568	213.33
805.748	131.41
805.928	223.57
806.107	242
806.287	143.7
806.466	172.37
806.646	151.89
806.825	129.36
807.004	117.08
807.184	213.33
807.363	192.85
807.543	174.42
807.722	125.27
807.901	182.61
808.081	207.19
808.26	170.32
808.439	125.27
808.619	125.27
808.798	176.47
808.977	198.99
809.156	166.23
809.336	162.13
809.515	184.66
809.694	112.98
809.873	143.7
810.052	145.75
810.231	127.32
810.411	178.51
810.59	180.56
810.769	160.08
810.948	201.04
811.127	102.74
811.306	176.47
811.485	123.22
811.664	174.42
811.843	139.6
812.022	182.61
812.201	100.69
812.38	125.27
812.559	108.88
812.737	256.34
812.916	127.32
813.095	129.36
813.274	57.68
813.453	129.36
813.632	127.32
813.811	78.16
813.989	63.83
814.168	72.02
814.347	88.4
814.526	100.69
814.704	125.27
814.883	125.27
815.062	69.97
815.24	133.46
815.419	108.88
815.598	137.56
815.776	31.06
815.955	217.43
816.133	108.88
816.312	166.23
816.49	29.01
816.669	125.27
816.847	96.6
817.026	131.41
817.204	203.09
817.383	108.88
817.561	133.46
817.74	135.51
817.918	139.6
818.097	61.78
818.275	69.97
818.453	129.36
818.632	115.03
818.81	59.73
818.988	53.59
819.167	110.93
819.345	117.08
819.523	76.12
819.701	94.55
819.879	209.23
820.058	104.79
820.236	117.08
820.414	149.84
820.592	174.42
820.77	41.3
820.948	108.88
821.127	78.16
821.305	125.27
821.483	14.68
821.661	67.92
821.839	121.17
822.017	59.73
822.195	119.12
822.373	90.45
822.551	55.64
822.729	110.93
822.907	67.92
823.085	198.99
823.262	43.35
823.44	78.16
823.618	117.08
823.796	119.12
823.974	22.87
824.152	26.96
824.329	119.12
824.507	125.27
824.685	108.88
824.863	84.31
825.04	121.17
825.218	160.08
825.396	125.27
825.574	166.23
825.751	82.26
825.929	55.64
826.107	18.77
826.284	78.16
826.462	119.12
826.639	6.49
826.817	115.03
826.994	100.69
827.172	100.69
827.349	147.8
827.527	108.88
827.704	80.21
827.882	67.92
828.059	129.36
828.237	86.36
828.414	125.27
828.591	63.83
828.769	67.92
828.946	-22.19
829.124	86.36
829.301	37.2
829.478	100.69
829.655	59.73
829.833	84.31
830.01	33.11
830.187	92.5
830.364	88.4
830.542	49.49
830.719	76.12
830.896	158.03
831.073	106.84
831.25	92.5
831.427	51.54
831.604	133.46
831.782	67.92
831.959	86.36
832.136	45.4
832.313	53.59
832.49	59.73
832.667	33.11
832.844	49.49
833.021	51.54
833.198	55.64
833.374	18.77
833.551	78.16
833.728	78.16
833.905	110.93
834.082	-42.67
834.259	67.92
834.436	61.78
834.612	-5.8
834.789	2.39
834.966	18.77
835.143	104.79
835.319	88.4
835.496	35.16
835.673	63.83
835.85	78.16
836.026	88.4
836.203	51.54
836.38	22.87
836.556	43.35
836.733	-5.8
836.909	76.12
837.086	29.01
837.262	14.68
837.439	69.97
837.616	33.11
837.792	35.16
837.968	18.77
838.145	76.12
838.321	-11.95
838.498	-1.71
838.674	47.44
838.851	88.4
839.027	166.23
839.203	51.54
839.38	84.31
839.556	18.77
839.732	100.69
839.909	29.01
840.085	92.5
840.261	49.49
840.437	74.07
840.614	39.25
840.79	123.22
840.966	123.22
841.142	45.4
841.318	51.54
841.494	53.59
841.671	86.36
841.847	-13.99
842.023	-13.99
842.199	65.88
842.375	10.58
842.551	2.39
842.727	33.11
842.903	67.92
843.079	4.44
843.255	-1.71
843.431	-59.05
843.607	61.78
843.783	29.01
843.959	102.74
844.134	18.77
844.31	10.58
844.486	-5.8
844.662	-5.8
844.838	100.69
845.013	-7.85
845.189	-40.62
845.365	74.07
845.541	-3.75
845.716	31.06
845.892	35.16
846.068	51.54
846.244	69.97
846.419	47.44
846.595	6.49
846.77	51.54
846.946	16.73
847.122	22.87
847.297	-7.85
847.473	35.16
847.648	-54.95
847.824	33.11
847.999	2.39
848.175	-16.04
848.35	-13.99
848.526	43.35
848.701	84.31
848.876	-7.85
849.052	76.12
849.227	39.25
849.403	78.16
849.578	43.35
849.753	-26.28
849.929	33.11
850.104	4.44
850.279	2.39
850.454	35.16
850.63	18.77
850.805	35.16
850.98	59.73
851.155	104.79
851.33	0.34
851.505	-38.57
851.681	108.88
851.856	22.87
852.031	47.44
852.206	6.49
852.381	16.73
852.556	-9.9
852.731	-69.29
852.906	35.16
853.081	86.36
853.256	80.21
853.431	22.87
853.606	49.49
853.781	12.63
853.956	18.77
854.131	76.12
854.305	22.87
854.48	37.2
854.655	-20.14
854.83	-26.28
855.005	37.2
855.18	-5.8
855.354	18.77
855.529	51.54
855.704	35.16
855.879	12.63
856.053	29.01
856.228	12.63
856.403	-5.8
856.577	59.73
856.752	-16.04
856.926	72.02
857.101	29.01
857.276	26.96
857.45	74.07
857.625	55.64
857.799	-38.57
857.974	-48.81
858.148	20.82
858.323	55.64
858.497	-5.8
858.672	18.77
858.846	-9.9
859.02	45.4
859.195	22.87
859.369	31.06
859.543	51.54
859.718	-13.99
859.892	-57
860.066	37.2
860.241	26.96
860.415	26.96
860.589	26.96
860.763	53.59
860.938	-50.86
861.112	0.34
861.286	-54.95
861.46	-5.8
861.634	-20.14
861.808	67.92
861.982	84.31
862.157	-38.57
862.331	6.49
862.505	29.01
862.679	-5.8
862.853	63.83
863.027	59.73
863.201	135.51
863.375	14.68
863.549	51.54
863.722	18.77
863.896	88.4
864.07	53.59
864.244	-36.52
864.418	-7.85
864.592	37.2
864.766	39.25
864.939	22.87
865.113	-11.95
865.287	29.01
865.461	12.63
865.634	14.68
865.808	2.39
865.982	-9.9
866.156	63.83
866.329	-42.67
866.503	-46.76
866.676	53.59
866.85	14.68
867.024	33.11
867.197	-5.8
867.371	10.58
867.544	41.3
867.718	24.92
867.891	-38.57
868.065	6.49
868.238	12.63
868.412	63.83
868.585	-26.28
868.759	-36.52
868.932	65.88
869.105	-24.23
869.279	45.4
869.452	14.68
869.625	-36.52
869.799	-20.14
869.972	-22.19
870.145	-20.14
870.319	-5.8
870.492	-22.19
870.665	2.39
870.838	-9.9
871.011	-118.44
871.185	35.16
871.358	-65.19
871.531	-59.05
871.704	-5.8
871.877	-13.99
872.05	45.4
872.223	2.39
872.396	8.53
872.569	37.2
872.742	-30.38
872.915	39.25
873.088	39.25
873.261	4.44
873.434	-18.09
873.607	2.39
873.78	29.01
873.953	-28.33
874.126	51.54
874.299	53.59
874.471	2.39
874.644	-67.24
874.817	-9.9
874.99	96.6
875.163	-34.47
875.335	59.73
875.508	-20.14
875.681	37.2
875.853	-54.95
876.026	-9.9
876.199	72.02
876.371	18.77
876.544	10.58
876.717	-26.28
876.889	-24.23
877.062	26.96
877.234	-13.99
877.407	2.39
877.579	10.58
877.752	-5.8
877.924	-28.33
878.097	39.25
878.269	14.68
878.442	35.16
878.614	-42.67
878.786	-140.97
878.959	35.16
879.131	-5.8
879.303	-3.75
879.476	-30.38
879.648	10.58
879.82	-5.8
879.993	29.01
880.165	29.01
880.337	-20.14
880.509	-79.53
880.681	6.49
880.854	-34.47
881.026	-3.75
881.198	51.54
881.37	31.06
881.542	39.25
881.714	8.53
881.886	-22.19
882.058	22.87
882.23	-69.29
882.402	-61.1
882.574	26.96
882.746	-30.38
882.918	76.12
883.09	-38.57
883.262	-36.52
883.434	39.25
883.606	18.77
883.778	-30.38
883.95	-3.75
884.122	-38.57
884.293	55.64
884.465	72.02
884.637	96.6
884.809	-34.47
884.98	26.96
885.152	4.44
885.324	8.53
885.496	-34.47
885.667	45.4
885.839	18.77
886.011	-69.29
886.182	39.25
886.354	100.69
886.525	10.58
886.697	-22.19
886.869	29.01
887.04	-42.67
887.212	-13.99
887.383	43.35
887.555	-13.99
887.726	-50.86
887.897	4.44
888.069	43.35
888.24	-30.38
888.412	-11.95
888.583	-44.71
888.754	-22.19
888.926	-28.33
889.097	6.49
889.268	26.96
889.44	39.25
889.611	-71.34
889.782	-89.77
889.953	-61.1
890.125	67.92
890.296	-38.57
890.467	-46.76
890.638	18.77
890.809	55.64
890.98	53.59
891.151	18.77
891.323	100.69
891.494	37.2
891.665	-57
891.836	-22.19
892.007	-30.38
892.178	26.96
892.349	24.92
892.52	-22.19
892.691	24.92
892.862	37.2
893.032	-36.52
893.203	10.58
893.374	6.49
893.545	78.16
893.716	-20.14
893.887	-28.33
894.057	-5.8
894.228	-50.86
894.399	-1.71
894.57	18.77
894.74	-20.14
894.911	-1.71
895.082	-28.33
895.253	-54.95
895.423	-42.67
895.594	33.11
895.764	6.49
895.935	-11.95
896.106	-34.47
896.276	-61.1
896.447	-22.19
896.617	-24.23
896.788	51.54
896.958	22.87
897.129	-57
897.299	10.58
897.47	-13.99
897.64	-42.67
897.81	26.96
897.981	41.3
898.151	55.64
898.322	43.35
898.492	-13.99
898.662	4.44
898.832	-5.8
899.003	-57
899.173	-38.57
899.343	18.77
899.513	-5.8
