Data from USB4F104151__80__14-17-42-946.txt Node

Date: Thu Mar 13 14:17:42 EDT 2025
User: louis
Spectrometer: USB4F10415
Trigger mode: 4
Integration Time (sec): 2.000000E-2
Scans to average: 1
Electric dark correction enabled: true
Nonlinearity correction enabled: false
Boxcar width: 0
XAxis mode: Wavelengths
Number of Pixels in Spectrum: 3648
>>>>>Begin Spectral Data<<<<<
178.204	-52.22
178.424	-52.22
178.644	-52.22
178.864	-117.76
179.084	-93.18
179.304	-11.26
179.524	-29.7
179.744	15.36
179.964	-44.03
180.184	-1.02
180.404	27.65
180.624	5.12
180.844	-9.22
181.064	-27.65
181.283	39.94
181.503	17.41
181.723	17.41
181.943	-11.26
182.163	5.12
182.383	66.56
182.602	76.8
182.822	-48.13
183.042	54.27
183.262	5.12
183.482	9.22
183.701	-11.26
183.921	-3.07
184.141	-25.6
184.361	-1.02
184.58	-50.18
184.8	29.7
185.02	-44.03
185.239	21.5
185.459	-21.5
185.679	15.36
185.898	-23.55
186.118	39.94
186.338	-11.26
186.557	5.12
186.777	62.46
186.997	66.56
187.216	13.31
187.436	89.09
187.655	52.22
187.875	33.79
188.095	-11.26
188.314	82.94
188.534	46.08
188.753	15.36
188.973	-7.17
189.192	-17.41
189.412	-5.12
189.631	21.5
189.851	-19.46
190.07	-3.07
190.29	-44.03
190.509	78.85
190.729	-3.07
190.948	-5.12
191.168	31.74
191.387	78.85
191.607	13.31
191.826	-39.94
192.045	-15.36
192.265	23.55
192.484	29.7
192.704	-13.31
192.923	48.13
193.142	17.41
193.362	-9.22
193.581	70.65
193.8	72.7
194.02	-3.07
194.239	9.22
194.458	52.22
194.678	-7.17
194.897	-11.26
195.116	-7.17
195.335	9.22
195.555	48.13
195.774	29.7
195.993	25.6
196.212	13.31
196.432	-21.5
196.651	87.04
196.87	-15.36
197.089	-23.55
197.308	37.89
197.528	97.28
197.747	15.36
197.966	37.89
198.185	64.51
198.404	5.12
198.623	56.32
198.842	52.22
199.062	48.13
199.281	54.27
199.5	9.22
199.719	-27.65
199.938	-35.84
200.157	13.31
200.376	64.51
200.595	3.07
200.814	21.5
201.033	35.84
201.252	-11.26
201.471	13.31
201.69	23.55
201.909	56.32
202.128	5.12
202.347	78.85
202.566	-3.07
202.785	-19.46
203.004	21.5
203.223	60.42
203.442	68.61
203.661	48.13
203.879	-68.61
204.098	82.94
204.317	50.18
204.536	-35.84
204.755	9.22
204.974	52.22
205.193	21.5
205.411	95.23
205.63	5.12
205.849	54.27
206.068	-11.26
206.287	-25.6
206.505	128
206.724	-11.26
206.943	58.37
207.162	33.79
207.381	3.07
207.599	-64.51
207.818	54.27
208.037	27.65
208.255	-11.26
208.474	-11.26
208.693	-5.12
208.911	3.07
209.13	-41.98
209.349	64.51
209.567	-3.07
209.786	84.99
210.005	-9.22
210.223	17.41
210.442	-11.26
210.661	31.74
210.879	-35.84
211.098	1.02
211.316	-35.84
211.535	-1.02
211.753	29.7
211.972	68.61
212.191	-25.6
212.409	48.13
212.628	44.03
212.846	-11.26
213.065	29.7
213.283	29.7
213.502	25.6
213.72	25.6
213.938	82.94
214.157	-39.94
214.375	39.94
214.594	19.46
214.812	-17.41
215.031	31.74
215.249	60.42
215.467	72.7
215.686	-23.55
215.904	48.13
216.122	21.5
216.341	23.55
216.559	5.12
216.778	48.13
216.996	-1.02
217.214	-15.36
217.432	5.12
217.651	17.41
217.869	-76.8
218.087	-3.07
218.306	-15.36
218.524	-19.46
218.742	17.41
218.96	23.55
219.179	-17.41
219.397	-13.31
219.615	62.46
219.833	62.46
220.051	31.74
220.27	21.5
220.488	7.17
220.706	25.6
220.924	-11.26
221.142	1.02
221.36	-3.07
221.578	54.27
221.796	3.07
222.015	50.18
222.233	13.31
222.451	29.7
222.669	-27.65
222.887	46.08
223.105	7.17
223.323	13.31
223.541	-3.07
223.759	78.85
223.977	39.94
224.195	82.94
224.413	54.27
224.631	-5.12
224.849	5.12
225.067	54.27
225.285	62.46
225.503	25.6
225.721	-23.55
225.939	-27.65
226.157	1.02
226.375	87.04
226.592	78.85
226.81	-21.5
227.028	7.17
227.246	119.81
227.464	-23.55
227.682	5.12
227.9	-5.12
228.117	-11.26
228.335	56.32
228.553	99.33
228.771	33.79
228.989	39.94
229.206	29.7
229.424	50.18
229.642	-15.36
229.86	13.31
230.077	39.94
230.295	72.7
230.513	33.79
230.731	41.98
230.948	-1.02
231.166	-23.55
231.384	-1.02
231.601	31.74
231.819	-5.12
232.037	15.36
232.254	-48.13
232.472	64.51
232.689	-1.02
232.907	15.36
233.125	-27.65
233.342	-3.07
233.56	-70.65
233.777	-23.55
233.995	7.17
234.213	-11.26
234.43	-5.12
234.648	54.27
234.865	-50.18
235.083	7.17
235.3	-1.02
235.518	48.13
235.735	82.94
235.953	66.56
236.17	54.27
236.388	23.55
236.605	-23.55
236.822	37.89
237.04	-68.61
237.257	17.41
237.475	37.89
237.692	15.36
237.909	21.5
238.127	29.7
238.344	46.08
238.562	9.22
238.779	-25.6
238.996	46.08
239.214	37.89
239.431	7.17
239.648	-19.46
239.865	-9.22
240.083	41.98
240.3	56.32
240.517	9.22
240.735	17.41
240.952	87.04
241.169	21.5
241.386	9.22
241.603	-19.46
241.821	-35.84
242.038	15.36
242.255	-31.74
242.472	-68.61
242.689	70.65
242.907	25.6
243.124	37.89
243.341	62.46
243.558	52.22
243.775	-31.74
243.992	-19.46
244.209	39.94
244.426	46.08
244.643	31.74
244.86	15.36
245.078	7.17
245.295	21.5
245.512	54.27
245.729	-54.27
245.946	56.32
246.163	-41.98
246.38	17.41
246.597	1.02
246.814	19.46
247.031	74.75
247.248	-19.46
247.464	95.23
247.681	-9.22
247.898	23.55
248.115	33.79
248.332	-9.22
248.549	7.17
248.766	80.89
248.983	62.46
249.2	9.22
249.417	27.65
249.633	56.32
249.85	62.46
250.067	-5.12
250.284	64.51
250.501	9.22
250.717	46.08
250.934	-33.79
251.151	25.6
251.368	-25.6
251.585	41.98
251.801	-35.84
252.018	-27.65
252.235	64.51
252.451	7.17
252.668	35.84
252.885	13.31
253.102	23.55
253.318	23.55
253.535	-11.26
253.752	-3.07
253.968	-33.79
254.185	-9.22
254.401	-35.84
254.618	37.89
254.835	7.17
255.051	52.22
255.268	-21.5
255.484	103.42
255.701	-5.12
255.917	140.29
256.134	-1.02
256.351	48.13
256.567	-11.26
256.784	23.55
257	23.55
257.217	21.5
257.433	31.74
257.65	46.08
257.866	41.98
258.082	-17.41
258.299	-11.26
258.515	58.37
258.732	-27.65
258.948	27.65
259.165	54.27
259.381	-1.02
259.597	5.12
259.814	-1.02
260.03	27.65
260.246	15.36
260.463	-1.02
260.679	50.18
260.895	15.36
261.112	74.75
261.328	72.7
261.544	-27.65
261.761	103.42
261.977	-11.26
262.193	13.31
262.409	-1.02
262.626	7.17
262.842	13.31
263.058	-52.22
263.274	9.22
263.49	-3.07
263.707	95.23
263.923	27.65
264.139	70.65
264.355	46.08
264.571	3.07
264.787	5.12
265.004	62.46
265.22	-93.18
265.436	3.07
265.652	62.46
265.868	-19.46
266.084	-3.07
266.3	103.42
266.516	13.31
266.732	37.89
266.948	103.42
267.164	37.89
267.38	66.56
267.596	-23.55
267.812	82.94
268.028	-9.22
268.244	5.12
268.46	50.18
268.676	21.5
268.892	13.31
269.108	-39.94
269.324	29.7
269.54	-9.22
269.756	64.51
269.972	62.46
270.188	35.84
270.403	-33.79
270.619	-48.13
270.835	-7.17
271.051	66.56
271.267	5.12
271.483	48.13
271.698	25.6
271.914	13.31
272.13	25.6
272.346	29.7
272.562	29.7
272.777	-3.07
272.993	58.37
273.209	25.6
273.425	41.98
273.64	-27.65
273.856	-31.74
274.072	-9.22
274.287	-23.55
274.503	-23.55
274.719	13.31
274.934	-58.37
275.15	-74.75
275.366	91.13
275.581	9.22
275.797	37.89
276.012	-3.07
276.228	62.46
276.444	-23.55
276.659	23.55
276.875	27.65
277.09	29.7
277.306	-17.41
277.521	-35.84
277.737	29.7
277.952	-25.6
278.168	-27.65
278.383	-11.26
278.599	13.31
278.814	9.22
279.03	13.31
279.245	93.18
279.461	-11.26
279.676	29.7
279.892	15.36
280.107	-33.79
280.322	35.84
280.538	-17.41
280.753	-15.36
280.969	82.94
281.184	50.18
281.399	13.31
281.615	31.74
281.83	21.5
282.045	-27.65
282.26	70.65
282.476	19.46
282.691	-17.41
282.906	9.22
283.122	5.12
283.337	-13.31
283.552	29.7
283.767	-9.22
283.983	-39.94
284.198	5.12
284.413	37.89
284.628	-35.84
284.843	21.5
285.058	21.5
285.274	19.46
285.489	-50.18
285.704	58.37
285.919	48.13
286.134	29.7
286.349	50.18
286.564	-21.5
286.779	25.6
286.995	46.08
287.21	-56.32
287.425	91.13
287.64	9.22
287.855	35.84
288.07	-23.55
288.285	7.17
288.5	25.6
288.715	37.89
288.93	7.17
289.145	9.22
289.36	41.98
289.575	15.36
289.79	66.56
290.004	-9.22
290.219	27.65
290.434	-35.84
290.649	-17.41
290.864	37.89
291.079	11.26
291.294	-1.02
291.509	-33.79
291.724	21.5
291.938	74.75
292.153	-35.84
292.368	-29.7
292.583	35.84
292.798	29.7
293.012	-1.02
293.227	11.26
293.442	13.31
293.657	-33.79
293.871	62.46
294.086	62.46
294.301	29.7
294.516	54.27
294.73	107.52
294.945	31.74
295.16	21.5
295.374	41.98
295.589	144.38
295.804	-35.84
296.018	33.79
296.233	29.7
296.447	31.74
296.662	21.5
296.877	25.6
297.091	56.32
297.306	70.65
297.52	50.18
297.735	58.37
297.949	25.6
298.164	15.36
298.378	-58.37
298.593	23.55
298.807	-11.26
299.022	9.22
299.236	84.99
299.451	11.26
299.665	23.55
299.88	5.12
300.094	82.94
300.309	23.55
300.523	-23.55
300.737	-11.26
300.952	5.12
301.166	82.94
301.381	-50.18
301.595	41.98
301.809	78.85
302.024	-19.46
302.238	-105.47
302.452	84.99
302.667	41.98
302.881	29.7
303.095	56.32
303.309	44.03
303.524	11.26
303.738	21.5
303.952	25.6
304.166	-15.36
304.381	-31.74
304.595	23.55
304.809	-56.32
305.023	46.08
305.237	74.75
305.452	13.31
305.666	80.89
305.88	37.89
306.094	52.22
306.308	66.56
306.522	9.22
306.736	21.5
306.95	-23.55
307.164	-58.37
307.379	21.5
307.593	37.89
307.807	48.13
308.021	21.5
308.235	3.07
308.449	-19.46
308.663	-41.98
308.877	128
309.091	-15.36
309.305	58.37
309.519	39.94
309.733	58.37
309.947	13.31
310.161	89.09
310.374	33.79
310.588	29.7
310.802	15.36
311.016	-37.89
311.23	41.98
311.444	-50.18
311.658	64.51
311.872	113.66
312.085	78.85
312.299	56.32
312.513	70.65
312.727	87.04
312.941	-15.36
313.154	29.7
313.368	1.02
313.582	5.12
313.796	5.12
314.009	39.94
314.223	-17.41
314.437	31.74
314.651	-3.07
314.864	31.74
315.078	5.12
315.292	5.12
315.505	19.46
315.719	7.17
315.933	25.6
316.146	7.17
316.36	-3.07
316.573	29.7
316.787	50.18
317.001	13.31
317.214	7.17
317.428	25.6
317.641	35.84
317.855	54.27
318.068	-3.07
318.282	5.12
318.495	84.99
318.709	58.37
318.922	21.5
319.136	87.04
319.349	-25.6
319.563	-54.27
319.776	-5.12
319.99	-11.26
320.203	15.36
320.417	9.22
320.63	25.6
320.843	128
321.057	-3.07
321.27	80.89
321.483	33.79
321.697	62.46
321.91	-48.13
322.124	58.37
322.337	35.84
322.55	31.74
322.763	-5.12
322.977	50.18
323.19	1.02
323.403	48.13
323.617	5.12
323.83	33.79
324.043	9.22
324.256	5.12
324.469	62.46
324.683	64.51
324.896	33.79
325.109	-50.18
325.322	21.5
325.535	29.7
325.748	68.61
325.962	9.22
326.175	21.5
326.388	25.6
326.601	64.51
326.814	21.5
327.027	37.89
327.24	70.65
327.453	33.79
327.666	15.36
327.879	29.7
328.092	13.31
328.305	-64.51
328.518	9.22
328.731	-39.94
328.944	-50.18
329.157	54.27
329.37	87.04
329.583	39.94
329.796	64.51
330.009	48.13
330.222	95.23
330.435	76.8
330.648	-31.74
330.861	-33.79
331.073	97.28
331.286	37.89
331.499	44.03
331.712	-19.46
331.925	-9.22
332.138	29.7
332.35	74.75
332.563	-44.03
332.776	128
332.989	23.55
333.202	17.41
333.414	89.09
333.627	-11.26
333.84	46.08
334.053	95.23
334.265	-37.89
334.478	-7.17
334.691	37.89
334.903	5.12
335.116	-76.8
335.329	142.33
335.541	74.75
335.754	76.8
335.966	37.89
336.179	125.95
336.392	60.42
336.604	128
336.817	41.98
337.029	29.7
337.242	19.46
337.454	74.75
337.667	-7.17
337.88	119.81
338.092	-9.22
338.305	50.18
338.517	-21.5
338.729	64.51
338.942	-3.07
339.154	27.65
339.367	46.08
339.579	-7.17
339.792	-7.17
340.004	-27.65
340.217	-23.55
340.429	-17.41
340.641	-54.27
340.854	50.18
341.066	31.74
341.278	11.26
341.491	54.27
341.703	46.08
341.915	54.27
342.128	99.33
342.34	-35.84
342.552	31.74
342.764	21.5
342.977	9.22
343.189	41.98
343.401	33.79
343.613	-27.65
343.826	87.04
344.038	11.26
344.25	-1.02
344.462	-31.74
344.674	48.13
344.886	13.31
345.099	5.12
345.311	-17.41
345.523	-13.31
345.735	13.31
345.947	-56.32
346.159	37.89
346.371	68.61
346.583	46.08
346.795	62.46
347.007	-46.08
347.219	5.12
347.431	35.84
347.643	80.89
347.855	-25.6
348.067	60.42
348.279	-19.46
348.491	-70.65
348.703	56.32
348.915	58.37
349.127	29.7
349.339	21.5
349.551	52.22
349.763	37.89
349.975	31.74
350.187	54.27
350.399	87.04
350.61	-3.07
350.822	13.31
351.034	21.5
351.246	78.85
351.458	-19.46
351.669	33.79
351.881	72.7
352.093	17.41
352.305	25.6
352.517	23.55
352.728	39.94
352.94	7.17
353.152	37.89
353.363	-15.36
353.575	-3.07
353.787	76.8
353.999	84.99
354.21	146.43
354.422	-3.07
354.633	3.07
354.845	68.61
355.057	52.22
355.268	37.89
355.48	-27.65
355.692	44.03
355.903	7.17
356.115	171.01
356.326	17.41
356.538	54.27
356.749	37.89
356.961	62.46
357.172	54.27
357.384	1.02
357.595	56.32
357.807	1.02
358.018	17.41
358.23	48.13
358.441	97.28
358.653	62.46
358.864	-41.98
359.075	-27.65
359.287	37.89
359.498	25.6
359.709	9.22
359.921	17.41
360.132	37.89
360.344	13.31
360.555	5.12
360.766	58.37
360.977	-23.55
361.189	5.12
361.4	15.36
361.611	33.79
361.823	54.27
362.034	84.99
362.245	62.46
362.456	46.08
362.667	70.65
362.879	21.5
363.09	70.65
363.301	46.08
363.512	46.08
363.723	62.46
363.935	54.27
364.146	46.08
364.357	25.6
364.568	5.12
364.779	-9.22
364.99	54.27
365.201	48.13
365.412	62.46
365.623	-25.6
365.834	66.56
366.045	-21.5
366.256	78.85
366.467	-11.26
366.678	31.74
366.889	37.89
367.1	54.27
367.311	-21.5
367.522	54.27
367.733	62.46
367.944	19.46
368.155	82.94
368.366	103.42
368.577	101.37
368.788	29.7
368.999	23.55
369.209	46.08
369.42	113.66
369.631	25.6
369.842	37.89
370.053	62.46
370.264	29.7
370.474	-3.07
370.685	46.08
370.896	56.32
371.107	48.13
371.317	54.27
371.528	99.33
371.739	72.7
371.95	13.31
372.16	103.42
372.371	44.03
372.582	29.7
372.792	58.37
373.003	29.7
373.214	1.02
373.424	54.27
373.635	19.46
373.846	48.13
374.056	-23.55
374.267	87.04
374.477	46.08
374.688	70.65
374.898	31.74
375.109	48.13
375.319	-17.41
375.53	15.36
375.74	58.37
375.951	31.74
376.161	99.33
376.372	25.6
376.582	74.75
376.793	99.33
377.003	29.7
377.214	-23.55
377.424	54.27
377.635	-27.65
377.845	11.26
378.055	113.66
378.266	48.13
378.476	48.13
378.686	60.42
378.897	29.7
379.107	-19.46
379.317	48.13
379.528	5.12
379.738	99.33
379.948	-23.55
380.158	5.12
380.369	41.98
380.579	46.08
380.789	56.32
380.999	56.32
381.21	7.17
381.42	35.84
381.63	37.89
381.84	89.09
382.05	105.47
382.261	136.19
382.471	7.17
382.681	21.5
382.891	89.09
383.101	29.7
383.311	-27.65
383.521	-7.17
383.731	105.47
383.941	89.09
384.151	64.51
384.361	37.89
384.571	101.37
384.781	111.61
384.991	72.7
385.201	31.74
385.411	15.36
385.621	-13.31
385.831	-25.6
386.041	33.79
386.251	74.75
386.461	15.36
386.671	5.12
386.881	56.32
387.091	33.79
387.301	11.26
387.511	41.98
387.72	93.18
387.93	11.26
388.14	-19.46
388.35	29.7
388.56	41.98
388.769	39.94
388.979	48.13
389.189	5.12
389.399	46.08
389.609	128
389.818	9.22
390.028	58.37
390.238	58.37
390.447	-25.6
390.657	48.13
390.867	15.36
391.076	31.74
391.286	15.36
391.496	23.55
391.705	-15.36
391.915	78.85
392.125	9.22
392.334	-31.74
392.544	82.94
392.753	70.65
392.963	15.36
393.172	5.12
393.382	15.36
393.591	87.04
393.801	46.08
394.01	46.08
394.22	87.04
394.429	50.18
394.639	50.18
394.848	132.09
395.058	56.32
395.267	1.02
395.477	31.74
395.686	41.98
395.895	66.56
396.105	132.09
396.314	58.37
396.524	91.13
396.733	39.94
396.942	66.56
397.152	119.81
397.361	97.28
397.57	99.33
397.78	13.31
397.989	80.89
398.198	80.89
398.407	-21.5
398.617	87.04
398.826	1.02
399.035	7.17
399.244	70.65
399.453	31.74
399.663	72.7
399.872	17.41
400.081	37.89
400.29	48.13
400.499	-15.36
400.708	82.94
400.917	25.6
401.127	84.99
401.336	80.89
401.545	160.77
401.754	31.74
401.963	134.14
402.172	70.65
402.381	111.61
402.59	87.04
402.799	179.2
403.008	70.65
403.217	46.08
403.426	154.62
403.635	105.47
403.844	62.46
404.053	87.04
404.262	80.89
404.471	132.09
404.68	136.19
404.888	87.04
405.097	150.53
405.306	50.18
405.515	117.76
405.724	58.37
405.933	140.29
406.142	160.77
406.35	148.48
406.559	119.81
406.768	101.37
406.977	193.53
407.185	187.39
407.394	156.67
407.603	132.09
407.812	193.53
408.02	220.16
408.229	162.81
408.438	164.86
408.646	64.51
408.855	197.63
409.064	218.11
409.272	218.11
409.481	220.16
409.69	154.62
409.898	183.29
410.107	259.07
410.315	283.64
410.524	238.59
410.733	300.03
410.941	265.21
411.15	306.17
411.358	218.11
411.567	275.45
411.775	357.37
411.984	300.03
412.192	375.8
412.401	316.41
412.609	293.88
412.818	402.43
413.026	320.51
413.234	349.18
413.443	340.99
413.651	488.44
413.86	480.25
414.068	480.25
414.276	478.2
414.485	461.82
414.693	433.15
414.901	578.55
415.11	492.54
415.318	513.02
415.526	535.54
415.734	613.37
415.943	629.75
416.151	715.77
416.359	603.13
416.567	742.39
416.776	766.96
416.984	752.63
417.192	756.72
417.4	816.12
417.608	705.53
417.817	848.88
418.025	893.94
418.233	873.46
418.441	812.02
418.649	791.54
418.857	941.04
419.065	938.99
419.273	1006.58
419.481	1061.87
419.689	1055.73
419.897	1061.87
420.105	1115.12
420.313	1176.56
420.521	1186.8
420.729	1281
420.937	1340.4
421.145	1317.87
421.353	1440.75
421.561	1491.95
421.769	1508.33
421.977	1594.34
422.185	1549.29
422.393	1659.88
422.601	1735.65
422.809	1790.95
423.017	1709.03
423.224	1864.68
423.432	1905.63
423.64	1825.76
423.848	2077.66
424.056	1987.55
424.263	2137.06
424.471	2159.58
424.679	2241.5
424.887	2354.14
425.094	2409.44
425.302	2550.75
425.51	2589.66
425.718	2644.95
425.925	2741.21
426.133	2710.49
426.341	2868.18
426.548	2974.67
426.756	2884.56
426.964	2941.91
427.171	3173.33
427.379	3404.75
427.586	3277.77
427.794	3484.62
428.001	3625.93
428.209	3785.67
428.417	3738.57
428.624	3992.52
428.832	4045.76
429.039	3937.22
429.247	3969.99
429.454	4340.67
429.662	4619.19
429.869	4215.74
430.076	4543.42
430.284	4527.03
430.491	4694.97
430.699	4969.4
430.906	4944.82
431.114	5034.93
431.321	5243.82
431.528	5282.74
431.736	5544.88
431.943	6001.57
432.15	5708.71
432.358	5622.7
432.565	6003.62
432.772	6097.83
432.979	6384.54
433.187	6400.93
433.394	6607.77
433.601	7039.89
433.808	7209.87
434.016	6982.55
434.223	7160.72
434.43	7555.98
434.637	7601.04
434.844	8012.68
435.052	8076.16
435.259	8254.34
435.466	8037.25
435.673	7943.05
435.88	8780.67
436.087	9108.34
436.294	8977.27
436.501	9001.85
436.708	9016.18
436.915	9337.71
437.122	9778.03
437.329	9712.49
437.537	9995.11
437.743	10109.8
437.95	10156.9
438.157	10759
438.364	11049.82
438.571	10820.44
438.778	11146.07
438.985	12145.48
439.192	11639.63
439.399	12045.13
439.606	11782.99
439.813	12456.77
440.02	13140.79
440.227	12999.48
440.433	12741.44
440.64	13202.23
440.847	12868.41
441.054	13458.23
441.261	14263.08
441.467	14025.51
441.674	14330.66
441.881	14797.6
442.088	14922.52
442.294	14715.68
442.501	15217.43
442.708	15268.63
442.914	16030.48
443.121	16675.59
443.328	16134.92
443.534	17353.46
443.741	16853.76
443.948	16601.86
444.154	17836.78
444.361	17681.14
444.568	17814.26
444.774	17871.6
444.981	18334.44
445.187	18801.38
445.394	19284.7
445.6	19040.99
445.807	20918.98
446.013	19944.14
446.22	20187.85
446.426	21246.65
446.633	21658.29
446.839	22082.22
447.046	21129.92
447.252	22422.19
447.459	22524.58
447.665	22450.86
447.871	23270.04
448.078	24367.76
448.284	23016.1
448.491	23988.88
448.697	24619.66
448.903	25213.57
449.11	25248.38
449.316	24933
449.522	25307.77
449.728	25754.23
449.935	26102.39
450.141	26196.59
450.347	26806.89
450.553	25754.23
450.76	26169.97
450.966	26972.77
451.172	26647.15
451.378	27728.47
451.584	27009.64
451.791	27716.19
451.997	27626.07
452.203	27841.11
452.409	28054.1
452.615	28052.05
452.821	27017.83
453.027	26653.29
453.233	28088.92
453.44	26712.68
453.646	27118.18
453.852	27347.55
454.058	27642.46
454.264	26948.2
454.47	27546.2
454.676	26935.91
454.882	27503.2
455.088	25252.48
455.294	25838.2
455.5	26329.71
455.705	26358.38
455.911	25320.06
456.117	24898.18
456.323	24851.08
456.529	23306.91
456.735	24287.89
456.941	23622.3
457.147	23311
457.352	22819.49
457.558	22180.53
457.764	22364.84
457.97	22053.55
458.176	21273.28
458.381	21527.22
458.587	20636.36
458.793	20267.72
458.999	19473.11
459.204	20749
459.41	20124.36
459.616	18934.5
459.821	19276.51
460.027	18901.73
460.233	18330.34
460.438	17990.38
460.644	17838.83
460.85	17122.04
461.055	16741.12
461.261	16726.78
461.466	15151.9
461.672	15186.71
461.878	16143.11
462.083	14977.82
462.289	14746.4
462.494	14517.03
462.7	13880.11
462.905	13558.58
463.111	13968.17
463.316	13900.59
463.522	13763.37
463.727	13767.47
463.932	13554.48
464.138	13271.86
464.343	13861.68
464.549	13292.34
464.754	13595.44
464.959	13593.39
465.165	13361.97
465.37	12794.68
465.575	12444.48
465.781	12907.32
465.986	13316.92
466.191	12628.8
466.397	12360.52
466.602	11746.12
466.807	12362.56
467.012	12342.08
467.218	12151.62
467.423	11998.02
467.628	11922.25
467.833	12563.26
468.038	12088.14
468.244	11733.84
468.449	12280.64
468.654	11703.12
468.859	11694.93
469.064	11787.08
469.269	11318.1
469.474	11211.6
469.679	11559.76
469.885	11113.3
470.09	11436.88
470.295	11285.33
470.5	11094.87
470.705	11213.65
470.91	10918.75
471.115	10761.05
471.32	10820.44
471.525	10851.16
471.73	10490.72
471.935	10736.48
472.139	10130.28
472.344	10132.33
472.549	10103.65
472.754	10244.96
472.959	9796.46
473.164	9806.7
473.369	9632.62
473.574	10060.65
473.778	9782.12
473.983	9812.84
474.188	9837.42
474.393	9253.75
474.598	9384.82
474.802	9282.42
475.007	9339.76
475.212	9218.93
475.417	8866.68
475.621	9016.18
475.826	8887.16
476.031	8659.84
476.235	8477.57
476.44	8985.46
476.645	8450.94
476.849	8688.51
477.054	8412.03
477.259	8262.53
477.463	8272.77
477.668	8164.23
477.872	8332.16
478.077	8137.6
478.282	7689.1
478.486	8024.97
478.691	7834.5
478.895	7783.31
479.1	7787.4
479.304	7623.56
479.509	7631.76
479.713	7840.65
479.918	7459.73
480.122	7287.7
480.326	7414.67
480.531	7496.59
480.735	7388.05
480.94	7336.85
481.144	7701.39
481.348	7306.13
481.553	7293.84
481.757	7125.91
481.961	7228.31
482.166	7416.72
482.37	7259.03
482.574	6871.96
482.778	7148.43
482.983	7213.97
483.187	6992.79
483.391	7222.16
483.595	7058.32
483.8	7052.18
484.004	7150.48
484.208	7033.75
484.412	7125.91
484.616	7199.63
484.821	7218.07
485.025	7041.94
485.229	7230.35
485.433	7164.82
485.637	7166.87
485.841	7095.19
486.045	7082.9
486.249	6908.82
486.453	7230.35
486.657	7160.72
486.861	7123.86
487.065	6945.69
487.269	7107.48
487.473	7134.1
487.677	7082.9
487.881	7218.07
488.085	7117.72
488.289	7240.59
488.493	7130
488.697	7222.16
488.901	7181.2
489.105	7043.99
489.309	7271.31
489.512	7271.31
489.716	7289.74
489.92	7304.08
490.124	7224.21
490.328	7369.62
490.531	7254.93
490.735	7381.9
490.939	7269.27
491.143	7310.22
491.346	7367.57
491.55	7562.12
491.754	7467.92
491.958	7353.23
492.161	7381.9
492.365	7648.14
492.569	7519.12
492.772	7461.77
492.976	7558.03
493.18	7482.25
493.383	7553.93
493.587	7740.3
493.79	7867.27
493.994	7779.21
494.197	7916.42
494.401	7844.74
494.605	7969.67
494.808	8082.31
495.012	7981.96
495.215	8004.49
495.419	8344.45
495.622	7992.2
495.825	8414.08
496.029	8328.06
496.232	8516.48
496.436	8342.4
496.639	8713.08
496.843	8473.47
497.046	8723.32
497.249	8803.19
497.453	8893.3
497.656	8819.58
497.859	9032.57
498.063	9122.68
498.266	9163.64
498.469	9171.83
498.673	9331.57
498.876	9534.32
499.079	9608.05
499.282	9501.55
499.485	9755.5
499.689	9814.89
499.892	9937.77
500.095	9982.82
500.298	10138.47
500.501	10158.95
500.705	10474.34
500.908	10437.47
501.111	10566.49
501.314	10736.48
501.517	10851.16
501.72	11023.19
501.923	10863.45
502.126	11148.12
502.329	11445.07
502.532	11297.62
502.735	11510.61
502.938	11811.66
503.141	11617.1
503.344	11891.53
503.547	11754.32
503.75	12141.38
503.953	12217.16
504.156	12368.71
504.359	12452.67
504.562	12538.69
504.765	12819.26
504.968	12696.38
505.17	13036.35
505.373	13058.87
505.576	13540.15
505.779	13194.04
505.982	13566.77
506.185	13710.13
506.387	13902.64
506.59	14183.21
506.793	14334.76
506.996	14299.94
507.198	14533.41
507.401	14590.75
507.604	14877.47
507.807	14955.29
508.009	15049.5
508.212	15221.53
508.415	15356.69
508.617	15729.42
508.82	15342.36
509.022	15612.69
509.225	16007.95
509.428	16149.26
509.63	16167.69
509.833	16413.45
510.035	16501.51
510.238	16536.32
510.44	16847.61
510.643	17156.86
510.845	17400.57
511.048	17072.89
511.25	17441.53
511.453	17650.42
511.655	18109.16
511.858	17865.46
512.06	18033.39
512.262	18275.05
512.465	18275.05
512.667	18631.4
512.87	18922.21
513.072	18891.49
513.274	19346.14
513.477	19350.23
513.679	19647.19
513.881	19477.21
514.084	19749.59
514.286	19454.68
514.488	20347.59
514.69	20656.84
514.893	20505.29
515.095	20841.15
515.297	21152.45
515.499	21189.31
515.701	21273.28
515.904	21639.86
516.106	21619.38
516.308	21856.95
516.51	22125.23
516.712	22069.94
516.914	22176.43
517.116	22731.43
517.318	22723.24
517.52	23114.4
517.722	22903.46
517.925	23368.35
518.127	23589.53
518.329	23724.69
518.531	23845.52
518.733	24224.4
518.935	24339.08
519.136	24326.8
519.338	24978.05
519.54	24969.86
519.742	24838.79
519.944	25629.3
520.146	25393.79
520.348	25846.39
520.55	25971.32
520.752	25889.4
520.954	26557.03
521.155	26471.02
521.357	26853.99
521.559	27159.14
521.761	27157.09
521.963	27198.05
522.164	27011.68
522.366	27550.3
522.568	27624.03
522.77	27884.12
522.971	28306
523.173	28002.9
523.375	28574.28
523.576	28389.97
523.778	28664.39
523.98	28795.46
524.181	28779.08
524.383	29303.36
524.584	29467.2
524.786	29372.99
524.988	29424.19
525.189	29913.66
525.391	30003.77
525.592	30304.82
525.794	30163.51
525.995	30192.18
526.197	30288.43
526.398	30087.73
526.6	30720.56
526.801	30755.37
527.003	30689.84
527.204	30861.87
527.406	31271.46
527.607	31246.88
527.808	31447.58
528.01	31230.5
528.211	31285.79
528.412	31826.46
528.614	31951.38
528.815	31617.57
529.016	32039.45
529.218	31799.83
529.419	32115.22
529.62	32143.89
529.822	31885.85
530.023	32082.45
530.224	32410.13
530.425	31908.38
530.626	32152.09
530.828	32135.7
531.029	32741.9
531.23	32354.83
531.431	32350.74
531.632	32551.44
531.833	32608.78
532.035	32791.05
532.236	32938.51
532.437	33294.85
532.638	32510.48
532.839	32766.48
533.04	33018.38
533.241	32637.45
533.442	33354.24
533.643	32940.55
533.844	32963.08
534.045	32963.08
534.246	32567.82
534.447	32807.44
534.648	33112.58
534.849	32819.72
535.05	32690.7
535.251	33356.29
535.451	32743.95
535.652	33202.69
535.853	33274.37
536.054	33071.62
536.255	33208.84
536.456	32832.01
536.657	33362.43
536.857	33317.38
537.058	32887.31
537.259	33317.38
537.46	33169.93
537.66	33047.05
537.861	33427.97
538.062	33180.17
538.263	33065.48
538.463	33008.14
538.664	33090.06
538.865	32956.94
539.065	33233.41
539.266	32854.54
539.466	33081.86
539.667	32889.35
539.868	33274.37
540.068	33012.23
540.269	32778.76
540.469	33319.43
540.67	32838.15
540.87	33040.9
541.071	32956.94
541.271	33301
541.472	32956.94
541.672	33030.66
541.873	32868.87
542.073	32578.06
542.274	33499.65
542.474	32764.43
542.675	32973.32
542.875	32897.55
543.075	33049.1
543.276	32725.52
543.476	33165.83
543.676	32729.61
543.877	33233.41
544.077	33167.88
544.277	32907.79
544.478	33088.01
544.678	32997.9
544.878	32913.93
545.078	33092.1
545.279	32651.79
545.479	32657.93
545.679	33210.89
545.879	32915.98
546.079	32342.55
546.28	32762.38
546.48	32633.36
546.68	33182.21
546.88	33098.25
547.08	32809.48
547.28	32905.74
547.48	32485.9
547.68	32842.25
547.88	32633.36
548.081	32453.14
548.281	32594.45
548.481	32490
548.681	32850.44
548.881	32676.37
549.081	32588.3
549.28	32936.46
549.48	32725.52
549.68	32498.19
549.88	32995.85
550.08	32436.75
550.28	32911.88
550.48	32905.74
550.68	32862.73
550.88	32799.24
551.08	32580.11
551.279	32606.73
551.479	32221.72
551.679	32797.2
551.879	32729.61
552.079	32854.54
552.278	32332.31
552.478	32803.34
552.678	32510.48
552.878	32954.89
553.077	32424.47
553.277	32375.31
553.477	32741.9
553.676	32227.86
553.876	32391.7
554.076	32342.55
554.275	32465.42
554.475	31924.76
554.674	32420.37
554.874	32698.89
555.074	32072.21
555.273	32221.72
555.473	32690.7
555.672	32104.98
555.872	32113.17
556.071	32328.21
556.271	32459.28
556.47	32086.55
556.67	31816.22
556.869	32221.72
557.068	32291.35
557.268	31953.43
557.467	32066.07
557.667	31752.73
557.866	31394.34
558.065	32246.29
558.265	31805.98
558.464	31818.27
558.663	31832.6
558.863	32000.54
559.062	31924.76
559.261	31519.26
559.461	31969.82
559.66	31449.63
559.859	31838.75
560.058	31531.55
560.258	31265.31
560.457	31119.91
560.656	31392.29
560.855	31138.34
561.054	31302.18
561.253	31121.96
561.453	31214.12
561.652	31269.41
561.851	31185.44
562.05	31177.25
562.249	30837.29
562.448	31263.27
562.647	30790.19
562.846	31291.94
563.045	30933.54
563.244	30986.79
563.443	31025.7
563.642	30519.85
563.841	30439.98
564.04	30226.99
564.239	30657.07
564.438	30132.79
564.637	30495.28
564.836	30599.73
565.035	30046.77
565.234	30177.84
565.432	30106.16
565.631	30042.68
565.83	30093.88
566.029	29971
566.228	29747.77
566.427	29878.84
566.625	29590.08
566.824	29549.12
567.023	29962.81
567.222	29160
567.42	29909.56
567.619	29813.31
567.818	29424.19
568.016	29409.86
568.215	29545.02
568.414	29137.48
568.612	29428.29
568.811	29020.74
569.01	29303.36
569.208	28650.06
569.407	29372.99
569.605	28762.7
569.804	29131.33
570.002	28938.82
570.201	28785.22
570.4	28408.4
570.598	28443.21
570.797	28402.25
570.995	28598.86
571.193	28273.23
571.392	28602.96
571.59	28275.28
571.789	27968.09
571.987	27908.69
572.186	27732.57
572.384	27853.4
572.582	27845.21
572.781	28244.56
572.979	27996.76
573.177	27937.37
573.376	27910.74
573.574	27828.82
573.772	27701.85
573.971	27152.99
574.169	27269.73
574.367	26980.96
574.565	27488.86
574.763	26931.81
574.962	26976.87
575.16	26917.48
575.358	27114.08
575.556	26741.35
575.754	27214.43
575.952	26749.54
576.151	26677.86
576.349	26643.05
576.547	26776.17
576.745	26411.63
576.943	26651.24
577.141	26147.44
577.339	26522.22
577.537	26092.15
577.735	26268.27
577.933	26092.15
578.131	26167.92
578.329	25991.8
578.527	25885.3
578.725	25743.99
578.923	25971.32
579.121	25705.08
579.319	25729.66
579.516	25641.59
579.714	25426.56
579.912	25604.73
580.11	25508.47
580.308	25477.76
580.506	25168.51
580.704	24752.77
580.901	25309.82
581.099	25606.78
581.297	24830.6
581.495	24738.44
581.692	25086.59
581.89	24691.34
582.088	25031.3
582.285	24760.97
582.483	25053.83
582.681	24832.65
582.878	24285.84
583.076	24466.06
583.274	24439.44
583.471	24224.4
583.669	24398.48
583.866	23820.95
584.064	24623.75
584.262	24009.36
584.459	24162.96
584.657	24175.25
584.854	23974.55
585.052	23622.3
585.249	23683.73
585.447	23794.32
585.644	23945.87
585.841	23868.05
586.039	23825.04
586.236	23452.31
586.434	23362.2
586.631	23511.71
586.828	23390.88
587.026	23448.22
587.223	23044.77
587.42	23255.71
587.618	23036.58
587.815	22805.16
588.012	23030.43
588.21	22835.88
588.407	23069.34
588.604	22829.73
588.801	22583.98
588.999	22348.46
589.196	22534.82
589.393	22379.18
589.59	22411.95
589.787	22526.63
589.984	22143.66
590.182	21945.01
590.379	22448.81
590.576	21906.1
590.773	21775.03
590.97	22028.98
591.167	22045.36
591.364	21590.71
591.561	22074.03
591.758	21557.94
591.955	21719.73
592.152	21639.86
592.349	21426.87
592.546	21916.34
592.743	21584.57
592.94	21213.88
593.137	21428.92
593.334	21383.87
593.531	20931.26
593.727	21260.99
593.924	21297.85
594.121	20873.92
594.318	21068.48
594.515	20777.67
594.712	21271.23
594.908	20806.34
595.105	20837.06
595.302	20591.3
595.499	20943.55
595.696	20288.2
595.892	20400.84
596.089	20650.69
596.286	20409.03
596.482	20261.58
596.679	20447.94
596.876	20599.49
597.072	19999.44
597.269	20298.44
597.466	20030.16
597.662	19958.48
597.859	20019.92
598.055	20206.28
598.252	19817.17
598.448	19872.46
598.645	19778.26
598.841	19335.9
599.038	19538.65
599.234	19512.02
599.431	19176.16
599.627	19266.27
599.824	19354.33
600.02	19079.9
600.217	19038.94
600.413	19454.68
600.609	19188.44
600.806	18979.55
601.002	19253.98
601.198	19098.33
601.395	18871.01
601.591	18893.54
601.787	18823.9
601.984	18625.25
602.18	18928.35
602.376	18686.69
602.572	18635.49
602.769	18447.08
602.965	18412.26
603.161	18498.28
603.357	18158.31
603.553	18293.48
603.75	18086.64
603.946	18076.4
604.142	18332.39
604.338	17986.29
604.534	18137.84
604.73	17767.15
604.926	17928.94
605.122	17822.45
605.318	17720.05
605.514	17677.04
605.71	17740.53
605.906	17797.87
606.102	17742.58
606.298	17787.63
606.494	17556.21
606.69	17642.23
606.886	17402.61
607.082	17175.29
607.278	17603.32
607.474	17036.03
607.67	17429.24
607.866	17181.43
608.062	17349.37
608.257	16986.88
608.453	17152.76
608.649	17306.36
608.845	17019.64
609.041	17070.84
609.236	17345.27
609.432	17081.08
609.628	16954.11
609.824	16933.63
610.019	16685.83
610.215	16986.88
610.411	16616.19
610.606	16929.53
610.802	16726.78
610.998	16532.23
611.193	16769.79
611.389	16673.54
611.584	16499.46
611.78	16571.14
611.976	16587.52
612.171	16452.36
612.367	16429.83
612.562	16556.8
612.758	16014.09
612.953	16268.04
613.149	16503.56
613.344	16012.04
613.539	16337.67
613.735	16157.45
613.93	16005.9
614.126	15856.4
614.321	16194.31
614.517	16048.91
614.712	16106.25
614.907	16114.44
615.103	15999.76
615.298	15825.68
615.493	15893.26
615.688	15645.46
615.884	15952.65
616.079	15768.34
616.274	15792.91
616.47	15641.36
616.665	15840.01
616.86	15588.11
617.055	15852.3
617.25	15588.11
617.445	15579.92
617.641	15489.81
617.836	15502.1
618.031	15430.42
618.226	15448.85
618.421	15422.23
618.616	15184.66
618.811	15117.08
619.006	15420.18
619.201	14983.96
619.396	15416.08
619.591	14900
619.786	14977.82
619.981	14865.18
620.176	15037.21
620.371	14607.14
620.566	14781.21
620.761	14652.19
620.956	14711.58
621.151	14598.95
621.346	14678.82
621.541	14521.12
621.735	14443.3
621.93	14101.29
622.125	14527.27
622.32	14041.9
622.515	13923.12
622.709	13904.68
622.904	13894.44
623.099	13779.76
623.294	13724.46
623.488	13800.24
623.683	13738.8
623.878	13314.87
624.072	13599.54
624.267	13554.48
624.462	13534
624.656	13300.53
624.851	13261.62
625.046	13083.45
625.24	12940.09
625.435	12892.99
625.629	12802.88
625.824	12727.1
626.018	12909.37
626.213	12591.94
626.407	12731.2
626.602	12532.54
626.796	12591.94
626.991	12702.53
627.185	12512.07
627.38	12387.14
627.574	12251.97
627.768	12217.16
627.963	12262.21
628.157	12188.49
628.352	12323.65
628.546	11967.31
628.74	11963.21
628.935	11817.8
629.129	11694.93
629.323	11522.9
629.517	11838.28
629.712	11633.49
629.906	11682.64
630.1	11348.82
630.294	11580.24
630.489	11176.79
630.683	11330.39
630.877	11195.22
631.071	11090.77
631.265	11101.01
631.459	11023.19
631.653	11082.58
631.848	10875.74
632.042	10814.3
632.236	10885.98
632.43	10744.67
632.624	10857.31
632.818	10873.69
633.012	10752.86
633.206	10603.36
633.4	10586.97
633.594	10222.44
633.788	10410.85
633.982	10247.01
634.176	10212.2
634.369	10314.59
634.563	10345.31
634.757	10052.45
634.951	10091.37
635.145	10185.57
635.339	10220.39
635.533	9935.72
635.726	10099.56
635.92	9765.74
636.114	9890.67
636.308	9765.74
636.501	9548.65
636.695	9802.6
636.889	9515.89
637.083	9583.47
637.276	9425.78
637.47	9229.17
637.664	9261.94
637.857	9270.13
638.051	9376.62
638.244	9245.55
638.438	9102.2
638.632	9171.83
638.825	9198.45
639.019	9020.28
639.212	9089.91
639.406	8977.27
639.599	8995.7
639.793	9077.62
639.986	8786.81
640.18	8754.04
640.373	8743.8
640.567	8545.15
640.76	8588.16
640.954	8332.16
641.147	8377.22
641.34	8373.12
641.534	8356.74
641.727	8455.04
641.92	8377.22
642.114	8207.23
642.307	8364.93
642.5	8237.95
642.694	8145.8
642.887	8137.6
643.08	8125.32
643.273	8164.23
643.467	8106.88
643.66	8055.69
643.853	8057.73
644.046	7904.14
644.239	7877.51
644.432	7711.63
644.626	7746.44
644.819	7592.84
645.012	7797.64
645.205	7723.91
645.398	7486.35
645.591	7611.28
645.784	7543.69
645.977	7601.04
646.17	7533.45
646.363	7429.01
646.556	7410.57
646.749	7345.04
646.942	7345.04
647.135	7259.03
647.328	7336.85
647.521	7142.29
647.714	7191.44
647.907	7109.52
648.099	7091.09
648.292	7130
648.485	6951.83
648.678	6882.2
648.871	7052.18
649.064	6853.53
649.256	6943.64
649.449	6794.14
649.642	6812.57
649.835	6677.4
650.027	6759.32
650.22	6650.78
650.413	6618.01
650.605	6771.61
650.798	6572.96
650.991	6478.75
651.183	6572.96
651.376	6370.21
651.568	6499.23
651.761	6312.86
651.954	6249.38
652.146	6435.74
652.339	6421.41
652.531	6230.94
652.724	6443.93
652.916	6069.16
653.109	6128.55
653.301	6224.8
653.494	6232.99
653.686	5938.09
653.879	6044.58
654.071	6058.92
654.263	5968.8
654.456	5854.12
654.648	5977
654.84	5753.77
655.033	5981.09
655.225	5983.14
655.417	5692.33
655.61	5780.39
655.802	5962.66
655.994	5645.23
656.186	5661.61
656.379	5725.1
656.571	5682.09
656.763	5577.64
656.955	5667.75
657.148	5600.17
657.34	5649.32
657.532	5499.82
657.724	5485.48
657.916	5610.41
658.108	5340.08
658.3	5280.69
658.492	5518.25
658.684	5221.3
658.876	5233.58
659.068	5073.84
659.26	5346.22
659.452	5346.22
659.644	5254.06
659.836	5247.92
660.028	5145.52
660.22	5059.51
660.412	5094.32
660.604	5049.27
660.796	5127.09
660.988	4977.59
661.18	5010.36
661.372	4957.11
661.563	4877.24
661.755	4830.13
661.947	4948.92
662.139	4842.42
662.331	4813.75
662.522	4731.83
662.714	4756.41
662.906	4748.22
663.097	4834.23
663.289	4768.7
663.481	4680.63
663.673	4686.78
663.864	4527.03
664.056	4604.86
664.247	4641.72
664.439	4602.81
664.631	4504.51
664.822	4570.04
665.014	4518.84
665.205	4518.84
665.397	4518.84
665.588	4387.77
665.78	4522.94
665.971	4320.19
666.163	4463.55
666.354	4453.31
666.546	4334.53
666.737	4367.29
666.929	4293.57
667.12	4228.03
667.311	4346.81
667.503	4256.7
667.694	4228.03
667.885	4275.13
668.077	4303.81
668.268	4158.4
668.459	4215.74
668.651	4301.76
668.842	4297.66
669.033	4113.35
669.224	4092.87
669.416	4144.06
669.607	4152.26
669.798	4051.91
669.989	4142.02
670.18	4029.38
670.371	3926.98
670.563	3935.17
670.754	4000.71
670.945	4023.23
671.136	4029.38
671.327	4033.47
671.518	3926.98
671.709	3922.88
671.9	4084.67
672.091	3814.34
672.282	3986.37
672.473	3900.36
672.664	3808.2
672.855	3716.04
673.046	3830.73
673.237	3843.01
673.428	3791.81
673.619	3939.27
673.809	3812.29
674	3830.73
674.191	3789.77
674.382	3730.38
674.573	3748.81
674.764	3814.34
674.954	3697.61
675.145	3718.09
675.336	3847.11
675.527	3693.51
675.717	3587.02
675.908	3617.74
676.099	3634.12
676.289	3668.94
676.48	3584.97
676.671	3582.92
676.861	3539.91
677.052	3503.05
677.243	3593.16
677.433	3617.74
677.624	3695.56
677.814	3572.68
678.005	3630.02
678.195	3619.78
678.386	3584.97
678.576	3591.11
678.767	3433.42
678.957	3582.92
679.148	3576.78
679.338	3480.52
679.529	3464.14
679.719	3412.94
679.909	3507.15
680.1	3568.59
680.29	3464.14
680.481	3560.39
680.671	3443.66
680.861	3505.1
681.052	3576.78
681.242	3507.15
681.432	3433.42
681.622	3433.42
681.813	3435.47
682.003	3544.01
682.193	3474.38
682.383	3429.32
682.573	3472.33
682.764	3417.04
682.954	3470.28
683.144	3347.4
683.334	3390.41
683.524	3355.6
683.714	3380.17
683.904	3476.43
684.094	3478.47
684.284	3359.69
684.474	3474.38
684.664	3371.98
684.854	3308.49
685.044	3273.68
685.234	3417.04
685.424	3285.97
685.614	3265.49
685.804	3380.17
685.994	3294.16
686.184	3224.53
686.374	3290.06
686.564	3302.35
686.753	3191.76
686.943	3195.86
687.133	3212.24
687.323	3255.25
687.513	3118.03
687.702	3195.86
687.892	3158.99
688.082	3165.14
688.272	3126.22
688.461	3189.71
688.651	3214.29
688.841	3101.65
689.03	2921.43
689.22	3095.5
689.41	3081.17
689.599	3044.31
689.789	2946
689.979	2989.01
690.168	2939.86
690.358	2997.2
690.547	3001.3
690.737	2855.89
690.926	3027.92
691.116	2907.09
691.305	2956.24
691.495	2884.56
691.684	2784.21
691.874	2931.67
692.063	2816.98
692.252	2823.12
692.442	2880.47
692.631	2833.36
692.82	2747.35
693.01	2759.64
693.199	2810.84
693.388	2784.21
693.578	2669.53
693.767	2743.25
693.956	2907.09
694.146	2671.58
694.335	2663.38
694.524	2665.43
694.713	2647
694.902	2751.45
695.092	2673.62
695.281	2671.58
695.47	2708.44
695.659	2679.77
695.848	2692.05
696.037	2747.35
696.226	2692.05
696.415	2698.2
696.604	2616.28
696.793	2618.33
696.982	2675.67
697.171	2626.52
697.36	2548.7
697.549	2579.42
697.738	2489.31
697.927	2468.83
698.116	2556.89
698.305	2497.5
698.494	2589.66
698.683	2577.37
698.872	2681.82
699.061	2655.19
699.25	2468.83
699.438	2470.87
699.627	2577.37
699.816	2667.48
700.005	2464.73
700.193	2548.7
700.382	2728.92
700.571	2577.37
700.76	2532.31
700.948	2528.22
701.137	2528.22
701.326	2515.93
701.514	2513.88
701.703	2421.72
701.892	2456.54
702.08	2601.94
702.269	2585.56
702.457	2485.21
702.646	2444.25
702.834	2493.4
703.023	2460.63
703.212	2417.63
703.4	2319.32
703.589	2444.25
703.777	2446.3
703.965	2374.62
704.154	2388.96
704.342	2511.83
704.531	2464.73
704.719	2405.34
704.907	2448.35
705.096	2499.55
705.284	2358.24
705.472	2479.07
705.661	2407.39
705.849	2450.39
706.037	2395.1
706.226	2388.96
706.414	2337.76
706.602	2462.68
706.79	2366.43
706.979	2446.3
707.167	2454.49
707.355	2401.24
707.543	2382.81
707.731	2485.21
707.919	2333.66
708.107	2479.07
708.296	2307.04
708.484	2315.23
708.672	2442.2
708.86	2442.2
709.048	2364.38
709.236	2417.63
709.424	2284.51
709.612	2278.37
709.8	2300.89
709.988	2360.28
710.176	2348
710.364	2321.37
710.551	2376.67
710.739	2495.45
710.927	2372.57
711.115	2307.04
711.303	2382.81
711.491	2358.24
711.679	2274.27
711.866	2208.73
712.054	2423.77
712.242	2327.52
712.43	2323.42
712.617	2309.08
712.805	2225.12
712.993	2348
713.181	2261.98
713.368	2391
713.556	2335.71
713.744	2180.06
713.931	2245.6
714.119	2264.03
714.306	2261.98
714.494	2319.32
714.682	2296.8
714.869	2180.06
715.057	2282.46
715.244	2241.5
715.432	2352.09
715.619	2175.97
715.807	2186.21
715.994	2313.18
716.182	2251.74
716.369	2243.55
716.556	2315.23
716.744	2210.78
716.931	2184.16
717.119	2331.61
717.306	2218.97
717.493	2288.61
717.681	2278.37
717.868	2268.13
718.055	2173.92
718.242	2270.17
718.43	2243.55
718.617	2266.08
718.804	2167.77
718.991	2233.31
719.179	2204.64
719.366	2270.17
719.553	2343.9
719.74	2253.79
719.927	2229.21
720.114	2208.73
720.301	2212.83
720.488	2200.54
720.676	2092
720.863	2237.41
721.05	2229.21
721.237	2231.26
721.424	2259.93
721.611	2241.5
721.798	2165.73
721.985	2196.45
722.172	2266.08
722.358	2110.43
722.545	2192.35
722.732	2118.62
722.919	2118.62
723.106	2143.2
723.293	2112.48
723.48	2227.17
723.667	2143.2
723.853	2300.89
724.04	2218.97
724.227	2143.2
724.414	2235.36
724.6	2171.87
724.787	2184.16
724.974	2196.45
725.161	2210.78
725.347	2159.58
725.534	2175.97
725.72	2110.43
725.907	2221.02
726.094	2151.39
726.28	2051.04
726.467	2167.77
726.653	2094.05
726.84	2218.97
727.027	2180.06
727.213	2063.33
727.4	2159.58
727.586	2132.96
727.773	2159.58
727.959	2169.82
728.145	2208.73
728.332	2196.45
728.518	2180.06
728.705	2192.35
728.891	2192.35
729.077	2151.39
729.264	2102.24
729.45	2200.54
729.636	2153.44
729.823	2135.01
730.009	2073.57
730.195	2284.51
730.382	2208.73
730.568	2151.39
730.754	2126.82
730.94	2075.62
731.126	2204.64
731.313	2159.58
731.499	2171.87
731.685	2128.86
731.871	2149.34
732.057	2169.82
732.243	2165.73
732.429	2137.06
732.615	2081.76
732.801	2124.77
732.987	2135.01
733.173	2167.77
733.359	2083.81
733.545	2046.94
733.731	2040.8
733.917	2069.47
734.103	2145.25
734.289	2114.53
734.475	2110.43
734.661	2079.71
734.847	2161.63
735.033	2112.48
735.219	2079.71
735.404	2098.14
735.59	2108.38
735.776	2118.62
735.962	2061.28
736.148	2100.19
736.333	2114.53
736.519	2110.43
736.705	2110.43
736.89	2077.66
737.076	1954.79
737.262	2100.19
737.447	2038.75
737.633	1954.79
737.819	1973.22
738.004	2044.9
738.19	1938.4
738.375	2024.42
738.561	1991.65
738.747	1973.22
738.932	1952.74
739.118	2028.51
739.303	1985.51
739.489	1901.54
739.674	1874.92
739.859	1954.79
740.045	2016.23
740.23	1954.79
740.416	1876.96
740.601	1987.55
740.786	1881.06
740.972	1860.58
741.157	1940.45
741.342	1899.49
741.528	1924.07
741.713	1938.4
741.898	1938.4
742.084	1973.22
742.269	1942.5
742.454	1932.26
742.639	1993.7
742.824	1934.31
743.01	1924.07
743.195	1913.83
743.38	1844.2
743.565	1883.11
743.75	1870.82
743.935	1741.8
744.12	1823.72
744.305	1717.22
744.49	1817.57
744.675	1770.47
744.86	1768.42
745.045	1817.57
745.23	1700.84
745.415	1745.89
745.6	1760.23
745.785	1743.85
745.97	1752.04
746.155	1582.06
746.34	1762.28
746.525	1698.79
746.71	1711.08
746.895	1647.59
747.079	1637.35
747.264	1684.45
747.449	1803.24
747.634	1661.93
747.819	1539.05
748.003	1594.34
748.188	1602.54
748.373	1659.88
748.557	1522.66
748.742	1584.1
748.927	1655.78
749.111	1702.89
749.296	1575.91
749.481	1496.04
749.665	1412.07
749.85	1586.15
750.034	1569.77
750.219	1471.47
750.404	1391.59
750.588	1532.9
750.773	1487.85
750.957	1530.86
751.141	1412.07
751.326	1422.31
751.51	1381.35
751.695	1377.26
751.879	1381.35
752.064	1430.51
752.248	1311.72
752.432	1489.9
752.617	1299.44
752.801	1434.6
752.985	1358.83
753.17	1410.03
753.354	1371.12
753.538	1326.06
753.722	1319.92
753.907	1344.49
754.091	1307.63
754.275	1342.44
754.459	1278.96
754.643	1274.86
754.828	1330.16
755.012	1276.91
755.196	1274.86
755.38	1221.61
755.564	1133.55
755.748	1233.9
755.932	1258.48
756.116	1242.09
756.3	1139.69
756.484	1121.26
756.668	1238
756.852	1129.45
757.036	1143.79
757.22	1082.35
757.404	1111.02
757.588	1115.12
757.772	1108.98
757.956	1086.45
758.14	1127.41
758.323	1055.73
758.507	1184.75
758.691	1045.49
758.875	1170.41
759.059	1078.26
759.242	1025.01
759.426	1049.58
759.61	982
759.794	1033.2
759.977	1014.77
760.161	1059.82
760.345	1068.02
760.528	1049.58
760.712	1047.54
760.895	965.62
761.079	902.13
761.263	900.08
761.446	924.66
761.63	1014.77
761.813	906.23
761.997	910.32
762.18	902.13
762.364	984.05
762.547	902.13
762.731	910.32
762.914	914.42
763.098	908.27
763.281	938.99
763.464	906.23
763.648	887.79
763.831	816.12
764.015	938.99
764.198	852.98
764.381	801.78
764.564	797.68
764.748	914.42
764.931	785.4
765.114	822.26
765.297	932.85
765.481	865.27
765.664	857.07
765.847	785.4
766.03	910.32
766.213	812.02
766.397	844.79
766.58	820.21
766.763	836.6
766.946	865.27
767.129	830.45
767.312	828.4
767.495	766.96
767.678	801.78
767.861	861.17
768.044	822.26
768.227	865.27
768.41	730.1
768.593	799.73
768.776	775.16
768.959	812.02
769.142	818.16
769.324	791.54
769.507	791.54
769.69	783.35
769.873	783.35
770.056	828.4
770.239	746.48
770.421	771.06
770.604	726
770.787	762.87
770.97	705.53
771.152	742.39
771.335	715.77
771.518	769.01
771.7	717.81
771.883	775.16
772.066	709.62
772.248	711.67
772.431	783.35
772.613	693.24
772.796	699.38
772.978	709.62
773.161	713.72
773.343	699.38
773.526	619.51
773.708	668.66
773.891	664.57
774.073	717.81
774.256	699.38
774.438	672.76
774.621	654.33
774.803	642.04
774.985	627.7
775.168	687.09
775.35	601.08
775.532	660.47
775.715	683
775.897	545.78
776.079	515.06
776.261	658.42
776.444	584.7
776.626	603.13
776.808	506.87
776.99	570.36
777.173	574.46
777.355	463.86
777.537	551.93
777.719	553.98
777.901	570.36
778.083	506.87
778.265	521.21
778.447	594.93
778.629	556.02
778.811	492.54
778.993	572.41
779.175	531.45
779.357	562.17
779.539	465.91
779.721	523.26
779.903	553.98
780.085	451.58
780.267	545.78
780.449	513.02
780.631	521.21
780.812	482.3
780.994	570.36
781.176	521.21
781.358	465.91
781.54	463.86
781.721	472.06
781.903	441.34
782.085	500.73
782.267	513.02
782.448	363.51
782.63	361.47
782.812	453.63
782.993	424.95
783.175	506.87
783.357	400.38
783.538	480.25
783.72	402.43
783.901	439.29
784.083	492.54
784.264	410.62
784.446	367.61
784.627	373.75
784.809	363.51
784.99	369.66
785.172	414.71
785.353	369.66
785.535	394.23
785.716	406.52
785.897	359.42
786.079	310.27
786.26	375.8
786.441	291.84
786.623	398.33
786.804	295.93
786.985	275.45
787.167	416.76
787.348	324.6
787.529	324.6
787.71	406.52
787.891	394.23
788.073	283.64
788.254	265.21
788.435	308.22
788.616	373.75
788.797	398.33
788.978	334.84
789.159	302.08
789.34	390.14
789.522	308.22
789.703	293.88
789.884	310.27
790.065	367.61
790.246	224.25
790.427	310.27
790.607	273.4
790.788	316.41
790.969	203.77
791.15	336.89
791.331	242.68
791.512	230.4
791.693	250.88
791.874	244.73
792.054	383.99
792.235	300.03
792.416	211.96
792.597	330.75
792.778	287.74
792.958	236.54
793.139	328.7
793.32	234.49
793.5	234.49
793.681	267.26
793.862	285.69
794.042	218.11
794.223	218.11
794.404	277.5
794.584	250.88
794.765	271.36
794.945	230.4
795.126	205.82
795.306	244.73
795.487	316.41
795.667	226.3
795.848	289.79
796.028	265.21
796.209	209.92
796.389	242.68
796.57	285.69
796.75	252.92
796.93	244.73
797.111	281.6
797.291	220.16
797.471	281.6
797.652	244.73
797.832	156.67
798.012	246.78
798.192	160.77
798.373	277.5
798.553	281.6
798.733	230.4
798.913	201.72
799.093	267.26
799.274	187.39
799.454	222.2
799.634	238.59
799.814	310.27
799.994	181.25
800.174	226.3
800.354	197.63
800.534	197.63
800.714	252.92
800.894	168.96
801.074	144.38
801.254	234.49
801.434	257.02
801.614	164.86
801.794	113.66
801.974	807.92
802.154	138.24
802.334	300.03
802.514	191.49
802.693	230.4
802.873	195.58
803.053	228.35
803.233	201.72
803.413	179.2
803.592	201.72
803.772	162.81
803.952	160.77
804.131	132.09
804.311	240.64
804.491	187.39
804.67	130.05
804.85	144.38
805.03	187.39
805.209	173.05
805.389	101.37
805.568	93.18
805.748	111.61
805.928	171.01
806.107	162.81
806.287	156.67
806.466	211.96
806.646	119.81
806.825	117.76
807.004	168.96
807.184	179.2
807.363	91.13
807.543	123.9
807.722	152.57
807.901	150.53
808.081	142.33
808.26	91.13
808.439	130.05
808.619	146.43
808.798	142.33
808.977	164.86
809.156	138.24
809.336	111.61
809.515	154.62
809.694	105.47
809.873	183.29
810.052	152.57
810.231	203.77
810.411	97.28
810.59	138.24
810.769	87.04
810.948	195.58
811.127	89.09
811.306	160.77
811.485	128
811.664	195.58
811.843	140.29
812.022	185.34
812.201	95.23
812.38	160.77
812.559	95.23
812.737	132.09
812.916	33.79
813.095	158.72
813.274	158.72
813.453	158.72
813.632	74.75
813.811	64.51
813.989	111.61
814.168	134.14
814.347	111.61
814.526	121.85
814.704	140.29
814.883	226.3
815.062	125.95
815.24	160.77
815.419	103.42
815.598	168.96
815.776	87.04
815.955	68.61
816.133	56.32
816.312	195.58
816.49	111.61
816.669	128
816.847	76.8
817.026	173.05
817.204	119.81
817.383	134.14
817.561	80.89
817.74	113.66
817.918	97.28
818.097	64.51
818.275	128
818.453	119.81
818.632	128
818.81	142.33
818.988	111.61
819.167	103.42
819.345	136.19
819.523	164.86
819.701	111.61
819.879	152.57
820.058	72.7
820.236	119.81
820.414	109.57
820.592	68.61
820.77	97.28
820.948	160.77
821.127	9.22
821.305	35.84
821.483	66.56
821.661	154.62
821.839	160.77
822.017	113.66
822.195	37.89
822.373	156.67
822.551	46.08
822.729	68.61
822.907	123.9
823.085	62.46
823.262	87.04
823.44	46.08
823.618	95.23
823.796	87.04
823.974	62.46
824.152	33.79
824.329	41.98
824.507	142.33
824.685	29.7
824.863	93.18
825.04	103.42
825.218	64.51
825.396	29.7
825.574	87.04
825.751	27.65
825.929	130.05
826.107	91.13
826.284	35.84
826.462	37.89
826.639	70.65
826.817	60.42
826.994	115.71
827.172	68.61
827.349	128
827.527	58.37
827.704	48.13
827.882	25.6
828.059	87.04
828.237	89.09
828.414	103.42
828.591	46.08
828.769	48.13
828.946	111.61
829.124	72.7
829.301	58.37
829.478	119.81
829.655	78.85
829.833	37.89
830.01	31.74
830.187	82.94
830.364	48.13
830.542	130.05
830.719	121.85
830.896	78.85
831.073	97.28
831.25	70.65
831.427	74.75
831.604	35.84
831.782	60.42
831.959	58.37
832.136	31.74
832.313	107.52
832.49	103.42
832.667	97.28
832.844	58.37
833.021	113.66
833.198	58.37
833.374	50.18
833.551	25.6
833.728	33.79
833.905	117.76
834.082	66.56
834.259	-3.07
834.436	48.13
834.612	21.5
834.789	41.98
834.966	41.98
835.143	62.46
835.319	-1.02
835.496	105.47
835.673	37.89
835.85	89.09
836.026	99.33
836.203	72.7
836.38	33.79
836.556	72.7
836.733	99.33
836.909	78.85
837.086	52.22
837.262	13.31
837.439	17.41
837.616	64.51
837.792	7.17
837.968	78.85
838.145	-11.26
838.321	62.46
838.498	41.98
838.674	-7.17
838.851	74.75
839.027	89.09
839.203	13.31
839.38	46.08
839.556	5.12
839.732	95.23
839.909	-17.41
840.085	78.85
840.261	31.74
840.437	58.37
840.614	21.5
840.79	21.5
840.966	91.13
841.142	66.56
841.318	13.31
841.494	62.46
841.671	17.41
841.847	82.94
842.023	29.7
842.199	97.28
842.375	113.66
842.551	5.12
842.727	56.32
842.903	50.18
843.079	46.08
843.255	15.36
843.431	5.12
843.607	56.32
843.783	-9.22
843.959	113.66
844.134	17.41
844.31	130.05
844.486	72.7
844.662	54.27
844.838	33.79
845.013	31.74
845.189	54.27
845.365	25.6
845.541	87.04
845.716	56.32
845.892	84.99
846.068	-41.98
846.244	-17.41
846.419	1.02
846.595	-7.17
846.77	1.02
846.946	-15.36
847.122	5.12
847.297	48.13
847.473	54.27
847.648	23.55
847.824	1.02
847.999	-1.02
848.175	25.6
848.35	37.89
848.526	70.65
848.701	91.13
848.876	31.74
849.052	21.5
849.227	23.55
849.403	-25.6
849.578	44.03
849.753	62.46
849.929	29.7
850.104	58.37
850.279	48.13
850.454	37.89
850.63	54.27
850.805	54.27
850.98	-3.07
851.155	-19.46
851.33	87.04
851.505	-9.22
851.681	64.51
851.856	23.55
852.031	70.65
852.206	-15.36
852.381	64.51
852.556	33.79
852.731	58.37
852.906	-27.65
853.081	46.08
853.256	54.27
853.431	-62.46
853.606	37.89
853.781	-9.22
853.956	-41.98
854.131	1.02
854.305	-58.37
854.48	-29.7
854.655	11.26
854.83	78.85
855.005	54.27
855.18	15.36
855.354	-39.94
855.529	80.89
855.704	-17.41
855.879	46.08
856.053	7.17
856.228	-19.46
856.403	-27.65
856.577	41.98
856.752	-21.5
856.926	-107.52
857.101	74.75
857.276	48.13
857.45	-48.13
857.625	46.08
857.799	-11.26
857.974	17.41
858.148	-17.41
858.323	21.5
858.497	21.5
858.672	17.41
858.846	-84.99
859.02	19.46
859.195	-5.12
859.369	-23.55
859.543	46.08
859.718	23.55
859.892	50.18
860.066	84.99
860.241	-29.7
860.415	-48.13
860.589	39.94
860.763	76.8
860.938	-7.17
861.112	46.08
861.286	-13.31
861.46	125.95
861.634	-66.56
861.808	80.89
861.982	-23.55
862.157	29.7
862.331	13.31
862.505	-7.17
862.679	-33.79
862.853	-9.22
863.027	50.18
863.201	-3.07
863.375	64.51
863.549	72.7
863.722	62.46
863.896	46.08
864.07	-3.07
864.244	15.36
864.418	13.31
864.592	-48.13
864.766	62.46
864.939	33.79
865.113	-35.84
865.287	9.22
865.461	17.41
865.634	-9.22
865.808	11.26
865.982	56.32
866.156	-19.46
866.329	-23.55
866.503	-3.07
866.676	13.31
866.85	-17.41
867.024	21.5
867.197	11.26
867.371	56.32
867.544	13.31
867.718	5.12
867.891	15.36
868.065	-52.22
868.238	-7.17
868.412	17.41
868.585	64.51
868.759	9.22
868.932	-48.13
869.105	-1.02
869.279	-31.74
869.452	-1.02
869.625	37.89
869.799	-3.07
869.972	-35.84
870.145	27.65
870.319	95.23
870.492	46.08
870.665	29.7
870.838	5.12
871.011	-95.23
871.185	23.55
871.358	29.7
871.531	15.36
871.704	-97.28
871.877	5.12
872.05	5.12
872.223	-15.36
872.396	5.12
872.569	25.6
872.742	-15.36
872.915	-62.46
873.088	-66.56
873.261	-17.41
873.434	25.6
873.607	-23.55
873.78	-15.36
873.953	-27.65
874.126	-13.31
874.299	13.31
874.471	5.12
874.644	-29.7
874.817	41.98
874.99	91.13
875.163	-54.27
875.335	52.22
875.508	15.36
875.681	58.37
875.853	-11.26
876.026	66.56
876.199	29.7
876.371	-27.65
876.544	-21.5
876.717	-13.31
876.889	-44.03
877.062	78.85
877.234	-48.13
877.407	13.31
877.579	-3.07
877.752	31.74
877.924	7.17
878.097	91.13
878.269	-15.36
878.442	27.65
878.614	23.55
878.786	9.22
878.959	25.6
879.131	62.46
879.303	7.17
879.476	25.6
879.648	56.32
879.82	33.79
879.993	23.55
880.165	39.94
880.337	-17.41
880.509	-72.7
880.681	-44.03
880.854	46.08
881.026	113.66
881.198	72.7
881.37	-76.8
881.542	-54.27
881.714	1.02
881.886	15.36
882.058	-5.12
882.23	23.55
882.402	60.42
882.574	21.5
882.746	17.41
882.918	29.7
883.09	-60.42
883.262	-17.41
883.434	-35.84
883.606	-3.07
883.778	64.51
883.95	-21.5
884.122	29.7
884.293	-17.41
884.465	-5.12
884.637	78.85
884.809	-27.65
884.98	-89.09
885.152	9.22
885.324	41.98
885.496	-52.22
885.667	33.79
885.839	-31.74
886.011	5.12
886.182	5.12
886.354	21.5
886.525	15.36
886.697	37.89
886.869	-54.27
887.04	54.27
887.212	-23.55
887.383	56.32
887.555	-33.79
887.726	5.12
887.897	37.89
888.069	-64.51
888.24	15.36
888.412	1.02
888.583	37.89
888.754	-1.02
888.926	-5.12
889.097	13.31
889.268	-64.51
889.44	-35.84
889.611	17.41
889.782	46.08
889.953	-7.17
890.125	29.7
890.296	-15.36
890.467	48.13
890.638	91.13
890.809	23.55
890.98	-11.26
891.151	-93.18
891.323	52.22
891.494	9.22
891.665	13.31
891.836	-25.6
892.007	29.7
892.178	-17.41
892.349	7.17
892.52	37.89
892.691	19.46
892.862	-1.02
893.032	-39.94
893.203	21.5
893.374	-9.22
893.545	9.22
893.716	-25.6
893.887	-41.98
894.057	-11.26
894.228	5.12
894.399	23.55
894.57	15.36
894.74	3.07
894.911	-1.02
895.082	-82.94
895.253	41.98
895.423	-1.02
895.594	23.55
895.764	17.41
895.935	-11.26
896.106	-5.12
896.276	37.89
896.447	-31.74
896.617	31.74
896.788	-13.31
896.958	29.7
897.129	-95.23
897.299	-17.41
897.47	74.75
897.64	31.74
897.81	-11.26
897.981	-27.65
898.151	-27.65
898.322	-76.8
898.492	48.13
898.662	-3.07
898.832	-68.61
899.003	5.12
899.173	-31.74
899.343	-17.41
899.513	-70.65
