Data from USB4F104151__293__14-23-53-114.txt Node

Date: Thu Mar 13 14:23:53 EDT 2025
User: louis
Spectrometer: USB4F10415
Trigger mode: 4
Integration Time (sec): 2.000000E-2
Scans to average: 1
Electric dark correction enabled: true
Nonlinearity correction enabled: false
Boxcar width: 0
XAxis mode: Wavelengths
Number of Pixels in Spectrum: 3648
>>>>>Begin Spectral Data<<<<<
178.204	-70.83
178.424	-70.83
178.644	-70.83
178.864	-117.93
179.084	-13.48
179.304	-25.77
179.524	15.19
179.744	27.48
179.964	43.86
180.184	-52.39
180.404	-25.77
180.624	0.85
180.844	-3.24
181.064	4.95
181.283	2.9
181.503	23.38
181.723	-11.43
181.943	-87.21
182.163	82.77
182.383	-11.43
182.602	47.96
182.822	52.05
183.042	95.06
183.262	-3.24
183.482	43.86
183.701	27.48
183.921	95.06
184.141	27.48
184.361	97.11
184.58	62.29
184.8	19.29
185.02	54.1
185.239	125.78
185.459	56.15
185.679	97.11
185.898	-52.39
186.118	11.09
186.338	-46.25
186.557	-1.19
186.777	-52.39
186.997	47.96
187.216	23.38
187.436	11.09
187.655	56.15
187.875	2.9
188.095	25.43
188.314	62.29
188.534	39.76
188.753	-11.43
188.973	84.82
189.192	-1.19
189.412	-3.24
189.631	11.09
189.851	-19.63
190.07	84.82
190.29	4.95
190.509	74.58
190.729	-15.53
190.948	54.1
191.168	142.16
191.387	93.01
191.607	-21.67
191.826	64.34
192.045	13.14
192.265	101.2
192.484	4.95
192.704	-33.96
192.923	15.19
193.142	56.15
193.362	84.82
193.581	64.34
193.8	-21.67
194.02	78.68
194.239	68.44
194.458	52.05
194.678	52.05
194.897	68.44
195.116	-9.39
195.335	68.44
195.555	11.09
195.774	21.33
195.993	21.33
196.212	52.05
196.432	50
196.651	37.72
196.87	29.52
197.089	103.25
197.308	23.38
197.528	88.92
197.747	25.43
197.966	52.05
198.185	90.96
198.404	35.67
198.623	-11.43
198.842	-3.24
199.062	37.72
199.281	-13.48
199.5	29.52
199.719	68.44
199.938	70.48
200.157	35.67
200.376	19.29
200.595	111.44
200.814	7
201.033	19.29
201.252	125.78
201.471	-60.59
201.69	50
201.909	43.86
202.128	23.38
202.347	27.48
202.566	103.25
202.785	13.14
203.004	27.48
203.223	113.49
203.442	17.24
203.661	-19.63
203.879	2.9
204.098	76.63
204.317	2.9
204.536	101.2
204.755	64.34
204.974	54.1
205.193	84.82
205.411	101.2
205.63	2.9
205.849	27.48
206.068	-50.35
206.287	21.33
206.505	2.9
206.724	39.76
206.943	66.39
207.162	-1.19
207.381	37.72
207.599	25.43
207.818	35.67
208.037	31.57
208.255	-13.48
208.474	-36.01
208.693	37.72
208.911	66.39
209.13	23.38
209.349	-33.96
209.567	72.53
209.786	7
210.005	74.58
210.223	72.53
210.442	-13.48
210.661	43.86
210.879	-21.67
211.098	19.29
211.316	-1.19
211.535	45.91
211.753	-3.24
211.972	50
212.191	84.82
212.409	-62.63
212.628	68.44
212.846	-5.29
213.065	27.48
213.283	90.96
213.502	43.86
213.72	80.72
213.938	93.01
214.157	43.86
214.375	43.86
214.594	-3.24
214.812	-33.96
215.031	43.86
215.249	-11.43
215.467	-15.53
215.686	-29.87
215.904	47.96
216.122	35.67
216.341	64.34
216.559	-5.29
216.778	13.14
216.996	50
217.214	29.52
217.432	29.52
217.651	29.52
217.869	101.2
218.087	-17.58
218.306	66.39
218.524	140.12
218.742	-5.29
218.96	31.57
219.179	52.05
219.397	52.05
219.615	125.78
219.833	54.1
220.051	54.1
220.27	66.39
220.488	43.86
220.706	93.01
220.924	15.19
221.142	-3.24
221.36	72.53
221.578	62.29
221.796	21.33
222.015	-21.67
222.233	43.86
222.451	64.34
222.669	-13.48
222.887	60.24
223.105	19.29
223.323	31.57
223.541	-13.48
223.759	43.86
223.977	2.9
224.195	88.92
224.413	88.92
224.631	93.01
224.849	17.24
225.067	43.86
225.285	27.48
225.503	4.95
225.721	-58.54
225.939	76.63
226.157	-19.63
226.375	136.02
226.592	-46.25
226.81	11.09
227.028	21.33
227.246	27.48
227.464	43.86
227.682	50
227.9	70.48
228.117	0.85
228.335	27.48
228.553	-27.82
228.771	35.67
228.989	-21.67
229.206	23.38
229.424	-11.43
229.642	60.24
229.86	21.33
230.077	74.58
230.295	43.86
230.513	56.15
230.731	35.67
230.948	88.92
231.166	11.09
231.384	-64.68
231.601	7
231.819	93.01
232.037	41.81
232.254	78.68
232.472	27.48
232.689	56.15
232.907	64.34
233.125	31.57
233.342	-19.63
233.56	-36.01
233.777	47.96
233.995	39.76
234.213	80.72
234.43	39.76
234.648	62.29
234.865	27.48
235.083	62.29
235.3	19.29
235.518	9.05
235.735	68.44
235.953	54.1
236.17	-40.11
236.388	31.57
236.605	60.24
236.822	45.91
237.04	119.64
237.257	107.35
237.475	-7.34
237.692	150.36
237.909	70.48
238.127	-21.67
238.344	21.33
238.562	15.19
238.779	-1.19
238.996	2.9
239.214	-21.67
239.431	117.59
239.648	27.48
239.865	27.48
240.083	19.29
240.3	15.19
240.517	-54.44
240.735	74.58
240.952	52.05
241.169	35.67
241.386	56.15
241.603	35.67
241.821	54.1
242.038	60.24
242.255	7
242.472	80.72
242.689	47.96
242.907	95.06
243.124	47.96
243.341	15.19
243.558	13.14
243.775	29.52
243.992	-79.02
244.209	27.48
244.426	84.82
244.643	54.1
244.86	-21.67
245.078	19.29
245.295	-19.63
245.512	11.09
245.729	-29.87
245.946	13.14
246.163	66.39
246.38	45.91
246.597	19.29
246.814	64.34
247.031	35.67
247.248	84.82
247.464	31.57
247.681	64.34
247.898	19.29
248.115	101.2
248.332	2.9
248.549	113.49
248.766	52.05
248.983	101.2
249.2	41.81
249.417	45.91
249.633	13.14
249.85	31.57
250.067	127.83
250.284	19.29
250.501	93.01
250.717	70.48
250.934	-5.29
251.151	4.95
251.368	-89.26
251.585	90.96
251.801	76.63
252.018	13.14
252.235	31.57
252.451	15.19
252.668	-7.34
252.885	70.48
253.102	72.53
253.318	11.09
253.535	4.95
253.752	21.33
253.968	-29.87
254.185	29.52
254.401	35.67
254.618	93.01
254.835	-27.82
255.051	101.2
255.268	80.72
255.484	-3.24
255.701	-50.35
255.917	-5.29
256.134	64.34
256.351	15.19
256.567	35.67
256.784	50
257	-5.29
257.217	68.44
257.433	41.81
257.65	-17.58
257.866	47.96
258.082	19.29
258.299	31.57
258.515	56.15
258.732	4.95
258.948	56.15
259.165	35.67
259.381	62.29
259.597	-5.29
259.814	-1.19
260.03	105.3
260.246	-13.48
260.463	-5.29
260.679	80.72
260.895	-21.67
261.112	62.29
261.328	43.86
261.544	11.09
261.761	62.29
261.977	-3.24
262.193	84.82
262.409	93.01
262.626	60.24
262.842	68.44
263.058	-17.58
263.274	-7.34
263.49	54.1
263.707	52.05
263.923	47.96
264.139	27.48
264.355	15.19
264.571	23.38
264.787	52.05
265.004	86.87
265.22	-5.29
265.436	109.4
265.652	-13.48
265.868	-56.49
266.084	64.34
266.3	39.76
266.516	60.24
266.732	-1.19
266.948	4.95
267.164	4.95
267.38	21.33
267.596	88.92
267.812	88.92
268.028	43.86
268.244	23.38
268.46	43.86
268.676	111.44
268.892	23.38
269.108	2.9
269.324	70.48
269.54	11.09
269.756	19.29
269.972	-36.01
270.188	54.1
270.403	70.48
270.619	-5.29
270.835	27.48
271.051	72.53
271.267	15.19
271.483	54.1
271.698	45.91
271.914	9.05
272.13	64.34
272.346	-11.43
272.562	7
272.777	43.86
272.993	23.38
273.209	-13.48
273.425	93.01
273.64	15.19
273.856	84.82
274.072	52.05
274.287	19.29
274.503	70.48
274.719	23.38
274.934	7
275.15	-44.2
275.366	50
275.581	2.9
275.797	76.63
276.012	-29.87
276.228	17.24
276.444	84.82
276.659	11.09
276.875	56.15
277.09	56.15
277.306	-27.82
277.521	13.14
277.737	7
277.952	47.96
278.168	21.33
278.383	-27.82
278.599	72.53
278.814	47.96
279.03	52.05
279.245	52.05
279.461	29.52
279.676	35.67
279.892	2.9
280.107	56.15
280.322	-66.73
280.538	54.1
280.753	-38.06
280.969	54.1
281.184	27.48
281.399	31.57
281.615	37.72
281.83	37.72
282.045	23.38
282.26	11.09
282.476	9.05
282.691	62.29
282.906	23.38
283.122	2.9
283.337	31.57
283.552	21.33
283.767	0.85
283.983	43.86
284.198	45.91
284.413	-11.43
284.628	-21.67
284.843	23.38
285.058	72.53
285.274	101.2
285.489	97.11
285.704	-21.67
285.919	11.09
286.134	11.09
286.349	7
286.564	13.14
286.779	54.1
286.995	-44.2
287.21	-19.63
287.425	7
287.64	-62.63
287.855	70.48
288.07	52.05
288.285	76.63
288.5	27.48
288.715	82.77
288.93	60.24
289.145	29.52
289.36	33.62
289.575	15.19
289.79	15.19
290.004	13.14
290.219	21.33
290.434	-5.29
290.649	7
290.864	4.95
291.079	27.48
291.294	27.48
291.509	-1.19
291.724	25.43
291.938	21.33
292.153	93.01
292.368	33.62
292.583	31.57
292.798	-15.53
293.012	15.19
293.227	43.86
293.442	19.29
293.657	23.38
293.871	45.91
294.086	45.91
294.301	64.34
294.516	105.3
294.73	-11.43
294.945	52.05
295.16	11.09
295.374	133.97
295.589	88.92
295.804	21.33
296.018	119.64
296.233	47.96
296.447	133.97
296.662	-38.06
296.877	90.96
297.091	-3.24
297.306	31.57
297.52	11.09
297.735	60.24
297.949	80.72
298.164	117.59
298.378	60.24
298.593	-3.24
298.807	13.14
299.022	52.05
299.236	66.39
299.451	82.77
299.665	13.14
299.88	78.68
300.094	7
300.309	95.06
300.523	84.82
300.737	21.33
300.952	39.76
301.166	39.76
301.381	-17.58
301.595	-1.19
301.809	25.43
302.024	15.19
302.238	27.48
302.452	19.29
302.667	19.29
302.881	60.24
303.095	43.86
303.309	2.9
303.524	52.05
303.738	35.67
303.952	54.1
304.166	115.54
304.381	-87.21
304.595	86.87
304.809	4.95
305.023	117.59
305.237	2.9
305.452	-9.39
305.666	41.81
305.88	35.67
306.094	43.86
306.308	15.19
306.522	84.82
306.736	27.48
306.95	-52.39
307.164	47.96
307.379	15.19
307.593	66.39
307.807	109.4
308.021	33.62
308.235	45.91
308.449	-5.29
308.663	7
308.877	62.29
309.091	25.43
309.305	37.72
309.519	-11.43
309.733	62.29
309.947	-13.48
310.161	74.58
310.374	17.24
310.588	37.72
310.802	2.9
311.016	88.92
311.23	84.82
311.444	4.95
311.658	35.67
311.872	109.4
312.085	84.82
312.299	115.54
312.513	-25.77
312.727	109.4
312.941	4.95
313.154	52.05
313.368	45.91
313.582	-19.63
313.796	62.29
314.009	64.34
314.223	62.29
314.437	45.91
314.651	70.48
314.864	35.67
315.078	-33.96
315.292	52.05
315.505	72.53
315.719	-13.48
315.933	70.48
316.146	19.29
316.36	35.67
316.573	76.63
316.787	43.86
317.001	80.72
317.214	-11.43
317.428	21.33
317.641	7
317.855	37.72
318.068	76.63
318.282	47.96
318.495	47.96
318.709	80.72
318.922	88.92
319.136	97.11
319.349	29.52
319.563	15.19
319.776	9.05
319.99	-17.58
320.203	119.64
320.417	70.48
320.63	-52.39
320.843	54.1
321.057	-36.01
321.27	52.05
321.483	82.77
321.697	80.72
321.91	105.3
322.124	-21.67
322.337	-25.77
322.55	54.1
322.763	19.29
322.977	60.24
323.19	-11.43
323.403	37.72
323.617	33.62
323.83	45.91
324.043	35.67
324.256	27.48
324.469	68.44
324.683	72.53
324.896	64.34
325.109	43.86
325.322	2.9
325.535	43.86
325.748	58.2
325.962	101.2
326.175	64.34
326.388	27.48
326.601	86.87
326.814	95.06
327.027	78.68
327.24	33.62
327.453	-21.67
327.666	86.87
327.879	23.38
328.092	45.91
328.305	11.09
328.518	45.91
328.731	-29.87
328.944	17.24
329.157	45.91
329.37	80.72
329.583	56.15
329.796	45.91
330.009	-40.11
330.222	43.86
330.435	54.1
330.648	-40.11
330.861	35.67
331.073	35.67
331.286	47.96
331.499	54.1
331.712	35.67
331.925	35.67
332.138	70.48
332.35	95.06
332.563	74.58
332.776	60.24
332.989	-9.39
333.202	84.82
333.414	-13.48
333.627	-17.58
333.84	62.29
334.053	23.38
334.265	19.29
334.478	47.96
334.691	60.24
334.903	21.33
335.116	-17.58
335.329	23.38
335.541	21.33
335.754	150.36
335.966	21.33
336.179	27.48
336.392	35.67
336.604	17.24
336.817	0.85
337.029	43.86
337.242	-29.87
337.454	21.33
337.667	76.63
337.88	11.09
338.092	-19.63
338.305	0.85
338.517	-54.44
338.729	133.97
338.942	39.76
339.154	23.38
339.367	33.62
339.579	9.05
339.792	29.52
340.004	7
340.217	19.29
340.429	64.34
340.641	-54.44
340.854	11.09
341.066	11.09
341.278	62.29
341.491	146.26
341.703	97.11
341.915	11.09
342.128	25.43
342.34	52.05
342.552	60.24
342.764	52.05
342.977	37.72
343.189	19.29
343.401	70.48
343.613	-13.48
343.826	21.33
344.038	7
344.25	54.1
344.462	-46.25
344.674	27.48
344.886	68.44
345.099	21.33
345.311	101.2
345.523	86.87
345.735	-72.87
345.947	66.39
346.159	4.95
346.371	52.05
346.583	60.24
346.795	84.82
347.007	41.81
347.219	45.91
347.431	-3.24
347.643	29.52
347.855	101.2
348.067	84.82
348.279	68.44
348.491	-3.24
348.703	74.58
348.915	64.34
349.127	37.72
349.339	2.9
349.551	52.05
349.763	35.67
349.975	97.11
350.187	62.29
350.399	58.2
350.61	11.09
350.822	29.52
351.034	78.68
351.246	66.39
351.458	-5.29
351.669	78.68
351.881	68.44
352.093	23.38
352.305	13.14
352.517	41.81
352.728	140.12
352.94	101.2
353.152	109.4
353.363	15.19
353.575	15.19
353.787	27.48
353.999	84.82
354.21	107.35
354.422	23.38
354.633	11.09
354.845	35.67
355.057	93.01
355.268	-11.43
355.48	62.29
355.692	-13.48
355.903	64.34
356.115	45.91
356.326	15.19
356.538	84.82
356.749	60.24
356.961	97.11
357.172	4.95
357.384	50
357.595	99.16
357.807	-50.35
358.018	52.05
358.23	-21.67
358.441	86.87
358.653	111.44
358.864	70.48
359.075	82.77
359.287	35.67
359.498	86.87
359.709	29.52
359.921	117.59
360.132	86.87
360.344	125.78
360.555	52.05
360.766	4.95
360.977	66.39
361.189	109.4
361.4	68.44
361.611	52.05
361.823	58.2
362.034	52.05
362.245	84.82
362.456	47.96
362.667	52.05
362.879	31.57
363.09	62.29
363.301	111.44
363.512	56.15
363.723	27.48
363.935	45.91
364.146	60.24
364.357	-9.39
364.568	35.67
364.779	19.29
364.99	60.24
365.201	19.29
365.412	133.97
365.623	37.72
365.834	86.87
366.045	76.63
366.256	117.59
366.467	23.38
366.678	109.4
366.889	-21.67
367.1	37.72
367.311	70.48
367.522	-46.25
367.733	95.06
367.944	41.81
368.155	37.72
368.366	142.16
368.577	9.05
368.788	7
368.999	7
369.209	52.05
369.42	109.4
369.631	152.4
369.842	95.06
370.053	43.86
370.264	125.78
370.474	29.52
370.685	47.96
370.896	-19.63
371.107	70.48
371.317	54.1
371.528	131.92
371.739	97.11
371.95	27.48
372.16	84.82
372.371	54.1
372.582	95.06
372.792	54.1
373.003	84.82
373.214	76.63
373.424	21.33
373.635	27.48
373.846	90.96
374.056	-13.48
374.267	19.29
374.477	7
374.688	35.67
374.898	93.01
375.109	113.49
375.319	88.92
375.53	43.86
375.74	88.92
375.951	86.87
376.161	-7.34
376.372	76.63
376.582	37.72
376.793	35.67
377.003	39.76
377.214	43.86
377.424	84.82
377.635	37.72
377.845	93.01
378.055	50
378.266	-68.78
378.476	31.57
378.686	19.29
378.897	93.01
379.107	62.29
379.317	103.25
379.528	43.86
379.738	19.29
379.948	35.67
380.158	31.57
380.369	54.1
380.579	113.49
380.789	76.63
380.999	27.48
381.21	39.76
381.42	56.15
381.63	33.62
381.84	76.63
382.05	19.29
382.261	84.82
382.471	31.57
382.681	29.52
382.891	45.91
383.101	62.29
383.311	117.59
383.521	-3.24
383.731	60.24
383.941	19.29
384.151	47.96
384.361	13.14
384.571	29.52
384.781	47.96
384.991	88.92
385.201	125.78
385.411	62.29
385.621	103.25
385.831	70.48
386.041	90.96
386.251	68.44
386.461	62.29
386.671	17.24
386.881	58.2
387.091	93.01
387.301	56.15
387.511	119.64
387.72	88.92
387.93	88.92
388.14	13.14
388.35	101.2
388.56	84.82
388.769	23.38
388.979	-11.43
389.189	-9.39
389.399	93.01
389.609	86.87
389.818	121.68
390.028	84.82
390.238	101.2
390.447	37.72
390.657	101.2
390.867	101.2
391.076	2.9
391.286	13.14
391.496	31.57
391.705	29.52
391.915	101.2
392.125	2.9
392.334	60.24
392.544	52.05
392.753	35.67
392.963	37.72
393.172	103.25
393.382	45.91
393.591	111.44
393.801	19.29
394.01	99.16
394.22	84.82
394.429	123.73
394.639	78.68
394.848	11.09
395.058	136.02
395.267	54.1
395.477	27.48
395.686	109.4
395.895	95.06
396.105	170.83
396.314	142.16
396.524	56.15
396.733	39.76
396.942	93.01
397.152	95.06
397.361	86.87
397.57	80.72
397.78	101.2
397.989	105.3
398.198	127.83
398.407	136.02
398.617	97.11
398.826	68.44
399.035	150.36
399.244	127.83
399.453	136.02
399.663	74.58
399.872	158.55
400.081	88.92
400.29	199.51
400.499	88.92
400.708	117.59
400.917	142.16
401.127	111.44
401.336	101.2
401.545	183.12
401.754	148.31
401.963	136.02
402.172	121.68
402.381	152.4
402.59	113.49
402.799	117.59
403.008	160.59
403.217	142.16
403.426	179.03
403.635	99.16
403.844	146.26
404.053	142.16
404.262	99.16
404.471	131.92
404.68	152.4
404.888	103.25
405.097	146.26
405.306	174.93
405.515	168.79
405.724	189.27
405.933	201.55
406.142	193.36
406.35	222.03
406.559	224.08
406.768	166.74
406.977	252.75
407.185	242.51
407.394	195.41
407.603	224.08
407.812	277.33
408.02	273.23
408.229	168.79
408.438	215.89
408.646	224.08
408.855	199.51
409.064	269.14
409.272	346.96
409.481	338.77
409.69	273.23
409.898	285.52
410.107	306
410.315	396.11
410.524	291.66
410.733	414.54
410.941	328.53
411.15	326.48
411.358	482.13
411.567	379.73
411.775	396.11
411.984	396.11
412.192	428.88
412.401	404.3
412.609	502.61
412.818	502.61
413.026	539.47
413.234	514.89
413.443	514.89
413.651	586.57
413.86	643.92
414.068	633.68
414.276	662.35
414.485	676.68
414.693	697.16
414.901	699.21
415.11	680.78
415.318	699.21
415.526	795.47
415.734	813.9
415.943	830.28
416.151	887.62
416.359	889.67
416.567	895.82
416.776	916.3
416.984	893.77
417.192	967.49
417.4	1028.93
417.608	1035.08
417.817	1100.61
418.025	1157.96
418.233	1192.77
418.441	1141.57
418.649	1229.63
418.857	1356.61
419.065	1329.99
419.273	1334.08
419.481	1428.29
419.689	1481.53
419.897	1530.69
420.105	1575.74
420.313	1635.13
420.521	1614.65
420.729	1635.13
420.937	1784.63
421.145	1866.55
421.353	1874.74
421.561	1962.81
421.769	2046.77
421.977	2194.23
422.185	2145.08
422.393	2218.8
422.601	2353.97
422.809	2341.68
423.017	2411.31
423.224	2329.39
423.432	2517.81
423.64	2677.55
423.848	2861.87
424.056	2722.6
424.263	2945.83
424.471	2886.44
424.679	3128.1
424.887	3257.12
425.094	3318.56
425.302	3349.28
425.51	3291.94
425.718	3517.22
425.925	3568.41
426.133	3588.89
426.341	3877.66
426.548	4037.4
426.756	3928.86
426.964	4006.68
427.171	4334.36
427.379	4346.64
427.586	4518.67
427.794	4582.16
428.001	4885.26
428.209	4934.41
428.417	4844.3
428.624	5294.85
428.832	5305.09
429.039	5210.89
429.247	5296.9
429.454	5753.6
429.662	6238.97
429.869	5780.22
430.076	5962.49
430.284	5890.81
430.491	6124.28
430.699	6566.64
430.906	6578.93
431.114	6564.59
431.321	6988.52
431.528	7074.54
431.736	7408.36
431.943	7754.46
432.15	7547.62
432.358	7625.44
432.565	8129.24
432.772	8108.76
432.979	8317.65
433.187	8772.3
433.394	8714.96
433.601	9280.2
433.808	9353.93
434.016	9358.02
434.223	9603.78
434.43	10275.51
434.637	9972.41
434.844	10668.72
435.052	10744.5
435.259	10953.39
435.466	10932.91
435.673	10644.15
435.88	11430.57
436.087	12047.01
436.294	11969.18
436.501	11725.47
436.708	11872.93
436.915	12419.74
437.122	12980.88
437.329	12847.76
437.537	13290.12
437.743	13486.73
437.95	13378.19
438.157	14039.68
438.364	14594.68
438.571	14666.36
438.778	14744.18
438.985	15977.06
439.192	15315.56
439.399	15839.84
439.606	15184.49
439.813	16398.94
440.02	17357.39
440.227	17109.58
440.433	16781.91
440.64	17164.88
440.847	17261.13
441.054	17832.52
441.261	18805.3
441.467	18643.51
441.674	19202.61
441.881	19753.51
442.088	19419.69
442.294	19028.53
442.501	19929.64
442.708	20269.6
442.914	21078.55
443.121	22004.23
443.328	21254.67
443.534	22675.96
443.741	22254.08
443.948	21887.5
444.154	23370.22
444.361	23359.98
444.568	23484.91
444.774	23556.59
444.981	23843.31
445.187	24381.92
445.394	25479.63
445.6	25139.67
445.807	27648.43
446.013	26198.47
446.22	26796.48
446.426	27750.83
446.633	28076.46
446.839	29165.98
447.046	28027.31
447.252	29311.38
447.459	29335.96
447.665	29473.17
447.871	30642.56
448.078	31943.02
448.284	30144.91
448.491	31215.99
448.697	32606.56
448.903	32930.14
449.11	32932.19
449.316	32467.3
449.522	32899.42
449.728	34181.45
449.935	33968.46
450.141	34171.21
450.347	35017.02
450.553	33708.37
450.76	34113.87
450.966	35664.18
451.172	35250.49
451.378	35787.06
451.584	35289.4
451.791	35811.63
451.997	35862.83
452.203	36569.38
452.409	36340.01
452.615	36667.69
452.821	34984.26
453.027	34777.41
453.233	36706.6
453.44	35215.68
453.646	35643.7
453.852	35688.76
454.058	36458.79
454.264	35658.04
454.47	36352.3
454.676	35144
454.882	36305.2
455.088	33448.28
455.294	33653.08
455.5	34679.11
455.705	34515.27
455.911	33481.05
456.117	32733.54
456.323	32137.58
456.529	30214.54
456.735	32168.3
456.941	31027.58
457.147	30806.4
457.352	29960.59
457.558	29485.46
457.764	29571.47
457.97	29163.93
458.176	28295.59
458.381	28780.96
458.587	27072.95
458.793	27152.82
458.999	25559.5
459.204	27742.64
459.41	26917.31
459.616	25168.34
459.821	25192.92
460.027	25272.79
460.233	24461.79
460.438	23505.39
460.644	23558.64
460.85	22391.3
461.055	22432.26
461.261	22149.64
461.466	20658.71
461.672	19751.46
461.878	21328.4
462.083	19894.82
462.289	19368.49
462.494	19331.63
462.7	18502.2
462.905	18031.17
463.111	18594.36
463.316	18483.77
463.522	18274.88
463.727	18055.75
463.932	18111.04
464.138	18135.62
464.343	18037.31
464.549	17586.76
464.754	18092.61
464.959	18108.99
465.165	17908.29
465.37	17189.46
465.575	16865.88
465.781	17275.47
465.986	17664.58
466.191	16802.39
466.397	16400.99
466.602	15546.98
466.807	16087.65
467.012	16018.02
467.218	16083.55
467.423	15723.11
467.628	16175.71
467.833	16908.88
468.038	16214.62
468.244	15630.95
468.449	16224.86
468.654	15839.84
468.859	15821.41
469.064	15489.64
469.269	15055.47
469.474	15104.62
469.679	15514.22
469.885	15010.42
470.09	15028.85
470.295	15057.52
470.5	14617.21
470.705	14641.78
470.91	14289.53
471.115	14133.89
471.32	14629.49
471.525	14471.8
471.73	14129.79
471.935	13933.18
472.139	13570.69
472.344	13875.84
472.549	13679.24
472.754	13607.56
472.959	13118.09
473.164	12858
473.369	12946.06
473.574	13554.31
473.778	12925.58
473.983	12964.5
474.188	12960.4
474.393	12434.07
474.598	12477.08
474.802	12348.06
475.007	12298.91
475.212	12151.45
475.417	12024.48
475.621	11907.74
475.826	11770.53
476.031	11621.03
476.235	11379.37
476.44	11811.49
476.645	11344.55
476.849	11514.53
477.054	11539.11
477.259	11203.24
477.463	11020.97
477.668	10799.79
477.872	10812.08
478.077	10810.03
478.282	10318.52
478.486	10492.6
478.691	10234.55
478.895	10324.66
479.1	10287.8
479.304	10496.69
479.509	9994.94
479.713	10203.83
479.918	9849.54
480.122	9767.62
480.326	10064.57
480.531	9814.72
480.735	9822.91
480.94	9616.07
481.144	9960.13
481.348	9571.01
481.553	9667.27
481.757	9523.91
481.961	9695.94
482.166	9472.71
482.37	9745.09
482.574	9398.98
482.778	9497.28
482.983	9571.01
483.187	9552.58
483.391	9441.99
483.595	9507.52
483.8	9310.92
484.004	9511.62
484.208	9726.66
484.412	9532.1
484.616	9562.82
484.821	9528
485.025	9499.33
485.229	9564.87
485.433	9327.3
485.637	9611.97
485.841	9333.45
486.045	9294.54
486.249	9448.13
486.453	9298.63
486.657	9493.19
486.861	9554.63
487.065	9171.66
487.269	9579.2
487.473	9229
487.677	9464.52
487.881	9575.11
488.085	9122.51
488.289	9435.85
488.493	9464.52
488.697	9679.55
488.901	9540.29
489.105	9566.92
489.309	9493.19
489.512	9505.48
489.716	9589.44
489.92	9587.4
490.124	9491.14
490.328	9810.62
490.531	9556.68
490.735	9593.54
490.939	9800.38
491.143	9671.36
491.346	9767.62
491.55	9919.17
491.754	9812.67
491.958	9786.05
492.161	9892.54
492.365	10023.61
492.569	9921.21
492.772	9845.44
492.976	10199.74
493.18	10220.22
493.383	10259.13
493.587	10298.04
493.79	10400.44
493.994	10326.71
494.197	10324.66
494.401	10349.24
494.605	10498.74
494.808	10644.15
495.012	10861.23
495.215	10529.46
495.419	10926.77
495.622	10521.27
495.825	10810.03
496.029	10996.4
496.232	11113.13
496.436	11012.78
496.639	11698.85
496.843	11283.11
497.046	11580.07
497.249	11678.37
497.453	11623.08
497.656	11621.03
497.859	11928.22
498.063	11868.83
498.266	12118.68
498.469	11991.71
498.673	12417.69
498.876	12501.65
499.079	12495.51
499.282	12794.51
499.485	12823.19
499.689	12806.8
499.892	13134.48
500.095	12989.07
500.298	13501.06
500.501	13378.19
500.705	13693.57
500.908	13970.05
501.111	13972.1
501.314	14279.29
501.517	14439.03
501.72	14275.2
501.923	14426.75
502.126	14822
502.329	15071.86
502.532	15049.33
502.735	15067.76
502.938	15041.14
503.141	15391.34
503.344	15788.64
503.547	15622.76
503.75	16022.11
503.953	16224.86
504.156	16290.4
504.359	16386.65
504.562	16740.95
504.765	16947.79
504.968	16900.69
505.17	17230.41
505.373	17085.01
505.576	17572.43
505.779	17582.67
505.982	17711.69
506.185	18367.04
506.387	18446.91
506.59	18338.37
506.793	18821.69
506.996	18471.48
507.198	19378.73
507.401	19243.57
507.604	19399.21
507.807	19606.06
508.009	19898.92
508.212	19952.16
508.415	20300.32
508.617	20470.3
508.82	20550.17
509.022	20429.34
509.225	21080.6
509.428	21344.78
509.63	21279.25
509.833	21463.57
510.035	21963.27
510.238	21899.78
510.44	22258.18
510.643	22884.86
510.845	22489.6
511.048	22524.41
511.25	23196.15
511.453	23069.17
511.655	23849.45
511.858	23433.71
512.06	23884.26
512.262	24248.8
512.465	23708.14
512.667	24549.85
512.87	24637.92
513.072	24570.33
513.274	25180.63
513.477	25551.31
513.679	25696.72
513.881	26108.36
514.084	26112.45
514.286	26405.31
514.488	26575.3
514.69	27234.74
514.893	27460.02
515.095	27296.18
515.297	27810.22
515.499	27482.55
515.701	28029.35
515.904	28406.18
516.106	28502.43
516.308	28959.13
516.51	29213.08
516.712	29403.54
516.914	29647.25
517.116	30017.93
517.318	29907.34
517.52	30318.98
517.722	30361.99
517.925	30691.71
518.127	31070.59
518.329	31549.81
518.531	31601.01
518.733	31832.43
518.935	32016.75
519.136	32072.04
519.338	32575.84
519.54	32563.56
519.742	33343.83
519.944	32915.81
520.146	33593.68
520.348	34021.71
520.55	34070.86
520.752	33931.6
520.954	34767.17
521.155	34279.75
521.357	34576.71
521.559	35094.85
521.761	35582.26
521.963	35443
522.164	35934.51
522.366	36018.48
522.568	36307.24
522.77	36202.8
522.971	36911.39
523.173	36565.29
523.375	37042.46
523.576	36845.86
523.778	37103.9
523.98	37943.57
524.181	37947.67
524.383	38070.54
524.584	38222.09
524.786	38643.98
524.988	38332.68
525.189	38875.4
525.391	38965.51
525.592	38893.83
525.794	39438.59
525.995	39594.23
526.197	39268.61
526.398	39629.05
526.6	39794.93
526.801	40141.04
527.003	39835.89
527.204	39991.54
527.406	40499.44
527.607	40438
527.808	40915.17
528.01	39893.24
528.211	40177.9
528.412	41564.38
528.614	41328.86
528.815	41011.43
529.016	41355.49
529.218	40974.56
529.419	41476.32
529.62	41126.11
529.822	41271.52
530.023	41672.92
530.224	41431.26
530.425	41498.84
530.626	41169.12
530.828	41347.29
531.029	42033.36
531.23	41205.98
531.431	41771.22
531.632	42062.04
531.833	42178.77
532.035	41623.77
532.236	41717.98
532.437	41922.77
532.638	41998.55
532.839	42449.1
533.04	42701
533.241	42019.03
533.442	42631.37
533.643	42129.62
533.844	41924.82
534.045	42232.02
534.246	42137.81
534.447	42430.67
534.648	41894.1
534.849	42369.23
535.05	42029.27
535.251	41996.5
535.451	41965.78
535.652	42129.62
535.853	41754.84
536.054	42473.68
536.255	41871.57
536.456	41754.84
536.657	42563.79
536.857	41812.18
537.058	42074.32
537.259	42189.01
537.46	41984.21
537.66	41349.34
537.861	42137.81
538.062	41822.42
538.263	41734.36
538.463	42041.56
538.664	41984.21
538.865	42055.89
539.065	42164.43
539.266	42139.86
539.466	42111.19
539.667	41308.38
539.868	41984.21
540.068	41756.89
540.269	41738.46
540.469	41984.21
540.67	41894.1
540.87	41574.62
541.071	41666.78
541.271	42105.04
541.472	42031.32
541.672	41629.91
541.873	41558.24
542.073	41001.19
542.274	41517.28
542.474	41476.32
542.675	41210.08
542.875	41771.22
543.075	41515.23
543.276	40884.45
543.476	41787.61
543.676	41079.01
543.877	41623.77
544.077	41677.02
544.277	41421.02
544.478	41496.8
544.678	41722.07
544.878	41337.05
545.078	41296.1
545.279	41023.72
545.479	40954.08
545.679	41433.31
545.879	41382.11
546.079	41197.79
546.28	41038.05
546.48	41228.51
546.68	41308.38
546.88	41220.32
547.08	41484.51
547.28	41523.42
547.48	40884.45
547.68	41246.94
547.88	40786.15
548.081	41011.43
548.281	41242.85
548.481	41003.24
548.681	41328.86
548.881	41537.76
549.081	41345.25
549.28	40839.4
549.48	41177.31
549.68	40706.28
549.88	41519.32
550.08	41029.86
550.28	41169.12
550.48	41234.66
550.68	41447.64
550.88	40818.92
551.08	40577.26
551.279	40833.25
551.479	40659.18
551.679	41152.74
551.879	40993
552.079	41255.14
552.278	40663.27
552.478	40999.14
552.678	40794.34
552.878	41029.86
553.077	40878.31
553.277	40802.53
553.477	41162.98
553.676	40450.28
553.876	40751.34
554.076	40632.55
554.275	40544.49
554.475	40177.9
554.674	40958.18
554.874	40880.36
555.074	40411.37
555.273	40915.17
555.473	40548.59
555.672	40153.33
555.872	40544.49
556.071	40419.56
556.271	40433.9
556.47	40421.61
556.67	39985.4
556.869	40163.57
557.068	40376.56
557.268	40208.62
557.467	40392.94
557.667	40286.45
557.866	40159.47
558.065	40247.54
558.265	40050.93
558.464	39864.57
558.663	40069.36
558.863	39796.98
559.062	40392.94
559.261	39645.43
559.461	40448.24
559.66	39237.89
559.859	39770.36
560.058	39545.08
560.258	40018.16
560.457	39710.97
560.656	39891.19
560.855	39092.48
561.054	39835.89
561.253	39323.9
561.453	39778.55
561.652	39713.02
561.851	39323.9
562.05	39051.52
562.249	38957.31
562.448	39618.81
562.647	39428.35
562.846	39282.94
563.045	39207.17
563.244	38942.98
563.443	39362.81
563.642	38598.92
563.841	38924.55
564.04	39098.62
564.239	39336.19
564.438	38721.8
564.637	38727.94
564.836	39039.23
565.035	38068.5
565.234	38695.17
565.432	38283.53
565.631	38150.42
565.83	38336.78
566.029	37890.32
566.228	37992.72
566.427	38269.2
566.625	38035.73
566.824	37464.35
567.023	37988.63
567.222	37345.56
567.42	38117.65
567.619	37458.2
567.818	37521.69
568.016	37456.15
568.215	37771.54
568.414	37273.88
568.612	37886.23
568.811	37161.25
569.01	37392.67
569.208	36729.12
569.407	37296.41
569.605	36864.29
569.804	37062.94
570.002	36624.68
570.201	37050.66
570.4	36598.05
570.598	36380.97
570.797	36487.46
570.995	36505.9
571.193	36249.9
571.392	36749.6
571.59	35787.06
571.789	36305.2
571.987	36016.43
572.186	35948.85
572.384	35641.65
572.582	36108.59
572.781	35977.52
572.979	35520.82
573.177	35461.43
573.376	35567.93
573.574	35680.56
573.772	35651.89
573.971	35184.96
574.169	35158.33
574.367	34982.21
574.565	35070.27
574.763	34867.52
574.962	34867.52
575.16	34685.25
575.358	34976.06
575.556	34195.79
575.754	34951.49
575.952	34421.06
576.151	34527.56
576.349	34314.57
576.547	34289.99
576.745	34064.72
576.943	34627.91
577.141	34132.3
577.339	34101.58
577.537	33970.51
577.735	34134.35
577.933	33749.33
578.131	33716.56
578.329	33472.85
578.527	33358.17
578.725	33636.69
578.923	33636.69
579.121	33589.59
579.319	33366.36
579.516	32967.01
579.714	33130.84
579.912	32907.62
580.11	33118.56
580.308	32952.67
580.506	33032.54
580.704	32375.14
580.901	32551.27
581.099	32698.72
581.297	32303.46
581.495	32391.53
581.692	32350.57
581.89	32297.32
582.088	32285.03
582.285	32012.65
582.483	32393.58
582.681	32297.32
582.878	31983.98
583.076	31701.36
583.274	31830.38
583.471	31836.53
583.669	31828.34
583.866	31783.28
584.064	31584.63
584.262	31218.04
584.459	31289.72
584.657	31187.32
584.854	31627.63
585.052	30679.43
585.249	30966.14
585.447	31170.94
585.644	30644.61
585.841	30333.32
586.039	30814.59
586.236	30529.92
586.434	30241.16
586.631	30153.1
586.828	30325.13
587.026	30454.15
587.223	30433.67
587.42	29970.83
587.618	29882.77
587.815	29903.25
588.012	29608.34
588.21	29759.89
588.407	30157.19
588.604	29315.48
588.801	29301.14
588.999	29747.6
589.196	29096.35
589.393	29376.92
589.59	29282.71
589.787	29485.46
589.984	28936.6
590.182	28889.5
590.379	29206.94
590.576	28821.92
590.773	29258.13
590.97	28604.83
591.167	28707.23
591.364	28350.88
591.561	28807.58
591.758	28318.12
591.955	28397.99
592.152	28524.96
592.349	28090.79
592.546	28307.88
592.743	28240.29
592.94	27662.77
593.137	27752.88
593.334	28049.83
593.531	27496.88
593.727	27744.69
593.924	27707.82
594.121	27208.12
594.318	27513.27
594.515	27247.03
594.712	27898.28
594.908	27177.4
595.105	27208.12
595.302	27146.68
595.499	27134.39
595.696	26968.51
595.892	26827.2
596.089	26677.69
596.286	26679.74
596.482	26716.61
596.679	26380.74
596.876	26249.67
597.072	26382.79
597.269	26509.76
597.466	26360.26
597.662	26137.03
597.859	26147.27
598.055	26307.01
598.252	25831.88
598.448	26069.45
598.645	25950.67
598.841	25612.75
599.038	25731.53
599.234	25311.7
599.431	25227.73
599.627	25311.7
599.824	25606.61
600.02	25278.93
600.217	25221.59
600.413	25297.36
600.609	25094.61
600.806	24904.15
601.002	25035.22
601.198	24746.46
601.395	24703.45
601.591	24568.29
601.787	24789.47
601.984	24371.68
602.18	24975.83
602.376	24609.25
602.572	24349.15
602.769	24549.85
602.965	24324.58
603.161	24283.62
603.357	24242.66
603.553	23880.17
603.75	24136.17
603.946	23931.37
604.142	23757.29
604.338	23949.8
604.534	23554.54
604.73	23593.45
604.926	23575.02
605.122	23898.6
605.318	23157.24
605.514	23331.31
605.71	23353.84
605.906	23196.15
606.102	23491.05
606.298	23585.26
606.494	22942.2
606.69	23269.87
606.886	23347.7
607.082	22731.26
607.278	23099.89
607.474	22770.17
607.67	22811.13
607.866	22403.58
608.062	23022.07
608.257	22729.21
608.453	22796.79
608.649	22432.26
608.845	22256.13
609.041	22589.95
609.236	22649.34
609.432	22481.41
609.628	22374.91
609.824	22112.77
610.019	22444.54
610.215	22325.76
610.411	22430.21
610.606	21869.06
610.802	21926.41
610.998	22012.42
611.193	21717.51
611.389	22096.39
611.584	21676.55
611.78	21664.27
611.976	21563.92
612.171	21819.91
612.367	21924.36
612.562	21320.21
612.758	21443.09
612.953	21176.85
613.149	21694.99
613.344	21357.07
613.539	21791.24
613.735	21180.95
613.93	21496.33
614.126	21352.98
614.321	21692.94
614.517	21158.42
614.712	21115.41
614.907	21142.03
615.103	21205.52
615.298	21078.55
615.493	21213.71
615.688	20730.39
615.884	21154.32
616.079	20644.38
616.274	20998.68
616.47	20879.89
616.665	20840.98
616.86	20826.65
617.055	20879.89
617.25	20562.46
617.445	20894.23
617.641	20480.54
617.836	20591.13
618.031	20408.86
618.226	20314.66
618.421	20134.43
618.616	20994.58
618.811	20025.89
619.006	20292.13
619.201	19720.74
619.396	20388.38
619.591	19786.28
619.786	20183.59
619.981	19591.72
620.176	19843.62
620.371	19380.78
620.566	19780.14
620.761	19431.98
620.956	19515.95
621.151	19255.86
621.346	19372.59
621.541	18924.08
621.735	19124.79
621.93	18696.76
622.125	18960.95
622.32	18651.7
622.515	18518.59
622.709	18547.26
622.904	18432.57
623.099	18100.8
623.294	18616.89
623.488	18201.15
623.683	18326.08
623.878	17975.88
624.072	17836.61
624.267	18149.95
624.462	17609.29
624.656	17607.24
624.851	17453.64
625.046	17564.23
625.24	17416.78
625.435	17267.28
625.629	17177.17
625.824	16953.94
626.018	16960.08
626.213	16405.08
626.407	16699.99
626.602	16409.18
626.796	16499.29
626.991	16699.99
627.185	16595.54
627.38	16323.16
627.574	16308.83
627.768	16134.75
627.963	15913.57
628.157	15888.99
628.352	16216.67
628.546	15856.23
628.74	15901.28
628.935	15678.05
629.129	15798.88
629.323	15250.03
629.517	15254.12
629.712	15387.24
629.906	15321.71
630.1	15157.87
630.294	15213.17
630.489	14991.98
630.683	15178.35
630.877	14924.4
631.071	14686.84
631.265	14879.35
631.459	14756.47
631.653	14611.06
631.848	14471.8
632.042	14350.97
632.236	14461.56
632.43	14150.27
632.624	14379.64
632.818	14142.08
633.012	13959.81
633.206	14131.84
633.4	13984.38
633.594	13582.98
633.788	13789.83
633.982	13775.49
634.176	13619.85
634.369	13417.1
634.563	13490.82
634.757	13374.09
634.951	13417.1
635.145	13142.67
635.339	13245.07
635.533	13275.79
635.726	13275.79
635.92	12901.01
636.114	12780.18
636.308	12864.15
636.501	12800.66
636.695	12696.21
636.889	12765.84
637.083	12585.62
637.276	12685.97
637.47	12366.49
637.664	12239.51
637.857	12333.72
638.051	12176.03
638.244	12315.29
638.438	12309.15
638.632	12149.4
638.825	12090.01
639.019	11809.44
639.212	11784.87
639.406	11670.18
639.599	11764.39
639.793	11821.73
639.986	11680.42
640.18	11608.74
640.373	11631.27
640.567	11215.53
640.76	11350.7
640.954	11305.64
641.147	11281.07
641.34	11233.96
641.534	11293.35
641.727	11004.59
641.92	11020.97
642.114	10916.53
642.307	10820.27
642.5	11047.6
642.694	10633.91
642.887	10793.65
643.08	10693.3
643.273	10701.49
643.467	10627.76
643.66	10545.84
643.853	10431.16
644.046	10355.38
644.239	10136.25
644.432	10271.42
644.626	10236.6
644.819	10009.28
645.012	10093.24
645.205	10144.44
645.398	10173.11
645.591	9935.55
645.784	9781.95
645.977	9857.73
646.17	9853.63
646.363	9900.73
646.556	9665.22
646.749	9726.66
646.942	9808.58
647.135	9597.63
647.328	9525.96
647.521	9351.88
647.714	9505.48
647.907	9095.88
648.099	9274.06
648.292	9251.53
648.485	9233.1
648.678	9030.35
648.871	9140.94
649.064	9046.73
649.256	9120.46
649.449	8911.57
649.642	8778.45
649.835	8866.51
650.027	8946.38
650.22	8712.91
650.413	8815.31
650.605	8706.77
650.798	8606.42
650.991	8495.83
651.183	8686.29
651.376	8432.34
651.568	8467.16
651.761	8301.27
651.954	8321.75
652.146	8288.98
652.339	8360.66
652.531	8317.65
652.724	8260.31
652.916	8096.47
653.109	8188.63
653.301	8002.27
653.494	8194.78
653.686	7932.64
653.879	7975.64
654.071	7940.83
654.263	7867.1
654.456	7863.01
654.648	7944.92
654.84	7682.78
655.033	7654.11
655.225	7463.65
655.417	7416.55
655.61	7613.15
655.802	7576.29
655.994	7568.1
656.186	7543.52
656.379	7318.25
656.571	7412.45
656.763	7394.02
656.955	7244.52
657.148	7305.96
657.34	7322.34
657.532	7228.14
657.724	7127.78
657.916	7078.63
658.108	7162.6
658.3	7131.88
658.492	7090.92
658.684	7015.15
658.876	7072.49
659.068	7043.82
659.26	6793.97
659.452	6841.07
659.644	6927.08
659.836	6716.14
660.028	6771.44
660.22	6609.65
660.412	6732.53
660.604	6769.39
660.796	6566.64
660.988	6654.7
661.18	6550.26
661.372	6566.64
661.563	6574.83
661.755	6372.08
661.947	6511.35
662.139	6556.4
662.331	6296.31
662.522	6269.69
662.714	6298.36
662.906	6089.46
663.097	6296.31
663.289	6130.42
663.481	6179.58
663.673	6265.59
663.864	6099.7
664.056	6030.07
664.247	5982.97
664.439	5923.58
664.631	5982.97
664.822	6099.7
665.014	5903.1
665.205	5909.24
665.397	5944.06
665.588	5741.31
665.78	5804.8
665.971	5776.13
666.163	5835.52
666.354	5794.56
666.546	5671.68
666.737	5532.42
666.929	5618.43
667.12	5706.49
667.311	5688.06
667.503	5497.6
667.694	5417.73
667.885	5534.46
668.077	5522.18
668.268	5536.51
668.459	5563.14
668.651	5331.72
668.842	5417.73
669.033	5348.1
669.224	5409.54
669.416	5481.22
669.607	5442.31
669.798	5182.21
669.989	5421.83
670.18	5184.26
670.371	5126.92
670.563	5286.66
670.754	5165.83
670.945	5085.96
671.136	5128.97
671.327	5053.19
671.518	5092.1
671.709	5071.62
671.9	4985.61
672.091	4901.64
672.282	4930.31
672.473	4934.41
672.664	5067.53
672.855	4909.83
673.046	4793.1
673.237	4864.78
673.428	4926.22
673.619	4844.3
673.809	4799.24
674	4840.2
674.191	4813.58
674.382	4780.81
674.573	4872.97
674.764	4801.29
674.954	4762.38
675.145	4674.32
675.336	4692.75
675.527	4614.93
675.717	4731.66
675.908	4631.31
676.099	4578.06
676.289	4723.47
676.48	4549.39
676.671	4553.49
676.861	4590.35
677.052	4616.97
677.243	4561.68
677.433	4543.25
677.624	4619.02
677.814	4594.45
678.005	4522.77
678.195	4504.34
678.386	4494.1
678.576	4471.57
678.767	4432.66
678.957	4332.31
679.148	4598.54
679.338	4463.38
679.529	4385.55
679.719	4442.9
679.909	4385.55
680.1	4299.54
680.29	4446.99
680.481	4356.88
680.671	4303.64
680.861	4225.81
681.052	4354.83
681.242	4223.76
681.432	4320.02
681.622	4156.18
681.813	4338.45
682.003	4223.76
682.193	4387.6
682.383	4305.68
682.573	4162.33
682.764	4328.21
682.954	4307.73
683.144	4102.93
683.334	4186.9
683.524	4193.05
683.714	4277.01
683.904	4279.06
684.094	4064.02
684.284	4147.99
684.474	4158.23
684.664	4141.85
684.854	4176.66
685.044	4184.85
685.234	4111.13
685.424	3935
685.614	4072.22
685.804	4100.89
685.994	4117.27
686.184	3988.25
686.374	3984.15
686.564	3939.1
686.753	3902.23
686.943	3967.77
687.133	3978.01
687.323	3855.13
687.513	3891.99
687.702	3908.38
687.892	3898.14
688.082	3937.05
688.272	3885.85
688.461	3787.55
688.651	3943.19
688.841	3844.89
689.03	3863.32
689.22	3724.06
689.41	3855.13
689.599	3762.97
689.789	3705.63
689.979	3789.6
690.168	3654.43
690.358	3756.83
690.547	3662.62
690.737	3738.4
690.926	3656.48
691.116	3517.22
691.305	3652.38
691.495	3599.13
691.684	3566.37
691.874	3580.7
692.063	3607.33
692.252	3523.36
692.442	3707.68
692.631	3537.7
692.82	3449.63
693.01	3437.34
693.199	3486.5
693.388	3459.87
693.578	3394.34
693.767	3539.74
693.956	3328.8
694.146	3287.84
694.335	3502.88
694.524	3484.45
694.713	3429.15
694.902	3435.3
695.092	3363.62
695.281	3427.11
695.47	3308.32
695.659	3214.12
695.848	3359.52
696.037	3347.23
696.226	3302.18
696.415	3291.94
696.604	3384.1
696.793	3244.84
696.982	3283.75
697.171	3224.36
697.36	3255.08
697.549	3191.59
697.738	3308.32
697.927	3353.38
698.116	3234.6
698.305	3240.74
698.494	3222.31
698.683	3248.93
698.872	3144.49
699.061	3160.87
699.25	3226.4
699.438	3185.44
699.627	3210.02
699.816	3232.55
700.005	3259.17
700.193	3128.1
700.382	3371.81
700.571	3248.93
700.76	3109.67
700.948	3328.8
701.137	3191.59
701.326	3107.62
701.514	3195.68
701.703	3173.16
701.892	3142.44
702.08	3189.54
702.269	3103.53
702.457	3025.7
702.646	3103.53
702.834	3015.46
703.023	3060.52
703.212	3068.71
703.4	3158.82
703.589	3185.44
703.777	3144.49
703.965	2978.6
704.154	3164.97
704.342	3083.05
704.531	3103.53
704.719	3013.42
704.907	2937.64
705.096	3144.49
705.284	3035.94
705.472	3103.53
705.661	3027.75
705.849	3046.18
706.037	3068.71
706.226	3103.53
706.414	3017.51
706.602	2937.64
706.79	3124.01
706.979	3003.18
707.167	2960.17
707.355	2951.98
707.543	3085.09
707.731	2976.55
707.919	2966.31
708.107	3056.42
708.296	2976.55
708.484	2956.07
708.672	2886.44
708.86	2734.89
709.048	2997.03
709.236	2784.04
709.424	2949.93
709.612	2972.46
709.8	3027.75
709.988	3013.42
710.176	2853.67
710.364	2825
710.551	2911.02
710.739	2820.91
710.927	2730.8
711.115	2685.74
711.303	2896.68
711.491	2820.91
711.679	2804.52
711.866	2818.86
712.054	2906.92
712.242	2863.91
712.43	2931.5
712.617	2788.14
712.805	2906.92
712.993	2827.05
713.181	2759.47
713.368	2943.78
713.556	2841.39
713.744	2825
713.931	2870.06
714.119	2788.14
714.306	2769.71
714.494	2716.46
714.682	2767.66
714.869	2730.8
715.057	2761.52
715.244	2755.37
715.432	2741.04
715.619	2683.69
715.807	2788.14
715.994	2722.6
716.182	2757.42
716.369	2734.89
716.556	2747.18
716.744	2661.16
716.931	2829.1
717.119	2698.03
717.306	2546.48
717.493	2747.18
717.681	2687.79
717.868	2698.03
718.055	2724.65
718.242	2640.69
718.43	2706.22
718.617	2708.27
718.804	2493.23
718.991	2812.71
719.179	2669.36
719.366	2597.68
719.553	2765.61
719.74	2513.71
719.927	2583.34
720.114	2689.84
720.301	2620.21
720.488	2460.46
720.676	2583.34
720.863	2577.2
721.05	2673.45
721.237	2620.21
721.424	2530.09
721.611	2599.73
721.798	2546.48
721.985	2673.45
722.172	2474.8
722.358	2554.67
722.545	2552.62
722.732	2560.81
722.919	2546.48
723.106	2636.59
723.293	2585.39
723.48	2530.09
723.667	2616.11
723.853	2503.47
724.04	2573.1
724.227	2427.7
724.414	2435.89
724.6	2552.62
724.787	2511.66
724.974	2517.81
725.161	2650.92
725.347	2493.23
725.534	2566.96
725.72	2358.07
725.907	2609.97
726.094	2591.53
726.28	2382.64
726.467	2435.89
726.653	2464.56
726.84	2429.74
727.027	2454.32
727.213	2401.07
727.4	2530.09
727.586	2497.33
727.773	2485.04
727.959	2491.18
728.145	2415.41
728.332	2495.28
728.518	2452.27
728.705	2521.9
728.891	2390.83
729.077	2433.84
729.264	2409.26
729.45	2437.94
729.636	2464.56
729.823	2495.28
730.009	2466.61
730.195	2310.96
730.382	2472.75
730.568	2313.01
730.754	2341.68
730.94	2421.55
731.126	2358.07
731.313	2378.55
731.499	2394.93
731.685	2435.89
731.871	2263.86
732.057	2372.4
732.243	2390.83
732.429	2358.07
732.615	2372.4
732.801	2456.37
732.987	2341.68
733.173	2331.44
733.359	2304.82
733.545	2255.67
733.731	2382.64
733.917	2382.64
734.103	2315.06
734.289	2241.33
734.475	2222.9
734.661	2358.07
734.847	2284.34
735.033	2245.43
735.219	2206.52
735.404	2280.24
735.59	2333.49
735.776	2173.75
735.962	2263.86
736.148	2362.16
736.333	2249.52
736.519	2239.28
736.705	2272.05
736.89	2218.8
737.076	2161.46
737.262	2157.36
737.447	2290.48
737.633	2222.9
737.819	2167.6
738.004	2124.6
738.19	2153.27
738.375	2235.19
738.561	2177.84
738.747	2095.93
738.932	2149.17
739.118	2212.66
739.303	2290.48
739.489	2161.46
739.674	2143.03
739.859	2091.83
740.045	2259.76
740.23	2132.79
740.416	2063.16
740.601	2257.71
740.786	2108.21
740.972	1938.23
741.157	2016.05
741.342	2054.97
741.528	2128.69
741.713	2110.26
741.898	2089.78
742.084	2102.07
742.269	1968.95
742.454	2028.34
742.639	2009.91
742.824	1999.67
743.01	1993.53
743.195	2054.97
743.38	2067.25
743.565	1985.34
743.75	1913.66
743.935	1950.52
744.12	1981.24
744.305	1905.46
744.49	1798.97
744.675	2026.29
744.86	1895.22
745.045	1862.46
745.23	1905.46
745.415	1882.94
745.6	1950.52
745.785	1866.55
745.97	1864.5
746.155	2005.81
746.34	1792.83
746.525	1778.49
746.71	1870.65
746.895	1717.05
747.079	1811.26
747.264	1829.69
747.449	1747.77
747.634	1790.78
747.819	1846.07
748.003	1815.35
748.188	1811.26
748.373	1723.2
748.557	1715
748.742	1813.31
748.927	1758.01
749.111	1643.32
749.296	1633.08
749.481	1674.04
749.665	1692.48
749.85	1694.52
750.034	1649.47
750.219	1661.76
750.404	1575.74
750.588	1542.97
750.773	1522.49
750.957	1610.56
751.141	1624.89
751.326	1557.31
751.51	1518.4
751.695	1567.55
751.879	1561.41
752.064	1610.56
752.248	1491.77
752.432	1520.45
752.617	1542.97
752.801	1491.77
752.985	1518.4
753.17	1561.41
753.354	1370.94
753.538	1389.38
753.722	1370.94
753.907	1426.24
754.091	1420.1
754.275	1362.75
754.459	1321.79
754.643	1379.14
754.828	1317.7
755.012	1489.73
755.196	1297.22
755.38	1274.69
755.564	1372.99
755.748	1375.04
755.932	1264.45
756.116	1280.83
756.3	1389.38
756.484	1280.83
756.668	1362.75
756.852	1272.64
757.036	1272.64
757.22	1213.25
757.404	1239.87
757.588	1211.2
757.772	1332.03
757.956	1190.72
758.14	1293.12
758.323	1028.93
758.507	1192.77
758.691	1184.58
758.875	1194.82
759.059	1190.72
759.242	1176.39
759.426	1225.54
759.61	1157.96
759.794	1133.38
759.977	1166.15
760.161	1223.49
760.345	1200.96
760.528	1125.19
760.712	1098.56
760.895	1088.32
761.079	1100.61
761.263	1010.5
761.446	1014.6
761.63	1125.19
761.813	1067.85
761.997	1035.08
762.18	1035.08
762.364	1061.7
762.547	938.82
762.731	1035.08
762.914	955.21
763.098	949.06
763.281	992.07
763.464	1018.69
763.648	957.25
763.831	1059.65
764.015	1055.56
764.198	1053.51
764.381	1022.79
764.564	916.3
764.748	967.49
764.931	1016.65
765.114	969.54
765.297	953.16
765.481	867.14
765.664	912.2
765.847	971.59
766.03	990.02
766.213	889.67
766.397	963.4
766.58	885.58
766.763	959.3
766.946	787.27
767.129	965.45
767.312	920.39
767.495	959.3
767.678	817.99
767.861	887.62
768.044	879.43
768.227	926.54
768.41	891.72
768.593	897.86
768.776	734.03
768.959	805.71
769.142	830.28
769.324	838.47
769.507	834.38
769.69	934.73
769.873	856.9
770.056	944.97
770.239	846.66
770.421	940.87
770.604	824.14
770.787	758.6
770.97	772.94
771.152	815.94
771.335	797.51
771.518	781.13
771.7	777.03
771.883	772.94
772.066	774.99
772.248	764.75
772.431	824.14
772.613	805.71
772.796	713.55
772.978	725.83
773.161	824.14
773.343	807.75
773.526	693.07
773.708	779.08
773.891	713.55
774.073	701.26
774.256	682.83
774.438	756.55
774.621	731.98
774.803	658.25
774.985	635.72
775.168	691.02
775.35	777.03
775.532	641.87
775.715	633.68
775.897	711.5
776.079	686.92
776.261	641.87
776.444	691.02
776.626	666.44
776.808	654.16
776.99	701.26
777.173	699.21
777.355	590.67
777.537	523.09
777.719	695.11
777.901	588.62
778.083	637.77
778.265	580.43
778.447	686.92
778.629	594.76
778.811	578.38
778.993	658.25
779.175	582.48
779.357	580.43
779.539	541.52
779.721	605
779.903	545.61
780.085	596.81
780.267	576.33
780.449	510.8
780.631	594.76
780.812	600.91
780.994	504.65
781.176	568.14
781.358	564.04
781.54	541.52
781.721	588.62
781.903	555.85
782.085	529.23
782.267	510.8
782.448	523.09
782.63	480.08
782.812	484.17
782.993	465.74
783.175	490.32
783.357	408.4
783.538	475.98
783.72	492.37
783.901	443.21
784.083	469.84
784.264	457.55
784.446	453.45
784.627	469.84
784.809	480.08
784.99	426.83
785.172	447.31
785.353	482.13
785.535	416.59
785.716	441.17
785.897	379.73
786.079	414.54
786.26	418.64
786.441	437.07
786.623	363.34
786.804	445.26
786.985	408.4
787.167	383.82
787.348	389.97
787.529	387.92
787.71	424.78
787.891	398.16
788.073	387.92
788.254	404.3
788.435	392.02
788.616	424.78
788.797	379.73
788.978	346.96
789.159	318.29
789.34	396.11
789.522	353.1
789.703	281.43
789.884	365.39
790.065	344.91
790.246	402.26
790.427	324.43
790.607	404.3
790.788	314.19
790.969	295.76
791.15	398.16
791.331	398.16
791.512	396.11
791.693	316.24
791.874	316.24
792.054	387.92
792.235	406.35
792.416	342.86
792.597	318.29
792.778	265.04
792.958	287.57
793.139	340.82
793.32	293.71
793.5	256.85
793.681	289.62
793.862	291.66
794.042	265.04
794.223	265.04
794.404	254.8
794.584	299.86
794.765	236.37
794.945	293.71
795.126	351.06
795.306	256.85
795.487	283.47
795.667	281.43
795.848	289.62
796.028	262.99
796.209	283.47
796.389	242.51
796.57	248.66
796.75	213.84
796.93	326.48
797.111	207.7
797.291	308.05
797.471	289.62
797.652	234.32
797.832	283.47
798.012	226.13
798.192	215.89
798.373	230.23
798.553	207.7
798.733	265.04
798.913	215.89
799.093	277.33
799.274	179.03
799.454	293.71
799.634	256.85
799.814	265.04
799.994	256.85
800.174	240.47
800.354	269.14
800.534	172.88
800.714	289.62
800.894	211.79
801.074	195.41
801.254	211.79
801.434	248.66
801.614	316.24
801.794	228.18
801.974	848.71
802.154	256.85
802.334	224.08
802.514	138.07
802.693	205.65
802.873	256.85
803.053	226.13
803.233	252.75
803.413	269.14
803.592	230.23
803.772	234.32
803.952	199.51
804.131	166.74
804.311	174.93
804.491	256.85
804.67	189.27
804.85	211.79
805.03	168.79
805.209	170.83
805.389	230.23
805.568	217.94
805.748	256.85
805.928	191.31
806.107	250.71
806.287	150.36
806.466	185.17
806.646	213.84
806.825	224.08
807.004	47.96
807.184	215.89
807.363	158.55
807.543	207.7
807.722	146.26
807.901	105.3
808.081	236.37
808.26	211.79
808.439	176.98
808.619	142.16
808.798	185.17
808.977	119.64
809.156	207.7
809.336	185.17
809.515	242.51
809.694	136.02
809.873	160.59
810.052	176.98
810.231	174.93
810.411	203.6
810.59	185.17
810.769	146.26
810.948	117.59
811.127	140.12
811.306	193.36
811.485	95.06
811.664	207.7
811.843	174.93
812.022	168.79
812.201	201.55
812.38	129.88
812.559	117.59
812.737	158.55
812.916	127.83
813.095	146.26
813.274	164.69
813.453	166.74
813.632	176.98
813.811	109.4
813.989	109.4
814.168	131.92
814.347	129.88
814.526	121.68
814.704	181.07
814.883	183.12
815.062	95.06
815.24	174.93
815.419	136.02
815.598	162.64
815.776	93.01
815.955	86.87
816.133	78.68
816.312	86.87
816.49	183.12
816.669	133.97
816.847	123.73
817.026	179.03
817.204	154.45
817.383	117.59
817.561	86.87
817.74	172.88
817.918	123.73
818.097	136.02
818.275	109.4
818.453	183.12
818.632	222.03
818.81	121.68
818.988	93.01
819.167	142.16
819.345	119.64
819.523	117.59
819.701	82.77
819.879	133.97
820.058	127.83
820.236	164.69
820.414	95.06
820.592	109.4
820.77	146.26
820.948	123.73
821.127	113.49
821.305	142.16
821.483	80.72
821.661	146.26
821.839	142.16
822.017	43.86
822.195	103.25
822.373	168.79
822.551	133.97
822.729	170.83
822.907	109.4
823.085	95.06
823.262	176.98
823.44	166.74
823.618	117.59
823.796	136.02
823.974	156.5
824.152	62.29
824.329	93.01
824.507	117.59
824.685	27.48
824.863	95.06
825.04	113.49
825.218	136.02
825.396	125.78
825.574	93.01
825.751	113.49
825.929	131.92
826.107	37.72
826.284	174.93
826.462	60.24
826.639	133.97
826.817	45.91
826.994	39.76
827.172	-13.48
827.349	129.88
827.527	86.87
827.704	176.98
827.882	13.14
828.059	60.24
828.237	52.05
828.414	160.59
828.591	27.48
828.769	93.01
828.946	47.96
829.124	76.63
829.301	121.68
829.478	109.4
829.655	121.68
829.833	68.44
830.01	64.34
830.187	115.54
830.364	117.59
830.542	52.05
830.719	76.63
830.896	35.67
831.073	43.86
831.25	105.3
831.427	74.58
831.604	68.44
831.782	47.96
831.959	45.91
832.136	52.05
832.313	60.24
832.49	66.39
832.667	70.48
832.844	52.05
833.021	146.26
833.198	45.91
833.374	43.86
833.551	52.05
833.728	107.35
833.905	146.26
834.082	-5.29
834.259	70.48
834.436	207.7
834.612	125.78
834.789	101.2
834.966	95.06
835.143	117.59
835.319	-21.67
835.496	80.72
835.673	68.44
835.85	62.29
836.026	19.29
836.203	95.06
836.38	56.15
836.556	33.62
836.733	60.24
836.909	183.12
837.086	39.76
837.262	4.95
837.439	21.33
837.616	140.12
837.792	70.48
837.968	111.44
838.145	15.19
838.321	127.83
838.498	76.63
838.674	60.24
838.851	60.24
839.027	60.24
839.203	103.25
839.38	82.77
839.556	19.29
839.732	129.88
839.909	-36.01
840.085	129.88
840.261	21.33
840.437	-7.34
840.614	68.44
840.79	103.25
840.966	76.63
841.142	60.24
841.318	-9.39
841.494	101.2
841.671	2.9
841.847	23.38
842.023	47.96
842.199	97.11
842.375	76.63
842.551	-13.48
842.727	-17.58
842.903	117.59
843.079	4.95
843.255	76.63
843.431	45.91
843.607	39.76
843.783	35.67
843.959	109.4
844.134	-3.24
844.31	62.29
844.486	-11.43
844.662	62.29
844.838	58.2
845.013	60.24
845.189	50
845.365	41.81
845.541	35.67
845.716	41.81
845.892	41.81
846.068	54.1
846.244	2.9
846.419	80.72
846.595	-11.43
846.77	23.38
846.946	29.52
847.122	39.76
847.297	68.44
847.473	84.82
847.648	17.24
847.824	39.76
847.999	62.29
848.175	-11.43
848.35	62.29
848.526	76.63
848.701	62.29
848.876	142.16
849.052	47.96
849.227	95.06
849.403	-1.19
849.578	84.82
849.753	43.86
849.929	93.01
850.104	68.44
850.279	68.44
850.454	27.48
850.63	95.06
850.805	64.34
850.98	31.57
851.155	58.2
851.33	45.91
851.505	21.33
851.681	117.59
851.856	-1.19
852.031	-13.48
852.206	-36.01
852.381	80.72
852.556	105.3
852.731	90.96
852.906	4.95
853.081	33.62
853.256	23.38
853.431	21.33
853.606	43.86
853.781	43.86
853.956	33.62
854.131	43.86
854.305	27.48
854.48	84.82
854.655	0.85
854.83	60.24
855.005	45.91
855.18	25.43
855.354	105.3
855.529	-17.58
855.704	35.67
855.879	50
856.053	111.44
856.228	117.59
856.403	-13.48
856.577	2.9
856.752	66.39
856.926	64.34
857.101	-13.48
857.276	43.86
857.45	41.81
857.625	29.52
857.799	54.1
857.974	43.86
858.148	-27.82
858.323	64.34
858.497	27.48
858.672	27.48
858.846	-27.82
859.02	19.29
859.195	21.33
859.369	35.67
859.543	-5.29
859.718	-13.48
859.892	52.05
860.066	129.88
860.241	4.95
860.415	66.39
860.589	19.29
860.763	45.91
860.938	27.48
861.112	35.67
861.286	58.2
861.46	80.72
861.634	2.9
861.808	43.86
861.982	-3.24
862.157	-38.06
862.331	70.48
862.505	-21.67
862.679	17.24
862.853	-5.29
863.027	-29.87
863.201	146.26
863.375	11.09
863.549	47.96
863.722	60.24
863.896	4.95
864.07	4.95
864.244	52.05
864.418	25.43
864.592	-1.19
864.766	45.91
864.939	52.05
865.113	-29.87
865.287	45.91
865.461	-17.58
865.634	70.48
865.808	-3.24
865.982	-5.29
866.156	-21.67
866.329	-3.24
866.503	35.67
866.676	31.57
866.85	72.53
867.024	-11.43
867.197	-7.34
867.371	-11.43
867.544	4.95
867.718	45.91
867.891	86.87
868.065	11.09
868.238	47.96
868.412	27.48
868.585	31.57
868.759	13.14
868.932	47.96
869.105	37.72
869.279	-19.63
869.452	-21.67
869.625	45.91
869.799	45.91
869.972	11.09
870.145	2.9
870.319	43.86
870.492	-21.67
870.665	52.05
870.838	-81.07
871.011	-46.25
871.185	-13.48
871.358	101.2
871.531	19.29
871.704	-25.77
871.877	68.44
872.05	35.67
872.223	-9.39
872.396	47.96
872.569	76.63
872.742	7
872.915	68.44
873.088	-29.87
873.261	27.48
873.434	39.76
873.607	11.09
873.78	-21.67
873.953	11.09
874.126	-11.43
874.299	-9.39
874.471	-9.39
874.644	19.29
874.817	11.09
874.99	86.87
875.163	33.62
875.335	-36.01
875.508	29.52
875.681	68.44
875.853	60.24
876.026	99.16
876.199	74.58
876.371	47.96
876.544	-44.2
876.717	62.29
876.889	13.14
877.062	-27.82
877.234	-21.67
877.407	-5.29
877.579	-13.48
877.752	17.24
877.924	-13.48
878.097	-25.77
878.269	11.09
878.442	60.24
878.614	-3.24
878.786	37.72
878.959	13.14
879.131	19.29
879.303	33.62
879.476	72.53
879.648	62.29
879.82	68.44
879.993	-13.48
880.165	11.09
880.337	35.67
880.509	23.38
880.681	-64.68
880.854	78.68
881.026	2.9
881.198	93.01
881.37	-58.54
881.542	19.29
881.714	-36.01
881.886	80.72
882.058	2.9
882.23	-40.11
882.402	31.57
882.574	37.72
882.746	4.95
882.918	60.24
883.09	99.16
883.262	70.48
883.434	68.44
883.606	37.72
883.778	-5.29
883.95	90.96
884.122	-3.24
884.293	19.29
884.465	-13.48
884.637	88.92
884.809	31.57
884.98	70.48
885.152	27.48
885.324	52.05
885.496	76.63
885.667	15.19
885.839	-42.15
886.011	80.72
886.182	56.15
886.354	43.86
886.525	33.62
886.697	-27.82
886.869	-13.48
887.04	68.44
887.212	47.96
887.383	19.29
887.555	-42.15
887.726	-7.34
887.897	11.09
888.069	11.09
888.24	15.19
888.412	60.24
888.583	-9.39
888.754	-74.92
888.926	-42.15
889.097	29.52
889.268	-33.96
889.44	27.48
889.611	43.86
889.782	45.91
889.953	35.67
890.125	95.06
890.296	-13.48
890.467	9.05
890.638	39.76
890.809	-54.44
890.98	-60.59
891.151	-13.48
891.323	-17.58
891.494	-38.06
891.665	11.09
891.836	68.44
892.007	-7.34
892.178	25.43
892.349	27.48
892.52	43.86
892.691	-13.48
892.862	-9.39
893.032	-79.02
893.203	-9.39
893.374	-21.67
893.545	31.57
893.716	19.29
893.887	35.67
894.057	-13.48
894.228	11.09
894.399	13.14
894.57	64.34
894.74	-9.39
894.911	52.05
895.082	-29.87
895.253	-42.15
895.423	66.39
895.594	76.63
895.764	54.1
895.935	25.43
896.106	29.52
896.276	25.43
896.447	-13.48
896.617	45.91
896.788	54.1
896.958	-44.2
897.129	-1.19
897.299	-29.87
897.47	43.86
897.64	52.05
897.81	7
897.981	43.86
898.151	-17.58
898.322	-36.01
898.492	4.95
898.662	58.2
898.832	-15.53
899.003	-46.25
899.173	31.57
899.343	-60.59
899.513	-21.67
