Data from USB4F104151__197__14-20-30-456.txt Node

Date: Thu Mar 13 14:20:30 EDT 2025
User: louis
Spectrometer: USB4F10415
Trigger mode: 4
Integration Time (sec): 2.000000E-2
Scans to average: 1
Electric dark correction enabled: true
Nonlinearity correction enabled: false
Boxcar width: 0
XAxis mode: Wavelengths
Number of Pixels in Spectrum: 3648
>>>>>Begin Spectral Data<<<<<
178.204	-132.26
178.424	-132.26
178.644	-132.26
178.864	-122.02
179.084	-187.56
179.304	-27.82
179.524	17.24
179.744	13.14
179.964	52.05
180.184	25.43
180.404	-25.77
180.624	41.81
180.844	-81.07
181.064	-7.34
181.283	-27.82
181.503	4.95
181.723	15.19
181.943	-44.2
182.163	39.76
182.383	7
182.602	33.62
182.822	60.24
183.042	39.76
183.262	23.38
183.482	2.9
183.701	-5.29
183.921	-25.77
184.141	-31.91
184.361	72.53
184.58	39.76
184.8	31.57
185.02	7
185.239	35.67
185.459	29.52
185.679	88.92
185.898	-72.87
186.118	15.19
186.338	-13.48
186.557	21.33
186.777	35.67
186.997	-21.67
187.216	7
187.436	90.96
187.655	7
187.875	39.76
188.095	43.86
188.314	-9.39
188.534	29.52
188.753	88.92
188.973	33.62
189.192	84.82
189.412	60.24
189.631	-7.34
189.851	7
190.07	41.81
190.29	35.67
190.509	-7.34
190.729	-1.19
190.948	41.81
191.168	97.11
191.387	35.67
191.607	19.29
191.826	41.81
192.045	-27.82
192.265	25.43
192.484	-7.34
192.704	-23.72
192.923	66.39
193.142	60.24
193.362	11.09
193.581	33.62
193.8	21.33
194.02	-21.67
194.239	15.19
194.458	-13.48
194.678	-33.96
194.897	-7.34
195.116	-48.3
195.335	-42.15
195.555	13.14
195.774	0.85
195.993	41.81
196.212	35.67
196.432	-11.43
196.651	-103.59
196.87	-17.58
197.089	78.68
197.308	31.57
197.528	76.63
197.747	9.05
197.966	-91.31
198.185	43.86
198.404	13.14
198.623	31.57
198.842	15.19
199.062	39.76
199.281	21.33
199.5	-38.06
199.719	-23.72
199.938	31.57
200.157	29.52
200.376	56.15
200.595	41.81
200.814	23.38
201.033	-29.87
201.252	33.62
201.471	39.76
201.69	58.2
201.909	23.38
202.128	62.29
202.347	17.24
202.566	17.24
202.785	-33.96
203.004	17.24
203.223	97.11
203.442	4.95
203.661	-46.25
203.879	17.24
204.098	27.48
204.317	-1.19
204.536	45.91
204.755	58.2
204.974	-33.96
205.193	41.81
205.411	82.77
205.63	66.39
205.849	17.24
206.068	74.58
206.287	4.95
206.505	47.96
206.724	58.2
206.943	-25.77
207.162	-38.06
207.381	-11.43
207.599	2.9
207.818	-42.15
208.037	17.24
208.255	-36.01
208.474	15.19
208.693	-46.25
208.911	9.05
209.13	15.19
209.349	-1.19
209.567	35.67
209.786	56.15
210.005	0.85
210.223	45.91
210.442	17.24
210.661	0.85
210.879	35.67
211.098	23.38
211.316	9.05
211.535	15.19
211.753	27.48
211.972	52.05
212.191	-15.53
212.409	-9.39
212.628	80.72
212.846	-81.07
213.065	25.43
213.283	45.91
213.502	-7.34
213.72	9.05
213.938	2.9
214.157	7
214.375	-42.15
214.594	0.85
214.812	17.24
215.031	23.38
215.249	-33.96
215.467	9.05
215.686	-21.67
215.904	58.2
216.122	-79.02
216.341	43.86
216.559	29.52
216.778	60.24
216.996	-15.53
217.214	-50.35
217.432	88.92
217.651	-130.22
217.869	-15.53
218.087	0.85
218.306	39.76
218.524	11.09
218.742	13.14
218.96	97.11
219.179	27.48
219.397	23.38
219.615	-25.77
219.833	35.67
220.051	-1.19
220.27	41.81
220.488	50
220.706	47.96
220.924	31.57
221.142	-62.63
221.36	58.2
221.578	19.29
221.796	2.9
222.015	7
222.233	23.38
222.451	-23.72
222.669	-33.96
222.887	41.81
223.105	-42.15
223.323	-1.19
223.541	-21.67
223.759	17.24
223.977	-31.91
224.195	25.43
224.413	50
224.631	23.38
224.849	25.43
225.067	99.16
225.285	29.52
225.503	31.57
225.721	-19.63
225.939	-33.96
226.157	66.39
226.375	123.73
226.592	-13.48
226.81	-1.19
227.028	60.24
227.246	47.96
227.464	15.19
227.682	47.96
227.9	13.14
228.117	50
228.335	33.62
228.553	7
228.771	45.91
228.989	99.16
229.206	35.67
229.424	-38.06
229.642	33.62
229.86	41.81
230.077	39.76
230.295	-5.29
230.513	72.53
230.731	56.15
230.948	-50.35
231.166	33.62
231.384	-19.63
231.601	-19.63
231.819	29.52
232.037	-21.67
232.254	-23.72
232.472	-1.19
232.689	-21.67
232.907	-13.48
233.125	11.09
233.342	-7.34
233.56	19.29
233.777	27.48
233.995	11.09
234.213	39.76
234.43	-70.83
234.648	56.15
234.865	64.34
235.083	93.01
235.3	4.95
235.518	33.62
235.735	70.48
235.953	23.38
236.17	64.34
236.388	-29.87
236.605	27.48
236.822	52.05
237.04	-11.43
237.257	50
237.475	4.95
237.692	-25.77
237.909	-1.19
238.127	15.19
238.344	27.48
238.562	27.48
238.779	-42.15
238.996	-13.48
239.214	-21.67
239.431	47.96
239.648	47.96
239.865	-17.58
240.083	76.63
240.3	19.29
240.517	-15.53
240.735	15.19
240.952	33.62
241.169	39.76
241.386	-31.91
241.603	9.05
241.821	9.05
242.038	99.16
242.255	-7.34
242.472	84.82
242.689	33.62
242.907	66.39
243.124	66.39
243.341	76.63
243.558	0.85
243.775	4.95
243.992	-58.54
244.209	66.39
244.426	138.07
244.643	25.43
244.86	-27.82
245.078	66.39
245.295	56.15
245.512	62.29
245.729	35.67
245.946	68.44
246.163	47.96
246.38	-42.15
246.597	27.48
246.814	121.68
247.031	-25.77
247.248	95.06
247.464	13.14
247.681	68.44
247.898	0.85
248.115	39.76
248.332	-7.34
248.549	72.53
248.766	58.2
248.983	56.15
249.2	31.57
249.417	93.01
249.633	-11.43
249.85	72.53
250.067	-5.29
250.284	50
250.501	64.34
250.717	0.85
250.934	-25.77
251.151	4.95
251.368	-11.43
251.585	88.92
251.801	45.91
252.018	-25.77
252.235	-9.39
252.451	11.09
252.668	7
252.885	88.92
253.102	-5.29
253.318	33.62
253.535	39.76
253.752	0.85
253.968	2.9
254.185	54.1
254.401	19.29
254.618	52.05
254.835	2.9
255.051	97.11
255.268	45.91
255.484	-1.19
255.701	-3.24
255.917	25.43
256.134	0.85
256.351	68.44
256.567	-48.3
256.784	27.48
257	-13.48
257.217	58.2
257.433	58.2
257.65	21.33
257.866	2.9
258.082	2.9
258.299	-5.29
258.515	-42.15
258.732	-17.58
258.948	39.76
259.165	76.63
259.381	76.63
259.597	-9.39
259.814	0.85
260.03	37.72
260.246	-17.58
260.463	27.48
260.679	19.29
260.895	-25.77
261.112	9.05
261.328	11.09
261.544	-13.48
261.761	56.15
261.977	80.72
262.193	-15.53
262.409	99.16
262.626	39.76
262.842	27.48
263.058	25.43
263.274	113.49
263.49	37.72
263.707	23.38
263.923	39.76
264.139	17.24
264.355	0.85
264.571	7
264.787	52.05
265.004	41.81
265.22	11.09
265.436	33.62
265.652	19.29
265.868	25.43
266.084	-23.72
266.3	58.2
266.516	-36.01
266.732	25.43
266.948	0.85
267.164	13.14
267.38	2.9
267.596	25.43
267.812	50
268.028	35.67
268.244	13.14
268.46	88.92
268.676	39.76
268.892	97.11
269.108	19.29
269.324	41.81
269.54	-105.64
269.756	78.68
269.972	15.19
270.188	15.19
270.403	39.76
270.619	39.76
270.835	70.48
271.051	-33.96
271.267	39.76
271.483	58.2
271.698	80.72
271.914	64.34
272.13	15.19
272.346	35.67
272.562	17.24
272.777	39.76
272.993	27.48
273.209	-42.15
273.425	39.76
273.64	-25.77
273.856	76.63
274.072	-13.48
274.287	-7.34
274.503	-25.77
274.719	88.92
274.934	47.96
275.15	41.81
275.366	62.29
275.581	43.86
275.797	47.96
276.012	66.39
276.228	-25.77
276.444	27.48
276.659	17.24
276.875	-29.87
277.09	-3.24
277.306	-15.53
277.521	27.48
277.737	99.16
277.952	43.86
278.168	123.73
278.383	56.15
278.599	27.48
278.814	105.3
279.03	39.76
279.245	31.57
279.461	41.81
279.676	25.43
279.892	15.19
280.107	45.91
280.322	39.76
280.538	-5.29
280.753	-11.43
280.969	21.33
281.184	23.38
281.399	35.67
281.615	35.67
281.83	-31.91
282.045	7
282.26	58.2
282.476	88.92
282.691	50
282.906	-15.53
283.122	15.19
283.337	66.39
283.552	82.77
283.767	-31.91
283.983	47.96
284.198	35.67
284.413	56.15
284.628	-23.72
284.843	50
285.058	37.72
285.274	64.34
285.489	19.29
285.704	-33.96
285.919	33.62
286.134	58.2
286.349	47.96
286.564	15.19
286.779	70.48
286.995	33.62
287.21	-40.11
287.425	-50.35
287.64	58.2
287.855	11.09
288.07	-17.58
288.285	-58.54
288.5	35.67
288.715	90.96
288.93	-3.24
289.145	7
289.36	99.16
289.575	-23.72
289.79	41.81
290.004	39.76
290.219	-1.19
290.434	66.39
290.649	-9.39
290.864	0.85
291.079	7
291.294	19.29
291.509	19.29
291.724	13.14
291.938	47.96
292.153	74.58
292.368	15.19
292.583	4.95
292.798	35.67
293.012	15.19
293.227	109.4
293.442	60.24
293.657	-1.19
293.871	56.15
294.086	15.19
294.301	101.2
294.516	88.92
294.73	33.62
294.945	43.86
295.16	-70.83
295.374	31.57
295.589	99.16
295.804	-1.19
296.018	60.24
296.233	-9.39
296.447	-5.29
296.662	-9.39
296.877	72.53
297.091	45.91
297.306	-19.63
297.52	-9.39
297.735	72.53
297.949	7
298.164	39.76
298.378	-62.63
298.593	-5.29
298.807	56.15
299.022	17.24
299.236	0.85
299.451	70.48
299.665	82.77
299.88	68.44
300.094	27.48
300.309	15.19
300.523	47.96
300.737	66.39
300.952	39.76
301.166	90.96
301.381	31.57
301.595	97.11
301.809	15.19
302.024	-1.19
302.238	58.2
302.452	56.15
302.667	-7.34
302.881	99.16
303.095	17.24
303.309	2.9
303.524	-7.34
303.738	-9.39
303.952	-23.72
304.166	2.9
304.381	11.09
304.595	111.44
304.809	25.43
305.023	23.38
305.237	21.33
305.452	19.29
305.666	64.34
305.88	11.09
306.094	37.72
306.308	9.05
306.522	47.96
306.736	93.01
306.95	39.76
307.164	23.38
307.379	-40.11
307.593	64.34
307.807	-17.58
308.021	-9.39
308.235	66.39
308.449	-40.11
308.663	-21.67
308.877	72.53
309.091	27.48
309.305	23.38
309.519	-17.58
309.733	41.81
309.947	-62.63
310.161	121.68
310.374	27.48
310.588	31.57
310.802	60.24
311.016	33.62
311.23	-17.58
311.444	-17.58
311.658	-15.53
311.872	58.2
312.085	66.39
312.299	2.9
312.513	35.67
312.727	43.86
312.941	52.05
313.154	17.24
313.368	37.72
313.582	-17.58
313.796	9.05
314.009	97.11
314.223	68.44
314.437	41.81
314.651	-13.48
314.864	97.11
315.078	0.85
315.292	43.86
315.505	35.67
315.719	52.05
315.933	33.62
316.146	-21.67
316.36	39.76
316.573	72.53
316.787	11.09
317.001	41.81
317.214	-25.77
317.428	33.62
317.641	31.57
317.855	-25.77
318.068	37.72
318.282	23.38
318.495	66.39
318.709	56.15
318.922	25.43
319.136	101.2
319.349	80.72
319.563	66.39
319.776	82.77
319.99	-50.35
320.203	39.76
320.417	-36.01
320.63	23.38
320.843	105.3
321.057	-36.01
321.27	15.19
321.483	52.05
321.697	93.01
321.91	19.29
322.124	62.29
322.337	25.43
322.55	-42.15
322.763	11.09
322.977	119.64
323.19	7
323.403	54.1
323.617	-17.58
323.83	41.81
324.043	-21.67
324.256	0.85
324.469	-23.72
324.683	39.76
324.896	52.05
325.109	25.43
325.322	45.91
325.535	78.68
325.748	-33.96
325.962	-25.77
326.175	-33.96
326.388	25.43
326.601	41.81
326.814	-33.96
327.027	7
327.24	90.96
327.453	17.24
327.666	66.39
327.879	84.82
328.092	7
328.305	37.72
328.518	39.76
328.731	-1.19
328.944	31.57
329.157	84.82
329.37	33.62
329.583	15.19
329.796	7
330.009	-3.24
330.222	-23.72
330.435	93.01
330.648	84.82
330.861	31.57
331.073	9.05
331.286	-33.96
331.499	-1.19
331.712	-83.11
331.925	68.44
332.138	31.57
332.35	64.34
332.563	15.19
332.776	58.2
332.989	-7.34
333.202	-23.72
333.414	76.63
333.627	52.05
333.84	13.14
334.053	47.96
334.265	56.15
334.478	33.62
334.691	90.96
334.903	39.76
335.116	43.86
335.329	52.05
335.541	39.76
335.754	17.24
335.966	-17.58
336.179	-19.63
336.392	47.96
336.604	60.24
336.817	33.62
337.029	99.16
337.242	43.86
337.454	50
337.667	17.24
337.88	66.39
338.092	23.38
338.305	39.76
338.517	37.72
338.729	7
338.942	7
339.154	19.29
339.367	-17.58
339.579	64.34
339.792	-7.34
340.004	66.39
340.217	103.25
340.429	68.44
340.641	47.96
340.854	0.85
341.066	25.43
341.278	121.68
341.491	90.96
341.703	93.01
341.915	45.91
342.128	56.15
342.34	17.24
342.552	7
342.764	-15.53
342.977	-9.39
343.189	-23.72
343.401	78.68
343.613	-7.34
343.826	23.38
344.038	41.81
344.25	-5.29
344.462	47.96
344.674	56.15
344.886	31.57
345.099	13.14
345.311	88.92
345.523	-38.06
345.735	17.24
345.947	74.58
346.159	35.67
346.371	23.38
346.583	-21.67
346.795	123.73
347.007	47.96
347.219	72.53
347.431	25.43
347.643	119.64
347.855	60.24
348.067	58.2
348.279	15.19
348.491	52.05
348.703	7
348.915	47.96
349.127	-33.96
349.339	50
349.551	35.67
349.763	45.91
349.975	19.29
350.187	121.68
350.399	33.62
350.61	43.86
350.822	-44.2
351.034	88.92
351.246	-62.63
351.458	88.92
351.669	-15.53
351.881	47.96
352.093	64.34
352.305	113.49
352.517	-21.67
352.728	64.34
352.94	41.81
353.152	56.15
353.363	0.85
353.575	29.52
353.787	76.63
353.999	23.38
354.21	39.76
354.422	-7.34
354.633	90.96
354.845	84.82
355.057	25.43
355.268	64.34
355.48	43.86
355.692	23.38
355.903	60.24
356.115	15.19
356.326	101.2
356.538	60.24
356.749	62.29
356.961	56.15
357.172	21.33
357.384	-25.77
357.595	93.01
357.807	9.05
358.018	68.44
358.23	68.44
358.441	88.92
358.653	72.53
358.864	50
359.075	68.44
359.287	-13.48
359.498	47.96
359.709	68.44
359.921	23.38
360.132	74.58
360.344	93.01
360.555	-15.53
360.766	19.29
360.977	60.24
361.189	109.4
361.4	7
361.611	58.2
361.823	47.96
362.034	27.48
362.245	-17.58
362.456	23.38
362.667	64.34
362.879	68.44
363.09	35.67
363.301	33.62
363.512	15.19
363.723	-31.91
363.935	23.38
364.146	121.68
364.357	19.29
364.568	62.29
364.779	0.85
364.99	82.77
365.201	-31.91
365.412	138.07
365.623	0.85
365.834	17.24
366.045	27.48
366.256	88.92
366.467	43.86
366.678	11.09
366.889	60.24
367.1	68.44
367.311	60.24
367.522	72.53
367.733	33.62
367.944	105.3
368.155	0.85
368.366	105.3
368.577	95.06
368.788	93.01
368.999	47.96
369.209	31.57
369.42	86.87
369.631	117.59
369.842	27.48
370.053	47.96
370.264	47.96
370.474	33.62
370.685	-50.35
370.896	11.09
371.107	7
371.317	82.77
371.528	129.88
371.739	140.12
371.95	82.77
372.16	31.57
372.371	23.38
372.582	11.09
372.792	154.45
373.003	52.05
373.214	90.96
373.424	84.82
373.635	72.53
373.846	88.92
374.056	50
374.267	88.92
374.477	13.14
374.688	88.92
374.898	72.53
375.109	109.4
375.319	66.39
375.53	68.44
375.74	-9.39
375.951	41.81
376.161	29.52
376.372	99.16
376.582	88.92
376.793	52.05
377.003	35.67
377.214	45.91
377.424	66.39
377.635	31.57
377.845	56.15
378.055	166.74
378.266	21.33
378.476	35.67
378.686	29.52
378.897	52.05
379.107	95.06
379.317	54.1
379.528	52.05
379.738	-25.77
379.948	35.67
380.158	-25.77
380.369	4.95
380.579	84.82
380.789	68.44
380.999	70.48
381.21	58.2
381.42	62.29
381.63	-1.19
381.84	64.34
382.05	76.63
382.261	140.12
382.471	90.96
382.681	68.44
382.891	121.68
383.101	70.48
383.311	138.07
383.521	70.48
383.731	76.63
383.941	50
384.151	70.48
384.361	21.33
384.571	33.62
384.781	41.81
384.991	115.54
385.201	99.16
385.411	62.29
385.621	25.43
385.831	41.81
386.041	72.53
386.251	29.52
386.461	138.07
386.671	88.92
386.881	17.24
387.091	47.96
387.301	76.63
387.511	52.05
387.72	127.83
387.93	146.26
388.14	56.15
388.35	25.43
388.56	80.72
388.769	107.35
388.979	99.16
389.189	2.9
389.399	140.12
389.609	45.91
389.818	129.88
390.028	121.68
390.238	64.34
390.447	80.72
390.657	140.12
390.867	62.29
391.076	80.72
391.286	119.64
391.496	39.76
391.705	35.67
391.915	35.67
392.125	80.72
392.334	29.52
392.544	76.63
392.753	39.76
392.963	50
393.172	66.39
393.382	127.83
393.591	113.49
393.801	97.11
394.01	105.3
394.22	93.01
394.429	7
394.639	47.96
394.848	76.63
395.058	70.48
395.267	97.11
395.477	31.57
395.686	109.4
395.895	162.64
396.105	84.82
396.314	66.39
396.524	19.29
396.733	86.87
396.942	166.74
397.152	115.54
397.361	129.88
397.57	72.53
397.78	88.92
397.989	176.98
398.198	113.49
398.407	152.4
398.617	133.97
398.826	105.3
399.035	170.83
399.244	66.39
399.453	131.92
399.663	107.35
399.872	105.3
400.081	125.78
400.29	97.11
400.499	90.96
400.708	140.12
400.917	140.12
401.127	121.68
401.336	41.81
401.545	252.75
401.754	123.73
401.963	228.18
402.172	146.26
402.381	140.12
402.59	109.4
402.799	125.78
403.008	119.64
403.217	142.16
403.426	121.68
403.635	125.78
403.844	203.6
404.053	172.88
404.262	115.54
404.471	234.32
404.68	189.27
404.888	152.4
405.097	170.83
405.306	213.84
405.515	174.93
405.724	170.83
405.933	260.95
406.142	93.01
406.35	244.56
406.559	183.12
406.768	238.42
406.977	195.41
407.185	252.75
407.394	301.9
407.603	303.95
407.812	205.65
408.02	287.57
408.229	297.81
408.438	203.6
408.646	289.62
408.855	308.05
409.064	308.05
409.272	336.72
409.481	410.45
409.69	363.34
409.898	406.35
410.107	424.78
410.315	404.3
410.524	367.44
410.733	463.69
410.941	465.74
411.15	463.69
411.358	506.7
411.567	543.57
411.775	428.88
411.984	539.47
412.192	553.8
412.401	707.4
412.609	568.14
412.818	678.73
413.026	723.79
413.234	639.82
413.443	590.67
413.651	738.12
413.86	729.93
414.068	731.98
414.276	748.36
414.485	752.46
414.693	936.78
414.901	873.29
415.11	955.21
415.318	908.1
415.526	983.88
415.734	961.35
415.943	1071.94
416.151	1022.79
416.359	1125.19
416.567	1088.32
416.776	1182.53
416.984	1174.34
417.192	1360.7
417.4	1289.03
417.608	1254.21
417.817	1303.36
418.025	1346.37
418.233	1473.34
418.441	1583.93
418.649	1573.69
418.857	1631.04
419.065	1723.2
419.273	1633.08
419.481	1821.5
419.689	1909.56
419.897	1999.67
420.105	1948.47
420.313	1987.38
420.521	2134.84
420.729	2114.36
420.937	2143.03
421.145	2163.51
421.353	2431.79
421.561	2597.68
421.769	2575.15
421.977	2644.78
422.185	2648.88
422.393	2937.64
422.601	2984.74
422.809	3005.22
423.017	3035.94
423.224	3054.37
423.432	3201.83
423.64	3304.23
423.848	3644.19
424.056	3375.91
424.263	3848.99
424.471	3672.86
424.679	3726.11
424.887	3912.47
425.094	4096.79
425.302	4238.1
425.51	4184.85
425.718	4422.42
425.925	4469.52
426.133	4625.17
426.341	4889.35
426.548	5102.34
426.756	5100.3
426.964	5227.27
427.171	5489.41
427.379	5659.39
427.586	5583.62
427.794	5843.71
428.001	6105.85
428.209	6464.24
428.417	6208.25
428.624	6806.25
428.832	6673.14
429.039	6689.52
429.247	6980.33
429.454	7367.4
429.662	7799.52
429.869	7312.1
430.076	7881.44
430.284	7615.2
430.491	8096.47
430.699	8385.24
430.906	8403.67
431.114	8542.93
431.321	8831.69
431.528	8977.1
431.736	9636.55
431.943	10050.24
432.15	9702.08
432.358	10046.14
432.565	10345.14
432.772	10312.38
432.979	11020.97
433.187	11287.21
433.394	11170.47
433.601	11905.7
433.808	12026.53
434.016	11741.86
434.223	12423.83
434.43	13068.94
434.637	12722.84
434.844	13580.93
435.052	13703.81
435.259	13734.53
435.466	13814.4
435.673	13935.23
435.88	14555.77
436.087	15426.15
436.294	15403.63
436.501	15127.15
436.708	15239.79
436.915	15676.01
437.122	16317.02
437.329	16511.58
437.537	17201.74
437.743	17248.85
437.95	17291.85
438.157	18170.43
438.364	18739.77
438.571	18537.02
438.778	18790.97
438.985	20341.28
439.192	19880.49
439.399	20572.7
439.606	19755.56
439.813	20970.01
440.02	22381.06
440.227	21993.99
440.433	21764.62
440.64	22276.61
440.847	22141.44
441.054	23101.94
441.261	24148.45
441.467	23904.74
441.674	24414.69
441.881	25539.02
442.088	25010.65
442.294	24801.75
442.501	25551.31
442.708	25876.94
442.914	27195.83
443.121	28090.79
443.328	27326.9
443.534	29600.15
443.741	28567.97
443.948	28322.21
444.154	30251.4
444.361	30130.57
444.568	30488.96
444.774	30237.06
444.981	30476.68
445.187	31586.68
445.394	32934.24
445.6	32123.24
445.807	35443
446.013	34103.63
446.22	34648.39
446.426	35932.47
446.633	36122.93
446.839	37685.53
447.046	35819.83
447.252	37392.67
447.459	37900.56
447.665	37910.8
447.871	39459.07
448.078	41177.31
448.284	39170.3
448.491	39946.48
448.697	41717.98
448.903	42150.1
449.11	42551.5
449.316	41857.24
449.522	42531.02
449.728	43526.33
449.935	43978.93
450.141	43495.61
450.347	45258.91
450.553	43229.38
450.76	43985.08
450.966	45441.18
451.172	44847.27
451.378	45754.52
451.584	45043.88
451.791	46243.99
451.997	45703.32
452.203	46710.92
452.409	46770.32
452.615	46772.36
452.821	44824.75
453.027	44406.96
453.233	46512.27
453.44	45121.7
453.646	45234.34
453.852	45703.32
454.058	46334.1
454.264	44978.34
454.47	45928.6
454.676	44738.73
454.882	46041.24
455.088	42086.61
455.294	43088.07
455.5	43425.98
455.705	44105.91
455.911	42510.54
456.117	41494.75
456.323	40900.84
456.529	38803.72
456.735	40909.03
456.941	39588.09
457.147	38971.65
457.352	37568.79
457.558	37372.19
457.764	37605.66
457.97	36794.66
458.176	36417.83
458.381	36075.82
458.587	34451.78
458.793	34431.3
458.999	32528.74
459.204	34500.93
459.41	33993.04
459.616	31701.36
459.821	31994.22
460.027	31676.79
460.233	30892.41
460.438	29260.18
460.644	29718.93
460.85	28506.53
461.055	28017.07
461.261	27904.43
461.466	25766.35
461.672	24949.21
461.878	26847.68
462.083	24906.2
462.289	24656.35
462.494	24633.82
462.7	23265.78
462.905	22948.34
463.111	23587.31
463.316	23661.04
463.522	23224.82
463.727	22819.32
463.932	23128.56
464.138	22622.72
464.343	22991.35
464.549	22366.72
464.754	23005.69
464.959	22690.3
465.165	22649.34
465.37	21762.57
465.575	21109.27
465.781	22092.29
465.986	22141.44
466.191	21428.75
466.397	20726.3
466.602	19776.04
466.807	20568.6
467.012	20716.06
467.218	20576.8
467.423	20142.63
467.628	20331.04
467.833	21217.81
468.038	20523.55
468.244	20064.8
468.449	20535.84
468.654	19905.06
468.859	19823.14
469.064	19640.87
469.269	18750.01
469.474	19102.26
469.679	19216.94
469.885	18958.9
470.09	19051.06
470.295	18975.28
470.5	18336.32
470.705	18643.51
470.91	18131.52
471.115	17932.87
471.32	18391.61
471.525	18039.36
471.73	17746.5
471.935	17605.19
472.139	16953.94
472.344	17404.49
472.549	17349.2
472.754	16896.6
472.959	16515.67
473.164	16435.8
473.369	16478.81
473.574	16753.24
473.778	16347.74
473.983	16499.29
474.188	16222.81
474.393	15575.66
474.598	15614.57
474.802	15301.23
475.007	15622.76
475.212	15293.04
475.417	14764.66
475.621	14776.95
475.826	14994.03
476.031	14746.23
476.235	14383.74
476.44	14649.97
476.645	13978.24
476.849	14441.08
477.054	14283.39
477.259	13689.48
477.463	13699.72
477.668	13562.5
477.872	13859.46
478.077	13611.65
478.282	13130.38
478.486	13034.13
478.691	13111.95
478.895	12921.49
479.1	12941.97
479.304	12839.57
479.509	12397.21
479.713	12903.06
479.918	12475.03
480.122	12229.27
480.326	12415.64
480.531	12190.36
480.735	12376.73
480.94	12108.44
481.144	12540.57
481.348	11881.12
481.553	12096.16
481.757	11844.26
481.961	12171.93
482.166	12315.29
482.37	12141.21
482.574	11784.87
482.778	11862.69
482.983	12161.69
483.187	11811.49
483.391	11905.7
483.595	11684.52
483.8	11809.44
484.004	11903.65
484.208	12090.01
484.412	12059.29
484.616	11991.71
484.821	12001.95
485.025	11698.85
485.229	11942.56
485.433	11733.67
485.637	11829.92
485.841	11573.92
486.045	11659.94
486.249	11758.24
486.453	11707.04
486.657	11840.16
486.861	11881.12
487.065	11623.08
487.269	11825.82
487.473	11575.97
487.677	11960.99
487.881	11952.8
488.085	11573.92
488.289	12051.1
488.493	11643.56
488.697	11791.01
488.901	12061.34
489.105	11723.43
489.309	11844.26
489.512	11911.84
489.716	12036.77
489.92	11934.37
490.124	11930.27
490.328	12114.59
490.531	11815.59
490.735	12165.79
490.939	12309.15
491.143	12073.63
491.346	12208.8
491.55	12372.63
491.754	12247.71
491.958	12425.88
492.161	12376.73
492.365	12542.61
492.569	12356.25
492.772	12434.07
492.976	12667.54
493.18	12714.64
493.383	12929.68
493.587	12810.9
493.79	12868.24
493.994	12589.72
494.197	12866.19
494.401	13058.7
494.605	13343.37
494.808	13404.81
495.012	13306.51
495.215	13431.43
495.419	13529.73
495.622	13621.89
495.825	13732.48
496.029	13675.14
496.232	13996.67
496.436	13879.94
496.639	14254.72
496.843	14117.5
497.046	14670.45
497.249	14543.48
497.453	14547.58
497.656	14885.49
497.859	14822
498.063	15088.24
498.266	15389.29
498.469	15182.45
498.673	15268.46
498.876	15751.78
499.079	16048.74
499.282	15698.53
499.485	16202.33
499.689	16292.44
499.892	16513.63
500.095	16419.42
500.298	16835.16
500.501	16685.65
500.705	17326.67
500.908	17424.97
501.111	17515.08
501.314	17582.67
501.517	17914.44
501.72	18078.27
501.923	17898.05
502.126	18555.45
502.329	18643.51
502.532	18897.46
502.735	18727.48
502.938	19198.51
503.141	19216.94
503.344	19730.98
503.547	19743.27
503.75	19978.79
503.953	20185.63
504.156	20533.79
504.359	20634.14
504.562	20636.19
504.765	21277.2
504.968	21099.03
505.17	21490.19
505.373	21541.39
505.576	22012.42
505.779	22364.67
505.982	22415.87
506.185	22313.47
506.387	22821.37
506.59	22921.72
506.793	23128.56
506.996	23263.73
507.198	23710.19
507.401	23951.85
507.604	23796.2
507.807	24209.89
508.009	24758.75
508.212	24494.56
508.415	24891.87
508.617	25203.16
508.82	25291.22
509.022	25074.13
509.225	26261.96
509.428	26110.41
509.63	26257.86
509.833	26888.64
510.035	27107.77
510.238	27097.53
510.44	27531.7
510.643	27781.55
510.845	27908.52
511.048	27494.83
511.25	28289.45
511.453	28422.56
511.655	29317.53
511.858	28879.26
512.06	29196.7
512.262	29634.96
512.465	30060.94
512.667	30165.39
512.87	30505.35
513.072	30574.98
513.274	31177.08
513.477	31289.72
513.679	31566.2
513.881	32231.79
514.084	32225.64
514.286	31955.31
514.488	32620.9
514.69	33405.27
514.893	33132.89
515.095	33024.35
515.297	33552.73
515.499	33462.61
515.701	34210.12
515.904	34607.43
516.106	34572.61
516.308	34902.34
516.51	35170.62
516.712	35287.35
516.914	35533.11
517.116	36034.86
517.318	36342.06
517.52	36708.65
517.722	36876.58
517.925	37335.32
518.127	37556.5
518.329	38000.91
518.531	37708.05
518.733	38261.01
518.935	38666.5
519.136	38764.81
519.338	39153.92
519.54	39155.97
519.742	39870.71
519.944	39964.92
520.146	40564.97
520.348	40581.35
520.55	40675.56
520.752	40954.08
520.954	41294.05
521.155	41085.15
521.357	42125.52
521.559	42094.8
521.761	42938.57
521.963	42619.08
522.164	42621.13
522.366	42957
522.568	43106.5
522.77	43323.58
522.971	44347.57
523.173	44146.87
523.375	44187.83
523.576	44208.31
523.778	44558.51
523.98	45164.71
524.181	45559.97
524.383	45123.75
524.584	45437.09
524.786	45820.06
524.988	45414.56
525.189	46362.77
525.391	46428.3
525.592	46473.36
525.794	46663.82
525.995	47100.04
526.197	46897.29
526.398	46925.96
526.6	47417.47
526.801	46780.56
527.003	47679.61
527.204	47472.77
527.406	47943.8
527.607	48107.64
527.808	47769.72
528.01	47552.64
528.211	47655.04
528.412	49053.8
528.614	48582.77
528.815	48355.44
529.016	49043.56
529.218	48363.64
529.419	48541.81
529.62	48820.33
529.822	48572.53
530.023	48789.61
530.224	48826.48
530.425	48777.33
530.626	48806
530.828	48650.35
531.029	49614.94
531.23	48760.94
531.431	49317.99
531.632	49487.97
531.833	49551.46
532.035	49221.73
532.236	49404
532.437	49588.32
532.638	49361
532.839	49530.98
533.04	50096.22
533.241	49023.08
533.442	50411.6
533.643	49801.31
533.844	49285.22
534.045	49819.74
534.246	49475.68
534.447	49612.9
534.648	49641.57
534.849	49918.04
535.05	49684.58
535.251	49766.49
535.451	49387.62
535.652	49852.51
535.853	49694.82
536.054	49399.91
536.255	49539.17
536.456	49289.32
536.657	50176.09
536.857	49371.24
537.058	49692.77
537.259	49494.11
537.46	49707.1
537.66	49573.98
537.861	49432.68
538.062	49502.31
538.263	49768.54
538.463	49365.09
538.664	49379.43
538.865	49461.35
539.065	49868.89
539.266	49135.72
539.466	49426.53
539.667	49102.95
539.868	49864.8
540.068	49662.05
540.269	49705.05
540.469	49619.04
540.67	49231.97
540.87	49115.24
541.071	49205.35
541.271	49447.01
541.472	49434.72
541.672	49170.54
541.873	48924.78
542.073	48420.98
542.274	49414.24
542.474	49047.66
542.675	49018.99
542.875	49410.15
543.075	49053.8
543.276	48728.17
543.476	49569.89
543.676	49084.52
543.877	49229.93
544.077	49133.67
544.277	48828.52
544.478	49045.61
544.678	49236.07
544.878	48918.63
545.078	49215.59
545.279	48738.41
545.479	48742.51
545.679	49385.57
545.879	48951.4
546.079	49064.04
546.28	48988.27
546.48	48640.11
546.68	48752.75
546.88	49236.07
547.08	49047.66
547.28	48570.48
547.48	48449.65
547.68	48840.81
547.88	48285.81
548.081	48992.36
548.281	48607.34
548.481	48316.53
548.681	48951.4
548.881	49068.14
549.081	49035.37
549.28	48275.57
549.48	48996.46
549.68	48410.74
549.88	49246.31
550.08	48427.12
550.28	48699.5
550.48	48568.43
550.68	48654.45
550.88	48672.88
551.08	48500.85
551.279	48441.46
551.479	47902.84
551.679	48873.58
551.879	48355.44
552.079	48754.8
552.278	48300.15
552.478	48343.16
552.678	48404.59
552.878	48672.88
553.077	48660.59
553.277	47751.29
553.477	48451.7
553.676	48263.28
553.876	47790.2
554.076	48380.02
554.275	48003.19
554.475	47573.12
554.674	48377.97
554.874	48154.74
555.074	47927.42
555.273	48291.96
555.473	48175.22
555.672	47263.88
555.872	47753.34
556.071	47679.61
556.271	48169.08
556.47	47489.15
556.67	47419.52
556.869	47538.3
557.068	47607.93
557.268	47431.81
557.467	47595.65
557.667	47460.48
557.866	47958.14
558.065	47288.45
558.265	47112.33
558.464	46987.4
558.663	47765.63
558.863	47435.91
559.062	47849.6
559.261	46784.65
559.461	47575.17
559.66	47110.28
559.859	47186.05
560.058	46708.88
560.258	46788.75
560.457	46403.73
560.656	47204.49
560.855	46635.15
561.054	46870.67
561.253	46399.63
561.453	46667.92
561.652	46749.84
561.851	46661.77
562.05	46745.74
562.249	46243.99
562.448	46549.14
562.647	46373.01
562.846	46295.19
563.045	46493.84
563.244	46053.53
563.443	46633.1
563.642	45650.08
563.841	46010.52
564.04	45760.67
564.239	46082.2
564.438	45668.51
564.637	45844.63
564.836	45959.32
565.035	45598.88
565.234	45674.65
565.432	45580.45
565.631	45322.4
565.83	45506.72
566.029	45705.37
566.228	45338.79
566.427	44976.3
566.625	45174.95
566.824	44732.59
567.023	45224.1
567.222	44234.93
567.42	45172.9
567.619	44966.06
567.818	44535.98
568.016	44576.94
568.215	45015.21
568.414	44570.8
568.612	44871.85
568.811	44556.46
569.01	44398.77
569.208	44116.15
569.407	44196.02
569.605	44396.72
569.804	44519.6
570.002	43802.81
570.201	44523.69
570.4	43532.48
570.598	43690.17
570.797	43792.57
570.995	43694.27
571.193	42823.88
571.392	43657.4
571.59	43065.54
571.789	43311.3
571.987	43145.41
572.186	43356.35
572.384	42715.34
572.582	43167.94
572.781	43047.11
572.979	42684.62
573.177	43045.06
573.376	42991.81
573.574	42299.6
573.772	42819.78
573.971	42111.19
574.169	42115.28
574.367	41670.87
574.565	42334.42
574.763	42057.94
574.962	41732.31
575.16	41476.32
575.358	41816.28
575.556	41607.39
575.754	41898.2
575.952	41220.32
576.151	42150.1
576.349	41355.49
576.547	41351.39
576.745	41326.81
576.943	41263.33
577.141	41316.57
577.339	41058.53
577.537	40915.17
577.735	40976.61
577.933	40624.36
578.131	40841.45
578.329	40247.54
578.527	40141.04
578.725	40419.56
578.923	40472.81
579.121	39917.81
579.319	39770.36
579.516	40263.92
579.714	40222.96
579.912	39801.08
580.11	39917.81
580.308	39807.22
580.506	39696.63
580.704	38938.88
580.901	39698.68
581.099	39674.1
581.297	39022.85
581.495	39078.15
581.692	39401.72
581.89	38521.1
582.088	39260.41
582.285	38625.54
582.483	39135.49
582.681	38893.83
582.878	38580.49
583.076	38287.63
583.274	38412.56
583.471	38066.45
583.669	38465.8
583.866	38138.13
584.064	38404.36
584.262	37884.18
584.459	37890.32
584.657	37757.21
584.854	38246.67
585.052	36995.36
585.249	37677.33
585.447	37609.75
585.644	37155.1
585.841	37681.43
586.039	37388.57
586.236	36944.16
586.434	37208.35
586.631	36741.41
586.828	37110.05
587.026	37015.84
587.223	36878.63
587.42	36225.32
587.618	36385.07
587.815	36331.82
588.012	36325.68
588.21	36137.26
588.407	36319.53
588.604	35653.94
588.801	35399.99
588.999	35690.8
589.196	35821.87
589.393	36002.1
589.59	35875.12
589.787	35748.15
589.984	35164.48
590.182	35295.55
590.379	35547.45
590.576	35109.18
590.773	35629.37
590.97	34885.95
591.167	35012.93
591.364	34564.42
591.561	35072.32
591.758	34292.04
591.955	34144.59
592.152	34834.75
592.349	34408.78
592.546	34642.24
592.743	34527.56
592.94	34007.37
593.137	34042.19
593.334	34115.92
593.531	33464.66
593.727	33823.06
593.924	33687.89
594.121	33132.89
594.318	33788.24
594.515	33100.12
594.712	33530.2
594.908	33337.69
595.105	33433.94
595.302	33124.7
595.499	33098.08
595.696	32575.84
595.892	32782.69
596.089	32649.57
596.286	32588.13
596.482	32682.34
596.679	32508.26
596.876	32272.74
597.072	32299.37
597.269	32321.9
597.466	31795.57
597.662	31775.09
597.859	31934.83
598.055	31404.41
598.252	31398.26
598.448	31525.24
598.645	31564.15
598.841	31220.09
599.038	31353.21
599.234	31215.99
599.431	30886.27
599.627	31005.05
599.824	31039.87
600.02	30931.33
600.217	30572.93
600.413	30744.96
600.609	30478.72
600.806	30454.15
601.002	30566.79
601.198	30333.32
601.395	30067.08
601.591	30046.6
601.787	30249.35
601.984	29929.87
602.18	29735.31
602.376	29645.2
602.572	29770.13
602.769	30062.99
602.965	29288.85
603.161	29280.66
603.357	29264.28
603.553	29430.16
603.75	29376.92
603.946	28955.04
604.142	29249.94
604.338	28561.83
604.534	29331.86
604.73	28473.76
604.926	28803.49
605.122	28805.53
605.318	28291.49
605.514	28328.36
605.71	28461.48
605.906	28283.3
606.102	28574.11
606.298	27972.01
606.494	28060.07
606.69	28135.85
606.886	28111.27
607.082	27830.7
607.278	28137.9
607.474	27640.24
607.67	27881.9
607.866	27193.78
608.062	27593.14
608.257	27400.63
608.453	27677.1
608.649	27675.06
608.845	27128.25
609.041	27304.37
609.236	27474.35
609.432	27027.9
609.628	27441.59
609.824	27490.74
610.019	27099.58
610.215	27066.81
610.411	27257.27
610.606	26808.76
610.802	26929.59
610.998	26823.1
611.193	26968.51
611.389	26876.35
611.584	26728.89
611.78	26507.71
611.976	26876.35
612.171	26370.5
612.367	26544.58
612.562	26214.85
612.758	26001.86
612.953	26159.56
613.149	26380.74
613.344	25889.23
613.539	26425.79
613.735	26038.73
613.93	26431.94
614.126	26300.87
614.321	26358.21
614.517	26034.63
614.712	25948.62
614.907	25721.29
615.103	25889.23
615.298	25491.92
615.493	26139.08
615.688	25444.82
615.884	26118.6
616.079	25465.3
616.274	25461.2
616.47	25104.85
616.665	25739.72
616.86	25274.84
617.055	25098.71
617.25	25254.36
617.445	25727.44
617.641	24639.97
617.836	25399.76
618.031	24850.91
618.226	24977.88
618.421	24920.54
618.616	25133.53
618.811	24402.4
619.006	24863.19
619.201	24261.09
619.396	24584.67
619.591	24353.25
619.786	24455.65
619.981	24068.58
620.176	23785.96
620.371	23771.63
620.566	24054.25
620.761	23912.94
620.956	23656.94
621.151	23314.93
621.346	23511.53
621.541	23304.69
621.735	23433.71
621.93	22915.58
622.125	23103.99
622.32	22827.51
622.515	23030.26
622.709	22735.35
622.904	22575.61
623.099	22561.28
623.294	22376.96
623.488	22127.11
623.683	22153.73
623.878	21686.79
624.072	22028.81
624.267	21864.97
624.462	21608.97
624.656	21559.82
624.851	21670.41
625.046	21518.86
625.24	21242.39
625.435	21086.74
625.629	21051.92
625.824	21078.55
626.018	20834.84
626.213	20724.25
626.407	20707.87
626.602	20390.43
626.796	20519.45
626.991	20451.87
627.185	20372
627.38	20159.01
627.574	20103.71
627.768	19765.8
627.963	19528.24
628.157	19690.02
628.352	19579.43
628.546	19321.39
628.74	19511.85
628.935	19098.16
629.129	19126.83
629.323	18725.43
629.517	19061.3
629.712	18766.39
629.906	18758.2
630.1	18563.64
630.294	18457.15
630.489	18307.65
630.683	18573.88
630.877	18119.23
631.071	17873.48
631.265	18283.07
631.459	18020.93
631.653	18053.7
631.848	17640.01
632.042	17619.53
632.236	17832.52
632.43	17136.21
632.624	17539.66
632.818	17287.76
633.012	17072.72
633.206	17238.61
633.4	17142.35
633.594	16861.78
633.788	17009.23
633.982	16923.22
634.176	16636.5
634.369	16816.72
634.563	16759.38
634.757	16353.88
634.951	16689.75
635.145	16630.36
635.339	16140.9
635.533	16153.18
635.726	16204.38
635.92	15997.54
636.114	16038.5
636.308	15948.39
636.501	15835.75
636.695	15850.08
636.889	15669.86
637.083	15673.96
637.276	15379.05
637.47	15624.81
637.664	15276.65
637.857	15493.74
638.051	15317.61
638.244	15012.46
638.438	15149.68
638.632	15272.56
638.825	14686.84
639.019	14760.56
639.212	14600.82
639.406	14766.71
639.599	14637.69
639.793	14647.93
639.986	14305.92
640.18	14377.59
640.373	14406.27
640.567	14156.41
640.76	14226.04
640.954	14068.35
641.147	13935.23
641.34	13916.8
641.534	13845.12
641.727	13845.12
641.92	13843.07
642.114	13314.7
642.307	13769.35
642.5	13621.89
642.694	13261.45
642.887	13083.28
643.08	13384.33
643.273	13433.48
643.467	13159.05
643.66	13038.22
643.853	12970.64
644.046	13038.22
644.239	13097.61
644.432	12935.82
644.626	12769.94
644.819	12679.83
645.012	12552.85
645.205	12614.29
645.398	12661.4
645.591	12425.88
645.784	12458.65
645.977	12350.1
646.17	12489.37
646.363	12171.93
646.556	12022.43
646.749	12114.59
646.942	12077.73
647.135	11989.66
647.328	12098.2
647.521	11614.88
647.714	11727.52
647.907	11657.89
648.099	11831.97
648.292	11788.96
648.485	11590.31
648.678	11504.29
648.871	11397.8
649.064	11131.56
649.256	11371.18
649.449	11221.67
649.642	11281.07
649.835	11063.98
650.027	11035.31
650.22	10871.47
650.413	10820.27
650.605	11029.17
650.798	10838.7
650.991	10932.91
651.183	10760.88
651.376	10840.75
651.568	10568.37
651.761	10533.56
651.954	10662.58
652.146	10351.29
652.339	10365.62
652.531	10449.59
652.724	10099.39
652.916	10074.81
653.109	10224.31
653.301	10355.38
653.494	10238.65
653.686	9837.25
653.879	10027.71
654.071	9814.72
654.263	9845.44
654.456	9845.44
654.648	9947.84
654.84	9804.48
655.033	9591.49
655.225	9513.67
655.417	9620.16
655.61	9644.74
655.802	9659.07
655.994	9405.13
656.186	9380.55
656.379	9265.86
656.571	9267.91
656.763	9173.71
656.955	9116.36
657.148	9149.13
657.34	9128.65
657.532	8995.53
657.724	9030.35
657.916	8927.95
658.108	8889.04
658.3	8708.82
658.492	9067.21
658.684	8772.3
658.876	8798.93
659.068	8641.23
659.26	8508.12
659.452	8563.41
659.644	8467.16
659.836	8493.78
660.028	8561.36
660.22	8338.13
660.412	8420.05
660.604	8258.26
660.796	8428.24
660.988	8284.89
661.18	8209.11
661.372	8256.22
661.563	8045.27
661.755	8268.5
661.947	8010.46
662.139	7836.38
662.331	8047.32
662.522	7901.92
662.714	8022.75
662.906	7936.73
663.097	7635.68
663.289	7781.09
663.481	7901.92
663.673	7750.37
663.864	7660.26
664.056	7506.66
664.247	7768.8
664.439	7527.14
664.631	7455.46
664.822	7615.2
665.014	7375.59
665.205	7467.75
665.397	7219.94
665.588	7252.71
665.78	7111.4
665.971	7144.17
666.163	7260.9
666.354	7219.94
666.546	7127.78
666.737	7209.7
666.929	7144.17
667.12	6939.37
667.311	7027.43
667.503	7066.35
667.694	6873.84
667.885	6830.83
668.077	6976.23
668.268	6978.28
668.459	6818.54
668.651	6726.38
668.842	6660.85
669.033	6413.04
669.224	6556.4
669.416	6599.41
669.607	6666.99
669.798	6580.98
669.989	6634.22
670.18	6613.74
670.371	6546.16
670.563	6509.3
670.754	6476.53
670.945	6232.82
671.136	6384.37
671.327	6243.06
671.518	6228.73
671.709	6286.07
671.9	6576.88
672.091	6234.87
672.282	6171.38
672.473	6103.8
672.664	5995.26
672.855	6028.03
673.046	6107.9
673.237	6163.19
673.428	6046.46
673.619	6017.79
673.809	5870.33
674	5913.34
674.191	5972.73
674.382	5917.44
674.573	5956.35
674.764	5968.63
674.954	5905.15
675.145	5819.13
675.336	5880.57
675.527	5737.21
675.717	5688.06
675.908	5544.7
676.099	5810.94
676.289	5733.12
676.48	5593.86
676.671	5618.43
676.861	5651.2
677.052	5657.34
677.243	5427.97
677.433	5495.55
677.624	5726.97
677.814	5442.31
678.005	5499.65
678.195	5659.39
678.386	5464.83
678.576	5372.68
678.767	5489.41
678.957	5319.43
679.148	5430.02
679.338	5384.96
679.529	5348.1
679.719	5229.32
679.909	5411.59
680.1	5327.62
680.29	5290.76
680.481	5243.65
680.671	5370.63
680.861	5145.35
681.052	5329.67
681.242	5106.44
681.432	5210.89
681.622	5157.64
681.813	5204.74
682.003	5167.88
682.193	5045
682.383	5088.01
682.573	5208.84
682.764	4918.03
682.954	5110.54
683.144	5028.62
683.334	4948.75
683.524	5030.66
683.714	4985.61
683.904	4866.83
684.094	4866.83
684.284	4854.54
684.474	5083.91
684.664	4909.83
684.854	4797.2
685.044	4954.89
685.234	4750.09
685.424	4864.78
685.614	4819.72
685.804	4905.74
685.994	4696.85
686.184	4815.63
686.374	4836.11
686.564	4487.95
686.753	4721.42
686.943	4768.52
687.133	4629.26
687.323	4545.3
687.513	4557.58
687.702	4682.51
687.892	4743.95
688.082	4571.92
688.272	4551.44
688.461	4604.69
688.651	4465.43
688.841	4475.67
689.03	4481.81
689.22	4401.94
689.41	4315.92
689.599	4348.69
689.789	4381.46
689.979	4438.8
690.168	4379.41
690.358	4305.68
690.547	4285.2
690.737	4178.71
690.926	4160.28
691.116	4061.98
691.305	4326.16
691.495	4209.43
691.684	4121.37
691.874	4086.55
692.063	4088.6
692.252	4086.55
692.442	4197.14
692.631	4041.5
692.82	4004.63
693.01	3848.99
693.199	4045.59
693.388	3932.95
693.578	3861.27
693.767	4037.4
693.956	3853.08
694.146	3930.91
694.335	3941.15
694.524	3975.96
694.713	3832.6
694.902	3799.84
695.092	3812.12
695.281	3697.44
695.47	3810.08
695.659	3838.75
695.848	3803.93
696.037	3857.18
696.226	3769.12
696.415	3758.88
696.604	3767.07
696.793	3656.48
696.982	3756.83
697.171	3660.57
697.36	3668.77
697.549	3685.15
697.738	3605.28
697.927	3545.89
698.116	3840.79
698.305	3672.86
698.494	3676.96
698.683	3703.58
698.872	3595.04
699.061	3660.57
699.25	3666.72
699.438	3613.47
699.627	3490.59
699.816	3511.07
700.005	3447.58
700.193	3570.46
700.382	3631.9
700.571	3423.01
700.76	3603.23
700.948	3472.16
701.137	3504.93
701.326	3482.4
701.514	3511.07
701.703	3488.54
701.892	3414.82
702.08	3531.55
702.269	3554.08
702.457	3230.5
702.646	3423.01
702.834	3373.86
703.023	3435.3
703.212	3332.9
703.4	3345.19
703.589	3259.17
703.777	3400.48
703.965	3296.04
704.154	3357.47
704.342	3455.78
704.531	3375.91
704.719	3238.69
704.907	3406.63
705.096	3412.77
705.284	3312.42
705.472	3279.65
705.661	3343.14
705.849	3293.99
706.037	3318.56
706.226	3197.73
706.414	3242.79
706.602	3187.49
706.79	3222.31
706.979	3083.05
707.167	3238.69
707.355	3162.92
707.543	3283.75
707.731	3324.71
707.919	3183.4
708.107	3015.46
708.296	3185.44
708.484	3089.19
708.672	3169.06
708.86	3195.68
709.048	3119.91
709.236	3046.18
709.424	3136.29
709.612	3111.72
709.8	3013.42
709.988	3015.46
710.176	3216.16
710.364	3267.36
710.551	3095.33
710.739	3089.19
710.927	3105.57
711.115	3064.61
711.303	3099.43
711.491	3185.44
711.679	3068.71
711.866	2966.31
712.054	3087.14
712.242	3005.22
712.43	3050.28
712.617	2923.3
712.805	2980.65
712.993	3152.68
713.181	3046.18
713.368	3138.34
713.556	2945.83
713.744	2911.02
713.931	3013.42
714.119	2945.83
714.306	2882.35
714.494	2994.98
714.682	2956.07
714.869	2886.44
715.057	2882.35
715.244	2935.59
715.432	2919.21
715.619	2857.77
715.807	2904.87
715.994	2904.87
716.182	2882.35
716.369	2818.86
716.556	2945.83
716.744	2958.12
716.931	2738.99
717.119	2859.82
717.306	2796.33
717.493	2759.47
717.681	2894.63
717.868	2810.67
718.055	2890.54
718.242	2915.11
718.43	2911.02
718.617	2849.58
718.804	2743.08
718.991	2765.61
719.179	2816.81
719.366	2792.23
719.553	2810.67
719.74	2712.36
719.927	2728.75
720.114	2763.56
720.301	2779.95
720.488	2638.64
720.676	2794.28
720.863	2669.36
721.05	2859.82
721.237	2644.78
721.424	2583.34
721.611	2681.64
721.798	2642.73
721.985	2689.84
722.172	2818.86
722.358	2587.44
722.545	2790.19
722.732	2622.25
722.919	2757.42
723.106	2638.64
723.293	2677.55
723.48	2728.75
723.667	2599.73
723.853	2624.3
724.04	2773.8
724.227	2736.94
724.414	2558.77
724.6	2708.27
724.787	2671.4
724.974	2599.73
725.161	2638.64
725.347	2554.67
725.534	2487.09
725.72	2720.56
725.907	2626.35
726.094	2657.07
726.28	2677.55
726.467	2523.95
726.653	2622.25
726.84	2587.44
727.027	2491.18
727.213	2581.29
727.4	2566.96
727.586	2628.4
727.773	2630.45
727.959	2655.02
728.145	2775.85
728.332	2644.78
728.518	2607.92
728.705	2614.06
728.891	2470.7
729.077	2523.95
729.264	2521.9
729.45	2499.38
729.636	2607.92
729.823	2540.33
730.009	2419.5
730.195	2556.72
730.382	2558.77
730.568	2532.14
730.754	2501.42
730.94	2433.84
731.126	2562.86
731.313	2478.9
731.499	2503.47
731.685	2569.01
731.871	2425.65
732.057	2546.48
732.243	2401.07
732.429	2552.62
732.615	2550.57
732.801	2550.57
732.987	2491.18
733.173	2489.14
733.359	2390.83
733.545	2399.02
733.731	2464.56
733.917	2407.22
734.103	2517.81
734.289	2423.6
734.475	2435.89
734.661	2515.76
734.847	2370.35
735.033	2546.48
735.219	2382.64
735.404	2425.65
735.59	2358.07
735.776	2364.21
735.962	2343.73
736.148	2251.57
736.333	2466.61
736.519	2360.11
736.705	2335.54
736.89	2392.88
737.076	2304.82
737.262	2331.44
737.447	2362.16
737.633	2517.81
737.819	2345.78
738.004	2450.22
738.19	2439.98
738.375	2358.07
738.561	2296.63
738.747	2317.11
738.932	2304.82
739.118	2319.15
739.303	2317.11
739.489	2257.71
739.674	2356.02
739.859	2337.59
740.045	2138.93
740.23	2251.57
740.416	2190.13
740.601	2181.94
740.786	2173.75
740.972	2206.52
741.157	2153.27
741.342	2089.78
741.528	2171.7
741.713	2130.74
741.898	2095.93
742.084	2255.67
742.269	2153.27
742.454	2138.93
742.639	2210.61
742.824	2179.89
743.01	2179.89
743.195	2263.86
743.38	2167.6
743.565	2087.73
743.75	2106.17
743.935	2095.93
744.12	2233.14
744.305	2063.16
744.49	2145.08
744.675	1997.62
744.86	2149.17
745.045	2054.97
745.23	2020.15
745.415	2046.77
745.6	2048.82
745.785	1977.14
745.97	1952.57
746.155	1952.57
746.34	1966.9
746.525	1981.24
746.71	1977.14
746.895	1977.14
747.079	1956.66
747.264	1852.22
747.449	1880.89
747.634	1819.45
747.819	1930.04
748.003	1866.55
748.188	1821.5
748.373	1844.03
748.557	1858.36
748.742	1784.63
748.927	1956.66
749.111	1817.4
749.296	1649.47
749.481	1788.73
749.665	1801.02
749.85	1715
750.034	1772.35
750.219	1747.77
750.404	1745.72
750.588	1735.48
750.773	1628.99
750.957	1553.21
751.141	1616.7
751.326	1723.2
751.51	1753.91
751.695	1698.62
751.879	1596.22
752.064	1620.8
752.248	1661.76
752.432	1573.69
752.617	1565.5
752.801	1588.03
752.985	1493.82
753.17	1530.69
753.354	1444.67
753.538	1491.77
753.722	1436.48
753.907	1475.39
754.091	1452.86
754.275	1530.69
754.459	1434.43
754.643	1393.47
754.828	1391.42
755.012	1409.86
755.196	1434.43
755.38	1416
755.564	1418.05
755.748	1456.96
755.932	1450.82
756.116	1366.85
756.3	1366.85
756.484	1227.59
756.668	1428.29
756.852	1293.12
757.036	1317.7
757.22	1383.23
757.404	1311.55
757.588	1231.68
757.772	1329.99
757.956	1321.79
758.14	1311.55
758.323	1284.93
758.507	1317.7
758.691	1200.96
758.875	1293.12
759.059	1145.67
759.242	1125.19
759.426	1196.87
759.61	1194.82
759.794	1090.37
759.977	1176.39
760.161	1301.31
760.345	1186.63
760.528	1129.28
760.712	1252.16
760.895	1059.65
761.079	1078.08
761.263	1141.57
761.446	1020.74
761.63	1162.05
761.813	1160
761.997	1164.1
762.18	1057.61
762.364	1117
762.547	1092.42
762.731	1090.37
762.914	1129.28
763.098	1071.94
763.281	1024.84
763.464	1041.22
763.648	994.12
763.831	1039.17
764.015	1076.04
764.198	1047.37
764.381	1092.42
764.564	1014.6
764.748	951.11
764.931	1039.17
765.114	1071.94
765.297	1006.41
765.481	973.64
765.664	932.68
765.847	940.87
766.03	1006.41
766.213	971.59
766.397	1090.37
766.58	983.88
766.763	983.88
766.946	877.38
767.129	912.2
767.312	936.78
767.495	897.86
767.678	891.72
767.861	924.49
768.044	912.2
768.227	983.88
768.41	944.97
768.593	983.88
768.776	971.59
768.959	971.59
769.142	924.49
769.324	934.73
769.507	930.63
769.69	858.95
769.873	840.52
770.056	983.88
770.239	863.05
770.421	887.62
770.604	881.48
770.787	863.05
770.97	801.61
771.152	809.8
771.335	926.54
771.518	867.14
771.7	875.34
771.883	834.38
772.066	817.99
772.248	813.9
772.431	869.19
772.613	817.99
772.796	826.18
772.978	858.95
773.161	795.47
773.343	783.18
773.526	686.92
773.708	746.31
773.891	699.21
774.073	817.99
774.256	760.65
774.438	844.62
774.621	674.64
774.803	799.56
774.985	701.26
775.168	815.94
775.35	746.31
775.532	793.42
775.715	850.76
775.897	674.64
776.079	746.31
776.261	680.78
776.444	623.44
776.626	719.69
776.808	674.64
776.99	684.87
777.173	623.44
777.355	719.69
777.537	711.5
777.719	607.05
777.901	672.59
778.083	699.21
778.265	633.68
778.447	627.53
778.629	645.96
778.811	664.4
778.993	576.33
779.175	639.82
779.357	641.87
779.539	678.73
779.721	648.01
779.903	643.92
780.085	641.87
780.267	582.48
780.449	656.2
780.631	600.91
780.812	648.01
780.994	594.76
781.176	535.37
781.358	557.9
781.54	523.09
781.721	531.28
781.903	598.86
782.085	637.77
782.267	568.14
782.448	435.02
782.63	471.89
782.812	498.51
782.993	531.28
783.175	537.42
783.357	510.8
783.538	461.65
783.72	533.33
783.901	467.79
784.083	482.13
784.264	441.17
784.446	498.51
784.627	408.4
784.809	545.61
784.99	412.5
785.172	432.97
785.353	541.52
785.535	461.65
785.716	432.97
785.897	432.97
786.079	420.69
786.26	455.5
786.441	396.11
786.623	408.4
786.804	426.83
786.985	441.17
787.167	469.84
787.348	441.17
787.529	392.02
787.71	428.88
787.891	404.3
788.073	445.26
788.254	420.69
788.435	375.63
788.616	426.83
788.797	394.06
788.978	351.06
789.159	336.72
789.34	424.78
789.522	432.97
789.703	342.86
789.884	435.02
790.065	367.44
790.246	394.06
790.427	336.72
790.607	418.64
790.788	361.3
790.969	367.44
791.15	404.3
791.331	383.82
791.512	377.68
791.693	326.48
791.874	326.48
792.054	473.93
792.235	334.67
792.416	326.48
792.597	359.25
792.778	377.68
792.958	332.62
793.139	351.06
793.32	344.91
793.5	320.34
793.681	289.62
793.862	359.25
794.042	248.66
794.223	342.86
794.404	326.48
794.584	205.65
794.765	215.89
794.945	265.04
795.126	334.67
795.306	326.48
795.487	234.32
795.667	308.05
795.848	291.66
796.028	295.76
796.209	248.66
796.389	287.57
796.57	258.9
796.75	236.37
796.93	254.8
797.111	236.37
797.291	295.76
797.471	267.09
797.652	172.88
797.832	287.57
798.012	312.14
798.192	189.27
798.373	219.99
798.553	285.52
798.733	254.8
798.913	265.04
799.093	197.46
799.274	199.51
799.454	271.19
799.634	287.57
799.814	277.33
799.994	232.27
800.174	269.14
800.354	179.03
800.534	211.79
800.714	207.7
800.894	246.61
801.074	238.42
801.254	246.61
801.434	248.66
801.614	215.89
801.794	140.12
801.974	850.76
802.154	219.99
802.334	281.43
802.514	185.17
802.693	238.42
802.873	244.56
803.053	213.84
803.233	199.51
803.413	228.18
803.592	207.7
803.772	197.46
803.952	138.07
804.131	152.4
804.311	238.42
804.491	172.88
804.67	187.22
804.85	219.99
805.03	291.66
805.209	107.35
805.389	265.04
805.568	209.75
805.748	207.7
805.928	246.61
806.107	195.41
806.287	219.99
806.466	203.6
806.646	207.7
806.825	203.6
807.004	219.99
807.184	195.41
807.363	187.22
807.543	183.12
807.722	99.16
807.901	205.65
808.081	211.79
808.26	121.68
808.439	181.07
808.619	224.08
808.798	154.45
808.977	152.4
809.156	197.46
809.336	183.12
809.515	262.99
809.694	162.64
809.873	203.6
810.052	160.59
810.231	244.56
810.411	174.93
810.59	207.7
810.769	146.26
810.948	207.7
811.127	123.73
811.306	162.64
811.485	162.64
811.664	226.13
811.843	174.93
812.022	101.2
812.201	127.83
812.38	181.07
812.559	97.11
812.737	129.88
812.916	121.68
813.095	164.69
813.274	185.17
813.453	138.07
813.632	189.27
813.811	131.92
813.989	99.16
814.168	228.18
814.347	50
814.526	113.49
814.704	179.03
814.883	236.37
815.062	121.68
815.24	146.26
815.419	66.39
815.598	150.36
815.776	113.49
815.955	197.46
816.133	109.4
816.312	154.45
816.49	90.96
816.669	154.45
816.847	138.07
817.026	156.5
817.204	138.07
817.383	156.5
817.561	109.4
817.74	115.54
817.918	195.41
818.097	68.44
818.275	105.3
818.453	105.3
818.632	148.31
818.81	84.82
818.988	88.92
819.167	31.57
819.345	60.24
819.523	131.92
819.701	109.4
819.879	158.55
820.058	189.27
820.236	215.89
820.414	76.63
820.592	119.64
820.77	138.07
820.948	72.53
821.127	68.44
821.305	148.31
821.483	82.77
821.661	107.35
821.839	90.96
822.017	80.72
822.195	88.92
822.373	125.78
822.551	121.68
822.729	123.73
822.907	117.59
823.085	179.03
823.262	101.2
823.44	109.4
823.618	88.92
823.796	78.68
823.974	60.24
824.152	97.11
824.329	80.72
824.507	105.3
824.685	133.97
824.863	93.01
825.04	146.26
825.218	88.92
825.396	82.77
825.574	154.45
825.751	119.64
825.929	148.31
826.107	50
826.284	142.16
826.462	105.3
826.639	117.59
826.817	80.72
826.994	76.63
827.172	39.76
827.349	133.97
827.527	64.34
827.704	97.11
827.882	62.29
828.059	60.24
828.237	-21.67
828.414	80.72
828.591	29.52
828.769	84.82
828.946	84.82
829.124	82.77
829.301	144.21
829.478	7
829.655	47.96
829.833	105.3
830.01	60.24
830.187	90.96
830.364	56.15
830.542	29.52
830.719	39.76
830.896	82.77
831.073	121.68
831.25	-1.19
831.427	7
831.604	33.62
831.782	72.53
831.959	82.77
832.136	101.2
832.313	82.77
832.49	64.34
832.667	133.97
832.844	33.62
833.021	35.67
833.198	131.92
833.374	115.54
833.551	105.3
833.728	86.87
833.905	39.76
834.082	-5.29
834.259	15.19
834.436	47.96
834.612	39.76
834.789	52.05
834.966	39.76
835.143	93.01
835.319	35.67
835.496	45.91
835.673	52.05
835.85	88.92
836.026	131.92
836.203	15.19
836.38	113.49
836.556	72.53
836.733	129.88
836.909	72.53
837.086	105.3
837.262	-15.53
837.439	-1.19
837.616	64.34
837.792	45.91
837.968	21.33
838.145	99.16
838.321	39.76
838.498	47.96
838.674	60.24
838.851	47.96
839.027	95.06
839.203	47.96
839.38	97.11
839.556	64.34
839.732	52.05
839.909	76.63
840.085	136.02
840.261	58.2
840.437	60.24
840.614	29.52
840.79	45.91
840.966	82.77
841.142	125.78
841.318	-13.48
841.494	68.44
841.671	101.2
841.847	39.76
842.023	60.24
842.199	39.76
842.375	27.48
842.551	41.81
842.727	13.14
842.903	82.77
843.079	11.09
843.255	72.53
843.431	-9.39
843.607	115.54
843.783	0.85
843.959	88.92
844.134	50
844.31	148.31
844.486	35.67
844.662	43.86
844.838	-13.48
845.013	138.07
845.189	54.1
845.365	23.38
845.541	33.62
845.716	99.16
845.892	80.72
846.068	39.76
846.244	17.24
846.419	56.15
846.595	-7.34
846.77	7
846.946	-5.29
847.122	33.62
847.297	-17.58
847.473	80.72
847.648	-15.53
847.824	68.44
847.999	-62.63
848.175	31.57
848.35	113.49
848.526	90.96
848.701	45.91
848.876	101.2
849.052	52.05
849.227	7
849.403	19.29
849.578	45.91
849.753	99.16
849.929	74.58
850.104	52.05
850.279	25.43
850.454	29.52
850.63	58.2
850.805	-5.29
850.98	0.85
851.155	-40.11
851.33	47.96
851.505	-17.58
851.681	54.1
851.856	64.34
852.031	47.96
852.206	-17.58
852.381	-46.25
852.556	-23.72
852.731	47.96
852.906	15.19
853.081	-83.11
853.256	97.11
853.431	27.48
853.606	23.38
853.781	11.09
853.956	-15.53
854.131	-1.19
854.305	29.52
854.48	33.62
854.655	-21.67
854.83	23.38
855.005	47.96
855.18	84.82
855.354	-46.25
855.529	-17.58
855.704	27.48
855.879	41.81
856.053	60.24
856.228	0.85
856.403	21.33
856.577	33.62
856.752	-21.67
856.926	80.72
857.101	-3.24
857.276	39.76
857.45	-25.77
857.625	-17.58
857.799	64.34
857.974	31.57
858.148	-31.91
858.323	-9.39
858.497	7
858.672	-33.96
858.846	-1.19
859.02	-29.87
859.195	-101.55
859.369	7
859.543	-31.91
859.718	-17.58
859.892	39.76
860.066	56.15
860.241	21.33
860.415	17.24
860.589	-27.82
860.763	-17.58
860.938	17.24
861.112	35.67
861.286	21.33
861.46	72.53
861.634	-31.91
861.808	-17.58
861.982	-9.39
862.157	-58.54
862.331	-29.87
862.505	43.86
862.679	-9.39
862.853	7
863.027	-33.96
863.201	33.62
863.375	45.91
863.549	70.48
863.722	-9.39
863.896	76.63
864.07	31.57
864.244	-31.91
864.418	25.43
864.592	41.81
864.766	15.19
864.939	2.9
865.113	35.67
865.287	25.43
865.461	15.19
865.634	-29.87
865.808	72.53
865.982	74.58
866.156	-11.43
866.329	33.62
866.503	-33.96
866.676	21.33
866.85	-19.63
867.024	45.91
867.197	-44.2
867.371	39.76
867.544	-17.58
867.718	31.57
867.891	39.76
868.065	-23.72
868.238	58.2
868.412	107.35
868.585	-19.63
868.759	31.57
868.932	47.96
869.105	0.85
869.279	-42.15
869.452	17.24
869.625	13.14
869.799	15.19
869.972	9.05
870.145	7
870.319	-15.53
870.492	47.96
870.665	-40.11
870.838	23.38
871.011	-31.91
871.185	-7.34
871.358	47.96
871.531	7
871.704	-25.77
871.877	-46.25
872.05	23.38
872.223	2.9
872.396	31.57
872.569	76.63
872.742	-66.73
872.915	-27.82
873.088	-9.39
873.261	17.24
873.434	56.15
873.607	-9.39
873.78	88.92
873.953	7
874.126	-25.77
874.299	-13.48
874.471	27.48
874.644	15.19
874.817	17.24
874.99	74.58
875.163	2.9
875.335	35.67
875.508	-33.96
875.681	-33.96
875.853	-17.58
876.026	-33.96
876.199	11.09
876.371	17.24
876.544	-21.67
876.717	13.14
876.889	64.34
877.062	23.38
877.234	2.9
877.407	31.57
877.579	-9.39
877.752	11.09
877.924	-23.72
878.097	68.44
878.269	21.33
878.442	-31.91
878.614	4.95
878.786	58.2
878.959	23.38
879.131	17.24
879.303	-42.15
879.476	43.86
879.648	11.09
879.82	17.24
879.993	0.85
880.165	-1.19
880.337	-58.54
880.509	-13.48
880.681	-29.87
880.854	-7.34
881.026	-44.2
881.198	0.85
881.37	23.38
881.542	17.24
881.714	15.19
881.886	11.09
882.058	43.86
882.23	-5.29
882.402	25.43
882.574	-9.39
882.746	-42.15
882.918	56.15
883.09	-17.58
883.262	-17.58
883.434	33.62
883.606	-40.11
883.778	47.96
883.95	70.48
884.122	-9.39
884.293	66.39
884.465	-46.25
884.637	82.77
884.809	-38.06
884.98	-33.96
885.152	-15.53
885.324	31.57
885.496	29.52
885.667	39.76
885.839	56.15
886.011	88.92
886.182	25.43
886.354	56.15
886.525	-31.91
886.697	66.39
886.869	0.85
887.04	60.24
887.212	-25.77
887.383	41.81
887.555	-29.87
887.726	37.72
887.897	11.09
888.069	31.57
888.24	-27.82
888.412	9.05
888.583	-5.29
888.754	-33.96
888.926	-33.96
889.097	-85.16
889.268	4.95
889.44	-7.34
889.611	-40.11
889.782	-5.29
889.953	21.33
890.125	72.53
890.296	31.57
890.467	60.24
890.638	35.67
890.809	-48.3
890.98	21.33
891.151	62.29
891.323	-25.77
891.494	-7.34
891.665	-36.01
891.836	0.85
892.007	0.85
892.178	23.38
892.349	2.9
892.52	17.24
892.691	-50.35
892.862	0.85
893.032	-15.53
893.203	-54.44
893.374	-56.49
893.545	129.88
893.716	-66.73
893.887	-25.77
894.057	-40.11
894.228	-9.39
894.399	15.19
894.57	23.38
894.74	19.29
894.911	41.81
895.082	-3.24
895.253	27.48
895.423	11.09
895.594	-23.72
895.764	33.62
895.935	4.95
896.106	-21.67
896.276	23.38
896.447	17.24
896.617	-66.73
896.788	9.05
896.958	-38.06
897.129	-31.91
897.299	-33.96
897.47	-1.19
897.64	-31.91
897.81	15.19
897.981	-66.73
898.151	-1.19
898.322	-5.29
898.492	4.95
898.662	-33.96
898.832	4.95
899.003	7
899.173	-25.77
899.343	-15.53
899.513	23.38
