Data from USB4F104151__246__14-22-30-544.txt Node

Date: Thu Mar 13 14:22:30 EDT 2025
User: louis
Spectrometer: USB4F10415
Trigger mode: 4
Integration Time (sec): 2.000000E-2
Scans to average: 1
Electric dark correction enabled: true
Nonlinearity correction enabled: false
Boxcar width: 0
XAxis mode: Wavelengths
Number of Pixels in Spectrum: 3648
>>>>>Begin Spectral Data<<<<<
178.204	-99.67
178.424	-99.67
178.644	-99.67
178.864	-54.61
179.084	-126.29
179.304	39.59
179.524	23.21
179.744	10.92
179.964	21.16
180.184	-1.37
180.404	-60.76
180.624	-17.75
180.844	-36.18
181.064	8.87
181.283	6.83
181.503	-1.37
181.723	6.83
181.943	-50.52
182.163	94.89
182.383	-23.89
182.602	88.75
182.822	8.87
183.042	-15.7
183.262	27.31
183.482	-42.32
183.701	0.68
183.921	-79.19
184.141	-89.43
184.361	39.59
184.58	-3.41
184.8	6.83
185.02	-15.7
185.239	101.03
185.459	12.97
185.679	109.22
185.898	-13.65
186.118	15.02
186.338	60.07
186.557	88.75
186.777	8.87
186.997	-71
187.216	31.4
187.436	23.21
187.655	66.22
187.875	23.21
188.095	-15.7
188.314	51.88
188.534	-3.41
188.753	41.64
188.973	68.27
189.192	19.11
189.412	-48.47
189.631	35.5
189.851	-13.65
190.07	31.4
190.29	-17.75
190.509	47.79
190.729	-15.7
190.948	-25.94
191.168	129.7
191.387	76.46
191.607	21.16
191.826	35.5
192.045	33.45
192.265	53.93
192.484	45.74
192.704	-32.08
192.923	-46.42
193.142	74.41
193.362	25.26
193.581	105.13
193.8	117.42
194.02	-42.32
194.239	-46.42
194.458	39.59
194.678	-11.61
194.897	31.4
195.116	39.59
195.335	84.65
195.555	86.7
195.774	23.21
195.993	64.17
196.212	15.02
196.432	2.73
196.651	10.92
196.87	0.68
197.089	133.8
197.308	23.21
197.528	39.59
197.747	-58.71
197.966	-25.94
198.185	-1.37
198.404	-58.71
198.623	-34.13
198.842	-32.08
199.062	-21.85
199.281	109.22
199.5	41.64
199.719	51.88
199.938	0.68
200.157	23.21
200.376	-15.7
200.595	19.11
200.814	92.84
201.033	-11.61
201.252	6.83
201.471	64.17
201.69	47.79
201.909	68.27
202.128	41.64
202.347	90.79
202.566	-21.85
202.785	-23.89
203.004	-19.8
203.223	66.22
203.442	68.27
203.661	-34.13
203.879	31.4
204.098	55.98
204.317	8.87
204.536	-15.7
204.755	-3.41
204.974	15.02
205.193	-30.04
205.411	96.94
205.63	-34.13
205.849	25.26
206.068	27.31
206.287	64.17
206.505	53.93
206.724	68.27
206.943	47.79
207.162	66.22
207.381	49.83
207.599	25.26
207.818	15.02
208.037	-93.52
208.255	10.92
208.474	47.79
208.693	31.4
208.911	-17.75
209.13	41.64
209.349	-46.42
209.567	-13.65
209.786	88.75
210.005	55.98
210.223	47.79
210.442	19.11
210.661	2.73
210.879	25.26
211.098	-34.13
211.316	21.16
211.535	49.83
211.753	-1.37
211.972	49.83
212.191	25.26
212.409	6.83
212.628	-17.75
212.846	-7.51
213.065	74.41
213.283	33.45
213.502	37.55
213.72	15.02
213.938	55.98
214.157	-19.8
214.375	35.5
214.594	-21.85
214.812	4.78
215.031	39.59
215.249	31.4
215.467	15.02
215.686	49.83
215.904	35.5
216.122	68.27
216.341	68.27
216.559	66.22
216.778	64.17
216.996	37.55
217.214	37.55
217.432	-15.7
217.651	-42.32
217.869	-17.75
218.087	47.79
218.306	-21.85
218.524	68.27
218.742	-13.65
218.96	82.6
219.179	80.55
219.397	47.79
219.615	64.17
219.833	41.64
220.051	58.03
220.27	45.74
220.488	27.31
220.706	68.27
220.924	15.02
221.142	-62.8
221.36	-11.61
221.578	-27.99
221.796	-54.61
222.015	31.4
222.233	15.02
222.451	0.68
222.669	51.88
222.887	84.65
223.105	-25.94
223.323	-1.37
223.541	4.78
223.759	64.17
223.977	-40.28
224.195	-13.65
224.413	125.61
224.631	70.31
224.849	139.94
225.067	154.28
225.285	-13.65
225.503	-30.04
225.721	8.87
225.939	-34.13
226.157	-32.08
226.375	58.03
226.592	-1.37
226.81	64.17
227.028	-9.56
227.246	-7.51
227.464	39.59
227.682	31.4
227.9	-17.75
228.117	10.92
228.335	-17.75
228.553	31.4
228.771	31.4
228.989	84.65
229.206	51.88
229.424	31.4
229.642	0.68
229.86	0.68
230.077	76.46
230.295	19.11
230.513	39.59
230.731	64.17
230.948	-42.32
231.166	76.46
231.384	62.12
231.601	-25.94
231.819	-19.8
232.037	25.26
232.254	-9.56
232.472	90.79
232.689	-17.75
232.907	84.65
233.125	15.02
233.342	64.17
233.56	66.22
233.777	-7.51
233.995	2.73
234.213	0.68
234.43	-30.04
234.648	-13.65
234.865	19.11
235.083	53.93
235.3	-21.85
235.518	-27.99
235.735	101.03
235.953	10.92
236.17	66.22
236.388	15.02
236.605	-19.8
236.822	35.5
237.04	21.16
237.257	-1.37
237.475	8.87
237.692	31.4
237.909	80.55
238.127	19.11
238.344	25.26
238.562	37.55
238.779	31.4
238.996	15.02
239.214	-73.04
239.431	-1.37
239.648	-58.71
239.865	55.98
240.083	64.17
240.3	80.55
240.517	-36.18
240.735	-5.46
240.952	72.36
241.169	70.31
241.386	107.18
241.603	62.12
241.821	-54.61
242.038	8.87
242.255	15.02
242.472	10.92
242.689	25.26
242.907	39.59
243.124	41.64
243.341	47.79
243.558	-42.32
243.775	17.07
243.992	-101.72
244.209	58.03
244.426	55.98
244.643	37.55
244.86	-40.28
245.078	4.78
245.295	10.92
245.512	66.22
245.729	-44.37
245.946	-9.56
246.163	35.5
246.38	31.4
246.597	35.5
246.814	39.59
247.031	6.83
247.248	-15.7
247.464	-13.65
247.681	-17.75
247.898	37.55
248.115	8.87
248.332	53.93
248.549	23.21
248.766	49.83
248.983	96.94
249.2	-27.99
249.417	49.83
249.633	23.21
249.85	-17.75
250.067	103.08
250.284	33.45
250.501	90.79
250.717	51.88
250.934	31.4
251.151	-1.37
251.368	53.93
251.585	6.83
251.801	-9.56
252.018	-38.23
252.235	47.79
252.451	-30.04
252.668	-7.51
252.885	49.83
253.102	41.64
253.318	31.4
253.535	-52.56
253.752	37.55
253.968	39.59
254.185	15.02
254.401	-11.61
254.618	72.36
254.835	-44.37
255.051	80.55
255.268	64.17
255.484	96.94
255.701	-21.85
255.917	55.98
256.134	-21.85
256.351	58.03
256.567	4.78
256.784	-34.13
257	-19.8
257.217	68.27
257.433	51.88
257.65	-25.94
257.866	68.27
258.082	72.36
258.299	45.74
258.515	8.87
258.732	-7.51
258.948	-1.37
259.165	-19.8
259.381	-42.32
259.597	-27.99
259.814	-17.75
260.03	29.35
260.246	-23.89
260.463	107.18
260.679	27.31
260.895	10.92
261.112	31.4
261.328	-1.37
261.544	23.21
261.761	111.27
261.977	33.45
262.193	-30.04
262.409	-27.99
262.626	37.55
262.842	49.83
263.058	35.5
263.274	109.22
263.49	105.13
263.707	27.31
263.923	78.51
264.139	-1.37
264.355	39.59
264.571	37.55
264.787	6.83
265.004	58.03
265.22	-19.8
265.436	-9.56
265.652	66.22
265.868	-91.48
266.084	-1.37
266.3	-58.71
266.516	35.5
266.732	121.51
266.948	-1.37
267.164	19.11
267.38	33.45
267.596	76.46
267.812	-9.56
268.028	55.98
268.244	88.75
268.46	68.27
268.676	41.64
268.892	62.12
269.108	88.75
269.324	6.83
269.54	15.02
269.756	10.92
269.972	25.26
270.188	-11.61
270.403	31.4
270.619	-9.56
270.835	49.83
271.051	-19.8
271.267	78.51
271.483	39.59
271.698	64.17
271.914	80.55
272.13	-23.89
272.346	-3.41
272.562	47.79
272.777	53.93
272.993	6.83
273.209	47.79
273.425	49.83
273.64	-66.9
273.856	80.55
274.072	39.59
274.287	31.4
274.503	-19.8
274.719	47.79
274.934	-42.32
275.15	27.31
275.366	19.11
275.581	27.31
275.797	39.59
276.012	31.4
276.228	15.02
276.444	15.02
276.659	39.59
276.875	-27.99
277.09	68.27
277.306	-23.89
277.521	23.21
277.737	15.02
277.952	6.83
278.168	-30.04
278.383	66.22
278.599	-1.37
278.814	-13.65
279.03	23.21
279.245	51.88
279.461	29.35
279.676	43.69
279.892	-38.23
280.107	-1.37
280.322	-19.8
280.538	70.31
280.753	-7.51
280.969	-25.94
281.184	70.31
281.399	66.22
281.615	-42.32
281.83	72.36
282.045	10.92
282.26	39.59
282.476	-25.94
282.691	-30.04
282.906	6.83
283.122	-1.37
283.337	-15.7
283.552	80.55
283.767	-9.56
283.983	4.78
284.198	88.75
284.413	27.31
284.628	23.21
284.843	17.07
285.058	-9.56
285.274	-5.46
285.489	39.59
285.704	31.4
285.919	-7.51
286.134	68.27
286.349	35.5
286.564	-7.51
286.779	31.4
286.995	-42.32
287.21	2.73
287.425	-17.75
287.64	21.16
287.855	76.46
288.07	-54.61
288.285	25.26
288.5	-9.56
288.715	-7.51
288.93	-11.61
289.145	-13.65
289.36	62.12
289.575	-5.46
289.79	58.03
290.004	12.97
290.219	-9.56
290.434	6.83
290.649	41.64
290.864	-21.85
291.079	64.17
291.294	-25.94
291.509	23.21
291.724	-1.37
291.938	-13.65
292.153	19.11
292.368	-1.37
292.583	111.27
292.798	41.64
293.012	55.98
293.227	49.83
293.442	41.64
293.657	-7.51
293.871	66.22
294.086	-75.09
294.301	62.12
294.516	55.98
294.73	45.74
294.945	10.92
295.16	45.74
295.374	35.5
295.589	31.4
295.804	-46.42
296.018	39.59
296.233	2.73
296.447	12.97
296.662	58.03
296.877	109.22
297.091	-34.13
297.306	84.65
297.52	0.68
297.735	53.93
297.949	23.21
298.164	33.45
298.378	12.97
298.593	23.21
298.807	15.02
299.022	33.45
299.236	19.11
299.451	-7.51
299.665	62.12
299.88	31.4
300.094	33.45
300.309	55.98
300.523	82.6
300.737	94.89
300.952	-13.65
301.166	70.31
301.381	-64.85
301.595	-30.04
301.809	23.21
302.024	-23.89
302.238	58.03
302.452	43.69
302.667	25.26
302.881	19.11
303.095	68.27
303.309	55.98
303.524	72.36
303.738	51.88
303.952	15.02
304.166	35.5
304.381	-17.75
304.595	137.9
304.809	-21.85
305.023	-52.56
305.237	-11.61
305.452	12.97
305.666	74.41
305.88	33.45
306.094	17.07
306.308	62.12
306.522	45.74
306.736	39.59
306.95	60.07
307.164	62.12
307.379	15.02
307.593	-9.56
307.807	62.12
308.021	-9.56
308.235	6.83
308.449	25.26
308.663	23.21
308.877	115.37
309.091	25.26
309.305	-9.56
309.519	4.78
309.733	0.68
309.947	-1.37
310.161	-15.7
310.374	49.83
310.588	80.55
310.802	-36.18
311.016	25.26
311.23	68.27
311.444	8.87
311.658	27.31
311.872	37.55
312.085	72.36
312.299	43.69
312.513	60.07
312.727	-19.8
312.941	-23.89
313.154	84.65
313.368	15.02
313.582	31.4
313.796	-1.37
314.009	31.4
314.223	-7.51
314.437	27.31
314.651	58.03
314.864	-42.32
315.078	15.02
315.292	15.02
315.505	-9.56
315.719	47.79
315.933	31.4
316.146	123.56
316.36	-54.61
316.573	49.83
316.787	47.79
317.001	41.64
317.214	6.83
317.428	-17.75
317.641	-9.56
317.855	25.26
318.068	-7.51
318.282	31.4
318.495	15.02
318.709	51.88
318.922	6.83
319.136	51.88
319.349	94.89
319.563	23.21
319.776	55.98
319.99	25.26
320.203	10.92
320.417	80.55
320.63	23.21
320.843	74.41
321.057	51.88
321.27	-25.94
321.483	-5.46
321.697	-5.46
321.91	47.79
322.124	-19.8
322.337	-21.85
322.55	-54.61
322.763	66.22
322.977	-50.52
323.19	15.02
323.403	23.21
323.617	70.31
323.83	-1.37
324.043	39.59
324.256	21.16
324.469	43.69
324.683	12.97
324.896	19.11
325.109	41.64
325.322	23.21
325.535	88.75
325.748	109.22
325.962	39.59
326.175	64.17
326.388	43.69
326.601	68.27
326.814	-38.23
327.027	-7.51
327.24	127.66
327.453	6.83
327.666	-42.32
327.879	31.4
328.092	31.4
328.305	12.97
328.518	6.83
328.731	31.4
328.944	-17.75
329.157	37.55
329.37	111.27
329.583	35.5
329.796	88.75
330.009	-17.75
330.222	6.83
330.435	35.5
330.648	2.73
330.861	-7.51
331.073	-7.51
331.286	19.11
331.499	23.21
331.712	-46.42
331.925	60.07
332.138	64.17
332.35	47.79
332.563	31.4
332.776	41.64
332.989	51.88
333.202	6.83
333.414	-52.56
333.627	-9.56
333.84	64.17
334.053	121.51
334.265	-42.32
334.478	8.87
334.691	82.6
334.903	8.87
335.116	-25.94
335.329	-56.66
335.541	55.98
335.754	111.27
335.966	21.16
336.179	-1.37
336.392	39.59
336.604	6.83
336.817	29.35
337.029	88.75
337.242	-23.89
337.454	35.5
337.667	-7.51
337.88	27.31
338.092	-17.75
338.305	-58.71
338.517	72.36
338.729	72.36
338.942	80.55
339.154	-1.37
339.367	27.31
339.579	39.59
339.792	43.69
340.004	-23.89
340.217	6.83
340.429	19.11
340.641	-71
340.854	51.88
341.066	-36.18
341.278	47.79
341.491	88.75
341.703	23.21
341.915	8.87
342.128	62.12
342.34	47.79
342.552	70.31
342.764	31.4
342.977	70.31
343.189	33.45
343.401	64.17
343.613	15.02
343.826	33.45
344.038	23.21
344.25	105.13
344.462	6.83
344.674	45.74
344.886	-9.56
345.099	41.64
345.311	6.83
345.523	80.55
345.735	-40.28
345.947	6.83
346.159	15.02
346.371	64.17
346.583	23.21
346.795	68.27
347.007	25.26
347.219	109.22
347.431	25.26
347.643	70.31
347.855	-11.61
348.067	86.7
348.279	-13.65
348.491	70.31
348.703	58.03
348.915	-15.7
349.127	25.26
349.339	82.6
349.551	47.79
349.763	15.02
349.975	0.68
350.187	0.68
350.399	96.94
350.61	47.79
350.822	-32.08
351.034	23.21
351.246	-42.32
351.458	109.22
351.669	64.17
351.881	37.55
352.093	2.73
352.305	35.5
352.517	47.79
352.728	74.41
352.94	47.79
353.152	55.98
353.363	39.59
353.575	33.45
353.787	21.16
353.999	31.4
354.21	68.27
354.422	25.26
354.633	-30.04
354.845	6.83
355.057	43.69
355.268	47.79
355.48	12.97
355.692	31.4
355.903	0.68
356.115	19.11
356.326	33.45
356.538	49.83
356.749	66.22
356.961	58.03
357.172	-32.08
357.384	0.68
357.595	137.9
357.807	4.78
358.018	17.07
358.23	27.31
358.441	101.03
358.653	-25.94
358.864	84.65
359.075	39.59
359.287	72.36
359.498	37.55
359.709	58.03
359.921	25.26
360.132	43.69
360.344	-1.37
360.555	-48.47
360.766	66.22
360.977	10.92
361.189	96.94
361.4	-32.08
361.611	74.41
361.823	121.51
362.034	-46.42
362.245	-17.75
362.456	23.21
362.667	74.41
362.879	-9.56
363.09	39.59
363.301	27.31
363.512	-17.75
363.723	-34.13
363.935	-5.46
364.146	15.02
364.357	0.68
364.568	-11.61
364.779	35.5
364.99	82.6
365.201	-7.51
365.412	49.83
365.623	19.11
365.834	101.03
366.045	70.31
366.256	72.36
366.467	19.11
366.678	-7.51
366.889	90.79
367.1	15.02
367.311	101.03
367.522	25.26
367.733	19.11
367.944	58.03
368.155	78.51
368.366	-42.32
368.577	64.17
368.788	78.51
368.999	12.97
369.209	-1.37
369.42	101.03
369.631	133.8
369.842	-36.18
370.053	94.89
370.264	55.98
370.474	31.4
370.685	12.97
370.896	19.11
371.107	2.73
371.317	-9.56
371.528	-17.75
371.739	86.7
371.95	64.17
372.16	25.26
372.371	47.79
372.582	8.87
372.792	19.11
373.003	23.21
373.214	6.83
373.424	80.55
373.635	25.26
373.846	49.83
374.056	37.55
374.267	-42.32
374.477	72.36
374.688	25.26
374.898	33.45
375.109	47.79
375.319	12.97
375.53	58.03
375.74	66.22
375.951	33.45
376.161	74.41
376.372	17.07
376.582	31.4
376.793	-32.08
377.003	74.41
377.214	2.73
377.424	31.4
377.635	41.64
377.845	58.03
378.055	113.32
378.266	8.87
378.476	-32.08
378.686	98.99
378.897	96.94
379.107	60.07
379.317	-5.46
379.528	25.26
379.738	129.7
379.948	15.02
380.158	80.55
380.369	47.79
380.579	-5.46
380.789	25.26
380.999	92.84
381.21	92.84
381.42	25.26
381.63	-5.46
381.84	60.07
382.05	55.98
382.261	10.92
382.471	31.4
382.681	6.83
382.891	47.79
383.101	113.32
383.311	17.07
383.521	64.17
383.731	90.79
383.941	35.5
384.151	31.4
384.361	-34.13
384.571	0.68
384.781	84.65
384.991	115.37
385.201	86.7
385.411	15.02
385.621	31.4
385.831	29.35
386.041	37.55
386.251	21.16
386.461	49.83
386.671	19.11
386.881	-42.32
387.091	0.68
387.301	103.08
387.511	15.02
387.72	8.87
387.93	49.83
388.14	55.98
388.35	31.4
388.56	82.6
388.769	92.84
388.979	70.31
389.189	53.93
389.399	49.83
389.609	19.11
389.818	-9.56
390.028	43.69
390.238	51.88
390.447	98.99
390.657	80.55
390.867	-1.37
391.076	31.4
391.286	55.98
391.496	31.4
391.705	47.79
391.915	55.98
392.125	51.88
392.334	6.83
392.544	113.32
392.753	43.69
392.963	12.97
393.172	6.83
393.382	-17.75
393.591	76.46
393.801	45.74
394.01	43.69
394.22	-9.56
394.429	21.16
394.639	98.99
394.848	98.99
395.058	49.83
395.267	96.94
395.477	15.02
395.686	31.4
395.895	80.55
396.105	74.41
396.314	39.59
396.524	92.84
396.733	43.69
396.942	55.98
397.152	68.27
397.361	-23.89
397.57	39.59
397.78	74.41
397.989	55.98
398.198	101.03
398.407	115.37
398.617	45.74
398.826	82.6
399.035	80.55
399.244	113.32
399.453	-9.56
399.663	74.41
399.872	64.17
400.081	6.83
400.29	96.94
400.499	47.79
400.708	109.22
400.917	96.94
401.127	0.68
401.336	74.41
401.545	74.41
401.754	72.36
401.963	115.37
402.172	80.55
402.381	60.07
402.59	62.12
402.799	90.79
403.008	103.08
403.217	88.75
403.426	139.94
403.635	60.07
403.844	78.51
404.053	68.27
404.262	135.85
404.471	113.32
404.68	103.08
404.888	72.36
405.097	113.32
405.306	74.41
405.515	49.83
405.724	170.66
405.933	117.42
406.142	205.48
406.35	205.48
406.559	146.09
406.768	76.46
406.977	170.66
407.185	158.38
407.394	123.56
407.603	105.13
407.812	121.51
408.02	178.86
408.229	109.22
408.438	60.07
408.646	148.14
408.855	150.18
409.064	187.05
409.272	221.86
409.481	246.44
409.69	141.99
409.898	166.57
410.107	236.2
410.315	168.62
410.524	221.86
410.733	219.82
410.941	158.38
411.15	219.82
411.358	248.49
411.567	248.49
411.775	326.31
411.984	232.1
412.192	293.54
412.401	252.58
412.609	283.3
412.818	289.45
413.026	338.6
413.234	344.74
413.443	262.82
413.651	375.46
413.86	359.08
414.068	402.08
414.276	434.85
414.485	408.23
414.693	426.66
414.901	555.68
415.11	484
415.318	457.38
415.526	555.68
415.734	535.2
415.943	481.96
416.151	555.68
416.359	586.4
416.567	516.77
416.776	653.98
416.984	625.31
417.192	666.27
417.4	647.84
417.608	674.46
417.817	719.52
418.025	688.8
418.233	780.96
418.441	744.1
418.649	832.16
418.857	858.78
419.065	817.82
419.273	852.64
419.481	875.17
419.689	944.8
419.897	893.6
420.105	930.46
420.313	1108.63
420.521	1051.29
420.729	1071.77
420.937	1084.06
421.145	1075.87
421.353	1249.94
421.561	1249.94
421.769	1221.27
421.977	1276.57
422.185	1237.66
422.393	1342.1
422.601	1620.63
422.809	1491.6
423.017	1563.28
423.224	1620.63
423.432	1536.66
423.64	1589.91
423.848	1718.93
424.056	1657.49
424.263	1809.04
424.471	1784.46
424.679	1815.18
424.887	1888.91
425.094	2157.19
425.302	1997.45
425.51	1993.36
425.718	2030.22
425.925	2132.62
426.133	2251.4
426.341	2325.13
426.548	2386.57
426.756	2466.44
426.964	2595.46
427.171	2646.66
427.379	2663.04
427.586	2759.3
427.794	2867.84
428.001	2900.61
428.209	3111.55
428.417	3162.75
428.624	3318.39
428.832	3236.47
429.039	3170.94
429.247	3283.58
429.454	3523.19
429.662	3773.04
429.869	3498.61
430.076	3844.72
430.284	3789.42
430.491	3746.42
430.699	4029.04
430.906	4012.65
431.114	4098.67
431.321	4258.41
431.528	4225.64
431.736	4479.59
431.943	4835.94
432.15	4733.54
432.358	4692.58
432.565	4885.09
432.772	4868.7
432.979	5276.25
433.187	5309.02
433.394	5268.06
433.601	5620.31
433.808	5718.61
434.016	5763.67
434.223	5749.33
434.43	6294.09
434.637	6101.58
434.844	6560.33
435.052	6750.79
435.259	6718.02
435.466	6687.3
435.673	6644.29
435.88	7119.42
436.087	7449.14
436.294	7250.49
436.501	7246.4
436.708	7258.68
436.915	7682.61
437.122	8026.67
437.329	8116.78
437.537	8163.89
437.743	8358.44
437.95	8192.56
438.157	8632.87
438.364	9003.55
438.571	8866.34
438.778	9060.9
438.985	9689.62
439.192	9447.96
439.399	9505.31
439.606	9316.89
439.813	10000.91
440.02	10430.99
440.227	10424.84
440.433	10295.82
440.64	10519.05
440.847	10512.91
441.054	10865.16
441.261	11540.99
441.467	11428.35
441.674	11751.93
441.881	12151.28
442.088	11899.38
442.294	12173.81
442.501	12304.88
442.708	12403.18
442.914	12843.49
443.121	13605.34
443.328	13115.87
443.534	14334.42
443.741	13765.08
443.948	13310.43
444.154	14545.36
444.361	14313.94
444.568	14371.28
444.774	14590.41
444.981	14594.51
445.187	14983.62
445.394	15598.01
445.6	15616.44
445.807	16966.06
446.013	16107.96
446.22	16703.92
446.426	17125.8
446.633	17154.47
446.839	17861.02
447.046	16984.49
447.252	18270.61
447.459	18231.7
447.665	18137.49
447.871	18774.41
448.078	19644.8
448.284	18432.4
448.491	19423.62
448.697	20083.06
448.903	20113.78
449.11	20404.6
449.316	20406.64
449.522	20517.23
449.728	21174.63
449.935	21047.66
450.141	21158.25
450.347	21555.55
450.553	21027.18
450.76	21307.75
450.966	21952.86
451.172	21451.11
451.378	22200.66
451.584	21635.42
451.791	22231.38
451.997	22180.18
452.203	22604.11
452.409	22671.7
452.615	22655.31
452.821	21588.32
453.027	21485.92
453.233	22686.03
453.44	21627.23
453.646	21987.68
453.852	21965.15
454.058	22546.77
454.264	21428.58
454.47	22128.98
454.676	21586.27
454.882	22167.9
455.088	20341.11
455.294	20521.33
455.5	20996.46
455.705	21320.04
455.911	20496.75
456.117	20218.23
456.323	19796.35
456.529	18700.69
456.735	19716.48
456.941	19120.52
457.147	18817.42
457.352	17852.83
457.558	17957.27
457.764	18168.21
457.97	17619.36
458.176	17365.41
458.381	17451.42
458.587	16511.41
458.793	16550.32
458.999	15489.47
459.204	16718.25
459.41	16341.43
459.616	15149.51
459.821	15264.19
460.027	15233.47
460.233	15079.88
460.438	14451.15
460.644	14313.94
460.85	13681.11
461.055	13597.15
461.261	13425.12
461.466	12347.89
461.672	11897.33
461.878	12843.49
462.083	12073.46
462.289	11909.62
462.494	11901.43
462.7	11293.18
462.905	10969.6
463.111	11205.12
463.316	11198.98
463.522	11186.69
463.727	11182.59
463.932	11166.21
464.138	10977.8
464.343	10850.82
464.549	10783.24
464.754	10938.88
464.959	11186.69
465.165	11141.63
465.37	10363.4
465.575	10164.75
465.781	10574.35
465.986	10566.15
466.191	10070.55
466.397	10005.01
466.602	9454.11
466.807	10095.12
467.012	10086.93
467.218	9746.97
467.423	9849.36
467.628	9779.73
467.833	10240.53
468.038	9646.62
468.244	9361.95
468.449	9925.14
468.654	9800.21
468.859	9454.11
469.064	9611.8
469.269	9177.63
469.474	9253.41
469.679	9464.35
469.885	9058.85
470.09	9177.63
470.295	9069.09
470.5	9034.27
470.705	9085.47
470.91	8673.83
471.115	8536.62
471.32	8845.86
471.525	8710.69
471.73	8520.23
471.935	8561.19
472.139	8243.76
472.344	8374.83
472.549	8350.25
472.754	8096.3
472.959	8053.3
473.164	7946.8
473.369	7850.55
473.574	8028.72
473.778	7936.56
473.983	8022.58
474.188	8118.83
474.393	7453.24
474.598	7572.02
474.802	7467.58
475.007	7348.79
475.212	7418.43
475.417	7199.29
475.621	7125.57
475.826	7236.16
476.031	7152.19
476.235	6752.84
476.44	6978.11
476.645	6867.52
476.849	6984.26
477.054	6709.83
477.259	6726.21
477.463	6707.78
477.668	6478.41
477.872	6560.33
478.077	6562.37
478.282	6337.1
478.486	6265.42
478.691	6347.34
478.895	6464.07
479.1	6146.64
479.304	6318.67
479.509	6107.73
479.713	6275.66
479.918	6177.36
480.122	5872.21
480.326	5923.41
480.531	5792.34
480.735	5974.61
480.94	5712.47
481.144	6023.76
481.348	5728.85
481.553	5943.89
481.757	5857.87
481.961	6011.47
482.166	5896.78
482.37	5782.1
482.574	5716.56
482.778	5866.07
482.983	5786.19
483.187	5737.04
483.391	5603.93
483.595	5767.76
483.8	5786.19
484.004	5720.66
484.208	5976.66
484.412	5923.41
484.616	5712.47
484.821	5896.78
485.025	5708.37
485.229	5902.93
485.433	5735
485.637	5843.54
485.841	5798.48
486.045	5759.57
486.249	5675.6
486.453	5587.54
486.657	5782.1
486.861	5741.14
487.065	5739.09
487.269	5601.88
487.473	5685.84
487.677	5855.83
487.881	5757.52
488.085	5806.67
488.289	5704.28
488.493	5847.63
488.697	5702.23
488.901	5687.89
489.105	5792.34
489.309	5868.11
489.512	5921.36
489.716	5761.62
489.92	5761.62
490.124	5874.26
490.328	5970.51
490.531	5814.87
490.735	6087.25
490.939	6034
491.143	5800.53
491.346	5718.61
491.55	6093.39
491.754	5831.25
491.958	6107.73
492.161	6007.37
492.365	6136.4
492.569	6025.81
492.772	6027.85
492.976	6179.4
493.18	6167.12
493.383	6214.22
493.587	6212.17
493.79	6427.21
493.994	6322.76
494.197	6502.98
494.401	6398.54
494.605	6396.49
494.808	6613.57
495.012	6388.3
495.215	6568.52
495.419	6699.59
495.622	6478.41
495.825	6715.97
496.029	6707.78
496.232	7010.88
496.436	6781.51
496.639	6920.77
496.843	7049.79
497.046	7086.65
497.249	7144
497.453	7115.33
497.656	7076.41
497.859	7092.8
498.063	7342.65
498.266	7473.72
498.469	7547.45
498.673	7596.6
498.876	7733.81
499.079	7617.08
499.282	7670.33
499.485	7862.83
499.689	7926.32
499.892	8213.04
500.095	8059.44
500.298	8254
500.501	8249.9
500.705	8528.42
500.908	8546.86
501.111	8395.31
501.314	8673.83
501.517	8663.59
501.72	8917.54
501.923	8815.14
502.126	9038.37
502.329	9169.44
502.532	9021.99
502.735	9357.85
502.938	9400.86
503.141	9550.36
503.344	9832.98
503.547	9538.07
503.75	9640.47
503.953	9845.27
504.156	9921.04
504.359	10148.37
504.562	10144.27
504.765	10258.96
504.968	10547.72
505.17	10773
505.373	10727.94
505.576	10793.48
505.779	11000.32
505.982	10797.57
506.185	10985.99
506.387	11115.01
506.59	11180.54
506.793	11379.2
506.996	11385.34
507.198	12055.03
507.401	11717.11
507.604	12020.21
507.807	12145.14
508.009	12231.15
508.212	12284.4
508.415	12325.36
508.617	12564.97
508.82	12777.96
509.022	12659.18
509.225	12921.32
509.428	13109.73
509.63	13148.64
509.833	13150.69
510.035	13525.47
510.238	13275.62
510.44	13781.46
510.643	13918.68
510.845	13765.08
511.048	13896.15
511.25	14322.13
511.453	14238.16
511.655	14625.23
511.858	14500.3
512.06	14621.13
512.262	14891.46
512.465	14784.97
512.667	15104.45
512.87	15366.59
513.072	15180.23
513.274	15710.65
513.477	15794.62
513.679	15692.22
513.881	15931.83
514.084	16308.66
514.286	16409.01
514.488	16347.57
514.69	16826.79
514.893	16773.55
515.095	16863.66
515.297	16890.28
515.499	17195.43
515.701	17430.94
515.904	17525.15
516.106	17885.59
516.308	17807.77
516.51	18004.38
516.712	18172.31
516.914	18035.1
517.116	18397.59
517.318	18651.53
517.52	18680.21
517.722	18758.03
517.925	19085.7
518.127	19245.44
518.329	19349.89
518.531	19118.47
518.733	19732.86
518.935	19786.11
519.136	19638.65
519.338	20128.12
519.54	20056.44
519.742	20588.91
519.944	20359.54
520.146	20562.29
520.348	21176.68
520.55	21123.43
520.752	21137.77
520.954	21475.68
521.155	21207.4
521.357	21549.41
521.559	21750.11
521.761	22012.25
521.963	21985.63
522.164	22292.82
522.366	22309.21
522.568	22653.26
522.77	22704.46
522.971	23021.9
523.173	22976.84
523.375	23202.12
523.576	23034.19
523.778	23105.87
523.98	23589.19
524.181	23640.39
524.383	23642.43
524.584	24009.02
524.786	23976.25
524.988	23984.44
525.189	23968.06
525.391	24512.82
525.592	24541.49
525.794	24574.26
525.995	24887.6
526.197	24703.28
526.398	24981.81
526.6	25174.31
526.801	25176.36
527.003	25194.79
527.204	25143.59
527.406	25276.71
527.607	25411.88
527.808	25409.83
528.01	25045.29
528.211	25491.75
528.412	26376.47
528.614	26005.79
528.815	26110.24
529.016	26112.28
529.218	25864.48
529.419	26085.66
529.62	26339.61
529.822	26296.6
530.023	26304.79
530.224	26226.97
530.425	26157.34
530.626	26175.77
530.828	26085.66
531.029	26771.73
531.23	26069.28
531.431	26458.39
531.632	26415.38
531.833	26376.47
532.035	26702.1
532.236	26446.1
532.437	26738.96
532.638	26429.72
532.839	26503.45
533.04	26771.73
533.241	26741.01
533.442	26976.53
533.643	26712.34
533.844	26994.96
534.045	26923.28
534.246	26577.17
534.447	27017.49
534.648	27064.59
534.849	26820.88
535.05	26757.39
535.251	26839.31
535.451	26931.47
535.652	26786.07
535.853	27093.26
536.054	26956.05
536.255	26839.31
536.456	26761.49
536.657	27113.74
536.857	26585.36
537.058	26765.59
537.259	27003.15
537.46	26872.08
537.66	26724.63
537.861	26988.81
538.062	26525.97
538.263	26710.29
538.463	26530.07
538.664	26509.59
538.865	26722.58
539.065	26716.43
539.266	26353.94
539.466	27062.54
539.667	26681.62
539.868	26767.63
540.068	26730.77
540.269	26691.86
540.469	26966.29
540.67	26630.42
540.87	26550.55
541.071	26681.62
541.271	26960.14
541.472	26759.44
541.672	26579.22
541.873	26683.67
542.073	26095.9
542.274	26978.57
542.474	26198.3
542.675	26460.44
542.875	26861.84
543.075	26235.16
543.276	26601.75
543.476	26333.46
543.676	26409.24
543.877	26970.38
544.077	26536.21
544.277	26466.58
544.478	26622.23
544.678	26640.66
544.878	26378.52
545.078	26206.49
545.279	26351.9
545.479	26433.82
545.679	26411.29
545.879	26179.87
546.079	26587.41
546.28	26446.1
546.48	26376.47
546.68	26388.76
546.88	26390.81
547.08	26382.62
547.28	26378.52
547.48	26075.42
547.68	26528.02
547.88	26345.75
548.081	26372.38
548.281	26593.56
548.481	26298.65
548.681	26382.62
548.881	26349.85
549.081	26157.34
549.28	26306.84
549.48	26368.28
549.68	26061.08
549.88	26394.9
550.08	26409.24
550.28	26231.07
550.48	26384.66
550.68	26306.84
550.88	26433.82
551.08	26163.48
551.279	26452.25
551.479	25891.1
551.679	26147.1
551.879	26155.29
552.079	26462.49
552.278	26243.35
552.478	26284.31
552.678	26267.93
552.878	26384.66
553.077	26126.62
553.277	26122.52
553.477	26167.58
553.676	26085.66
553.876	25979.17
554.076	26069.28
554.275	26056.99
554.475	26016.03
554.674	25952.54
554.874	25942.3
555.074	25915.68
555.273	26247.45
555.473	25970.97
555.672	25880.86
555.872	25762.08
556.071	26120.48
556.271	25993.5
556.47	25487.65
556.67	25571.62
556.869	25706.79
557.068	26069.28
557.268	25655.59
557.467	25655.59
557.667	25719.07
557.866	25653.54
558.065	25827.62
558.265	25721.12
558.464	25444.65
558.663	25848.1
558.863	25229.61
559.062	25979.17
559.261	25153.83
559.461	25983.26
559.66	24867.12
559.859	25219.37
560.058	25231.66
560.258	25010.48
560.457	25239.85
560.656	25438.5
560.855	24789.3
561.054	25248.04
561.253	24858.93
561.453	24889.65
561.652	25182.51
561.851	25024.81
562.05	25082.16
562.249	24815.92
562.448	24973.61
562.647	24797.49
562.846	25194.79
563.045	24633.65
563.244	24647.99
563.443	24588.6
563.642	24420.66
563.841	24793.39
564.04	24690.99
564.239	24457.53
564.438	24676.66
564.637	24424.76
564.836	24551.73
565.035	24205.63
565.234	24303.93
565.432	24318.26
565.631	24336.7
565.83	24189.24
566.029	23986.49
566.228	24002.88
566.427	23824.7
566.625	24148.28
566.824	23517.51
567.023	24090.94
567.222	23433.54
567.42	23996.73
567.619	23560.52
567.818	23601.47
568.016	23767.36
568.215	23769.41
568.414	23398.73
568.612	23554.37
568.811	23564.61
569.01	23656.77
569.208	22931.79
569.407	23181.64
569.605	23052.62
569.804	23056.71
570.002	23109.96
570.201	23259.46
570.4	22921.55
570.598	22677.84
570.797	22780.24
570.995	22761.81
571.193	22462.8
571.392	22903.12
571.59	22665.55
571.789	22694.22
571.987	22442.32
572.186	22544.72
572.384	22106.46
572.582	22554.96
572.781	22473.04
572.979	22081.88
573.177	22468.95
573.376	22049.11
573.574	22030.68
573.772	22378.84
573.971	21946.72
574.169	21741.92
574.367	21647.71
574.565	22174.04
574.763	21993.82
574.962	21793.12
575.16	21432.68
575.358	21811.55
575.556	21705.06
575.754	21825.89
575.952	21440.87
576.151	21719.39
576.349	21498.21
576.547	21432.68
576.745	21328.23
576.943	21481.83
577.141	20937.07
577.339	21027.18
577.537	21176.68
577.735	21025.13
577.933	20855.15
578.131	21287.27
578.329	20953.45
578.527	20832.62
578.725	20840.81
578.923	20715.89
579.121	20664.69
579.319	20617.58
579.516	20756.85
579.714	20318.58
579.912	20398.45
580.11	20470.13
580.308	20304.24
580.506	20357.49
580.704	20109.69
580.901	20377.97
581.099	20308.34
581.297	19825.02
581.495	20031.86
581.692	19902.84
581.89	19878.27
582.088	19962.23
582.285	19794.3
582.483	19859.84
582.681	19839.36
582.878	19675.52
583.076	19448.19
583.274	19802.49
583.471	19499.39
583.669	19503.49
583.866	19364.23
584.064	19587.46
584.262	19480.96
584.459	19335.56
584.657	19065.22
584.854	19323.27
585.052	19007.88
585.249	19210.63
585.447	19085.7
585.644	18940.3
585.841	18661.77
586.039	19063.18
586.236	18743.69
586.434	18710.93
586.631	18561.42
586.828	18741.64
587.026	18751.88
587.223	18669.97
587.42	18643.34
587.618	18319.76
587.815	18237.84
588.012	18565.52
588.21	18303.38
588.407	18381.2
588.604	18282.9
588.801	18008.47
588.999	18143.64
589.196	18325.91
589.393	18200.98
589.59	18037.14
589.787	17768.86
589.984	17981.85
590.182	17742.24
590.379	17957.27
590.576	17426.85
590.773	17725.85
590.97	17607.07
591.167	17842.59
591.364	17527.2
591.561	17467.81
591.758	17336.74
591.955	17457.57
592.152	17328.55
592.349	17260.96
592.546	17383.84
592.743	17410.46
592.94	16820.65
593.137	17322.4
593.334	17021.35
593.531	16980.39
593.727	16929.19
593.924	16857.51
594.121	16968.1
594.318	16773.55
594.515	16609.71
594.712	16941.48
594.908	16378.29
595.105	16607.66
595.302	16357.81
595.499	16591.28
595.696	16335.28
595.892	16372.14
596.089	16572.85
596.286	16564.65
596.482	16435.63
596.679	16050.61
596.876	16406.96
597.072	16015.8
597.269	16335.28
597.466	16030.13
597.662	16023.99
597.859	16023.99
598.055	15999.41
598.252	15989.17
598.448	15915.45
598.645	15915.45
598.841	15440.32
599.038	15452.61
599.234	15618.49
599.431	15503.81
599.627	15714.75
599.824	15743.42
600.02	15385.02
600.217	15522.24
600.413	15423.94
600.609	15452.61
600.806	15434.18
601.002	15438.27
601.198	14985.67
601.395	15000.01
601.591	15176.13
601.787	15133.12
601.984	15012.29
602.18	15210.95
602.376	14887.37
602.572	14887.37
602.769	15063.49
602.965	14760.39
603.161	14821.83
603.357	14686.67
603.553	14854.6
603.75	14506.45
603.946	14576.08
604.142	14879.18
604.338	14537.16
604.534	14492.11
604.73	14547.4
604.926	14297.55
605.122	14395.85
605.318	14236.11
605.514	14305.74
605.71	14344.66
605.906	14096.85
606.102	14174.67
606.298	14285.26
606.494	13937.11
606.69	14174.67
606.886	14193.11
607.082	13871.58
607.278	13924.82
607.474	13605.34
607.67	13963.73
607.866	13935.06
608.062	14039.51
608.257	13793.75
608.453	13683.16
608.649	13691.35
608.845	13615.58
609.041	13650.39
609.236	13875.67
609.432	13664.73
609.628	13619.67
609.824	13521.37
610.019	13570.52
610.215	13642.2
610.411	13498.84
610.606	13300.19
610.802	13431.26
610.998	13642.2
611.193	13390.3
611.389	13300.19
611.584	13244.9
611.78	13228.51
611.976	13351.39
612.171	13384.16
612.367	13255.14
612.562	13150.69
612.758	12866.02
612.953	13105.63
613.149	13201.89
613.344	13140.45
613.539	13238.75
613.735	13070.82
613.93	13081.06
614.126	12855.78
614.321	12982.76
614.517	13349.34
614.712	13070.82
614.907	12845.54
615.103	13054.44
615.298	12816.87
615.493	12919.27
615.688	12712.42
615.884	12853.73
616.079	12435.95
616.274	12937.7
616.47	12659.18
616.665	12720.62
616.86	12655.08
617.055	12560.88
617.25	12601.83
617.445	12802.54
617.641	12476.91
617.836	12476.91
618.031	12403.18
618.226	12489.2
618.421	12466.67
618.616	12558.83
618.811	12171.76
619.006	12372.46
619.201	12335.6
619.396	12063.22
619.591	12069.36
619.786	12179.95
619.981	12003.83
620.176	12048.88
620.371	11760.12
620.566	11932.15
620.761	12052.98
620.956	12007.92
621.151	11780.6
621.346	11856.37
621.541	11553.27
621.735	11782.65
621.93	11532.79
622.125	11600.38
622.32	11389.44
622.515	11495.93
622.709	11323.9
622.904	11395.58
623.099	11123.2
623.294	11289.09
623.488	11035.14
623.683	11098.63
623.878	10918.4
624.072	11067.91
624.267	10902.02
624.462	10721.8
624.656	10664.46
624.851	10752.52
625.046	10734.09
625.24	10615.3
625.435	10435.08
625.629	10461.71
625.824	10340.88
626.018	10420.75
626.213	10187.28
626.407	10310.16
626.602	10101.26
626.796	10103.31
626.991	10066.45
627.185	10084.88
627.38	10041.87
627.574	10060.31
627.768	9820.69
627.963	9648.66
628.157	9648.66
628.352	9751.06
628.546	9517.59
628.74	9734.68
628.935	9478.68
629.129	9607.7
629.323	9611.8
629.517	9456.15
629.712	9296.41
629.906	9165.34
630.1	9153.06
630.294	9245.21
630.489	9337.37
630.683	9243.17
630.877	9101.86
631.071	9116.19
631.265	9087.52
631.459	8929.83
631.653	8872.48
631.848	8761.89
632.042	8788.52
632.236	8911.39
632.43	8503.85
632.624	8598.06
632.818	8647.21
633.012	8577.58
633.206	8481.32
633.4	8618.54
633.594	8313.39
633.788	8464.94
633.982	8462.89
634.176	8251.95
634.369	8307.24
634.563	8337.96
634.757	8147.5
634.951	8047.15
635.145	8208.94
635.339	8114.73
635.533	8061.49
635.726	8159.79
635.92	7813.68
636.114	7739.96
636.308	7889.46
636.501	7803.44
636.695	7678.52
636.889	7807.54
637.083	7692.85
637.276	7486.01
637.47	7526.97
637.664	7715.38
637.857	7524.92
638.051	7563.83
638.244	7457.34
638.438	7490.1
638.632	7518.78
638.825	7334.46
639.019	7240.25
639.212	7209.53
639.406	7256.64
639.599	7289.4
639.793	7125.57
639.986	7064.13
640.18	7187.01
640.373	7002.69
640.567	7113.28
640.76	6879.81
640.954	6955.58
641.147	6892.1
641.34	6744.64
641.534	6795.84
641.727	6875.71
641.92	6761.03
642.114	6767.17
642.307	6572.61
642.5	6492.74
642.694	6607.43
642.887	6421.06
643.08	6711.88
643.273	6560.33
643.467	6414.92
643.66	6529.61
643.853	6419.02
644.046	6330.95
644.239	6294.09
644.432	6343.24
644.626	6134.35
644.819	6171.21
645.012	6244.94
645.205	6199.88
645.398	6167.12
645.591	6257.23
645.784	6036.05
645.977	5995.09
646.17	5980.75
646.363	6134.35
646.556	5960.27
646.749	5904.98
646.942	6060.62
647.135	5827.15
647.328	5792.34
647.521	5878.35
647.714	5757.52
647.907	5737.04
648.099	5626.45
648.292	5823.06
648.485	5800.53
648.678	5636.69
648.871	5648.98
649.064	5423.7
649.256	5659.22
649.449	5464.66
649.642	5577.3
649.835	5358.17
650.027	5409.37
650.22	5364.31
650.413	5327.45
650.605	5323.35
650.798	5376.6
650.991	5134.94
651.183	5343.83
651.376	5118.56
651.568	5208.67
651.761	5063.26
651.954	5118.56
652.146	5081.69
652.339	5153.37
652.531	5102.17
652.724	4997.73
652.916	4741.73
653.109	4872.8
653.301	4864.61
653.494	5085.79
653.686	4762.21
653.879	4967.01
654.071	4911.71
654.263	4921.95
654.456	4729.44
654.648	4768.35
654.84	4704.87
655.033	4823.65
655.225	4610.66
655.417	4774.5
655.61	4579.94
655.802	4704.87
655.994	4604.52
656.186	4661.86
656.379	4604.52
656.571	4485.73
656.763	4504.17
656.955	4424.3
657.148	4495.97
657.34	4397.67
657.532	4362.86
657.724	4487.78
657.916	4545.13
658.108	4504.17
658.3	4323.94
658.492	4319.85
658.684	4135.53
658.876	4260.46
659.068	4258.41
659.26	4270.7
659.452	4237.93
659.644	4246.12
659.836	4072.04
660.028	4276.84
660.22	4100.72
660.412	4088.43
660.604	4008.56
660.796	4045.42
660.988	4143.72
661.18	4053.61
661.372	4119.15
661.563	4012.65
661.755	3922.54
661.947	3979.89
662.139	3904.11
662.331	3852.91
662.522	3809.9
662.714	3951.21
662.906	3781.23
663.097	3764.85
663.289	3781.23
663.481	3816.05
663.673	3707.51
663.864	3793.52
664.056	3842.67
664.247	3742.32
664.439	3668.59
664.631	3746.42
664.822	3609.2
665.014	3719.79
665.205	3672.69
665.397	3619.44
665.588	3734.13
665.78	3543.67
665.971	3439.22
666.163	3463.8
666.354	3533.43
666.546	3668.59
666.737	3480.18
666.929	3367.54
667.12	3555.96
667.311	3351.16
667.503	3512.95
667.694	3471.99
667.885	3414.65
668.077	3498.61
668.268	3404.41
668.459	3394.17
668.651	3351.16
668.842	3375.74
669.033	3345.02
669.224	3400.31
669.416	3291.77
669.607	3394.17
669.798	3340.92
669.989	3324.54
670.18	3345.02
670.371	3361.4
670.563	3332.73
670.754	3447.41
670.945	3234.43
671.136	3156.6
671.327	3299.96
671.518	3152.51
671.709	3246.71
671.9	3279.48
672.091	3177.08
672.282	3162.75
672.473	3179.13
672.664	3017.34
672.855	3113.6
673.046	3181.18
673.237	3177.08
673.428	3177.08
673.619	3152.51
673.809	3129.98
674	3070.59
674.191	3228.28
674.382	3105.4
674.573	2996.86
674.764	3019.39
674.954	3115.64
675.145	3048.06
675.336	3095.16
675.527	3086.97
675.717	3136.12
675.908	3029.63
676.099	3062.4
676.289	2980.48
676.48	2886.27
676.671	2871.93
676.861	3023.48
677.052	3048.06
677.243	3029.63
677.433	3039.87
677.624	2980.48
677.814	2990.72
678.005	3082.88
678.195	3011.2
678.386	3033.72
678.576	2966.14
678.767	2884.22
678.957	3007.1
679.148	2943.61
679.338	2931.33
679.529	2951.81
679.719	2968.19
679.909	2916.99
680.1	2998.91
680.29	2894.46
680.481	2849.41
680.671	2888.32
680.861	2908.8
681.052	2927.23
681.242	2927.23
681.432	2957.95
681.622	2939.52
681.813	2857.6
682.003	2947.71
682.193	2849.41
682.383	2955.9
682.573	2882.17
682.764	2865.79
682.954	2974.33
683.144	2914.94
683.334	2980.48
683.524	2914.94
683.714	2964.09
683.904	2914.94
684.094	2896.51
684.284	2906.75
684.474	2906.75
684.664	2704
684.854	2988.67
685.044	2716.29
685.234	2841.22
685.424	2820.74
685.614	2810.5
685.804	2890.37
685.994	2857.6
686.184	2699.91
686.374	2726.53
686.564	2697.86
686.753	2749.06
686.943	2747.01
687.133	2783.87
687.323	2812.54
687.513	2849.41
687.702	2800.26
687.892	2726.53
688.082	2841.22
688.272	2763.39
688.461	2650.75
688.651	2728.58
688.841	2597.51
689.03	2693.76
689.22	2714.24
689.41	2716.29
689.599	2611.84
689.789	2736.77
689.979	2626.18
690.168	2572.93
690.358	2648.71
690.547	2673.28
690.737	2531.97
690.926	2660.99
691.116	2564.74
691.305	2509.44
691.495	2517.64
691.684	2488.96
691.874	2570.88
692.063	2458.25
692.252	2464.39
692.442	2472.58
692.631	2482.82
692.82	2499.2
693.01	2443.91
693.199	2488.96
693.388	2398.85
693.578	2484.87
693.767	2437.77
693.956	2343.56
694.146	2480.77
694.335	2437.77
694.524	2454.15
694.713	2374.28
694.902	2398.85
695.092	2323.08
695.281	2337.41
695.47	2398.85
695.659	2314.89
695.848	2300.55
696.037	2415.24
696.226	2546.31
696.415	2366.09
696.604	2312.84
696.793	2341.51
696.982	2384.52
697.171	2327.18
697.36	2411.14
697.549	2304.65
697.738	2347.65
697.927	2239.11
698.116	2359.94
698.305	2339.46
698.494	2255.5
698.683	2288.26
698.872	2296.46
699.061	2409.09
699.25	2261.64
699.438	2226.82
699.627	2253.45
699.816	2261.64
700.005	2284.17
700.193	2212.49
700.382	2185.87
700.571	2306.7
700.76	2202.25
700.948	2286.22
701.137	2280.07
701.326	2232.97
701.514	2290.31
701.703	2294.41
701.892	2110.09
702.08	2259.59
702.269	2259.59
702.457	2245.26
702.646	2314.89
702.834	2126.47
703.023	2298.5
703.212	2253.45
703.4	2288.26
703.589	2278.02
703.777	2210.44
703.965	2210.44
704.154	2384.52
704.342	2153.1
704.531	2241.16
704.719	2216.58
704.907	2314.89
705.096	2323.08
705.284	2151.05
705.472	2267.78
705.661	2273.93
705.849	2245.26
706.037	2306.7
706.226	2288.26
706.414	2349.7
706.602	2341.51
706.79	2140.81
706.979	2122.38
707.167	2257.54
707.355	2189.96
707.543	2185.87
707.731	2292.36
707.919	2306.7
708.107	2179.72
708.296	2218.63
708.484	2220.68
708.672	2202.25
708.86	2282.12
709.048	2120.33
709.236	2177.67
709.424	2267.78
709.612	2130.57
709.8	2108.04
709.988	2241.16
710.176	2214.54
710.364	2259.59
710.551	2267.78
710.739	2212.49
710.927	2159.24
711.115	2251.4
711.303	2210.44
711.491	2245.26
711.679	2136.71
711.866	2296.46
712.054	2257.54
712.242	2132.62
712.43	2253.45
712.617	2185.87
712.805	2261.64
712.993	2177.67
713.181	2110.09
713.368	2230.92
713.556	2235.02
713.744	2044.56
713.931	2280.07
714.119	2259.59
714.306	2235.02
714.494	2253.45
714.682	2226.82
714.869	2091.66
715.057	2149
715.244	2169.48
715.432	2130.57
715.619	2095.75
715.807	2194.06
715.994	2126.47
716.182	2132.62
716.369	2226.82
716.556	2235.02
716.744	2099.85
716.931	2169.48
717.119	2071.18
717.306	2118.28
717.493	2052.75
717.681	2155.15
717.868	2226.82
718.055	2255.5
718.242	2118.28
718.43	2120.33
718.617	2087.56
718.804	2155.15
718.991	2153.1
719.179	2204.3
719.366	2155.15
719.553	2116.23
719.74	2142.86
719.927	2128.52
720.114	2212.49
720.301	2169.48
720.488	2232.97
720.676	2157.19
720.863	2130.57
721.05	2189.96
721.237	2155.15
721.424	2161.29
721.611	2216.58
721.798	2110.09
721.985	2169.48
722.172	2163.34
722.358	2046.6
722.545	2153.1
722.732	2050.7
722.919	2206.34
723.106	2091.66
723.293	2194.06
723.48	2161.29
723.667	2087.56
723.853	2187.91
724.04	1989.26
724.227	2202.25
724.414	2062.99
724.6	2153.1
724.787	2155.15
724.974	2146.95
725.161	2153.1
725.347	2099.85
725.534	2159.24
725.72	2245.26
725.907	2128.52
726.094	2171.53
726.28	2081.42
726.467	2105.99
726.653	2189.96
726.84	2202.25
727.027	2140.81
727.213	2028.17
727.4	2122.38
727.586	2202.25
727.773	2120.33
727.959	2161.29
728.145	2089.61
728.332	2116.23
728.518	2138.76
728.705	2183.82
728.891	2232.97
729.077	2173.58
729.264	2091.66
729.45	2054.8
729.636	2050.7
729.823	2130.57
730.009	1966.73
730.195	2177.67
730.382	2198.15
730.568	2124.43
730.754	2144.91
730.94	2136.71
731.126	2130.57
731.313	2187.91
731.499	2091.66
731.685	2114.19
731.871	2048.65
732.057	2114.19
732.243	2157.19
732.429	2132.62
732.615	2079.37
732.801	2024.08
732.987	2140.81
733.173	2105.99
733.359	1989.26
733.545	2071.18
733.731	2103.95
733.917	2079.37
734.103	2093.71
734.289	2009.74
734.475	2108.04
734.661	2122.38
734.847	2062.99
735.033	2065.04
735.219	2132.62
735.404	2073.23
735.59	2073.23
735.776	2036.36
735.962	2042.51
736.148	2032.27
736.333	2108.04
736.519	2017.93
736.705	2054.8
736.89	2032.27
737.076	2007.69
737.262	2077.32
737.447	2050.7
737.633	2032.27
737.819	2093.71
738.004	2034.32
738.19	2024.08
738.375	2153.1
738.561	1989.26
738.747	1999.5
738.932	2058.89
739.118	1919.63
739.303	1931.92
739.489	1997.45
739.674	2015.88
739.859	2009.74
740.045	2036.36
740.23	1923.73
740.416	1938.06
740.601	1997.45
740.786	1985.16
740.972	1997.45
741.157	1927.82
741.342	1829.52
741.528	1956.49
741.713	2005.64
741.898	1958.54
742.084	1893.01
742.269	1956.49
742.454	1966.73
742.639	1811.09
742.824	1868.43
743.01	1870.48
743.195	1948.3
743.38	1985.16
743.565	1833.61
743.75	1907.34
743.935	1847.95
744.12	1819.28
744.305	1786.51
744.49	1768.08
744.675	1753.74
744.86	1833.61
745.045	1768.08
745.23	1870.48
745.415	1845.9
745.6	1682.06
745.785	1737.36
745.97	1659.54
746.155	1690.26
746.34	1739.41
746.525	1694.35
746.71	1761.94
746.895	1768.08
747.079	1786.51
747.264	1712.78
747.449	1680.02
747.634	1776.27
747.819	1641.11
748.003	1641.11
748.188	1643.15
748.373	1616.53
748.557	1692.3
748.742	1651.35
748.927	1600.15
749.111	1583.76
749.296	1663.63
749.481	1604.24
749.665	1567.38
749.85	1501.84
750.034	1581.71
750.219	1594
750.404	1626.77
750.588	1587.86
750.773	1458.84
750.957	1489.56
751.141	1495.7
751.326	1507.99
751.51	1436.31
751.695	1487.51
751.879	1385.11
752.064	1499.8
752.248	1305.24
752.432	1473.17
752.617	1333.91
752.801	1389.21
752.985	1391.25
753.17	1335.96
753.354	1366.68
753.538	1317.53
753.722	1237.66
753.907	1389.21
754.091	1335.96
754.275	1319.57
754.459	1272.47
754.643	1270.42
754.828	1192.6
755.012	1208.98
755.196	1211.03
755.38	1354.39
755.564	1202.84
755.748	1299.09
755.932	1129.11
756.116	1288.85
756.3	1188.5
756.484	1211.03
756.668	1157.78
756.852	1194.65
757.036	1120.92
757.22	1131.16
757.404	1165.98
757.588	1059.48
757.772	1145.5
757.956	1180.31
758.14	1161.88
758.323	1049.24
758.507	1092.25
758.691	1059.48
758.875	1071.77
759.059	1137.31
759.242	1157.78
759.426	1057.43
759.61	1155.74
759.794	1108.63
759.977	1096.35
760.161	1110.68
760.345	1014.43
760.528	1039
760.712	1036.95
760.895	1120.92
761.079	1043.1
761.263	1045.15
761.446	1014.43
761.63	1129.11
761.813	1026.71
761.997	1039
762.18	969.37
762.364	944.8
762.547	1026.71
762.731	924.32
762.914	883.36
763.098	1000.09
763.281	891.55
763.464	975.52
763.648	844.45
763.831	952.99
764.015	967.32
764.198	920.22
764.381	922.27
764.564	883.36
764.748	787.1
764.931	877.21
765.114	899.74
765.297	948.89
765.481	830.11
765.664	893.6
765.847	924.32
766.03	842.4
766.213	916.12
766.397	866.97
766.58	811.68
766.763	850.59
766.946	850.59
767.129	729.76
767.312	850.59
767.495	850.59
767.678	828.06
767.861	756.38
768.044	830.11
768.227	778.91
768.41	834.21
768.593	801.44
768.776	860.83
768.959	795.29
769.142	858.78
769.324	780.96
769.507	754.34
769.69	696.99
769.873	715.42
770.056	776.86
770.239	731.81
770.421	828.06
770.604	729.76
770.787	760.48
770.97	735.9
771.152	801.44
771.335	744.1
771.518	664.22
771.7	709.28
771.883	760.48
772.066	670.37
772.248	696.99
772.431	705.18
772.613	768.67
772.796	633.5
772.978	737.95
773.161	752.29
773.343	653.98
773.526	596.64
773.708	705.18
773.891	676.51
774.073	633.5
774.256	645.79
774.438	678.56
774.621	729.76
774.803	731.81
774.985	653.98
775.168	557.73
775.35	615.07
775.532	643.74
775.715	598.69
775.897	664.22
776.079	545.44
776.261	647.84
776.444	606.88
776.626	613.03
776.808	656.03
776.99	522.91
777.173	537.25
777.355	574.11
777.537	627.36
777.719	678.56
777.901	598.69
778.083	588.45
778.265	604.83
778.447	606.88
778.629	572.07
778.811	557.73
778.993	547.49
779.175	563.87
779.357	572.07
779.539	469.67
779.721	518.82
779.903	551.59
780.085	512.67
780.267	537.25
780.449	580.26
780.631	508.58
780.812	432.8
780.994	490.15
781.176	471.72
781.358	490.15
781.54	428.71
781.721	441
781.903	481.96
782.085	412.32
782.267	465.57
782.448	404.13
782.63	430.76
782.812	424.61
782.993	436.9
783.175	498.34
783.357	367.27
783.538	514.72
783.72	373.41
783.901	430.76
784.083	422.56
784.264	453.28
784.446	328.36
784.627	408.23
784.809	391.84
784.99	375.46
785.172	436.9
785.353	408.23
785.535	428.71
785.716	402.08
785.897	369.32
786.079	443.04
786.26	354.98
786.441	377.51
786.623	228.01
786.804	377.51
786.985	387.75
787.167	385.7
787.348	379.56
787.529	352.93
787.71	481.96
787.891	334.5
788.073	342.69
788.254	260.77
788.435	436.9
788.616	297.64
788.797	305.83
788.978	336.55
789.159	352.93
789.34	330.41
789.522	297.64
789.703	268.97
789.884	397.99
790.065	326.31
790.246	342.69
790.427	328.36
790.607	326.31
790.788	291.49
790.969	320.17
791.15	285.35
791.331	244.39
791.512	307.88
791.693	273.06
791.874	350.89
792.054	289.45
792.235	367.27
792.416	311.97
792.597	256.68
792.778	228.01
792.958	264.87
793.139	244.39
793.32	301.73
793.5	246.44
793.681	242.34
793.862	262.82
794.042	230.06
794.223	348.84
794.404	268.97
794.584	230.06
794.765	342.69
794.945	250.53
795.126	254.63
795.306	203.43
795.487	244.39
795.667	201.38
795.848	256.68
796.028	248.49
796.209	297.64
796.389	326.31
796.57	236.2
796.75	172.71
796.93	248.49
797.111	252.58
797.291	268.97
797.471	248.49
797.652	230.06
797.832	221.86
798.012	252.58
798.192	228.01
798.373	195.24
798.553	283.3
798.733	234.15
798.913	246.44
799.093	158.38
799.274	256.68
799.454	189.1
799.634	203.43
799.814	180.9
799.994	185
800.174	215.72
800.354	205.48
800.534	195.24
800.714	246.44
800.894	158.38
801.074	113.32
801.254	168.62
801.434	246.44
801.614	221.86
801.794	189.1
801.974	793.25
802.154	215.72
802.334	178.86
802.514	146.09
802.693	228.01
802.873	207.53
803.053	236.2
803.233	144.04
803.413	211.62
803.592	260.77
803.772	211.62
803.952	154.28
804.131	187.05
804.311	189.1
804.491	162.47
804.67	88.75
804.85	109.22
805.03	187.05
805.209	238.25
805.389	121.51
805.568	152.23
805.748	96.94
805.928	187.05
806.107	258.73
806.287	127.66
806.466	236.2
806.646	107.18
806.825	146.09
807.004	129.7
807.184	189.1
807.363	244.39
807.543	148.14
807.722	146.09
807.901	236.2
808.081	203.43
808.26	60.07
808.439	236.2
808.619	146.09
808.798	180.9
808.977	187.05
809.156	139.94
809.336	164.52
809.515	205.48
809.694	88.75
809.873	101.03
810.052	197.29
810.231	230.06
810.411	96.94
810.59	180.9
810.769	105.13
810.948	199.34
811.127	146.09
811.306	107.18
811.485	156.33
811.664	101.03
811.843	103.08
812.022	170.66
812.201	141.99
812.38	141.99
812.559	195.24
812.737	146.09
812.916	88.75
813.095	137.9
813.274	166.57
813.453	105.13
813.632	203.43
813.811	211.62
813.989	96.94
814.168	154.28
814.347	113.32
814.526	178.86
814.704	172.71
814.883	197.29
815.062	162.47
815.24	209.58
815.419	133.8
815.598	92.84
815.776	19.11
815.955	133.8
816.133	129.7
816.312	125.61
816.49	156.33
816.669	178.86
816.847	88.75
817.026	139.94
817.204	21.16
817.383	129.7
817.561	58.03
817.74	109.22
817.918	180.9
818.097	96.94
818.275	156.33
818.453	156.33
818.632	35.5
818.81	129.7
818.988	80.55
819.167	78.51
819.345	90.79
819.523	92.84
819.701	98.99
819.879	74.41
820.058	84.65
820.236	80.55
820.414	80.55
820.592	0.68
820.77	125.61
820.948	41.64
821.127	55.98
821.305	141.99
821.483	113.32
821.661	76.46
821.839	187.05
822.017	139.94
822.195	33.45
822.373	53.93
822.551	88.75
822.729	125.61
822.907	90.79
823.085	88.75
823.262	72.36
823.44	72.36
823.618	86.7
823.796	86.7
823.974	31.4
824.152	66.22
824.329	111.27
824.507	123.56
824.685	80.55
824.863	129.7
825.04	41.64
825.218	148.14
825.396	29.35
825.574	123.56
825.751	39.59
825.929	94.89
826.107	76.46
826.284	55.98
826.462	35.5
826.639	121.51
826.817	68.27
826.994	146.09
827.172	88.75
827.349	115.37
827.527	146.09
827.704	101.03
827.882	80.55
828.059	33.45
828.237	96.94
828.414	90.79
828.591	17.07
828.769	115.37
828.946	19.11
829.124	84.65
829.301	121.51
829.478	146.09
829.655	58.03
829.833	47.79
830.01	2.73
830.187	105.13
830.364	58.03
830.542	187.05
830.719	84.65
830.896	72.36
831.073	105.13
831.25	88.75
831.427	19.11
831.604	133.8
831.782	31.4
831.959	111.27
832.136	29.35
832.313	88.75
832.49	58.03
832.667	39.59
832.844	43.69
833.021	137.9
833.198	27.31
833.374	51.88
833.551	68.27
833.728	70.31
833.905	92.84
834.082	19.11
834.259	133.8
834.436	113.32
834.612	105.13
834.789	129.7
834.966	15.02
835.143	115.37
835.319	53.93
835.496	154.28
835.673	121.51
835.85	47.79
836.026	68.27
836.203	148.14
836.38	19.11
836.556	92.84
836.733	23.21
836.909	168.62
837.086	45.74
837.262	27.31
837.439	31.4
837.616	62.12
837.792	43.69
837.968	15.02
838.145	-1.37
838.321	27.31
838.498	37.55
838.674	131.75
838.851	-38.23
839.027	62.12
839.203	64.17
839.38	162.47
839.556	37.55
839.732	105.13
839.909	74.41
840.085	115.37
840.261	139.94
840.437	90.79
840.614	62.12
840.79	72.36
840.966	43.69
841.142	-17.75
841.318	72.36
841.494	129.7
841.671	23.21
841.847	72.36
842.023	8.87
842.199	101.03
842.375	31.4
842.551	55.98
842.727	88.75
842.903	121.51
843.079	101.03
843.255	64.17
843.431	17.07
843.607	19.11
843.783	-34.13
843.959	84.65
844.134	15.02
844.31	25.26
844.486	31.4
844.662	19.11
844.838	33.45
845.013	19.11
845.189	55.98
845.365	64.17
845.541	19.11
845.716	39.59
845.892	129.7
846.068	96.94
846.244	27.31
846.419	27.31
846.595	15.02
846.77	19.11
846.946	68.27
847.122	-5.46
847.297	6.83
847.473	146.09
847.648	-1.37
847.824	47.79
847.999	-7.51
848.175	23.21
848.35	-17.75
848.526	55.98
848.701	113.32
848.876	86.7
849.052	19.11
849.227	129.7
849.403	33.45
849.578	19.11
849.753	35.5
849.929	64.17
850.104	49.83
850.279	60.07
850.454	47.79
850.63	105.13
850.805	-9.56
850.98	35.5
851.155	15.02
851.33	51.88
851.505	39.59
851.681	49.83
851.856	6.83
852.031	62.12
852.206	-42.32
852.381	113.32
852.556	-25.94
852.731	-25.94
852.906	41.64
853.081	-36.18
853.256	80.55
853.431	55.98
853.606	2.73
853.781	-25.94
853.956	10.92
854.131	8.87
854.305	-21.85
854.48	-9.56
854.655	-27.99
854.83	17.07
855.005	25.26
855.18	-7.51
855.354	17.07
855.529	70.31
855.704	-7.51
855.879	49.83
856.053	27.31
856.228	55.98
856.403	-54.61
856.577	25.26
856.752	-9.56
856.926	-25.94
857.101	84.65
857.276	-3.41
857.45	15.02
857.625	72.36
857.799	72.36
857.974	-25.94
858.148	-66.9
858.323	60.07
858.497	-17.75
858.672	43.69
858.846	21.16
859.02	15.02
859.195	43.69
859.369	-9.56
859.543	15.02
859.718	45.74
859.892	-21.85
860.066	68.27
860.241	60.07
860.415	25.26
860.589	-9.56
860.763	23.21
860.938	86.7
861.112	-21.85
861.286	-11.61
861.46	31.4
861.634	-34.13
861.808	35.5
861.982	-21.85
862.157	-7.51
862.331	66.22
862.505	-15.7
862.679	0.68
862.853	58.03
863.027	-73.04
863.201	45.74
863.375	-56.66
863.549	43.69
863.722	-5.46
863.896	19.11
864.07	-42.32
864.244	23.21
864.418	6.83
864.592	51.88
864.766	-9.56
864.939	-13.65
865.113	-44.37
865.287	29.35
865.461	-11.61
865.634	39.59
865.808	-9.56
865.982	19.11
866.156	31.4
866.329	15.02
866.503	43.69
866.676	31.4
866.85	80.55
867.024	27.31
867.197	23.21
867.371	-1.37
867.544	105.13
867.718	15.02
867.891	58.03
868.065	23.21
868.238	37.55
868.412	23.21
868.585	-42.32
868.759	33.45
868.932	-34.13
869.105	6.83
869.279	37.55
869.452	-32.08
869.625	2.73
869.799	41.64
869.972	-9.56
870.145	49.83
870.319	82.6
870.492	6.83
870.665	10.92
870.838	-13.65
871.011	-19.8
871.185	-21.85
871.358	-25.94
871.531	35.5
871.704	6.83
871.877	27.31
872.05	-3.41
872.223	-46.42
872.396	-13.65
872.569	27.31
872.742	4.78
872.915	82.6
873.088	55.98
873.261	35.5
873.434	-11.61
873.607	15.02
873.78	55.98
873.953	-5.46
874.126	80.55
874.299	39.59
874.471	-25.94
874.644	8.87
874.817	55.98
874.99	58.03
875.163	-42.32
875.335	-32.08
875.508	96.94
875.681	-21.85
875.853	-48.47
876.026	66.22
876.199	62.12
876.371	-25.94
876.544	27.31
876.717	41.64
876.889	6.83
877.062	35.5
877.234	-13.65
877.407	-9.56
877.579	-34.13
877.752	101.03
877.924	6.83
878.097	8.87
878.269	2.73
878.442	72.36
878.614	-1.37
878.786	31.4
878.959	-60.76
879.131	64.17
879.303	19.11
879.476	25.26
879.648	39.59
879.82	-9.56
879.993	10.92
880.165	10.92
880.337	-17.75
880.509	-30.04
880.681	6.83
880.854	15.02
881.026	27.31
881.198	96.94
881.37	12.97
881.542	27.31
881.714	-83.28
881.886	-1.37
882.058	-42.32
882.23	31.4
882.402	-5.46
882.574	27.31
882.746	23.21
882.918	70.31
883.09	-50.52
883.262	-54.61
883.434	-50.52
883.606	2.73
883.778	0.68
883.95	72.36
884.122	21.16
884.293	39.59
884.465	-34.13
884.637	31.4
884.809	-25.94
884.98	-34.13
885.152	12.97
885.324	45.74
885.496	23.21
885.667	-23.89
885.839	29.35
886.011	88.75
886.182	-11.61
886.354	39.59
886.525	0.68
886.697	62.12
886.869	6.83
887.04	-42.32
887.212	66.22
887.383	8.87
887.555	-9.56
887.726	-48.47
887.897	-25.94
888.069	29.35
888.24	-9.56
888.412	107.18
888.583	-50.52
888.754	6.83
888.926	41.64
889.097	0.68
889.268	-64.85
889.44	29.35
889.611	-15.7
889.782	31.4
889.953	-5.46
890.125	31.4
890.296	68.27
890.467	-42.32
890.638	-25.94
890.809	-7.51
890.98	-13.65
891.151	76.46
891.323	82.6
891.494	15.02
891.665	2.73
891.836	43.69
892.007	-32.08
892.178	-1.37
892.349	-5.46
892.52	-5.46
892.691	-1.37
892.862	-25.94
893.032	-19.8
893.203	-21.85
893.374	-44.37
893.545	31.4
893.716	17.07
893.887	33.45
894.057	55.98
894.228	39.59
894.399	12.97
894.57	33.45
894.74	0.68
894.911	131.75
895.082	15.02
895.253	23.21
895.423	8.87
895.594	47.79
895.764	-3.41
895.935	-7.51
896.106	-62.8
896.276	2.73
896.447	84.65
896.617	27.31
896.788	-38.23
896.958	-23.89
897.129	39.59
897.299	-46.42
897.47	27.31
897.64	23.21
897.81	60.07
897.981	-9.56
898.151	-81.24
898.322	-1.37
898.492	-9.56
898.662	39.59
898.832	-17.75
899.003	55.98
899.173	25.26
899.343	-52.56
899.513	-17.75
