Data from USB4F104151__126__14-19-00-198.txt Node

Date: Thu Mar 13 14:19:00 EDT 2025
User: louis
Spectrometer: USB4F10415
Trigger mode: 4
Integration Time (sec): 2.000000E-2
Scans to average: 1
Electric dark correction enabled: true
Nonlinearity correction enabled: false
Boxcar width: 0
XAxis mode: Wavelengths
Number of Pixels in Spectrum: 3648
>>>>>Begin Spectral Data<<<<<
178.204	-104.62
178.424	-104.62
178.644	-104.62
178.864	-96.43
179.084	-88.23
179.304	5.97
179.524	3.93
179.744	-69.8
179.964	57.17
180.184	-41.13
180.404	-18.6
180.624	-37.03
180.844	57.17
181.064	-41.13
181.283	8.02
181.503	89.94
181.723	-14.51
181.943	-34.99
182.163	79.7
182.383	-28.84
182.602	-12.46
182.822	69.46
183.042	-4.27
183.262	-0.17
183.482	38.74
183.701	73.56
183.921	26.45
184.141	12.12
184.361	51.03
184.58	-28.84
184.8	-8.36
185.02	30.55
185.239	34.64
185.459	-8.36
185.679	63.32
185.898	12.12
186.118	26.45
186.338	-6.31
186.557	20.31
186.777	-0.17
186.997	3.93
187.216	-32.94
187.436	40.79
187.655	12.12
187.875	57.17
188.095	16.21
188.314	65.36
188.534	16.21
188.753	67.41
188.973	32.6
189.192	85.84
189.412	8.02
189.631	46.93
189.851	14.17
190.07	46.93
190.29	12.12
190.509	73.56
190.729	-24.75
190.948	67.41
191.168	89.94
191.387	42.84
191.607	-0.17
191.826	-59.56
192.045	5.97
192.265	42.84
192.484	-37.03
192.704	28.5
192.923	-14.51
193.142	128.85
193.362	-4.27
193.581	16.21
193.8	-10.41
194.02	5.97
194.239	-18.6
194.458	65.36
194.678	59.22
194.897	10.07
195.116	77.65
195.335	61.27
195.555	34.64
195.774	3.93
195.993	-20.65
196.212	-14.51
196.432	-8.36
196.651	-22.7
196.87	-0.17
197.089	100.18
197.308	22.36
197.528	24.4
197.747	-4.27
197.966	53.08
198.185	165.71
198.404	-10.41
198.623	22.36
198.842	32.6
199.062	55.12
199.281	24.4
199.5	14.17
199.719	16.21
199.938	75.6
200.157	8.02
200.376	61.27
200.595	40.79
200.814	32.6
201.033	-12.46
201.252	57.17
201.471	24.4
201.69	-14.51
201.909	77.65
202.128	44.88
202.347	91.99
202.566	10.07
202.785	-22.7
203.004	8.02
203.223	91.99
203.442	14.17
203.661	32.6
203.879	57.17
204.098	24.4
204.317	-4.27
204.536	155.47
204.755	89.94
204.974	-14.51
205.193	40.79
205.411	89.94
205.63	59.22
205.849	53.08
206.068	53.08
206.287	8.02
206.505	32.6
206.724	57.17
206.943	32.6
207.162	-32.94
207.381	26.45
207.599	89.94
207.818	61.27
208.037	65.36
208.255	-24.75
208.474	42.84
208.693	-24.75
208.911	8.02
209.13	30.55
209.349	22.36
209.567	59.22
209.786	40.79
210.005	81.75
210.223	73.56
210.442	-8.36
210.661	-16.55
210.879	18.26
211.098	75.6
211.316	100.18
211.535	18.26
211.753	-32.94
211.972	57.17
212.191	-28.84
212.409	51.03
212.628	67.41
212.846	20.31
213.065	-4.27
213.283	157.52
213.502	63.32
213.72	89.94
213.938	8.02
214.157	-24.75
214.375	85.84
214.594	20.31
214.812	48.98
215.031	26.45
215.249	55.12
215.467	57.17
215.686	34.64
215.904	77.65
216.122	85.84
216.341	73.56
216.559	40.79
216.778	48.98
216.996	24.4
217.214	14.17
217.432	28.5
217.651	57.17
217.869	98.13
218.087	-57.51
218.306	61.27
218.524	-10.41
218.742	-14.51
218.96	81.75
219.179	12.12
219.397	40.79
219.615	40.79
219.833	98.13
220.051	-24.75
220.27	-16.55
220.488	10.07
220.706	-24.75
220.924	34.64
221.142	12.12
221.36	34.64
221.578	55.12
221.796	42.84
222.015	38.74
222.233	-37.03
222.451	36.69
222.669	-22.7
222.887	128.85
223.105	57.17
223.323	48.98
223.541	32.6
223.759	46.93
223.977	61.27
224.195	61.27
224.413	48.98
224.631	10.07
224.849	61.27
225.067	32.6
225.285	16.21
225.503	-47.27
225.721	61.27
225.939	65.36
226.157	16.21
226.375	104.28
226.592	51.03
226.81	44.88
227.028	91.99
227.246	83.8
227.464	67.41
227.682	34.64
227.9	57.17
228.117	57.17
228.335	-22.7
228.553	53.08
228.771	65.36
228.989	40.79
229.206	73.56
229.424	79.7
229.642	42.84
229.86	-6.31
230.077	75.6
230.295	67.41
230.513	30.55
230.731	65.36
230.948	67.41
231.166	75.6
231.384	42.84
231.601	83.8
231.819	44.88
232.037	-41.13
232.254	63.32
232.472	59.22
232.689	5.97
232.907	73.56
233.125	67.41
233.342	-94.38
233.56	-20.65
233.777	22.36
233.995	1.88
234.213	63.32
234.43	75.6
234.648	26.45
234.865	-4.27
235.083	100.18
235.3	83.8
235.518	53.08
235.735	61.27
235.953	59.22
236.17	53.08
236.388	-24.75
236.605	24.4
236.822	94.04
237.04	67.41
237.257	-34.99
237.475	57.17
237.692	67.41
237.909	73.56
238.127	110.42
238.344	12.12
238.562	83.8
238.779	16.21
238.996	-8.36
239.214	16.21
239.431	32.6
239.648	-8.36
239.865	-4.27
240.083	44.88
240.3	-32.94
240.517	20.31
240.735	46.93
240.952	67.41
241.169	85.84
241.386	3.93
241.603	34.64
241.821	3.93
242.038	83.8
242.255	96.08
242.472	-71.85
242.689	-45.23
242.907	18.26
243.124	-10.41
243.341	-12.46
243.558	-47.27
243.775	98.13
243.992	-32.94
244.209	22.36
244.426	67.41
244.643	75.6
244.86	14.17
245.078	-16.55
245.295	65.36
245.512	40.79
245.729	16.21
245.946	-0.17
246.163	8.02
246.38	-63.66
246.597	32.6
246.814	10.07
247.031	32.6
247.248	73.56
247.464	44.88
247.681	30.55
247.898	10.07
248.115	57.17
248.332	12.12
248.549	61.27
248.766	69.46
248.983	96.08
249.2	77.65
249.417	-22.7
249.633	59.22
249.85	24.4
250.067	51.03
250.284	18.26
250.501	104.28
250.717	77.65
250.934	59.22
251.151	73.56
251.368	51.03
251.585	-0.17
251.801	26.45
252.018	24.4
252.235	51.03
252.451	116.56
252.668	24.4
252.885	79.7
253.102	-34.99
253.318	26.45
253.535	57.17
253.752	12.12
253.968	44.88
254.185	55.12
254.401	-10.41
254.618	34.64
254.835	14.17
255.051	83.8
255.268	77.65
255.484	124.76
255.701	3.93
255.917	32.6
256.134	1.88
256.351	24.4
256.567	51.03
256.784	-30.89
257	-37.03
257.217	34.64
257.433	24.4
257.65	32.6
257.866	34.64
258.082	22.36
258.299	12.12
258.515	57.17
258.732	-63.66
258.948	-4.27
259.165	24.4
259.381	24.4
259.597	65.36
259.814	-14.51
260.03	137.04
260.246	-12.46
260.463	-4.27
260.679	16.21
260.895	18.26
261.112	3.93
261.328	-16.55
261.544	51.03
261.761	81.75
261.977	24.4
262.193	16.21
262.409	44.88
262.626	10.07
262.842	16.21
263.058	42.84
263.274	-41.13
263.49	79.7
263.707	59.22
263.923	1.88
264.139	-4.27
264.355	14.17
264.571	61.27
264.787	28.5
265.004	98.13
265.22	102.23
265.436	46.93
265.652	51.03
265.868	108.37
266.084	26.45
266.3	89.94
266.516	-8.36
266.732	18.26
266.948	73.56
267.164	20.31
267.38	18.26
267.596	135
267.812	40.79
268.028	87.89
268.244	-43.18
268.46	26.45
268.676	-8.36
268.892	18.26
269.108	3.93
269.324	-32.94
269.54	44.88
269.756	77.65
269.972	38.74
270.188	40.79
270.403	-4.27
270.619	57.17
270.835	-8.36
271.051	-39.08
271.267	-0.17
271.483	75.6
271.698	71.51
271.914	-0.17
272.13	1.88
272.346	53.08
272.562	36.69
272.777	98.13
272.993	34.64
273.209	-28.84
273.425	34.64
273.64	-20.65
273.856	53.08
274.072	10.07
274.287	-10.41
274.503	57.17
274.719	44.88
274.934	91.99
275.15	-0.17
275.366	57.17
275.581	73.56
275.797	48.98
276.012	-0.17
276.228	28.5
276.444	48.98
276.659	38.74
276.875	-8.36
277.09	51.03
277.306	77.65
277.521	77.65
277.737	20.31
277.952	20.31
278.168	69.46
278.383	59.22
278.599	8.02
278.814	48.98
279.03	1.88
279.245	73.56
279.461	-16.55
279.676	40.79
279.892	-0.17
280.107	16.21
280.322	20.31
280.538	79.7
280.753	28.5
280.969	73.56
281.184	-16.55
281.399	110.42
281.615	26.45
281.83	10.07
282.045	44.88
282.26	44.88
282.476	89.94
282.691	-0.17
282.906	61.27
283.122	46.93
283.337	-6.31
283.552	34.64
283.767	-4.27
283.983	98.13
284.198	40.79
284.413	26.45
284.628	-22.7
284.843	59.22
285.058	108.37
285.274	3.93
285.489	1.88
285.704	-4.27
285.919	-47.27
286.134	26.45
286.349	3.93
286.564	-2.22
286.779	57.17
286.995	40.79
287.21	16.21
287.425	73.56
287.64	-4.27
287.855	44.88
288.07	-2.22
288.285	106.32
288.5	36.69
288.715	-12.46
288.93	59.22
289.145	16.21
289.36	20.31
289.575	38.74
289.79	69.46
290.004	38.74
290.219	108.37
290.434	8.02
290.649	5.97
290.864	51.03
291.079	40.79
291.294	-6.31
291.509	89.94
291.724	32.6
291.938	-18.6
292.153	28.5
292.368	-6.31
292.583	18.26
292.798	-18.6
293.012	108.37
293.227	18.26
293.442	40.79
293.657	24.4
293.871	61.27
294.086	26.45
294.301	46.93
294.516	26.45
294.73	102.23
294.945	22.36
295.16	8.02
295.374	85.84
295.589	-6.31
295.804	51.03
296.018	28.5
296.233	114.52
296.447	69.46
296.662	14.17
296.877	-16.55
297.091	8.02
297.306	61.27
297.52	10.07
297.735	44.88
297.949	-14.51
298.164	3.93
298.378	14.17
298.593	-63.66
298.807	8.02
299.022	24.4
299.236	87.89
299.451	40.79
299.665	-0.17
299.88	87.89
300.094	85.84
300.309	20.31
300.523	59.22
300.737	-8.36
300.952	53.08
301.166	20.31
301.381	-0.17
301.595	10.07
301.809	69.46
302.024	83.8
302.238	57.17
302.452	-57.51
302.667	61.27
302.881	3.93
303.095	61.27
303.309	30.55
303.524	-24.75
303.738	59.22
303.952	-20.65
304.166	65.36
304.381	-6.31
304.595	16.21
304.809	16.21
305.023	22.36
305.237	-24.75
305.452	12.12
305.666	40.79
305.88	53.08
306.094	73.56
306.308	118.61
306.522	-14.51
306.736	65.36
306.95	48.98
307.164	16.21
307.379	24.4
307.593	-2.22
307.807	48.98
308.021	73.56
308.235	73.56
308.449	1.88
308.663	44.88
308.877	112.47
309.091	73.56
309.305	32.6
309.519	-57.51
309.733	100.18
309.947	-34.99
310.161	102.23
310.374	46.93
310.588	34.64
310.802	53.08
311.016	81.75
311.23	40.79
311.444	-49.32
311.658	-4.27
311.872	89.94
312.085	53.08
312.299	32.6
312.513	16.21
312.727	-26.79
312.941	46.93
313.154	75.6
313.368	51.03
313.582	-6.31
313.796	44.88
314.009	122.71
314.223	55.12
314.437	81.75
314.651	48.98
314.864	51.03
315.078	12.12
315.292	53.08
315.505	36.69
315.719	42.84
315.933	46.93
316.146	-30.89
316.36	34.64
316.573	-4.27
316.787	48.98
317.001	85.84
317.214	-0.17
317.428	20.31
317.641	26.45
317.855	-20.65
318.068	51.03
318.282	116.56
318.495	28.5
318.709	61.27
318.922	-20.65
319.136	26.45
319.349	67.41
319.563	32.6
319.776	112.47
319.99	20.31
320.203	51.03
320.417	12.12
320.63	16.21
320.843	81.75
321.057	69.46
321.27	114.52
321.483	89.94
321.697	42.84
321.91	36.69
322.124	18.26
322.337	46.93
322.55	-22.7
322.763	14.17
322.977	100.18
323.19	57.17
323.403	34.64
323.617	106.32
323.83	57.17
324.043	-12.46
324.256	73.56
324.469	48.98
324.683	57.17
324.896	34.64
325.109	32.6
325.322	3.93
325.535	51.03
325.748	55.12
325.962	-37.03
326.175	81.75
326.388	85.84
326.601	24.4
326.814	34.64
327.027	20.31
327.24	130.9
327.453	-45.23
327.666	28.5
327.879	59.22
328.092	46.93
328.305	14.17
328.518	46.93
328.731	44.88
328.944	1.88
329.157	53.08
329.37	40.79
329.583	155.47
329.796	85.84
330.009	44.88
330.222	34.64
330.435	36.69
330.648	48.98
330.861	26.45
331.073	40.79
331.286	-20.65
331.499	96.08
331.712	28.5
331.925	-0.17
332.138	104.28
332.35	91.99
332.563	24.4
332.776	73.56
332.989	42.84
333.202	53.08
333.414	77.65
333.627	-47.27
333.84	61.27
334.053	18.26
334.265	26.45
334.478	77.65
334.691	40.79
334.903	112.47
335.116	44.88
335.329	44.88
335.541	32.6
335.754	59.22
335.966	18.26
336.179	153.43
336.392	83.8
336.604	48.98
336.817	24.4
337.029	51.03
337.242	83.8
337.454	124.76
337.667	38.74
337.88	94.04
338.092	65.36
338.305	-0.17
338.517	26.45
338.729	16.21
338.942	28.5
339.154	28.5
339.367	-55.47
339.579	22.36
339.792	-49.32
340.004	42.84
340.217	1.88
340.429	65.36
340.641	28.5
340.854	51.03
341.066	53.08
341.278	83.8
341.491	-12.46
341.703	42.84
341.915	10.07
342.128	42.84
342.34	32.6
342.552	63.32
342.764	57.17
342.977	18.26
343.189	24.4
343.401	42.84
343.613	-12.46
343.826	26.45
344.038	18.26
344.25	53.08
344.462	-16.55
344.674	83.8
344.886	-41.13
345.099	34.64
345.311	73.56
345.523	24.4
345.735	102.23
345.947	26.45
346.159	8.02
346.371	26.45
346.583	100.18
346.795	98.13
347.007	26.45
347.219	36.69
347.431	32.6
347.643	85.84
347.855	38.74
348.067	20.31
348.279	-30.89
348.491	83.8
348.703	32.6
348.915	36.69
349.127	-2.22
349.339	28.5
349.551	61.27
349.763	67.41
349.975	71.51
350.187	59.22
350.399	38.74
350.61	-14.51
350.822	40.79
351.034	67.41
351.246	28.5
351.458	67.41
351.669	73.56
351.881	73.56
352.093	-8.36
352.305	139.09
352.517	-24.75
352.728	26.45
352.94	10.07
353.152	48.98
353.363	-2.22
353.575	96.08
353.787	32.6
353.999	44.88
354.21	112.47
354.422	85.84
354.633	-14.51
354.845	57.17
355.057	-6.31
355.268	89.94
355.48	85.84
355.692	44.88
355.903	40.79
356.115	48.98
356.326	8.02
356.538	83.8
356.749	-20.65
356.961	59.22
357.172	51.03
357.384	40.79
357.595	65.36
357.807	73.56
358.018	22.36
358.23	89.94
358.441	83.8
358.653	1.88
358.864	8.02
359.075	-10.41
359.287	53.08
359.498	83.8
359.709	10.07
359.921	-45.23
360.132	77.65
360.344	51.03
360.555	-14.51
360.766	40.79
360.977	69.46
361.189	32.6
361.4	14.17
361.611	65.36
361.823	53.08
362.034	48.98
362.245	85.84
362.456	71.51
362.667	28.5
362.879	77.65
363.09	-12.46
363.301	77.65
363.512	51.03
363.723	51.03
363.935	114.52
364.146	26.45
364.357	-8.36
364.568	48.98
364.779	40.79
364.99	89.94
365.201	-6.31
365.412	51.03
365.623	-32.94
365.834	28.5
366.045	24.4
366.256	83.8
366.467	32.6
366.678	-8.36
366.889	28.5
367.1	1.88
367.311	100.18
367.522	65.36
367.733	85.84
367.944	53.08
368.155	83.8
368.366	89.94
368.577	-30.89
368.788	-6.31
368.999	1.88
369.209	65.36
369.42	24.4
369.631	65.36
369.842	65.36
370.053	67.41
370.264	8.02
370.474	36.69
370.685	73.56
370.896	10.07
371.107	40.79
371.317	122.71
371.528	16.21
371.739	85.84
371.95	67.41
372.16	34.64
372.371	24.4
372.582	20.31
372.792	28.5
373.003	87.89
373.214	55.12
373.424	69.46
373.635	48.98
373.846	85.84
374.056	106.32
374.267	-43.18
374.477	26.45
374.688	18.26
374.898	65.36
375.109	108.37
375.319	18.26
375.53	96.08
375.74	65.36
375.951	-26.79
376.161	112.47
376.372	57.17
376.582	28.5
376.793	77.65
377.003	-12.46
377.214	20.31
377.424	40.79
377.635	75.6
377.845	57.17
378.055	67.41
378.266	38.74
378.476	26.45
378.686	94.04
378.897	57.17
379.107	85.84
379.317	-12.46
379.528	67.41
379.738	20.31
379.948	-24.75
380.158	42.84
380.369	61.27
380.579	91.99
380.789	-14.51
380.999	53.08
381.21	34.64
381.42	118.61
381.63	40.79
381.84	61.27
382.05	16.21
382.261	57.17
382.471	71.51
382.681	28.5
382.891	130.9
383.101	85.84
383.311	65.36
383.521	30.55
383.731	10.07
383.941	73.56
384.151	48.98
384.361	55.12
384.571	-10.41
384.781	108.37
384.991	116.56
385.201	71.51
385.411	149.33
385.621	106.32
385.831	20.31
386.041	79.7
386.251	14.17
386.461	16.21
386.671	59.22
386.881	85.84
387.091	89.94
387.301	96.08
387.511	77.65
387.72	122.71
387.93	81.75
388.14	67.41
388.35	63.32
388.56	139.09
388.769	16.21
388.979	16.21
389.189	20.31
389.399	46.93
389.609	51.03
389.818	100.18
390.028	24.4
390.238	104.28
390.447	40.79
390.657	51.03
390.867	98.13
391.076	26.45
391.286	69.46
391.496	12.12
391.705	98.13
391.915	89.94
392.125	132.95
392.334	-4.27
392.544	130.9
392.753	85.84
392.963	32.6
393.172	108.37
393.382	89.94
393.591	149.33
393.801	48.98
394.01	155.47
394.22	106.32
394.429	24.4
394.639	100.18
394.848	126.8
395.058	124.76
395.267	24.4
395.477	96.08
395.686	79.7
395.895	124.76
396.105	73.56
396.314	118.61
396.524	89.94
396.733	151.38
396.942	108.37
397.152	65.36
397.361	89.94
397.57	130.9
397.78	65.36
397.989	24.4
398.198	106.32
398.407	85.84
398.617	75.6
398.826	34.64
399.035	147.28
399.244	75.6
399.453	44.88
399.663	34.64
399.872	147.28
400.081	20.31
400.29	63.32
400.499	149.33
400.708	147.28
400.917	44.88
401.127	98.13
401.336	110.42
401.545	200.53
401.754	145.24
401.963	151.38
402.172	180.05
402.381	81.75
402.59	155.47
402.799	81.75
403.008	163.67
403.217	87.89
403.426	155.47
403.635	180.05
403.844	89.94
404.053	200.53
404.262	135
404.471	167.76
404.68	137.04
404.888	130.9
405.097	100.18
405.306	198.48
405.515	137.04
405.724	106.32
405.933	163.67
406.142	180.05
406.35	196.43
406.559	171.86
406.768	194.39
406.977	302.93
407.185	190.29
407.394	229.2
407.603	180.05
407.812	192.34
408.02	245.59
408.229	106.32
408.438	290.64
408.646	257.87
408.855	286.54
409.064	296.78
409.272	233.3
409.481	311.12
409.69	278.35
409.898	272.21
410.107	259.92
410.315	270.16
410.524	253.78
410.733	319.31
410.941	347.98
411.15	331.6
411.358	368.46
411.567	372.56
411.775	393.04
411.984	356.18
412.192	345.94
412.401	423.76
412.609	425.81
412.818	360.27
413.026	403.28
413.234	423.76
413.443	540.49
413.651	485.2
413.86	532.3
414.068	581.45
414.276	567.12
414.485	632.65
414.693	651.08
414.901	640.84
415.11	679.75
415.318	657.23
415.526	753.48
415.734	663.37
415.943	753.48
416.151	831.3
416.359	753.48
416.567	829.26
416.776	839.5
416.984	925.51
417.192	989
417.4	902.98
417.608	960.33
417.817	880.46
418.025	1005.38
418.233	1212.23
418.441	1042.25
418.649	1079.11
418.857	1269.57
419.065	1232.71
419.273	1169.22
419.481	1294.15
419.689	1294.15
419.897	1376.06
420.105	1353.54
420.313	1484.61
420.521	1515.33
420.729	1423.17
420.937	1593.15
421.145	1625.92
421.353	1673.02
421.561	1763.13
421.769	1785.66
421.977	1916.73
422.185	1904.44
422.393	1978.17
422.601	2129.72
422.809	2088.76
423.017	2146.1
423.224	2287.41
423.432	2328.37
423.64	2283.31
423.848	2484.02
424.056	2459.44
424.263	2610.99
424.471	2613.04
424.679	2645.8
424.887	2809.64
425.094	2963.24
425.302	2840.36
425.51	2944.81
425.718	3157.8
425.925	3139.37
426.133	3295.01
426.341	3583.77
426.548	3514.14
426.756	3665.69
426.964	3723.04
427.171	3899.16
427.379	3970.84
427.586	4015.9
427.794	4214.55
428.001	4474.64
428.209	4472.59
428.417	4425.49
428.624	4654.86
428.832	4759.31
429.039	4931.34
429.247	4759.31
429.454	5179.14
429.662	5482.24
429.869	5175.05
430.076	5625.6
430.284	5515.01
430.491	5660.41
430.699	5965.56
430.906	5965.56
431.114	6049.53
431.321	6323.96
431.528	6278.9
431.736	6731.5
431.943	7102.18
432.15	6850.28
432.358	7018.22
432.565	7419.62
432.772	7507.68
432.979	7675.62
433.187	7880.41
433.394	7874.27
433.601	8546
433.808	8535.76
434.016	8335.06
434.223	8777.42
434.43	9236.17
434.637	9201.35
434.844	9549.51
435.052	9887.42
435.259	9684.67
435.466	9690.82
435.673	9707.2
435.88	10370.74
436.087	10989.23
436.294	10923.69
436.501	10796.72
436.708	11022
436.915	11386.54
437.122	11640.48
437.329	11724.45
437.537	12060.32
437.743	12197.53
437.95	12250.78
438.157	12732.05
438.364	13311.63
438.571	13080.21
438.778	13303.43
438.985	14425.72
439.192	14073.47
439.399	14308.99
439.606	13883.01
439.813	14943.86
440.02	15763.04
440.227	15681.13
440.433	15461.99
440.64	15793.76
440.847	15615.59
441.054	16033.38
441.261	17237.58
441.467	17096.27
441.674	17356.36
441.881	18058.82
442.088	17833.54
442.294	17645.13
442.501	18423.36
442.708	18325.05
442.914	19162.67
443.121	20012.58
443.328	19336.75
443.534	20690.46
443.741	20315.68
443.948	20008.48
444.154	21380.62
444.361	21052.95
444.568	21089.81
444.774	21573.13
444.981	21751.31
445.187	22326.78
445.394	23207.41
445.6	23096.82
445.807	24821.21
446.013	23866.86
446.22	24595.93
446.426	25300.44
446.633	25767.37
446.839	26420.67
447.046	25542.1
447.252	26660.29
447.459	26715.58
447.665	26838.46
447.871	28067.24
448.078	29001.11
448.284	27780.53
448.491	28327.33
448.697	29644.18
448.903	30324.1
449.11	30242.18
449.316	29533.59
449.522	30512.52
449.728	30967.16
449.935	31110.52
450.141	31542.64
450.347	31946.09
450.553	31094.14
450.76	31214.97
450.966	32869.73
451.172	32161.13
451.378	32830.82
451.584	32347.5
451.791	33072.48
451.997	33025.37
452.203	33776.98
452.409	33838.42
452.615	33400.15
452.821	32073.07
453.027	31593.84
453.233	33758.55
453.44	32445.8
453.646	32746.85
453.852	33273.18
454.058	33443.16
454.264	32470.37
454.47	32935.26
454.676	32617.83
454.882	33467.73
455.088	30432.64
455.294	31124.86
455.5	31788.4
455.705	32189.8
455.911	30328.2
456.117	29957.52
456.323	29377.94
456.529	27895.21
456.735	29109.66
456.941	28757.41
457.147	27983.27
457.352	27590.06
457.558	27063.74
457.764	27028.92
457.97	26660.29
458.176	25959.88
458.381	26072.52
458.587	24915.42
458.793	24911.32
458.999	23506.41
459.204	25464.27
459.41	24473.06
459.616	22842.87
459.821	22836.73
460.027	22875.64
460.233	22345.22
460.438	21259.79
460.644	21634.57
460.85	20610.59
461.055	20454.94
461.261	20014.63
461.466	18443.84
461.672	18171.46
461.878	19271.22
462.083	17999.43
462.289	17720.9
462.494	17716.81
462.7	16682.58
462.905	16303.71
463.111	17165.9
463.316	16762.45
463.522	16705.11
463.727	16834.13
463.932	16148.06
464.138	16293.47
464.343	16647.77
464.549	16049.76
464.754	16635.48
464.959	16490.07
465.165	16105.06
465.37	15619.69
465.575	15369.83
465.781	15855.2
465.986	16057.95
466.191	15242.86
466.397	14958.19
466.602	14509.69
466.807	15021.68
467.012	14786.16
467.218	14661.24
467.423	14624.37
467.628	14540.41
467.833	15212.14
468.038	14679.67
468.244	14306.94
468.449	14900.85
468.654	14515.83
468.859	14237.31
469.064	14118.53
469.269	13614.73
469.474	13602.44
469.679	14196.35
469.885	13463.18
470.09	13776.52
470.295	13594.25
470.5	13493.9
470.705	13483.66
470.91	13176.46
471.115	12983.95
471.32	13254.28
471.525	13172.36
471.73	12754.58
471.935	12693.14
472.139	12289.69
472.344	12621.46
472.549	12451.48
472.754	12443.29
472.959	12140.19
473.164	11673.25
473.369	11734.69
473.574	12099.23
473.778	11994.78
473.983	11839.14
474.188	11923.1
474.393	11216.55
474.598	11239.08
474.802	11103.92
475.007	10972.85
475.212	11298.47
475.417	10786.48
475.621	10788.53
475.826	10911.41
476.031	10501.81
476.235	10415.8
476.44	10630.84
476.645	10307.26
476.849	10331.83
477.054	10157.75
477.259	10079.93
477.463	9971.39
477.668	9864.89
477.872	10024.64
478.077	9637.57
478.282	9455.3
478.486	9479.88
478.691	9563.84
478.895	9258.7
479.1	9342.66
479.304	9359.05
479.509	8974.03
479.713	9193.16
479.918	9131.72
480.122	8806.09
480.326	9041.61
480.531	8957.64
480.735	9055.95
480.94	8685.26
481.144	9035.47
481.348	8490.71
481.553	8802
481.757	8593.11
481.961	8808.14
482.166	8709.84
482.37	8830.67
482.574	8523.48
482.778	8689.36
482.983	8816.33
483.187	8556.24
483.391	8734.42
483.595	8668.88
483.8	8617.68
484.004	8701.65
484.208	8644.31
484.412	8486.61
484.616	8601.3
484.821	8675.02
485.025	8468.18
485.229	8777.42
485.433	8498.9
485.637	8724.18
485.841	8414.93
486.045	8498.9
486.249	8584.91
486.453	8562.39
486.657	8660.69
486.861	8543.95
487.065	8335.06
487.269	8404.69
487.473	8503
487.677	8470.23
487.881	8802
488.085	8570.58
488.289	8711.89
488.493	8613.59
488.697	8726.22
488.901	8629.97
489.105	8511.19
489.309	8693.46
489.512	8687.31
489.716	8879.82
489.92	8683.22
490.124	8834.77
490.328	8994.51
490.531	8529.62
490.735	8900.3
490.939	8918.73
491.143	8888.01
491.346	8812.24
491.55	8994.51
491.754	8885.97
491.958	8933.07
492.161	9139.91
492.365	9088.71
492.569	9098.95
492.772	8906.45
492.976	9184.97
493.18	9234.12
493.383	9121.48
493.587	9428.68
493.79	9264.84
493.994	9328.33
494.197	9445.06
494.401	9436.87
494.605	9563.84
494.808	9602.75
495.012	9723.58
495.215	9739.97
495.419	10014.4
495.622	9608.9
495.825	9944.77
496.029	10016.44
496.232	10149.56
496.436	10297.02
496.639	10163.9
496.843	10383.03
497.046	10497.72
497.249	10610.36
497.453	10776.24
497.656	10813.1
497.859	10647.22
498.063	10841.78
498.266	11191.98
498.469	11333.29
498.673	11132.59
498.876	11347.62
499.079	11361.96
499.282	11431.59
499.485	11812.51
499.689	11628.2
499.892	12025.5
500.095	11984.54
500.298	12312.22
500.501	12170.91
500.705	12254.87
500.908	12664.47
501.111	12750.48
501.314	12758.67
501.517	12871.31
501.72	12897.94
501.923	12975.76
502.126	13383.31
502.329	13575.81
502.532	13538.95
502.735	13631.11
502.938	14003.84
503.141	14159.49
503.344	14317.18
503.547	14208.64
503.75	14597.75
503.953	14741.11
504.156	14933.62
504.359	14831.22
504.562	15052.4
504.765	15386.22
504.968	15494.76
505.17	15836.77
505.373	15629.93
505.576	15744.61
505.779	16027.23
505.982	16135.78
506.185	16768.6
506.387	16516.7
506.59	16686.68
506.793	17116.75
506.996	16975.44
507.198	17362.51
507.401	17348.17
507.604	17509.96
507.807	17770.05
508.009	17880.64
508.212	18144.83
508.415	18292.29
508.617	18665.02
508.82	18689.59
509.022	18720.31
509.225	19168.82
509.428	19371.57
509.63	19230.26
509.833	19668.52
510.035	19988
510.238	19916.33
510.44	20026.92
510.643	20358.69
510.845	20450.85
511.048	20364.83
511.25	20964.89
511.453	20897.3
511.655	21282.32
511.858	21335.57
512.06	21173.78
512.262	21751.31
512.465	22070.79
512.667	22289.92
512.87	22185.47
513.072	22576.64
513.274	22912.5
513.477	23006.71
513.679	23301.62
513.881	23508.46
514.084	23649.77
514.286	23846.38
514.488	24172
514.69	24262.12
514.893	24444.38
515.095	24290.79
515.297	25013.72
515.499	25071.06
515.701	25482.7
515.904	25447.89
516.106	25746.89
516.308	26152.39
516.51	26400.19
516.712	26213.83
516.914	26572.22
517.116	27049.4
517.318	27094.46
517.52	27540.91
517.722	27665.84
517.925	27600.3
518.127	27932.08
518.329	28216.74
518.531	28116.39
518.733	28421.54
518.935	28736.93
519.136	29044.12
519.338	29402.52
519.54	29486.48
519.742	29527.44
519.944	29787.53
520.146	30170.5
520.348	30209.42
520.55	30717.31
520.752	30387.59
520.954	31387
521.155	30844.29
521.357	31182.2
521.559	31395.19
521.761	32351.59
521.963	31972.72
522.164	31935.85
522.366	32335.21
522.568	32709.99
522.77	32750.95
522.971	33252.7
523.173	32890.21
523.375	33314.14
523.576	33469.78
523.778	33797.46
523.98	33865.04
524.181	34055.5
524.383	33770.83
524.584	34497.86
524.786	34477.38
524.988	34235.72
525.189	34833.73
525.391	34956.61
525.592	35194.17
525.794	35214.65
525.995	35448.12
526.197	35482.94
526.398	35605.81
526.6	35925.3
526.801	35769.65
527.003	36140.33
527.204	35824.95
527.406	36361.51
527.607	36400.43
527.808	36900.13
528.01	36146.48
528.211	36463.91
528.412	37086.5
528.614	36779.3
528.815	36717.86
529.016	37393.69
529.218	37127.45
529.419	37430.55
529.62	37139.74
529.822	37238.05
530.023	37215.52
530.224	37336.35
530.425	37598.49
530.626	37006.62
530.828	37104.93
531.029	37940.5
531.23	37483.8
531.431	37221.66
531.632	37864.72
531.833	38133.01
532.035	37727.51
532.236	37786.9
532.437	37872.92
532.638	37442.84
532.839	37997.84
533.04	38360.33
533.241	38055.18
533.442	38423.82
533.643	38235.41
533.844	37938.45
534.045	38331.66
534.246	38010.13
534.447	38214.93
534.648	38206.73
534.849	38309.13
535.05	37774.61
535.251	38348.04
535.451	38083.86
535.652	38405.39
535.853	38057.23
536.054	38284.56
536.255	38446.35
536.456	37891.35
536.657	38540.55
536.857	38262.03
537.058	37901.59
537.259	38354.19
537.46	38313.23
537.66	38057.23
537.861	38268.17
538.062	38186.25
538.263	38126.86
538.463	38141.2
538.664	38255.89
538.865	38008.08
539.065	38522.12
539.266	38104.34
539.466	38284.56
539.667	37645.59
539.868	38237.45
540.068	38245.65
540.269	37967.12
540.469	38323.47
540.67	37641.49
540.87	38081.81
541.071	37897.49
541.271	37856.53
541.472	38161.68
541.672	38200.59
541.873	37489.95
542.073	37612.82
542.274	38223.12
542.474	38016.27
542.675	37758.23
542.875	38491.4
543.075	37938.45
543.276	37522.71
543.476	38176.01
543.676	37877.01
543.877	37872.92
544.077	37618.97
544.277	37852.44
544.478	37743.89
544.678	38079.76
544.878	37983.51
545.078	38241.55
545.279	37774.61
545.479	37602.58
545.679	37747.99
545.879	37924.11
546.079	37631.26
546.28	37424.41
546.48	37559.58
546.68	37743.89
546.88	37860.63
547.08	37649.69
547.28	37555.48
547.48	37170.46
547.68	37842.2
547.88	37207.33
548.081	37625.11
548.281	37463.32
548.481	37348.64
548.681	38018.32
548.881	37704.98
549.081	38030.61
549.28	37391.64
549.48	38044.94
549.68	37573.91
549.88	38092.05
550.08	37250.33
550.28	37598.49
550.48	37139.74
550.68	37717.27
550.88	37461.27
551.08	37588.25
551.279	37522.71
551.479	37127.45
551.679	37768.47
551.879	37539.1
552.079	37575.96
552.278	37301.53
552.478	37303.58
552.678	37178.65
552.878	37145.89
553.077	37244.19
553.277	36863.27
553.477	37590.3
553.676	37365.02
553.876	36668.71
554.076	36756.77
554.275	36713.77
554.475	36984.1
554.674	37025.06
554.874	36754.72
555.074	36871.46
555.273	37246.24
555.473	37455.13
555.672	36709.67
555.872	36633.89
556.071	36633.89
556.271	37412.12
556.47	36826.4
556.67	36525.35
556.869	36752.68
557.068	36728.1
557.268	36517.16
557.467	36916.51
557.667	36648.23
557.866	36662.57
558.065	36345.13
558.265	36412.71
558.464	36193.58
558.663	36758.82
558.863	36318.51
559.062	36480.3
559.261	36138.29
559.461	36781.35
559.66	35716.4
559.859	36248.88
560.058	35880.24
560.258	36066.61
560.457	35861.81
560.656	36058.42
560.855	35929.39
561.054	36119.85
561.253	35478.84
561.453	36037.94
561.652	36009.26
561.851	36189.49
562.05	35450.17
562.249	35319.1
562.448	35745.08
562.647	35679.54
562.846	35722.55
563.045	35925.3
563.244	35247.42
563.443	35767.6
563.642	35003.71
563.841	35353.91
564.04	35269.95
564.239	35544.37
564.438	35081.53
564.637	35247.42
564.836	35220.8
565.035	34901.31
565.234	34706.76
565.432	34889.02
565.631	34749.76
565.83	34907.46
566.029	34717
566.228	34489.67
566.427	34602.31
566.625	34172.24
566.824	34123.08
567.023	34772.29
567.222	33809.75
567.42	34420.04
567.619	34485.58
567.818	34096.46
568.016	33869.14
568.215	33717.59
568.414	33987.92
568.612	34202.96
568.811	33914.19
569.01	34139.47
569.208	33531.22
569.407	34116.94
569.605	33441.11
569.804	33733.97
570.002	33504.6
570.201	33725.78
570.4	33310.04
570.598	33099.1
570.797	32900.45
570.995	33203.55
571.193	32761.19
571.392	33500.5
571.59	32830.82
571.789	32793.95
571.987	32832.86
572.186	32834.91
572.384	32632.16
572.582	32761.19
572.781	32689.51
572.979	32292.2
573.177	32736.61
573.376	32519.53
573.574	31933.81
573.772	32486.76
573.971	32406.89
574.169	32081.26
574.367	31898.99
574.565	32099.69
574.763	31706.48
574.962	32038.25
575.16	31653.23
575.358	31917.42
575.556	31626.61
575.754	31772.02
575.952	31124.86
576.151	31464.82
576.349	31094.14
576.547	31438.2
576.745	31090.04
576.943	31167.87
577.141	31282.55
577.339	30793.09
577.537	31059.32
577.735	30801.28
577.933	30758.27
578.131	30993.79
578.329	30608.77
578.527	30494.08
578.725	30229.9
578.923	30709.12
579.121	30147.98
579.319	30066.06
579.516	30625.15
579.714	30328.2
579.912	30150.03
580.11	29805.97
580.308	29984.14
580.506	29742.48
580.704	29631.89
580.901	29926.8
581.099	30080.39
581.297	29617.55
581.495	29670.8
581.692	29808.01
581.89	29535.63
582.088	29601.17
582.285	29226.39
582.483	29238.68
582.681	29066.65
582.878	28915.1
583.076	28833.18
583.274	29291.93
583.471	28626.34
583.669	28704.16
583.866	28532.13
584.064	29093.27
584.262	28593.57
584.459	28669.34
584.657	28327.33
584.854	28599.71
585.052	28204.45
585.249	28388.77
585.447	28249.51
585.644	27821.48
585.841	28093.86
586.039	28313
586.236	27694.51
586.434	27485.62
586.631	28024.23
586.828	27600.3
587.026	27690.41
587.223	27712.94
587.42	27532.72
587.618	27827.63
587.815	27221.43
588.012	27110.84
588.21	27112.89
588.407	27256.25
588.604	27213.24
588.801	26711.49
588.999	26828.22
589.196	26817.98
589.393	27035.06
589.59	26715.58
589.787	26582.46
589.984	26219.97
590.182	26480.07
590.379	26572.22
590.576	26451.39
590.773	26435.01
590.97	26121.67
591.167	26295.75
591.364	25894.35
591.561	26006.98
591.758	25691.6
591.955	25843.15
592.152	25763.28
592.349	25624.01
592.546	25996.74
592.743	25568.72
592.94	25499.09
593.137	25640.4
593.334	25400.79
593.531	25144.79
593.727	25337.3
593.924	25236.95
594.121	24983
594.318	25134.55
594.515	24798.68
594.712	25161.17
594.908	24829.4
595.105	25157.08
595.302	24358.37
595.499	24634.85
595.696	24694.24
595.892	24192.48
596.089	24516.06
596.286	24595.93
596.482	24358.37
596.679	23936.49
596.876	24452.58
597.072	24108.52
597.269	24266.21
597.466	23719.4
597.662	23916.01
597.859	23836.14
598.055	23741.93
598.252	23465.46
598.448	23557.61
598.645	23571.95
598.841	23264.75
599.038	23479.79
599.234	23178.74
599.431	23246.32
599.627	22998.52
599.824	23389.68
600.02	23309.81
600.217	23277.04
600.413	23016.95
600.609	22726.14
600.806	23223.79
601.002	22930.94
601.198	22619.64
601.395	22431.23
601.591	22533.63
601.787	22474.24
601.984	22318.59
602.18	22978.04
602.376	22306.3
602.572	22165
602.769	22267.39
602.965	21941.77
603.161	22076.93
603.357	21736.97
603.553	21833.22
603.75	21859.85
603.946	21489.17
604.142	21661.19
604.338	21411.34
604.534	21483.02
604.73	21327.38
604.926	21480.97
605.122	21233.17
605.318	21208.59
605.514	21378.58
605.71	21370.38
605.906	21018.13
606.102	21222.93
606.298	21255.7
606.494	21169.68
606.69	21120.53
606.886	20911.64
607.082	20526.62
607.278	20930.07
607.474	20551.2
607.67	21038.61
607.866	20672.03
608.062	21098
608.257	20626.97
608.453	20667.93
608.649	20463.13
608.845	20293.15
609.041	20178.47
609.236	20487.71
609.432	20506.14
609.628	20215.33
609.824	20315.68
610.019	20244
610.215	20188.71
610.411	20221.47
610.606	19955.24
610.802	19912.23
610.998	20084.26
611.193	19877.41
611.389	19897.89
611.584	19846.69
611.78	19611.18
611.976	19924.52
612.171	19701.29
612.367	19623.47
612.562	19744.3
612.758	19394.09
612.953	19490.35
613.149	19883.56
613.344	19576.36
613.539	19713.58
613.735	19373.61
613.93	19349.04
614.126	19306.03
614.321	19707.43
614.517	19433
614.712	19498.54
614.907	19490.35
615.103	19277.36
615.298	19123.76
615.493	19353.13
615.688	19197.49
615.884	19260.98
616.079	18976.31
616.274	19054.13
616.47	19342.89
616.665	18927.16
616.86	18853.43
617.055	18937.4
617.25	18607.67
617.445	19064.37
617.641	18603.58
617.836	18789.94
618.031	18550.33
618.226	18619.96
618.421	18431.55
618.616	18726.46
618.811	18431.55
619.006	18624.06
619.201	18153.02
619.396	18345.53
619.591	18026.05
619.786	18155.07
619.981	17702.47
620.176	18081.35
620.371	17931.84
620.566	17851.97
620.761	17770.05
620.956	17753.67
621.151	17219.15
621.346	17653.32
621.541	17385.04
621.735	17466.95
621.93	17206.86
622.125	17266.25
622.32	16895.57
622.515	17016.4
622.709	16975.44
622.904	17040.98
623.099	16852.56
623.294	16666.2
623.488	16408.15
623.683	16805.46
623.878	16436.83
624.072	16184.93
624.267	16565.85
624.462	16336.48
624.656	16109.15
624.851	16051.81
625.046	15883.87
625.24	15748.71
625.435	15654.5
625.629	15814.24
625.824	15482.47
626.018	15441.51
626.213	15255.15
626.407	15416.94
626.602	15101.55
626.796	15400.55
626.991	15056.5
627.185	15101.55
627.38	14962.29
627.574	15070.83
627.768	14622.33
627.963	14712.44
628.157	14374.52
628.352	14804.6
628.546	14388.86
628.74	14524.02
628.935	14403.19
629.129	14407.29
629.323	14024.32
629.517	14044.8
629.712	14188.16
629.906	13934.21
630.1	13903.49
630.294	13995.65
630.489	13880.96
630.683	13672.07
630.877	13698.69
631.071	13667.97
631.265	13391.5
631.459	13366.92
631.653	13448.84
631.848	13334.15
632.042	13307.53
632.236	13176.46
632.43	13024.91
632.624	13155.98
632.818	12705.43
633.012	12822.16
633.206	12779.15
633.4	12621.46
633.594	12592.79
633.788	12535.45
633.982	12594.84
634.176	12246.68
634.369	12377.75
634.563	12359.32
634.757	12226.2
634.951	12336.79
635.145	12258.97
635.339	12084.89
635.533	11984.54
635.726	12236.44
635.92	11529.89
636.114	12185.24
636.308	11804.32
636.501	11599.52
636.695	11708.07
636.889	11650.72
637.083	11540.13
637.276	11495.08
637.47	11427.49
637.664	11486.89
637.857	11312.81
638.051	11366.06
638.244	11085.48
638.438	11105.96
638.632	11116.2
638.825	10952.37
639.019	10907.31
639.212	10624.69
639.406	10841.78
639.599	10929.84
639.793	10630.84
639.986	10784.43
640.18	10630.84
640.373	10778.29
640.567	10569.4
640.76	10489.53
640.954	10350.26
641.147	10356.41
641.34	10213.05
641.534	10526.39
641.727	10325.69
641.92	9983.68
642.114	9959.1
642.307	10149.56
642.5	10141.37
642.694	9895.61
642.887	9766.59
643.08	9838.27
643.273	9932.48
643.467	9742.02
643.66	9690.82
643.853	9449.16
644.046	9569.99
644.239	9791.17
644.432	9498.31
644.626	9346.76
644.819	9221.83
645.012	9377.48
645.205	9397.96
645.398	9248.46
645.591	9277.13
645.784	9141.96
645.977	9043.66
646.17	9223.88
646.363	8888.01
646.556	9023.18
646.749	8992.46
646.942	8822.48
647.135	8898.25
647.328	8795.86
647.521	8904.4
647.714	8470.23
647.907	8568.53
648.099	8648.4
648.292	8593.11
648.485	8488.66
648.678	8359.64
648.871	8482.52
649.064	8279.77
649.256	8392.41
649.449	8392.41
649.642	8261.34
649.835	8251.1
650.027	8177.37
650.22	8144.6
650.413	7931.61
650.605	7954.14
650.798	8064.73
650.991	7937.76
651.183	7995.1
651.376	7915.23
651.568	7808.73
651.761	7778.01
651.954	7835.36
652.146	8015.58
652.339	7702.24
652.531	7589.6
652.724	7636.7
652.916	7610.08
653.109	7436
653.301	7659.23
653.494	7339.75
653.686	7380.71
653.879	7511.78
654.071	7268.07
654.263	7313.13
654.456	7253.73
654.648	7096.04
654.84	7046.89
655.033	7190.25
655.225	7169.77
655.417	7016.17
655.61	7096.04
655.802	7040.75
655.994	6993.64
656.186	6983.4
656.379	6813.42
656.571	6967.02
656.763	6807.28
656.955	6930.16
657.148	6764.27
657.34	6817.52
657.532	6692.59
657.724	6557.43
657.916	6723.31
658.108	6620.91
658.3	6618.86
658.492	6657.78
658.684	6375.16
658.876	6506.23
659.068	6469.36
659.26	6375.16
659.452	6395.64
659.644	6266.61
659.836	6450.93
660.028	6371.06
660.22	6313.72
660.412	6125.3
660.604	6178.55
660.796	6063.86
660.988	6184.69
661.18	6029.05
661.372	6137.59
661.563	6119.16
661.755	6008.57
661.947	6104.82
662.139	5887.74
662.331	5822.2
662.522	5869.31
662.714	5781.25
662.906	5705.47
663.097	5713.66
663.289	5637.89
663.481	5662.46
663.673	5709.57
663.864	5717.76
664.056	5703.42
664.247	5547.78
664.439	5529.34
664.631	5459.71
664.822	5457.67
665.014	5531.39
665.205	5580.54
665.397	5498.63
665.588	5531.39
665.78	5271.3
665.971	5367.56
666.163	5287.68
666.354	5388.04
666.546	5277.44
666.737	5308.16
666.929	5291.78
667.12	5113.61
667.311	5201.67
667.503	5144.33
667.694	5136.13
667.885	5144.33
668.077	4978.44
668.268	4955.91
668.459	5080.84
668.651	4970.25
668.842	4980.49
669.033	4933.39
669.224	4888.33
669.416	5050.12
669.607	4771.6
669.798	4876.04
669.989	4968.2
670.18	4865.8
670.371	4857.61
670.563	4837.13
670.754	4808.46
670.945	4681.49
671.136	4615.95
671.327	4681.49
671.518	4759.31
671.709	4611.85
671.9	4730.64
672.091	4536.08
672.282	4550.42
672.473	4538.13
672.664	4519.7
672.855	4540.18
673.046	4517.65
673.237	4605.71
673.428	4613.9
673.619	4505.36
673.809	4458.26
674	4527.89
674.191	4491.02
674.382	4392.72
674.573	4603.66
674.764	4300.56
674.954	4443.92
675.145	4300.56
675.336	4359.95
675.527	4275.99
675.717	4253.46
675.908	4214.55
676.099	4239.12
676.289	4200.21
676.48	4286.23
676.671	4308.76
676.861	4161.3
677.052	4179.73
677.243	4161.3
677.433	4253.46
677.624	4177.69
677.814	4042.52
678.005	4099.86
678.195	4040.47
678.386	4071.19
678.576	3911.45
678.767	4103.96
678.957	3890.97
679.148	4019.99
679.338	4118.29
679.529	3991.32
679.719	3813.15
679.909	4046.62
680.1	4081.43
680.29	4063
680.481	4013.85
680.671	3925.79
680.861	3972.89
681.052	3948.31
681.242	3983.13
681.432	3940.12
681.622	3854.11
681.813	3796.76
682.003	3952.41
682.193	3813.15
682.383	3802.91
682.573	3702.56
682.764	3759.9
682.954	3778.33
683.144	3792.67
683.334	3675.93
683.524	3749.66
683.714	3839.77
683.904	3837.72
684.094	3809.05
684.284	3784.48
684.474	3804.96
684.664	3628.83
684.854	3710.75
685.044	3706.65
685.234	3778.33
685.424	3634.97
685.614	3723.04
685.804	3645.21
685.994	3645.21
686.184	3639.07
686.374	3655.45
686.564	3583.77
686.753	3450.66
686.943	3483.42
687.133	3514.14
687.323	3524.38
687.513	3450.66
687.702	3467.04
687.892	3450.66
688.082	3417.89
688.272	3428.13
688.461	3409.7
688.651	3448.61
688.841	3295.01
689.03	3325.73
689.22	3325.73
689.41	3256.1
689.599	3274.53
689.789	3284.77
689.979	3211.04
690.168	3368.74
690.358	3262.24
690.547	3319.59
690.737	3272.48
690.926	3206.95
691.116	3235.62
691.305	3163.94
691.495	3172.13
691.684	3079.97
691.874	3278.63
692.063	3122.98
692.252	3039.01
692.442	3163.94
692.631	3004.2
692.82	2961.19
693.01	3018.54
693.199	3084.07
693.388	3102.5
693.578	3010.34
693.767	2989.86
693.956	2985.77
694.146	3065.64
694.335	2942.76
694.524	2903.85
694.713	3016.49
694.902	2965.29
695.092	2969.38
695.281	2901.8
695.47	2903.85
695.659	2905.9
695.848	2918.18
696.037	2854.7
696.226	2805.55
696.415	2809.64
696.604	2780.97
696.793	2727.72
696.982	2740.01
697.171	2953
697.36	2875.18
697.549	2701.1
697.738	2842.41
697.927	2838.31
698.116	2674.48
698.305	2701.1
698.494	2664.24
698.683	2670.38
698.872	2744.11
699.061	2795.31
699.25	2780.97
699.438	2664.24
699.627	2688.81
699.816	2647.85
700.005	2737.96
700.193	2637.61
700.382	2688.81
700.571	2572.08
700.76	2760.49
700.948	2594.61
701.137	2617.13
701.326	2787.11
701.514	2674.48
701.703	2654
701.892	2598.7
702.08	2645.8
702.269	2541.36
702.457	2471.73
702.646	2625.33
702.834	2596.65
703.023	2631.47
703.212	2563.89
703.4	2664.24
703.589	2506.54
703.777	2670.38
703.965	2629.42
704.154	2654
704.342	2506.54
704.531	2584.37
704.719	2594.61
704.907	2664.24
705.096	2531.12
705.284	2508.59
705.472	2561.84
705.661	2510.64
705.849	2600.75
706.037	2498.35
706.226	2522.93
706.414	2502.45
706.602	2508.59
706.79	2488.11
706.979	2432.82
707.167	2559.79
707.355	2461.49
707.543	2508.59
707.731	2502.45
707.919	2490.16
708.107	2473.78
708.296	2340.66
708.484	2516.78
708.672	2432.82
708.86	2486.06
709.048	2490.16
709.236	2473.78
709.424	2395.95
709.612	2404.14
709.8	2398
709.988	2398
710.176	2391.86
710.364	2379.57
710.551	2328.37
710.739	2422.58
710.927	2326.32
711.115	2287.41
711.303	2432.82
711.491	2287.41
711.679	2391.86
711.866	2434.86
712.054	2436.91
712.242	2449.2
712.43	2295.6
712.617	2371.38
712.805	2293.55
712.993	2340.66
713.181	2221.88
713.368	2332.47
713.556	2391.86
713.744	2309.94
713.931	2379.57
714.119	2488.11
714.306	2346.8
714.494	2451.25
714.682	2359.09
714.869	2228.02
715.057	2363.19
715.244	2275.12
715.432	2377.52
715.619	2240.31
715.807	2293.55
715.994	2393.9
716.182	2326.32
716.369	2424.62
716.556	2400.05
716.744	2320.18
716.931	2334.51
717.119	2314.03
717.306	2268.98
717.493	2240.31
717.681	2309.94
717.868	2309.94
718.055	2287.41
718.242	2303.79
718.43	2293.55
718.617	2354.99
718.804	2320.18
718.991	2344.75
719.179	2297.65
719.366	2170.68
719.553	2271.03
719.74	2256.69
719.927	2340.66
720.114	2246.45
720.301	2254.64
720.488	2258.74
720.676	2359.09
720.863	2205.49
721.05	2236.21
721.237	2244.4
721.424	2273.07
721.611	2219.83
721.798	2129.72
721.985	2154.29
722.172	2246.45
722.358	2301.75
722.545	2154.29
722.732	2193.2
722.919	2271.03
723.106	2182.96
723.293	2305.84
723.48	2123.57
723.667	2168.63
723.853	2139.96
724.04	2242.36
724.227	2236.21
724.414	2121.52
724.6	2113.33
724.787	2285.36
724.974	2166.58
725.161	2268.98
725.347	2211.64
725.534	2055.99
725.72	2260.79
725.907	2232.12
726.094	2187.06
726.28	2121.52
726.467	2127.67
726.653	2182.96
726.84	2211.64
727.027	2142
727.213	2260.79
727.4	2060.09
727.586	2121.52
727.773	2154.29
727.959	2195.25
728.145	2236.21
728.332	2178.87
728.518	2010.93
728.705	2115.38
728.891	2131.76
729.077	2213.68
729.264	2191.16
729.45	2185.01
729.636	2219.83
729.823	2160.44
730.009	2260.79
730.195	2223.92
730.382	2252.59
730.568	2285.36
730.754	1959.74
730.94	2152.24
731.126	2230.07
731.313	2244.4
731.499	2205.49
731.685	2187.06
731.871	2099
732.057	2047.8
732.243	2160.44
732.429	2162.48
732.615	2144.05
732.801	2094.9
732.987	2055.99
733.173	2137.91
733.359	2221.88
733.545	2115.38
733.731	2041.65
733.917	2191.16
734.103	2170.68
734.289	2170.68
734.475	2115.38
734.661	2084.66
734.847	2228.02
735.033	2230.07
735.219	2017.08
735.404	2228.02
735.59	2092.85
735.776	2047.8
735.962	2039.61
736.148	2170.68
736.333	2047.8
736.519	2176.82
736.705	2058.04
736.89	2129.72
737.076	2131.76
737.262	2076.47
737.447	2051.89
737.633	2105.14
737.819	2092.85
738.004	2000.69
738.19	2055.99
738.375	1994.55
738.561	2125.62
738.747	2017.08
738.932	1949.5
739.118	2066.23
739.303	2025.27
739.489	2043.7
739.674	2023.22
739.859	1961.78
740.045	2033.46
740.23	1879.86
740.416	1929.02
740.601	2080.57
740.786	2025.27
740.972	1922.87
741.157	1916.73
741.342	1908.54
741.528	1953.59
741.713	2006.84
741.898	1994.55
742.084	1883.96
742.269	2055.99
742.454	2000.69
742.639	1963.83
742.824	1851.19
743.01	1969.98
743.195	1826.62
743.38	1656.64
743.565	1754.94
743.75	1855.29
743.935	1804.09
744.12	1843
744.305	1779.51
744.49	1945.4
744.675	1761.08
744.86	1853.24
745.045	1832.76
745.23	1763.13
745.415	1859.38
745.6	1769.27
745.785	1791.8
745.97	1734.46
746.155	1781.56
746.34	1711.93
746.525	1773.37
746.71	1746.75
746.895	1716.03
747.079	1650.49
747.264	1730.36
747.449	1740.6
747.634	1722.17
747.819	1722.17
748.003	1642.3
748.188	1638.2
748.373	1623.87
748.557	1654.59
748.742	1656.64
748.927	1638.2
749.111	1589.05
749.296	1640.25
749.481	1627.96
749.665	1617.72
749.85	1558.33
750.034	1531.71
750.219	1541.95
750.404	1498.94
750.588	1492.8
750.773	1478.46
750.957	1560.38
751.141	1482.56
751.326	1494.85
751.51	1363.78
751.695	1439.55
751.879	1367.87
752.064	1441.6
752.248	1404.74
752.432	1417.02
752.617	1406.78
752.801	1400.64
752.985	1376.06
753.17	1371.97
753.354	1308.48
753.538	1398.59
753.722	1300.29
753.907	1265.47
754.091	1253.19
754.275	1355.58
754.459	1232.71
754.643	1294.15
754.828	1255.23
755.012	1349.44
755.196	1244.99
755.38	1304.39
755.564	1267.52
755.748	1277.76
755.932	1290.05
756.116	1265.47
756.3	1171.27
756.484	1163.08
756.668	1204.03
756.852	1113.92
757.036	1142.6
757.22	1236.8
757.404	1193.8
757.588	1187.65
757.772	1220.42
757.956	1208.13
758.14	1132.36
758.323	1152.84
758.507	1177.41
758.691	1081.16
758.875	1163.08
759.059	1167.17
759.242	1079.11
759.426	1056.58
759.61	1066.82
759.794	1025.86
759.977	1099.59
760.161	1089.35
760.345	1040.2
760.528	1085.25
760.712	1027.91
760.895	1146.69
761.079	1077.06
761.263	1040.2
761.446	933.7
761.63	1029.96
761.813	970.57
761.997	952.13
762.18	995.14
762.364	907.08
762.547	933.7
762.731	935.75
762.914	890.7
763.098	933.7
763.281	1081.16
763.464	911.18
763.648	958.28
763.831	970.57
764.015	892.74
764.198	1015.62
764.381	907.08
764.564	978.76
764.748	827.21
764.931	1011.53
765.114	911.18
765.297	966.47
765.481	880.46
765.664	925.51
765.847	943.94
766.03	888.65
766.213	896.84
766.397	878.41
766.58	902.98
766.763	991.05
766.946	837.45
767.129	855.88
767.312	812.87
767.495	898.89
767.678	866.12
767.861	925.51
768.044	896.84
768.227	835.4
768.41	857.93
768.593	859.98
768.776	855.88
768.959	833.35
769.142	794.44
769.324	786.25
769.507	827.21
769.69	786.25
769.873	831.3
770.056	864.07
770.239	765.77
770.421	843.59
770.604	819.02
770.787	825.16
770.97	837.45
771.152	786.25
771.335	827.21
771.518	802.63
771.7	769.87
771.883	816.97
772.066	821.06
772.248	782.15
772.431	761.67
772.613	786.25
772.796	728.91
772.978	821.06
773.161	755.53
773.343	687.95
773.526	708.43
773.708	730.95
773.891	638.8
774.073	724.81
774.256	671.56
774.438	804.68
774.621	708.43
774.803	810.82
774.985	638.8
775.168	724.81
775.35	614.22
775.532	667.47
775.715	587.6
775.897	608.08
776.079	698.19
776.261	673.61
776.444	579.4
776.626	634.7
776.808	575.31
776.99	657.23
777.173	706.38
777.355	661.32
777.537	567.12
777.719	593.74
777.901	571.21
778.083	614.22
778.265	667.47
778.447	558.92
778.629	646.99
778.811	560.97
778.993	538.45
779.175	614.22
779.357	546.64
779.539	556.88
779.721	567.12
779.903	534.35
780.085	536.4
780.267	493.39
780.449	616.27
780.631	575.31
780.812	532.3
780.994	560.97
781.176	483.15
781.358	485.2
781.54	442.19
781.721	477.01
781.903	513.87
782.085	517.97
782.267	583.5
782.448	464.72
782.63	634.7
782.812	548.68
782.993	565.07
783.175	517.97
783.357	491.34
783.538	427.85
783.72	431.95
783.901	409.42
784.083	454.48
784.264	460.62
784.446	378.7
784.627	442.19
784.809	386.9
784.99	417.61
785.172	466.77
785.353	378.7
785.535	425.81
785.716	405.33
785.897	345.94
786.079	390.99
786.26	364.37
786.441	429.9
786.623	352.08
786.804	434
786.985	409.42
787.167	393.04
787.348	393.04
787.529	311.12
787.71	458.57
787.891	339.79
788.073	327.5
788.254	327.5
788.435	378.7
788.616	360.27
788.797	378.7
788.978	329.55
789.159	356.18
789.34	296.78
789.522	358.22
789.703	311.12
789.884	427.85
790.065	390.99
790.246	368.46
790.427	294.74
790.607	384.85
790.788	370.51
790.969	304.98
791.15	399.18
791.331	300.88
791.512	288.59
791.693	280.4
791.874	311.12
792.054	327.5
792.235	311.12
792.416	343.89
792.597	335.7
792.778	278.35
792.958	347.98
793.139	388.94
793.32	300.88
793.5	278.35
793.681	368.46
793.862	360.27
794.042	286.54
794.223	311.12
794.404	235.35
794.584	235.35
794.765	282.45
794.945	309.07
795.126	304.98
795.306	304.98
795.487	319.31
795.667	245.59
795.848	241.49
796.028	231.25
796.209	302.93
796.389	192.34
796.57	270.16
796.75	243.54
796.93	257.87
797.111	241.49
797.291	296.78
797.471	274.26
797.652	272.21
797.832	184.15
798.012	194.39
798.192	278.35
798.373	245.59
798.553	223.06
798.733	247.63
798.913	173.91
799.093	239.44
799.274	264.02
799.454	274.26
799.634	272.21
799.814	225.11
799.994	231.25
800.174	206.67
800.354	198.48
800.534	292.69
800.714	206.67
800.894	257.87
801.074	237.39
801.254	270.16
801.434	200.53
801.614	227.15
801.794	202.58
801.974	745.29
802.154	253.78
802.334	274.26
802.514	135
802.693	233.3
802.873	163.67
803.053	216.91
803.233	114.52
803.413	180.05
803.592	255.83
803.772	229.2
803.952	218.96
804.131	204.63
804.311	210.77
804.491	184.15
804.67	253.78
804.85	237.39
805.03	204.63
805.209	98.13
805.389	157.52
805.568	175.95
805.748	114.52
805.928	155.47
806.107	206.67
806.287	165.71
806.466	167.76
806.646	165.71
806.825	139.09
807.004	190.29
807.184	167.76
807.363	157.52
807.543	196.43
807.722	214.87
807.901	204.63
808.081	171.86
808.26	124.76
808.439	175.95
808.619	225.11
808.798	155.47
808.977	173.91
809.156	208.72
809.336	91.99
809.515	175.95
809.694	175.95
809.873	204.63
810.052	200.53
810.231	235.35
810.411	139.09
810.59	229.2
810.769	149.33
810.948	122.71
811.127	157.52
811.306	106.32
811.485	116.56
811.664	175.95
811.843	141.14
812.022	151.38
812.201	147.28
812.38	141.14
812.559	151.38
812.737	169.81
812.916	137.04
813.095	186.19
813.274	106.32
813.453	98.13
813.632	173.91
813.811	141.14
813.989	190.29
814.168	143.19
814.347	132.95
814.526	210.77
814.704	237.39
814.883	192.34
815.062	145.24
815.24	188.24
815.419	157.52
815.598	233.3
815.776	59.22
815.955	171.86
816.133	100.18
816.312	116.56
816.49	73.56
816.669	89.94
816.847	155.47
817.026	175.95
817.204	130.9
817.383	104.28
817.561	132.95
817.74	77.65
817.918	163.67
818.097	106.32
818.275	98.13
818.453	98.13
818.632	77.65
818.81	147.28
818.988	65.36
819.167	149.33
819.345	126.8
819.523	83.8
819.701	69.46
819.879	108.37
820.058	118.61
820.236	175.95
820.414	100.18
820.592	130.9
820.77	81.75
820.948	157.52
821.127	81.75
821.305	73.56
821.483	149.33
821.661	94.04
821.839	114.52
822.017	143.19
822.195	130.9
822.373	128.85
822.551	98.13
822.729	147.28
822.907	102.23
823.085	192.34
823.262	106.32
823.44	94.04
823.618	102.23
823.796	100.18
823.974	94.04
824.152	44.88
824.329	91.99
824.507	59.22
824.685	94.04
824.863	51.03
825.04	122.71
825.218	83.8
825.396	73.56
825.574	12.12
825.751	85.84
825.929	139.09
826.107	51.03
826.284	73.56
826.462	67.41
826.639	16.21
826.817	89.94
826.994	188.24
827.172	8.02
827.349	192.34
827.527	67.41
827.704	59.22
827.882	169.81
828.059	143.19
828.237	67.41
828.414	83.8
828.591	42.84
828.769	51.03
828.946	57.17
829.124	96.08
829.301	122.71
829.478	48.98
829.655	63.32
829.833	69.46
830.01	40.79
830.187	106.32
830.364	24.4
830.542	40.79
830.719	122.71
830.896	77.65
831.073	114.52
831.25	139.09
831.427	32.6
831.604	51.03
831.782	77.65
831.959	85.84
832.136	116.56
832.313	85.84
832.49	75.6
832.667	122.71
832.844	32.6
833.021	139.09
833.198	83.8
833.374	32.6
833.551	89.94
833.728	24.4
833.905	48.98
834.082	57.17
834.259	14.17
834.436	130.9
834.612	24.4
834.789	57.17
834.966	28.5
835.143	51.03
835.319	94.04
835.496	124.76
835.673	65.36
835.85	130.9
836.026	157.52
836.203	110.42
836.38	73.56
836.556	137.04
836.733	30.55
836.909	73.56
837.086	34.64
837.262	79.7
837.439	108.37
837.616	85.84
837.792	10.07
837.968	48.98
838.145	40.79
838.321	59.22
838.498	59.22
838.674	130.9
838.851	65.36
839.027	132.95
839.203	-32.94
839.38	100.18
839.556	46.93
839.732	-0.17
839.909	73.56
840.085	34.64
840.261	20.31
840.437	110.42
840.614	57.17
840.79	65.36
840.966	124.76
841.142	71.51
841.318	46.93
841.494	71.51
841.671	-8.36
841.847	-6.31
842.023	61.27
842.199	67.41
842.375	40.79
842.551	40.79
842.727	-32.94
842.903	89.94
843.079	-65.71
843.255	96.08
843.431	22.36
843.607	83.8
843.783	-65.71
843.959	53.08
844.134	48.98
844.31	137.04
844.486	57.17
844.662	3.93
844.838	65.36
845.013	42.84
845.189	42.84
845.365	89.94
845.541	48.98
845.716	63.32
845.892	132.95
846.068	26.45
846.244	40.79
846.419	18.26
846.595	87.89
846.77	-43.18
846.946	81.75
847.122	81.75
847.297	40.79
847.473	51.03
847.648	42.84
847.824	73.56
847.999	-8.36
848.175	98.13
848.35	30.55
848.526	12.12
848.701	46.93
848.876	42.84
849.052	69.46
849.227	12.12
849.403	28.5
849.578	16.21
849.753	69.46
849.929	-37.03
850.104	10.07
850.279	42.84
850.454	149.33
850.63	106.32
850.805	-67.75
850.98	57.17
851.155	-8.36
851.33	26.45
851.505	-0.17
851.681	94.04
851.856	24.4
852.031	-30.89
852.206	-2.22
852.381	12.12
852.556	-18.6
852.731	18.26
852.906	89.94
853.081	102.23
853.256	5.97
853.431	59.22
853.606	28.5
853.781	-32.94
853.956	32.6
854.131	8.02
854.305	69.46
854.48	42.84
854.655	10.07
854.83	24.4
855.005	-8.36
855.18	34.64
855.354	-47.27
855.529	18.26
855.704	73.56
855.879	14.17
856.053	5.97
856.228	48.98
856.403	-57.51
856.577	40.79
856.752	34.64
856.926	-51.37
857.101	30.55
857.276	22.36
857.45	-0.17
857.625	12.12
857.799	-4.27
857.974	-0.17
858.148	28.5
858.323	67.41
858.497	34.64
858.672	-4.27
858.846	16.21
859.02	36.69
859.195	32.6
859.369	20.31
859.543	-6.31
859.718	26.45
859.892	-28.84
860.066	100.18
860.241	3.93
860.415	36.69
860.589	40.79
860.763	16.21
860.938	-53.42
861.112	12.12
861.286	16.21
861.46	10.07
861.634	5.97
861.808	65.36
861.982	-4.27
862.157	67.41
862.331	48.98
862.505	-20.65
862.679	14.17
862.853	85.84
863.027	94.04
863.201	108.37
863.375	16.21
863.549	8.02
863.722	32.6
863.896	40.79
864.07	-24.75
864.244	-8.36
864.418	42.84
864.592	61.27
864.766	57.17
864.939	24.4
865.113	10.07
865.287	122.71
865.461	18.26
865.634	18.26
865.808	1.88
865.982	-69.8
866.156	8.02
866.329	-30.89
866.503	-0.17
866.676	110.42
866.85	-6.31
867.024	24.4
867.197	-0.17
867.371	24.4
867.544	-2.22
867.718	5.97
867.891	10.07
868.065	-28.84
868.238	77.65
868.412	67.41
868.585	1.88
868.759	-53.42
868.932	-24.75
869.105	-49.32
869.279	48.98
869.452	38.74
869.625	-6.31
869.799	18.26
869.972	-100.52
870.145	-0.17
870.319	36.69
870.492	85.84
870.665	24.4
870.838	12.12
871.011	5.97
871.185	24.4
871.358	44.88
871.531	24.4
871.704	28.5
871.877	-16.55
872.05	61.27
872.223	-47.27
872.396	-24.75
872.569	65.36
872.742	-24.75
872.915	40.79
873.088	-18.6
873.261	61.27
873.434	-32.94
873.607	3.93
873.78	-41.13
873.953	40.79
874.126	46.93
874.299	65.36
874.471	-69.8
874.644	20.31
874.817	32.6
874.99	124.76
875.163	-57.51
875.335	3.93
875.508	-98.47
875.681	-22.7
875.853	-8.36
876.026	32.6
876.199	65.36
876.371	8.02
876.544	40.79
876.717	96.08
876.889	-41.13
877.062	-0.17
877.234	-123.05
877.407	16.21
877.579	1.88
877.752	40.79
877.924	-18.6
878.097	8.02
878.269	-6.31
878.442	69.46
878.614	85.84
878.786	34.64
878.959	-30.89
879.131	44.88
879.303	-8.36
879.476	98.13
879.648	26.45
879.82	42.84
879.993	-8.36
880.165	-8.36
880.337	-26.79
880.509	42.84
880.681	-18.6
880.854	-20.65
881.026	-8.36
881.198	26.45
881.37	-55.47
881.542	8.02
881.714	-39.08
881.886	5.97
882.058	-55.47
882.23	10.07
882.402	8.02
882.574	-14.51
882.746	16.21
882.918	26.45
883.09	26.45
883.262	16.21
883.434	-49.32
883.606	24.4
883.778	8.02
883.95	130.9
884.122	-8.36
884.293	-10.41
884.465	-24.75
884.637	87.89
884.809	14.17
884.98	118.61
885.152	10.07
885.324	-67.75
885.496	-45.23
885.667	36.69
885.839	12.12
886.011	-6.31
886.182	40.79
886.354	-24.75
886.525	-16.55
886.697	-8.36
886.869	-41.13
887.04	16.21
887.212	24.4
887.383	20.31
887.555	-8.36
887.726	12.12
887.897	63.32
888.069	28.5
888.24	-63.66
888.412	-8.36
888.583	-26.79
888.754	44.88
888.926	-22.7
889.097	-41.13
889.268	-43.18
889.44	36.69
889.611	-32.94
889.782	-4.27
889.953	-8.36
890.125	42.84
890.296	-6.31
890.467	-8.36
890.638	-65.71
890.809	-49.32
890.98	-4.27
891.151	61.27
891.323	16.21
891.494	53.08
891.665	-45.23
891.836	-32.94
892.007	38.74
892.178	110.42
892.349	40.79
892.52	-65.71
892.691	-16.55
892.862	-14.51
893.032	-16.55
893.203	-47.27
893.374	-73.9
893.545	53.08
893.716	38.74
893.887	40.79
894.057	-45.23
894.228	8.02
894.399	48.98
894.57	36.69
894.74	22.36
894.911	22.36
895.082	-20.65
895.253	40.79
895.423	10.07
895.594	65.36
895.764	5.97
895.935	-16.55
896.106	48.98
896.276	-47.27
896.447	26.45
896.617	-16.55
896.788	28.5
896.958	-30.89
897.129	40.79
897.299	-14.51
897.47	18.26
897.64	-8.36
897.81	-22.7
897.981	26.45
898.151	-28.84
898.322	108.37
898.492	40.79
898.662	48.98
898.832	26.45
899.003	-14.51
899.173	28.5
899.343	-8.36
899.513	-16.55
