Data from USB4F104151__203__14-20-38-363.txt Node

Date: Thu Mar 13 14:20:38 EDT 2025
User: louis
Spectrometer: USB4F10415
Trigger mode: 4
Integration Time (sec): 2.000000E-2
Scans to average: 1
Electric dark correction enabled: true
Nonlinearity correction enabled: false
Boxcar width: 0
XAxis mode: Wavelengths
Number of Pixels in Spectrum: 3648
>>>>>Begin Spectral Data<<<<<
178.204	-195.92
178.424	-195.92
178.644	-195.92
178.864	-79.19
179.084	-171.35
179.304	-62.8
179.524	-3.41
179.744	72.36
179.964	74.41
180.184	-36.18
180.404	43.69
180.624	17.07
180.844	-97.62
181.064	33.45
181.283	55.98
181.503	-40.28
181.723	-56.66
181.943	-66.9
182.163	27.31
182.383	-79.19
182.602	98.99
182.822	84.65
183.042	-15.7
183.262	84.65
183.482	10.92
183.701	62.12
183.921	55.98
184.141	-75.09
184.361	41.64
184.58	-11.61
184.8	66.22
185.02	31.4
185.239	121.51
185.459	41.64
185.679	17.07
185.898	23.21
186.118	98.99
186.338	68.27
186.557	82.6
186.777	-36.18
186.997	-79.19
187.216	-23.89
187.436	39.59
187.655	47.79
187.875	107.18
188.095	17.07
188.314	33.45
188.534	25.26
188.753	70.31
188.973	8.87
189.192	58.03
189.412	25.26
189.631	25.26
189.851	0.68
190.07	51.88
190.29	12.97
190.509	90.79
190.729	-11.61
190.948	58.03
191.168	101.03
191.387	45.74
191.607	33.45
191.826	35.5
192.045	-27.99
192.265	29.35
192.484	2.73
192.704	19.11
192.923	-58.71
193.142	47.79
193.362	21.16
193.581	70.31
193.8	-17.75
194.02	21.16
194.239	-13.65
194.458	0.68
194.678	-19.8
194.897	0.68
195.116	25.26
195.335	8.87
195.555	53.93
195.774	27.31
195.993	10.92
196.212	35.5
196.432	-17.75
196.651	-3.41
196.87	35.5
197.089	51.88
197.308	17.07
197.528	-21.85
197.747	-21.85
197.966	49.83
198.185	19.11
198.404	-19.8
198.623	76.46
198.842	21.16
199.062	25.26
199.281	-62.8
199.5	45.74
199.719	66.22
199.938	58.03
200.157	33.45
200.376	43.69
200.595	-32.08
200.814	33.45
201.033	74.41
201.252	144.04
201.471	-15.7
201.69	92.84
201.909	84.65
202.128	27.31
202.347	25.26
202.566	-3.41
202.785	-23.89
203.004	2.73
203.223	37.55
203.442	25.26
203.661	23.21
203.879	-9.56
204.098	41.64
204.317	33.45
204.536	8.87
204.755	82.6
204.974	25.26
205.193	43.69
205.411	-30.04
205.63	82.6
205.849	27.31
206.068	98.99
206.287	-3.41
206.505	35.5
206.724	33.45
206.943	-27.99
207.162	58.03
207.381	-5.46
207.599	-23.89
207.818	0.68
208.037	-7.51
208.255	19.11
208.474	17.07
208.693	8.87
208.911	29.35
209.13	10.92
209.349	-40.28
209.567	10.92
209.786	68.27
210.005	58.03
210.223	-7.51
210.442	25.26
210.661	70.31
210.879	94.89
211.098	10.92
211.316	-9.56
211.535	105.13
211.753	55.98
211.972	58.03
212.191	-56.66
212.409	92.84
212.628	74.41
212.846	51.88
213.065	17.07
213.283	101.03
213.502	82.6
213.72	64.17
213.938	2.73
214.157	-1.37
214.375	19.11
214.594	68.27
214.812	2.73
215.031	-1.37
215.249	-23.89
215.467	66.22
215.686	8.87
215.904	17.07
216.122	-44.37
216.341	68.27
216.559	-23.89
216.778	35.5
216.996	51.88
217.214	-15.7
217.432	-17.75
217.651	0.68
217.869	27.31
218.087	0.68
218.306	-23.89
218.524	45.74
218.742	0.68
218.96	-5.46
219.179	-21.85
219.397	-73.04
219.615	4.78
219.833	58.03
220.051	31.4
220.27	15.02
220.488	-21.85
220.706	60.07
220.924	-23.89
221.142	-50.52
221.36	17.07
221.578	-5.46
221.796	49.83
222.015	90.79
222.233	82.6
222.451	72.36
222.669	-3.41
222.887	0.68
223.105	-13.65
223.323	-17.75
223.541	12.97
223.759	-21.85
223.977	-19.8
224.195	45.74
224.413	37.55
224.631	35.5
224.849	58.03
225.067	-7.51
225.285	19.11
225.503	29.35
225.721	10.92
225.939	31.4
226.157	43.69
226.375	144.04
226.592	10.92
226.81	-3.41
227.028	-23.89
227.246	6.83
227.464	35.5
227.682	60.07
227.9	8.87
228.117	-11.61
228.335	17.07
228.553	15.02
228.771	15.02
228.989	58.03
229.206	-19.8
229.424	45.74
229.642	41.64
229.86	-11.61
230.077	25.26
230.295	78.51
230.513	70.31
230.731	98.99
230.948	41.64
231.166	72.36
231.384	62.12
231.601	21.16
231.819	33.45
232.037	60.07
232.254	-21.85
232.472	-19.8
232.689	49.83
232.907	72.36
233.125	-27.99
233.342	-9.56
233.56	-7.51
233.777	15.02
233.995	10.92
234.213	121.51
234.43	51.88
234.648	29.35
234.865	-5.46
235.083	66.22
235.3	35.5
235.518	49.83
235.735	15.02
235.953	-5.46
236.17	21.16
236.388	15.02
236.605	8.87
236.822	66.22
237.04	-5.46
237.257	-7.51
237.475	-36.18
237.692	109.22
237.909	10.92
238.127	53.93
238.344	19.11
238.562	-5.46
238.779	19.11
238.996	-21.85
239.214	41.64
239.431	33.45
239.648	-13.65
239.865	68.27
240.083	62.12
240.3	51.88
240.517	-103.76
240.735	60.07
240.952	53.93
241.169	19.11
241.386	17.07
241.603	-7.51
241.821	21.16
242.038	-7.51
242.255	51.88
242.472	-27.99
242.689	37.55
242.907	-32.08
243.124	-23.89
243.341	49.83
243.558	33.45
243.775	35.5
243.992	25.26
244.209	92.84
244.426	90.79
244.643	66.22
244.86	-15.7
245.078	23.21
245.295	45.74
245.512	17.07
245.729	98.99
245.946	29.35
246.163	-23.89
246.38	164.52
246.597	25.26
246.814	-19.8
247.031	45.74
247.248	33.45
247.464	0.68
247.681	2.73
247.898	49.83
248.115	-21.85
248.332	-56.66
248.549	2.73
248.766	21.16
248.983	58.03
249.2	10.92
249.417	51.88
249.633	-30.04
249.85	4.78
250.067	0.68
250.284	8.87
250.501	80.55
250.717	53.93
250.934	-118.1
251.151	39.59
251.368	37.55
251.585	25.26
251.801	-9.56
252.018	35.5
252.235	17.07
252.451	0.68
252.668	-77.14
252.885	58.03
253.102	-13.65
253.318	66.22
253.535	-30.04
253.752	33.45
253.968	33.45
254.185	58.03
254.401	10.92
254.618	21.16
254.835	-11.61
255.051	35.5
255.268	82.6
255.484	-3.41
255.701	31.4
255.917	37.55
256.134	-56.66
256.351	8.87
256.567	0.68
256.784	74.41
257	-30.04
257.217	33.45
257.433	35.5
257.65	51.88
257.866	58.03
258.082	-5.46
258.299	39.59
258.515	70.31
258.732	49.83
258.948	37.55
259.165	58.03
259.381	51.88
259.597	-3.41
259.814	35.5
260.03	-32.08
260.246	27.31
260.463	25.26
260.679	94.89
260.895	10.92
261.112	51.88
261.328	-5.46
261.544	10.92
261.761	72.36
261.977	0.68
262.193	-19.8
262.409	27.31
262.626	-3.41
262.842	82.6
263.058	2.73
263.274	78.51
263.49	2.73
263.707	-5.46
263.923	70.31
264.139	-13.65
264.355	-42.32
264.571	68.27
264.787	33.45
265.004	55.98
265.22	10.92
265.436	43.69
265.652	21.16
265.868	68.27
266.084	-15.7
266.3	-3.41
266.516	21.16
266.732	90.79
266.948	33.45
267.164	-13.65
267.38	-36.18
267.596	29.35
267.812	70.31
268.028	21.16
268.244	-5.46
268.46	2.73
268.676	25.26
268.892	0.68
269.108	-42.32
269.324	8.87
269.54	-42.32
269.756	70.31
269.972	29.35
270.188	29.35
270.403	29.35
270.619	-56.66
270.835	35.5
271.051	64.17
271.267	43.69
271.483	37.55
271.698	41.64
271.914	12.97
272.13	10.92
272.346	10.92
272.562	15.02
272.777	80.55
272.993	17.07
273.209	27.31
273.425	23.21
273.64	27.31
273.856	66.22
274.072	37.55
274.287	12.97
274.503	12.97
274.719	41.64
274.934	-11.61
275.15	-7.51
275.366	62.12
275.581	33.45
275.797	0.68
276.012	-19.8
276.228	4.78
276.444	-21.85
276.659	43.69
276.875	-3.41
277.09	33.45
277.306	-103.76
277.521	60.07
277.737	-5.46
277.952	25.26
278.168	17.07
278.383	117.42
278.599	-3.41
278.814	8.87
279.03	19.11
279.245	58.03
279.461	17.07
279.676	49.83
279.892	29.35
280.107	0.68
280.322	43.69
280.538	49.83
280.753	-66.9
280.969	15.02
281.184	-9.56
281.399	23.21
281.615	62.12
281.83	43.69
282.045	25.26
282.26	84.65
282.476	-17.75
282.691	68.27
282.906	27.31
283.122	70.31
283.337	10.92
283.552	35.5
283.767	43.69
283.983	58.03
284.198	49.83
284.413	35.5
284.628	-30.04
284.843	10.92
285.058	-1.37
285.274	51.88
285.489	19.11
285.704	58.03
285.919	47.79
286.134	8.87
286.349	-32.08
286.564	21.16
286.779	86.7
286.995	25.26
287.21	10.92
287.425	-13.65
287.64	43.69
287.855	49.83
288.07	-64.85
288.285	29.35
288.5	37.55
288.715	23.21
288.93	47.79
289.145	35.5
289.36	45.74
289.575	-81.24
289.79	51.88
290.004	-21.85
290.219	31.4
290.434	66.22
290.649	-5.46
290.864	-32.08
291.079	-5.46
291.294	49.83
291.509	72.36
291.724	25.26
291.938	33.45
292.153	25.26
292.368	-54.61
292.583	82.6
292.798	-15.7
293.012	25.26
293.227	-19.8
293.442	82.6
293.657	49.83
293.871	49.83
294.086	90.79
294.301	98.99
294.516	10.92
294.73	-3.41
294.945	29.35
295.16	25.26
295.374	101.03
295.589	41.64
295.804	53.93
296.018	0.68
296.233	-3.41
296.447	43.69
296.662	29.35
296.877	21.16
297.091	101.03
297.306	0.68
297.52	-9.56
297.735	8.87
297.949	-17.75
298.164	41.64
298.378	-11.61
298.593	12.97
298.807	-32.08
299.022	33.45
299.236	-5.46
299.451	49.83
299.665	27.31
299.88	27.31
300.094	17.07
300.309	49.83
300.523	-3.41
300.737	49.83
300.952	27.31
301.166	92.84
301.381	-23.89
301.595	-11.61
301.809	33.45
302.024	6.83
302.238	-7.51
302.452	156.33
302.667	119.46
302.881	131.75
303.095	51.88
303.309	4.78
303.524	-9.56
303.738	17.07
303.952	12.97
304.166	41.64
304.381	-75.09
304.595	86.7
304.809	21.16
305.023	51.88
305.237	-95.57
305.452	-44.37
305.666	0.68
305.88	90.79
306.094	25.26
306.308	-15.7
306.522	33.45
306.736	12.97
306.95	-38.23
307.164	15.02
307.379	58.03
307.593	12.97
307.807	23.21
308.021	6.83
308.235	137.9
308.449	-50.52
308.663	47.79
308.877	162.47
309.091	21.16
309.305	27.31
309.519	-122.2
309.733	109.22
309.947	21.16
310.161	58.03
310.374	19.11
310.588	70.31
310.802	-11.61
311.016	-5.46
311.23	103.08
311.444	12.97
311.658	33.45
311.872	94.89
312.085	51.88
312.299	107.18
312.513	90.79
312.727	41.64
312.941	8.87
313.154	66.22
313.368	33.45
313.582	29.35
313.796	17.07
314.009	39.59
314.223	21.16
314.437	45.74
314.651	90.79
314.864	21.16
315.078	80.55
315.292	-15.7
315.505	25.26
315.719	47.79
315.933	21.16
316.146	62.12
316.36	66.22
316.573	66.22
316.787	66.22
317.001	8.87
317.214	-5.46
317.428	2.73
317.641	23.21
317.855	92.84
318.068	86.7
318.282	10.92
318.495	4.78
318.709	55.98
318.922	17.07
319.136	58.03
319.349	55.98
319.563	8.87
319.776	-19.8
319.99	4.78
320.203	2.73
320.417	-30.04
320.63	-40.28
320.843	76.46
321.057	43.69
321.27	-17.75
321.483	49.83
321.697	66.22
321.91	25.26
322.124	45.74
322.337	31.4
322.55	8.87
322.763	66.22
322.977	17.07
323.19	12.97
323.403	2.73
323.617	64.17
323.83	96.94
324.043	53.93
324.256	15.02
324.469	-15.7
324.683	94.89
324.896	33.45
325.109	17.07
325.322	-3.41
325.535	41.64
325.748	72.36
325.962	45.74
326.175	139.94
326.388	60.07
326.601	72.36
326.814	19.11
327.027	27.31
327.24	68.27
327.453	-50.52
327.666	47.79
327.879	49.83
328.092	62.12
328.305	76.46
328.518	45.74
328.731	-54.61
328.944	96.94
329.157	90.79
329.37	37.55
329.583	-13.65
329.796	92.84
330.009	-9.56
330.222	-19.8
330.435	51.88
330.648	94.89
330.861	41.64
331.073	-48.47
331.286	90.79
331.499	84.65
331.712	2.73
331.925	131.75
332.138	-27.99
332.35	35.5
332.563	15.02
332.776	82.6
332.989	2.73
333.202	76.46
333.414	-9.56
333.627	17.07
333.84	135.85
334.053	53.93
334.265	17.07
334.478	29.35
334.691	-7.51
334.903	0.68
335.116	-40.28
335.329	37.55
335.541	62.12
335.754	39.59
335.966	15.02
336.179	10.92
336.392	25.26
336.604	-60.76
336.817	68.27
337.029	49.83
337.242	78.51
337.454	53.93
337.667	37.55
337.88	66.22
338.092	10.92
338.305	131.75
338.517	-15.7
338.729	45.74
338.942	-48.47
339.154	35.5
339.367	-1.37
339.579	88.75
339.792	12.97
340.004	109.22
340.217	107.18
340.429	62.12
340.641	-21.85
340.854	-13.65
341.066	-23.89
341.278	127.66
341.491	47.79
341.703	35.5
341.915	15.02
342.128	92.84
342.34	55.98
342.552	45.74
342.764	58.03
342.977	98.99
343.189	23.21
343.401	66.22
343.613	-9.56
343.826	86.7
344.038	37.55
344.25	62.12
344.462	58.03
344.674	94.89
344.886	8.87
345.099	-11.61
345.311	25.26
345.523	92.84
345.735	-46.42
345.947	39.59
346.159	-21.85
346.371	-30.04
346.583	-56.66
346.795	86.7
347.007	-7.51
347.219	-9.56
347.431	94.89
347.643	105.13
347.855	23.21
348.067	31.4
348.279	-21.85
348.491	-27.99
348.703	58.03
348.915	43.69
349.127	35.5
349.339	33.45
349.551	31.4
349.763	74.41
349.975	17.07
350.187	103.08
350.399	82.6
350.61	33.45
350.822	74.41
351.034	43.69
351.246	70.31
351.458	66.22
351.669	47.79
351.881	144.04
352.093	29.35
352.305	76.46
352.517	82.6
352.728	29.35
352.94	0.68
353.152	17.07
353.363	29.35
353.575	-32.08
353.787	58.03
353.999	74.41
354.21	119.46
354.422	-25.94
354.633	4.78
354.845	23.21
355.057	37.55
355.268	41.64
355.48	123.56
355.692	10.92
355.903	82.6
356.115	37.55
356.326	-21.85
356.538	2.73
356.749	45.74
356.961	94.89
357.172	25.26
357.384	-30.04
357.595	115.37
357.807	49.83
358.018	33.45
358.23	84.65
358.441	17.07
358.653	62.12
358.864	76.46
359.075	8.87
359.287	49.83
359.498	78.51
359.709	8.87
359.921	27.31
360.132	74.41
360.344	-5.46
360.555	-23.89
360.766	39.59
360.977	-23.89
361.189	113.32
361.4	12.97
361.611	58.03
361.823	115.37
362.034	90.79
362.245	31.4
362.456	76.46
362.667	33.45
362.879	27.31
363.09	2.73
363.301	82.6
363.512	125.61
363.723	25.26
363.935	60.07
364.146	64.17
364.357	33.45
364.568	25.26
364.779	31.4
364.99	55.98
365.201	19.11
365.412	94.89
365.623	2.73
365.834	98.99
366.045	41.64
366.256	29.35
366.467	109.22
366.678	-50.52
366.889	35.5
367.1	23.21
367.311	25.26
367.522	101.03
367.733	107.18
367.944	101.03
368.155	60.07
368.366	66.22
368.577	94.89
368.788	55.98
368.999	47.79
369.209	21.16
369.42	49.83
369.631	60.07
369.842	144.04
370.053	74.41
370.264	37.55
370.474	0.68
370.685	17.07
370.896	49.83
371.107	86.7
371.317	103.08
371.528	21.16
371.739	53.93
371.95	78.51
372.16	-1.37
372.371	-3.41
372.582	33.45
372.792	90.79
373.003	25.26
373.214	111.27
373.424	49.83
373.635	31.4
373.846	74.41
374.056	-23.89
374.267	12.97
374.477	33.45
374.688	-7.51
374.898	37.55
375.109	41.64
375.319	2.73
375.53	72.36
375.74	58.03
375.951	58.03
376.161	41.64
376.372	141.99
376.582	25.26
376.793	49.83
377.003	27.31
377.214	74.41
377.424	131.75
377.635	10.92
377.845	-7.51
378.055	115.37
378.266	51.88
378.476	27.31
378.686	90.79
378.897	58.03
379.107	58.03
379.317	-30.04
379.528	66.22
379.738	19.11
379.948	8.87
380.158	76.46
380.369	25.26
380.579	35.5
380.789	98.99
380.999	41.64
381.21	133.8
381.42	148.14
381.63	103.08
381.84	109.22
382.05	60.07
382.261	62.12
382.471	125.61
382.681	51.88
382.891	31.4
383.101	74.41
383.311	53.93
383.521	66.22
383.731	35.5
383.941	27.31
384.151	41.64
384.361	111.27
384.571	62.12
384.781	62.12
384.991	80.55
385.201	101.03
385.411	43.69
385.621	74.41
385.831	8.87
386.041	60.07
386.251	-44.37
386.461	74.41
386.671	115.37
386.881	62.12
387.091	29.35
387.301	55.98
387.511	103.08
387.72	19.11
387.93	125.61
388.14	58.03
388.35	107.18
388.56	53.93
388.769	107.18
388.979	33.45
389.189	82.6
389.399	84.65
389.609	90.79
389.818	119.46
390.028	92.84
390.238	64.17
390.447	66.22
390.657	148.14
390.867	117.42
391.076	115.37
391.286	78.51
391.496	41.64
391.705	8.87
391.915	23.21
392.125	115.37
392.334	111.27
392.544	94.89
392.753	66.22
392.963	-19.8
393.172	98.99
393.382	45.74
393.591	127.66
393.801	53.93
394.01	164.52
394.22	58.03
394.429	72.36
394.639	84.65
394.848	119.46
395.058	152.23
395.267	131.75
395.477	156.33
395.686	72.36
395.895	115.37
396.105	160.42
396.314	166.57
396.524	111.27
396.733	51.88
396.942	127.66
397.152	176.81
397.361	121.51
397.57	101.03
397.78	135.85
397.989	156.33
398.198	148.14
398.407	82.6
398.617	133.8
398.826	115.37
399.035	133.8
399.244	115.37
399.453	107.18
399.663	141.99
399.872	133.8
400.081	139.94
400.29	176.81
400.499	58.03
400.708	164.52
400.917	164.52
401.127	117.42
401.336	180.9
401.545	203.43
401.754	217.77
401.963	96.94
402.172	166.57
402.381	101.03
402.59	76.46
402.799	111.27
403.008	164.52
403.217	115.37
403.426	125.61
403.635	156.33
403.844	96.94
404.053	205.48
404.262	139.94
404.471	262.82
404.68	139.94
404.888	156.33
405.097	203.43
405.306	156.33
405.515	191.14
405.724	205.48
405.933	246.44
406.142	250.53
406.35	156.33
406.559	230.06
406.768	256.68
406.977	254.63
407.185	230.06
407.394	189.1
407.603	244.39
407.812	240.3
408.02	346.79
408.229	322.21
408.438	254.63
408.646	307.88
408.855	322.21
409.064	400.04
409.272	328.36
409.481	395.94
409.69	336.55
409.898	305.83
410.107	348.84
410.315	402.08
410.524	381.6
410.733	500.39
410.941	490.15
411.15	418.47
411.358	455.33
411.567	533.15
411.775	477.86
411.984	543.39
412.192	500.39
412.401	557.73
412.609	627.36
412.818	631.46
413.026	682.66
413.234	719.52
413.443	615.07
413.651	658.08
413.86	748.19
414.068	778.91
414.276	815.77
414.485	713.38
414.693	778.91
414.901	963.23
415.11	842.4
415.318	877.21
415.526	897.69
415.734	926.36
415.943	1045.15
416.151	1024.67
416.359	1073.82
416.567	1131.16
416.776	1202.84
416.984	1260.18
417.192	1266.33
417.4	1297.05
417.608	1266.33
417.817	1342.1
418.025	1532.56
418.233	1450.64
418.441	1514.13
418.649	1559.19
418.857	1610.39
419.065	1727.12
419.273	1755.79
419.481	1845.9
419.689	1780.37
419.897	1958.54
420.105	1903.25
420.313	2011.79
420.521	2103.95
420.729	2065.04
420.937	2286.22
421.145	2359.94
421.353	2454.15
421.561	2491.01
421.769	2433.67
421.977	2744.96
422.185	2628.23
422.393	2771.58
422.601	2957.95
422.809	2927.23
423.017	2957.95
423.224	3078.78
423.432	3328.63
423.64	3265.14
423.848	3566.2
424.056	3363.45
424.263	3752.56
424.471	3607.16
424.679	3727.99
424.887	3998.32
425.094	4199.02
425.302	4178.54
425.51	4217.45
425.718	4325.99
425.925	4563.56
426.133	4672.1
426.341	4809.31
426.548	4967.01
426.756	5032.54
426.964	5186.14
427.171	5278.3
427.379	5642.84
427.586	5605.97
427.794	5681.75
428.001	6003.28
428.209	6318.67
428.417	6324.81
428.624	6609.48
428.832	6609.48
429.039	6584.9
429.247	6658.63
429.454	7295.55
429.662	7828.02
429.869	7160.38
430.076	7883.31
430.284	7756.34
430.491	7938.61
430.699	8432.17
430.906	8387.11
431.114	8391.21
431.321	8639.01
431.528	9126.43
431.736	9407
431.943	9935.38
432.15	9591.32
432.358	9667.1
432.565	10127.89
432.772	10045.97
432.979	10803.72
433.187	10633.74
433.394	10906.12
433.601	11909.62
433.808	11731.45
434.016	11604.47
434.223	12179.95
434.43	12923.37
434.637	12632.55
434.844	13406.69
435.052	13607.39
435.259	13613.53
435.466	13701.59
435.673	13658.59
435.88	14365.14
436.087	15135.17
436.294	15079.88
436.501	14737.87
436.708	15172.04
436.915	15925.69
437.122	16425.39
437.329	16398.77
437.537	16726.44
437.743	17187.24
437.95	16927.14
438.157	17744.28
438.364	18362.77
438.571	18504.08
438.778	18473.36
438.985	20400.5
439.192	19409.28
439.399	19992.95
439.606	19575.17
439.813	20697.45
440.02	21877.08
440.227	21483.87
440.433	21373.28
440.64	21991.77
440.847	21735.77
441.054	22706.51
441.261	23832.89
441.467	23744.83
441.674	24365.37
441.881	25125.16
442.088	24625.46
442.294	24654.13
442.501	25264.43
442.708	25782.56
442.914	26722.58
443.121	27848.96
443.328	27326.73
443.534	29014.26
443.741	28348.67
443.948	27832.58
444.154	29774.05
444.361	29849.83
444.568	29645.03
444.774	29978.85
444.981	30040.29
445.187	31054.03
445.394	32297.15
445.6	31854.79
445.807	34742.42
446.013	33554.6
446.22	34054.31
446.426	35035.28
446.633	35551.37
446.839	36837.5
447.046	35098.77
447.252	37099.64
447.459	37326.96
447.665	37062.77
447.871	38496.35
448.078	39989.32
448.284	38230.12
448.491	39469.14
448.697	41060.41
448.903	41222.2
449.11	41439.28
449.316	40968.25
449.522	41541.68
449.728	43081.75
449.935	43247.64
450.141	42815.52
450.347	44011.53
450.553	42780.7
450.76	43247.64
450.966	44716.03
451.172	44400.65
451.378	45365.24
451.584	44247.05
451.791	45420.53
451.997	45541.36
452.203	45983.72
452.409	46012.4
452.615	46202.86
452.821	44183.56
453.027	44050.44
453.233	45807.6
453.44	44060.68
453.646	44718.08
453.852	44789.76
454.058	45189.11
454.264	44306.44
454.47	44918.78
454.676	43841.55
454.882	45475.83
455.088	41750.57
455.294	42612.77
455.5	43079.71
455.705	43538.45
455.911	41789.49
456.117	40855.61
456.323	40347.71
456.529	38142.05
456.735	39913.55
456.941	38740.06
457.147	38080.61
457.352	37255.28
457.558	37032.05
457.764	36757.63
457.97	35907.72
458.176	35338.38
458.381	35426.45
458.587	33745.06
458.793	33802.41
458.999	31844.55
459.204	34234.53
459.41	32934.07
459.616	31115.47
459.821	30869.72
460.027	31209.68
460.233	30277.85
460.438	29073.65
460.644	29421.8
460.85	27894.02
461.055	27812.1
461.261	27412.74
461.466	25401.64
461.672	24447.29
461.878	26456.34
462.083	24666.42
462.289	24105.27
462.494	23740.74
462.7	23191.88
462.905	22356.31
463.111	23372.1
463.316	23193.93
463.522	22704.46
463.727	22765.9
463.932	22937.93
464.138	22516.05
464.343	22645.07
464.549	22057.31
464.754	22688.08
464.959	22454.61
465.165	22245.72
465.37	21393.76
465.575	20722.03
465.781	21756.25
465.986	21727.58
466.191	21035.37
466.397	20367.73
466.602	19341.7
466.807	19915.13
467.012	20353.4
467.218	20050.3
467.423	19763.58
467.628	19900.79
467.833	20842.86
468.038	20023.67
468.244	19255.68
468.449	20324.72
468.654	19679.61
468.859	19456.39
469.064	19276.16
469.269	18792.84
469.474	18909.58
469.679	19265.92
469.885	18248.08
470.09	18950.54
470.295	18643.34
470.5	17891.74
470.705	18354.58
470.91	17981.85
471.115	17605.02
471.32	17781.15
471.525	17611.17
471.73	17418.66
471.935	17334.69
472.139	16800.17
472.344	17043.88
472.549	16673.2
472.754	16583.09
472.959	16548.27
473.164	15876.54
473.369	15911.35
473.574	16353.71
473.778	16099.76
473.983	16279.99
474.188	16110
474.393	15014.34
474.598	15415.74
474.802	15253.95
475.007	14948.81
475.212	15118.79
475.417	14496.21
475.621	14703.05
475.826	14653.9
476.031	14397.9
476.235	14037.46
476.44	14244.31
476.645	13953.49
476.849	13900.25
477.054	13926.87
477.259	13627.87
477.463	13867.48
477.668	13251.04
477.872	13533.66
478.077	13197.79
478.282	12954.08
478.486	12769.77
478.691	12597.74
478.895	12698.09
479.1	12673.51
479.304	12696.04
479.509	12163.57
479.713	12292.59
479.918	12247.54
480.122	11940.34
480.326	12290.54
480.531	12362.22
480.735	12018.16
480.94	11811.32
481.144	12306.93
481.348	11895.29
481.553	11790.84
481.757	11733.5
481.961	12036.59
482.166	11637.24
482.37	11684.34
482.574	11323.9
482.778	11604.47
482.983	11944.44
483.187	11506.17
483.391	11727.35
483.595	11706.87
483.8	11471.36
484.004	11645.43
484.208	11721.21
484.412	11549.18
484.616	11690.49
484.821	11559.42
485.025	11319.81
485.229	11704.82
485.433	11602.43
485.637	11704.82
485.841	11641.34
486.045	11409.92
486.249	11305.47
486.453	11416.06
486.657	11637.24
486.861	11704.82
487.065	11250.17
487.269	11454.97
487.473	11178.5
487.677	11813.37
487.881	11659.77
488.085	11641.34
488.289	11782.65
488.493	11680.25
488.697	11743.74
488.901	11510.27
489.105	11657.72
489.309	11715.06
489.512	11614.71
489.716	11727.35
489.92	11635.19
490.124	11817.46
490.328	11891.19
490.531	11731.45
490.735	11936.24
490.939	12102.13
491.143	11753.98
491.346	11747.83
491.55	11952.63
491.754	11905.52
491.958	12114.42
492.161	12093.94
492.365	12278.26
492.569	11999.73
492.772	12032.5
492.976	12392.94
493.18	12382.7
493.383	12227.06
493.587	12646.89
493.79	12591.59
493.994	12298.73
494.197	12732.9
494.401	12800.49
494.605	12616.17
494.808	13107.68
495.012	13013.48
495.215	13087.2
495.419	13298.14
495.622	13152.74
495.825	13240.8
496.029	13367.77
496.232	13750.74
496.436	13531.61
496.639	13971.93
496.843	13703.64
497.046	14146
497.249	14305.74
497.453	14201.3
497.656	14504.4
497.859	14537.16
498.063	14705.1
498.266	14913.99
498.469	14918.09
498.673	15083.97
498.876	15155.65
499.079	15542.72
499.282	15462.85
499.485	15774.14
499.689	15919.54
499.892	16095.67
500.095	16118.2
500.298	16492.97
500.501	16333.23
500.705	16765.35
500.908	16695.72
501.111	17086.89
501.314	17013.16
501.517	17240.48
501.72	17615.26
501.923	17564.06
502.126	17985.94
502.329	18090.39
502.532	18254.23
502.735	18362.77
502.938	18583.95
503.141	18733.45
503.344	19173.77
503.547	19224.97
503.75	19372.42
503.953	19874.17
504.156	19820.92
504.359	19970.43
504.562	20306.29
504.765	20658.54
504.968	20650.35
505.17	21180.78
505.373	21117.29
505.576	21559.65
505.779	21549.41
505.982	21823.84
506.185	22108.51
506.387	22210.9
506.59	22452.56
506.793	22636.88
506.996	22636.88
507.198	23404.87
507.401	23195.98
507.604	23451.97
507.807	23800.13
508.009	24049.98
508.212	24070.46
508.415	24693.04
508.617	24586.55
508.82	24987.95
509.022	24615.22
509.225	25923.87
509.428	25880.86
509.63	26183.96
509.833	26052.89
510.035	26718.48
510.238	26495.25
510.44	26700.05
510.643	27031.82
510.845	27615.49
511.048	27214.09
511.25	27742.47
511.453	28027.13
511.655	29204.72
511.858	28336.38
512.06	28831.99
512.262	29092.08
512.465	29219.05
512.667	29714.66
512.87	29989.09
513.072	30093.54
513.274	30476.51
513.477	30503.13
513.679	30685.4
513.881	31344.84
514.084	31496.39
514.286	31389.9
514.488	31748.29
514.69	32766.13
514.893	32733.37
515.095	32841.91
515.297	33394.86
515.499	33360.05
515.701	33478.83
515.904	34437.28
516.106	34302.11
516.308	34685.08
516.51	34803.86
516.712	34861.21
516.914	35090.58
517.116	36022.4
517.318	35778.7
517.52	35819.66
517.722	36429.95
517.925	36565.12
518.127	36972.66
518.329	37337.2
518.531	37075.06
518.733	37625.96
518.935	38586.46
519.136	38379.62
519.338	38506.59
519.54	38664.28
519.742	38860.89
519.944	39381.07
520.146	39925.83
520.348	39762
520.55	39880.78
520.752	40220.74
520.954	40917.05
521.155	41203.77
521.357	41093.18
521.559	41508.91
521.761	42025
521.963	42240.04
522.164	42186.79
522.366	42164.26
522.568	42491.94
522.77	42623.01
522.971	43231.25
523.173	43145.24
523.375	43188.25
523.576	43735.06
523.778	43761.68
523.98	44085.26
524.181	44470.28
524.383	44589.06
524.584	45012.99
524.786	45031.42
524.988	44929.02
525.189	45443.06
525.391	45486.07
525.592	45625.33
525.794	45991.92
525.995	46129.13
526.197	45756.4
526.398	45957.1
526.6	46655.46
526.801	46301.16
527.003	46731.23
527.204	46880.74
527.406	47181.79
527.607	46835.68
527.808	47523.8
528.01	46897.12
528.211	47128.54
528.412	48093.13
528.614	47699.92
528.815	47718.35
529.016	48062.41
529.218	48109.52
529.419	48205.77
529.62	47738.83
529.822	48060.37
530.023	48564.17
530.224	48025.55
530.425	48099.28
530.626	48168.91
530.828	48142.28
531.029	49221.56
531.23	48031.69
531.431	48347.08
531.632	48826.31
531.833	48920.51
532.035	48654.28
532.236	48979.9
532.437	48918.46
532.638	48312.27
532.839	49323.96
533.04	49096.64
533.241	48189.39
533.442	49561.53
533.643	48963.52
533.844	48773.06
534.045	48971.71
534.246	48852.93
534.447	49168.32
534.648	48756.67
534.849	49074.11
535.05	48685
535.251	48926.66
535.451	48979.9
535.652	49301.43
535.853	48883.65
536.054	48867.26
536.255	48975.81
536.456	48443.34
536.657	49104.83
536.857	49027.01
537.058	48797.63
537.259	49229.76
537.46	49196.99
537.66	48799.68
537.861	49002.43
538.062	48744.39
538.263	48814.02
538.463	48744.39
538.664	48902.08
538.865	48740.29
539.065	49125.31
539.266	48162.76
539.466	49108.93
539.667	48476.1
539.868	49383.35
540.068	49098.69
540.269	48732.1
540.469	48984
540.67	48502.73
540.87	48654.28
541.071	48762.82
541.271	48920.51
541.472	48146.38
541.672	48537.54
541.873	48680.9
542.073	48426.95
542.274	48721.86
542.474	48361.42
542.675	48326.6
542.875	48869.31
543.075	48674.76
543.276	47626.2
543.476	49106.88
543.676	48441.29
543.877	48355.27
544.077	48539.59
544.277	48490.44
544.478	48457.67
544.678	48416.71
544.878	48103.37
545.078	48353.22
545.279	48197.58
545.479	48115.66
545.679	48560.07
545.879	48338.89
546.079	47960.01
546.28	48328.65
546.48	47585.24
546.68	48304.07
546.88	48373.7
547.08	48287.69
547.28	48043.98
547.48	47607.76
547.68	48166.86
547.88	47810.51
548.081	48433.1
548.281	48123.85
548.481	48148.43
548.681	48324.55
548.881	48418.76
549.081	47536.09
549.28	47607.76
549.48	48099.28
549.68	47951.82
549.88	48396.23
550.08	47994.83
550.28	48052.17
550.48	48015.31
550.68	47869.9
550.88	47765.46
551.08	47448.02
551.279	47843.28
551.479	47531.99
551.679	47902.67
551.879	47697.87
552.079	47886.29
552.278	47210.46
552.478	48009.17
552.678	47570.9
552.878	47650.77
553.077	47704.02
553.277	47550.42
553.477	48328.65
553.676	47552.47
553.876	47679.44
554.076	47740.88
554.275	47448.02
554.475	47394.78
554.674	47716.31
554.874	47511.51
555.074	47280.09
555.273	47112.16
555.473	47863.76
555.672	47273.95
555.872	47232.99
556.071	47200.22
556.271	47519.7
556.47	47151.07
556.67	47017.95
556.869	47362.01
557.068	47253.47
557.268	47091.68
557.467	46866.4
557.667	47017.95
557.866	47169.5
558.065	47073.24
558.265	47077.34
558.464	46575.59
558.663	46557.16
558.863	46495.72
559.062	47085.53
559.261	46587.88
559.461	46913.5
559.66	46465
559.859	47067.1
560.058	46424.04
560.258	46909.41
560.457	45955.05
560.656	46651.36
560.855	46352.36
561.054	46485.48
561.253	45975.53
561.453	46036.97
561.652	46231.53
561.851	46403.56
562.05	45840.37
562.249	45496.31
562.448	46290.92
562.647	45973.49
562.846	46084.08
563.045	46032.88
563.244	45424.63
563.443	46088.17
563.642	45357.05
563.841	45496.31
564.04	45311.99
564.239	46223.34
564.438	44996.6
564.637	45514.74
564.836	45617.14
565.035	44744.7
565.234	45017.08
565.432	44902.4
565.631	44668.93
565.83	45056
566.029	44767.23
566.228	44773.38
566.427	44455.94
566.625	44634.11
566.824	44345.35
567.023	44771.33
567.222	43935.76
567.42	44599.3
567.619	44347.4
567.818	44234.76
568.016	44341.25
568.215	44503.04
568.414	43935.76
568.612	44120.07
568.811	44128.27
569.01	43862.03
569.208	43384.85
569.407	43737.1
569.605	43243.54
569.804	43954.19
570.002	43063.32
570.201	43315.22
570.4	43468.82
570.598	43036.7
570.797	43147.29
570.995	43472.92
571.193	42668.06
571.392	43325.46
571.59	42616.86
571.789	42760.22
571.987	42760.22
572.186	42418.21
572.384	42407.97
572.582	42332.2
572.781	42328.1
572.979	41834.54
573.177	42321.96
573.376	42422.31
573.574	42051.62
573.772	42012.71
573.971	41574.45
574.169	41494.58
574.367	41687.09
574.565	41836.59
574.763	41521.2
574.962	41121.85
575.16	40673.34
575.358	40915
575.556	40654.91
575.754	41685.04
575.952	40517.7
576.151	41314.36
576.349	40550.46
576.547	40378.43
576.745	40765.5
576.943	40886.33
577.141	40646.72
577.339	40646.72
577.537	40403.01
577.735	40505.41
577.933	40204.36
578.131	40433.73
578.329	39938.12
578.527	39641.17
578.725	39817.29
578.923	40009.8
579.121	39706.7
579.319	39485.52
579.516	39741.52
579.714	39311.44
579.912	38951
580.11	38821.98
580.308	38946.9
580.506	38832.22
580.704	38529.12
580.901	38717.53
581.099	39163.99
581.297	38727.77
581.495	38588.51
581.692	38867.03
581.89	38441.06
582.088	38592.61
582.285	38391.9
582.483	38494.3
582.681	38234.21
582.878	38162.53
583.076	37726.31
583.274	38264.93
583.471	37585.01
583.669	37587.05
583.866	37101.68
584.064	38006.89
584.262	37159.03
584.459	37697.64
584.657	37099.64
584.854	37294.19
585.052	36503.68
585.249	37406.83
585.447	37007.48
585.644	36900.98
585.841	36976.76
586.039	36669.56
586.236	36384.9
586.434	36311.17
586.631	36483.2
586.828	36513.92
587.026	36118.66
587.223	36374.66
587.42	35960.97
587.618	36176
587.815	36030.6
588.012	35702.92
588.21	35680.39
588.407	35973.25
588.604	35256.46
588.801	35254.42
588.999	35272.85
589.196	34932.89
589.393	34881.69
589.59	34824.34
589.787	34717.85
589.984	35025.04
590.182	34580.63
590.379	34648.22
590.576	34988.18
590.773	34678.94
590.97	34248.86
591.167	34717.85
591.364	34080.93
591.561	34369.69
591.758	33906.85
591.955	33913
592.152	34103.46
592.349	33763.5
592.546	33751.21
592.743	33738.92
592.94	33206.45
593.137	33919.14
593.334	33693.86
593.531	33132.72
593.727	33538.22
593.924	32993.46
594.121	32798.9
594.318	33132.72
594.515	32688.31
594.712	33345.71
594.908	32585.91
595.105	32989.36
595.302	32518.33
595.499	32520.38
595.696	32338.11
595.892	32006.34
596.089	32166.08
596.286	32272.57
596.482	31946.95
596.679	32065.73
596.876	31867.08
597.072	31695.05
597.269	31936.71
597.466	31561.93
597.662	31461.58
597.859	31445.19
598.055	31240.4
598.252	31224.01
598.448	30898.39
598.645	31234.25
598.841	30998.74
599.038	30689.49
599.234	30941.39
599.431	30445.79
599.627	30441.69
599.824	30556.38
600.02	30177.5
600.217	30576.86
600.413	30470.36
600.609	29815.01
600.806	30150.88
601.002	30243.04
601.198	29819.11
601.395	29630.69
601.591	29964.51
601.787	29589.74
601.984	29374.7
602.18	29690.09
602.376	29354.22
602.572	29270.25
602.769	29341.93
602.965	29274.35
603.161	29546.73
603.357	29110.51
603.553	28741.88
603.75	29196.53
603.946	28549.37
604.142	28815.6
604.338	28311.8
604.534	28621.05
604.73	28332.28
604.926	28223.74
605.122	28584.18
605.318	28270.84
605.514	28018.94
605.71	28043.52
605.906	27975.94
606.102	27996.42
606.298	27908.35
606.494	27668.74
606.69	27506.95
606.886	27818.24
607.082	27259.15
607.278	27627.78
607.474	27148.56
607.67	27777.28
607.866	26894.61
608.062	27416.84
608.257	27246.86
608.453	27197.71
608.649	27394.31
608.845	27029.77
609.041	27205.9
609.236	26880.27
609.432	26870.03
609.628	26730.77
609.824	26591.51
610.019	26884.37
610.215	26874.13
610.411	26888.46
610.606	26693.91
610.802	26536.21
610.998	26562.84
611.193	26378.52
611.389	26267.93
611.584	26143
611.78	26487.06
611.976	26345.75
612.171	26509.59
612.367	26157.34
612.562	26167.58
612.758	25952.54
612.953	25657.64
613.149	26083.61
613.344	25872.67
613.539	26220.83
613.735	25925.92
613.93	25960.73
614.126	25723.17
614.321	25962.78
614.517	25510.18
614.712	25721.12
614.907	25571.62
615.103	25727.27
615.298	25635.11
615.493	25862.43
615.688	25411.88
615.884	25841.95
616.079	25006.38
616.274	25538.85
616.47	25076.01
616.665	25164.07
616.86	25116.97
617.055	24879.41
617.25	25155.88
617.445	24647.99
617.641	24568.12
617.836	24906.03
618.031	24795.44
618.226	24783.15
618.421	24414.52
618.616	24688.95
618.811	24254.78
619.006	24564.02
619.201	24082.75
619.396	24342.84
619.591	23894.33
619.786	23898.43
619.981	23783.74
620.176	23853.37
620.371	23650.63
620.566	24129.85
620.761	23388.49
620.956	23574.85
621.151	23105.87
621.346	23517.51
621.541	22792.53
621.735	23210.31
621.93	22815.05
622.125	22800.72
622.32	22387.03
622.515	22739.28
622.709	22348.12
622.904	22595.92
623.099	22096.22
623.294	22245.72
623.488	21952.86
623.683	22024.54
623.878	21766.49
624.072	21604.7
624.267	21987.68
624.462	21492.07
624.656	21385.57
624.851	21172.58
625.046	21326.18
625.24	21240.17
625.435	21111.14
625.629	20904.3
625.824	20402.55
626.018	20408.69
626.213	20160.89
626.407	20441.46
626.602	20124.02
626.796	20418.93
626.991	19956.09
627.185	20177.27
627.38	19671.42
627.574	19808.64
627.768	19589.5
627.963	19405.19
628.157	19278.21
628.352	19706.24
628.546	19138.95
628.74	19120.52
628.935	18993.54
629.129	19186.05
629.323	18801.04
629.517	18782.6
629.712	18770.32
629.906	18739.6
630.1	18022.81
630.294	18454.93
630.489	18094.49
630.683	18481.55
630.877	18293.14
631.071	17824.15
631.265	18231.7
631.459	17742.24
631.653	17703.32
631.848	17746.33
632.042	17510.82
632.236	17670.56
632.43	17432.99
632.624	17310.11
632.818	17080.74
633.012	17177
633.206	17133.99
633.4	17064.36
633.594	16843.18
633.788	16470.45
633.982	16830.89
634.176	16578.99
634.369	16423.34
634.563	16523.69
634.757	16130.48
634.951	16441.78
635.145	16622
635.339	16353.71
635.533	16032.18
635.726	16247.22
635.92	15657.4
636.114	15876.54
636.308	15565.25
636.501	15745.47
636.695	15618.49
636.889	15620.54
637.083	15286.72
637.276	15452.61
637.47	15278.53
637.664	15086.02
637.857	15188.42
638.051	15008.2
638.244	14924.23
638.438	14604.75
638.632	14901.7
638.825	14887.37
639.019	14778.83
639.212	14719.43
639.406	14303.7
639.599	14391.76
639.793	14428.62
639.986	14287.31
640.18	14254.55
640.373	14225.87
640.567	13959.64
640.76	14232.02
640.954	13879.77
641.147	13994.45
641.34	13726.17
641.534	13810.14
641.727	13652.44
641.92	13531.61
642.114	13328.86
642.307	13255.14
642.5	13488.6
642.694	13060.58
642.887	13033.96
643.08	13361.63
643.273	13134.31
643.467	13076.96
643.66	12823.01
643.853	12947.94
644.046	12558.83
644.239	12984.8
644.432	12798.44
644.626	12372.46
644.819	12417.52
645.012	12632.55
645.205	12558.83
645.398	12478.96
645.591	12161.52
645.784	12280.3
645.977	11985.4
646.17	12208.62
646.363	12063.22
646.556	11901.43
646.749	11995.64
646.942	12190.19
647.135	11874.81
647.328	11696.63
647.521	11772.41
647.714	11708.92
647.907	11508.22
648.099	11629.05
648.292	11624.95
648.485	11555.32
648.678	11260.41
648.871	11139.58
649.064	11121.15
649.256	11315.71
649.449	10992.13
649.642	10983.94
649.835	11117.06
650.027	11033.09
650.22	10797.57
650.413	10736.13
650.605	10615.3
650.798	10717.7
650.991	10529.29
651.183	10643.98
651.376	10500.62
651.568	10568.2
651.761	10340.88
651.954	10375.69
652.146	10340.88
652.339	10308.11
652.531	10127.89
652.724	10093.07
652.916	9902.61
653.109	10265.1
653.301	10064.4
653.494	10076.69
653.686	9749.01
653.879	9984.53
654.071	9892.37
654.263	9677.33
654.456	9912.85
654.648	9894.42
654.84	9447.96
655.033	9720.34
655.225	9628.18
655.417	9509.4
655.61	9277.98
655.802	9441.82
655.994	9415.19
656.186	9347.61
656.379	9069.09
656.571	9306.65
656.763	9007.65
656.955	9058.85
657.148	8978.98
657.34	9042.46
657.532	8970.79
657.724	8911.39
657.916	8759.84
658.108	8847.91
658.3	8698.41
658.492	8690.21
658.684	8522.28
658.876	8632.87
659.068	8569.38
659.26	8630.82
659.452	8718.89
659.644	8739.37
659.836	8350.25
660.028	8512.04
660.22	8268.33
660.412	8464.94
660.604	8251.95
660.796	8327.72
660.988	8233.52
661.18	8184.37
661.372	8110.64
661.563	8016.43
661.755	8002.1
661.947	7957.04
662.139	7807.54
662.331	7785.01
662.522	7680.57
662.714	7834.16
662.906	7580.21
663.097	7717.43
663.289	7737.91
663.481	7551.54
663.673	7678.52
663.864	7524.92
664.056	7537.21
664.247	7543.35
664.439	7424.57
664.631	7404.09
664.822	7414.33
665.014	7477.82
665.205	7430.71
665.397	7201.34
665.588	7275.07
665.78	7180.86
665.971	7213.63
666.163	7260.73
666.354	7078.46
666.546	7158.33
666.737	6988.35
666.929	7086.65
667.12	6931.01
667.311	7004.74
667.503	6978.11
667.694	6804.03
667.885	6928.96
668.077	6713.92
668.268	6730.31
668.459	6658.63
668.651	6535.75
668.842	6640.2
669.033	6746.69
669.224	6769.22
669.416	6695.49
669.607	6603.33
669.798	6521.42
669.989	6550.09
670.18	6347.34
670.371	6390.35
670.563	6199.88
670.754	6345.29
670.945	6302.28
671.136	6453.83
671.327	6259.28
671.518	6175.31
671.709	6152.78
671.9	6310.47
672.091	6156.88
672.282	6074.96
672.473	6107.73
672.664	6081.1
672.855	6113.87
673.046	6027.85
673.237	6179.4
673.428	6163.02
673.619	6144.59
673.809	5982.8
674	6046.29
674.191	5780.05
674.382	5804.63
674.573	5919.31
674.764	5950.03
674.954	5677.65
675.145	5700.18
675.336	5810.77
675.527	5648.98
675.717	5904.98
675.908	5554.77
676.099	5741.14
676.289	5618.26
676.48	5651.03
676.671	5511.77
676.861	5612.12
677.052	5503.57
677.243	5634.64
677.433	5407.32
677.624	5446.23
677.814	5591.64
678.005	5317.21
678.195	5397.08
678.386	5454.42
678.576	5460.57
678.767	5452.38
678.957	5317.21
679.148	5505.62
679.338	5335.64
679.529	5360.22
679.719	5272.15
679.909	5372.5
680.1	5290.59
680.29	5384.79
680.481	5266.01
680.671	5272.15
680.861	5223
681.052	5225.05
681.242	5212.76
681.432	5270.11
681.622	5102.17
681.813	5130.84
682.003	5245.53
682.193	5120.6
682.383	5186.14
682.573	5046.88
682.764	5063.26
682.954	5014.11
683.144	5204.57
683.334	4989.53
683.524	4932.19
683.714	4999.77
683.904	4940.38
684.094	4909.66
684.284	4817.51
684.474	4973.15
684.664	4940.38
684.854	5005.92
685.044	4848.22
685.234	4909.66
685.424	4891.23
685.614	4860.51
685.804	4936.29
685.994	4682.34
686.184	4751.97
686.374	4670.05
686.564	4686.44
686.753	4711.01
686.943	4846.18
687.133	4551.27
687.323	4663.91
687.513	4645.48
687.702	4557.41
687.892	4465.25
688.082	4520.55
688.272	4600.42
688.461	4510.31
688.651	4563.56
688.841	4399.72
689.03	4405.86
689.22	4371.05
689.41	4489.83
689.599	4645.48
689.789	4344.42
689.979	4395.62
690.168	4334.18
690.358	4325.99
690.547	4383.34
690.737	4188.78
690.926	4211.31
691.116	4338.28
691.305	4303.47
691.495	4164.2
691.684	4213.35
691.874	4164.2
692.063	4117.1
692.252	4227.69
692.442	4113
692.631	4145.77
692.82	4205.16
693.01	4045.42
693.199	4129.39
693.388	4029.04
693.578	3912.3
693.767	4117.1
693.956	4024.94
694.146	3908.21
694.335	3900.02
694.524	3918.45
694.713	3918.45
694.902	3924.59
695.092	3940.97
695.281	3875.44
695.47	3826.29
695.659	3799.66
695.848	3828.34
696.037	3801.71
696.226	3887.73
696.415	3801.71
696.604	3834.48
696.793	3713.65
696.982	3682.93
697.171	3904.11
697.36	3678.83
697.549	3641.97
697.738	3682.93
697.927	3707.51
698.116	3861.1
698.305	3805.81
698.494	3684.98
698.683	3658.35
698.872	3773.04
699.061	3603.06
699.25	3551.86
699.438	3555.96
699.627	3617.4
699.816	3631.73
700.005	3549.81
700.193	3539.57
700.382	3553.91
700.571	3523.19
700.76	3644.02
700.948	3555.96
701.137	3422.84
701.326	3596.92
701.514	3367.54
701.703	3494.52
701.892	3523.19
702.08	3506.81
702.269	3394.17
702.457	3402.36
702.646	3601.01
702.834	3494.52
703.023	3408.5
703.212	3441.27
703.4	3281.53
703.589	3193.47
703.777	3408.5
703.965	3371.64
704.154	3441.27
704.342	3480.18
704.531	3345.02
704.719	3293.82
704.907	3467.89
705.096	3392.12
705.284	3351.16
705.472	3371.64
705.661	3220.09
705.849	3404.41
706.037	3285.62
706.226	3263.1
706.414	3355.26
706.602	3263.1
706.79	3119.74
706.979	3170.94
707.167	3275.38
707.355	3295.86
707.543	3179.13
707.731	3170.94
707.919	3302.01
708.107	3240.57
708.296	3213.95
708.484	3220.09
708.672	3218.04
708.86	3084.92
709.048	3256.95
709.236	3093.12
709.424	3181.18
709.612	3154.55
709.8	2976.38
709.988	3086.97
710.176	3019.39
710.364	3248.76
710.551	3031.68
710.739	3046.01
710.927	3023.48
711.115	3060.35
711.303	3091.07
711.491	2960
711.679	2974.33
711.866	3089.02
712.054	3121.79
712.242	2945.66
712.43	3115.64
712.617	2910.85
712.805	2941.57
712.993	2939.52
713.181	3031.68
713.368	2998.91
713.556	3064.44
713.744	2951.81
713.931	3150.46
714.119	2951.81
714.306	3000.96
714.494	2753.15
714.682	2900.61
714.869	2941.57
715.057	3025.53
715.244	2941.57
715.432	2925.18
715.619	2966.14
715.807	3007.1
715.994	2916.99
716.182	2976.38
716.369	2833.02
716.556	2802.3
716.744	2849.41
716.931	2828.93
717.119	2867.84
717.306	2787.97
717.493	2847.36
717.681	2904.7
717.868	2796.16
718.055	2777.73
718.242	2851.46
718.43	2966.14
718.617	2744.96
718.804	2912.89
718.991	2742.91
719.179	2900.61
719.366	2845.31
719.553	2851.46
719.74	2777.73
719.927	2765.44
720.114	2718.34
720.301	2732.67
720.488	2673.28
720.676	2701.95
720.863	2757.25
721.05	2732.67
721.237	2732.67
721.424	2638.47
721.611	2697.86
721.798	2626.18
721.985	2638.47
722.172	2626.18
722.358	2724.48
722.545	2695.81
722.732	2691.71
722.919	2777.73
723.106	2646.66
723.293	2648.71
723.48	2652.8
723.667	2648.71
723.853	2706.05
724.04	2736.77
724.227	2605.7
724.414	2636.42
724.6	2556.55
724.787	2599.56
724.974	2583.17
725.161	2599.56
725.347	2736.77
725.534	2548.36
725.72	2607.75
725.907	2671.23
726.094	2581.12
726.28	2665.09
726.467	2605.7
726.653	2605.7
726.84	2656.9
727.027	2669.19
727.213	2695.81
727.4	2593.41
727.586	2505.35
727.773	2548.36
727.959	2589.32
728.145	2574.98
728.332	2515.59
728.518	2605.7
728.705	2503.3
728.891	2519.68
729.077	2570.88
729.264	2462.34
729.45	2564.74
729.636	2472.58
729.823	2527.88
730.009	2572.93
730.195	2488.96
730.382	2450.05
730.568	2548.36
730.754	2550.4
730.94	2491.01
731.126	2531.97
731.313	2558.6
731.499	2368.13
731.685	2488.96
731.871	2527.88
732.057	2480.77
732.243	2544.26
732.429	2462.34
732.615	2493.06
732.801	2388.61
732.987	2462.34
733.173	2441.86
733.359	2318.98
733.545	2427.53
733.731	2386.57
733.917	2507.4
734.103	2306.7
734.289	2413.19
734.475	2511.49
734.661	2540.16
734.847	2425.48
735.033	2460.29
735.219	2429.57
735.404	2450.05
735.59	2253.45
735.776	2392.71
735.962	2417.29
736.148	2413.19
736.333	2407.05
736.519	2409.09
736.705	2308.74
736.89	2314.89
737.076	2353.8
737.262	2361.99
737.447	2310.79
737.633	2204.3
737.819	2384.52
738.004	2368.13
738.19	2263.69
738.375	2286.22
738.561	2275.98
738.747	2323.08
738.932	2390.66
739.118	2380.42
739.303	2308.74
739.489	2241.16
739.674	2216.58
739.859	2185.87
740.045	2237.06
740.23	2255.5
740.416	2185.87
740.601	2239.11
740.786	2134.67
740.972	2073.23
741.157	2228.87
741.342	2163.34
741.528	2108.04
741.713	2257.54
741.898	2120.33
742.084	2220.68
742.269	2134.67
742.454	2056.84
742.639	2155.15
742.824	2114.19
743.01	2120.33
743.195	2087.56
743.38	2048.65
743.565	2099.85
743.75	2036.36
743.935	2036.36
744.12	2105.99
744.305	2015.88
744.49	2114.19
744.675	2073.23
744.86	2026.12
745.045	1983.12
745.23	1925.77
745.415	2091.66
745.6	1995.4
745.785	1895.05
745.97	1999.5
746.155	2058.89
746.34	1933.97
746.525	1946.25
746.71	1911.44
746.895	1929.87
747.079	1843.85
747.264	1933.97
747.449	1827.47
747.634	1860.24
747.819	1911.44
748.003	1845.9
748.188	1839.76
748.373	1860.24
748.557	1837.71
748.742	1827.47
748.927	1714.83
749.111	1753.74
749.296	1712.78
749.481	1778.32
749.665	1802.9
749.85	1637.01
750.034	1714.83
750.219	1770.13
750.404	1639.06
750.588	1614.48
750.773	1704.59
750.957	1559.19
751.141	1743.5
751.326	1606.29
751.51	1673.87
751.695	1630.87
751.879	1471.12
752.064	1510.04
752.248	1553.04
752.432	1614.48
752.617	1657.49
752.801	1510.04
752.985	1573.52
753.17	1540.76
753.354	1524.37
753.538	1544.85
753.722	1411.73
753.907	1393.3
754.091	1479.32
754.275	1495.7
754.459	1387.16
754.643	1393.3
754.828	1510.04
755.012	1342.1
755.196	1309.33
755.38	1395.35
755.564	1458.84
755.748	1407.64
755.932	1391.25
756.116	1331.86
756.3	1354.39
756.484	1270.42
756.668	1313.43
756.852	1313.43
757.036	1256.09
757.22	1180.31
757.404	1311.38
757.588	1280.66
757.772	1333.91
757.956	1348.25
758.14	1217.18
758.323	1133.21
758.507	1213.08
758.691	1297.05
758.875	1256.09
759.059	1348.25
759.242	1237.66
759.426	1262.23
759.61	1204.89
759.794	1208.98
759.977	1155.74
760.161	1157.79
760.345	1155.74
760.528	1116.83
760.712	1092.25
760.895	1112.73
761.079	1159.83
761.263	1143.45
761.446	1016.48
761.63	1149.59
761.813	1092.25
761.997	1034.91
762.18	1106.59
762.364	1127.07
762.547	1049.24
762.731	1024.67
762.914	1065.63
763.098	959.13
763.281	1034.91
763.464	983.71
763.648	987.8
763.831	1073.82
764.015	1004.19
764.198	1090.2
764.381	1032.86
764.564	1065.63
764.748	987.8
764.931	1024.67
765.114	1065.63
765.297	948.89
765.481	1016.48
765.664	1065.63
765.847	967.32
766.03	975.52
766.213	934.56
766.397	903.84
766.58	862.88
766.763	969.37
766.946	942.75
767.129	944.8
767.312	848.54
767.495	975.52
767.678	936.6
767.861	897.69
768.044	920.22
768.227	926.36
768.41	819.87
768.593	887.45
768.776	969.37
768.959	998.04
769.142	936.6
769.324	967.32
769.507	840.35
769.69	920.22
769.873	828.06
770.056	897.69
770.239	854.69
770.421	823.97
770.604	871.07
770.787	848.54
770.97	762.53
771.152	758.43
771.335	934.56
771.518	803.49
771.7	836.25
771.883	909.98
772.066	819.87
772.248	869.02
772.431	834.21
772.613	844.45
772.796	793.25
772.978	803.49
773.161	854.69
773.343	770.72
773.526	803.49
773.708	774.81
773.891	707.23
774.073	778.91
774.256	787.1
774.438	750.24
774.621	580.26
774.803	727.71
774.985	754.34
775.168	770.72
775.35	740
775.532	617.12
775.715	680.61
775.897	729.76
776.079	711.33
776.261	852.64
776.444	639.65
776.626	658.08
776.808	721.57
776.99	647.84
777.173	606.88
777.355	688.8
777.537	682.66
777.719	713.38
777.901	576.16
778.083	684.7
778.265	623.27
778.447	668.32
778.629	592.55
778.811	615.07
778.993	641.7
779.175	574.11
779.357	582.31
779.539	600.74
779.721	651.94
779.903	629.41
780.085	563.87
780.267	578.21
780.449	613.03
780.631	584.35
780.812	582.31
780.994	512.67
781.176	551.59
781.358	592.55
781.54	520.87
781.721	508.58
781.903	574.11
782.085	420.52
782.267	502.44
782.448	590.5
782.63	506.53
782.812	549.54
782.993	541.35
783.175	518.82
783.357	469.67
783.538	426.66
783.72	453.28
783.901	467.62
784.083	500.39
784.264	496.29
784.446	496.29
784.627	516.77
784.809	471.72
784.99	447.14
785.172	516.77
785.353	410.28
785.535	436.9
785.716	400.04
785.897	492.2
786.079	459.43
786.26	449.19
786.441	457.38
786.623	367.27
786.804	486.05
786.985	379.56
787.167	434.85
787.348	365.22
787.529	389.8
787.71	447.14
787.891	459.43
788.073	371.37
788.254	397.99
788.435	373.41
788.616	404.13
788.797	404.13
788.978	430.76
789.159	369.32
789.34	357.03
789.522	350.89
789.703	371.37
789.884	352.93
790.065	348.84
790.246	369.32
790.427	291.49
790.607	391.84
790.788	348.84
790.969	328.36
791.15	434.85
791.331	279.21
791.512	311.97
791.693	303.78
791.874	266.92
792.054	377.51
792.235	434.85
792.416	389.8
792.597	395.94
792.778	328.36
792.958	369.32
793.139	330.41
793.32	354.98
793.5	320.17
793.681	330.41
793.862	340.65
794.042	375.46
794.223	262.82
794.404	299.69
794.584	277.16
794.765	273.06
794.945	299.69
795.126	295.59
795.306	285.35
795.487	340.65
795.667	248.49
795.848	314.02
796.028	205.48
796.209	225.96
796.389	305.83
796.57	268.97
796.75	213.67
796.93	346.79
797.111	279.21
797.291	207.53
797.471	295.59
797.652	283.3
797.832	287.4
798.012	256.68
798.192	240.3
798.373	185
798.553	197.29
798.733	371.37
798.913	248.49
799.093	307.88
799.274	289.45
799.454	279.21
799.634	254.63
799.814	295.59
799.994	230.06
800.174	322.21
800.354	201.38
800.534	213.67
800.714	162.47
800.894	228.01
801.074	258.73
801.254	174.76
801.434	350.89
801.614	219.82
801.794	158.38
801.974	785.05
802.154	164.52
802.334	275.11
802.514	176.81
802.693	166.57
802.873	197.29
803.053	256.68
803.233	201.38
803.413	213.67
803.592	150.18
803.772	180.9
803.952	240.3
804.131	197.29
804.311	172.71
804.491	111.27
804.67	217.77
804.85	193.19
805.03	217.77
805.209	211.62
805.389	193.19
805.568	168.62
805.748	119.46
805.928	232.1
806.107	189.1
806.287	248.49
806.466	275.11
806.646	219.82
806.825	180.9
807.004	144.04
807.184	240.3
807.363	197.29
807.543	156.33
807.722	150.18
807.901	180.9
808.081	174.76
808.26	213.67
808.439	156.33
808.619	127.66
808.798	168.62
808.977	199.34
809.156	205.48
809.336	254.63
809.515	238.25
809.694	168.62
809.873	158.38
810.052	160.42
810.231	225.96
810.411	131.75
810.59	180.9
810.769	137.9
810.948	246.44
811.127	141.99
811.306	45.74
811.485	197.29
811.664	158.38
811.843	158.38
812.022	191.14
812.201	80.55
812.38	172.71
812.559	96.94
812.737	90.79
812.916	131.75
813.095	113.32
813.274	213.67
813.453	101.03
813.632	119.46
813.811	164.52
813.989	111.27
814.168	176.81
814.347	172.71
814.526	141.99
814.704	209.58
814.883	158.38
815.062	166.57
815.24	199.34
815.419	125.61
815.598	117.42
815.776	127.66
815.955	90.79
816.133	141.99
816.312	160.42
816.49	45.74
816.669	213.67
816.847	84.65
817.026	37.55
817.204	111.27
817.383	107.18
817.561	92.84
817.74	141.99
817.918	193.19
818.097	123.56
818.275	135.85
818.453	119.46
818.632	107.18
818.81	123.56
818.988	84.65
819.167	60.07
819.345	123.56
819.523	156.33
819.701	125.61
819.879	137.9
820.058	115.37
820.236	84.65
820.414	84.65
820.592	109.22
820.77	121.51
820.948	180.9
821.127	86.7
821.305	119.46
821.483	133.8
821.661	176.81
821.839	150.18
822.017	82.6
822.195	139.94
822.373	101.03
822.551	51.88
822.729	164.52
822.907	98.99
823.085	64.17
823.262	74.41
823.44	131.75
823.618	86.7
823.796	154.28
823.974	82.6
824.152	131.75
824.329	19.11
824.507	84.65
824.685	90.79
824.863	101.03
825.04	127.66
825.218	92.84
825.396	60.07
825.574	90.79
825.751	123.56
825.929	94.89
826.107	74.41
826.284	10.92
826.462	113.32
826.639	35.5
826.817	101.03
826.994	33.45
827.172	113.32
827.349	60.07
827.527	35.5
827.704	58.03
827.882	55.98
828.059	172.71
828.237	70.31
828.414	164.52
828.591	74.41
828.769	96.94
828.946	152.23
829.124	131.75
829.301	131.75
829.478	17.07
829.655	135.85
829.833	109.22
830.01	84.65
830.187	19.11
830.364	25.26
830.542	66.22
830.719	166.57
830.896	58.03
831.073	43.69
831.25	29.35
831.427	74.41
831.604	148.14
831.782	84.65
831.959	129.7
832.136	25.26
832.313	92.84
832.49	70.31
832.667	70.31
832.844	98.99
833.021	133.8
833.198	66.22
833.374	51.88
833.551	-7.51
833.728	17.07
833.905	74.41
834.082	115.37
834.259	80.55
834.436	129.7
834.612	41.64
834.789	137.9
834.966	51.88
835.143	123.56
835.319	39.59
835.496	58.03
835.673	53.93
835.85	82.6
836.026	45.74
836.203	49.83
836.38	84.65
836.556	107.18
836.733	-3.41
836.909	31.4
837.086	84.65
837.262	70.31
837.439	37.55
837.616	90.79
837.792	37.55
837.968	78.51
838.145	19.11
838.321	74.41
838.498	90.79
838.674	41.64
838.851	-7.51
839.027	45.74
839.203	84.65
839.38	6.83
839.556	84.65
839.732	70.31
839.909	27.31
840.085	37.55
840.261	-5.46
840.437	78.51
840.614	0.68
840.79	111.27
840.966	51.88
841.142	103.08
841.318	45.74
841.494	76.46
841.671	92.84
841.847	27.31
842.023	35.5
842.199	49.83
842.375	68.27
842.551	51.88
842.727	0.68
842.903	123.56
843.079	55.98
843.255	86.7
843.431	64.17
843.607	76.46
843.783	-52.56
843.959	64.17
844.134	-15.7
844.31	29.35
844.486	21.16
844.662	49.83
844.838	90.79
845.013	72.36
845.189	-32.08
845.365	94.89
845.541	68.27
845.716	90.79
845.892	58.03
846.068	66.22
846.244	60.07
846.419	82.6
846.595	-7.51
846.77	78.51
846.946	12.97
847.122	12.97
847.297	39.59
847.473	8.87
847.648	27.31
847.824	84.65
847.999	37.55
848.175	-5.46
848.35	148.14
848.526	60.07
848.701	49.83
848.876	27.31
849.052	70.31
849.227	68.27
849.403	86.7
849.578	-38.23
849.753	111.27
849.929	68.27
850.104	-7.51
850.279	53.93
850.454	25.26
850.63	70.31
850.805	47.79
850.98	76.46
851.155	25.26
851.33	0.68
851.505	31.4
851.681	49.83
851.856	98.99
852.031	58.03
852.206	10.92
852.381	-46.42
852.556	-56.66
852.731	72.36
852.906	-3.41
853.081	49.83
853.256	51.88
853.431	66.22
853.606	84.65
853.781	-30.04
853.956	-15.7
854.131	-46.42
854.305	8.87
854.48	-7.51
854.655	17.07
854.83	35.5
855.005	-23.89
855.18	60.07
855.354	-7.51
855.529	70.31
855.704	39.59
855.879	115.37
856.053	25.26
856.228	10.92
856.403	2.73
856.577	70.31
856.752	-30.04
856.926	90.79
857.101	60.07
857.276	-30.04
857.45	68.27
857.625	45.74
857.799	82.6
857.974	-34.13
858.148	0.68
858.323	117.42
858.497	84.65
858.672	43.69
858.846	33.45
859.02	27.31
859.195	-23.89
859.369	-48.47
859.543	8.87
859.718	109.22
859.892	72.36
860.066	10.92
860.241	41.64
860.415	29.35
860.589	-17.75
860.763	10.92
860.938	-15.7
861.112	53.93
861.286	-46.42
861.46	-3.41
861.634	-7.51
861.808	76.46
861.982	10.92
862.157	-9.56
862.331	-13.65
862.505	82.6
862.679	-15.7
862.853	-5.46
863.027	21.16
863.201	113.32
863.375	-7.51
863.549	49.83
863.722	-5.46
863.896	137.9
864.07	33.45
864.244	-52.56
864.418	90.79
864.592	10.92
864.766	17.07
864.939	-85.33
865.113	19.11
865.287	-17.75
865.461	-5.46
865.634	-7.51
865.808	31.4
865.982	98.99
866.156	8.87
866.329	25.26
866.503	29.35
866.676	70.31
866.85	33.45
867.024	-11.61
867.197	19.11
867.371	33.45
867.544	2.73
867.718	-23.89
867.891	-15.7
868.065	0.68
868.238	-32.08
868.412	-5.46
868.585	-7.51
868.759	23.21
868.932	66.22
869.105	15.02
869.279	19.11
869.452	2.73
869.625	0.68
869.799	80.55
869.972	-7.51
870.145	23.21
870.319	25.26
870.492	0.68
870.665	-23.89
870.838	-77.14
871.011	-42.32
871.185	37.55
871.358	21.16
871.531	74.41
871.704	-73.04
871.877	-9.56
872.05	31.4
872.223	10.92
872.396	49.83
872.569	-11.61
872.742	-9.56
872.915	0.68
873.088	62.12
873.261	51.88
873.434	27.31
873.607	8.87
873.78	-58.71
873.953	-11.61
874.126	17.07
874.299	4.78
874.471	-32.08
874.644	0.68
874.817	15.02
874.99	82.6
875.163	-23.89
875.335	58.03
875.508	-15.7
875.681	35.5
875.853	-21.85
876.026	17.07
876.199	-7.51
876.371	-13.65
876.544	0.68
876.717	43.69
876.889	-46.42
877.062	55.98
877.234	35.5
877.407	45.74
877.579	15.02
877.752	90.79
877.924	8.87
878.097	31.4
878.269	58.03
878.442	35.5
878.614	41.64
878.786	58.03
878.959	49.83
879.131	-36.18
879.303	37.55
879.476	35.5
879.648	8.87
879.82	35.5
879.993	-7.51
880.165	2.73
880.337	8.87
880.509	-19.8
880.681	4.78
880.854	-30.04
881.026	-7.51
881.198	43.69
881.37	72.36
881.542	-32.08
881.714	10.92
881.886	0.68
882.058	115.37
882.23	68.27
882.402	8.87
882.574	8.87
882.746	21.16
882.918	74.41
883.09	-3.41
883.262	35.5
883.434	-32.08
883.606	-9.56
883.778	19.11
883.95	64.17
884.122	-3.41
884.293	111.27
884.465	25.26
884.637	19.11
884.809	-3.41
884.98	29.35
885.152	-13.65
885.324	33.45
885.496	-44.37
885.667	33.45
885.839	-19.8
886.011	35.5
886.182	-7.51
886.354	25.26
886.525	8.87
886.697	15.02
886.869	-23.89
887.04	-64.85
887.212	-13.65
887.383	53.93
887.555	0.68
887.726	-32.08
887.897	35.5
888.069	-15.7
888.24	53.93
888.412	17.07
888.583	-44.37
888.754	25.26
888.926	-30.04
889.097	21.16
889.268	-36.18
889.44	43.69
889.611	-60.76
889.782	10.92
889.953	-62.8
890.125	-32.08
890.296	-83.28
890.467	58.03
890.638	-3.41
890.809	4.78
890.98	-66.9
891.151	-23.89
891.323	51.88
891.494	-50.52
891.665	58.03
891.836	-15.7
892.007	-52.56
892.178	10.92
892.349	-3.41
892.52	-25.94
892.691	8.87
892.862	-1.37
893.032	15.02
893.203	33.45
893.374	-32.08
893.545	17.07
893.716	-36.18
893.887	19.11
894.057	-17.75
894.228	-48.47
894.399	25.26
894.57	27.31
894.74	-7.51
894.911	-23.89
895.082	-93.52
895.253	15.02
895.423	-109.91
895.594	-27.99
895.764	8.87
895.935	-21.85
896.106	-1.37
896.276	6.83
896.447	-27.99
896.617	-1.37
896.788	6.83
896.958	-52.56
897.129	-3.41
897.299	10.92
897.47	21.16
897.64	33.45
897.81	17.07
897.981	39.59
898.151	-34.13
898.322	17.07
898.492	25.26
898.662	-50.52
898.832	-68.95
899.003	62.12
899.173	45.74
899.343	-27.99
899.513	-101.72
