Data from USB4F104151__170__14-19-53-499.txt Node

Date: Thu Mar 13 14:19:53 EDT 2025
User: louis
Spectrometer: USB4F10415
Trigger mode: 4
Integration Time (sec): 2.000000E-2
Scans to average: 1
Electric dark correction enabled: true
Nonlinearity correction enabled: false
Boxcar width: 0
XAxis mode: Wavelengths
Number of Pixels in Spectrum: 3648
>>>>>Begin Spectral Data<<<<<
178.204	-93.18
178.424	-93.18
178.644	-93.18
178.864	-101.37
179.084	-76.8
179.304	-7.17
179.524	-29.7
179.744	-7.17
179.964	29.7
180.184	9.22
180.404	-27.65
180.624	-19.46
180.844	13.31
181.064	-39.94
181.283	3.07
181.503	-9.22
181.723	84.99
181.943	-97.28
182.163	-44.03
182.383	62.46
182.602	23.55
182.822	54.27
183.042	-33.79
183.262	17.41
183.482	19.46
183.701	-37.89
183.921	-9.22
184.141	-33.79
184.361	91.13
184.58	5.12
184.8	5.12
185.02	-27.65
185.239	78.85
185.459	-35.84
185.679	21.5
185.898	-78.85
186.118	97.28
186.338	11.26
186.557	17.41
186.777	37.89
186.997	-25.6
187.216	21.5
187.436	95.23
187.655	-3.07
187.875	3.07
188.095	17.41
188.314	56.32
188.534	46.08
188.753	-7.17
188.973	-25.6
189.192	5.12
189.412	56.32
189.631	1.02
189.851	-101.37
190.07	78.85
190.29	9.22
190.509	13.31
190.729	9.22
190.948	29.7
191.168	144.38
191.387	95.23
191.607	15.36
191.826	21.5
192.045	11.26
192.265	9.22
192.484	68.61
192.704	-11.26
192.923	-15.36
193.142	103.42
193.362	37.89
193.581	19.46
193.8	-25.6
194.02	46.08
194.239	31.74
194.458	-27.65
194.678	-48.13
194.897	50.18
195.116	-7.17
195.335	19.46
195.555	-39.94
195.774	23.55
195.993	54.27
196.212	17.41
196.432	-35.84
196.651	-35.84
196.87	50.18
197.089	41.98
197.308	37.89
197.528	23.55
197.747	-3.07
197.966	17.41
198.185	29.7
198.404	37.89
198.623	60.42
198.842	21.5
199.062	-7.17
199.281	50.18
199.5	-15.36
199.719	87.04
199.938	44.03
200.157	17.41
200.376	15.36
200.595	95.23
200.814	11.26
201.033	29.7
201.252	33.79
201.471	46.08
201.69	17.41
201.909	-31.74
202.128	19.46
202.347	-5.12
202.566	56.32
202.785	-1.02
203.004	-23.55
203.223	64.51
203.442	95.23
203.661	19.46
203.879	33.79
204.098	78.85
204.317	-17.41
204.536	25.6
204.755	-33.79
204.974	25.6
205.193	25.6
205.411	52.22
205.63	58.37
205.849	103.42
206.068	13.31
206.287	-21.5
206.505	50.18
206.724	-3.07
206.943	60.42
207.162	11.26
207.381	-46.08
207.599	-27.65
207.818	-9.22
208.037	-11.26
208.255	25.6
208.474	21.5
208.693	-13.31
208.911	54.27
209.13	-19.46
209.349	-15.36
209.567	78.85
209.786	33.79
210.005	1.02
210.223	-27.65
210.442	-44.03
210.661	-27.65
210.879	41.98
211.098	29.7
211.316	-9.22
211.535	-27.65
211.753	31.74
211.972	15.36
212.191	-64.51
212.409	1.02
212.628	-17.41
212.846	19.46
213.065	31.74
213.283	68.61
213.502	50.18
213.72	13.31
213.938	29.7
214.157	11.26
214.375	-5.12
214.594	113.66
214.812	29.7
215.031	-23.55
215.249	15.36
215.467	-15.36
215.686	-46.08
215.904	37.89
216.122	48.13
216.341	103.42
216.559	-9.22
216.778	99.33
216.996	17.41
217.214	-19.46
217.432	35.84
217.651	19.46
217.869	17.41
218.087	-25.6
218.306	-11.26
218.524	15.36
218.742	-13.31
218.96	17.41
219.179	74.75
219.397	62.46
219.615	115.71
219.833	-58.37
220.051	54.27
220.27	-5.12
220.488	-7.17
220.706	21.5
220.924	-11.26
221.142	3.07
221.36	27.65
221.578	-25.6
221.796	-50.18
222.015	37.89
222.233	52.22
222.451	52.22
222.669	33.79
222.887	46.08
223.105	60.42
223.323	-11.26
223.541	23.55
223.759	5.12
223.977	5.12
224.195	33.79
224.413	21.5
224.631	70.65
224.849	74.75
225.067	113.66
225.285	-3.07
225.503	-25.6
225.721	-48.13
225.939	37.89
226.157	9.22
226.375	97.28
226.592	-23.55
226.81	37.89
227.028	17.41
227.246	87.04
227.464	-1.02
227.682	123.9
227.9	41.98
228.117	50.18
228.335	-31.74
228.553	23.55
228.771	11.26
228.989	78.85
229.206	37.89
229.424	-17.41
229.642	48.13
229.86	-37.89
230.077	72.7
230.295	44.03
230.513	84.99
230.731	95.23
230.948	29.7
231.166	64.51
231.384	56.32
231.601	15.36
231.819	13.31
232.037	9.22
232.254	64.51
232.472	89.09
232.689	-66.56
232.907	91.13
233.125	21.5
233.342	1.02
233.56	-7.17
233.777	-15.36
233.995	54.27
234.213	80.89
234.43	17.41
234.648	23.55
234.865	31.74
235.083	39.94
235.3	70.65
235.518	41.98
235.735	70.65
235.953	70.65
236.17	5.12
236.388	39.94
236.605	-19.46
236.822	29.7
237.04	15.36
237.257	7.17
237.475	-78.85
237.692	46.08
237.909	62.46
238.127	-62.46
238.344	21.5
238.562	84.99
238.779	-35.84
238.996	-17.41
239.214	23.55
239.431	-3.07
239.648	-27.65
239.865	-3.07
240.083	19.46
240.3	21.5
240.517	-1.02
240.735	21.5
240.952	11.26
241.169	29.7
241.386	-5.12
241.603	52.22
241.821	-35.84
242.038	17.41
242.255	13.31
242.472	-9.22
242.689	50.18
242.907	111.61
243.124	62.46
243.341	5.12
243.558	50.18
243.775	-3.07
243.992	72.7
244.209	21.5
244.426	91.13
244.643	93.18
244.86	-27.65
245.078	48.13
245.295	5.12
245.512	21.5
245.729	13.31
245.946	56.32
246.163	-11.26
246.38	29.7
246.597	11.26
246.814	82.94
247.031	-13.31
247.248	25.6
247.464	25.6
247.681	58.37
247.898	33.79
248.115	46.08
248.332	5.12
248.549	37.89
248.766	70.65
248.983	50.18
249.2	54.27
249.417	23.55
249.633	39.94
249.85	13.31
250.067	-101.37
250.284	60.42
250.501	97.28
250.717	84.99
250.934	-3.07
251.151	54.27
251.368	5.12
251.585	33.79
251.801	5.12
252.018	-11.26
252.235	23.55
252.451	39.94
252.668	39.94
252.885	23.55
253.102	-15.36
253.318	-39.94
253.535	95.23
253.752	-68.61
253.968	-33.79
254.185	5.12
254.401	41.98
254.618	101.37
254.835	66.56
255.051	62.46
255.268	66.56
255.484	70.65
255.701	37.89
255.917	78.85
256.134	-9.22
256.351	35.84
256.567	56.32
256.784	15.36
257	-15.36
257.217	-3.07
257.433	5.12
257.65	54.27
257.866	39.94
258.082	29.7
258.299	-31.74
258.515	46.08
258.732	17.41
258.948	-17.41
259.165	-41.98
259.381	39.94
259.597	21.5
259.814	-31.74
260.03	66.56
260.246	29.7
260.463	74.75
260.679	105.47
260.895	31.74
261.112	41.98
261.328	7.17
261.544	-11.26
261.761	50.18
261.977	48.13
262.193	-1.02
262.409	95.23
262.626	31.74
262.842	-29.7
263.058	-27.65
263.274	-3.07
263.49	5.12
263.707	54.27
263.923	56.32
264.139	-50.18
264.355	17.41
264.571	113.66
264.787	58.37
265.004	64.51
265.22	29.7
265.436	13.31
265.652	-1.02
265.868	50.18
266.084	66.56
266.3	46.08
266.516	5.12
266.732	54.27
266.948	1.02
267.164	15.36
267.38	35.84
267.596	48.13
267.812	50.18
268.028	109.57
268.244	37.89
268.46	-7.17
268.676	82.94
268.892	39.94
269.108	5.12
269.324	48.13
269.54	37.89
269.756	41.98
269.972	-23.55
270.188	-27.65
270.403	52.22
270.619	7.17
270.835	25.6
271.051	5.12
271.267	-33.79
271.483	19.46
271.698	93.18
271.914	58.37
272.13	9.22
272.346	-13.31
272.562	74.75
272.777	-33.79
272.993	21.5
273.209	54.27
273.425	41.98
273.64	-9.22
273.856	29.7
274.072	-68.61
274.287	-25.6
274.503	52.22
274.719	97.28
274.934	31.74
275.15	-9.22
275.366	-9.22
275.581	62.46
275.797	25.6
276.012	-3.07
276.228	-25.6
276.444	-27.65
276.659	21.5
276.875	-74.75
277.09	87.04
277.306	-25.6
277.521	21.5
277.737	52.22
277.952	144.38
278.168	-19.46
278.383	7.17
278.599	-39.94
278.814	-31.74
279.03	-31.74
279.245	-9.22
279.461	-15.36
279.676	89.09
279.892	39.94
280.107	35.84
280.322	-33.79
280.538	52.22
280.753	72.7
280.969	35.84
281.184	-44.03
281.399	27.65
281.615	60.42
281.83	74.75
282.045	52.22
282.26	-3.07
282.476	13.31
282.691	70.65
282.906	37.89
283.122	15.36
283.337	-56.32
283.552	23.55
283.767	29.7
283.983	68.61
284.198	95.23
284.413	37.89
284.628	-15.36
284.843	62.46
285.058	29.7
285.274	-31.74
285.489	-1.02
285.704	62.46
285.919	-15.36
286.134	7.17
286.349	7.17
286.564	21.5
286.779	134.14
286.995	9.22
287.21	54.27
287.425	7.17
287.64	-11.26
287.855	123.9
288.07	-1.02
288.285	74.75
288.5	13.31
288.715	78.85
288.93	-17.41
289.145	52.22
289.36	37.89
289.575	13.31
289.79	103.42
290.004	74.75
290.219	-1.02
290.434	7.17
290.649	-52.22
290.864	21.5
291.079	-39.94
291.294	54.27
291.509	3.07
291.724	-60.42
291.938	-11.26
292.153	19.46
292.368	17.41
292.583	-7.17
292.798	37.89
293.012	84.99
293.227	31.74
293.442	-11.26
293.657	19.46
293.871	91.13
294.086	25.6
294.301	66.56
294.516	56.32
294.73	25.6
294.945	-1.02
295.16	3.07
295.374	54.27
295.589	70.65
295.804	7.17
296.018	54.27
296.233	70.65
296.447	17.41
296.662	-1.02
296.877	-15.36
297.091	1.02
297.306	25.6
297.52	62.46
297.735	119.81
297.949	1.02
298.164	46.08
298.378	70.65
298.593	70.65
298.807	-66.56
299.022	11.26
299.236	44.03
299.451	27.65
299.665	-13.31
299.88	58.37
300.094	17.41
300.309	5.12
300.523	64.51
300.737	-41.98
300.952	-11.26
301.166	-27.65
301.381	66.56
301.595	-3.07
301.809	31.74
302.024	58.37
302.238	-29.7
302.452	13.31
302.667	29.7
302.881	13.31
303.095	-9.22
303.309	25.6
303.524	5.12
303.738	13.31
303.952	-48.13
304.166	62.46
304.381	-74.75
304.595	-21.5
304.809	29.7
305.023	64.51
305.237	29.7
305.452	33.79
305.666	5.12
305.88	66.56
306.094	-17.41
306.308	-50.18
306.522	17.41
306.736	21.5
306.95	21.5
307.164	21.5
307.379	-27.65
307.593	13.31
307.807	87.04
308.021	13.31
308.235	64.51
308.449	5.12
308.663	19.46
308.877	64.51
309.091	37.89
309.305	93.18
309.519	-3.07
309.733	80.89
309.947	-3.07
310.161	5.12
310.374	84.99
310.588	-3.07
310.802	3.07
311.016	-35.84
311.23	25.6
311.444	39.94
311.658	62.46
311.872	-44.03
312.085	33.79
312.299	-52.22
312.513	56.32
312.727	70.65
312.941	17.41
313.154	-27.65
313.368	13.31
313.582	17.41
313.796	37.89
314.009	29.7
314.223	7.17
314.437	21.5
314.651	25.6
314.864	48.13
315.078	-19.46
315.292	-11.26
315.505	-60.42
315.719	-9.22
315.933	-3.07
316.146	29.7
316.36	-35.84
316.573	33.79
316.787	33.79
317.001	58.37
317.214	21.5
317.428	1.02
317.641	-1.02
317.855	1.02
318.068	37.89
318.282	64.51
318.495	29.7
318.709	-58.37
318.922	13.31
319.136	111.61
319.349	25.6
319.563	35.84
319.776	21.5
319.99	-11.26
320.203	15.36
320.417	29.7
320.63	-23.55
320.843	39.94
321.057	56.32
321.27	91.13
321.483	15.36
321.697	103.42
321.91	46.08
322.124	87.04
322.337	37.89
322.55	-19.46
322.763	1.02
322.977	74.75
323.19	-1.02
323.403	-7.17
323.617	62.46
323.83	-25.6
324.043	-21.5
324.256	-5.12
324.469	41.98
324.683	76.8
324.896	29.7
325.109	13.31
325.322	-33.79
325.535	11.26
325.748	54.27
325.962	-11.26
326.175	-27.65
326.388	82.94
326.601	62.46
326.814	5.12
327.027	-13.31
327.24	72.7
327.453	-13.31
327.666	68.61
327.879	62.46
328.092	3.07
328.305	-7.17
328.518	33.79
328.731	31.74
328.944	50.18
329.157	23.55
329.37	70.65
329.583	78.85
329.796	111.61
330.009	-60.42
330.222	37.89
330.435	95.23
330.648	-15.36
330.861	5.12
331.073	29.7
331.286	54.27
331.499	66.56
331.712	23.55
331.925	62.46
332.138	19.46
332.35	56.32
332.563	-37.89
332.776	5.12
332.989	5.12
333.202	-19.46
333.414	-58.37
333.627	41.98
333.84	37.89
334.053	48.13
334.265	5.12
334.478	54.27
334.691	31.74
334.903	66.56
335.116	27.65
335.329	-1.02
335.541	50.18
335.754	48.13
335.966	46.08
336.179	62.46
336.392	-9.22
336.604	50.18
336.817	46.08
337.029	56.32
337.242	3.07
337.454	130.05
337.667	21.5
337.88	-11.26
338.092	5.12
338.305	37.89
338.517	23.55
338.729	70.65
338.942	128
339.154	54.27
339.367	-23.55
339.579	33.79
339.792	-50.18
340.004	13.31
340.217	82.94
340.429	62.46
340.641	41.98
340.854	23.55
341.066	-52.22
341.278	50.18
341.491	113.66
341.703	48.13
341.915	-27.65
342.128	25.6
342.34	70.65
342.552	-3.07
342.764	13.31
342.977	-3.07
343.189	78.85
343.401	25.6
343.613	-52.22
343.826	54.27
344.038	-3.07
344.25	50.18
344.462	-23.55
344.674	-5.12
344.886	-41.98
345.099	-21.5
345.311	1.02
345.523	54.27
345.735	33.79
345.947	87.04
346.159	-7.17
346.371	-17.41
346.583	-3.07
346.795	115.71
347.007	23.55
347.219	48.13
347.431	19.46
347.643	-11.26
347.855	39.94
348.067	29.7
348.279	-60.42
348.491	31.74
348.703	-19.46
348.915	62.46
349.127	-76.8
349.339	41.98
349.551	37.89
349.763	119.81
349.975	46.08
350.187	44.03
350.399	48.13
350.61	54.27
350.822	29.7
351.034	50.18
351.246	37.89
351.458	103.42
351.669	54.27
351.881	7.17
352.093	138.24
352.305	95.23
352.517	72.7
352.728	13.31
352.94	44.03
353.152	9.22
353.363	54.27
353.575	113.66
353.787	66.56
353.999	31.74
354.21	56.32
354.422	21.5
354.633	46.08
354.845	17.41
355.057	-17.41
355.268	48.13
355.48	37.89
355.692	27.65
355.903	23.55
356.115	31.74
356.326	-11.26
356.538	89.09
356.749	5.12
356.961	41.98
357.172	-19.46
357.384	-27.65
357.595	70.65
357.807	-54.27
358.018	37.89
358.23	21.5
358.441	13.31
358.653	87.04
358.864	23.55
359.075	-1.02
359.287	113.66
359.498	70.65
359.709	80.89
359.921	103.42
360.132	87.04
360.344	29.7
360.555	41.98
360.766	15.36
360.977	62.46
361.189	35.84
361.4	27.65
361.611	46.08
361.823	66.56
362.034	13.31
362.245	9.22
362.456	52.22
362.667	87.04
362.879	-19.46
363.09	-21.5
363.301	54.27
363.512	5.12
363.723	9.22
363.935	80.89
364.146	103.42
364.357	70.65
364.568	37.89
364.779	-13.31
364.99	48.13
365.201	13.31
365.412	48.13
365.623	-33.79
365.834	56.32
366.045	-9.22
366.256	56.32
366.467	56.32
366.678	21.5
366.889	17.41
367.1	35.84
367.311	48.13
367.522	17.41
367.733	13.31
367.944	29.7
368.155	29.7
368.366	15.36
368.577	17.41
368.788	109.57
368.999	97.28
369.209	29.7
369.42	62.46
369.631	89.09
369.842	52.22
370.053	21.5
370.264	95.23
370.474	41.98
370.685	46.08
370.896	89.09
371.107	87.04
371.317	171.01
371.528	64.51
371.739	121.85
371.95	-15.36
372.16	50.18
372.371	89.09
372.582	15.36
372.792	41.98
373.003	23.55
373.214	-5.12
373.424	97.28
373.635	31.74
373.846	-19.46
374.056	1.02
374.267	5.12
374.477	21.5
374.688	74.75
374.898	54.27
375.109	54.27
375.319	54.27
375.53	33.79
375.74	64.51
375.951	19.46
376.161	128
376.372	17.41
376.582	13.31
376.793	-7.17
377.003	-11.26
377.214	52.22
377.424	119.81
377.635	103.42
377.845	-11.26
378.055	66.56
378.266	74.75
378.476	-82.94
378.686	62.46
378.897	11.26
379.107	58.37
379.317	87.04
379.528	54.27
379.738	87.04
379.948	9.22
380.158	95.23
380.369	-35.84
380.579	56.32
380.789	15.36
380.999	54.27
381.21	-5.12
381.42	74.75
381.63	76.8
381.84	68.61
382.05	62.46
382.261	46.08
382.471	9.22
382.681	-23.55
382.891	93.18
383.101	29.7
383.311	70.65
383.521	21.5
383.731	87.04
383.941	107.52
384.151	23.55
384.361	17.41
384.571	-19.46
384.781	84.99
384.991	72.7
385.201	146.43
385.411	58.37
385.621	119.81
385.831	9.22
386.041	62.46
386.251	84.99
386.461	84.99
386.671	-99.33
386.881	121.85
387.091	95.23
387.301	121.85
387.511	-9.22
387.72	103.42
387.93	35.84
388.14	58.37
388.35	70.65
388.56	101.37
388.769	5.12
388.979	29.7
389.189	-7.17
389.399	19.46
389.609	105.47
389.818	64.51
390.028	46.08
390.238	70.65
390.447	64.51
390.657	48.13
390.867	48.13
391.076	21.5
391.286	-11.26
391.496	128
391.705	9.22
391.915	48.13
392.125	97.28
392.334	-19.46
392.544	128
392.753	39.94
392.963	41.98
393.172	-15.36
393.382	128
393.591	121.85
393.801	3.07
394.01	99.33
394.22	58.37
394.429	37.89
394.639	66.56
394.848	101.37
395.058	46.08
395.267	80.89
395.477	60.42
395.686	93.18
395.895	78.85
396.105	107.52
396.314	54.27
396.524	105.47
396.733	29.7
396.942	160.77
397.152	72.7
397.361	111.61
397.57	80.89
397.78	132.09
397.989	91.13
398.198	134.14
398.407	111.61
398.617	89.09
398.826	87.04
399.035	44.03
399.244	123.9
399.453	144.38
399.663	48.13
399.872	13.31
400.081	48.13
400.29	56.32
400.499	35.84
400.708	103.42
400.917	185.34
401.127	132.09
401.336	103.42
401.545	211.96
401.754	70.65
401.963	89.09
402.172	60.42
402.381	105.47
402.59	103.42
402.799	136.19
403.008	103.42
403.217	134.14
403.426	199.68
403.635	84.99
403.844	128
404.053	72.7
404.262	41.98
404.471	91.13
404.68	160.77
404.888	64.51
405.097	107.52
405.306	119.81
405.515	152.57
405.724	148.48
405.933	136.19
406.142	177.15
406.35	201.72
406.559	171.01
406.768	211.96
406.977	201.72
407.185	177.15
407.394	154.62
407.603	140.29
407.812	226.3
408.02	236.54
408.229	218.11
408.438	193.53
408.646	220.16
408.855	183.29
409.064	238.59
409.272	271.36
409.481	244.73
409.69	275.45
409.898	250.88
410.107	261.12
410.315	263.16
410.524	287.74
410.733	291.84
410.941	267.26
411.15	246.78
411.358	353.27
411.567	398.33
411.775	320.51
411.984	363.51
412.192	357.37
412.401	424.95
412.609	486.39
412.818	457.72
413.026	390.14
413.234	433.15
413.443	506.87
413.651	429.05
413.86	504.82
414.068	457.72
414.276	513.02
414.485	490.49
414.693	578.55
414.901	609.27
415.11	582.65
415.318	543.74
415.526	584.7
415.734	820.21
415.943	777.2
416.151	701.43
416.359	789.49
416.567	742.39
416.776	721.91
416.984	787.44
417.192	836.6
417.4	832.5
417.608	859.12
417.817	818.16
418.025	922.61
418.233	1000.43
418.441	957.43
418.649	1004.53
418.857	1111.02
419.065	1248.24
419.273	1178.61
419.481	1154.03
419.689	1184.75
419.897	1315.82
420.105	1287.15
420.313	1455.08
420.521	1328.11
420.729	1418.22
420.937	1405.93
421.145	1537
421.353	1569.77
421.561	1637.35
421.769	1723.37
421.977	1747.94
422.185	1711.08
422.393	1797.09
422.601	1987.55
422.809	1934.31
423.017	2012.13
423.224	2106.34
423.432	2124.77
423.64	2171.87
423.848	2327.52
424.056	2218.97
424.263	2380.76
424.471	2458.59
424.679	2552.79
424.887	2722.77
425.094	2798.55
425.302	2808.79
425.51	2823.12
425.718	3044.31
425.925	2913.24
426.133	3120.08
426.341	3335.12
426.548	3380.17
426.756	3466.19
426.964	3326.93
427.171	3668.94
427.379	3759.05
427.586	3759.05
427.794	3990.47
428.001	4021.19
428.209	4154.3
428.417	4158.4
428.624	4395.96
428.832	4434.88
429.039	4475.84
429.247	4336.57
429.454	4867
429.662	5180.34
429.869	4901.81
430.076	5143.47
430.284	5118.9
430.491	5323.69
430.699	5628.84
430.906	5743.53
431.114	5612.46
431.321	5796.78
431.528	5942.18
431.736	6427.55
431.943	6699.93
432.15	6482.85
432.358	6480.8
432.565	7019.41
432.772	6978.45
432.979	7324.56
433.187	7349.14
433.394	7349.14
433.601	7721.87
433.808	7891.85
434.016	8065.92
434.223	8215.43
434.43	8678.27
434.637	8565.63
434.844	9028.47
435.052	9024.37
435.259	9089.91
435.466	9229.17
435.673	8989.56
435.88	9837.42
436.087	10328.93
436.294	10261.35
436.501	9997.16
436.708	10320.74
436.915	10462.05
437.122	10947.42
437.329	10879.83
437.537	11033.43
437.743	11455.31
437.95	11326.29
438.157	12133.19
438.364	12354.37
438.571	12491.59
438.778	12567.36
438.985	13579.06
439.192	13189.94
439.399	13517.62
439.606	12948.28
439.813	13884.2
440.02	14766.88
440.227	14500.64
440.433	14496.55
440.64	14646.05
440.847	14752.54
441.054	14955.29
441.261	16048.91
441.467	15936.27
441.674	16042.76
441.881	16548.61
442.088	16775.94
442.294	16655.11
442.501	17072.89
442.708	17240.82
442.914	17838.83
443.121	18711.27
443.328	18465.51
443.534	19569.37
443.741	18924.26
443.948	18578.15
444.154	20007.63
444.361	19976.91
444.568	20110.03
444.774	20292.3
444.981	20142.8
445.187	20574.92
445.394	21689.01
445.6	21490.36
445.807	23351.96
446.013	22452.91
446.22	22995.62
446.426	23945.87
446.633	23866
446.839	24928.9
447.046	23452.31
447.252	25019.01
447.459	25121.41
447.665	25217.66
447.871	26047.09
448.078	27462.24
448.284	26126.96
448.491	26677.86
448.697	27968.09
448.903	28101.2
449.11	28027.48
449.316	27628.12
449.522	28385.87
449.728	29223.49
449.935	29401.66
450.141	29057.6
450.347	29874.74
450.553	29063.75
450.76	29557.31
450.966	30161.46
451.172	29837.88
451.378	30958.12
451.584	30321.2
451.791	31318.56
451.997	30777.9
452.203	31119.91
452.409	31494.69
452.615	31105.57
452.821	29882.94
453.027	29588.03
453.233	31083.05
453.44	30147.12
453.646	30327.35
453.852	30886.44
454.058	30761.51
454.264	29942.33
454.47	30884.39
454.676	29819.45
454.882	30919.21
455.088	28428.88
455.294	28904.01
455.5	29393.47
455.705	29286.98
455.911	28443.21
456.117	27703.9
456.323	27443.81
456.529	25985.65
456.735	27083.36
456.941	26530.41
457.147	26055.28
457.352	25164.42
457.558	24875.65
457.764	24646.28
457.97	24810.12
458.176	24177.3
458.381	24187.53
458.587	22913.7
458.793	23030.43
458.999	21580.47
459.204	23138.97
459.41	22680.23
459.616	21115.58
459.821	21463.74
460.027	21160.64
460.233	20521.67
460.438	19813.07
460.644	20026.06
460.85	19075.8
461.055	18668.26
461.261	18483.94
461.466	17216.25
461.672	16855.81
461.878	17656.56
462.083	16782.08
462.289	16425.73
462.494	16280.33
462.7	15364.89
462.905	15223.58
463.111	15667.98
463.316	15731.47
463.522	15315.73
463.727	15399.7
463.932	15342.36
464.138	15311.64
464.343	15098.65
464.549	14709.54
464.754	15297.3
464.959	15209.24
465.165	14961.44
465.37	14590.75
465.575	13900.59
465.781	14830.37
465.986	14867.23
466.191	14361.38
466.397	13765.42
466.602	13345.59
466.807	13706.03
467.012	13531.95
467.218	13714.22
467.423	13390.64
467.628	13634.35
467.833	14170.92
468.038	13630.26
468.244	13144.89
468.449	13941.55
468.654	13278.01
468.859	13038.39
469.064	13118.26
469.269	12677.95
469.474	12702.53
469.679	12964.67
469.885	12645.18
470.09	12806.97
470.295	12995.39
470.5	12290.88
470.705	12503.87
470.91	12331.84
471.115	11983.69
471.32	12354.37
471.525	12047.18
471.73	11848.52
471.935	11899.72
472.139	11488.08
472.344	11733.84
472.549	11477.84
472.754	11486.03
472.959	11316.05
473.164	11015
473.369	10857.31
473.574	11141.97
473.778	11019.1
473.983	10910.55
474.188	10949.46
474.393	10392.42
474.598	10615.65
474.802	10265.44
475.007	10249.06
475.212	10195.81
475.417	9888.62
475.621	9902.95
475.826	10070.89
476.031	9665.39
476.235	9741.16
476.44	9927.53
476.645	9255.79
476.849	9630.57
477.054	9405.3
477.259	9337.71
477.463	9378.67
477.668	9233.27
477.872	9339.76
478.077	9085.81
478.282	8747.9
478.486	8749.95
478.691	8643.45
478.895	8672.12
479.1	8721.27
479.304	8692.6
479.509	8242.05
479.713	8418.18
479.918	8340.35
480.122	8215.43
480.326	8344.45
480.531	8475.52
480.735	8143.75
480.94	8262.53
481.144	8432.51
481.348	8055.69
481.553	8213.38
481.757	7945.09
481.961	8201.09
482.166	8391.55
482.37	8035.21
482.574	8053.64
482.778	7928.71
482.983	8188.8
483.187	8086.4
483.391	8049.54
483.595	8051.59
483.8	7967.62
484.004	8127.36
484.208	8158.08
484.412	8018.82
484.616	7959.43
484.821	7973.77
485.025	7846.79
485.229	7979.91
485.433	7791.5
485.637	7951.24
485.841	7902.09
486.045	7838.6
486.249	7881.61
486.453	8000.39
486.657	7979.91
486.861	8012.68
487.065	7820.17
487.269	8002.44
487.473	7926.66
487.677	8002.44
487.881	8074.12
488.085	7900.04
488.289	7861.13
488.493	7863.18
488.697	8086.4
488.901	8020.87
489.105	8016.77
489.309	8174.47
489.512	8094.6
489.716	8008.58
489.92	8067.97
490.124	8108.93
490.328	8207.23
490.531	8196.99
490.735	8192.9
490.939	8131.46
491.143	8190.85
491.346	8115.08
491.55	8469.37
491.754	8127.36
491.958	8264.58
492.161	8213.38
492.365	8240
492.569	8457.09
492.772	8618.88
492.976	8522.62
493.18	8635.26
493.383	8594.3
493.587	8657.79
493.79	8729.47
493.994	8616.83
494.197	8758.14
494.401	9077.62
494.605	8842.11
494.808	8934.26
495.012	8934.26
495.215	9165.68
495.419	9094.01
495.622	9057.14
495.825	9147.25
496.029	9167.73
496.232	9517.93
496.436	9378.67
496.639	9814.89
496.843	9405.3
497.046	9816.94
497.249	9892.71
497.453	9716.59
497.656	10148.71
497.859	9943.91
498.063	10191.72
498.266	10244.96
498.469	10386.27
498.673	10521.44
498.876	10777.44
499.079	10558.3
499.282	10703.71
499.485	11055.96
499.689	11006.81
499.892	11019.1
500.095	11041.62
500.298	11492.18
500.501	11322.2
500.705	11604.81
500.908	11742.03
501.111	11694.93
501.314	11789.13
501.517	11922.25
501.72	12143.43
501.923	12145.48
502.126	12346.18
502.329	12424
502.532	12827.45
502.735	12729.15
502.938	12993.34
503.141	13112.12
503.344	13220.66
503.547	13380.4
503.75	13613.87
503.953	13767.47
504.156	13882.16
504.359	13783.85
504.562	13964.07
504.765	14252.84
504.968	14666.53
505.17	14465.83
505.373	14373.67
505.576	14701.34
505.779	15045.4
505.982	15057.69
506.185	15395.61
506.387	15512.34
506.59	15475.48
506.793	15893.26
506.996	15952.65
507.198	16257.8
507.401	16196.36
507.604	16587.52
507.807	16820.99
508.009	16769.79
508.212	16921.34
508.415	17265.4
508.617	17232.63
508.82	17576.69
509.022	17197.82
509.225	17738.48
509.428	17883.89
509.63	18027.24
509.833	18031.34
510.035	18598.63
510.238	18240.23
510.44	18647.78
510.643	19249.88
510.845	19231.45
511.048	19012.32
511.25	19415.77
511.453	19464.92
511.655	20345.55
511.858	19866.32
512.06	20058.83
512.262	20558.53
512.465	20302.54
512.667	20562.63
512.87	20681.41
513.072	20867.78
513.274	21242.56
513.477	21600.95
513.679	21603
513.881	21904.05
514.084	22151.85
514.286	22102.7
514.488	22231.72
514.69	22708.9
514.893	22837.92
515.095	23128.74
515.297	23335.58
515.499	23272.09
515.701	23853.72
515.904	23728.79
516.106	23833.24
516.308	24167.06
516.51	24322.7
516.712	24500.87
516.914	24654.47
517.116	25064.07
517.318	25244.29
517.52	25574.01
517.722	25418.36
517.925	25784.95
518.127	26143.35
518.329	26262.13
518.531	26163.82
518.733	26917.48
518.935	26800.74
519.136	27269.73
519.338	27275.87
519.54	27294.3
519.742	27181.67
519.944	27667.03
520.146	28373.58
520.348	28430.93
520.55	28654.15
520.752	28654.15
520.954	29010.5
521.155	28701.26
521.357	29364.8
521.559	29233.73
521.761	30034.49
521.963	30052.92
522.164	29942.33
522.366	30218.8
522.568	30450.22
522.77	30472.75
522.971	31162.92
523.173	30929.45
523.375	31035.94
523.576	30992.94
523.778	31296.03
523.98	31781.4
524.181	31922.71
524.383	31889.95
524.584	32010.78
524.786	32211.48
524.988	32147.99
525.189	32516.62
525.391	32623.12
525.592	32877.07
525.794	32989.7
525.995	32983.56
526.197	32844.3
526.398	32883.21
526.6	33262.08
526.801	33528.32
527.003	33759.74
527.204	33602.05
527.406	34310.64
527.607	34214.39
527.808	33905.15
528.01	33499.65
528.211	34052.6
528.412	34611.7
528.614	34716.14
528.815	34540.02
529.016	34597.36
529.218	34533.87
529.419	34785.77
529.62	34679.28
529.822	34757.1
530.023	34613.74
530.224	34970.09
530.425	34666.99
530.626	34959.85
530.828	34585.07
531.029	35262.95
531.23	35305.96
531.431	34820.59
531.632	35426.79
531.833	35217.89
532.035	35099.11
532.236	35240.42
532.437	35650.02
532.638	35340.77
532.839	35318.25
533.04	35600.86
533.241	35394.02
533.442	35826.14
533.643	35328.48
533.844	35305.96
534.045	35598.82
534.246	35336.68
534.447	35807.71
534.648	35680.74
534.849	35686.88
535.05	35387.88
535.251	35660.26
535.451	35271.14
535.652	35793.37
535.853	35498.47
536.054	35840.48
536.255	35813.85
536.456	35004.91
536.657	35992.03
536.857	35461.6
537.058	35004.91
537.259	35805.66
537.46	35926.49
537.66	35570.15
537.861	35465.7
538.062	35594.72
538.263	35697.12
538.463	35482.08
538.664	35473.89
538.865	35580.39
539.065	35682.78
539.266	35209.7
539.466	35791.33
539.667	35267.05
539.868	36047.32
540.068	35598.82
540.269	35394.02
540.469	35756.51
540.67	35095.02
540.87	35578.34
541.071	35396.07
541.271	35480.03
541.472	35465.7
541.672	35463.65
541.873	35236.33
542.073	35158.5
542.274	35899.87
542.474	35234.28
542.675	35336.68
542.875	35363.3
543.075	35181.03
543.276	35168.74
543.476	35381.73
543.676	35471.84
543.877	35367.4
544.077	35490.27
544.277	35027.43
544.478	35457.51
544.678	35531.23
544.878	35056.11
545.078	35359.2
545.279	34896.36
545.479	35097.06
545.679	34908.65
545.879	35226.09
546.079	35150.31
546.28	35088.87
546.48	34927.08
546.68	35293.67
546.88	35172.84
547.08	35138.02
547.28	34796.01
547.48	34576.88
547.68	34869.74
547.88	35391.97
548.081	35154.41
548.281	35238.37
548.481	34916.84
548.681	35076.58
548.881	35285.48
549.081	35357.16
549.28	34638.32
549.48	35455.46
549.68	34994.67
549.88	35170.79
550.08	34898.41
550.28	34945.51
550.48	34652.66
550.68	34998.76
550.88	35181.03
551.08	34671.09
551.279	34931.18
551.479	34634.22
551.679	35088.87
551.879	34619.89
552.079	34916.84
552.278	34656.75
552.478	34959.85
552.678	34896.36
552.878	35133.93
553.077	34884.08
553.277	34445.81
553.477	35070.44
553.676	34576.88
553.876	34564.59
554.076	34796.01
554.275	34580.98
554.475	34400.76
554.674	34705.9
554.874	34628.08
555.074	34449.91
555.273	34703.85
555.473	34636.27
555.672	34513.39
555.872	34626.03
556.071	34648.56
556.271	34609.65
556.47	34294.26
556.67	34269.69
556.869	34232.82
557.068	33870.33
557.268	34025.98
557.467	34699.76
557.667	34636.27
557.866	34161.14
558.065	34570.74
558.265	33913.34
558.464	34062.84
558.663	34308.6
558.863	33942.01
559.062	34441.71
559.261	33602.05
559.461	33804.8
559.66	33817.08
559.859	33851.9
560.058	33753.6
560.258	33720.83
560.457	33456.64
560.656	34288.12
560.855	33507.84
561.054	33919.48
561.253	33362.43
561.453	33653.25
561.652	33485.31
561.851	33774.08
562.05	33182.21
562.249	33270.28
562.448	33733.12
562.647	33303.04
562.846	33014.28
563.045	33225.22
563.244	33061.38
563.443	32963.08
563.642	32797.2
563.841	32682.51
564.04	32545.3
564.239	33104.39
564.438	32764.43
564.637	33128.97
564.836	33047.05
565.035	32311.83
565.234	32782.86
565.432	32481.81
565.631	32537.1
565.83	32664.08
566.029	32178.71
566.228	32145.94
566.427	31943.19
566.625	32213.52
566.824	31732.25
567.023	32397.84
567.222	31877.66
567.42	32053.78
567.619	31924.76
567.818	31797.79
568.016	31808.03
568.215	32324.11
568.414	31894.04
568.612	31769.12
568.811	31711.77
569.01	32025.11
569.208	31134.24
569.407	31441.44
569.605	31523.36
569.804	31480.35
570.002	31273.51
570.201	31371.81
570.4	31121.96
570.598	31124.01
570.797	30857.77
570.995	30931.5
571.193	30685.74
571.392	31171.11
571.59	30693.93
571.789	30595.63
571.987	30612.01
572.186	30556.72
572.384	30433.84
572.582	30442.03
572.781	30298.67
572.979	30024.25
573.177	30380.59
573.376	30206.52
573.574	29991.48
573.772	30333.49
573.971	29753.91
574.169	30171.7
574.367	29690.43
574.565	29942.33
574.763	29551.17
574.962	29794.87
575.16	29719.1
575.358	29327.94
575.556	29268.55
575.754	29553.21
575.952	28987.97
576.151	29526.59
576.349	28912.2
576.547	29006.41
576.745	29418.05
576.943	28885.58
577.141	28875.34
577.339	29364.8
577.537	28682.83
577.735	28926.53
577.933	28670.54
578.131	28365.39
578.329	28428.88
578.527	28338.77
578.725	28375.63
578.923	28475.98
579.121	28486.22
579.319	28222.03
579.516	28447.31
579.714	28310.1
579.912	28013.14
580.11	27937.37
580.308	28013.14
580.506	27558.49
580.704	27464.28
580.901	27626.07
581.099	27783.77
581.297	27415.13
581.495	27417.18
581.692	27689.56
581.89	27308.64
582.088	27540.06
582.285	27093.6
582.483	27615.83
582.681	27239.01
582.878	27038.31
583.076	26950.24
583.274	27247.2
583.471	26827.37
583.669	26927.72
583.866	26563.18
584.064	26862.18
584.262	26540.65
584.459	26649.19
584.657	26446.44
584.854	26894.95
585.052	25674.36
585.249	26397.29
585.447	26382.96
585.644	26018.42
585.841	26055.28
586.039	26245.74
586.236	25959.03
586.434	25778.81
586.631	25709.18
586.828	25537.15
587.026	25715.32
587.223	25719.42
587.42	25453.18
587.618	25647.74
587.815	25168.51
588.012	25158.27
588.21	25223.81
588.407	25254.53
588.604	25182.85
588.801	24928.9
588.999	25195.14
589.196	24840.84
589.393	25074.31
589.59	24773.25
589.787	24539.79
589.984	24697.48
590.182	24193.68
590.379	24373.9
590.576	24527.5
590.773	24658.57
590.97	24218.25
591.167	24230.54
591.364	24173.2
591.561	24214.16
591.758	23771.8
591.955	24070.8
592.152	24234.64
592.349	23691.93
592.546	23941.78
592.743	23919.25
592.94	23708.31
593.137	23868.05
593.334	23876.24
593.531	23349.92
593.727	23282.33
593.924	23489.18
594.121	23169.69
594.318	23413.4
594.515	23003.81
594.712	23390.88
594.908	22913.7
595.105	23083.68
595.302	22747.81
595.499	22958.75
595.696	22764.2
595.892	22837.92
596.089	22758.05
596.286	22768.29
596.482	22776.48
596.679	22540.97
596.876	22442.67
597.072	22608.55
597.269	22575.78
597.466	22129.33
597.662	22225.58
597.859	22211.25
598.055	22190.77
598.252	21807.8
598.448	21689.01
598.645	21877.43
598.841	21641.91
599.038	21580.47
599.234	21631.67
599.431	21310.14
599.627	21570.23
599.824	21480.12
600.02	21498.55
600.217	21258.94
600.413	21263.04
600.609	21338.81
600.806	21136.06
601.002	21308.09
601.198	21021.38
601.395	20759.24
601.591	21082.81
601.787	20824.77
601.984	20921.02
602.18	20947.65
602.376	20626.12
602.572	20490.95
602.769	20654.79
602.965	20464.33
603.161	20468.42
603.357	20273.87
603.553	20525.77
603.75	20478.66
603.946	20107.98
604.142	20396.74
604.338	19749.59
604.534	19886.8
604.73	20003.53
604.926	19999.44
605.122	20218.57
605.318	19819.22
605.514	19991.25
605.71	19647.19
605.906	19700.44
606.102	19593.94
606.298	19725.01
606.494	19466.97
606.69	19501.78
606.886	19585.75
607.082	19462.87
607.278	19239.64
607.474	19434.2
607.67	19538.65
607.866	19006.17
608.062	19292.89
608.257	19239.64
608.453	18969.31
608.649	19280.6
608.845	18858.72
609.041	18901.73
609.236	19210.97
609.432	18772.71
609.628	18717.41
609.824	18768.61
610.019	18715.36
610.215	18707.17
610.411	18590.44
610.606	18617.06
610.802	18729.7
610.998	18815.71
611.193	18598.63
611.389	18658.02
611.584	18367.21
611.78	18365.16
611.976	18350.82
612.171	18369.26
612.367	18420.45
612.562	18127.6
612.758	18217.71
612.953	18127.6
613.149	18371.3
613.344	17982.19
613.539	18320.1
613.735	18340.58
613.93	18139.88
614.126	17955.57
614.321	18318.06
614.517	18195.18
614.712	17971.95
614.907	18174.7
615.103	17978.09
615.298	17750.77
615.493	17887.98
615.688	17371.89
615.884	17971.95
616.079	17535.73
616.274	17894.13
616.47	17920.75
616.665	17709.81
616.86	17652.47
617.055	17617.65
617.25	17556.21
617.445	17629.94
617.641	17672.95
617.836	17640.18
618.031	17158.91
618.226	17466.1
618.421	17181.43
618.616	17226.49
618.811	17308.41
619.006	17496.82
619.201	16950.01
619.396	16917.25
619.591	16859.9
619.786	16790.27
619.981	16730.88
620.176	16847.61
620.371	16593.67
620.566	16556.8
620.761	16341.77
620.956	16761.6
621.151	16296.71
621.346	16290.57
621.541	16241.42
621.735	16704.26
621.93	15956.75
622.125	16087.82
622.32	16001.8
622.515	15766.29
622.709	15760.14
622.904	15522.58
623.099	15733.52
623.294	15657.75
623.488	15534.87
623.683	15383.32
623.878	14996.25
624.072	15248.15
624.267	15385.37
624.462	15055.64
624.656	15029.02
624.851	14967.58
625.046	14662.43
625.24	14627.62
625.435	14768.93
625.629	14637.86
625.824	14596.9
626.018	14598.95
626.213	14322.47
626.407	14449.44
626.602	14091.05
626.796	14195.5
626.991	14451.49
627.185	14215.98
627.38	14013.23
627.574	13728.56
627.768	13519.67
627.963	13589.3
628.157	13693.74
628.352	13935.4
628.546	13433.65
628.74	13736.75
628.935	13294.39
629.129	13327.16
629.323	13019.96
629.517	13046.58
629.712	12968.76
629.906	12720.96
630.1	12811.07
630.294	12837.69
630.489	12800.83
630.683	12555.07
630.877	12559.17
631.071	12460.87
631.265	12538.69
631.459	12452.67
631.653	12495.68
631.848	12501.83
632.042	12329.8
632.236	12307.27
632.43	12198.73
632.624	12272.45
632.818	12196.68
633.012	12000.07
633.206	11952.97
633.4	11891.53
633.594	11766.6
633.788	11578.19
633.982	11754.32
634.176	11764.56
634.369	11553.62
634.563	11617.1
634.757	11490.13
634.951	11623.25
635.145	11387.73
635.339	11246.42
635.533	11107.16
635.726	11457.36
635.92	11164.5
636.114	11195.22
636.308	10894.17
636.501	10847.07
636.695	10773.34
636.889	10826.59
637.083	10802.01
637.276	10666.85
637.47	10613.6
637.664	10619.74
637.857	10474.34
638.051	10478.43
638.244	10425.18
638.438	10519.39
638.632	10443.62
638.825	10423.14
639.019	10177.38
639.212	10097.51
639.406	10191.72
639.599	10306.4
639.793	10138.47
639.986	10054.5
640.18	10165.09
640.373	9818.99
640.567	9823.08
640.76	9993.06
640.954	9984.87
641.147	9755.5
641.34	9501.55
641.534	9665.39
641.727	9638.76
641.92	9612.14
642.114	9417.58
642.307	9372.53
642.5	9259.89
642.694	9216.88
642.887	9132.92
643.08	9257.84
643.273	9315.19
643.467	8993.65
643.66	8967.03
643.853	9130.87
644.046	8983.41
644.239	9026.42
644.432	8926.07
644.626	8915.83
644.819	8766.33
645.012	8614.78
645.205	8688.51
645.398	8829.82
645.591	8692.6
645.784	8526.72
645.977	8422.27
646.17	8330.11
646.363	8369.02
646.556	8242.05
646.749	8287.11
646.942	8321.92
647.135	8215.43
647.328	8176.52
647.521	8121.22
647.714	8076.16
647.907	7900.04
648.099	8029.06
648.292	8160.13
648.485	7834.5
648.678	7693.19
648.871	7881.61
649.064	7762.83
649.256	7830.41
649.449	7842.7
649.642	7697.29
649.835	7719.82
650.027	7721.87
650.22	7402.38
650.413	7558.03
650.605	7609.23
650.798	7383.95
650.991	7455.63
651.183	7386
651.376	7281.55
651.568	7353.23
651.761	7322.51
651.954	7287.7
652.146	7330.7
652.339	7277.46
652.531	7246.74
652.724	7148.43
652.916	7052.18
653.109	6894.49
653.301	7099.28
653.494	7095.19
653.686	6851.48
653.879	6919.06
654.071	6980.5
654.263	6876.06
654.456	6722.46
654.648	6775.7
654.84	6708.12
655.033	6708.12
655.225	6556.57
655.417	6566.81
655.61	6546.33
655.802	6798.23
655.994	6370.21
656.186	6548.38
656.379	6618.01
656.571	6409.12
656.763	6433.69
656.955	6292.38
657.148	6255.52
657.34	6452.13
657.532	6267.81
657.724	6226.85
657.916	6280.1
658.108	6247.33
658.3	6071.2
658.492	6110.11
658.684	6085.54
658.876	6089.64
659.068	6052.77
659.26	5977
659.452	6028.2
659.644	5886.89
659.836	5721
660.028	5751.72
660.22	5831.59
660.412	5811.11
660.604	5608.36
660.796	5882.79
660.988	5667.75
661.18	5639.08
661.372	5764.01
661.563	5551.02
661.755	5559.21
661.947	5714.86
662.139	5583.79
662.331	5522.35
662.522	5288.88
662.714	5436.33
662.906	5497.77
663.097	5452.72
663.289	5282.74
663.481	5284.78
663.673	5436.33
663.864	5315.5
664.056	5489.58
664.247	5133.23
664.439	5204.91
664.631	5182.38
664.822	5079.99
665.014	5120.95
665.205	5034.93
665.397	5100.47
665.588	5036.98
665.78	5039.03
665.971	4996.02
666.163	5063.6
666.354	5045.17
666.546	4938.68
666.737	4764.6
666.929	4971.44
667.12	4926.39
667.311	4955.06
667.503	4735.93
667.694	4807.61
667.885	4856.76
668.077	4772.79
668.268	4776.89
668.459	4924.34
668.651	4690.87
668.842	4793.27
669.033	4740.02
669.224	4697.02
669.416	4641.72
669.607	4539.32
669.798	4535.23
669.989	4557.75
670.18	4717.5
670.371	4508.6
670.563	4529.08
670.754	4539.32
670.945	4457.4
671.136	4613.05
671.327	4469.69
671.518	4606.91
671.709	4455.36
671.9	4527.03
672.091	4461.5
672.282	4291.52
672.473	4260.8
672.664	4363.2
672.855	4395.96
673.046	4252.61
673.237	4363.2
673.428	4453.31
673.619	4373.44
673.809	4256.7
674	4299.71
674.191	4285.37
674.382	4195.26
674.573	4283.33
674.764	4099.01
674.954	4250.56
675.145	4189.12
675.336	4297.66
675.527	4051.91
675.717	4062.15
675.908	4232.13
676.099	4123.59
676.289	4264.89
676.48	3980.23
676.671	4064.19
676.861	4121.54
677.052	4176.83
677.243	3840.97
677.433	4006.85
677.624	4094.91
677.814	4039.62
678.005	3996.61
678.195	3935.17
678.386	3994.56
678.576	4076.48
678.767	4002.75
678.957	3785.67
679.148	3992.52
679.338	3904.45
679.529	3840.97
679.719	3861.45
679.909	3924.93
680.1	3757
680.29	3822.53
680.481	3890.12
680.671	3728.33
680.861	4043.71
681.052	3847.11
681.242	3851.21
681.432	3914.69
681.622	3718.09
681.813	3906.5
682.003	3867.59
682.193	3703.75
682.383	3806.15
682.573	3783.62
682.764	3757
682.954	3779.53
683.144	3632.07
683.334	3771.33
683.524	3748.81
683.714	3754.95
683.904	3816.39
684.094	3720.14
684.284	3773.38
684.474	3687.37
684.664	3752.9
684.854	3597.26
685.044	3535.82
685.234	3623.88
685.424	3806.15
685.614	3670.98
685.804	3601.35
685.994	3539.91
686.184	3638.22
686.374	3529.67
686.564	3488.71
686.753	3507.15
686.943	3439.56
687.133	3570.63
687.323	3505.1
687.513	3527.63
687.702	3324.88
687.892	3455.95
688.082	3539.91
688.272	3572.68
688.461	3306.45
688.651	3449.8
688.841	3388.36
689.03	3281.87
689.22	3316.69
689.41	3251.15
689.599	3269.58
689.789	3281.87
689.979	3371.98
690.168	3087.31
690.358	3371.98
690.547	3189.71
690.737	3169.23
690.926	3232.72
691.116	3208.14
691.305	3212.24
691.495	3146.7
691.684	3095.5
691.874	3218.38
692.063	3187.66
692.252	3058.64
692.442	3079.12
692.631	3171.28
692.82	3027.92
693.01	3134.42
693.199	3062.74
693.388	3079.12
693.578	2958.29
693.767	2982.87
693.956	3032.02
694.146	2966.48
694.335	2782.17
694.524	3001.3
694.713	3021.78
694.902	2952.15
695.092	2948.05
695.281	2864.08
695.47	2855.89
695.659	2907.09
695.848	2966.48
696.037	2954.19
696.226	2782.17
696.415	2816.98
696.604	2835.41
696.793	2868.18
696.982	2886.61
697.171	2819.03
697.36	2778.07
697.549	2821.08
697.738	2728.92
697.927	2757.59
698.116	2733.01
698.305	2790.36
698.494	2759.64
698.683	2767.83
698.872	2814.93
699.061	2778.07
699.25	2655.19
699.438	2933.72
699.627	2663.38
699.816	2671.58
700.005	2696.15
700.193	2696.15
700.382	2696.15
700.571	2675.67
700.76	2716.63
700.948	2573.27
701.137	2776.02
701.326	2702.29
701.514	2745.3
701.703	2655.19
701.892	2640.86
702.08	2683.86
702.269	2917.33
702.457	2583.51
702.646	2565.08
702.834	2585.56
703.023	2618.33
703.212	2692.05
703.4	2560.98
703.589	2571.22
703.777	2558.94
703.965	2552.79
704.154	2622.42
704.342	2575.32
704.531	2520.03
704.719	2462.68
704.907	2583.51
705.096	2548.7
705.284	2675.67
705.472	2517.98
705.661	2618.33
705.849	2581.46
706.037	2593.75
706.226	2522.07
706.414	2642.9
706.602	2497.5
706.79	2513.88
706.979	2495.45
707.167	2579.42
707.355	2474.97
707.543	2472.92
707.731	2630.62
707.919	2393.05
708.107	2470.87
708.296	2571.22
708.484	2536.41
708.672	2585.56
708.86	2434.01
709.048	2397.15
709.236	2540.51
709.424	2511.83
709.612	2542.55
709.8	2503.64
709.988	2569.18
710.176	2542.55
710.364	2421.72
710.551	2524.12
710.739	2575.32
710.927	2440.15
711.115	2454.49
711.303	2382.81
711.491	2536.41
711.679	2438.11
711.866	2454.49
712.054	2524.12
712.242	2481.11
712.43	2567.13
712.617	2515.93
712.805	2413.53
712.993	2458.59
713.181	2497.5
713.368	2528.22
713.556	2593.75
713.744	2483.16
713.931	2489.31
714.119	2462.68
714.306	2503.64
714.494	2421.72
714.682	2495.45
714.869	2282.46
715.057	2532.31
715.244	2329.56
715.432	2431.96
715.619	2438.11
715.807	2493.4
715.994	2522.07
716.182	2491.35
716.369	2415.58
716.556	2391
716.744	2317.28
716.931	2397.15
717.119	2348
717.306	2419.68
717.493	2304.99
717.681	2407.39
717.868	2370.52
718.055	2413.53
718.242	2339.8
718.43	2423.77
718.617	2487.26
718.804	2364.38
718.991	2479.07
719.179	2446.3
719.366	2413.53
719.553	2413.53
719.74	2409.44
719.927	2348
720.114	2393.05
720.301	2395.1
720.488	2376.67
720.676	2382.81
720.863	2360.28
721.05	2417.63
721.237	2374.62
721.424	2434.01
721.611	2552.79
721.798	2364.38
721.985	2423.77
722.172	2374.62
722.358	2405.34
722.545	2448.35
722.732	2448.35
722.919	2472.92
723.106	2348
723.293	2331.61
723.48	2348
723.667	2300.89
723.853	2264.03
724.04	2348
724.227	2257.89
724.414	2388.96
724.6	2335.71
724.787	2307.04
724.974	2429.91
725.161	2370.52
725.347	2407.39
725.534	2356.19
725.72	2364.38
725.907	2343.9
726.094	2464.73
726.28	2327.52
726.467	2362.33
726.653	2321.37
726.84	2440.15
727.027	2423.77
727.213	2333.66
727.4	2388.96
727.586	2243.55
727.773	2325.47
727.959	2456.54
728.145	2339.8
728.332	2348
728.518	2229.21
728.705	2456.54
728.891	2309.08
729.077	2407.39
729.264	2350.04
729.45	2364.38
729.636	2440.15
729.823	2286.56
730.009	2454.49
730.195	2335.71
730.382	2388.96
730.568	2323.42
730.754	2331.61
730.94	2311.13
731.126	2409.44
731.313	2444.25
731.499	2442.2
731.685	2397.15
731.871	2231.26
732.057	2388.96
732.243	2399.2
732.429	2307.04
732.615	2378.72
732.801	2388.96
732.987	2438.11
733.173	2368.48
733.359	2311.13
733.545	2292.7
733.731	2368.48
733.917	2399.2
734.103	2298.84
734.289	2419.68
734.475	2249.69
734.661	2354.14
734.847	2276.32
735.033	2339.8
735.219	2286.56
735.404	2335.71
735.59	2304.99
735.776	2419.68
735.962	2358.24
736.148	2257.89
736.333	2315.23
736.519	2354.14
736.705	2321.37
736.89	2325.47
737.076	2274.27
737.262	2261.98
737.447	2249.69
737.633	2290.65
737.819	2257.89
738.004	2231.26
738.19	2290.65
738.375	2155.49
738.561	2257.89
738.747	2206.69
738.932	2282.46
739.118	2253.79
739.303	2358.24
739.489	2190.3
739.674	2163.68
739.859	2194.4
740.045	2272.22
740.23	2188.25
740.416	2192.35
740.601	2241.5
740.786	2128.86
740.972	2087.9
741.157	2175.97
741.342	2073.57
741.528	2167.77
741.713	2214.88
741.898	2210.78
742.084	2169.82
742.269	2233.31
742.454	2110.43
742.639	2184.16
742.824	2110.43
743.01	2161.63
743.195	2145.25
743.38	2110.43
743.565	2128.86
743.75	2118.62
743.935	2130.91
744.12	2161.63
744.305	2046.94
744.49	2040.8
744.675	2081.76
744.86	1983.46
745.045	2014.18
745.23	2098.14
745.415	1985.51
745.6	2012.13
745.785	1911.78
745.97	2046.94
746.155	1928.16
746.34	1917.92
746.525	1913.83
746.71	2053.09
746.895	1848.29
747.079	1885.16
747.264	1858.53
747.449	1919.97
747.634	1913.83
747.819	1932.26
748.003	1897.44
748.188	1895.4
748.373	1674.21
748.557	1786.85
748.742	1782.76
748.927	1782.76
749.111	1758.18
749.296	1752.04
749.481	1809.38
749.665	1717.22
749.85	1653.73
750.034	1790.95
750.219	1711.08
750.404	1805.28
750.588	1711.08
750.773	1774.56
750.957	1682.41
751.141	1659.88
751.326	1655.78
751.51	1598.44
751.695	1633.26
751.879	1586.15
752.064	1643.49
752.248	1590.25
752.432	1448.94
752.617	1537
752.801	1491.95
752.985	1541.1
753.17	1600.49
753.354	1623.02
753.538	1520.62
753.722	1448.94
753.907	1541.1
754.091	1489.9
754.275	1467.37
754.459	1414.12
754.643	1438.7
754.828	1436.65
755.012	1473.51
755.196	1414.12
755.38	1448.94
755.564	1434.6
755.748	1375.21
755.932	1401.83
756.116	1369.07
756.3	1346.54
756.484	1291.24
756.668	1258.48
756.852	1362.92
757.036	1307.63
757.22	1266.67
757.404	1328.11
757.588	1342.44
757.772	1307.63
757.956	1192.94
758.14	1326.06
758.323	1235.95
758.507	1270.76
758.691	1311.72
758.875	1307.63
759.059	1305.58
759.242	1180.65
759.426	1231.85
759.61	1215.47
759.794	1156.08
759.977	1182.7
760.161	1238
760.345	1242.09
760.528	1178.61
760.712	1209.33
760.895	1209.33
761.079	1197.04
761.263	1115.12
761.446	1162.22
761.63	1129.45
761.813	1143.79
761.997	1057.78
762.18	1129.45
762.364	1131.5
762.547	1102.83
762.731	1061.87
762.914	1027.06
763.098	1010.67
763.281	1100.78
763.464	1053.68
763.648	1082.35
763.831	1047.54
764.015	1088.5
764.198	1094.64
764.381	1008.62
764.564	1004.53
764.748	1041.39
764.931	1022.96
765.114	1008.62
765.297	1168.37
765.481	961.52
765.664	990.19
765.847	1045.49
766.03	1090.54
766.213	994.29
766.397	947.19
766.58	1108.98
766.763	938.99
766.946	984.05
767.129	971.76
767.312	945.14
767.495	908.27
767.678	943.09
767.861	979.95
768.044	963.57
768.227	900.08
768.41	871.41
768.593	979.95
768.776	918.51
768.959	867.31
769.142	807.92
769.324	938.99
769.507	857.07
769.69	840.69
769.873	818.16
770.056	900.08
770.239	844.79
770.421	824.31
770.604	826.36
770.787	779.25
770.97	889.84
771.152	857.07
771.335	852.98
771.518	879.6
771.7	930.8
771.883	785.4
772.066	822.26
772.248	799.73
772.431	769.01
772.613	715.77
772.796	803.83
772.978	867.31
773.161	803.83
773.343	820.21
773.526	848.88
773.708	769.01
773.891	746.48
774.073	807.92
774.256	711.67
774.438	680.95
774.621	726
774.803	705.53
774.985	816.12
775.168	785.4
775.35	685.05
775.532	760.82
775.715	648.18
775.897	748.53
776.079	709.62
776.261	658.42
776.444	695.29
776.626	629.75
776.808	717.81
776.99	613.37
777.173	644.09
777.355	662.52
777.537	719.86
777.719	625.65
777.901	523.26
778.083	654.33
778.265	586.74
778.447	588.79
778.629	562.17
778.811	642.04
778.993	660.47
779.175	660.47
779.357	541.69
779.539	537.59
779.721	607.22
779.903	545.78
780.085	537.59
780.267	615.41
780.449	508.92
780.631	627.7
780.812	590.84
780.994	531.45
781.176	621.56
781.358	574.46
781.54	506.87
781.721	506.87
781.903	560.12
782.085	519.16
782.267	476.15
782.448	447.48
782.63	470.01
782.812	560.12
782.993	523.26
783.175	580.6
783.357	420.86
783.538	500.73
783.72	531.45
783.901	537.59
784.083	551.93
784.264	508.92
784.446	586.74
784.627	459.77
784.809	461.82
784.99	488.44
785.172	519.16
785.353	418.81
785.535	390.14
785.716	441.34
785.897	390.14
786.079	414.71
786.26	463.86
786.441	449.53
786.623	398.33
786.804	408.57
786.985	433.15
787.167	439.29
787.348	453.63
787.529	390.14
787.71	416.76
787.891	465.91
788.073	332.79
788.254	400.38
788.435	398.33
788.616	388.09
788.797	289.79
788.978	349.18
789.159	357.37
789.34	324.6
789.522	347.13
789.703	381.95
789.884	420.86
790.065	330.75
790.246	328.7
790.427	386.04
790.607	377.85
790.788	377.85
790.969	300.03
791.15	422.91
791.331	375.8
791.512	300.03
791.693	287.74
791.874	353.27
792.054	330.75
792.235	343.03
792.416	308.22
792.597	277.5
792.778	359.42
792.958	349.18
793.139	240.64
793.32	324.6
793.5	332.79
793.681	406.52
793.862	297.98
794.042	263.16
794.223	300.03
794.404	312.32
794.584	279.55
794.765	300.03
794.945	269.31
795.126	293.88
795.306	257.02
795.487	201.72
795.667	207.87
795.848	267.26
796.028	250.88
796.209	195.58
796.389	336.89
796.57	300.03
796.75	230.4
796.93	291.84
797.111	230.4
797.291	267.26
797.471	351.23
797.652	312.32
797.832	244.73
798.012	242.68
798.192	295.93
798.373	209.92
798.553	273.4
798.733	252.92
798.913	246.78
799.093	308.22
799.274	300.03
799.454	328.7
799.634	285.69
799.814	334.84
799.994	340.99
800.174	242.68
800.354	226.3
800.534	130.05
800.714	312.32
800.894	189.44
801.074	246.78
801.254	252.92
801.434	312.32
801.614	168.96
801.794	179.2
801.974	721.91
802.154	123.9
802.334	240.64
802.514	119.81
802.693	226.3
802.873	246.78
803.053	236.54
803.233	197.63
803.413	201.72
803.592	183.29
803.772	220.16
803.952	185.34
804.131	189.44
804.311	267.26
804.491	259.07
804.67	228.35
804.85	236.54
805.03	197.63
805.209	209.92
805.389	148.48
805.568	226.3
805.748	218.11
805.928	242.68
806.107	171.01
806.287	242.68
806.466	171.01
806.646	236.54
806.825	177.15
807.004	142.33
807.184	238.59
807.363	177.15
807.543	175.1
807.722	168.96
807.901	209.92
808.081	195.58
808.26	168.96
808.439	214.01
808.619	211.96
808.798	156.67
808.977	183.29
809.156	230.4
809.336	195.58
809.515	209.92
809.694	130.05
809.873	160.77
810.052	171.01
810.231	214.01
810.411	201.72
810.59	193.53
810.769	166.91
810.948	136.19
811.127	144.38
811.306	144.38
811.485	144.38
811.664	171.01
811.843	123.9
812.022	128
812.201	140.29
812.38	181.25
812.559	99.33
812.737	78.85
812.916	148.48
813.095	177.15
813.274	95.23
813.453	113.66
813.632	128
813.811	162.81
813.989	25.6
814.168	119.81
814.347	78.85
814.526	209.92
814.704	160.77
814.883	128
815.062	193.53
815.24	189.44
815.419	177.15
815.598	46.08
815.776	87.04
815.955	111.61
816.133	70.65
816.312	130.05
816.49	105.47
816.669	168.96
816.847	179.2
817.026	87.04
817.204	168.96
817.383	78.85
817.561	95.23
817.74	152.57
817.918	238.59
818.097	78.85
818.275	97.28
818.453	197.63
818.632	150.53
818.81	80.89
818.988	105.47
819.167	62.46
819.345	111.61
819.523	128
819.701	152.57
819.879	89.09
820.058	140.29
820.236	91.13
820.414	177.15
820.592	103.42
820.77	128
820.948	130.05
821.127	66.56
821.305	68.61
821.483	-1.02
821.661	128
821.839	123.9
822.017	99.33
822.195	125.95
822.373	140.29
822.551	46.08
822.729	146.43
822.907	91.13
823.085	160.77
823.262	56.32
823.44	113.66
823.618	150.53
823.796	78.85
823.974	78.85
824.152	50.18
824.329	56.32
824.507	111.61
824.685	95.23
824.863	117.76
825.04	125.95
825.218	-3.07
825.396	70.65
825.574	152.57
825.751	82.94
825.929	123.9
826.107	111.61
826.284	58.37
826.462	93.18
826.639	138.24
826.817	99.33
826.994	152.57
827.172	29.7
827.349	121.85
827.527	152.57
827.704	91.13
827.882	15.36
828.059	74.75
828.237	111.61
828.414	140.29
828.591	44.03
828.769	95.23
828.946	82.94
829.124	171.01
829.301	68.61
829.478	111.61
829.655	70.65
829.833	80.89
830.01	72.7
830.187	70.65
830.364	78.85
830.542	56.32
830.719	82.94
830.896	97.28
831.073	1.02
831.25	144.38
831.427	11.26
831.604	115.71
831.782	46.08
831.959	70.65
832.136	64.51
832.313	115.71
832.49	78.85
832.667	72.7
832.844	-11.26
833.021	103.42
833.198	84.99
833.374	89.09
833.551	66.56
833.728	21.5
833.905	125.95
834.082	-58.37
834.259	64.51
834.436	33.79
834.612	52.22
834.789	140.29
834.966	74.75
835.143	95.23
835.319	25.6
835.496	62.46
835.673	123.9
835.85	103.42
836.026	50.18
836.203	91.13
836.38	19.46
836.556	15.36
836.733	21.5
836.909	111.61
837.086	89.09
837.262	35.84
837.439	80.89
837.616	23.55
837.792	60.42
837.968	82.94
838.145	23.55
838.321	31.74
838.498	91.13
838.674	48.13
838.851	80.89
839.027	76.8
839.203	11.26
839.38	113.66
839.556	54.27
839.732	87.04
839.909	80.89
840.085	39.94
840.261	62.46
840.437	-17.41
840.614	105.47
840.79	91.13
840.966	31.74
841.142	5.12
841.318	29.7
841.494	62.46
841.671	74.75
841.847	29.7
842.023	15.36
842.199	7.17
842.375	54.27
842.551	33.79
842.727	-74.75
842.903	46.08
843.079	46.08
843.255	121.85
843.431	54.27
843.607	46.08
843.783	46.08
843.959	11.26
844.134	58.37
844.31	25.6
844.486	-66.56
844.662	87.04
844.838	11.26
845.013	41.98
845.189	5.12
845.365	82.94
845.541	41.98
845.716	21.5
845.892	64.51
846.068	66.56
846.244	33.79
846.419	35.84
846.595	7.17
846.77	82.94
846.946	103.42
847.122	48.13
847.297	-1.02
847.473	99.33
847.648	-25.6
847.824	-1.02
847.999	23.55
848.175	-19.46
848.35	84.99
848.526	17.41
848.701	138.24
848.876	-17.41
849.052	105.47
849.227	-41.98
849.403	29.7
849.578	-7.17
849.753	27.65
849.929	29.7
850.104	74.75
850.279	37.89
850.454	17.41
850.63	48.13
850.805	25.6
850.98	87.04
851.155	54.27
851.33	-13.31
851.505	5.12
851.681	41.98
851.856	25.6
852.031	-31.74
852.206	72.7
852.381	9.22
852.556	21.5
852.731	70.65
852.906	9.22
853.081	37.89
853.256	64.51
853.431	39.94
853.606	-27.65
853.781	31.74
853.956	5.12
854.131	5.12
854.305	37.89
854.48	82.94
854.655	5.12
854.83	9.22
855.005	17.41
855.18	31.74
855.354	-82.94
855.529	21.5
855.704	-11.26
855.879	46.08
856.053	-41.98
856.228	31.74
856.403	-15.36
856.577	80.89
856.752	19.46
856.926	46.08
857.101	29.7
857.276	-13.31
857.45	-15.36
857.625	29.7
857.799	-27.65
857.974	19.46
858.148	-15.36
858.323	66.56
858.497	-27.65
858.672	37.89
858.846	-9.22
859.02	128
859.195	27.65
859.369	-19.46
859.543	11.26
859.718	48.13
859.892	-7.17
860.066	25.6
860.241	-41.98
860.415	80.89
860.589	1.02
860.763	74.75
860.938	54.27
861.112	5.12
861.286	-15.36
861.46	-50.18
861.634	31.74
861.808	29.7
861.982	1.02
862.157	-19.46
862.331	68.61
862.505	-3.07
862.679	-15.36
862.853	-5.12
863.027	41.98
863.201	105.47
863.375	5.12
863.549	27.65
863.722	-19.46
863.896	13.31
864.07	21.5
864.244	21.5
864.418	78.85
864.592	68.61
864.766	-23.55
864.939	107.52
865.113	29.7
865.287	-25.6
865.461	-60.42
865.634	-15.36
865.808	13.31
865.982	23.55
866.156	-31.74
866.329	21.5
866.503	1.02
866.676	39.94
866.85	64.51
867.024	27.65
867.197	-15.36
867.371	97.28
867.544	-7.17
867.718	31.74
867.891	-41.98
868.065	-33.79
868.238	-25.6
868.412	-11.26
868.585	-74.75
868.759	-3.07
868.932	-74.75
869.105	-9.22
869.279	-9.22
869.452	25.6
869.625	-74.75
869.799	46.08
869.972	3.07
870.145	-21.5
870.319	13.31
870.492	-29.7
870.665	9.22
870.838	-76.8
871.011	-76.8
871.185	-17.41
871.358	3.07
871.531	58.37
871.704	-107.52
871.877	-5.12
872.05	-29.7
872.223	-3.07
872.396	15.36
872.569	48.13
872.742	-9.22
872.915	41.98
873.088	1.02
873.261	-35.84
873.434	25.6
873.607	7.17
873.78	29.7
873.953	17.41
874.126	-44.03
874.299	29.7
874.471	-44.03
874.644	56.32
874.817	-19.46
874.99	-27.65
875.163	-31.74
875.335	17.41
875.508	-60.42
875.681	78.85
875.853	33.79
876.026	-19.46
876.199	37.89
876.371	58.37
876.544	-27.65
876.717	-9.22
876.889	-89.09
877.062	-11.26
877.234	17.41
877.407	9.22
877.579	7.17
877.752	5.12
877.924	5.12
878.097	21.5
878.269	46.08
878.442	64.51
878.614	-27.65
878.786	-52.22
878.959	-48.13
879.131	21.5
879.303	-3.07
879.476	13.31
879.648	1.02
879.82	9.22
879.993	31.74
880.165	-11.26
880.337	-27.65
880.509	13.31
880.681	-7.17
880.854	39.94
881.026	11.26
881.198	46.08
881.37	-52.22
881.542	-27.65
881.714	-3.07
881.886	-35.84
882.058	3.07
882.23	74.75
882.402	-91.13
882.574	1.02
882.746	-19.46
882.918	46.08
883.09	50.18
883.262	39.94
883.434	-41.98
883.606	-11.26
883.778	-19.46
883.95	5.12
884.122	-60.42
884.293	78.85
884.465	5.12
884.637	89.09
884.809	-35.84
884.98	33.79
885.152	39.94
885.324	1.02
885.496	-5.12
885.667	41.98
885.839	-74.75
886.011	29.7
886.182	46.08
886.354	-21.5
886.525	-84.99
886.697	41.98
886.869	-3.07
887.04	-17.41
887.212	35.84
887.383	76.8
887.555	21.5
887.726	-76.8
887.897	-9.22
888.069	35.84
888.24	58.37
888.412	21.5
888.583	70.65
888.754	-52.22
888.926	-13.31
889.097	-3.07
889.268	-41.98
889.44	23.55
889.611	1.02
889.782	-25.6
889.953	-25.6
890.125	5.12
890.296	-84.99
890.467	9.22
890.638	-37.89
890.809	46.08
890.98	-17.41
891.151	54.27
891.323	62.46
891.494	-74.75
891.665	37.89
891.836	-11.26
892.007	56.32
892.178	-3.07
892.349	-9.22
892.52	29.7
892.691	9.22
892.862	1.02
893.032	1.02
893.203	3.07
893.374	-39.94
893.545	-15.36
893.716	-74.75
893.887	-41.98
894.057	-9.22
894.228	-33.79
894.399	-19.46
894.57	23.55
894.74	-41.98
894.911	-1.02
895.082	5.12
895.253	21.5
895.423	-19.46
895.594	-19.46
895.764	-19.46
895.935	-15.36
896.106	119.81
896.276	-3.07
896.447	46.08
896.617	62.46
896.788	-5.12
896.958	23.55
897.129	-15.36
897.299	-19.46
897.47	9.22
897.64	5.12
897.81	5.12
897.981	-44.03
898.151	-41.98
898.322	-1.02
898.492	68.61
898.662	-31.74
898.832	9.22
899.003	-19.46
899.173	48.13
899.343	37.89
899.513	-64.51
