Data from USB4F104151__30__14-16-32-272.txt Node

Date: Thu Mar 13 14:16:32 EDT 2025
User: louis
Spectrometer: USB4F10415
Trigger mode: 4
Integration Time (sec): 2.000000E-2
Scans to average: 1
Electric dark correction enabled: true
Nonlinearity correction enabled: false
Boxcar width: 0
XAxis mode: Wavelengths
Number of Pixels in Spectrum: 3648
>>>>>Begin Spectral Data<<<<<
178.204	-168.1
178.424	-168.1
178.644	-168.1
178.864	-135.34
179.084	-84.14
179.304	-16.55
179.524	-4.27
179.744	-18.6
179.964	34.64
180.184	24.4
180.404	-14.51
180.624	12.12
180.844	34.64
181.064	-94.38
181.283	40.79
181.503	-69.8
181.723	71.51
181.943	-53.42
182.163	51.03
182.383	-77.99
182.602	42.84
182.822	1.88
183.042	32.6
183.262	-10.41
183.482	16.21
183.701	55.12
183.921	40.79
184.141	30.55
184.361	-20.65
184.58	-8.36
184.8	63.32
185.02	-0.17
185.239	5.97
185.459	28.5
185.679	67.41
185.898	26.45
186.118	22.36
186.338	-0.17
186.557	-18.6
186.777	-37.03
186.997	-12.46
187.216	-45.23
187.436	48.98
187.655	-14.51
187.875	42.84
188.095	69.46
188.314	8.02
188.534	40.79
188.753	81.75
188.973	59.22
189.192	61.27
189.412	-24.75
189.631	-30.89
189.851	-32.94
190.07	73.56
190.29	-14.51
190.509	-8.36
190.729	26.45
190.948	8.02
191.168	171.86
191.387	30.55
191.607	3.93
191.826	-37.03
192.045	-0.17
192.265	3.93
192.484	-45.23
192.704	75.6
192.923	-45.23
193.142	40.79
193.362	-32.94
193.581	65.36
193.8	34.64
194.02	10.07
194.239	59.22
194.458	65.36
194.678	-16.55
194.897	-16.55
195.116	48.98
195.335	18.26
195.555	-20.65
195.774	24.4
195.993	91.99
196.212	-41.13
196.432	16.21
196.651	18.26
196.87	57.17
197.089	57.17
197.308	-37.03
197.528	32.6
197.747	-65.71
197.966	24.4
198.185	51.03
198.404	-4.27
198.623	36.69
198.842	20.31
199.062	53.08
199.281	-20.65
199.5	57.17
199.719	44.88
199.938	-24.75
200.157	26.45
200.376	30.55
200.595	3.93
200.814	-22.7
201.033	48.98
201.252	38.74
201.471	94.04
201.69	48.98
201.909	28.5
202.128	81.75
202.347	81.75
202.566	73.56
202.785	-2.22
203.004	-12.46
203.223	102.23
203.442	71.51
203.661	42.84
203.879	-24.75
204.098	67.41
204.317	-8.36
204.536	57.17
204.755	8.02
204.974	42.84
205.193	-4.27
205.411	26.45
205.63	48.98
205.849	-4.27
206.068	-28.84
206.287	1.88
206.505	3.93
206.724	44.88
206.943	24.4
207.162	28.5
207.381	42.84
207.599	12.12
207.818	20.31
208.037	30.55
208.255	-12.46
208.474	3.93
208.693	57.17
208.911	32.6
209.13	59.22
209.349	59.22
209.567	-24.75
209.786	38.74
210.005	24.4
210.223	34.64
210.442	53.08
210.661	73.56
210.879	38.74
211.098	28.5
211.316	51.03
211.535	89.94
211.753	-57.51
211.972	83.8
212.191	16.21
212.409	65.36
212.628	20.31
212.846	-53.42
213.065	61.27
213.283	83.8
213.502	-30.89
213.72	75.6
213.938	32.6
214.157	42.84
214.375	83.8
214.594	24.4
214.812	30.55
215.031	59.22
215.249	-4.27
215.467	-37.03
215.686	122.71
215.904	36.69
216.122	-20.65
216.341	116.56
216.559	-14.51
216.778	-8.36
216.996	81.75
217.214	57.17
217.432	-57.51
217.651	-10.41
217.869	5.97
218.087	28.5
218.306	-55.47
218.524	-8.36
218.742	14.17
218.96	40.79
219.179	8.02
219.397	16.21
219.615	114.52
219.833	143.19
220.051	32.6
220.27	44.88
220.488	46.93
220.706	28.5
220.924	61.27
221.142	46.93
221.36	57.17
221.578	40.79
221.796	94.04
222.015	12.12
222.233	5.97
222.451	32.6
222.669	-30.89
222.887	36.69
223.105	-75.95
223.323	8.02
223.541	-30.89
223.759	73.56
223.977	73.56
224.195	73.56
224.413	57.17
224.631	87.89
224.849	67.41
225.067	34.64
225.285	-24.75
225.503	32.6
225.721	10.07
225.939	-6.31
226.157	28.5
226.375	143.19
226.592	22.36
226.81	114.52
227.028	34.64
227.246	51.03
227.464	-2.22
227.682	8.02
227.9	-41.13
228.117	-22.7
228.335	-65.71
228.553	89.94
228.771	65.36
228.989	-2.22
229.206	8.02
229.424	-12.46
229.642	32.6
229.86	51.03
230.077	-4.27
230.295	14.17
230.513	32.6
230.731	5.97
230.948	34.64
231.166	48.98
231.384	10.07
231.601	48.98
231.819	36.69
232.037	-8.36
232.254	57.17
232.472	-12.46
232.689	40.79
232.907	26.45
233.125	18.26
233.342	-39.08
233.56	-39.08
233.777	-6.31
233.995	-8.36
234.213	8.02
234.43	24.4
234.648	-14.51
234.865	1.88
235.083	-6.31
235.3	79.7
235.518	81.75
235.735	57.17
235.953	44.88
236.17	16.21
236.388	34.64
236.605	8.02
236.822	24.4
237.04	40.79
237.257	-14.51
237.475	-4.27
237.692	18.26
237.909	114.52
238.127	5.97
238.344	69.46
238.562	40.79
238.779	-10.41
238.996	-20.65
239.214	18.26
239.431	44.88
239.648	12.12
239.865	40.79
240.083	-2.22
240.3	-49.32
240.517	-10.41
240.735	-0.17
240.952	44.88
241.169	28.5
241.386	16.21
241.603	69.46
241.821	-65.71
242.038	42.84
242.255	10.07
242.472	-2.22
242.689	116.56
242.907	22.36
243.124	42.84
243.341	18.26
243.558	-8.36
243.775	1.88
243.992	-32.94
244.209	51.03
244.426	81.75
244.643	59.22
244.86	28.5
245.078	32.6
245.295	59.22
245.512	-8.36
245.729	36.69
245.946	106.32
246.163	75.6
246.38	-8.36
246.597	20.31
246.814	-28.84
247.031	26.45
247.248	65.36
247.464	40.79
247.681	38.74
247.898	59.22
248.115	40.79
248.332	-0.17
248.549	48.98
248.766	100.18
248.983	48.98
249.2	51.03
249.417	18.26
249.633	-22.7
249.85	32.6
250.067	32.6
250.284	32.6
250.501	53.08
250.717	8.02
250.934	67.41
251.151	34.64
251.368	-6.31
251.585	51.03
251.801	10.07
252.018	-73.9
252.235	42.84
252.451	8.02
252.668	14.17
252.885	28.5
253.102	65.36
253.318	1.88
253.535	-0.17
253.752	61.27
253.968	34.64
254.185	32.6
254.401	51.03
254.618	16.21
254.835	-0.17
255.051	71.51
255.268	36.69
255.484	102.23
255.701	20.31
255.917	18.26
256.134	-12.46
256.351	75.6
256.567	-16.55
256.784	-16.55
257	-88.23
257.217	57.17
257.433	48.98
257.65	44.88
257.866	-26.79
258.082	77.65
258.299	-30.89
258.515	59.22
258.732	67.41
258.948	12.12
259.165	28.5
259.381	-32.94
259.597	-6.31
259.814	24.4
260.03	-6.31
260.246	46.93
260.463	83.8
260.679	-20.65
260.895	22.36
261.112	32.6
261.328	-4.27
261.544	1.88
261.761	83.8
261.977	32.6
262.193	-71.85
262.409	51.03
262.626	51.03
262.842	-16.55
263.058	-20.65
263.274	57.17
263.49	-37.03
263.707	24.4
263.923	-30.89
264.139	26.45
264.355	8.02
264.571	3.93
264.787	8.02
265.004	65.36
265.22	83.8
265.436	65.36
265.652	102.23
265.868	22.36
266.084	59.22
266.3	10.07
266.516	1.88
266.732	65.36
266.948	57.17
267.164	8.02
267.38	-2.22
267.596	-32.94
267.812	16.21
268.028	-6.31
268.244	-24.75
268.46	-34.99
268.676	-41.13
268.892	67.41
269.108	30.55
269.324	-49.32
269.54	-0.17
269.756	36.69
269.972	-2.22
270.188	28.5
270.403	44.88
270.619	3.93
270.835	44.88
271.051	-12.46
271.267	10.07
271.483	-8.36
271.698	-14.51
271.914	51.03
272.13	98.13
272.346	5.97
272.562	3.93
272.777	18.26
272.993	-12.46
273.209	-24.75
273.425	-32.94
273.64	26.45
273.856	67.41
274.072	34.64
274.287	-14.51
274.503	18.26
274.719	91.99
274.934	1.88
275.15	16.21
275.366	-51.37
275.581	63.32
275.797	98.13
276.012	-32.94
276.228	59.22
276.444	-8.36
276.659	65.36
276.875	-0.17
277.09	1.88
277.306	16.21
277.521	1.88
277.737	57.17
277.952	16.21
278.168	8.02
278.383	51.03
278.599	-0.17
278.814	63.32
279.03	26.45
279.245	91.99
279.461	-18.6
279.676	40.79
279.892	73.56
280.107	-0.17
280.322	-55.47
280.538	-37.03
280.753	18.26
280.969	26.45
281.184	30.55
281.399	55.12
281.615	8.02
281.83	1.88
282.045	-37.03
282.26	69.46
282.476	59.22
282.691	-30.89
282.906	75.6
283.122	-49.32
283.337	53.08
283.552	83.8
283.767	48.98
283.983	57.17
284.198	8.02
284.413	61.27
284.628	57.17
284.843	30.55
285.058	8.02
285.274	-14.51
285.489	48.98
285.704	12.12
285.919	-30.89
286.134	-8.36
286.349	10.07
286.564	-8.36
286.779	57.17
286.995	18.26
287.21	-22.7
287.425	59.22
287.64	32.6
287.855	32.6
288.07	3.93
288.285	38.74
288.5	32.6
288.715	98.13
288.93	48.98
289.145	12.12
289.36	100.18
289.575	-73.9
289.79	63.32
290.004	-8.36
290.219	30.55
290.434	-24.75
290.649	8.02
290.864	67.41
291.079	77.65
291.294	10.07
291.509	46.93
291.724	89.94
291.938	-55.47
292.153	-24.75
292.368	57.17
292.583	69.46
292.798	46.93
293.012	53.08
293.227	-8.36
293.442	91.99
293.657	38.74
293.871	65.36
294.086	1.88
294.301	79.7
294.516	69.46
294.73	-0.17
294.945	-14.51
295.16	63.32
295.374	73.56
295.589	51.03
295.804	16.21
296.018	18.26
296.233	61.27
296.447	24.4
296.662	48.98
296.877	40.79
297.091	36.69
297.306	57.17
297.52	12.12
297.735	8.02
297.949	32.6
298.164	-6.31
298.378	40.79
298.593	16.21
298.807	8.02
299.022	-0.17
299.236	42.84
299.451	-45.23
299.665	18.26
299.88	79.7
300.094	-12.46
300.309	10.07
300.523	38.74
300.737	48.98
300.952	-14.51
301.166	89.94
301.381	-12.46
301.595	26.45
301.809	53.08
302.024	-14.51
302.238	8.02
302.452	51.03
302.667	-22.7
302.881	55.12
303.095	85.84
303.309	24.4
303.524	57.17
303.738	5.97
303.952	-12.46
304.166	-2.22
304.381	-55.47
304.595	12.12
304.809	-6.31
305.023	59.22
305.237	-20.65
305.452	40.79
305.666	67.41
305.88	40.79
306.094	65.36
306.308	89.94
306.522	100.18
306.736	40.79
306.95	32.6
307.164	73.56
307.379	-0.17
307.593	85.84
307.807	57.17
308.021	67.41
308.235	100.18
308.449	16.21
308.663	8.02
308.877	67.41
309.091	8.02
309.305	36.69
309.519	-30.89
309.733	48.98
309.947	77.65
310.161	42.84
310.374	75.6
310.588	83.8
310.802	-77.99
311.016	24.4
311.23	3.93
311.444	-30.89
311.658	16.21
311.872	-12.46
312.085	40.79
312.299	40.79
312.513	48.98
312.727	63.32
312.941	-71.85
313.154	32.6
313.368	89.94
313.582	32.6
313.796	24.4
314.009	53.08
314.223	12.12
314.437	24.4
314.651	61.27
314.864	-6.31
315.078	-41.13
315.292	-8.36
315.505	36.69
315.719	65.36
315.933	57.17
316.146	26.45
316.36	-61.61
316.573	42.84
316.787	-65.71
317.001	26.45
317.214	28.5
317.428	65.36
317.641	-6.31
317.855	57.17
318.068	32.6
318.282	48.98
318.495	8.02
318.709	10.07
318.922	-8.36
319.136	120.66
319.349	24.4
319.563	-49.32
319.776	40.79
319.99	-4.27
320.203	98.13
320.417	85.84
320.63	106.32
320.843	-0.17
321.057	42.84
321.27	-8.36
321.483	36.69
321.697	-16.55
321.91	-12.46
322.124	36.69
322.337	89.94
322.55	34.64
322.763	8.02
322.977	40.79
323.19	-98.47
323.403	16.21
323.617	26.45
323.83	48.98
324.043	28.5
324.256	-45.23
324.469	24.4
324.683	69.46
324.896	-0.17
325.109	-41.13
325.322	51.03
325.535	63.32
325.748	81.75
325.962	53.08
326.175	32.6
326.388	24.4
326.601	91.99
326.814	51.03
327.027	-6.31
327.24	102.23
327.453	-0.17
327.666	8.02
327.879	75.6
328.092	112.47
328.305	40.79
328.518	24.4
328.731	1.88
328.944	14.17
329.157	59.22
329.37	32.6
329.583	149.33
329.796	16.21
330.009	-14.51
330.222	-16.55
330.435	57.17
330.648	42.84
330.861	48.98
331.073	3.93
331.286	59.22
331.499	-24.75
331.712	-16.55
331.925	59.22
332.138	-37.03
332.35	44.88
332.563	-65.71
332.776	-22.7
332.989	16.21
333.202	18.26
333.414	38.74
333.627	57.17
333.84	106.32
334.053	36.69
334.265	-32.94
334.478	106.32
334.691	-61.61
334.903	12.12
335.116	22.36
335.329	89.94
335.541	5.97
335.754	94.04
335.966	53.08
336.179	65.36
336.392	114.52
336.604	28.5
336.817	89.94
337.029	16.21
337.242	28.5
337.454	139.09
337.667	28.5
337.88	81.75
338.092	-24.75
338.305	12.12
338.517	10.07
338.729	44.88
338.942	28.5
339.154	-20.65
339.367	24.4
339.579	32.6
339.792	32.6
340.004	-71.85
340.217	-16.55
340.429	18.26
340.641	-18.6
340.854	3.93
341.066	-28.84
341.278	94.04
341.491	96.08
341.703	44.88
341.915	-4.27
342.128	77.65
342.34	73.56
342.552	-26.79
342.764	-0.17
342.977	10.07
343.189	73.56
343.401	14.17
343.613	24.4
343.826	12.12
344.038	-37.03
344.25	40.79
344.462	24.4
344.674	46.93
344.886	18.26
345.099	59.22
345.311	44.88
345.523	34.64
345.735	-12.46
345.947	34.64
346.159	18.26
346.371	57.17
346.583	67.41
346.795	94.04
347.007	42.84
347.219	48.98
347.431	34.64
347.643	-22.7
347.855	-0.17
348.067	75.6
348.279	-41.13
348.491	75.6
348.703	-24.75
348.915	48.98
349.127	48.98
349.339	-24.75
349.551	40.79
349.763	42.84
349.975	51.03
350.187	-16.55
350.399	69.46
350.61	10.07
350.822	-0.17
351.034	26.45
351.246	44.88
351.458	46.93
351.669	94.04
351.881	-0.17
352.093	98.13
352.305	81.75
352.517	20.31
352.728	-14.51
352.94	32.6
353.152	53.08
353.363	-0.17
353.575	77.65
353.787	94.04
353.999	-41.13
354.21	75.6
354.422	20.31
354.633	-10.41
354.845	8.02
355.057	18.26
355.268	-6.31
355.48	40.79
355.692	-0.17
355.903	14.17
356.115	40.79
356.326	-73.9
356.538	-24.75
356.749	69.46
356.961	48.98
357.172	20.31
357.384	65.36
357.595	57.17
357.807	-32.94
358.018	36.69
358.23	57.17
358.441	32.6
358.653	81.75
358.864	-30.89
359.075	83.8
359.287	34.64
359.498	16.21
359.709	-32.94
359.921	-6.31
360.132	55.12
360.344	36.69
360.555	24.4
360.766	24.4
360.977	38.74
361.189	12.12
361.4	85.84
361.611	48.98
361.823	79.7
362.034	40.79
362.245	46.93
362.456	69.46
362.667	-20.65
362.879	28.5
363.09	75.6
363.301	40.79
363.512	18.26
363.723	30.55
363.935	32.6
364.146	85.84
364.357	14.17
364.568	30.55
364.779	-8.36
364.99	98.13
365.201	-2.22
365.412	89.94
365.623	69.46
365.834	-24.75
366.045	24.4
366.256	24.4
366.467	61.27
366.678	5.97
366.889	116.56
367.1	-8.36
367.311	122.71
367.522	-0.17
367.733	24.4
367.944	51.03
368.155	1.88
368.366	40.79
368.577	36.69
368.788	73.56
368.999	28.5
369.209	26.45
369.42	116.56
369.631	61.27
369.842	10.07
370.053	32.6
370.264	104.28
370.474	40.79
370.685	59.22
370.896	71.51
371.107	81.75
371.317	124.76
371.528	30.55
371.739	51.03
371.95	38.74
372.16	36.69
372.371	34.64
372.582	1.88
372.792	8.02
373.003	57.17
373.214	40.79
373.424	40.79
373.635	8.02
373.846	77.65
374.056	18.26
374.267	87.89
374.477	100.18
374.688	53.08
374.898	61.27
375.109	89.94
375.319	26.45
375.53	40.79
375.74	53.08
375.951	51.03
376.161	61.27
376.372	48.98
376.582	12.12
376.793	71.51
377.003	10.07
377.214	16.21
377.424	40.79
377.635	40.79
377.845	-6.31
378.055	-2.22
378.266	-22.7
378.476	38.74
378.686	139.09
378.897	87.89
379.107	18.26
379.317	106.32
379.528	-4.27
379.738	81.75
379.948	48.98
380.158	40.79
380.369	51.03
380.579	10.07
380.789	48.98
380.999	69.46
381.21	98.13
381.42	44.88
381.63	120.66
381.84	16.21
382.05	96.08
382.261	77.65
382.471	73.56
382.681	-41.13
382.891	81.75
383.101	69.46
383.311	-16.55
383.521	20.31
383.731	81.75
383.941	73.56
384.151	10.07
384.361	46.93
384.571	85.84
384.781	20.31
384.991	89.94
385.201	143.19
385.411	36.69
385.621	46.93
385.831	85.84
386.041	14.17
386.251	-24.75
386.461	141.14
386.671	81.75
386.881	122.71
387.091	85.84
387.301	51.03
387.511	-43.18
387.72	73.56
387.93	116.56
388.14	8.02
388.35	40.79
388.56	63.32
388.769	32.6
388.979	36.69
389.189	48.98
389.399	85.84
389.609	40.79
389.818	81.75
390.028	48.98
390.238	106.32
390.447	-24.75
390.657	96.08
390.867	-16.55
391.076	57.17
391.286	77.65
391.496	73.56
391.705	34.64
391.915	73.56
392.125	44.88
392.334	73.56
392.544	91.99
392.753	139.09
392.963	-37.03
393.172	67.41
393.382	55.12
393.591	73.56
393.801	5.97
394.01	102.23
394.22	18.26
394.429	122.71
394.639	48.98
394.848	75.6
395.058	34.64
395.267	12.12
395.477	67.41
395.686	83.8
395.895	91.99
396.105	124.76
396.314	28.5
396.524	120.66
396.733	53.08
396.942	44.88
397.152	77.65
397.361	98.13
397.57	42.84
397.78	81.75
397.989	124.76
398.198	122.71
398.407	59.22
398.617	40.79
398.826	44.88
399.035	65.36
399.244	100.18
399.453	65.36
399.663	114.52
399.872	122.71
400.081	30.55
400.29	81.75
400.499	130.9
400.708	40.79
400.917	94.04
401.127	61.27
401.336	65.36
401.545	94.04
401.754	81.75
401.963	141.14
402.172	81.75
402.381	100.18
402.59	98.13
402.799	91.99
403.008	157.52
403.217	116.56
403.426	114.52
403.635	163.67
403.844	124.76
404.053	51.03
404.262	106.32
404.471	155.47
404.68	104.28
404.888	96.08
405.097	91.99
405.306	116.56
405.515	204.63
405.724	34.64
405.933	196.43
406.142	147.28
406.35	132.95
406.559	124.76
406.768	204.63
406.977	247.63
407.185	106.32
407.394	147.28
407.603	163.67
407.812	196.43
408.02	304.98
408.229	288.59
408.438	155.47
408.646	159.57
408.855	255.83
409.064	165.71
409.272	239.44
409.481	270.16
409.69	272.21
409.898	223.06
410.107	311.12
410.315	286.54
410.524	325.46
410.733	284.5
410.941	358.22
411.15	284.5
411.358	317.26
411.567	313.17
411.775	393.04
411.984	296.78
412.192	393.04
412.401	438.09
412.609	401.23
412.818	470.86
413.026	384.85
413.234	468.81
413.443	347.98
413.651	417.61
413.86	507.73
414.068	491.34
414.276	536.4
414.485	470.86
414.693	493.39
414.901	606.03
415.11	659.28
415.318	614.22
415.526	655.18
415.734	675.66
415.943	665.42
416.151	798.54
416.359	659.28
416.567	683.85
416.776	749.39
416.984	849.74
417.192	816.97
417.4	882.5
417.608	835.4
417.817	913.22
418.025	995.14
418.233	984.9
418.441	1027.91
418.649	1105.73
418.857	1058.63
419.065	1085.25
419.273	1152.84
419.481	1156.93
419.689	1242.95
419.897	1236.8
420.105	1310.53
420.313	1404.74
420.521	1355.58
420.729	1363.78
420.937	1433.41
421.145	1546.05
421.353	1695.55
421.561	1658.68
421.769	1673.02
421.977	1756.99
422.185	1699.64
422.393	1920.82
422.601	1984.31
422.809	2041.65
423.017	1902.39
423.224	1912.63
423.432	2207.54
423.64	2129.72
423.848	2293.55
424.056	2305.84
424.263	2389.81
424.471	2424.62
424.679	2467.63
424.887	2627.37
425.094	2731.82
425.302	2680.62
425.51	2760.49
425.718	2940.71
425.925	2838.31
426.133	3069.73
426.341	3256.1
426.548	3323.68
426.756	3415.84
426.964	3489.57
427.171	3522.34
427.379	3675.93
427.586	3802.91
427.794	3819.29
428.001	3954.46
428.209	4290.32
428.417	4169.49
428.624	4540.18
428.832	4554.51
429.039	4349.71
429.247	4433.68
429.454	4960.01
429.662	4970.25
429.869	4716.3
430.076	5146.37
430.284	4992.78
430.491	5267.2
430.699	5543.68
430.906	5498.63
431.114	5570.3
431.321	5752.57
431.528	5975.8
431.736	6231.8
431.943	6602.48
432.15	6299.38
432.358	6506.23
432.565	6825.71
432.772	6881
432.979	6993.64
433.187	7167.72
433.394	7116.52
433.601	7851.74
433.808	7589.6
434.016	7798.49
434.223	8081.11
434.43	8484.56
434.637	8464.08
434.844	8845.01
435.052	9117.39
435.259	9035.47
435.466	9037.52
435.673	8988.36
435.88	9490.12
436.087	9922.24
436.294	9985.72
436.501	9799.36
436.708	10139.32
436.915	10499.77
437.122	10845.87
437.329	10690.23
437.537	11284.14
437.743	11476.65
437.95	11280.04
438.157	11947.68
438.364	12072.61
438.571	12361.37
438.778	12232.35
438.985	13317.77
439.192	12895.89
439.399	13155.98
439.606	12897.94
439.813	13749.89
440.02	14466.68
440.227	14272.12
440.433	13946.5
440.64	14771.83
440.847	14392.95
441.054	14952.05
441.261	15730.28
441.467	15808.1
441.674	16227.93
441.881	16399.96
442.088	16653.91
442.294	16074.34
442.501	16823.89
442.708	17026.64
442.914	17612.36
443.121	18791.99
443.328	18118.21
443.534	19402.29
443.741	18884.15
443.948	18316.86
444.154	19818.02
444.361	19744.3
444.568	19797.54
444.774	19555.88
444.981	20168.23
445.187	20579.87
445.394	21589.52
445.6	21427.73
445.807	23420.4
446.013	22484.48
446.22	22492.67
446.426	23498.22
446.633	23574
446.839	24638.94
447.046	23483.89
447.252	24956.38
447.459	24757.72
447.665	24464.86
447.871	25759.18
448.078	26820.03
448.284	25617.87
448.491	26684.86
448.697	27268.53
448.903	27940.27
449.11	28147.11
449.316	27557.3
449.522	28044.71
449.728	28880.28
449.935	28683.68
450.141	29097.37
450.347	29531.54
450.553	29074.84
450.76	28943.77
450.966	29676.94
451.172	29672.85
451.378	30533
451.584	29691.28
451.791	30694.78
451.997	30281.1
452.203	30836.09
452.409	31036.8
452.615	30643.59
452.821	29250.97
453.027	29197.72
453.233	30526.85
453.44	29480.34
453.646	29678.99
453.852	29851.02
454.058	30604.67
454.264	29525.39
454.47	30287.24
454.676	29150.62
454.882	30498.18
455.088	27631.02
455.294	28177.83
455.5	28517.79
455.705	28532.13
455.911	27663.79
456.117	27002.3
456.323	27088.31
456.529	25433.55
456.735	26607.04
456.941	25931.21
457.147	25304.53
457.352	24610.27
457.558	24335.84
457.764	24651.23
457.97	24018.41
458.176	23461.36
458.381	23182.84
458.587	22273.54
458.793	22234.63
458.999	20958.74
459.204	22885.88
459.41	21929.48
459.616	20688.41
459.821	20428.32
460.027	20661.79
460.233	20100.64
460.438	19551.79
460.644	19602.99
460.85	18386.49
461.055	18251.33
461.261	18071.11
461.466	16887.38
461.672	16266.85
461.878	17440.33
462.083	16377.44
462.289	16004.71
462.494	15883.87
462.7	15142.51
462.905	14911.09
463.111	15287.92
463.316	15193.71
463.522	14923.38
463.727	14810.74
463.932	15140.46
464.138	14933.62
464.343	14997.1
464.549	14198.4
464.754	14947.95
464.959	14790.26
465.165	14616.18
465.37	14220.92
465.575	13790.85
465.781	14476.92
465.986	14491.26
466.191	13756.04
466.397	13510.28
466.602	12906.13
466.807	13534.85
467.012	13393.54
467.218	13295.24
467.423	12983.95
467.628	13307.53
467.833	13624.97
468.038	13026.96
468.244	13076.11
468.449	13422.22
468.654	13082.25
468.859	12881.55
469.064	12734.1
469.269	12326.55
469.474	12691.09
469.679	12848.79
469.885	12447.38
470.09	12662.42
470.295	12596.89
470.5	12203.68
470.705	12258.97
470.91	12093.08
471.115	11890.34
471.32	12107.42
471.525	11968.16
471.73	11710.11
471.935	11679.4
472.139	11052.72
472.344	11308.71
472.549	11124.4
472.754	11030.19
472.959	11103.92
473.164	10675.89
473.369	10538.68
473.574	10890.93
473.778	10854.06
473.983	10727.09
474.188	10800.82
474.393	10208.95
474.598	10184.38
474.802	10165.95
475.007	10045.12
475.212	10043.07
475.417	9756.35
475.621	9840.32
475.826	9832.13
476.031	9447.11
476.235	9209.54
476.44	9477.83
476.645	9213.64
476.849	9305.8
477.054	9158.35
477.259	9070.28
477.463	9232.07
477.668	9141.96
477.872	8941.26
478.077	8951.5
478.282	8638.16
478.486	8627.92
478.691	8691.41
478.895	8523.48
479.1	8341.21
479.304	8320.73
479.509	8183.51
479.713	8437.46
479.918	8185.56
480.122	8101.59
480.326	8373.97
480.531	8261.34
480.735	8103.64
480.94	7945.95
481.144	8330.97
481.348	8064.73
481.553	7874.27
481.757	7972.57
481.961	7923.42
482.166	8003.29
482.37	8169.18
482.574	7892.7
482.778	7833.31
482.983	7909.08
483.187	7896.8
483.391	8203.99
483.595	7870.17
483.8	7751.39
484.004	7843.55
484.208	7972.57
484.412	7864.03
484.616	7855.84
484.821	7866.08
485.025	7694.05
485.229	7915.23
485.433	7782.11
485.637	7810.78
485.841	7759.58
486.045	7530.21
486.249	7782.11
486.453	7818.97
486.657	7890.65
486.861	7896.8
487.065	7747.3
487.269	7837.41
487.473	7798.49
487.677	7999.2
487.881	7956.19
488.085	8079.07
488.289	8142.55
488.493	7859.93
488.697	7921.37
488.901	7900.89
489.105	7864.03
489.309	8023.77
489.512	7847.65
489.716	7847.65
489.92	8081.11
490.124	8027.87
490.328	8167.13
490.531	7962.33
490.735	8054.49
490.939	8054.49
491.143	8099.55
491.346	8107.74
491.55	8290.01
491.754	8292.05
491.958	8242.9
492.161	8298.2
492.365	8191.7
492.569	8367.83
492.772	8408.79
492.976	8470.23
493.18	8525.52
493.383	8435.41
493.587	8586.96
493.79	8705.74
493.994	8603.35
494.197	8611.54
494.401	8789.71
494.605	8818.38
494.808	8802
495.012	9027.28
495.215	8965.84
495.419	9078.47
495.622	9012.94
495.825	9258.7
496.029	9133.77
496.232	9332.42
496.436	9373.38
496.639	9531.08
496.843	9400.01
497.046	9674.43
497.249	9862.85
497.453	9856.7
497.656	10157.75
497.859	9971.39
498.063	10041.02
498.266	10403.51
498.469	10268.34
498.673	10399.41
498.876	10618.55
499.079	10620.6
499.282	10806.96
499.485	10870.45
499.689	10874.54
499.892	11374.25
500.095	11142.83
500.298	11136.68
500.501	11366.06
500.705	11720.35
500.908	11734.69
501.111	11894.43
501.314	12039.84
501.517	12148.38
501.72	12381.85
501.923	12293.79
502.126	12504.73
502.329	12510.87
502.532	12779.15
502.735	12768.91
502.938	13053.58
503.141	13094.54
503.344	13323.91
503.547	13393.54
503.75	13708.93
503.953	13794.95
504.156	13911.68
504.359	14093.95
504.562	14155.39
504.765	14399.1
504.968	14659.19
505.17	14661.24
505.373	14605.94
505.576	14823.03
505.779	15191.66
505.982	15273.58
506.185	15388.27
506.387	15597.16
506.59	15738.47
506.793	15910.5
506.996	15912.55
507.198	16371.29
507.401	16402.01
507.604	16320.09
507.807	16797.27
508.009	17004.11
508.212	16893.52
508.415	17108.56
508.617	17389.13
508.82	17464.91
509.022	17395.28
509.225	18120.26
509.428	18159.17
509.63	18277.95
509.833	18398.78
510.035	18708.02
510.238	18939.44
510.44	18929.2
510.643	19287.6
510.845	19594.79
511.048	19250.74
511.25	19635.75
511.453	19729.96
511.655	20375.07
511.858	20303.39
512.06	20440.61
512.262	20561.44
512.465	20522.52
512.667	20991.51
512.87	21192.21
513.072	21282.32
513.274	21691.91
513.477	21607.95
513.679	21884.42
513.881	22205.95
514.084	22257.15
514.286	22488.57
514.488	22490.62
514.69	23328.24
514.893	23021.05
515.095	23203.32
515.297	23754.22
515.499	23850.47
515.701	24131.05
515.904	24172
516.106	24495.58
516.308	24516.06
516.51	24765.92
516.712	25112.02
516.914	25259.48
517.116	25837
517.318	25757.13
517.52	25664.97
517.722	26133.96
517.925	26604.99
518.127	26754.49
518.329	26678.72
518.531	27108.79
518.733	27346.36
518.935	27452.85
519.136	27454.9
519.338	28001.71
519.54	27880.88
519.742	28753.31
519.944	28659.1
520.146	29099.42
520.348	28894.62
520.55	29074.84
520.752	29308.31
520.954	29683.09
521.155	29293.97
521.357	29820.3
521.559	30293.38
521.761	30639.49
521.963	30336.39
522.164	30625.15
522.366	31083.9
522.568	31409.53
522.77	31538.55
522.971	31575.41
523.173	31597.94
523.375	31823.22
523.576	31958.38
523.778	32159.08
523.98	32537.96
524.181	32468.33
524.383	32879.97
524.584	33123.68
524.786	33154.4
524.988	33174.88
525.189	33518.93
525.391	33580.37
525.592	33699.16
525.794	33946.96
525.995	34188.62
526.197	34006.35
526.398	34352.46
526.6	34458.95
526.801	34334.03
527.003	34735.43
527.204	34827.59
527.406	35042.62
527.607	34970.94
527.808	35183.93
528.01	34880.83
528.211	34803.01
528.412	35472.7
528.614	35329.34
528.815	35327.29
529.016	36263.21
529.218	35591.48
529.419	35491.13
529.62	35724.6
529.822	35751.22
530.023	35702.07
530.224	35833.14
530.425	35919.15
530.626	36007.22
530.828	35761.46
531.029	36533.54
531.23	36314.41
531.431	36316.46
531.632	36039.98
531.833	36465.96
532.035	36425
532.236	36330.79
532.437	36408.62
532.638	36070.7
532.839	36611.37
533.04	36738.34
533.241	36252.97
533.442	36891.94
533.643	36785.44
533.844	36709.67
534.045	36896.03
534.246	36611.37
534.447	36816.16
534.648	36754.72
534.849	36787.49
535.05	36396.33
535.251	36744.48
535.451	36574.5
535.652	36867.36
535.853	36758.82
536.054	36615.46
536.255	36674.85
536.456	36601.13
536.657	37215.52
536.857	36611.37
537.058	36652.33
537.259	36977.95
537.46	36756.77
537.66	36494.63
537.861	36701.48
538.062	36314.41
538.263	36850.98
538.463	36353.32
538.664	36744.48
538.865	36853.03
539.065	36857.12
539.266	36365.61
539.466	36738.34
539.667	36396.33
539.868	37457.18
540.068	36594.98
540.269	36836.64
540.469	37113.12
540.67	36756.77
540.87	36656.42
541.071	36572.46
541.271	36676.9
541.472	37145.89
541.672	36402.47
541.873	36115.76
542.073	36070.7
542.274	36693.29
542.474	36490.54
542.675	36619.56
542.875	36691.24
543.075	36529.45
543.276	36259.12
543.476	36713.77
543.676	36617.51
543.877	36879.65
544.077	36767.01
544.277	36812.07
544.478	36429.1
544.678	36250.92
544.878	36375.85
545.078	36453.67
545.279	35814.71
545.479	36140.33
545.679	36566.31
545.879	36310.32
546.079	36588.84
546.28	36517.16
546.48	35847.47
546.68	36468.01
546.88	36281.64
547.08	36201.77
547.28	36375.85
547.48	35904.82
547.68	36484.39
547.88	36056.37
548.081	36132.14
548.281	36230.44
548.481	36322.6
548.681	36640.04
548.881	36351.27
549.081	36314.41
549.28	36134.19
549.48	36922.66
549.68	36289.84
549.88	36717.86
550.08	36195.63
550.28	36246.83
550.48	36320.56
550.68	36371.75
550.88	35990.83
551.08	36099.37
551.279	36359.47
551.479	35937.58
551.679	36328.75
551.879	36212.01
552.079	36281.64
552.278	35702.07
552.478	36138.29
552.678	36420.91
552.878	36046.13
553.077	36156.72
553.277	35448.12
553.477	36607.27
553.676	35888.43
553.876	35886.39
554.076	35894.58
554.275	35747.12
554.475	35599.67
554.674	35958.06
554.874	35818.8
555.074	35605.81
555.273	36101.42
555.473	36396.33
555.672	35722.55
555.872	35513.66
556.071	35464.5
556.271	36087.09
556.47	35783.99
556.67	35892.53
556.869	35728.69
557.068	35589.43
557.268	35396.92
557.467	35654.97
557.667	35274.04
557.866	35757.36
558.065	35450.17
558.265	35630.39
558.464	35116.35
558.663	35700.02
558.863	34880.83
559.062	35855.67
559.261	35024.19
559.461	35401.02
559.66	35167.55
559.859	34979.14
560.058	35243.32
560.258	35286.33
560.457	34784.58
560.656	35415.35
560.855	35024.19
561.054	34962.75
561.253	34927.94
561.453	34997.57
561.652	34843.97
561.851	34972.99
562.05	34766.15
562.249	34321.74
562.448	34723.14
562.647	34323.79
562.846	34147.66
563.045	34274.63
563.244	34229.58
563.443	34833.73
563.642	34205
563.841	34467.14
564.04	34110.8
564.239	34065.74
564.438	34118.99
564.637	34188.62
564.836	34180.43
565.035	33615.19
565.234	33889.62
565.432	34067.79
565.631	33604.95
565.83	33641.81
566.029	33408.34
566.228	33715.54
566.427	33408.34
566.625	33262.94
566.824	32912.74
567.023	33332.57
567.222	32845.15
567.42	33279.32
567.619	33082.72
567.818	32941.41
568.016	32847.2
568.215	33221.98
568.414	32726.37
568.612	33334.62
568.811	32812.38
569.01	33262.94
569.208	32533.86
569.407	32705.89
569.605	32210.28
569.804	32558.44
570.002	32030.06
570.201	32341.35
570.4	32175.47
570.598	32107.88
570.797	31802.74
570.995	32034.16
571.193	31724.91
571.392	32093.55
571.59	31778.16
571.789	32025.96
571.987	31706.48
572.186	31704.43
572.384	31565.17
572.582	31755.63
572.781	31499.64
572.979	30862.72
573.177	31118.71
573.376	31430.01
573.574	31100.28
573.772	31239.54
573.971	30887.29
574.169	30522.76
574.367	31053.18
574.565	30670.21
574.763	30596.48
574.962	30471.56
575.16	30014.86
575.358	30446.98
575.556	30176.65
575.754	30526.85
575.952	29754.77
576.151	30356.87
576.349	29656.46
576.547	30236.04
576.745	29740.43
576.943	29906.32
577.141	29848.97
577.339	29562.26
577.537	29615.51
577.735	29978
577.933	29226.39
578.131	29564.31
578.329	29568.4
578.527	29040.03
578.725	28954.01
578.923	29093.27
579.121	29220.25
579.319	29027.74
579.516	29083.03
579.714	28810.65
579.912	29121.94
580.11	28921.24
580.308	28872.09
580.506	28667.3
580.704	28612
580.901	28521.89
581.099	28597.66
581.297	28427.68
581.495	28442.02
581.692	28423.59
581.89	27891.12
582.088	28155.3
582.285	27758
582.483	27917.74
582.681	28009.9
582.878	27770.29
583.076	27749.81
583.274	27884.97
583.471	27235.77
583.669	27680.17
583.866	27321.78
584.064	27745.71
584.262	27057.59
584.459	27788.72
584.657	27186.61
584.854	27338.16
585.052	26928.57
585.249	27071.93
585.447	27135.42
585.644	26633.66
585.841	26856.89
586.039	26860.99
586.236	26250.69
586.434	26621.38
586.631	26576.32
586.828	26295.75
587.026	26492.35
587.223	26258.88
587.42	25986.5
587.618	26246.6
587.815	26129.86
588.012	26058.18
588.21	25578.96
588.407	25789.9
588.604	25834.96
588.801	25538
588.999	25546.19
589.196	25368.02
589.393	25464.27
589.59	25296.34
589.787	25398.74
589.984	25314.77
590.182	25046.49
590.379	25007.58
590.576	24894.94
590.773	25189.84
590.97	25021.91
591.167	24874.46
591.364	24622.56
591.561	24853.98
591.758	24567.26
591.955	24634.85
592.152	24638.94
592.349	24237.54
592.546	24251.88
592.743	24362.47
592.94	23864.81
593.137	24456.67
593.334	24518.11
593.531	24032.74
593.727	23731.69
593.924	24092.13
594.121	23883.24
594.318	23715.31
594.515	23590.38
594.712	23924.2
594.908	23596.53
595.105	23598.57
595.302	23238.13
595.499	23524.85
595.696	23340.53
595.892	23307.76
596.089	23162.36
596.286	23363.06
596.482	23176.69
596.679	23064.05
596.876	22975.99
597.072	23021.05
597.269	22984.18
597.466	22404.61
597.662	22490.62
597.859	22724.09
598.055	22875.64
598.252	22365.7
598.448	22662.65
598.645	22445.57
598.841	22334.98
599.038	21949.96
599.234	22279.68
599.431	22109.7
599.627	21857.8
599.824	22377.98
600.02	22093.32
600.217	21999.11
600.413	22025.73
600.609	21679.63
600.806	21872.14
601.002	21757.45
601.198	21454.35
601.395	21472.78
601.591	21343.76
601.787	21368.34
601.984	21233.17
602.18	21351.95
602.376	21468.69
602.572	21063.19
602.769	21282.32
602.965	20811.29
603.161	21173.78
603.357	20667.93
603.553	20774.42
603.75	21083.67
603.946	20676.12
604.142	20760.09
604.338	20534.81
604.534	20829.72
604.73	20157.99
604.926	20596.25
605.122	20696.6
605.318	20272.67
605.514	20307.49
605.71	20117.03
605.906	20530.72
606.102	20174.37
606.298	20252.19
606.494	20074.02
606.69	20229.66
606.886	19975.72
607.082	20043.3
607.278	19893.8
607.474	19559.98
607.67	19734.06
607.866	19512.88
608.062	19762.73
608.257	19476.01
608.453	19559.98
608.649	19609.13
608.845	19140.15
609.041	19346.99
609.236	19306.03
609.432	19420.72
609.628	19459.63
609.824	19418.67
610.019	19224.11
610.215	19166.77
610.411	19471.92
610.606	19131.95
610.802	19072.56
610.998	19076.66
611.193	18923.06
611.389	19029.55
611.584	18908.72
611.78	18576.95
611.976	18705.98
612.171	18791.99
612.367	18912.82
612.562	18685.5
612.758	18482.75
612.953	18484.8
613.149	18679.35
613.344	18427.45
613.539	18607.67
613.735	18454.08
613.93	18658.87
614.126	18613.82
614.321	18533.95
614.517	18460.22
614.712	18067.01
614.907	18460.22
615.103	18579
615.298	18120.26
615.493	18486.84
615.688	18142.78
615.884	18611.77
616.079	18101.83
616.274	18005.57
616.47	17976.9
616.665	18153.02
616.86	17921.6
617.055	18118.21
617.25	18079.3
617.445	18013.76
617.641	17585.74
617.836	17815.11
618.031	17481.29
618.226	17626.7
618.421	17618.5
618.616	17706.57
618.811	17399.37
619.006	17630.79
619.201	17395.28
619.396	17303.12
619.591	17063.5
619.786	17301.07
619.981	16979.54
620.176	17366.6
620.371	16868.95
620.566	17079.89
620.761	16950.87
620.956	17124.94
621.151	16741.97
621.346	16662.1
621.541	16668.25
621.735	16543.32
621.93	16285.28
622.125	16539.22
622.32	15861.35
622.515	16195.17
622.709	16146.01
622.904	16172.64
623.099	15670.89
623.294	15992.42
623.488	15826.53
623.683	15588.97
623.878	15502.95
624.072	15662.69
624.267	15359.59
624.462	15543.91
624.656	15263.34
624.851	15093.36
625.046	15269.48
625.24	15142.51
625.435	14999.15
625.629	14802.55
625.824	14874.23
626.018	14788.21
626.213	14507.64
626.407	14622.33
626.602	14294.65
626.796	14704.24
626.991	14270.08
627.185	14237.31
627.38	14102.14
627.574	14139.01
627.768	13946.5
627.963	14108.29
628.157	13962.88
628.352	13999.74
628.546	13442.7
628.74	13528.71
628.935	13395.59
629.129	13596.29
629.323	13303.43
629.517	13340.3
629.712	13336.2
629.906	13362.83
630.1	13010.57
630.294	13072.01
630.489	13088.4
630.683	13029.01
630.877	12926.61
631.071	12912.27
631.265	12820.11
631.459	12541.59
631.653	12510.87
631.848	12617.36
632.042	12680.85
632.236	12574.36
632.43	12535.45
632.624	12381.85
632.818	12258.97
633.012	12240.54
633.206	12013.21
633.4	12084.89
633.594	12086.94
633.788	11966.11
633.982	12078.75
634.176	11847.33
634.369	11761.31
634.563	11681.44
634.757	11636.39
634.951	11599.52
635.145	11658.92
635.339	11738.79
635.533	11531.94
635.726	11519.65
635.92	11058.86
636.114	11214.51
636.308	10989.23
636.501	11097.77
636.695	11087.53
636.889	11087.53
637.083	11003.57
637.276	10872.5
637.47	10743.47
637.664	10804.91
637.857	10628.79
638.051	10784.43
638.244	10561.2
638.438	10677.94
638.632	10454.71
638.825	10593.97
639.019	10419.89
639.212	10323.64
639.406	10372.79
639.599	10221.24
639.793	10344.12
639.986	9981.63
640.18	10231.48
640.373	10120.89
640.567	9821.89
640.76	9971.39
640.954	9768.64
641.147	9813.7
641.34	9772.74
641.534	9889.47
641.727	9770.69
641.92	9660.1
642.114	9533.12
642.307	9520.84
642.5	9406.15
642.694	9207.5
642.887	9264.84
643.08	9365.19
643.273	9373.38
643.467	9240.26
643.66	9266.89
643.853	9127.63
644.046	8896.21
644.239	8969.93
644.432	8816.33
644.626	8703.7
644.819	8871.63
645.012	8752.85
645.205	8904.4
645.398	8890.06
645.591	8660.69
645.784	8560.34
645.977	8341.21
646.17	8584.91
646.363	8568.53
646.556	8439.51
646.749	8343.25
646.942	8539.86
647.135	8392.41
647.328	8189.66
647.521	8167.13
647.714	8087.26
647.907	8249.05
648.099	8208.09
648.292	8201.94
648.485	8113.88
648.678	7837.41
648.871	7999.2
649.064	7999.2
649.256	8027.87
649.449	7745.25
649.642	7859.93
649.835	7769.82
650.027	7671.52
650.22	7683.81
650.413	7622.37
650.605	7524.07
650.798	7425.76
650.991	7364.32
651.183	7466.72
651.376	7337.7
651.568	7419.62
651.761	7333.61
651.954	7368.42
652.146	7245.54
652.339	7233.25
652.531	7071.47
652.724	7190.25
652.916	7085.8
653.109	6971.11
653.301	7069.42
653.494	6915.82
653.686	6967.02
653.879	6967.02
654.071	6881
654.263	6790.89
654.456	6885.1
654.648	6772.46
654.84	6602.48
655.033	6749.93
655.225	6643.44
655.417	6637.3
655.61	6541.04
655.802	6711.02
655.994	6489.84
656.186	6627.06
656.379	6538.99
656.571	6461.17
656.763	6422.26
656.955	6348.53
657.148	6201.08
657.34	6285.05
657.532	6295.29
657.724	6117.11
657.916	6332.15
658.108	6070.01
658.3	6008.57
658.492	6057.72
658.684	6082.3
658.876	6186.74
659.068	5998.33
659.26	6149.88
659.452	5963.51
659.644	6119.16
659.836	5842.68
660.028	5873.4
660.22	5949.18
660.412	5758.72
660.604	5570.3
660.796	5748.48
660.988	5875.45
661.18	5742.33
661.372	5637.89
661.563	5721.85
661.755	5750.53
661.947	5625.6
662.139	5539.58
662.331	5619.46
662.522	5472
662.714	5545.73
662.906	5553.92
663.097	5418.75
663.289	5441.28
663.481	5326.6
663.673	5373.7
663.864	5189.38
664.056	5248.77
664.247	5189.38
664.439	5218.05
664.631	5355.27
664.822	5236.49
665.014	5097.22
665.205	5064.46
665.397	4998.92
665.588	5195.53
665.78	5115.66
665.971	5177.09
666.163	4882.19
666.354	4998.92
666.546	4857.61
666.737	4824.84
666.929	4876.04
667.12	4771.6
667.311	4790.03
667.503	4628.24
667.694	4818.7
667.885	4857.61
668.077	4900.62
668.268	4648.72
668.459	4718.35
668.651	4738.83
668.842	4716.3
669.033	4605.71
669.224	4691.73
669.416	4779.79
669.607	4554.51
669.798	4480.78
669.989	4480.78
670.18	4622.09
670.371	4386.58
670.563	4458.26
670.754	4556.56
670.945	4464.4
671.136	4562.7
671.327	4392.72
671.518	4308.76
671.709	4351.76
671.9	4560.66
672.091	4392.72
672.282	4366.1
672.473	4302.61
672.664	4333.33
672.855	4204.31
673.046	4384.53
673.237	4202.26
673.428	4241.17
673.619	4183.83
673.809	4235.03
674	4212.5
674.191	4228.88
674.382	4263.7
674.573	4306.71
674.764	4138.77
674.954	4138.77
675.145	4046.62
675.336	4183.83
675.527	4095.77
675.717	4169.49
675.908	4048.66
676.099	4118.29
676.289	4046.62
676.48	3974.94
676.671	4001.56
676.861	4024.09
677.052	4003.61
677.243	3751.71
677.433	3927.83
677.624	3862.3
677.814	4056.86
678.005	4005.66
678.195	4077.34
678.386	3866.39
678.576	3870.49
678.767	3888.92
678.957	3983.13
679.148	3839.77
679.338	3862.3
679.529	3792.67
679.719	3852.06
679.909	3751.71
680.1	3833.63
680.29	3727.13
680.481	3823.39
680.671	3852.06
680.861	3778.33
681.052	3745.56
681.242	3766.04
681.432	3702.56
681.622	3825.43
681.813	3649.31
682.003	3735.32
682.193	3665.69
682.383	3856.15
682.573	3776.28
682.764	3655.45
682.954	3651.36
683.144	3622.69
683.334	3680.03
683.524	3624.73
683.714	3606.3
683.904	3622.69
684.094	3737.37
684.284	3688.22
684.474	3583.77
684.664	3501.86
684.854	3608.35
685.044	3579.68
685.234	3583.77
685.424	3585.82
685.614	3473.18
685.804	3489.57
685.994	3342.11
686.184	3514.14
686.374	3491.62
686.564	3450.66
686.753	3481.38
686.943	3499.81
687.133	3501.86
687.323	3315.49
687.513	3327.78
687.702	3424.03
687.892	3342.11
688.082	3307.3
688.272	3344.16
688.461	3391.27
688.651	3311.39
688.841	3387.17
689.03	3305.25
689.22	3276.58
689.41	3221.28
689.599	3270.44
689.789	3186.47
689.979	3239.72
690.168	3159.85
690.358	3258.15
690.547	3079.97
690.737	3213.09
690.926	3082.02
691.116	3120.93
691.305	3219.24
691.495	3090.21
691.684	2977.58
691.874	3067.69
692.063	2983.72
692.252	3106.6
692.442	3125.03
692.631	3030.82
692.82	3131.17
693.01	2920.23
693.199	3133.22
693.388	2897.71
693.578	2985.77
693.767	3055.4
693.956	2852.65
694.146	3055.4
694.335	2877.23
694.524	3073.83
694.713	2973.48
694.902	2934.57
695.092	2869.03
695.281	2993.96
695.47	2891.56
695.659	2916.14
695.848	2883.37
696.037	2869.03
696.226	2920.23
696.415	2875.18
696.604	2901.8
696.793	2981.67
696.982	2926.38
697.171	2891.56
697.36	2909.99
697.549	2750.25
697.738	2723.63
697.927	2793.26
698.116	2641.71
698.305	2838.31
698.494	2821.93
698.683	2805.55
698.872	2928.42
699.061	2801.45
699.25	2744.11
699.438	2762.54
699.627	2873.13
699.816	2760.49
700.005	2787.11
700.193	2766.64
700.382	2731.82
700.571	2770.73
700.76	2703.15
700.948	2801.45
701.137	2719.53
701.326	2809.64
701.514	2690.86
701.703	2803.5
701.892	2746.16
702.08	2713.39
702.269	2639.66
702.457	2713.39
702.646	2731.82
702.834	2596.65
703.023	2555.69
703.212	2754.35
703.4	2729.77
703.589	2744.11
703.777	2748.2
703.965	2563.89
704.154	2711.34
704.342	2752.3
704.531	2547.5
704.719	2514.73
704.907	2733.87
705.096	2645.8
705.284	2555.69
705.472	2678.57
705.661	2619.18
705.849	2668.33
706.037	2613.04
706.226	2606.89
706.414	2615.09
706.602	2580.27
706.79	2600.75
706.979	2567.98
707.167	2658.09
707.355	2547.5
707.543	2592.56
707.731	2621.23
707.919	2633.52
708.107	2508.59
708.296	2486.06
708.484	2486.06
708.672	2516.78
708.86	2529.07
709.048	2486.06
709.236	2588.46
709.424	2641.71
709.612	2516.78
709.8	2498.35
709.988	2524.97
710.176	2563.89
710.364	2457.39
710.551	2385.71
710.739	2588.46
710.927	2549.55
711.115	2539.31
711.303	2598.7
711.491	2584.37
711.679	2359.09
711.866	2379.57
712.054	2475.82
712.242	2391.86
712.43	2506.54
712.617	2424.62
712.805	2502.45
712.993	2473.78
713.181	2340.66
713.368	2457.39
713.556	2436.91
713.744	2473.78
713.931	2400.05
714.119	2457.39
714.306	2365.23
714.494	2383.66
714.682	2451.25
714.869	2326.32
715.057	2438.96
715.244	2268.98
715.432	2416.43
715.619	2400.05
715.807	2404.14
715.994	2395.95
716.182	2398
716.369	2395.95
716.556	2365.23
716.744	2320.18
716.931	2318.13
717.119	2416.43
717.306	2199.35
717.493	2430.77
717.681	2297.65
717.868	2256.69
718.055	2377.52
718.242	2273.07
718.43	2393.9
718.617	2250.55
718.804	2271.03
718.991	2244.4
719.179	2375.47
719.366	2277.17
719.553	2311.99
719.74	2185.01
719.927	2346.8
720.114	2262.83
720.301	2293.55
720.488	2178.87
720.676	2277.17
720.863	2207.54
721.05	2305.84
721.237	2129.72
721.424	2271.03
721.611	2185.01
721.798	2205.49
721.985	2170.68
722.172	2260.79
722.358	2180.92
722.545	2121.52
722.732	2236.21
722.919	2246.45
723.106	2256.69
723.293	2180.92
723.48	2187.06
723.667	2129.72
723.853	2228.02
724.04	2185.01
724.227	2258.74
724.414	2162.48
724.6	2197.3
724.787	2189.11
724.974	2209.59
725.161	2309.94
725.347	2033.46
725.534	2221.88
725.72	2213.68
725.907	2105.14
726.094	2111.29
726.28	2139.96
726.467	2228.02
726.653	2105.14
726.84	2146.1
727.027	2162.48
727.213	2080.57
727.4	2035.51
727.586	2094.9
727.773	2174.77
727.959	2090.81
728.145	2154.29
728.332	2195.25
728.518	2199.35
728.705	2099
728.891	2168.63
729.077	2000.69
729.264	2049.85
729.45	2160.44
729.636	2193.2
729.823	2105.14
730.009	2064.18
730.195	2137.91
730.382	1986.36
730.568	1990.45
730.754	2125.62
730.94	2105.14
731.126	2096.95
731.313	2156.34
731.499	2041.65
731.685	2101.05
731.871	2002.74
732.057	2150.2
732.243	2019.13
732.429	2037.56
732.615	2174.77
732.801	2055.99
732.987	1920.82
733.173	2039.61
733.359	1982.26
733.545	1965.88
733.731	2010.93
733.917	2055.99
734.103	2015.03
734.289	1976.12
734.475	2010.93
734.661	2027.32
734.847	2058.04
735.033	2039.61
735.219	2029.37
735.404	1994.55
735.59	2019.13
735.776	1933.11
735.962	1957.69
736.148	2031.41
736.333	1888.06
736.519	1890.1
736.705	1867.58
736.89	1896.25
737.076	1898.3
737.262	1926.97
737.447	1869.62
737.633	1908.54
737.819	1982.26
738.004	1861.43
738.19	1853.24
738.375	1900.34
738.561	1953.59
738.747	1945.4
738.932	1945.4
739.118	1857.34
739.303	1908.54
739.489	1773.37
739.674	1898.3
739.859	1826.62
740.045	1896.25
740.23	1812.28
740.416	1763.13
740.601	1836.86
740.786	1767.23
740.972	1736.51
741.157	1773.37
741.342	1693.5
741.528	1767.23
741.713	1845.05
741.898	1845.05
742.084	1775.42
742.269	1775.42
742.454	1818.43
742.639	1744.7
742.824	1783.61
743.01	1720.12
743.195	1869.62
743.38	1752.89
743.565	1752.89
743.75	1795.9
743.935	1589.05
744.12	1718.08
744.305	1625.92
744.49	1681.21
744.675	1595.2
744.86	1580.86
745.045	1611.58
745.23	1666.88
745.415	1556.29
745.6	1640.25
745.785	1623.87
745.97	1675.07
746.155	1560.38
746.34	1564.48
746.525	1589.05
746.71	1607.48
746.895	1539.9
747.079	1490.75
747.264	1500.99
747.449	1541.95
747.634	1560.38
747.819	1521.47
748.003	1498.94
748.188	1466.17
748.373	1417.02
748.557	1556.29
748.742	1548.09
748.927	1492.8
749.111	1498.94
749.296	1584.96
749.481	1457.98
749.665	1404.74
749.85	1392.45
750.034	1427.26
750.219	1392.45
750.404	1359.68
750.588	1406.78
750.773	1261.38
750.957	1283.91
751.141	1273.67
751.326	1339.2
751.51	1265.47
751.695	1349.44
751.879	1247.04
752.064	1367.87
752.248	1343.3
752.432	1410.88
752.617	1308.48
752.801	1292.1
752.985	1273.67
753.17	1294.15
753.354	1242.95
753.538	1156.93
753.722	1130.31
753.907	1269.57
754.091	1175.36
754.275	1171.27
754.459	1175.36
754.643	1152.84
754.828	1120.07
755.012	1187.65
755.196	1122.12
755.38	1189.7
755.564	1195.84
755.748	1087.3
755.932	1113.92
756.116	1081.16
756.3	1146.69
756.484	1130.31
756.668	1105.73
756.852	1081.16
757.036	1105.73
757.22	1126.21
757.404	1040.2
757.588	1036.1
757.772	1017.67
757.956	1093.44
758.14	1077.06
758.323	925.51
758.507	892.74
758.691	943.94
758.875	999.24
759.059	1015.62
759.242	952.13
759.426	991.05
759.61	941.89
759.794	1027.91
759.977	991.05
760.161	1027.91
760.345	950.09
760.528	993.09
760.712	1003.33
760.895	984.9
761.079	892.74
761.263	933.7
761.446	776.01
761.63	911.18
761.813	941.89
761.997	976.71
762.18	857.93
762.364	812.87
762.547	950.09
762.731	868.17
762.914	864.07
763.098	864.07
763.281	884.55
763.464	821.06
763.648	874.31
763.831	859.98
764.015	849.74
764.198	943.94
764.381	821.06
764.564	802.63
764.748	862.02
764.931	769.87
765.114	794.44
765.297	859.98
765.481	862.02
765.664	843.59
765.847	821.06
766.03	870.22
766.213	788.3
766.397	810.82
766.58	679.75
766.763	845.64
766.946	837.45
767.129	710.47
767.312	810.82
767.495	825.16
767.678	733
767.861	722.76
768.044	839.5
768.227	771.91
768.41	749.39
768.593	755.53
768.776	798.54
768.959	718.67
769.142	804.68
769.324	702.28
769.507	708.43
769.69	720.71
769.873	704.33
770.056	726.86
770.239	730.95
770.421	745.29
770.604	679.75
770.787	622.41
770.97	696.14
771.152	749.39
771.335	663.37
771.518	614.22
771.7	716.62
771.883	677.71
772.066	663.37
772.248	655.18
772.431	728.91
772.613	630.6
772.796	667.47
772.978	663.37
773.161	620.36
773.343	706.38
773.526	620.36
773.708	673.61
773.891	591.69
774.073	689.99
774.256	542.54
774.438	634.7
774.621	589.64
774.803	589.64
774.985	597.84
775.168	679.75
775.35	583.5
775.532	626.51
775.715	540.49
775.897	632.65
776.079	657.23
776.261	626.51
776.444	659.28
776.626	548.68
776.808	501.58
776.99	589.64
777.173	560.97
777.355	509.77
777.537	575.31
777.719	616.27
777.901	550.73
778.083	526.16
778.265	571.21
778.447	608.08
778.629	495.44
778.811	493.39
778.993	565.07
779.175	565.07
779.357	499.53
779.539	534.35
779.721	540.49
779.903	538.45
780.085	468.81
780.267	507.73
780.449	458.57
780.631	565.07
780.812	401.23
780.994	474.96
781.176	458.57
781.358	520.01
781.54	454.48
781.721	507.73
781.903	427.85
782.085	458.57
782.267	499.53
782.448	405.33
782.63	479.05
782.812	452.43
782.993	503.63
783.175	466.77
783.357	466.77
783.538	468.81
783.72	450.38
783.901	450.38
784.083	466.77
784.264	483.15
784.446	380.75
784.627	368.46
784.809	460.62
784.99	393.04
785.172	343.89
785.353	450.38
785.535	395.09
785.716	421.71
785.897	378.7
786.079	290.64
786.26	382.8
786.441	335.7
786.623	294.74
786.804	339.79
786.985	372.56
787.167	327.5
787.348	325.46
787.529	335.7
787.71	421.71
787.891	266.07
788.073	319.31
788.254	237.39
788.435	368.46
788.616	352.08
788.797	270.16
788.978	309.07
789.159	331.6
789.34	311.12
789.522	356.18
789.703	341.84
789.884	247.63
790.065	302.93
790.246	331.6
790.427	360.27
790.607	317.26
790.788	315.22
790.969	292.69
791.15	243.54
791.331	268.11
791.512	253.78
791.693	345.94
791.874	257.87
792.054	302.93
792.235	221.01
792.416	319.31
792.597	302.93
792.778	311.12
792.958	384.85
793.139	231.25
793.32	302.93
793.5	126.8
793.681	360.27
793.862	255.83
794.042	292.69
794.223	294.74
794.404	231.25
794.584	286.54
794.765	257.87
794.945	253.78
795.126	180.05
795.306	261.97
795.487	264.02
795.667	237.39
795.848	284.5
796.028	249.68
796.209	171.86
796.389	288.59
796.57	188.24
796.75	274.26
796.93	253.78
797.111	227.15
797.291	216.91
797.471	214.87
797.652	196.43
797.832	272.21
798.012	302.93
798.192	188.24
798.373	178
798.553	266.07
798.733	180.05
798.913	206.67
799.093	132.95
799.274	218.96
799.454	221.01
799.634	327.5
799.814	270.16
799.994	210.77
800.174	221.01
800.354	184.15
800.534	171.86
800.714	180.05
800.894	171.86
801.074	163.67
801.254	151.38
801.434	235.35
801.614	159.57
801.794	221.01
801.974	712.52
802.154	243.54
802.334	212.82
802.514	143.19
802.693	212.82
802.873	135
803.053	188.24
803.233	143.19
803.413	171.86
803.592	130.9
803.772	171.86
803.952	171.86
804.131	173.91
804.311	270.16
804.491	253.78
804.67	182.1
804.85	188.24
805.03	218.96
805.209	214.87
805.389	173.91
805.568	218.96
805.748	65.36
805.928	163.67
806.107	130.9
806.287	180.05
806.466	200.53
806.646	229.2
806.825	65.36
807.004	132.95
807.184	163.67
807.363	188.24
807.543	198.48
807.722	130.9
807.901	157.52
808.081	145.24
808.26	89.94
808.439	141.14
808.619	114.52
808.798	108.37
808.977	65.36
809.156	210.77
809.336	98.13
809.515	196.43
809.694	167.76
809.873	190.29
810.052	130.9
810.231	227.15
810.411	186.19
810.59	200.53
810.769	98.13
810.948	147.28
811.127	79.7
811.306	175.95
811.485	67.41
811.664	173.91
811.843	81.75
812.022	169.81
812.201	188.24
812.38	118.61
812.559	91.99
812.737	65.36
812.916	137.04
813.095	83.8
813.274	145.24
813.453	94.04
813.632	147.28
813.811	126.8
813.989	124.76
814.168	114.52
814.347	143.19
814.526	122.71
814.704	147.28
814.883	122.71
815.062	69.46
815.24	167.76
815.419	87.89
815.598	102.23
815.776	126.8
815.955	71.51
816.133	75.6
816.312	124.76
816.49	180.05
816.669	94.04
816.847	94.04
817.026	98.13
817.204	42.84
817.383	98.13
817.561	157.52
817.74	147.28
817.918	147.28
818.097	48.98
818.275	108.37
818.453	106.32
818.632	114.52
818.81	118.61
818.988	12.12
819.167	81.75
819.345	147.28
819.523	59.22
819.701	149.33
819.879	98.13
820.058	81.75
820.236	65.36
820.414	46.93
820.592	73.56
820.77	126.8
820.948	61.27
821.127	3.93
821.305	106.32
821.483	-53.42
821.661	139.09
821.839	167.76
822.017	135
822.195	65.36
822.373	1.88
822.551	106.32
822.729	155.47
822.907	100.18
823.085	73.56
823.262	114.52
823.44	130.9
823.618	116.56
823.796	108.37
823.974	57.17
824.152	94.04
824.329	87.89
824.507	132.95
824.685	83.8
824.863	73.56
825.04	36.69
825.218	91.99
825.396	128.85
825.574	71.51
825.751	135
825.929	159.57
826.107	73.56
826.284	102.23
826.462	130.9
826.639	34.64
826.817	59.22
826.994	81.75
827.172	65.36
827.349	149.33
827.527	73.56
827.704	89.94
827.882	73.56
828.059	61.27
828.237	18.26
828.414	59.22
828.591	44.88
828.769	89.94
828.946	36.69
829.124	132.95
829.301	65.36
829.478	44.88
829.655	48.98
829.833	118.61
830.01	75.6
830.187	53.08
830.364	63.32
830.542	132.95
830.719	38.74
830.896	69.46
831.073	59.22
831.25	83.8
831.427	65.36
831.604	44.88
831.782	67.41
831.959	53.08
832.136	94.04
832.313	124.76
832.49	102.23
832.667	59.22
832.844	118.61
833.021	83.8
833.198	69.46
833.374	147.28
833.551	51.03
833.728	3.93
833.905	75.6
834.082	96.08
834.259	63.32
834.436	114.52
834.612	28.5
834.789	91.99
834.966	147.28
835.143	51.03
835.319	59.22
835.496	34.64
835.673	48.98
835.85	30.55
836.026	40.79
836.203	161.62
836.38	32.6
836.556	-39.08
836.733	28.5
836.909	69.46
837.086	73.56
837.262	65.36
837.439	83.8
837.616	10.07
837.792	26.45
837.968	3.93
838.145	65.36
838.321	24.4
838.498	10.07
838.674	114.52
838.851	34.64
839.027	32.6
839.203	34.64
839.38	83.8
839.556	42.84
839.732	100.18
839.909	5.97
840.085	67.41
840.261	46.93
840.437	57.17
840.614	-34.99
840.79	12.12
840.966	40.79
841.142	83.8
841.318	75.6
841.494	81.75
841.671	94.04
841.847	28.5
842.023	-28.84
842.199	94.04
842.375	28.5
842.551	3.93
842.727	20.31
842.903	139.09
843.079	-28.84
843.255	1.88
843.431	8.02
843.607	69.46
843.783	16.21
843.959	-32.94
844.134	24.4
844.31	77.65
844.486	46.93
844.662	-0.17
844.838	81.75
845.013	75.6
845.189	-4.27
845.365	73.56
845.541	-0.17
845.716	79.7
845.892	24.4
846.068	40.79
846.244	-14.51
846.419	83.8
846.595	57.17
846.77	-16.55
846.946	-12.46
847.122	89.94
847.297	-12.46
847.473	94.04
847.648	14.17
847.824	10.07
847.999	14.17
848.175	-4.27
848.35	44.88
848.526	40.79
848.701	30.55
848.876	-37.03
849.052	83.8
849.227	-14.51
849.403	98.13
849.578	8.02
849.753	1.88
849.929	8.02
850.104	40.79
850.279	36.69
850.454	28.5
850.63	32.6
850.805	77.65
850.98	34.64
851.155	24.4
851.33	18.26
851.505	-24.75
851.681	-24.75
851.856	44.88
852.031	34.64
852.206	-2.22
852.381	-55.47
852.556	-6.31
852.731	16.21
852.906	73.56
853.081	65.36
853.256	57.17
853.431	10.07
853.606	-65.71
853.781	65.36
853.956	-20.65
854.131	18.26
854.305	14.17
854.48	-6.31
854.655	-10.41
854.83	-0.17
855.005	-24.75
855.18	-20.65
855.354	-8.36
855.529	16.21
855.704	36.69
855.879	40.79
856.053	8.02
856.228	-16.55
856.403	-61.61
856.577	8.02
856.752	-4.27
856.926	20.31
857.101	53.08
857.276	-16.55
857.45	59.22
857.625	85.84
857.799	-28.84
857.974	20.31
858.148	-43.18
858.323	122.71
858.497	77.65
858.672	10.07
858.846	-57.51
859.02	22.36
859.195	8.02
859.369	75.6
859.543	73.56
859.718	75.6
859.892	71.51
860.066	-14.51
860.241	55.12
860.415	22.36
860.589	65.36
860.763	-20.65
860.938	14.17
861.112	38.74
861.286	40.79
861.46	-65.71
861.634	22.36
861.808	98.13
861.982	5.97
862.157	-16.55
862.331	40.79
862.505	-20.65
862.679	24.4
862.853	-18.6
863.027	3.93
863.201	-24.75
863.375	-39.08
863.549	8.02
863.722	36.69
863.896	98.13
864.07	-0.17
864.244	73.56
864.418	130.9
864.592	42.84
864.766	12.12
864.939	48.98
865.113	-41.13
865.287	-28.84
865.461	-20.65
865.634	69.46
865.808	32.6
865.982	-57.51
866.156	-0.17
866.329	-20.65
866.503	16.21
866.676	32.6
866.85	1.88
867.024	16.21
867.197	8.02
867.371	81.75
867.544	1.88
867.718	22.36
867.891	44.88
868.065	12.12
868.238	83.8
868.412	59.22
868.585	-8.36
868.759	67.41
868.932	51.03
869.105	-24.75
869.279	3.93
869.452	-2.22
869.625	46.93
869.799	-6.31
869.972	-18.6
870.145	3.93
870.319	26.45
870.492	12.12
870.665	10.07
870.838	24.4
871.011	-45.23
871.185	40.79
871.358	14.17
871.531	59.22
871.704	8.02
871.877	55.12
872.05	-82.09
872.223	44.88
872.396	-32.94
872.569	48.98
872.742	-22.7
872.915	8.02
873.088	-75.95
873.261	42.84
873.434	-30.89
873.607	16.21
873.78	-26.79
873.953	-30.89
874.126	32.6
874.299	-22.7
874.471	10.07
874.644	28.5
874.817	75.6
874.99	65.36
875.163	-0.17
875.335	-4.27
875.508	20.31
875.681	-12.46
875.853	32.6
876.026	-32.94
876.199	-20.65
876.371	-12.46
876.544	77.65
876.717	85.84
876.889	-24.75
877.062	10.07
877.234	-47.27
877.407	3.93
877.579	48.98
877.752	8.02
877.924	40.79
878.097	-41.13
878.269	5.97
878.442	38.74
878.614	18.26
878.786	55.12
878.959	42.84
879.131	46.93
879.303	32.6
879.476	-10.41
879.648	57.17
879.82	-0.17
879.993	-47.27
880.165	3.93
880.337	-24.75
880.509	-6.31
880.681	-57.51
880.854	36.69
881.026	5.97
881.198	32.6
881.37	57.17
881.542	-10.41
881.714	12.12
881.886	8.02
882.058	10.07
882.23	-59.56
882.402	-47.27
882.574	8.02
882.746	12.12
882.918	42.84
883.09	73.56
883.262	-0.17
883.434	65.36
883.606	-6.31
883.778	-55.47
883.95	94.04
884.122	-90.28
884.293	51.03
884.465	-49.32
884.637	32.6
884.809	-4.27
884.98	5.97
885.152	28.5
885.324	48.98
885.496	91.99
885.667	-6.31
885.839	20.31
886.011	48.98
886.182	16.21
886.354	34.64
886.525	-20.65
886.697	34.64
886.869	30.55
887.04	12.12
887.212	-37.03
887.383	69.46
887.555	-135.34
887.726	61.27
887.897	-2.22
888.069	-41.13
888.24	26.45
888.412	65.36
888.583	18.26
888.754	30.55
888.926	1.88
889.097	-12.46
889.268	-24.75
889.44	38.74
889.611	-24.75
889.782	14.17
889.953	-71.85
890.125	34.64
890.296	-80.04
890.467	59.22
890.638	-20.65
890.809	48.98
890.98	1.88
891.151	-16.55
891.323	-18.6
891.494	-20.65
891.665	-65.71
891.836	-4.27
892.007	-12.46
892.178	-16.55
892.349	8.02
892.52	-22.7
892.691	-37.03
892.862	57.17
893.032	-0.17
893.203	-67.75
893.374	-0.17
893.545	10.07
893.716	10.07
893.887	79.7
894.057	-32.94
894.228	-28.84
894.399	-0.17
894.57	34.64
894.74	-6.31
894.911	1.88
895.082	-57.51
895.253	-16.55
895.423	-45.23
895.594	26.45
895.764	-28.84
895.935	-8.36
896.106	-43.18
896.276	-34.99
896.447	44.88
896.617	-6.31
896.788	24.4
896.958	-53.42
897.129	24.4
897.299	83.8
897.47	-24.75
897.64	22.36
897.81	-34.99
897.981	-0.17
898.151	-12.46
898.322	-4.27
898.492	-6.31
898.662	65.36
898.832	8.02
899.003	-0.17
899.173	61.27
899.343	-14.51
899.513	5.97
