Data from USB4F104151__89__14-17-52-423.txt Node

Date: Thu Mar 13 14:17:52 EDT 2025
User: louis
Spectrometer: USB4F10415
Trigger mode: 4
Integration Time (sec): 2.000000E-2
Scans to average: 1
Electric dark correction enabled: true
Nonlinearity correction enabled: false
Boxcar width: 0
XAxis mode: Wavelengths
Number of Pixels in Spectrum: 3648
>>>>>Begin Spectral Data<<<<<
178.204	-167.25
178.424	-167.25
178.644	-167.25
178.864	-128.34
179.084	-87.38
179.304	-17.75
179.524	37.55
179.744	27.31
179.964	-30.04
180.184	-27.99
180.404	-15.7
180.624	6.83
180.844	-9.56
181.064	39.59
181.283	-21.85
181.503	15.02
181.723	-3.41
181.943	21.16
182.163	4.78
182.383	-13.65
182.602	27.31
182.822	68.27
183.042	47.79
183.262	4.78
183.482	35.5
183.701	43.69
183.921	-79.19
184.141	-9.56
184.361	-5.46
184.58	72.36
184.8	0.68
185.02	-13.65
185.239	39.59
185.459	-30.04
185.679	82.6
185.898	41.64
186.118	70.31
186.338	-13.65
186.557	27.31
186.777	-5.46
186.997	-38.23
187.216	15.02
187.436	76.46
187.655	43.69
187.875	68.27
188.095	-42.32
188.314	12.97
188.534	82.6
188.753	-32.08
188.973	39.59
189.192	10.92
189.412	4.78
189.631	27.31
189.851	-5.46
190.07	117.42
190.29	60.07
190.509	37.55
190.729	45.74
190.948	64.17
191.168	76.46
191.387	10.92
191.607	58.03
191.826	35.5
192.045	19.11
192.265	72.36
192.484	23.21
192.704	45.74
192.923	-30.04
193.142	152.23
193.362	35.5
193.581	60.07
193.8	133.8
194.02	76.46
194.239	21.16
194.458	39.59
194.678	19.11
194.897	-17.75
195.116	45.74
195.335	43.69
195.555	-19.8
195.774	70.31
195.993	51.88
196.212	-38.23
196.432	-7.51
196.651	43.69
196.87	78.51
197.089	90.79
197.308	21.16
197.528	-3.41
197.747	27.31
197.966	53.93
198.185	82.6
198.404	58.03
198.623	101.03
198.842	43.69
199.062	17.07
199.281	21.16
199.5	72.36
199.719	43.69
199.938	45.74
200.157	62.12
200.376	70.31
200.595	15.02
200.814	105.13
201.033	15.02
201.252	43.69
201.471	43.69
201.69	23.21
201.909	51.88
202.128	-32.08
202.347	21.16
202.566	62.12
202.785	29.35
203.004	-25.94
203.223	92.84
203.442	84.65
203.661	23.21
203.879	70.31
204.098	51.88
204.317	-42.32
204.536	68.27
204.755	29.35
204.974	39.59
205.193	80.55
205.411	19.11
205.63	-64.85
205.849	39.59
206.068	94.89
206.287	-30.04
206.505	101.03
206.724	23.21
206.943	6.83
207.162	-21.85
207.381	-13.65
207.599	-27.99
207.818	-27.99
208.037	21.16
208.255	-11.61
208.474	-21.85
208.693	27.31
208.911	-1.37
209.13	72.36
209.349	41.64
209.567	51.88
209.786	60.07
210.005	123.56
210.223	29.35
210.442	-13.65
210.661	58.03
210.879	-42.32
211.098	19.11
211.316	0.68
211.535	70.31
211.753	55.98
211.972	94.89
212.191	-11.61
212.409	51.88
212.628	101.03
212.846	12.97
213.065	-17.75
213.283	35.5
213.502	27.31
213.72	92.84
213.938	10.92
214.157	53.93
214.375	125.61
214.594	-25.94
214.812	6.83
215.031	101.03
215.249	-38.23
215.467	45.74
215.686	76.46
215.904	146.09
216.122	39.59
216.341	21.16
216.559	19.11
216.778	60.07
216.996	10.92
217.214	33.45
217.432	23.21
217.651	2.73
217.869	31.4
218.087	66.22
218.306	-5.46
218.524	29.35
218.742	60.07
218.96	64.17
219.179	17.07
219.397	51.88
219.615	60.07
219.833	37.55
220.051	2.73
220.27	78.51
220.488	68.27
220.706	31.4
220.924	60.07
221.142	27.31
221.36	19.11
221.578	60.07
221.796	-5.46
222.015	125.61
222.233	-21.85
222.451	103.08
222.669	51.88
222.887	76.46
223.105	-32.08
223.323	-9.56
223.541	-7.51
223.759	51.88
223.977	-1.37
224.195	10.92
224.413	-38.23
224.631	74.41
224.849	12.97
225.067	21.16
225.285	-71
225.503	62.12
225.721	-7.51
225.939	-30.04
226.157	72.36
226.375	68.27
226.592	37.55
226.81	0.68
227.028	72.36
227.246	80.55
227.464	23.21
227.682	43.69
227.9	21.16
228.117	15.02
228.335	29.35
228.553	72.36
228.771	43.69
228.989	10.92
229.206	31.4
229.424	-11.61
229.642	-5.46
229.86	8.87
230.077	12.97
230.295	27.31
230.513	53.93
230.731	19.11
230.948	31.4
231.166	86.7
231.384	17.07
231.601	-17.75
231.819	17.07
232.037	-1.37
232.254	-9.56
232.472	27.31
232.689	-9.56
232.907	62.12
233.125	117.42
233.342	-44.37
233.56	15.02
233.777	-13.65
233.995	-42.32
234.213	109.22
234.43	23.21
234.648	31.4
234.865	45.74
235.083	35.5
235.3	6.83
235.518	51.88
235.735	80.55
235.953	37.55
236.17	19.11
236.388	-13.65
236.605	12.97
236.822	23.21
237.04	64.17
237.257	2.73
237.475	43.69
237.692	78.51
237.909	-7.51
238.127	51.88
238.344	80.55
238.562	51.88
238.779	-66.9
238.996	27.31
239.214	25.26
239.431	60.07
239.648	-13.65
239.865	41.64
240.083	64.17
240.3	23.21
240.517	-34.13
240.735	68.27
240.952	4.78
241.169	15.02
241.386	86.7
241.603	-5.46
241.821	4.78
242.038	92.84
242.255	39.59
242.472	31.4
242.689	78.51
242.907	82.6
243.124	-40.28
243.341	-38.23
243.558	-15.7
243.775	-52.56
243.992	-36.18
244.209	43.69
244.426	2.73
244.643	60.07
244.86	8.87
245.078	101.03
245.295	68.27
245.512	86.7
245.729	15.02
245.946	45.74
246.163	-46.42
246.38	37.55
246.597	-21.85
246.814	-11.61
247.031	53.93
247.248	35.5
247.464	68.27
247.681	55.98
247.898	78.51
248.115	43.69
248.332	4.78
248.549	119.46
248.766	70.31
248.983	-27.99
249.2	31.4
249.417	68.27
249.633	98.99
249.85	94.89
250.067	19.11
250.284	35.5
250.501	35.5
250.717	84.65
250.934	-27.99
251.151	-13.65
251.368	96.94
251.585	6.83
251.801	12.97
252.018	-13.65
252.235	53.93
252.451	-52.56
252.668	6.83
252.885	68.27
253.102	15.02
253.318	21.16
253.535	-36.18
253.752	19.11
253.968	113.32
254.185	21.16
254.401	21.16
254.618	27.31
254.835	-11.61
255.051	82.6
255.268	-32.08
255.484	60.07
255.701	-5.46
255.917	15.02
256.134	53.93
256.351	53.93
256.567	43.69
256.784	-30.04
257	10.92
257.217	125.61
257.433	2.73
257.65	15.02
257.866	6.83
258.082	-9.56
258.299	12.97
258.515	64.17
258.732	-1.37
258.948	6.83
259.165	10.92
259.381	60.07
259.597	10.92
259.814	8.87
260.03	156.33
260.246	35.5
260.463	55.98
260.679	10.92
260.895	-3.41
261.112	27.31
261.328	23.21
261.544	39.59
261.761	90.79
261.977	60.07
262.193	-38.23
262.409	6.83
262.626	-9.56
262.842	144.04
263.058	-9.56
263.274	55.98
263.49	135.85
263.707	-9.56
263.923	31.4
264.139	4.78
264.355	43.69
264.571	84.65
264.787	53.93
265.004	19.11
265.22	53.93
265.436	80.55
265.652	70.31
265.868	66.22
266.084	15.02
266.3	94.89
266.516	-42.32
266.732	68.27
266.948	-21.85
267.164	19.11
267.38	27.31
267.596	74.41
267.812	84.65
268.028	2.73
268.244	15.02
268.46	60.07
268.676	-11.61
268.892	21.16
269.108	60.07
269.324	68.27
269.54	80.55
269.756	49.83
269.972	-21.85
270.188	43.69
270.403	68.27
270.619	51.88
270.835	51.88
271.051	21.16
271.267	-9.56
271.483	70.31
271.698	66.22
271.914	53.93
272.13	-9.56
272.346	27.31
272.562	-7.51
272.777	23.21
272.993	53.93
273.209	45.74
273.425	-15.7
273.64	84.65
273.856	60.07
274.072	45.74
274.287	47.79
274.503	68.27
274.719	-5.46
274.934	47.79
275.15	4.78
275.366	96.94
275.581	39.59
275.797	-9.56
276.012	-11.61
276.228	4.78
276.444	23.21
276.659	-3.41
276.875	35.5
277.09	-23.89
277.306	37.55
277.521	-25.94
277.737	-11.61
277.952	43.69
278.168	37.55
278.383	12.97
278.599	4.78
278.814	55.98
279.03	-30.04
279.245	10.92
279.461	6.83
279.676	27.31
279.892	10.92
280.107	-25.94
280.322	-1.37
280.538	15.02
280.753	68.27
280.969	80.55
281.184	39.59
281.399	72.36
281.615	76.46
281.83	43.69
282.045	68.27
282.26	47.79
282.476	-5.46
282.691	76.46
282.906	158.38
283.122	-15.7
283.337	19.11
283.552	86.7
283.767	21.16
283.983	90.79
284.198	35.5
284.413	62.12
284.628	-36.18
284.843	62.12
285.058	27.31
285.274	-7.51
285.489	-17.75
285.704	70.31
285.919	23.21
286.134	76.46
286.349	-17.75
286.564	35.5
286.779	125.61
286.995	121.51
287.21	4.78
287.425	10.92
287.64	37.55
287.855	72.36
288.07	88.75
288.285	51.88
288.5	-5.46
288.715	-13.65
288.93	37.55
289.145	45.74
289.36	47.79
289.575	51.88
289.79	12.97
290.004	80.55
290.219	84.65
290.434	0.68
290.649	35.5
290.864	76.46
291.079	29.35
291.294	113.32
291.509	60.07
291.724	27.31
291.938	31.4
292.153	10.92
292.368	6.83
292.583	76.46
292.798	103.08
293.012	2.73
293.227	2.73
293.442	35.5
293.657	107.18
293.871	27.31
294.086	35.5
294.301	105.13
294.516	113.32
294.73	82.6
294.945	47.79
295.16	21.16
295.374	47.79
295.589	31.4
295.804	-50.52
296.018	2.73
296.233	51.88
296.447	45.74
296.662	35.5
296.877	60.07
297.091	101.03
297.306	17.07
297.52	35.5
297.735	31.4
297.949	0.68
298.164	-23.89
298.378	72.36
298.593	-5.46
298.807	-17.75
299.022	70.31
299.236	64.17
299.451	-1.37
299.665	117.42
299.88	12.97
300.094	82.6
300.309	53.93
300.523	-32.08
300.737	68.27
300.952	64.17
301.166	4.78
301.381	70.31
301.595	-17.75
301.809	23.21
302.024	133.8
302.238	-30.04
302.452	90.79
302.667	76.46
302.881	37.55
303.095	60.07
303.309	-19.8
303.524	15.02
303.738	25.26
303.952	8.87
304.166	76.46
304.381	72.36
304.595	129.7
304.809	94.89
305.023	45.74
305.237	31.4
305.452	27.31
305.666	-9.56
305.88	78.51
306.094	27.31
306.308	35.5
306.522	0.68
306.736	111.27
306.95	29.35
307.164	-17.75
307.379	23.21
307.593	127.66
307.807	60.07
308.021	19.11
308.235	101.03
308.449	17.07
308.663	43.69
308.877	170.66
309.091	84.65
309.305	39.59
309.519	92.84
309.733	64.17
309.947	-48.47
310.161	84.65
310.374	62.12
310.588	41.64
310.802	72.36
311.016	39.59
311.23	29.35
311.444	-50.52
311.658	-13.65
311.872	119.46
312.085	47.79
312.299	60.07
312.513	103.08
312.727	10.92
312.941	-11.61
313.154	43.69
313.368	27.31
313.582	92.84
313.796	27.31
314.009	-52.56
314.223	47.79
314.437	64.17
314.651	125.61
314.864	-30.04
315.078	51.88
315.292	15.02
315.505	39.59
315.719	92.84
315.933	31.4
316.146	10.92
316.36	-13.65
316.573	103.08
316.787	68.27
317.001	19.11
317.214	-9.56
317.428	27.31
317.641	-25.94
317.855	41.64
318.068	31.4
318.282	62.12
318.495	58.03
318.709	62.12
318.922	37.55
319.136	19.11
319.349	98.99
319.563	51.88
319.776	53.93
319.99	-23.89
320.203	-9.56
320.417	51.88
320.63	101.03
320.843	117.42
321.057	27.31
321.27	51.88
321.483	35.5
321.697	41.64
321.91	31.4
322.124	27.31
322.337	60.07
322.55	37.55
322.763	12.97
322.977	78.51
323.19	2.73
323.403	-7.51
323.617	27.31
323.83	6.83
324.043	29.35
324.256	37.55
324.469	-7.51
324.683	76.46
324.896	4.78
325.109	-19.8
325.322	-54.61
325.535	35.5
325.748	0.68
325.962	51.88
326.175	6.83
326.388	4.78
326.601	21.16
326.814	43.69
327.027	-11.61
327.24	70.31
327.453	12.97
327.666	31.4
327.879	92.84
328.092	47.79
328.305	47.79
328.518	-5.46
328.731	12.97
328.944	37.55
329.157	60.07
329.37	43.69
329.583	21.16
329.796	103.08
330.009	2.73
330.222	53.93
330.435	117.42
330.648	76.46
330.861	58.03
331.073	53.93
331.286	-15.7
331.499	51.88
331.712	-3.41
331.925	39.59
332.138	21.16
332.35	78.51
332.563	-50.52
332.776	31.4
332.989	35.5
333.202	92.84
333.414	43.69
333.627	-3.41
333.84	-30.04
334.053	-25.94
334.265	15.02
334.478	-9.56
334.691	-1.37
334.903	25.26
335.116	12.97
335.329	64.17
335.541	39.59
335.754	92.84
335.966	-1.37
336.179	49.83
336.392	12.97
336.604	66.22
336.817	117.42
337.029	94.89
337.242	19.11
337.454	35.5
337.667	-1.37
337.88	33.45
338.092	-13.65
338.305	58.03
338.517	43.69
338.729	60.07
338.942	10.92
339.154	19.11
339.367	19.11
339.579	0.68
339.792	-17.75
340.004	53.93
340.217	27.31
340.429	37.55
340.641	6.83
340.854	27.31
341.066	-54.61
341.278	78.51
341.491	105.13
341.703	12.97
341.915	82.6
342.128	31.4
342.34	76.46
342.552	10.92
342.764	41.64
342.977	51.88
343.189	55.98
343.401	-11.61
343.613	-46.42
343.826	96.94
344.038	51.88
344.25	96.94
344.462	-25.94
344.674	84.65
344.886	23.21
345.099	19.11
345.311	21.16
345.523	43.69
345.735	-13.65
345.947	98.99
346.159	39.59
346.371	72.36
346.583	21.16
346.795	125.61
347.007	19.11
347.219	31.4
347.431	33.45
347.643	60.07
347.855	-34.13
348.067	53.93
348.279	-25.94
348.491	137.9
348.703	21.16
348.915	55.98
349.127	6.83
349.339	12.97
349.551	23.21
349.763	45.74
349.975	19.11
350.187	33.45
350.399	109.22
350.61	70.31
350.822	-13.65
351.034	27.31
351.246	31.4
351.458	68.27
351.669	94.89
351.881	103.08
352.093	8.87
352.305	41.64
352.517	53.93
352.728	53.93
352.94	107.18
353.152	53.93
353.363	-30.04
353.575	68.27
353.787	-3.41
353.999	37.55
354.21	111.27
354.422	55.98
354.633	55.98
354.845	51.88
355.057	35.5
355.268	29.35
355.48	60.07
355.692	-32.08
355.903	-34.13
356.115	-11.61
356.326	-15.7
356.538	72.36
356.749	31.4
356.961	10.92
357.172	70.31
357.384	19.11
357.595	78.51
357.807	51.88
358.018	10.92
358.23	15.02
358.441	68.27
358.653	70.31
358.864	6.83
359.075	-19.8
359.287	39.59
359.498	-17.75
359.709	60.07
359.921	-46.42
360.132	-25.94
360.344	51.88
360.555	27.31
360.766	2.73
360.977	37.55
361.189	64.17
361.4	-40.28
361.611	-1.37
361.823	33.45
362.034	-5.46
362.245	43.69
362.456	64.17
362.667	135.85
362.879	-17.75
363.09	62.12
363.301	39.59
363.512	27.31
363.723	76.46
363.935	25.26
364.146	37.55
364.357	-23.89
364.568	-5.46
364.779	6.83
364.99	60.07
365.201	86.7
365.412	-19.8
365.623	-13.65
365.834	-25.94
366.045	-13.65
366.256	6.83
366.467	37.55
366.678	21.16
366.889	-17.75
367.1	101.03
367.311	0.68
367.522	35.5
367.733	76.46
367.944	25.26
368.155	15.02
368.366	101.03
368.577	60.07
368.788	94.89
368.999	68.27
369.209	62.12
369.42	41.64
369.631	72.36
369.842	45.74
370.053	150.18
370.264	96.94
370.474	4.78
370.685	19.11
370.896	103.08
371.107	72.36
371.317	27.31
371.528	21.16
371.739	-11.61
371.95	76.46
372.16	6.83
372.371	-1.37
372.582	12.97
372.792	62.12
373.003	35.5
373.214	78.51
373.424	51.88
373.635	43.69
373.846	74.41
374.056	47.79
374.267	101.03
374.477	-19.8
374.688	41.64
374.898	60.07
375.109	66.22
375.319	55.98
375.53	19.11
375.74	6.83
375.951	60.07
376.161	-46.42
376.372	70.31
376.582	0.68
376.793	137.9
377.003	0.68
377.214	45.74
377.424	29.35
377.635	80.55
377.845	78.51
378.055	74.41
378.266	2.73
378.476	119.46
378.686	21.16
378.897	53.93
379.107	90.79
379.317	-34.13
379.528	2.73
379.738	51.88
379.948	6.83
380.158	166.57
380.369	6.83
380.579	49.83
380.789	17.07
380.999	86.7
381.21	111.27
381.42	78.51
381.63	-25.94
381.84	4.78
382.05	82.6
382.261	2.73
382.471	19.11
382.681	133.8
382.891	-13.65
383.101	68.27
383.311	19.11
383.521	-11.61
383.731	6.83
383.941	62.12
384.151	72.36
384.361	19.11
384.571	45.74
384.781	80.55
384.991	70.31
385.201	103.08
385.411	88.75
385.621	78.51
385.831	70.31
386.041	21.16
386.251	66.22
386.461	19.11
386.671	37.55
386.881	141.99
387.091	58.03
387.301	113.32
387.511	33.45
387.72	35.5
387.93	68.27
388.14	29.35
388.35	137.9
388.56	94.89
388.769	6.83
388.979	31.4
389.189	23.21
389.399	84.65
389.609	160.42
389.818	72.36
390.028	8.87
390.238	76.46
390.447	2.73
390.657	62.12
390.867	31.4
391.076	10.92
391.286	27.31
391.496	68.27
391.705	33.45
391.915	119.46
392.125	80.55
392.334	68.27
392.544	117.42
392.753	47.79
392.963	92.84
393.172	105.13
393.382	15.02
393.591	174.76
393.801	55.98
394.01	113.32
394.22	76.46
394.429	27.31
394.639	111.27
394.848	105.13
395.058	96.94
395.267	23.21
395.477	39.59
395.686	53.93
395.895	101.03
396.105	141.99
396.314	90.79
396.524	96.94
396.733	70.31
396.942	101.03
397.152	150.18
397.361	27.31
397.57	92.84
397.78	43.69
397.989	117.42
398.198	168.62
398.407	31.4
398.617	133.8
398.826	98.99
399.035	125.61
399.244	103.08
399.453	109.22
399.663	105.13
399.872	170.66
400.081	70.31
400.29	86.7
400.499	21.16
400.708	125.61
400.917	148.14
401.127	117.42
401.336	101.03
401.545	158.38
401.754	158.38
401.963	129.7
402.172	96.94
402.381	70.31
402.59	86.7
402.799	62.12
403.008	109.22
403.217	156.33
403.426	96.94
403.635	137.9
403.844	64.17
404.053	127.66
404.262	137.9
404.471	111.27
404.68	154.28
404.888	98.99
405.097	129.7
405.306	150.18
405.515	72.36
405.724	111.27
405.933	137.9
406.142	160.42
406.35	70.31
406.559	127.66
406.768	107.18
406.977	166.57
407.185	127.66
407.394	211.62
407.603	150.18
407.812	223.91
408.02	201.38
408.229	141.99
408.438	162.47
408.646	178.86
408.855	266.92
409.064	170.66
409.272	240.29
409.481	297.64
409.69	248.49
409.898	258.73
410.107	258.73
410.315	248.49
410.524	238.25
410.733	217.77
410.941	326.31
411.15	295.59
411.358	359.08
411.567	354.98
411.775	371.36
411.984	348.84
412.192	379.56
412.401	322.21
412.609	393.89
412.818	436.9
413.026	387.75
413.234	430.76
413.443	387.75
413.651	404.13
413.86	508.58
414.068	473.76
414.276	555.68
414.485	459.43
414.693	543.39
414.901	643.74
415.11	592.55
415.318	545.44
415.526	498.34
415.734	594.59
415.943	684.7
416.151	653.98
416.359	774.81
416.567	717.47
416.776	754.34
416.984	731.81
417.192	864.93
417.4	871.07
417.608	823.97
417.817	854.69
418.025	973.47
418.233	989.85
418.441	950.94
418.649	1077.91
418.857	1133.21
419.065	1067.67
419.273	1059.48
419.481	1198.74
419.689	1079.96
419.897	1176.22
420.105	1217.18
420.313	1358.49
420.521	1323.67
420.729	1280.66
420.937	1350.29
421.145	1389.21
421.353	1548.95
421.561	1579.67
421.769	1643.15
421.977	1620.63
422.185	1587.86
422.393	1815.18
422.601	1897.1
422.809	1786.51
423.017	1817.23
423.224	2069.13
423.432	1979.02
423.64	1995.4
423.848	2337.41
424.056	2185.87
424.263	2347.65
424.471	2394.76
424.679	2411.14
424.887	2405
425.094	2624.13
425.302	2560.64
425.51	2665.09
425.718	2751.1
425.925	2798.21
426.133	2839.17
426.341	3005.05
426.548	3177.08
426.756	3279.48
426.964	3316.34
427.171	3488.37
427.379	3453.56
427.586	3535.48
427.794	3705.46
428.001	3965.55
428.209	3885.68
428.417	3861.1
428.624	4289.13
428.832	4237.93
429.039	4215.4
429.247	4182.63
429.454	4770.4
429.662	4842.08
429.869	4584.04
430.076	4831.84
430.284	4747.87
430.491	4967.01
430.699	4977.25
430.906	5302.87
431.114	5360.22
431.321	5624.4
431.528	5694.04
431.736	6093.39
431.943	6267.47
432.15	6052.43
432.358	5993.04
432.565	6464.07
432.772	6443.59
432.979	6820.42
433.187	6982.21
433.394	6947.39
433.601	7533.11
433.808	7354.94
434.016	7389.75
434.223	7643.7
434.43	8194.61
434.637	7924.27
434.844	8399.4
435.052	8596.01
435.259	8581.67
435.466	8698.41
435.673	8700.45
435.88	9171.49
436.087	9673.24
436.294	9726.49
436.501	9517.59
436.708	9579.03
436.915	9875.99
437.122	10304.01
437.329	10387.98
437.537	10465.8
437.743	10844.68
437.95	10553.87
438.157	11538.94
438.364	11708.92
438.571	11723.26
438.778	11776.5
438.985	12868.07
439.192	12364.27
439.399	12972.52
439.606	12524.01
439.813	13148.64
440.02	14072.28
440.227	13504.99
440.433	13574.62
440.64	14113.24
440.847	13879.77
441.054	14313.94
441.261	15292.87
441.467	14850.5
441.674	15372.74
441.881	15974.84
442.088	15905.21
442.294	15747.51
442.501	16259.51
442.708	16533.93
442.914	16828.84
443.121	17889.69
443.328	17164.71
443.534	18526.61
443.741	18117.01
443.948	17791.39
444.154	19009.93
444.361	18631.05
444.568	19057.03
444.774	19091.85
444.981	19243.4
445.187	19929.47
445.394	20857.2
445.6	20457.84
445.807	22497.62
446.013	21213.54
446.22	21700.96
446.426	22514
446.633	23105.87
446.839	23652.67
447.046	22346.07
447.252	23748.93
447.459	23863.61
447.665	23798.08
447.871	24893.74
448.078	25477.41
448.284	24258.87
448.491	25151.79
448.697	26278.17
448.903	27171.08
449.11	26906.9
449.316	26771.73
449.522	26954
449.728	27824.39
449.935	27883.78
450.141	27736.32
450.347	28297.47
450.553	27547.91
450.76	27885.83
450.966	29038.83
451.172	28879.09
451.378	29622.5
451.584	28551.42
451.791	29386.99
451.997	29092.08
452.203	29776.1
452.409	29481.19
452.615	30011.62
452.821	28692.72
453.027	28436.73
453.233	29679.85
453.44	28573.94
453.646	29001.97
453.852	29219.05
454.058	29944.03
454.264	28809.46
454.47	29561.06
454.676	28918
454.882	29614.31
455.088	26966.29
455.294	27541.77
455.5	27963.65
455.705	28180.73
455.911	26831.12
456.117	26781.97
456.323	26274.07
456.529	24865.07
456.735	26079.52
456.941	25370.92
457.147	24899.89
457.352	24052.03
457.558	23857.47
457.764	23910.72
457.97	23568.71
458.176	23015.76
458.381	23234.89
458.587	22188.38
458.793	21860.7
458.999	20859.24
459.204	22415.7
459.41	21727.58
459.616	20414.84
459.821	20322.68
460.027	20498.8
460.233	19880.32
460.438	19343.75
460.644	19280.26
460.85	18192.79
461.055	17715.61
461.261	17944.98
461.466	16593.33
461.672	16251.31
461.878	17412.51
462.083	15917.5
462.289	15952.31
462.494	15790.52
462.7	14954.95
462.905	14629.32
463.111	14979.53
463.316	15006.15
463.522	14555.6
463.727	14815.69
463.932	14920.14
464.138	14561.74
464.343	14713.29
464.549	14330.32
464.754	14631.37
464.959	14766.54
465.165	14449.1
465.37	13963.73
465.575	13289.95
465.781	13871.57
465.986	14123.48
466.191	13455.84
466.397	13277.66
466.602	12577.26
466.807	13066.72
467.012	13242.85
467.218	13095.39
467.423	12976.61
467.628	13117.92
467.833	13642.2
468.038	13003.24
468.244	13025.76
468.449	13220.32
468.654	12579.31
468.859	12681.71
469.064	12866.02
469.269	12114.42
469.474	12458.48
469.679	12683.75
469.885	12067.31
470.09	12421.61
470.295	11997.68
470.5	12016.12
470.705	12018.16
470.91	11860.47
471.115	11639.29
471.32	11954.68
471.525	11885.05
471.73	11481.6
471.935	11377.15
472.139	10975.75
472.344	11262.46
472.549	11102.72
472.754	10793.48
472.959	10826.25
473.164	10488.33
473.369	10277.39
473.574	10859.01
473.778	10770.95
473.983	10682.89
474.188	10846.73
474.393	10072.59
474.598	10109.46
474.802	9980.43
475.007	10058.26
475.212	10039.83
475.417	9570.84
475.621	9734.68
475.826	9794.07
476.031	9689.62
476.235	9423.39
476.44	9488.92
476.645	9337.37
476.849	9341.47
477.054	9384.48
477.259	8866.34
477.463	8729.13
477.668	8761.89
477.872	9030.18
478.077	8809
478.282	8608.3
478.486	8530.47
478.691	8512.04
478.895	8546.86
479.1	8518.18
479.304	8407.59
479.509	8217.13
479.713	8440.36
479.918	7991.86
480.122	8112.69
480.326	8206.89
480.531	8219.18
480.735	8102.45
480.94	8043.06
481.144	8313.39
481.348	7848.5
481.553	7791.16
481.757	7670.33
481.961	7735.86
482.166	8233.52
482.37	7842.35
482.574	7735.86
482.778	8041.01
482.983	7893.55
483.187	7883.31
483.391	7959.09
483.595	7893.55
483.8	7737.91
484.004	7838.26
484.208	7875.12
484.412	7688.76
484.616	7811.64
484.821	8014.38
485.025	7678.52
485.229	7711.28
485.433	7803.44
485.637	7858.74
485.841	7825.97
486.045	7670.33
486.249	7803.44
486.453	7795.25
486.657	7764.53
486.861	8045.1
487.065	7631.41
487.269	7762.48
487.473	7664.18
487.677	7774.77
487.881	7977.52
488.085	7940.66
488.289	7891.51
488.493	7748.15
488.697	7930.42
488.901	7983.66
489.105	7797.3
489.309	7778.87
489.512	8038.96
489.716	8090.16
489.92	8012.34
490.124	7823.92
490.328	8061.49
490.531	8016.43
490.735	8174.13
490.939	8051.25
491.143	7932.47
491.346	8151.6
491.55	8403.5
491.754	8028.72
491.958	8231.47
492.161	8145.45
492.365	8278.57
492.569	8210.99
492.772	8446.51
492.976	8479.27
493.18	8366.63
493.383	8577.58
493.587	8462.89
493.79	8757.8
493.994	8628.77
494.197	8700.45
494.401	8733.22
494.605	8604.2
494.808	8776.23
495.012	8985.12
495.215	8995.36
495.419	9058.85
495.622	9161.25
495.825	9255.45
496.029	9089.57
496.232	9286.17
496.436	9337.37
496.639	9712.15
496.843	9660.95
497.046	9763.35
497.249	9722.39
497.453	9832.98
497.656	9898.52
497.859	10052.11
498.063	10095.12
498.266	10138.13
498.469	10103.31
498.673	10310.16
498.876	10443.28
499.079	10600.97
499.282	10496.52
499.485	11069.95
499.689	10949.12
499.892	11108.87
500.095	11028.99
500.298	11405.82
500.501	11389.44
500.705	11432.44
500.908	11670.01
501.111	11579.9
501.314	11868.66
501.517	11995.64
501.72	12249.58
501.923	12145.14
502.126	12571.11
502.329	12544.49
502.532	12716.52
502.735	12712.42
502.938	13140.45
503.141	12884.45
503.344	13355.49
503.547	13253.09
503.75	13398.49
503.953	13560.28
504.156	13777.37
504.359	14012.88
504.562	14154.19
504.765	14348.75
504.968	14510.54
505.17	14612.94
505.373	14655.95
505.576	14930.37
505.779	15116.74
505.982	15292.87
506.185	15573.44
506.387	15409.6
506.59	15712.7
506.793	15763.9
506.996	15960.5
507.198	16077.24
507.401	16044.47
507.604	16535.98
507.807	17019.3
508.009	16822.7
508.212	16959.91
508.415	17183.14
508.617	17246.63
508.82	17611.17
509.022	17371.55
509.225	17926.55
509.428	17940.89
509.63	18270.61
509.833	18258.32
510.035	18643.34
510.238	18706.83
510.44	18954.63
510.643	19153.29
510.845	19290.5
511.048	19509.63
511.25	19503.49
511.453	19679.61
511.655	20433.27
511.858	20207.99
512.06	20152.7
512.262	20472.18
512.465	20808.05
512.667	21006.7
512.87	21303.65
513.072	21399.91
513.274	21604.71
513.477	21823.84
513.679	22174.04
513.881	22186.33
514.084	22483.28
514.286	22665.55
514.488	22528.34
514.69	23114.06
514.893	23413.06
515.095	23091.53
515.297	23662.91
515.499	23836.99
515.701	24006.97
515.904	24535.35
516.106	24373.56
516.308	24846.64
516.51	24963.37
516.712	24963.37
516.914	25375.02
517.116	25852.19
517.318	25737.51
517.52	26130.72
517.722	26077.47
517.925	26562.84
518.127	26648.85
518.329	27187.47
518.531	26827.03
518.733	27388.17
518.935	27595.01
519.136	27339.02
519.338	27914.5
519.54	27779.33
519.742	28150.01
519.944	28436.73
520.146	28774.64
520.348	28864.75
520.55	29075.69
520.752	29200.62
520.954	29927.65
521.155	29585.64
521.357	30286.04
521.559	30288.09
521.761	30650.58
521.963	30507.23
522.164	30791.89
522.366	30761.17
522.568	31371.47
522.77	31367.37
522.971	31955.14
523.173	31563.98
523.375	31926.47
523.576	31680.71
523.778	32186.56
523.98	32274.62
524.181	32522.43
524.383	32518.33
524.584	32778.42
524.786	32907.44
524.988	33284.27
525.189	33564.84
525.391	33358
525.592	33722.54
525.794	33738.92
525.995	34121.89
526.197	34115.75
526.398	34257.06
526.6	34547.87
526.801	34484.38
527.003	34572.44
527.204	34492.57
527.406	35268.75
527.607	34719.9
527.808	35240.08
528.01	34758.81
528.211	35053.72
528.412	35764.36
528.614	35596.43
528.815	35893.38
529.016	35899.53
529.218	35471.5
529.419	35901.57
529.62	35643.53
529.822	35831.94
530.023	35764.36
530.224	36210.82
530.425	35979.4
530.626	35829.9
530.828	35553.42
531.029	36638.84
531.23	36010.12
531.431	35852.42
531.632	36622.46
531.833	36208.77
532.035	36597.88
532.236	36618.36
532.437	37138.55
532.638	36192.39
532.839	36411.52
533.04	36790.39
533.241	36450.43
533.442	36966.52
533.643	36649.08
533.844	36464.77
534.045	36325.5
534.246	36468.86
534.447	37179.51
534.648	36665.47
534.849	36868.22
535.05	36542.59
535.251	36388.99
535.451	36851.83
535.652	36903.03
535.853	36690.04
536.054	36573.31
536.255	37032.05
536.456	36479.1
536.657	37199.99
536.857	36753.53
537.058	36757.63
537.259	37292.15
537.46	36737.15
537.66	36810.87
537.861	36896.89
538.062	36620.41
538.263	37042.29
538.463	36692.09
538.664	36694.14
538.865	36814.97
539.065	37216.37
539.266	36524.16
539.466	36974.71
539.667	36575.36
539.868	37048.44
540.068	36739.19
540.269	36595.84
540.469	37066.87
540.67	36782.2
540.87	36665.47
541.071	36753.53
541.271	36843.64
541.472	36894.84
541.672	36669.56
541.873	37040.25
542.073	35979.4
542.274	36675.71
542.474	36661.37
542.675	36503.68
542.875	36905.08
543.075	36644.99
543.276	36710.52
543.476	36923.51
543.676	36661.37
543.877	36599.93
544.077	36616.32
544.277	36243.59
544.478	36905.08
544.678	36931.7
544.878	36640.89
545.078	36741.24
545.279	36685.95
545.479	36388.99
545.679	36558.97
545.879	36380.8
546.079	36597.88
546.28	36599.93
546.48	36329.6
546.68	36704.38
546.88	36802.68
547.08	36759.67
547.28	36638.84
547.48	36204.67
547.68	36860.02
547.88	36126.85
548.081	36444.29
548.281	36837.5
548.481	36370.56
548.681	36960.37
548.881	36415.61
549.081	36407.42
549.28	36317.31
549.48	36839.54
549.68	36352.13
549.88	36880.5
550.08	36145.28
550.28	36814.97
550.48	36499.58
550.68	36649.08
550.88	36356.22
551.08	36741.24
551.279	36716.67
551.479	36094.08
551.679	36485.25
551.879	36348.03
552.079	36579.45
552.278	36161.67
552.478	36436.09
552.678	36470.91
552.878	36229.25
553.077	36491.39
553.277	35850.38
553.477	36845.69
553.676	36348.03
553.876	36606.08
554.076	36124.8
554.275	35995.78
554.475	36055.17
554.674	36257.92
554.874	36352.13
555.074	36018.31
555.273	36087.94
555.473	36391.04
555.672	35741.83
555.872	36022.4
556.071	36001.93
556.271	36636.8
556.47	36069.51
556.67	35911.81
556.869	36026.5
557.068	36204.67
557.268	35881.1
557.467	35770.5
557.667	35930.25
557.866	36124.8
558.065	35862.66
558.265	35788.94
558.464	35690.63
558.663	36010.12
558.863	35610.76
559.062	35754.12
559.261	35483.79
559.461	35840.14
559.66	35584.14
559.859	35610.76
560.058	35401.87
560.258	35383.44
560.457	35369.1
560.656	35455.12
560.855	35117.2
561.054	35758.22
561.253	35082.39
561.453	35340.43
561.652	35375.25
561.851	35743.88
562.05	35248.27
562.249	35090.58
562.448	35633.29
562.647	35084.44
562.846	35188.88
563.045	35356.82
563.244	34730.14
563.443	35135.63
563.642	34486.43
563.841	34969.75
564.04	34603.16
564.239	34799.77
564.438	34142.37
564.637	34707.61
564.836	34822.3
565.035	34455.71
565.234	34492.57
565.432	34205.86
565.631	34001.06
565.83	34379.93
566.029	33994.92
566.228	34230.43
566.427	34363.55
566.625	34386.08
566.824	33835.17
567.023	34236.58
567.222	33276.08
567.42	34015.4
567.619	33853.61
567.818	33419.44
568.016	33806.5
568.215	34222.24
568.414	33642.67
568.612	34064.55
568.811	33413.29
569.01	33593.51
569.208	33104.05
569.407	33691.82
569.605	32891.06
569.804	33269.93
570.002	33102
570.201	33241.26
570.4	32923.83
570.598	32975.03
570.797	32366.78
570.995	33077.43
571.193	32078.02
571.392	32919.73
571.59	32389.31
571.789	32766.13
571.987	32356.54
572.186	32446.65
572.384	32438.46
572.582	32225.47
572.781	32542.91
572.979	31768.77
573.177	31998.15
573.376	32170.18
573.574	32231.61
573.772	32137.41
573.971	31822.02
574.169	32102.59
574.367	31918.28
574.565	31957.19
574.763	31762.63
574.962	31549.64
575.16	31176.91
575.358	31441.1
575.556	30988.5
575.754	31396.04
575.952	31402.19
576.151	31162.58
576.349	30777.56
576.547	31135.95
576.745	30775.51
576.943	30916.82
577.141	30724.31
577.339	30922.96
577.537	30654.68
577.735	30949.59
577.933	30333.15
578.131	30531.8
578.329	30662.87
578.527	30062.82
578.725	30114.02
578.923	30417.11
579.121	30060.77
579.319	30021.86
579.516	29798.63
579.714	29559.02
579.912	29597.93
580.11	29931.75
580.308	29477.1
580.506	29683.94
580.704	29358.31
580.901	29532.39
581.099	29561.06
581.297	28948.72
581.495	29364.46
581.692	29532.39
581.89	28827.89
582.088	29278.44
582.285	28901.62
582.483	29262.06
582.681	28619
582.878	28768.5
583.076	28727.54
583.274	29010.16
583.471	28338.43
583.669	28848.37
583.866	28197.12
584.064	28446.97
584.262	27840.77
584.459	28508.41
584.657	28205.31
584.854	28530.94
585.052	27853.06
585.249	28074.24
585.447	27838.72
585.644	27945.22
585.841	27621.64
586.039	27844.87
586.236	27519.24
586.434	27554.05
586.631	27492.62
586.828	27457.8
587.026	27386.12
587.223	27210
587.42	27271.43
587.618	27228.43
587.815	26728.72
588.012	26767.63
588.21	27160.84
588.407	27115.79
588.604	26935.57
588.801	26558.74
588.999	26870.03
589.196	26437.91
589.393	26743.06
589.59	26841.36
589.787	26046.75
589.984	26226.97
590.182	26122.52
590.379	26507.54
590.576	26130.72
590.773	26249.5
590.97	25915.68
591.167	25895.2
591.364	25690.4
591.561	25813.28
591.758	25485.61
591.955	25485.61
592.152	25774.37
592.349	25516.33
592.546	25708.83
592.743	25254.19
592.94	24805.68
593.137	25323.82
593.334	25428.26
593.531	24834.35
593.727	25100.59
593.924	25002.29
594.121	24752.43
594.318	24846.64
594.515	24629.55
594.712	24879.41
594.908	24777.01
595.105	24967.47
595.302	24840.5
595.499	24561.97
595.696	24271.16
595.892	24099.13
596.089	24412.47
596.286	24408.37
596.482	24011.07
596.679	24332.6
596.876	24084.8
597.072	23857.47
597.269	23642.43
597.466	23800.13
597.662	23720.26
597.859	23685.44
598.055	23714.11
598.252	23327.05
598.448	23726.4
598.645	23509.32
598.841	23304.52
599.038	23320.9
599.234	23402.82
599.431	23365.96
599.627	23144.78
599.824	23134.54
600.02	23112.01
600.217	23095.63
600.413	22808.91
600.609	22942.03
600.806	22788.43
601.002	22739.28
601.198	22761.81
601.395	22495.57
601.591	22870.35
601.787	22516.05
601.984	22464.85
602.18	22530.39
602.376	22133.08
602.572	22286.68
602.769	22067.55
602.965	21928.28
603.161	22171.99
603.357	21954.91
603.553	21981.53
603.75	21741.92
603.946	21883.23
604.142	21803.36
604.338	21639.52
604.534	21809.5
604.73	21406.05
604.926	21580.13
605.122	21588.32
605.318	21242.21
605.514	21203.3
605.71	21287.27
605.906	21141.86
606.102	21098.86
606.298	21125.48
606.494	21211.49
606.69	21227.88
606.886	20889.96
607.082	20312.44
607.278	20990.31
607.474	20707.69
607.67	21074.28
607.866	20666.74
608.062	20806
608.257	20935.02
608.453	20515.19
608.649	20623.73
608.845	20623.73
609.041	20601.2
609.236	20400.5
609.432	20539.76
609.628	20603.25
609.824	20255.09
610.019	20183.41
610.215	20394.36
610.411	20328.82
610.606	19970.43
610.802	20218.23
610.998	20404.6
611.193	20322.68
611.389	20205.94
611.584	19999.1
611.78	19753.34
611.976	19929.47
612.171	19696
612.367	19847.55
612.562	19566.98
612.758	19358.08
612.953	19806.59
613.149	19696
613.344	19476.87
613.539	19849.6
613.735	19915.13
613.93	19747.2
614.126	19300.74
614.321	19511.68
614.517	19622.27
614.712	19245.44
614.907	19421.57
615.103	19585.41
615.298	19272.07
615.493	19368.32
615.688	19124.61
615.884	19534.21
616.079	19044.74
616.274	18975.11
616.47	18844.04
616.665	19054.98
616.86	18981.26
617.055	18925.96
617.25	18596.24
617.445	18901.39
617.641	18579.86
617.836	18848.14
618.031	18491.79
618.226	18608.53
618.421	18731.4
618.616	18692.49
618.811	18493.84
619.006	18446.74
619.201	18207.12
619.396	18303.38
619.591	18397.59
619.786	18133.4
619.981	18031
620.176	18200.98
620.371	17762.72
620.566	18098.58
620.761	18076.05
620.956	18084.25
621.151	17676.7
621.346	17564.06
621.541	17623.45
621.735	17469.86
621.93	17314.21
622.125	17258.92
622.32	17082.79
622.515	17455.52
622.709	17035.69
622.904	17111.46
623.099	16873.9
623.294	16943.53
623.488	16527.79
623.683	16779.69
623.878	16339.38
624.072	16830.89
624.267	16601.52
624.462	16255.41
624.656	16441.78
624.851	16183.73
625.046	16054.71
625.24	16116.15
625.435	15960.5
625.629	15634.88
625.824	16003.51
626.018	15944.12
626.213	15505.85
626.407	15565.25
626.602	15350.21
626.796	15419.84
626.991	15536.57
627.185	15143.36
627.38	15198.66
627.574	14926.28
627.768	14784.97
627.963	14784.97
628.157	14512.59
628.352	14807.5
628.546	14537.16
628.74	14840.26
628.935	14543.31
629.129	14590.41
629.323	14381.52
629.517	14201.3
629.712	14162.39
629.906	14248.4
630.1	13890.01
630.294	14117.33
630.489	13781.46
630.683	14105.04
630.877	13801.94
631.071	13545.95
631.265	13814.23
631.459	13496.8
631.653	13468.13
631.848	13726.17
632.042	13492.7
632.236	13398.49
632.43	13328.86
632.624	13150.69
632.818	13242.85
633.012	12820.97
633.206	13038.05
633.4	13068.77
633.594	12577.26
633.788	12669.42
633.982	12610.03
634.176	12771.82
634.369	12562.92
634.563	12513.77
634.757	12550.64
634.951	12575.21
635.145	12319.21
635.339	12429.8
635.533	12225.01
635.726	12249.58
635.92	12048.88
636.114	11954.68
636.308	11993.59
636.501	11905.52
636.695	11938.29
636.889	11809.27
637.083	11694.58
637.276	11684.34
637.47	11631.1
637.664	11459.07
637.857	11631.1
638.051	11532.79
638.244	11373.05
638.438	11522.55
638.632	11182.59
638.825	11129.34
639.019	11344.38
639.212	11241.98
639.406	11096.58
639.599	11119.1
639.793	11039.23
639.986	10766.85
640.18	10783.24
640.373	10777.09
640.567	10621.45
640.76	10656.26
640.954	10459.66
641.147	10404.36
641.34	10342.92
641.534	10508.81
641.727	10351.12
641.92	10359.31
642.114	10078.74
642.307	10082.83
642.5	10154.51
642.694	9996.82
642.887	10119.7
643.08	10095.12
643.273	10099.22
643.467	9947.67
643.66	9949.71
643.853	9716.25
644.046	9611.8
644.239	9738.77
644.432	9687.57
644.626	9327.13
644.819	9316.89
645.012	9505.31
645.205	9456.15
645.398	9259.55
645.591	9226.78
645.784	9275.93
645.977	9001.51
646.17	9237.02
646.363	8991.27
646.556	9013.79
646.749	9034.27
646.942	8954.4
647.135	8940.07
647.328	8688.17
647.521	8909.35
647.714	8743.46
647.907	8639.01
648.099	8645.16
648.292	8636.97
648.485	8751.65
648.678	8645.16
648.871	8477.23
649.064	8518.18
649.256	8442.41
649.449	8405.55
649.642	8184.37
649.835	8292.91
650.027	8223.28
650.22	8120.88
650.413	8108.59
650.605	8036.91
650.798	8094.26
650.991	8112.69
651.183	7889.46
651.376	7998
651.568	7995.95
651.761	7891.51
651.954	7909.94
652.146	7686.71
652.339	7735.86
652.531	7637.56
652.724	7625.27
652.916	7408.19
653.109	7639.61
653.301	7334.46
653.494	7371.32
653.686	7416.38
653.879	7430.71
654.071	7359.03
654.263	7387.71
654.456	7344.7
654.648	7230.01
654.84	7000.64
655.033	7270.97
655.225	7086.65
655.417	7039.55
655.61	7160.38
655.802	7119.42
655.994	6961.73
656.186	7076.41
656.379	7051.84
656.571	7115.33
656.763	6912.58
656.955	6801.99
657.148	6763.08
657.34	6926.91
657.532	6494.79
657.724	6572.61
657.916	6711.88
658.108	6613.57
658.3	6494.79
658.492	6580.81
658.684	6511.18
658.876	6425.16
659.068	6556.23
659.26	6369.87
659.452	6597.19
659.644	6359.63
659.836	6380.11
660.028	6300.23
660.22	6167.12
660.412	6117.97
660.604	6109.77
660.796	6263.37
660.988	6085.2
661.18	6163.02
661.372	6003.28
661.563	5974.61
661.755	6007.37
661.947	5884.5
662.139	5898.83
662.331	5890.64
662.522	5778
662.714	5786.19
662.906	5894.74
663.097	5892.69
663.289	5870.16
663.481	5624.4
663.673	5646.93
663.864	5657.17
664.056	5573.21
664.247	5507.67
664.439	5415.51
664.631	5585.49
664.822	5714.52
665.014	5483.09
665.205	5425.75
665.397	5526.1
665.588	5462.62
665.78	5309.02
665.971	5321.31
666.163	5421.66
666.354	5390.94
666.546	5270.11
666.737	5352.02
666.929	5208.67
667.12	5186.14
667.311	5110.36
667.503	5122.65
667.694	5069.41
667.885	5079.65
668.077	4967.01
668.268	5012.06
668.459	5091.93
668.651	4981.34
668.842	5089.88
669.033	5001.82
669.224	4878.94
669.416	4934.24
669.607	4663.91
669.798	4950.62
669.989	4805.22
670.18	4788.83
670.371	4827.74
670.563	4840.03
670.754	4772.45
670.945	4614.76
671.136	4770.4
671.327	4639.33
671.518	4663.91
671.709	4612.71
671.9	4541.03
672.091	4530.79
672.282	4616.8
672.473	4534.89
672.664	4633.19
672.855	4541.03
673.046	4620.9
673.237	4606.56
673.428	4471.4
673.619	4467.3
673.809	4467.3
674	4581.99
674.191	4436.58
674.382	4438.63
674.573	4434.53
674.764	4401.77
674.954	4438.63
675.145	4239.98
675.336	4235.88
675.527	4254.31
675.717	4389.48
675.908	4139.63
676.099	4246.12
676.289	4289.13
676.48	4242.03
676.671	4176.49
676.861	4203.11
677.052	4158.06
677.243	4199.02
677.433	4196.97
677.624	4166.25
677.814	4201.07
678.005	4098.67
678.195	4135.53
678.386	3961.45
678.576	4053.61
678.767	4090.48
678.957	4043.37
679.148	4125.29
679.338	3963.5
679.529	3979.89
679.719	3902.06
679.909	4041.32
680.1	3949.17
680.29	4041.32
680.481	4012.65
680.671	4004.46
680.861	3844.72
681.052	4022.89
681.242	3940.97
681.432	3897.97
681.622	3805.81
681.813	3828.34
682.003	3820.14
682.193	3871.34
682.383	3930.73
682.573	3803.76
682.764	3875.44
682.954	3795.57
683.144	3842.67
683.334	3750.51
683.524	3762.8
683.714	3639.92
683.904	3740.27
684.094	3732.08
684.284	3697.27
684.474	3871.34
684.664	3615.35
684.854	3754.61
685.044	3582.58
685.234	3607.16
685.424	3770.99
685.614	3717.75
685.804	3785.33
685.994	3590.77
686.184	3660.4
686.374	3611.25
686.564	3543.67
686.753	3648.11
686.943	3553.91
687.133	3443.32
687.323	3539.57
687.513	3566.2
687.702	3590.77
687.892	3508.85
688.082	3570.29
688.272	3431.03
688.461	3502.71
688.651	3390.07
688.841	3435.13
689.03	3506.81
689.22	3328.63
689.41	3406.45
689.599	3322.49
689.789	3445.37
689.979	3410.55
690.168	3322.49
690.358	3392.12
690.547	3281.53
690.737	3295.86
690.926	3207.8
691.116	3230.33
691.305	3215.99
691.495	3189.37
691.684	3199.61
691.874	3252.86
692.063	3252.86
692.252	3293.82
692.442	3164.79
692.631	3218.04
692.82	3226.23
693.01	3238.52
693.199	3107.45
693.388	2998.91
693.578	3035.77
693.767	3101.31
693.956	3074.68
694.146	3031.68
694.335	3119.74
694.524	2966.14
694.713	3000.96
694.902	2994.81
695.092	2921.09
695.281	2984.57
695.47	3041.92
695.659	2951.81
695.848	2880.13
696.037	2943.61
696.226	2980.48
696.415	2921.09
696.604	3068.54
696.793	2978.43
696.982	2943.61
697.171	3029.63
697.36	3005.05
697.549	2902.65
697.738	2966.14
697.927	2935.42
698.116	2898.56
698.305	2894.46
698.494	2845.31
698.683	2849.41
698.872	2828.93
699.061	2968.19
699.25	2777.73
699.438	2853.5
699.627	2763.39
699.816	2935.42
700.005	2806.4
700.193	2769.54
700.382	2800.26
700.571	2859.65
700.76	2808.45
700.948	2800.26
701.137	2826.88
701.326	2863.74
701.514	2896.51
701.703	2693.76
701.892	2724.48
702.08	2878.08
702.269	2824.83
702.457	2724.48
702.646	2804.35
702.834	2722.43
703.023	2716.29
703.212	2650.75
703.4	2650.75
703.589	2689.67
703.777	2673.28
703.965	2591.36
704.154	2638.47
704.342	2632.32
704.531	2679.43
704.719	2550.4
704.907	2673.28
705.096	2480.77
705.284	2523.78
705.472	2615.94
705.661	2544.26
705.849	2660.99
706.037	2542.21
706.226	2605.7
706.414	2564.74
706.602	2513.54
706.79	2611.84
706.979	2540.16
707.167	2556.55
707.355	2529.92
707.543	2558.6
707.731	2521.73
707.919	2601.6
708.107	2415.24
708.296	2597.51
708.484	2488.96
708.672	2402.95
708.86	2536.07
709.048	2523.78
709.236	2488.96
709.424	2566.79
709.612	2493.06
709.8	2505.35
709.988	2574.98
710.176	2392.71
710.364	2511.49
710.551	2415.24
710.739	2429.57
710.927	2384.52
711.115	2376.33
711.303	2400.9
711.491	2321.03
711.679	2359.94
711.866	2351.75
712.054	2478.72
712.242	2421.38
712.43	2364.04
712.617	2347.65
712.805	2355.85
712.993	2343.56
713.181	2255.5
713.368	2382.47
713.556	2259.59
713.744	2239.11
713.931	2361.99
714.119	2316.94
714.306	2308.74
714.494	2288.26
714.682	2241.16
714.869	2312.84
715.057	2361.99
715.244	2198.15
715.432	2364.04
715.619	2198.15
715.807	2206.34
715.994	2292.36
716.182	2165.39
716.369	2235.02
716.556	2181.77
716.744	2165.39
716.931	2112.14
717.119	2222.73
717.306	2216.58
717.493	2208.39
717.681	2120.33
717.868	2218.63
718.055	2149
718.242	2200.2
718.43	2108.04
718.617	2222.73
718.804	2103.95
718.991	2140.81
719.179	2216.58
719.366	2116.23
719.553	2140.81
719.74	2136.71
719.927	2165.39
720.114	2073.23
720.301	2187.91
720.488	2101.9
720.676	2128.52
720.863	2058.89
721.05	2167.43
721.237	2032.27
721.424	2222.73
721.611	2091.66
721.798	2054.8
721.985	2036.36
722.172	2044.56
722.358	1938.06
722.545	2081.42
722.732	2040.46
722.919	2042.51
723.106	2005.64
723.293	1927.82
723.48	2075.27
723.667	2001.55
723.853	2036.36
724.04	1956.49
724.227	2083.47
724.414	1987.21
724.6	1966.73
724.787	2095.75
724.974	2030.22
725.161	1960.59
725.347	1976.97
725.534	1970.83
725.72	2108.04
725.907	1915.53
726.094	1940.11
726.28	1850
726.467	1886.86
726.653	1804.94
726.84	1960.59
727.027	2028.17
727.213	1993.36
727.4	1936.01
727.586	1866.38
727.773	1878.67
727.959	1815.18
728.145	1866.38
728.332	1866.38
728.518	1790.61
728.705	1864.33
728.891	1944.2
729.077	1780.37
729.264	1815.18
729.45	1866.38
729.636	1936.01
729.823	1856.14
730.009	1852.05
730.195	1864.33
730.382	1768.08
730.568	1749.65
730.754	1757.84
730.94	1784.46
731.126	1700.5
731.313	1837.71
731.499	1796.75
731.685	1886.86
731.871	1886.86
732.057	1936.01
732.243	1837.71
732.429	1786.51
732.615	1768.08
732.801	1772.18
732.987	1749.65
733.173	1776.27
733.359	1815.18
733.545	1766.03
733.731	1780.37
733.917	1677.97
734.103	1813.13
734.289	1770.13
734.475	1782.42
734.661	1802.9
734.847	1751.7
735.033	1725.07
735.219	1815.18
735.404	1682.06
735.59	1725.07
735.776	1731.22
735.962	1784.46
736.148	1792.66
736.333	1735.31
736.519	1696.4
736.705	1692.3
736.89	1579.67
737.076	1591.95
737.262	1725.07
737.447	1747.6
737.633	1686.16
737.819	1747.6
738.004	1657.49
738.19	1632.91
738.375	1649.3
738.561	1735.31
738.747	1634.96
738.932	1690.26
739.118	1639.06
739.303	1663.63
739.489	1651.35
739.674	1604.24
739.859	1555.09
740.045	1645.2
740.23	1565.33
740.416	1507.99
740.601	1555.09
740.786	1598.1
740.972	1503.89
741.157	1577.62
741.342	1534.61
741.528	1518.23
741.713	1632.91
741.898	1477.27
742.084	1550.99
742.269	1540.76
742.454	1536.66
742.639	1505.94
742.824	1475.22
743.01	1553.04
743.195	1446.55
743.38	1434.26
743.565	1501.84
743.75	1456.79
743.935	1495.7
744.12	1430.16
744.305	1364.63
744.49	1534.61
744.675	1477.27
744.86	1395.35
745.045	1440.4
745.23	1315.48
745.415	1471.12
745.6	1374.87
745.785	1374.87
745.97	1413.78
746.155	1387.16
746.34	1444.5
746.525	1383.06
746.71	1288.85
746.895	1249.94
747.079	1278.62
747.264	1249.94
747.449	1381.01
747.634	1329.81
747.819	1274.52
748.003	1288.85
748.188	1288.85
748.373	1280.66
748.557	1282.71
748.742	1249.94
748.927	1290.9
749.111	1247.9
749.296	1268.38
749.481	1317.53
749.665	1247.9
749.85	1243.8
750.034	1231.51
750.219	1110.68
750.404	1149.59
750.588	1145.5
750.773	1145.5
750.957	1190.55
751.141	1145.5
751.326	1139.35
751.51	1147.55
751.695	1153.69
751.879	1157.78
752.064	1227.42
752.248	1075.87
752.432	1184.41
752.617	1245.85
752.801	1028.76
752.985	1131.16
753.17	1131.16
753.354	1047.19
753.538	1034.91
753.722	1061.53
753.907	1135.26
754.091	1059.48
754.275	1043.1
754.459	1012.38
754.643	1012.38
754.828	981.66
755.012	1004.19
755.196	862.88
755.38	977.56
755.564	936.6
755.748	936.6
755.932	928.41
756.116	961.18
756.3	920.22
756.484	993.95
756.668	959.13
756.852	877.21
757.036	932.51
757.22	856.73
757.404	877.21
757.588	891.55
757.772	875.17
757.956	903.84
758.14	977.56
758.323	856.73
758.507	848.54
758.691	887.45
758.875	860.83
759.059	887.45
759.242	875.17
759.426	862.88
759.61	903.84
759.794	821.92
759.977	834.21
760.161	889.5
760.345	924.32
760.528	930.46
760.712	783.01
760.895	856.73
761.079	844.45
761.263	758.43
761.446	692.9
761.63	873.12
761.813	828.06
761.997	770.72
762.18	725.66
762.364	750.24
762.547	717.47
762.731	744.1
762.914	754.34
763.098	733.86
763.281	764.57
763.464	686.75
763.648	740
763.831	776.86
764.015	694.94
764.198	789.15
764.381	772.77
764.564	703.14
764.748	803.49
764.931	754.34
765.114	684.7
765.297	684.7
765.481	807.58
765.664	772.77
765.847	641.7
766.03	610.98
766.213	680.61
766.397	678.56
766.58	627.36
766.763	651.94
766.946	711.33
767.129	690.85
767.312	694.94
767.495	719.52
767.678	617.12
767.861	643.74
768.044	627.36
768.227	582.31
768.41	610.98
768.593	705.18
768.776	643.74
768.959	699.04
769.142	690.85
769.324	602.79
769.507	658.08
769.69	543.39
769.873	627.36
770.056	653.98
770.239	662.18
770.421	694.94
770.604	635.55
770.787	600.74
770.97	600.74
771.152	600.74
771.335	535.2
771.518	635.55
771.7	666.27
771.883	637.6
772.066	594.59
772.248	664.22
772.431	535.2
772.613	578.21
772.796	559.78
772.978	666.27
773.161	602.79
773.343	617.12
773.526	592.55
773.708	543.39
773.891	578.21
774.073	647.84
774.256	502.43
774.438	578.21
774.621	535.2
774.803	641.7
774.985	551.59
775.168	608.93
775.35	541.35
775.532	543.39
775.715	572.07
775.897	535.2
776.079	432.8
776.261	477.86
776.444	518.82
776.626	461.48
776.808	561.83
776.99	426.66
777.173	567.97
777.355	539.3
777.537	477.86
777.719	461.48
777.901	486.05
778.083	500.39
778.265	441
778.447	502.43
778.629	469.67
778.811	494.24
778.993	428.71
779.175	477.86
779.357	430.76
779.539	404.13
779.721	522.91
779.903	578.21
780.085	471.72
780.267	393.89
780.449	424.61
780.631	414.37
780.812	412.32
780.994	400.04
781.176	402.08
781.358	428.71
781.54	357.03
781.721	479.91
781.903	395.94
782.085	389.8
782.267	381.6
782.448	404.13
782.63	363.17
782.812	393.89
782.993	371.36
783.175	406.18
783.357	430.76
783.538	436.9
783.72	240.29
783.901	389.8
784.083	447.14
784.264	389.8
784.446	334.5
784.627	305.83
784.809	412.32
784.99	385.7
785.172	258.73
785.353	352.93
785.535	307.88
785.716	348.84
785.897	334.5
786.079	387.75
786.26	303.78
786.441	344.74
786.623	283.3
786.804	350.89
786.985	330.41
787.167	369.32
787.348	275.11
787.529	340.65
787.71	322.21
787.891	375.46
788.073	244.39
788.254	281.25
788.435	365.22
788.616	289.45
788.797	228.01
788.978	232.1
789.159	297.64
789.34	350.89
789.522	219.82
789.703	258.73
789.884	299.69
790.065	307.88
790.246	363.17
790.427	264.87
790.607	377.51
790.788	322.21
790.969	268.97
791.15	273.06
791.331	344.74
791.512	303.78
791.693	230.06
791.874	240.29
792.054	211.62
792.235	266.92
792.416	242.34
792.597	271.01
792.778	268.97
792.958	266.92
793.139	250.53
793.32	266.92
793.5	260.77
793.681	314.02
793.862	209.58
794.042	330.41
794.223	338.6
794.404	232.1
794.584	111.27
794.765	273.06
794.945	215.72
795.126	234.15
795.306	301.73
795.487	162.47
795.667	135.85
795.848	203.43
796.028	189.1
796.209	131.75
796.389	248.49
796.57	266.92
796.75	211.62
796.93	240.29
797.111	170.66
797.291	248.49
797.471	268.97
797.652	199.34
797.832	248.49
798.012	209.58
798.192	141.99
798.373	248.49
798.553	201.38
798.733	185
798.913	223.91
799.093	187.05
799.274	199.34
799.454	207.53
799.634	176.81
799.814	215.72
799.994	232.1
800.174	228.01
800.354	162.47
800.534	135.85
800.714	246.44
800.894	125.61
801.074	146.09
801.254	236.2
801.434	242.34
801.614	168.62
801.794	168.62
801.974	701.09
802.154	199.34
802.334	158.38
802.514	234.15
802.693	141.99
802.873	150.18
803.053	182.95
803.233	228.01
803.413	191.14
803.592	185
803.772	187.05
803.952	119.46
804.131	178.86
804.311	199.34
804.491	137.9
804.67	68.27
804.85	101.03
805.03	199.34
805.209	166.57
805.389	160.42
805.568	150.18
805.748	137.9
805.928	191.14
806.107	133.8
806.287	117.42
806.466	174.76
806.646	148.14
806.825	94.89
807.004	74.41
807.184	109.22
807.363	170.66
807.543	101.03
807.722	76.46
807.901	125.61
808.081	180.9
808.26	152.23
808.439	135.85
808.619	162.47
808.798	107.18
808.977	55.98
809.156	170.66
809.336	109.22
809.515	135.85
809.694	129.7
809.873	146.09
810.052	137.9
810.231	103.08
810.411	111.27
810.59	182.95
810.769	170.66
810.948	172.71
811.127	80.55
811.306	160.42
811.485	129.7
811.664	191.14
811.843	111.27
812.022	101.03
812.201	197.29
812.38	105.13
812.559	137.9
812.737	168.62
812.916	45.74
813.095	80.55
813.274	150.18
813.453	135.85
813.632	119.46
813.811	160.42
813.989	-9.56
814.168	127.66
814.347	45.74
814.526	82.6
814.704	182.95
814.883	137.9
815.062	37.55
815.24	178.86
815.419	189.1
815.598	121.51
815.776	137.9
815.955	174.76
816.133	94.89
816.312	37.55
816.49	74.41
816.669	101.03
816.847	101.03
817.026	109.22
817.204	84.65
817.383	74.41
817.561	111.27
817.74	101.03
817.918	135.85
818.097	150.18
818.275	109.22
818.453	70.31
818.632	103.08
818.81	141.99
818.988	101.03
819.167	88.75
819.345	96.94
819.523	103.08
819.701	88.75
819.879	141.99
820.058	37.55
820.236	119.46
820.414	55.98
820.592	133.8
820.77	111.27
820.948	84.65
821.127	33.45
821.305	60.07
821.483	80.55
821.661	60.07
821.839	94.89
822.017	101.03
822.195	70.31
822.373	72.36
822.551	68.27
822.729	131.75
822.907	78.51
823.085	101.03
823.262	23.21
823.44	119.46
823.618	29.35
823.796	90.79
823.974	17.07
824.152	58.03
824.329	68.27
824.507	146.09
824.685	103.08
824.863	68.27
825.04	39.59
825.218	-7.51
825.396	84.65
825.574	158.38
825.751	19.11
825.929	103.08
826.107	29.35
826.284	101.03
826.462	47.79
826.639	84.65
826.817	125.61
826.994	43.69
827.172	152.23
827.349	41.64
827.527	88.75
827.704	53.93
827.882	111.27
828.059	68.27
828.237	131.75
828.414	64.17
828.591	29.35
828.769	113.32
828.946	55.98
829.124	78.51
829.301	64.17
829.478	84.65
829.655	150.18
829.833	47.79
830.01	84.65
830.187	84.65
830.364	94.89
830.542	72.36
830.719	125.61
830.896	6.83
831.073	43.69
831.25	84.65
831.427	101.03
831.604	39.59
831.782	10.92
831.959	-5.46
832.136	35.5
832.313	37.55
832.49	55.98
832.667	119.46
832.844	-7.51
833.021	86.7
833.198	23.21
833.374	125.61
833.551	29.35
833.728	39.59
833.905	117.42
834.082	31.4
834.259	33.45
834.436	88.75
834.612	-30.04
834.789	80.55
834.966	17.07
835.143	8.87
835.319	23.21
835.496	45.74
835.673	47.79
835.85	33.45
836.026	82.6
836.203	109.22
836.38	60.07
836.556	51.88
836.733	88.75
836.909	27.31
837.086	29.35
837.262	51.88
837.439	51.88
837.616	45.74
837.792	43.69
837.968	27.31
838.145	25.26
838.321	47.79
838.498	-3.41
838.674	96.94
838.851	33.45
839.027	23.21
839.203	84.65
839.38	86.7
839.556	66.22
839.732	39.59
839.909	84.65
840.085	74.41
840.261	60.07
840.437	45.74
840.614	51.88
840.79	53.93
840.966	4.78
841.142	70.31
841.318	72.36
841.494	-9.56
841.671	68.27
841.847	76.46
842.023	35.5
842.199	47.79
842.375	107.18
842.551	-9.56
842.727	35.5
842.903	125.61
843.079	-21.85
843.255	119.46
843.431	51.88
843.607	19.11
843.783	15.02
843.959	15.02
844.134	53.93
844.31	10.92
844.486	4.78
844.662	58.03
844.838	39.59
845.013	17.07
845.189	103.08
845.365	47.79
845.541	60.07
845.716	35.5
845.892	74.41
846.068	39.59
846.244	31.4
846.419	-13.65
846.595	-7.51
846.77	-30.04
846.946	21.16
847.122	60.07
847.297	43.69
847.473	68.27
847.648	41.64
847.824	82.6
847.999	33.45
848.175	109.22
848.35	-11.61
848.526	109.22
848.701	6.83
848.876	64.17
849.052	39.59
849.227	19.11
849.403	68.27
849.578	51.88
849.753	31.4
849.929	70.31
850.104	25.26
850.279	-30.04
850.454	2.73
850.63	2.73
850.805	19.11
850.98	31.4
851.155	35.5
851.33	94.89
851.505	31.4
851.681	60.07
851.856	31.4
852.031	55.98
852.206	76.46
852.381	-11.61
852.556	109.22
852.731	43.69
852.906	107.18
853.081	4.78
853.256	35.5
853.431	68.27
853.606	8.87
853.781	-13.65
853.956	-50.52
854.131	47.79
854.305	29.35
854.48	10.92
854.655	-11.61
854.83	27.31
855.005	70.31
855.18	58.03
855.354	-25.94
855.529	25.26
855.704	-1.37
855.879	-19.8
856.053	70.31
856.228	15.02
856.403	35.5
856.577	80.55
856.752	35.5
856.926	78.51
857.101	58.03
857.276	-1.37
857.45	21.16
857.625	15.02
857.799	-13.65
857.974	25.26
858.148	-48.47
858.323	2.73
858.497	35.5
858.672	-1.37
858.846	2.73
859.02	70.31
859.195	37.55
859.369	-5.46
859.543	64.17
859.718	8.87
859.892	-5.46
860.066	4.78
860.241	19.11
860.415	-13.65
860.589	43.69
860.763	-71
860.938	39.59
861.112	-17.75
861.286	-5.46
861.46	-9.56
861.634	2.73
861.808	70.31
861.982	-15.7
862.157	27.31
862.331	10.92
862.505	23.21
862.679	-17.75
862.853	-58.71
863.027	-1.37
863.201	55.98
863.375	-7.51
863.549	45.74
863.722	-21.85
863.896	123.56
864.07	51.88
864.244	51.88
864.418	43.69
864.592	68.27
864.766	12.97
864.939	72.36
865.113	-5.46
865.287	84.65
865.461	-27.99
865.634	21.16
865.808	45.74
865.982	19.11
866.156	2.73
866.329	-27.99
866.503	33.45
866.676	39.59
866.85	80.55
867.024	-1.37
867.197	-9.56
867.371	74.41
867.544	10.92
867.718	17.07
867.891	10.92
868.065	8.87
868.238	37.55
868.412	72.36
868.585	-15.7
868.759	12.97
868.932	-54.61
869.105	-36.18
869.279	-40.28
869.452	55.98
869.625	43.69
869.799	4.78
869.972	70.31
870.145	43.69
870.319	47.79
870.492	35.5
870.665	-19.8
870.838	70.31
871.011	27.31
871.185	-3.41
871.358	2.73
871.531	15.02
871.704	64.17
871.877	62.12
872.05	58.03
872.223	-68.95
872.396	-17.75
872.569	49.83
872.742	51.88
872.915	-27.99
873.088	-3.41
873.261	-58.71
873.434	-46.42
873.607	4.78
873.78	12.97
873.953	-3.41
874.126	76.46
874.299	6.83
874.471	10.92
874.644	70.31
874.817	53.93
874.99	68.27
875.163	51.88
875.335	25.26
875.508	66.22
875.681	-25.94
875.853	-30.04
876.026	-34.13
876.199	10.92
876.371	17.07
876.544	23.21
876.717	-46.42
876.889	-46.42
877.062	21.16
877.234	-17.75
877.407	-58.71
877.579	41.64
877.752	-3.41
877.924	8.87
878.097	-42.32
878.269	41.64
878.442	53.93
878.614	-21.85
878.786	29.35
878.959	0.68
879.131	55.98
879.303	-9.56
879.476	27.31
879.648	35.5
879.82	19.11
879.993	-48.47
880.165	19.11
880.337	-27.99
880.509	-1.37
880.681	27.31
880.854	12.97
881.026	-44.37
881.198	117.42
881.37	62.12
881.542	-13.65
881.714	19.11
881.886	-21.85
882.058	17.07
882.23	12.97
882.402	27.31
882.574	-42.32
882.746	39.59
882.918	45.74
883.09	27.31
883.262	10.92
883.434	47.79
883.606	-27.99
883.778	-21.85
883.95	49.83
884.122	37.55
884.293	-21.85
884.465	-11.61
884.637	-38.23
884.809	41.64
884.98	55.98
885.152	23.21
885.324	27.31
885.496	-56.66
885.667	12.97
885.839	-68.95
886.011	-1.37
886.182	8.87
886.354	-13.65
886.525	60.07
886.697	-3.41
886.869	-77.14
887.04	-30.04
887.212	-30.04
887.383	64.17
887.555	21.16
887.726	-50.52
887.897	-27.99
888.069	51.88
888.24	-13.65
888.412	6.83
888.583	-7.51
888.754	10.92
888.926	15.02
889.097	64.17
889.268	-46.42
889.44	15.02
889.611	-21.85
889.782	-30.04
889.953	-1.37
890.125	35.5
890.296	-95.57
890.467	-68.95
890.638	10.92
890.809	-25.94
890.98	-7.51
891.151	12.97
891.323	68.27
891.494	-23.89
891.665	19.11
891.836	21.16
892.007	19.11
892.178	-30.04
892.349	27.31
892.52	-46.42
892.691	-42.32
892.862	12.97
893.032	-17.75
893.203	35.5
893.374	12.97
893.545	53.93
893.716	58.03
893.887	0.68
894.057	72.36
894.228	45.74
894.399	17.07
894.57	39.59
894.74	8.87
894.911	68.27
895.082	-34.13
895.253	-25.94
895.423	21.16
895.594	29.35
895.764	-3.41
895.935	-66.9
896.106	-13.65
896.276	10.92
896.447	2.73
896.617	-15.7
896.788	-7.51
896.958	-36.18
897.129	2.73
897.299	-19.8
897.47	-5.46
897.64	27.31
897.81	-23.89
897.981	62.12
898.151	27.31
898.322	-7.51
898.492	43.69
898.662	-9.56
898.832	-3.41
899.003	-42.32
899.173	-66.9
899.343	-30.04
899.513	-42.32
