Data from USB4F104151__267__14-22-50-216.txt Node

Date: Thu Mar 13 14:22:50 EDT 2025
User: louis
Spectrometer: USB4F10415
Trigger mode: 4
Integration Time (sec): 2.000000E-2
Scans to average: 1
Electric dark correction enabled: true
Nonlinearity correction enabled: false
Boxcar width: 0
XAxis mode: Wavelengths
Number of Pixels in Spectrum: 3648
>>>>>Begin Spectral Data<<<<<
178.204	-131.58
178.424	-131.58
178.644	-131.58
178.864	-107.01
179.084	-98.81
179.304	58.88
179.524	-8.7
179.744	-23.04
179.964	-23.04
180.184	7.68
180.404	-4.61
180.624	65.02
180.844	30.21
181.064	-86.53
181.283	17.92
181.503	-41.47
181.723	7.68
181.943	-31.23
182.163	73.21
182.383	40.45
182.602	11.78
182.822	58.88
183.042	65.02
183.262	-31.23
183.482	-74.24
183.701	-8.7
183.921	-59.9
184.141	52.74
184.361	17.92
184.58	-64
184.8	34.3
185.02	9.73
185.239	116.22
185.459	3.58
185.679	71.17
185.898	-8.7
186.118	67.07
186.338	7.68
186.557	73.21
186.777	-18.94
186.997	65.02
187.216	7.68
187.436	65.02
187.655	50.69
187.875	73.21
188.095	-55.81
188.314	69.12
188.534	73.21
188.753	17.92
188.973	-2.56
189.192	17.92
189.412	32.26
189.631	-8.7
189.851	26.11
190.07	-12.8
190.29	11.78
190.509	-16.9
190.729	50.69
190.948	40.45
191.168	93.69
191.387	42.5
191.607	3.58
191.826	13.82
192.045	-0.51
192.265	40.45
192.484	17.92
192.704	17.92
192.923	7.68
193.142	22.02
193.362	-10.75
193.581	65.02
193.8	89.6
194.02	-8.7
194.239	32.26
194.458	7.68
194.678	-12.8
194.897	1.54
195.116	-37.38
195.335	11.78
195.555	105.98
195.774	24.06
195.993	19.97
196.212	48.64
196.432	3.58
196.651	71.17
196.87	-45.57
197.089	15.87
197.308	46.59
197.528	60.93
197.747	46.59
197.966	32.26
198.185	77.31
198.404	28.16
198.623	11.78
198.842	65.02
199.062	40.45
199.281	17.92
199.5	48.64
199.719	24.06
199.938	19.97
200.157	75.26
200.376	-14.85
200.595	9.73
200.814	60.93
201.033	40.45
201.252	9.73
201.471	73.21
201.69	-2.56
201.909	60.93
202.128	30.21
202.347	-6.66
202.566	-0.51
202.785	-23.04
203.004	-2.56
203.223	42.5
203.442	42.5
203.661	1.54
203.879	-41.47
204.098	73.21
204.317	40.45
204.536	28.16
204.755	32.26
204.974	44.54
205.193	15.87
205.411	114.17
205.63	-41.47
205.849	7.68
206.068	7.68
206.287	1.54
206.505	75.26
206.724	13.82
206.943	65.02
207.162	22.02
207.381	-25.09
207.599	9.73
207.818	-16.9
208.037	3.58
208.255	-8.7
208.474	11.78
208.693	-39.42
208.911	-43.52
209.13	19.97
209.349	38.4
209.567	1.54
209.786	17.92
210.005	-31.23
210.223	77.31
210.442	-82.43
210.661	60.93
210.879	44.54
211.098	34.3
211.316	-55.81
211.535	50.69
211.753	24.06
211.972	40.45
212.191	5.63
212.409	-0.51
212.628	85.5
212.846	15.87
213.065	28.16
213.283	130.56
213.502	-6.66
213.72	-16.9
213.938	3.58
214.157	9.73
214.375	3.58
214.594	-51.71
214.812	32.26
215.031	34.3
215.249	-8.7
215.467	52.74
215.686	50.69
215.904	32.26
216.122	13.82
216.341	77.31
216.559	58.88
216.778	15.87
216.996	77.31
217.214	-66.05
217.432	-25.09
217.651	7.68
217.869	19.97
218.087	42.5
218.306	-6.66
218.524	13.82
218.742	50.69
218.96	-8.7
219.179	-53.76
219.397	42.5
219.615	93.69
219.833	-6.66
220.051	-41.47
220.27	50.69
220.488	54.78
220.706	-55.81
220.924	58.88
221.142	48.64
221.36	62.98
221.578	73.21
221.796	-0.51
222.015	58.88
222.233	15.87
222.451	50.69
222.669	36.35
222.887	-2.56
223.105	-16.9
223.323	40.45
223.541	-37.38
223.759	85.5
223.977	34.3
224.195	48.64
224.413	15.87
224.631	65.02
224.849	30.21
225.067	40.45
225.285	7.68
225.503	-31.23
225.721	-31.23
225.939	22.02
226.157	32.26
226.375	56.83
226.592	-66.05
226.81	38.4
227.028	34.3
227.246	58.88
227.464	58.88
227.682	65.02
227.9	69.12
228.117	40.45
228.335	26.11
228.553	3.58
228.771	-14.85
228.989	-0.51
229.206	7.68
229.424	9.73
229.642	-16.9
229.86	-31.23
230.077	-49.66
230.295	15.87
230.513	34.3
230.731	30.21
230.948	140.8
231.166	42.5
231.384	-14.85
231.601	62.98
231.819	-25.09
232.037	42.5
232.254	-39.42
232.472	81.41
232.689	-23.04
232.907	48.64
233.125	15.87
233.342	-14.85
233.56	42.5
233.777	-25.09
233.995	-25.09
234.213	34.3
234.43	13.82
234.648	-16.9
234.865	24.06
235.083	32.26
235.3	50.69
235.518	65.02
235.735	65.02
235.953	83.45
236.17	42.5
236.388	89.6
236.605	11.78
236.822	-27.14
237.04	50.69
237.257	9.73
237.475	7.68
237.692	26.11
237.909	40.45
238.127	40.45
238.344	73.21
238.562	17.92
238.779	-49.66
238.996	11.78
239.214	97.79
239.431	77.31
239.648	46.59
239.865	-0.51
240.083	56.83
240.3	17.92
240.517	32.26
240.735	15.87
240.952	40.45
241.169	48.64
241.386	42.5
241.603	-53.76
241.821	-68.09
242.038	24.06
242.255	48.64
242.472	-18.94
242.689	24.06
242.907	7.68
243.124	75.26
243.341	-33.28
243.558	-33.28
243.775	-6.66
243.992	-37.38
244.209	-6.66
244.426	48.64
244.643	-39.42
244.86	-115.2
245.078	-6.66
245.295	44.54
245.512	32.26
245.729	85.5
245.946	36.35
246.163	-23.04
246.38	32.26
246.597	24.06
246.814	-6.66
247.031	24.06
247.248	9.73
247.464	26.11
247.681	56.83
247.898	44.54
248.115	-31.23
248.332	17.92
248.549	83.45
248.766	73.21
248.983	9.73
249.2	44.54
249.417	44.54
249.633	-12.8
249.85	-49.66
250.067	32.26
250.284	-4.61
250.501	17.92
250.717	89.6
250.934	-55.81
251.151	26.11
251.368	-31.23
251.585	40.45
251.801	34.3
252.018	-23.04
252.235	42.5
252.451	7.68
252.668	48.64
252.885	73.21
253.102	101.89
253.318	50.69
253.535	-0.51
253.752	-0.51
253.968	48.64
254.185	75.26
254.401	30.21
254.618	5.63
254.835	26.11
255.051	85.5
255.268	17.92
255.484	-12.8
255.701	-8.7
255.917	-6.66
256.134	36.35
256.351	17.92
256.567	11.78
256.784	73.21
257	-2.56
257.217	105.98
257.433	34.3
257.65	81.41
257.866	42.5
258.082	38.4
258.299	65.02
258.515	58.88
258.732	-33.28
258.948	-14.85
259.165	7.68
259.381	89.6
259.597	22.02
259.814	36.35
260.03	34.3
260.246	-64
260.463	46.59
260.679	15.87
260.895	-47.62
261.112	40.45
261.328	15.87
261.544	34.3
261.761	34.3
261.977	7.68
262.193	26.11
262.409	26.11
262.626	-12.8
262.842	-31.23
263.058	75.26
263.274	-0.51
263.49	110.08
263.707	34.3
263.923	50.69
264.139	52.74
264.355	-6.66
264.571	7.68
264.787	56.83
265.004	89.6
265.22	-0.51
265.436	-16.9
265.652	3.58
265.868	-25.09
266.084	1.54
266.3	52.74
266.516	-35.33
266.732	28.16
266.948	34.3
267.164	-35.33
267.38	24.06
267.596	44.54
267.812	34.3
268.028	-0.51
268.244	-51.71
268.46	26.11
268.676	9.73
268.892	-8.7
269.108	-0.51
269.324	-55.81
269.54	11.78
269.756	17.92
269.972	11.78
270.188	36.35
270.403	-41.47
270.619	30.21
270.835	-8.7
271.051	19.97
271.267	-70.14
271.483	15.87
271.698	-57.86
271.914	-0.51
272.13	40.45
272.346	-12.8
272.562	15.87
272.777	48.64
272.993	-2.56
273.209	17.92
273.425	11.78
273.64	24.06
273.856	65.02
274.072	-33.28
274.287	-8.7
274.503	42.5
274.719	-6.66
274.934	3.58
275.15	-37.38
275.366	73.21
275.581	30.21
275.797	108.03
276.012	69.12
276.228	48.64
276.444	19.97
276.659	56.83
276.875	-55.81
277.09	11.78
277.306	40.45
277.521	48.64
277.737	-8.7
277.952	42.5
278.168	-33.28
278.383	65.02
278.599	15.87
278.814	32.26
279.03	34.3
279.245	7.68
279.461	-20.99
279.676	11.78
279.892	-6.66
280.107	-64
280.322	-49.66
280.538	-0.51
280.753	67.07
280.969	42.5
281.184	-8.7
281.399	26.11
281.615	24.06
281.83	67.07
282.045	-86.53
282.26	24.06
282.476	34.3
282.691	56.83
282.906	30.21
283.122	13.82
283.337	-41.47
283.552	5.63
283.767	34.3
283.983	24.06
284.198	38.4
284.413	58.88
284.628	11.78
284.843	11.78
285.058	3.58
285.274	-43.52
285.489	-74.24
285.704	60.93
285.919	58.88
286.134	38.4
286.349	19.97
286.564	58.88
286.779	56.83
286.995	28.16
287.21	-16.9
287.425	89.6
287.64	-8.7
287.855	46.59
288.07	-18.94
288.285	95.74
288.5	11.78
288.715	7.68
288.93	48.64
289.145	-2.56
289.36	9.73
289.575	9.73
289.79	15.87
290.004	-14.85
290.219	40.45
290.434	-55.81
290.649	-33.28
290.864	-0.51
291.079	19.97
291.294	48.64
291.509	40.45
291.724	32.26
291.938	-23.04
292.153	15.87
292.368	11.78
292.583	60.93
292.798	40.45
293.012	38.4
293.227	81.41
293.442	-82.43
293.657	-20.99
293.871	28.16
294.086	-16.9
294.301	15.87
294.516	65.02
294.73	40.45
294.945	-14.85
295.16	46.59
295.374	-33.28
295.589	40.45
295.804	7.68
296.018	-33.28
296.233	-12.8
296.447	105.98
296.662	-33.28
296.877	42.5
297.091	17.92
297.306	-49.66
297.52	11.78
297.735	52.74
297.949	67.07
298.164	-35.33
298.378	26.11
298.593	-35.33
298.807	44.54
299.022	99.84
299.236	-0.51
299.451	48.64
299.665	48.64
299.88	44.54
300.094	77.31
300.309	-8.7
300.523	3.58
300.737	-14.85
300.952	54.78
301.166	-29.18
301.381	-6.66
301.595	36.35
301.809	60.93
302.024	19.97
302.238	-27.14
302.452	40.45
302.667	-16.9
302.881	9.73
303.095	5.63
303.309	24.06
303.524	-2.56
303.738	28.16
303.952	-6.66
304.166	65.02
304.381	-90.62
304.595	56.83
304.809	-12.8
305.023	22.02
305.237	19.97
305.452	-0.51
305.666	-4.61
305.88	19.97
306.094	11.78
306.308	19.97
306.522	52.74
306.736	114.17
306.95	71.17
307.164	-33.28
307.379	5.63
307.593	52.74
307.807	11.78
308.021	44.54
308.235	-12.8
308.449	-0.51
308.663	60.93
308.877	50.69
309.091	52.74
309.305	105.98
309.519	-33.28
309.733	73.21
309.947	-35.33
310.161	81.41
310.374	97.79
310.588	52.74
310.802	-35.33
311.016	50.69
311.23	-53.76
311.444	-16.9
311.658	-10.75
311.872	52.74
312.085	48.64
312.299	19.97
312.513	44.54
312.727	42.5
312.941	-8.7
313.154	56.83
313.368	28.16
313.582	26.11
313.796	-2.56
314.009	-8.7
314.223	58.88
314.437	17.92
314.651	28.16
314.864	40.45
315.078	19.97
315.292	-31.23
315.505	50.69
315.719	17.92
315.933	15.87
316.146	7.68
316.36	48.64
316.573	32.26
316.787	-12.8
317.001	44.54
317.214	-25.09
317.428	48.64
317.641	28.16
317.855	9.73
318.068	44.54
318.282	36.35
318.495	58.88
318.709	40.45
318.922	48.64
319.136	89.6
319.349	-12.8
319.563	9.73
319.776	11.78
319.99	-12.8
320.203	34.3
320.417	22.02
320.63	17.92
320.843	95.74
321.057	32.26
321.27	28.16
321.483	40.45
321.697	126.46
321.91	28.16
322.124	-14.85
322.337	36.35
322.55	42.5
322.763	-14.85
322.977	48.64
323.19	-6.66
323.403	-20.99
323.617	3.58
323.83	34.3
324.043	32.26
324.256	-6.66
324.469	-0.51
324.683	73.21
324.896	-18.94
325.109	69.12
325.322	69.12
325.535	50.69
325.748	15.87
325.962	103.93
326.175	-4.61
326.388	122.37
326.601	83.45
326.814	17.92
327.027	7.68
327.24	38.4
327.453	-49.66
327.666	32.26
327.879	13.82
328.092	99.84
328.305	-16.9
328.518	42.5
328.731	42.5
328.944	22.02
329.157	13.82
329.37	-33.28
329.583	60.93
329.796	79.36
330.009	-6.66
330.222	-35.33
330.435	40.45
330.648	44.54
330.861	32.26
331.073	-72.19
331.286	30.21
331.499	-23.04
331.712	32.26
331.925	56.83
332.138	7.68
332.35	17.92
332.563	75.26
332.776	34.3
332.989	9.73
333.202	13.82
333.414	56.83
333.627	38.4
333.84	48.64
334.053	85.5
334.265	34.3
334.478	-0.51
334.691	11.78
334.903	-14.85
335.116	13.82
335.329	19.97
335.541	26.11
335.754	112.13
335.966	52.74
336.179	24.06
336.392	-20.99
336.604	-14.85
336.817	60.93
337.029	50.69
337.242	44.54
337.454	77.31
337.667	22.02
337.88	56.83
338.092	-2.56
338.305	60.93
338.517	67.07
338.729	93.69
338.942	22.02
339.154	-4.61
339.367	24.06
339.579	58.88
339.792	-12.8
340.004	67.07
340.217	3.58
340.429	44.54
340.641	-0.51
340.854	-20.99
341.066	28.16
341.278	120.32
341.491	32.26
341.703	69.12
341.915	-18.94
342.128	42.5
342.34	-6.66
342.552	36.35
342.764	-23.04
342.977	28.16
343.189	44.54
343.401	-4.61
343.613	9.73
343.826	34.3
344.038	24.06
344.25	67.07
344.462	40.45
344.674	-16.9
344.886	19.97
345.099	15.87
345.311	11.78
345.523	-16.9
345.735	-33.28
345.947	-25.09
346.159	69.12
346.371	17.92
346.583	56.83
346.795	114.17
347.007	-6.66
347.219	48.64
347.431	-8.7
347.643	60.93
347.855	-16.9
348.067	71.17
348.279	5.63
348.491	-6.66
348.703	69.12
348.915	30.21
349.127	-31.23
349.339	-8.7
349.551	-2.56
349.763	65.02
349.975	17.92
350.187	48.64
350.399	34.3
350.61	40.45
350.822	-51.71
351.034	40.45
351.246	46.59
351.458	-16.9
351.669	40.45
351.881	-12.8
352.093	13.82
352.305	91.65
352.517	85.5
352.728	26.11
352.94	5.63
353.152	3.58
353.363	-49.66
353.575	46.59
353.787	65.02
353.999	54.78
354.21	52.74
354.422	-6.66
354.633	-57.86
354.845	13.82
355.057	67.07
355.268	34.3
355.48	89.6
355.692	42.5
355.903	22.02
356.115	3.58
356.326	-23.04
356.538	-10.75
356.749	79.36
356.961	48.64
357.172	19.97
357.384	-12.8
357.595	99.84
357.807	77.31
358.018	56.83
358.23	9.73
358.441	52.74
358.653	7.68
358.864	-0.51
359.075	60.93
359.287	-20.99
359.498	19.97
359.709	58.88
359.921	-8.7
360.132	17.92
360.344	60.93
360.555	-31.23
360.766	17.92
360.977	24.06
361.189	73.21
361.4	93.69
361.611	89.6
361.823	-64
362.034	52.74
362.245	-0.51
362.456	-4.61
362.667	87.55
362.879	65.02
363.09	7.68
363.301	-14.85
363.512	60.93
363.723	24.06
363.935	-39.42
364.146	130.56
364.357	15.87
364.568	13.82
364.779	11.78
364.99	83.45
365.201	-25.09
365.412	17.92
365.623	-64
365.834	91.65
366.045	38.4
366.256	163.33
366.467	44.54
366.678	17.92
366.889	1.54
367.1	-8.7
367.311	38.4
367.522	5.63
367.733	50.69
367.944	7.68
368.155	-16.9
368.366	73.21
368.577	32.26
368.788	81.41
368.999	3.58
369.209	62.98
369.42	52.74
369.631	114.17
369.842	-4.61
370.053	3.58
370.264	91.65
370.474	-43.52
370.685	34.3
370.896	11.78
371.107	97.79
371.317	7.68
371.528	28.16
371.739	24.06
371.95	28.16
372.16	34.3
372.371	17.92
372.582	-8.7
372.792	48.64
373.003	56.83
373.214	89.6
373.424	32.26
373.635	-12.8
373.846	56.83
374.056	89.6
374.267	9.73
374.477	48.64
374.688	-20.99
374.898	97.79
375.109	46.59
375.319	40.45
375.53	7.68
375.74	83.45
375.951	15.87
376.161	-47.62
376.372	44.54
376.582	-8.7
376.793	52.74
377.003	58.88
377.214	73.21
377.424	77.31
377.635	-35.33
377.845	-80.38
378.055	75.26
378.266	-8.7
378.476	3.58
378.686	-20.99
378.897	44.54
379.107	56.83
379.317	15.87
379.528	-33.28
379.738	26.11
379.948	46.59
380.158	40.45
380.369	-37.38
380.579	116.22
380.789	-25.09
380.999	-4.61
381.21	44.54
381.42	93.69
381.63	91.65
381.84	-8.7
382.05	54.78
382.261	-41.47
382.471	48.64
382.681	48.64
382.891	22.02
383.101	89.6
383.311	-0.51
383.521	44.54
383.731	99.84
383.941	81.41
384.151	36.35
384.361	60.93
384.571	15.87
384.781	56.83
384.991	40.45
385.201	91.65
385.411	-66.05
385.621	65.02
385.831	67.07
386.041	40.45
386.251	9.73
386.461	87.55
386.671	48.64
386.881	24.06
387.091	22.02
387.301	15.87
387.511	15.87
387.72	1.54
387.93	58.88
388.14	89.6
388.35	15.87
388.56	81.41
388.769	83.45
388.979	54.78
389.189	24.06
389.399	73.21
389.609	101.89
389.818	77.31
390.028	56.83
390.238	122.37
390.447	48.64
390.657	44.54
390.867	1.54
391.076	22.02
391.286	73.21
391.496	81.41
391.705	-43.52
391.915	105.98
392.125	73.21
392.334	40.45
392.544	73.21
392.753	17.92
392.963	87.55
393.172	93.69
393.382	83.45
393.591	73.21
393.801	81.41
394.01	52.74
394.22	15.87
394.429	28.16
394.639	32.26
394.848	91.65
395.058	19.97
395.267	114.17
395.477	69.12
395.686	69.12
395.895	46.59
396.105	83.45
396.314	58.88
396.524	22.02
396.733	15.87
396.942	69.12
397.152	62.98
397.361	122.37
397.57	87.55
397.78	73.21
397.989	48.64
398.198	89.6
398.407	83.45
398.617	126.46
398.826	58.88
399.035	65.02
399.244	87.55
399.453	118.27
399.663	81.41
399.872	112.13
400.081	89.6
400.29	-20.99
400.499	65.02
400.708	46.59
400.917	69.12
401.127	9.73
401.336	60.93
401.545	103.93
401.754	42.5
401.963	103.93
402.172	99.84
402.381	36.35
402.59	73.21
402.799	130.56
403.008	81.41
403.217	93.69
403.426	93.69
403.635	77.31
403.844	87.55
404.053	67.07
404.262	40.45
404.471	138.75
404.68	99.84
404.888	89.6
405.097	122.37
405.306	140.8
405.515	28.16
405.724	130.56
405.933	99.84
406.142	177.66
406.35	153.09
406.559	146.94
406.768	44.54
406.977	138.75
407.185	212.48
407.394	138.75
407.603	73.21
407.812	126.46
408.02	167.42
408.229	148.99
408.438	214.52
408.646	126.46
408.855	134.65
409.064	228.86
409.272	181.76
409.481	241.15
409.69	212.48
409.898	239.1
410.107	288.25
410.315	169.47
410.524	220.67
410.733	249.34
410.941	183.81
411.15	202.24
411.358	253.44
411.567	302.59
411.775	304.64
411.984	228.86
412.192	257.53
412.401	237.05
412.609	302.59
412.818	345.59
413.026	339.45
413.234	380.41
413.443	359.93
413.651	318.97
413.86	372.22
414.068	425.47
414.276	396.79
414.485	312.83
414.693	443.9
414.901	425.47
415.11	394.75
415.318	398.84
415.526	382.46
415.734	515.58
415.943	495.1
416.151	552.44
416.359	648.69
416.567	515.58
416.776	581.11
416.984	679.41
417.192	673.27
417.4	556.54
417.608	552.44
417.817	720.37
418.025	712.18
418.233	730.61
418.441	720.37
418.649	765.43
418.857	773.62
419.065	843.25
419.273	919.03
419.481	904.69
419.689	830.96
419.897	990.7
420.105	916.98
420.313	1078.77
420.521	1000.94
420.729	1019.38
420.937	1015.28
421.145	1068.53
421.353	1115.63
421.561	1281.52
421.769	1179.12
421.977	1297.9
422.185	1271.28
422.393	1359.34
422.601	1498.6
422.809	1424.87
423.017	1408.49
423.224	1490.41
423.432	1517.03
423.64	1689.06
423.848	1762.79
424.056	1566.18
424.263	1752.55
424.471	1801.7
424.679	1818.08
424.887	1897.96
425.094	1846.76
425.302	1918.43
425.51	1986.02
425.718	2090.46
425.925	2166.24
426.133	2092.51
426.341	2344.41
426.548	2440.67
426.756	2424.28
426.964	2371.04
427.171	2547.16
427.379	2465.24
427.586	2694.61
427.794	2815.45
428.001	2850.26
428.209	3091.92
428.417	2948.56
428.624	3229.13
428.832	3114.45
429.039	3155.41
429.247	3161.55
429.454	3349.96
429.662	3753.41
429.869	3407.31
430.076	3857.86
430.284	3501.51
430.491	3859.91
430.699	3874.24
430.906	3878.34
431.114	3978.69
431.321	4156.86
431.528	4253.12
431.736	4523.45
431.943	4660.66
432.15	4593.08
432.358	4787.64
432.565	5012.92
432.772	4799.93
432.979	5041.59
433.187	5211.57
433.394	5158.32
433.601	5518.76
433.808	5639.59
434.016	5440.94
434.223	5746.09
434.43	6032.8
434.637	5969.32
434.844	6417.82
435.052	6612.38
435.259	6489.5
435.466	6622.62
435.673	6348.19
435.88	6895
436.087	7120.28
436.294	7187.86
436.501	7189.91
436.708	7171.47
436.915	7335.31
437.122	7904.65
437.329	7581.07
437.537	8117.64
437.743	8068.48
437.95	8086.92
438.157	8361.34
438.364	8760.7
438.571	8768.89
438.778	8744.31
438.985	9409.9
439.192	9086.33
439.399	9403.76
439.606	9305.46
439.813	9903.46
440.02	10567.01
440.227	10335.59
440.433	10296.67
440.64	10204.52
440.847	10216.8
441.054	10681.69
441.261	11351.38
441.467	11119.96
441.674	11437.39
441.881	11816.27
442.088	11861.32
442.294	11642.19
442.501	11957.58
442.708	12066.12
442.914	12483.91
443.121	13409.59
443.328	12789.05
443.534	13702.45
443.741	13311.28
443.948	13122.87
444.154	14204.2
444.361	14058.79
444.568	14128.42
444.774	13954.35
444.981	14165.29
445.187	14628.13
445.394	15455.51
445.6	15279.38
445.807	16813.31
446.013	15885.58
446.22	15940.88
446.426	16715.01
446.633	17005.82
446.839	17480.95
447.046	16803.07
447.252	17972.46
447.459	17738.99
447.665	17724.66
447.871	18384.1
448.078	19236.06
448.284	18255.08
448.491	18826.46
448.697	19645.65
448.903	19920.08
449.11	20128.97
449.316	19434.71
449.522	19997.9
449.728	20405.45
449.935	20815.04
450.141	20423.88
450.347	21167.29
450.553	20579.53
450.76	20833.47
450.966	21339.32
451.172	21236.92
451.378	21982.38
451.584	21269.69
451.791	21966
451.997	21742.77
452.203	21990.58
452.409	22252.72
452.615	21867.7
452.821	21382.33
453.027	21365.95
453.233	22451.37
453.44	21507.26
453.646	21734.58
453.852	21621.94
454.058	21929.14
454.264	21277.88
454.47	21945.52
454.676	21521.59
454.882	22195.37
455.088	20102.35
455.294	20266.19
455.5	21019.84
455.705	21363.9
455.911	20237.52
456.117	19832.02
456.323	19807.44
456.529	18578.66
456.735	19377.37
456.941	18851.04
457.147	18463.97
457.352	18173.16
457.558	18222.31
457.764	17980.65
457.97	17718.51
458.176	17284.34
458.381	17243.38
458.587	16506.12
458.793	16327.94
458.999	15621.39
459.204	16473.35
459.41	16307.46
459.616	15123.74
459.821	15328.53
460.027	14886.17
460.233	14939.42
460.438	14103.85
460.644	14544.16
460.85	13565.23
461.055	13407.54
461.261	13376.82
461.466	12502.34
461.672	12156.23
461.878	12787
462.083	12025.16
462.289	11892.04
462.494	11668.81
462.7	11509.07
462.905	10954.07
463.111	11388.24
463.316	11240.79
463.522	11138.39
463.727	11099.48
463.932	10956.12
464.138	10937.69
464.343	11025.75
464.549	10626.4
464.754	11076.95
464.959	10757.47
465.165	10837.34
465.37	10231.14
465.575	9995.62
465.781	10493.28
465.986	10480.99
466.191	9999.72
466.397	10075.49
466.602	9274.74
466.807	9991.53
467.012	9749.87
467.218	9725.29
467.423	9573.74
467.628	9678.19
467.833	10190.18
468.038	9858.41
468.244	9469.3
468.449	9917.8
468.654	9461.1
468.859	9649.52
469.064	9512.3
469.269	9012.6
469.474	9160.05
469.679	9256.31
469.885	8955.26
470.09	9084.28
470.295	9225.59
470.5	8779.13
470.705	8926.58
470.91	8744.31
471.115	8607.1
471.32	8674.68
471.525	8484.22
471.73	8564.09
471.935	8603
472.139	8265.09
472.344	8512.89
472.549	8195.46
472.754	8121.73
472.959	8187.27
473.164	7822.73
473.369	7736.71
473.574	8021.38
473.778	7972.23
473.983	7898.5
474.188	7841.16
474.393	7701.9
474.598	7548.3
474.802	7323.02
475.007	7394.7
475.212	7433.61
475.417	7148.95
475.621	7116.18
475.826	7282.06
476.031	7142.8
476.235	6841.75
476.44	6989.21
476.645	6833.56
476.849	6872.47
477.054	6792.6
477.259	6561.18
477.463	6700.44
477.668	6616.48
477.872	6526.36
478.077	6315.42
478.282	6428.06
478.486	6294.94
478.691	6135.2
478.895	6368.67
479.1	6198.69
479.304	6176.16
479.509	6000.04
479.713	6124.96
479.918	6045.09
480.122	5832.1
480.326	5813.67
480.531	5828.01
480.735	5809.58
480.94	5823.91
481.144	6036.9
481.348	5795.24
481.553	5823.91
481.757	5645.74
481.961	5746.09
482.166	5914.02
482.37	5696.94
482.574	5627.31
482.778	5756.33
482.983	5713.32
483.187	5733.8
483.391	5725.61
483.595	5645.74
483.8	5741.99
484.004	5752.23
484.208	5739.94
484.412	5569.96
484.616	5684.65
484.821	5627.31
485.025	5588.39
485.229	5836.2
485.433	5471.66
485.637	5721.51
485.841	5766.57
486.045	5569.96
486.249	5791.14
486.453	5631.4
486.657	5565.87
486.861	5602.73
487.065	5533.1
487.269	5549.48
487.473	5606.83
487.677	5754.28
487.881	5684.65
488.085	5666.22
488.289	5705.13
488.493	5621.16
488.697	5850.53
488.901	5635.5
489.105	5737.9
489.309	5725.61
489.512	5567.92
489.716	5762.47
489.92	5592.49
490.124	5825.96
490.328	5741.99
490.531	5758.38
490.735	5873.06
490.939	5864.87
491.143	5717.42
491.346	5770.66
491.55	5889.45
491.754	6041
491.958	5881.25
492.161	6022.56
492.365	6012.32
492.569	5873.06
492.772	5778.86
492.976	5987.75
493.18	6036.9
493.383	6047.14
493.587	6112.67
493.79	6208.93
493.994	5981.6
494.197	6167.97
494.401	6243.74
494.605	6358.43
494.808	6391.2
495.012	6266.27
495.215	6321.57
495.419	6499.74
495.622	6415.77
495.825	6483.36
496.029	6493.6
496.232	6839.7
496.436	6587.8
496.639	6792.6
496.843	6725.02
497.046	6864.28
497.249	6935.96
497.453	7003.54
497.656	7175.57
497.859	7202.19
498.063	7044.5
498.266	7247.25
498.469	7171.47
498.673	7198.1
498.876	7406.99
499.079	7482.77
499.282	7517.58
499.485	7718.28
499.689	7609.74
499.892	7736.71
500.095	7884.17
500.298	8039.81
500.501	7957.89
500.705	8326.53
500.908	8301.95
501.111	8228.23
501.314	8402.3
501.517	8449.41
501.72	8478.08
501.923	8662.4
502.126	8861.05
502.329	8934.78
502.532	8938.87
502.735	8822.14
502.938	9231.73
503.141	9086.33
503.344	9463.15
503.547	9309.55
503.75	9518.45
503.953	9612.65
504.156	9557.36
504.359	9848.17
504.562	9774.44
504.765	10073.45
504.968	10216.8
505.17	10057.06
505.373	10378.59
505.576	10556.77
505.779	10433.89
505.982	10653.02
506.185	10605.92
506.387	10804.57
506.59	10892.63
506.793	11097.43
506.996	11113.81
507.198	11537.74
507.401	11332.95
507.604	11586.9
507.807	11699.53
508.009	11803.98
508.212	11703.63
508.415	11967.82
508.617	12156.23
508.82	12199.24
509.022	12131.65
509.225	12635.46
509.428	12475.71
509.63	12645.7
509.833	12502.34
510.035	13014.33
510.238	12911.93
510.44	13342
510.643	13368.63
510.845	13382.96
511.048	13350.2
511.25	13563.19
511.453	13919.53
511.655	13950.25
511.858	14073.13
512.06	14081.32
512.262	14460.2
512.465	14499.11
512.667	14529.83
512.87	14941.47
513.072	14679.33
513.274	15105.31
513.477	14757.15
513.679	15351.06
513.881	15498.52
514.084	15596.82
514.286	15375.64
514.488	15396.12
514.69	16104.71
514.893	16155.91
515.095	16164.11
515.297	16309.51
515.499	16192.78
515.701	16921.85
515.904	16588.03
516.106	16780.54
516.308	17087.74
516.51	17210.62
516.712	17186.04
516.914	17478.9
517.116	17771.76
517.318	17726.71
517.52	17734.9
517.722	17632.5
517.925	18119.92
518.127	18554.08
518.329	18474.21
518.531	18341.1
518.733	18578.66
518.935	18930.91
519.136	18906.34
519.338	19094.75
519.54	19139.8
519.742	19698.9
519.944	19528.92
520.146	20133.07
520.348	20124.88
520.55	19864.78
520.752	20372.68
520.954	20567.24
521.155	20464.84
521.357	20870.34
521.559	21011.65
521.761	21095.61
521.963	21202.11
522.164	21185.72
522.366	21363.9
522.568	21447.86
522.77	21529.78
522.971	22135.98
523.173	21732.53
523.375	22119.6
523.576	22119.6
523.778	22009.01
523.98	22408.36
524.181	22310.06
524.383	22379.69
524.584	22791.33
524.786	22707.37
524.988	23080.1
525.189	22885.54
525.391	23538.84
525.592	23338.14
525.794	23358.62
525.995	23469.21
526.197	23473.31
526.398	23641.24
526.6	23379.1
526.801	23747.73
527.003	23790.74
527.204	24370.32
527.406	24183.95
527.607	24192.14
527.808	24472.71
528.01	24151.18
528.211	24513.67
528.412	24693.9
528.614	24618.12
528.815	24577.16
529.016	24829.06
529.218	24386.7
529.419	24685.7
529.62	24777.86
529.822	24790.15
530.023	24781.96
530.224	24976.51
530.425	24904.84
530.626	24536.2
530.828	24636.55
531.029	25259.13
531.23	25017.47
531.431	24923.27
531.632	25085.06
531.833	25228.42
532.035	25017.47
532.236	24988.8
532.437	25171.07
532.638	24890.5
532.839	25101.44
533.04	25363.58
533.241	25091.2
533.442	25504.89
533.643	25373.82
533.844	25341.05
534.045	25277.57
534.246	25339.01
534.447	25375.87
534.648	25416.83
534.849	25259.13
535.05	25050.24
535.251	25240.7
535.451	25160.83
535.652	25275.52
535.853	25142.4
536.054	25580.67
536.255	25232.51
536.456	25044.1
536.657	25549.95
536.857	25279.61
537.058	24939.65
537.259	25748.6
537.46	25404.54
537.66	25656.44
537.861	25527.42
538.062	25316.48
538.263	25357.44
538.463	25418.88
538.664	25291.9
538.865	25474.17
539.065	25484.41
539.266	25175.17
539.466	25431.16
539.667	25142.4
539.868	25633.91
540.068	25308.29
540.269	24956.04
540.469	25539.71
540.67	25494.65
540.87	25058.43
541.071	25613.43
541.271	25060.48
541.472	25101.44
541.672	25375.87
541.873	25126.02
542.073	24935.56
542.274	25150.59
542.474	25222.27
542.675	24994.95
542.875	25408.64
543.075	24999.04
543.276	24900.74
543.476	25154.69
543.676	24923.27
543.877	25058.43
544.077	25140.35
544.277	25050.24
544.478	25011.33
544.678	25330.81
544.878	25091.2
545.078	25175.17
545.279	24734.85
545.479	25087.11
545.679	25076.87
545.879	25048.19
546.079	24962.18
546.28	25119.87
546.48	24697.99
546.68	25115.78
546.88	25013.38
547.08	24712.33
547.28	24845.44
547.48	24620.17
547.68	25199.74
547.88	24917.12
548.081	25060.48
548.281	24958.08
548.481	24958.08
548.681	25265.28
548.881	24964.23
549.081	24765.57
549.28	24814.73
549.48	24890.5
549.68	24790.15
549.88	25138.3
550.08	24566.92
550.28	24945.8
550.48	24634.5
550.68	24829.06
550.88	24927.36
551.08	24773.77
551.279	24577.16
551.479	24640.65
551.679	24833.16
551.879	24683.66
552.079	24779.91
552.278	24603.78
552.478	24837.25
552.678	24648.84
552.878	24775.81
553.077	24562.83
553.277	24495.24
553.477	25142.4
553.676	24939.65
553.876	24577.16
554.076	24605.83
554.275	24697.99
554.475	24632.46
554.674	24706.18
554.874	24460.43
555.074	24290.45
555.273	24532.11
555.473	24829.06
555.672	24130.7
555.872	24261.77
556.071	24620.17
556.271	24702.09
556.47	24550.54
556.67	24325.26
556.869	24249.49
557.068	24439.95
557.268	24140.94
557.467	24099.98
557.667	24188.05
557.866	24341.64
558.065	24380.56
558.265	23858.32
558.464	24102.03
558.663	24542.35
558.863	23757.97
559.062	24417.42
559.261	23743.64
559.461	24364.17
559.66	23749.78
559.859	24108.18
560.058	23749.78
560.258	23970.96
560.457	23764.12
560.656	23805.08
560.855	23583.9
561.054	23725.21
561.253	23542.94
561.453	23780.5
561.652	23475.35
561.851	23757.97
562.05	23686.29
562.249	23413.91
562.448	23471.26
562.647	23536.79
562.846	23606.42
563.045	23438.49
563.244	23121.06
563.443	23669.91
563.642	23194.78
563.841	23104.67
564.04	23061.66
564.239	23364.76
564.438	23239.84
564.637	22951.07
564.836	23094.43
565.035	22879.39
565.234	23016.61
565.432	22699.17
565.631	22860.96
565.83	22942.88
566.029	22682.79
566.228	22672.55
566.427	22674.6
566.625	22580.39
566.824	22367.4
567.023	22531.24
567.222	22451.37
567.42	22658.21
567.619	22494.38
567.818	22371.5
568.016	22510.76
568.215	22588.58
568.414	22394.03
568.612	22357.16
568.811	22133.93
569.01	22308.01
569.208	22080.69
569.407	22154.41
569.605	21890.23
569.804	22213.81
570.002	21820.6
570.201	21869.75
570.4	21695.67
570.598	21759.16
570.797	21634.23
570.995	21406.91
571.193	21628.09
571.392	21474.49
571.59	21400.76
571.789	21101.76
571.987	21767.35
572.186	21343.42
572.384	21322.94
572.582	21263.55
572.781	21183.68
572.979	21042.37
573.177	21140.67
573.376	21093.57
573.574	21103.81
573.772	20886.72
573.971	20683.97
574.169	20522.18
574.367	20673.73
574.565	20931.78
574.763	20856
574.962	20401.35
575.16	20219.08
575.358	20473.03
575.556	20192.46
575.754	20694.21
575.952	20346.06
576.151	20460.74
576.349	20233.42
576.547	20184.27
576.745	20282.57
576.943	20280.52
577.141	20131.02
577.339	20206.8
577.537	19993.81
577.735	20188.36
577.933	20028.62
578.131	20231.37
578.329	19594.45
578.527	19731.67
578.725	19762.39
578.923	19606.74
579.121	19447
579.319	19604.69
579.516	19860.69
579.714	19545.3
579.912	19578.07
580.11	19375.32
580.308	19262.68
580.506	19068.13
580.704	19303.64
580.901	19096.8
581.099	19262.68
581.297	19006.69
581.495	19086.56
581.692	18953.44
581.89	18990.3
582.088	19047.65
582.285	18642.15
582.483	18779.36
582.681	18957.53
582.878	18738.4
583.076	18695.39
583.274	18566.37
583.471	18785.51
583.669	18296.04
583.866	18447.59
584.064	18492.65
584.262	18468.07
584.459	18699.49
584.657	18359.53
584.854	18363.62
585.052	18224.36
585.249	18392.3
585.447	18255.08
585.644	17702.13
585.841	18132.2
586.039	18111.72
586.236	17954.03
586.434	18183.4
586.631	17755.38
586.828	17659.12
587.026	17792.24
587.223	17698.03
587.42	17874.16
587.618	17657.07
587.815	17540.34
588.012	17476.85
588.21	17693.94
588.407	17591.54
588.604	17333.5
588.801	17640.69
588.999	17366.26
589.196	17333.5
589.393	17313.02
589.59	17140.99
589.787	16913.66
589.984	17104.12
590.182	16860.41
590.379	16766.21
590.576	16846.08
590.773	16887.04
590.97	16934.14
591.167	16727.3
591.364	16616.71
591.561	16594.18
591.758	16612.61
591.955	16366.85
592.152	16534.79
592.349	16446.73
592.546	16438.53
592.743	16397.57
592.94	16286.98
593.137	16307.46
593.334	16225.54
593.531	16112.91
593.727	16340.23
593.924	16211.21
594.121	16117
594.318	16174.35
594.515	16039.18
594.712	15992.08
594.908	15805.71
595.105	15805.71
595.302	15686.93
595.499	15729.94
595.696	15854.86
595.892	15469.84
596.089	15531.28
596.286	15506.71
596.482	15359.25
596.679	15680.78
596.876	15510.8
597.072	15432.98
597.269	15408.4
597.466	15289.62
597.662	15219.99
597.859	15342.87
598.055	15093.02
598.252	15084.83
598.448	15207.7
598.645	15019.29
598.841	14908.7
599.038	15121.69
599.234	15090.97
599.431	14847.26
599.627	14636.32
599.824	14908.7
600.02	14660.9
600.217	14695.71
600.413	14759.2
600.609	14558.5
600.806	14501.15
601.002	14599.46
601.198	14421.28
601.395	14380.32
601.591	14218.54
601.787	14302.5
601.984	14495.01
602.18	14355.75
602.376	14157.1
602.572	14245.16
602.769	14413.09
602.965	14038.31
603.161	14001.45
603.357	14114.09
603.553	13968.68
603.75	13911.34
603.946	13944.11
604.142	13960.49
604.338	13829.42
604.534	13667.63
604.73	13581.62
604.926	13935.92
605.122	13557.04
605.318	13696.3
605.514	13583.66
605.71	13522.23
605.906	13647.15
606.102	13374.77
606.298	13493.55
606.494	13587.76
606.69	13374.77
606.886	13479.22
607.082	13112.63
607.278	13505.84
607.474	13051.19
607.67	13288.76
607.866	13104.44
608.062	13065.53
608.257	13139.26
608.453	13311.28
608.649	13268.28
608.845	13030.71
609.041	13114.68
609.236	13096.25
609.432	12995.9
609.628	13151.54
609.824	12963.13
610.019	12827.96
610.215	12991.8
610.411	13247.8
610.606	12764.48
610.802	12866.88
610.998	12959.03
611.193	12633.41
611.389	12780.86
611.584	12793.15
611.78	12688.7
611.976	12500.29
612.171	12700.99
612.367	12709.18
612.562	12698.94
612.758	12475.71
612.953	12444.99
613.149	12457.28
613.344	12424.51
613.539	12518.72
613.735	12475.71
613.93	12686.65
614.126	12219.72
614.321	12709.18
614.517	12598.59
614.712	12277.06
614.907	12373.32
615.103	12281.16
615.298	12246.34
615.493	12279.11
615.688	12033.35
615.884	12287.3
616.079	12154.18
616.274	12277.06
616.47	12119.37
616.665	12244.29
616.86	12068.17
617.055	12182.85
617.25	11980.11
617.445	11922.76
617.641	11824.46
617.836	12008.78
618.031	11515.22
618.226	11885.9
618.421	11701.58
618.616	11816.27
618.811	11824.46
619.006	11918.67
619.201	11808.08
619.396	11754.83
619.591	11674.96
619.786	11580.75
619.981	11525.46
620.176	11482.45
620.371	11453.78
620.566	11435.35
620.761	11316.56
620.956	11425.11
621.151	10978.65
621.346	11169.11
621.541	11046.23
621.735	11218.26
621.93	10792.28
622.125	11009.37
622.32	11013.46
622.515	10843.48
622.709	10917.21
622.904	10722.65
623.099	10454.37
623.294	10868.06
623.488	10440.03
623.683	10749.28
623.878	10257.76
624.072	10333.54
624.267	10548.58
624.462	10132.84
624.656	10167.65
624.851	10308.96
625.046	10198.37
625.24	10065.25
625.435	10143.08
625.629	10136.93
625.824	9979.24
626.018	9756.01
626.213	9756.01
626.407	10048.87
626.602	9626.99
626.796	9852.27
626.991	9616.75
627.185	9510.25
627.38	9526.64
627.574	9518.45
627.768	9592.17
627.963	9502.06
628.157	9370.99
628.352	9244.02
628.546	9295.22
628.74	9311.6
628.935	9237.88
629.129	9282.93
629.323	8981.88
629.517	9051.51
629.712	8951.16
629.906	8998.26
630.1	8781.18
630.294	8752.51
630.489	8912.25
630.683	8768.89
630.877	8543.61
631.071	8506.75
631.265	8633.72
631.459	8433.02
631.653	8480.13
631.848	8523.13
632.042	8369.54
632.236	8205.7
632.43	8473.98
632.624	8205.7
632.818	8242.56
633.012	8162.69
633.206	8115.59
633.4	8387.97
633.594	8109.44
633.788	7978.37
633.982	7994.76
634.176	8017.29
634.369	7830.92
634.563	7978.37
634.757	7955.85
634.951	7835.02
635.145	7779.72
635.339	7654.8
635.533	7753.1
635.726	7583.12
635.92	7480.72
636.114	7634.32
636.308	7603.6
636.501	7529.87
636.695	7511.44
636.889	7425.42
637.083	7368.08
637.276	7425.42
637.47	7439.76
637.664	7241.11
637.857	7218.58
638.051	7179.67
638.244	7103.89
638.438	7105.94
638.632	7257.49
638.825	7015.83
639.019	7095.7
639.212	6874.52
639.406	6966.68
639.599	6897.05
639.793	6880.66
639.986	6741.4
640.18	6718.87
640.373	6856.09
640.567	6473.12
640.76	6624.67
640.954	6421.92
641.147	6743.45
641.34	6610.33
641.534	6577.56
641.727	6536.6
641.92	6317.47
642.114	6509.98
642.307	6309.28
642.5	6503.84
642.694	6337.95
642.887	6038.95
643.08	6307.23
643.273	6227.36
643.467	6274.46
643.66	6192.55
643.853	6000.04
644.046	5883.3
644.239	5987.75
644.432	5993.89
644.626	6063.52
644.819	5995.94
645.012	5881.25
645.205	5868.97
645.398	6057.38
645.591	5830.06
645.784	5887.4
645.977	5727.66
646.17	5733.8
646.363	5662.12
646.556	5627.31
646.749	5619.11
646.942	5744.04
647.135	5539.24
647.328	5590.44
647.521	5512.62
647.714	5502.38
647.907	5643.69
648.099	5416.37
648.292	5578.15
648.485	5463.47
648.678	5389.74
648.871	5227.95
649.064	5119.41
649.256	5143.99
649.449	5291.44
649.642	5143.99
649.835	5193.14
650.027	5225.9
650.22	5107.12
650.413	5117.36
650.605	5029.3
650.798	5074.35
650.991	5135.79
651.183	5078.45
651.376	4943.28
651.568	5062.07
651.761	4926.9
651.954	4939.19
652.146	4916.66
652.339	4980.15
652.531	4812.21
652.724	4898.23
652.916	4816.31
653.109	4631.99
653.301	4754.87
653.494	4795.83
653.686	4644.28
653.879	4777.4
654.071	4681.14
654.263	4464.06
654.456	4613.56
654.648	4582.84
654.84	4580.79
655.033	4482.49
655.225	4433.34
655.417	4388.29
655.61	4529.59
655.802	4543.93
655.994	4281.79
656.186	4404.67
656.379	4367.81
656.571	4507.07
656.763	4412.86
656.955	4193.73
657.148	4269.5
657.34	4234.69
657.532	4103.62
657.724	4367.81
657.916	4142.53
658.108	4107.71
658.3	4148.67
658.492	4294.08
658.684	4148.67
658.876	4040.13
659.068	4066.75
659.26	4095.43
659.452	3976.64
659.644	4068.8
659.836	3988.93
660.028	3816.9
660.22	3915.2
660.412	4001.22
660.604	3954.12
660.796	3861.96
660.988	3864.01
661.18	3759.56
661.372	3902.92
661.563	4005.31
661.755	3675.59
661.947	3835.33
662.139	3780.04
662.331	3665.35
662.522	3685.83
662.714	3786.18
662.906	3689.93
663.097	3630.54
663.289	3622.34
663.481	3495.37
663.673	3763.65
663.864	3536.33
664.056	3591.63
664.247	3507.66
664.439	3599.82
664.631	3409.36
664.822	3489.23
665.014	3585.48
665.205	3507.66
665.397	3427.79
665.588	3448.27
665.78	3335.63
665.971	3423.69
666.163	3253.71
666.354	3409.36
666.546	3315.15
666.737	3309.01
666.929	3374.54
667.12	3294.67
667.311	3304.91
667.503	3352.01
667.694	3358.16
667.885	3272.14
668.077	3196.37
668.268	3083.73
668.459	3227.09
668.651	3171.79
668.842	3126.74
669.033	3114.45
669.224	3171.79
669.416	3343.82
669.607	3118.54
669.798	2999.76
669.989	3173.84
670.18	3177.94
670.371	3136.98
670.563	3171.79
670.754	3161.55
670.945	3030.48
671.136	3018.19
671.327	3038.67
671.518	3085.78
671.709	3077.59
671.9	3018.19
672.091	3018.19
672.282	2940.37
672.473	2938.32
672.664	2973.14
672.855	3063.25
673.046	2936.28
673.237	2973.14
673.428	2960.85
673.619	2956.75
673.809	2911.7
674	2891.22
674.191	2889.17
674.382	2940.37
674.573	2915.8
674.764	2854.36
674.954	2860.5
675.145	2790.87
675.336	2833.88
675.527	2819.54
675.717	2891.22
675.908	2790.87
676.099	2837.97
676.289	2825.68
676.48	2721.24
676.671	2696.66
676.861	2694.61
677.052	2807.25
677.243	2684.38
677.433	2735.57
677.624	2758.1
677.814	2688.47
678.005	2715.09
678.195	2649.56
678.386	2667.99
678.576	2684.38
678.767	2643.42
678.957	2719.19
679.148	2751.96
679.338	2778.58
679.529	2721.24
679.719	2723.29
679.909	2817.49
680.1	2614.74
680.29	2600.41
680.481	2704.85
680.671	2729.43
680.861	2764.25
681.052	2622.94
681.242	2678.23
681.432	2760.15
681.622	2727.38
681.813	2610.65
682.003	2629.08
682.193	2594.26
682.383	2725.33
682.573	2530.78
682.764	2639.32
682.954	2657.75
683.144	2713.05
683.334	2549.21
683.524	2508.25
683.714	2598.36
683.904	2622.94
684.094	2555.35
684.284	2530.78
684.474	2575.83
684.664	2561.5
684.854	2577.88
685.044	2598.36
685.234	2543.07
685.424	2455
685.614	2459.1
685.804	2547.16
685.994	2520.54
686.184	2403.8
686.374	2498.01
686.564	2522.59
686.753	2334.17
686.943	2473.43
687.133	2547.16
687.323	2459.1
687.513	2414.04
687.702	2432.47
687.892	2440.67
688.082	2366.94
688.272	2409.95
688.461	2246.11
688.651	2391.52
688.841	2387.42
689.03	2368.99
689.22	2237.92
689.41	2356.7
689.599	2377.18
689.789	2307.55
689.979	2385.37
690.168	2350.56
690.358	2278.88
690.547	2104.8
690.737	2260.45
690.926	2280.93
691.116	2235.87
691.305	2221.53
691.495	2186.72
691.684	2137.57
691.874	2153.95
692.063	2139.62
692.252	2213.34
692.442	2217.44
692.631	2244.06
692.82	2123.23
693.01	2285.02
693.199	2211.29
693.388	2082.27
693.578	2139.62
693.767	2026.98
693.956	2170.33
694.146	2061.79
694.335	2084.32
694.524	2162.14
694.713	2104.8
694.902	1994.21
695.092	2121.18
695.281	2074.08
695.47	2024.93
695.659	2000.35
695.848	1994.21
696.037	1973.73
696.226	2112.99
696.415	2039.26
696.604	2110.94
696.793	2096.61
696.982	2043.36
697.171	2047.46
697.36	2016.74
697.549	2074.08
697.738	1908.19
697.927	1924.58
698.116	2000.35
698.305	1975.78
698.494	1943.01
698.683	1867.24
698.872	1990.11
699.061	1932.77
699.25	1906.15
699.438	2033.12
699.627	2004.45
699.816	1965.54
700.005	2018.79
700.193	1994.21
700.382	1897.96
700.571	2041.31
700.76	1965.54
700.948	2057.7
701.137	2014.69
701.326	2051.55
701.514	1902.05
701.703	2022.88
701.892	1904.1
702.08	1859.04
702.269	2043.36
702.457	1859.04
702.646	2022.88
702.834	1930.72
703.023	2022.88
703.212	1861.09
703.4	1910.24
703.589	1928.67
703.777	1904.1
703.965	1986.02
704.154	1877.48
704.342	1838.56
704.531	1949.15
704.719	1916.39
704.907	2002.4
705.096	1865.19
705.284	1908.19
705.472	1897.96
705.661	1932.77
705.849	2076.13
706.037	1940.96
706.226	1900
706.414	1910.24
706.602	1926.63
706.79	1940.96
706.979	1932.77
707.167	1897.96
707.355	1801.7
707.543	1879.52
707.731	1940.96
707.919	1949.15
708.107	1818.08
708.296	1920.48
708.484	1797.6
708.672	1906.15
708.86	1897.96
709.048	1854.95
709.236	1809.89
709.424	1924.58
709.612	1818.08
709.8	1846.76
709.988	1961.44
710.176	1953.25
710.364	1891.81
710.551	1918.43
710.739	1910.24
710.927	1859.04
711.115	1926.63
711.303	1852.9
711.491	1961.44
711.679	1871.33
711.866	1869.28
712.054	1875.43
712.242	1820.13
712.43	1986.02
712.617	1969.63
712.805	1877.48
712.993	1883.62
713.181	1920.48
713.368	1881.57
713.556	1883.62
713.744	1926.63
713.931	1871.33
714.119	1924.58
714.306	1867.24
714.494	1863.14
714.682	1912.29
714.869	1902.05
715.057	1895.91
715.244	1818.08
715.432	1906.15
715.619	1867.24
715.807	1869.28
715.994	1875.43
716.182	1940.96
716.369	1934.82
716.556	1928.67
716.744	1818.08
716.931	1938.91
717.119	1885.67
717.306	1924.58
717.493	1926.63
717.681	1828.32
717.868	1916.39
718.055	1869.28
718.242	1883.62
718.43	1844.71
718.617	1834.47
718.804	1844.71
718.991	2010.59
719.179	1807.84
719.366	1895.91
719.553	1781.22
719.74	1822.18
719.927	1902.05
720.114	1875.43
720.301	1748.45
720.488	1877.48
720.676	1846.76
720.863	1836.52
721.05	1865.19
721.237	1916.39
721.424	1828.32
721.611	1832.42
721.798	1873.38
721.985	1836.52
722.172	1883.62
722.358	1887.72
722.545	1857
722.732	1883.62
722.919	1893.86
723.106	1809.89
723.293	1818.08
723.48	1834.47
723.667	1961.44
723.853	1863.14
724.04	1912.29
724.227	1875.43
724.414	1834.47
724.6	1889.76
724.787	1809.89
724.974	1979.87
725.161	1832.42
725.347	1801.7
725.534	1891.81
725.72	1983.97
725.907	1877.48
726.094	1891.81
726.28	1854.95
726.467	1768.93
726.653	1850.85
726.84	1949.15
727.027	1879.52
727.213	1928.67
727.4	1813.99
727.586	1918.43
727.773	1859.04
727.959	1830.37
728.145	1910.24
728.332	1820.13
728.518	1842.66
728.705	1895.91
728.891	1875.43
729.077	1885.67
729.264	1764.84
729.45	1822.18
729.636	1924.58
729.823	1893.86
730.009	1873.38
730.195	1805.8
730.382	1924.58
730.568	1768.93
730.754	1938.91
730.94	1822.18
731.126	1840.61
731.313	1955.3
731.499	1883.62
731.685	1799.65
731.871	1857
732.057	1877.48
732.243	1881.57
732.429	1848.8
732.615	1846.76
732.801	1902.05
732.987	1813.99
733.173	1781.22
733.359	1877.48
733.545	1891.81
733.731	1897.96
733.917	1900
734.103	1756.65
734.289	1877.48
734.475	1748.45
734.661	1846.76
734.847	1842.66
735.033	1912.29
735.219	1797.6
735.404	1807.84
735.59	1715.69
735.776	1764.84
735.962	1865.19
736.148	1859.04
736.333	1770.98
736.519	1742.31
736.705	1850.85
736.89	1875.43
737.076	1859.04
737.262	1773.03
737.447	1760.74
737.633	1793.51
737.819	1795.56
738.004	1813.99
738.19	1744.36
738.375	1711.59
738.561	1818.08
738.747	1861.09
738.932	1828.32
739.118	1822.18
739.303	1818.08
739.489	1805.8
739.674	1785.32
739.859	1742.31
740.045	1777.12
740.23	1795.56
740.416	1654.25
740.601	1752.55
740.786	1723.88
740.972	1707.49
741.157	1770.98
741.342	1752.55
741.528	1699.3
741.713	1789.41
741.898	1687.01
742.084	1662.44
742.269	1707.49
742.454	1711.59
742.639	1691.11
742.824	1715.69
743.01	1664.49
743.195	1650.15
743.38	1682.92
743.565	1719.78
743.75	1609.19
743.935	1547.75
744.12	1680.87
744.305	1519.08
744.49	1607.14
744.675	1572.33
744.86	1523.18
745.045	1603.05
745.23	1508.84
745.415	1547.75
745.6	1701.35
745.785	1601
745.97	1557.99
746.155	1564.14
746.34	1541.61
746.525	1523.18
746.71	1609.19
746.895	1560.04
747.079	1482.22
747.264	1541.61
747.449	1418.73
747.634	1580.52
747.819	1480.17
748.003	1457.64
748.188	1443.31
748.373	1484.27
748.557	1453.55
748.742	1504.75
748.927	1383.91
749.111	1420.78
749.296	1420.78
749.481	1441.26
749.665	1424.87
749.85	1330.67
750.034	1420.78
750.219	1361.39
750.404	1312.24
750.588	1355.24
750.773	1285.61
750.957	1310.19
751.141	1334.76
751.326	1314.28
751.51	1306.09
751.695	1244.65
751.879	1211.89
752.064	1285.61
752.248	1261.04
752.432	1277.42
752.617	1302
752.801	1172.97
752.985	1222.13
753.17	1232.37
753.354	1203.69
753.538	1138.16
753.722	1197.55
753.907	1150.45
754.091	1072.62
754.275	1209.84
754.459	1189.36
754.643	1170.93
754.828	1064.43
755.012	1076.72
755.196	1052.14
755.38	1074.67
755.564	1125.87
755.748	1172.97
755.932	1156.59
756.116	1070.58
756.3	1066.48
756.484	1035.76
756.668	1089.01
756.852	1039.86
757.036	1060.34
757.22	1000.94
757.404	1064.43
757.588	1000.94
757.772	1080.82
757.956	941.55
758.14	992.75
758.323	962.03
758.507	982.51
758.691	892.4
758.875	910.83
759.059	1009.14
759.242	986.61
759.426	1000.94
759.61	931.31
759.794	986.61
759.977	919.03
760.161	935.41
760.345	916.98
760.528	957.94
760.712	925.17
760.895	957.94
761.079	933.36
761.263	839.16
761.446	998.9
761.63	959.99
761.813	820.72
761.997	820.72
762.18	978.42
762.364	835.06
762.547	722.42
762.731	863.73
762.914	847.35
763.098	722.42
763.281	814.58
763.464	785.91
763.648	935.41
763.831	769.52
764.015	751.09
764.198	828.92
764.381	761.33
764.564	794.1
764.748	824.82
764.931	808.44
765.114	771.57
765.297	859.63
765.481	753.14
765.664	777.72
765.847	763.38
766.03	679.41
766.213	697.85
766.397	826.87
766.58	804.34
766.763	779.76
766.946	761.33
767.129	671.22
767.312	785.91
767.495	796.15
767.678	769.52
767.861	790
768.044	628.21
768.227	714.23
768.41	699.89
768.593	753.14
768.776	771.57
768.959	630.26
769.142	706.04
769.324	736.76
769.507	656.89
769.69	728.56
769.873	632.31
770.056	706.04
770.239	708.09
770.421	757.24
770.604	716.28
770.787	744.95
770.97	648.69
771.152	675.32
771.335	634.36
771.518	728.56
771.7	835.06
771.883	640.5
772.066	603.64
772.248	644.6
772.431	669.17
772.613	658.93
772.796	667.13
772.978	581.11
773.161	658.93
773.343	634.36
773.526	560.63
773.708	654.84
773.891	593.4
774.073	583.16
774.256	548.34
774.438	597.49
774.621	558.58
774.803	585.21
774.985	540.15
775.168	589.3
775.35	491
775.532	663.03
775.715	552.44
775.897	589.3
776.079	587.26
776.261	577.02
776.444	572.92
776.626	572.92
776.808	472.57
776.99	491
777.173	482.81
777.355	493.05
777.537	558.58
777.719	562.68
777.901	441.85
778.083	558.58
778.265	499.19
778.447	554.49
778.629	493.05
778.811	488.95
778.993	517.62
779.175	515.58
779.357	525.82
779.539	435.71
779.721	495.1
779.903	505.34
780.085	482.81
780.267	458.23
780.449	450.04
780.631	445.95
780.812	493.05
780.994	476.66
781.176	468.47
781.358	361.98
781.54	384.51
781.721	407.03
781.903	411.13
782.085	376.31
782.267	456.19
782.448	425.47
782.63	443.9
782.812	343.55
782.993	417.27
783.175	347.64
783.357	431.61
783.538	359.93
783.72	435.71
783.901	400.89
784.083	294.4
784.264	376.31
784.446	370.17
784.627	278.01
784.809	409.08
784.99	368.12
785.172	368.12
785.353	366.07
785.535	329.21
785.716	345.59
785.897	298.49
786.079	394.75
786.26	400.89
786.441	321.02
786.623	226.81
786.804	296.44
786.985	308.73
787.167	257.53
787.348	280.06
787.529	310.78
787.71	374.27
787.891	392.7
788.073	228.86
788.254	335.35
788.435	341.5
788.616	335.35
788.797	280.06
788.978	361.98
789.159	271.87
789.34	294.4
789.522	333.31
789.703	286.2
789.884	282.11
790.065	327.16
790.246	331.26
790.427	192
790.607	321.02
790.788	249.34
790.969	269.82
791.15	224.76
791.331	192
791.512	208.38
791.693	208.38
791.874	247.29
792.054	198.14
792.235	312.83
792.416	280.06
792.597	237.05
792.778	310.78
792.958	310.78
793.139	251.39
793.32	196.09
793.5	269.82
793.681	310.78
793.862	232.96
794.042	269.82
794.223	216.57
794.404	228.86
794.584	175.61
794.765	327.16
794.945	198.14
795.126	253.44
795.306	177.66
795.487	228.86
795.667	124.41
795.848	280.06
796.028	216.57
796.209	245.24
796.389	296.44
796.57	161.28
796.75	200.19
796.93	220.67
797.111	220.67
797.291	208.38
797.471	179.71
797.652	269.82
797.832	169.47
798.012	323.07
798.192	265.72
798.373	148.99
798.553	239.1
798.733	196.09
798.913	159.23
799.093	204.28
799.274	173.57
799.454	161.28
799.634	165.37
799.814	187.9
799.994	208.38
800.174	208.38
800.354	210.43
800.534	181.76
800.714	261.63
800.894	138.75
801.074	216.57
801.254	196.09
801.434	232.96
801.614	196.09
801.794	132.61
801.974	699.89
802.154	220.67
802.334	179.71
802.514	151.04
802.693	187.9
802.873	138.75
803.053	196.09
803.233	179.71
803.413	196.09
803.592	220.67
803.772	171.52
803.952	214.52
804.131	97.79
804.311	132.61
804.491	130.56
804.67	103.93
804.85	175.61
805.03	196.09
805.209	204.28
805.389	153.09
805.568	132.61
805.748	185.85
805.928	124.41
806.107	132.61
806.287	116.22
806.466	148.99
806.646	151.04
806.825	132.61
807.004	146.94
807.184	134.65
807.363	192
807.543	155.13
807.722	183.81
807.901	151.04
808.081	171.52
808.26	81.41
808.439	185.85
808.619	110.08
808.798	140.8
808.977	69.12
809.156	42.5
809.336	204.28
809.515	202.24
809.694	171.52
809.873	99.84
810.052	224.76
810.231	165.37
810.411	165.37
810.59	173.57
810.769	81.41
810.948	151.04
811.127	77.31
811.306	196.09
811.485	105.98
811.664	214.52
811.843	140.8
812.022	34.3
812.201	122.37
812.38	122.37
812.559	101.89
812.737	181.76
812.916	71.17
813.095	67.07
813.274	118.27
813.453	65.02
813.632	144.89
813.811	159.23
813.989	83.45
814.168	108.03
814.347	122.37
814.526	136.7
814.704	114.17
814.883	87.55
815.062	73.21
815.24	67.07
815.419	130.56
815.598	163.33
815.776	114.17
815.955	73.21
816.133	11.78
816.312	146.94
816.49	132.61
816.669	120.32
816.847	151.04
817.026	105.98
817.204	93.69
817.383	79.36
817.561	67.07
817.74	97.79
817.918	93.69
818.097	62.98
818.275	140.8
818.453	161.28
818.632	19.97
818.81	140.8
818.988	83.45
819.167	73.21
819.345	97.79
819.523	81.41
819.701	108.03
819.879	110.08
820.058	140.8
820.236	69.12
820.414	75.26
820.592	67.07
820.77	28.16
820.948	124.41
821.127	89.6
821.305	112.13
821.483	40.45
821.661	93.69
821.839	65.02
822.017	75.26
822.195	42.5
822.373	159.23
822.551	142.85
822.729	91.65
822.907	7.68
823.085	50.69
823.262	71.17
823.44	75.26
823.618	19.97
823.796	97.79
823.974	114.17
824.152	32.26
824.329	24.06
824.507	101.89
824.685	108.03
824.863	167.42
825.04	89.6
825.218	26.11
825.396	81.41
825.574	48.64
825.751	138.75
825.929	83.45
826.107	114.17
826.284	11.78
826.462	114.17
826.639	11.78
826.817	32.26
826.994	65.02
827.172	101.89
827.349	48.64
827.527	48.64
827.704	97.79
827.882	81.41
828.059	32.26
828.237	52.74
828.414	89.6
828.591	26.11
828.769	26.11
828.946	126.46
829.124	112.13
829.301	105.98
829.478	-6.66
829.655	58.88
829.833	13.82
830.01	42.5
830.187	114.17
830.364	-39.42
830.542	22.02
830.719	65.02
830.896	62.98
831.073	58.88
831.25	91.65
831.427	52.74
831.604	56.83
831.782	9.73
831.959	40.45
832.136	-12.8
832.313	126.46
832.49	-25.09
832.667	50.69
832.844	13.82
833.021	69.12
833.198	24.06
833.374	77.31
833.551	122.37
833.728	114.17
833.905	56.83
834.082	13.82
834.259	52.74
834.436	108.03
834.612	-31.23
834.789	28.16
834.966	69.12
835.143	91.65
835.319	17.92
835.496	34.3
835.673	60.93
835.85	77.31
836.026	97.79
836.203	65.02
836.38	32.26
836.556	56.83
836.733	42.5
836.909	65.02
837.086	67.07
837.262	56.83
837.439	77.31
837.616	36.35
837.792	95.74
837.968	157.18
838.145	9.73
838.321	36.35
838.498	3.58
838.674	48.64
838.851	79.36
839.027	75.26
839.203	34.3
839.38	44.54
839.556	7.68
839.732	130.56
839.909	73.21
840.085	56.83
840.261	67.07
840.437	34.3
840.614	56.83
840.79	3.58
840.966	50.69
841.142	73.21
841.318	42.5
841.494	89.6
841.671	56.83
841.847	15.87
842.023	-29.18
842.199	85.5
842.375	97.79
842.551	46.59
842.727	-49.66
842.903	97.79
843.079	1.54
843.255	44.54
843.431	73.21
843.607	48.64
843.783	15.87
843.959	71.17
844.134	50.69
844.31	58.88
844.486	-41.47
844.662	17.92
844.838	-23.04
845.013	-4.61
845.189	122.37
845.365	-8.7
845.541	30.21
845.716	56.83
845.892	11.78
846.068	-23.04
846.244	-37.38
846.419	-8.7
846.595	19.97
846.77	38.4
846.946	73.21
847.122	-16.9
847.297	-14.85
847.473	81.41
847.648	-14.85
847.824	116.22
847.999	-25.09
848.175	1.54
848.35	24.06
848.526	85.5
848.701	62.98
848.876	32.26
849.052	13.82
849.227	-70.14
849.403	24.06
849.578	15.87
849.753	101.89
849.929	54.78
850.104	-41.47
850.279	42.5
850.454	-6.66
850.63	71.17
850.805	-14.85
850.98	11.78
851.155	-20.99
851.33	75.26
851.505	40.45
851.681	89.6
851.856	-37.38
852.031	75.26
852.206	-8.7
852.381	3.58
852.556	-31.23
852.731	28.16
852.906	11.78
853.081	19.97
853.256	26.11
853.431	93.69
853.606	-31.23
853.781	73.21
853.956	-68.09
854.131	19.97
854.305	24.06
854.48	-25.09
854.655	-33.28
854.83	48.64
855.005	26.11
855.18	97.79
855.354	-0.51
855.529	-29.18
855.704	-0.51
855.879	67.07
856.053	77.31
856.228	13.82
856.403	105.98
856.577	81.41
856.752	-61.95
856.926	34.3
857.101	65.02
857.276	-12.8
857.45	-25.09
857.625	60.93
857.799	60.93
857.974	101.89
858.148	-74.24
858.323	89.6
858.497	60.93
858.672	-8.7
858.846	-49.66
859.02	52.74
859.195	-20.99
859.369	105.98
859.543	40.45
859.718	32.26
859.892	32.26
860.066	-16.9
860.241	5.63
860.415	-57.86
860.589	-23.04
860.763	19.97
860.938	-41.47
861.112	44.54
861.286	-47.62
861.46	50.69
861.634	-20.99
861.808	114.17
861.982	11.78
862.157	-8.7
862.331	-6.66
862.505	1.54
862.679	7.68
862.853	-45.57
863.027	-57.86
863.201	7.68
863.375	11.78
863.549	75.26
863.722	30.21
863.896	69.12
864.07	17.92
864.244	-31.23
864.418	24.06
864.592	101.89
864.766	36.35
864.939	-16.9
865.113	48.64
865.287	11.78
865.461	3.58
865.634	24.06
865.808	22.02
865.982	60.93
866.156	81.41
866.329	-33.28
866.503	26.11
866.676	40.45
866.85	17.92
867.024	-10.75
867.197	32.26
867.371	-8.7
867.544	56.83
867.718	40.45
867.891	-41.47
868.065	-90.62
868.238	-0.51
868.412	46.59
868.585	36.35
868.759	-0.51
868.932	11.78
869.105	56.83
869.279	-25.09
869.452	9.73
869.625	32.26
869.799	48.64
869.972	42.5
870.145	-20.99
870.319	56.83
870.492	-18.94
870.665	36.35
870.838	-55.81
871.011	44.54
871.185	40.45
871.358	-37.38
871.531	19.97
871.704	-4.61
871.877	15.87
872.05	32.26
872.223	-66.05
872.396	-53.76
872.569	15.87
872.742	30.21
872.915	-0.51
873.088	19.97
873.261	-8.7
873.434	1.54
873.607	19.97
873.78	97.79
873.953	15.87
874.126	67.07
874.299	24.06
874.471	-16.9
874.644	-14.85
874.817	3.58
874.99	-57.86
875.163	-53.76
875.335	-12.8
875.508	30.21
875.681	73.21
875.853	48.64
876.026	44.54
876.199	-37.38
876.371	97.79
876.544	11.78
876.717	-20.99
876.889	-16.9
877.062	-16.9
877.234	44.54
877.407	-8.7
877.579	1.54
877.752	-16.9
877.924	-23.04
878.097	11.78
878.269	-25.09
878.442	-25.09
878.614	-6.66
878.786	15.87
878.959	7.68
879.131	93.69
879.303	-33.28
879.476	-25.09
879.648	-8.7
879.82	42.5
879.993	1.54
880.165	9.73
880.337	-12.8
880.509	1.54
880.681	-61.95
880.854	1.54
881.026	17.92
881.198	11.78
881.37	32.26
881.542	-64
881.714	30.21
881.886	58.88
882.058	-49.66
882.23	-72.19
882.402	-41.47
882.574	42.5
882.746	-14.85
882.918	58.88
883.09	50.69
883.262	28.16
883.434	26.11
883.606	-8.7
883.778	36.35
883.95	24.06
884.122	-14.85
884.293	-41.47
884.465	-66.05
884.637	1.54
884.809	-6.66
884.98	32.26
885.152	24.06
885.324	24.06
885.496	77.31
885.667	24.06
885.839	-8.7
886.011	56.83
886.182	54.78
886.354	-8.7
886.525	-0.51
886.697	40.45
886.869	-25.09
887.04	3.58
887.212	32.26
887.383	65.02
887.555	-0.51
887.726	34.3
887.897	-4.61
888.069	-2.56
888.24	-33.28
888.412	32.26
888.583	-72.19
888.754	32.26
888.926	-8.7
889.097	-6.66
889.268	-61.95
889.44	5.63
889.611	-18.94
889.782	-66.05
889.953	-39.42
890.125	19.97
890.296	-121.34
890.467	5.63
890.638	-8.7
890.809	81.41
890.98	5.63
891.151	48.64
891.323	15.87
891.494	81.41
891.665	-45.57
891.836	42.5
892.007	34.3
892.178	-33.28
892.349	-12.8
892.52	-49.66
892.691	-49.66
892.862	7.68
893.032	-80.38
893.203	-78.33
893.374	-49.66
893.545	-49.66
893.716	28.16
893.887	58.88
894.057	36.35
894.228	24.06
894.399	-41.47
894.57	-39.42
894.74	-37.38
894.911	67.07
895.082	13.82
895.253	56.83
895.423	22.02
895.594	-53.76
895.764	24.06
895.935	60.93
896.106	1.54
896.276	-8.7
896.447	-31.23
896.617	7.68
896.788	15.87
896.958	-0.51
897.129	71.17
897.299	-25.09
897.47	1.54
897.64	89.6
897.81	17.92
897.981	56.83
898.151	-6.66
898.322	-0.51
898.492	15.87
898.662	-82.43
898.832	19.97
899.003	-37.38
899.173	24.06
899.343	-86.53
899.513	-74.24
