Data from USB4F104151__130__14-19-02-238.txt Node

Date: Thu Mar 13 14:19:02 EDT 2025
User: louis
Spectrometer: USB4F10415
Trigger mode: 4
Integration Time (sec): 2.000000E-2
Scans to average: 1
Electric dark correction enabled: true
Nonlinearity correction enabled: false
Boxcar width: 0
XAxis mode: Wavelengths
Number of Pixels in Spectrum: 3648
>>>>>Begin Spectral Data<<<<<
178.204	-141.31
178.424	-141.31
178.644	-141.31
178.864	-94.21
179.084	-137.21
179.304	-14.34
179.524	-45.06
179.744	-8.19
179.964	96.25
180.184	8.19
180.404	0
180.624	-65.54
180.844	90.11
181.064	-4.1
181.283	-69.63
181.503	-28.67
181.723	40.96
181.943	-26.62
182.163	47.1
182.383	40.96
182.602	49.15
182.822	-8.19
183.042	20.48
183.262	14.34
183.482	-16.38
183.701	-36.86
183.921	28.67
184.141	4.1
184.361	4.1
184.58	24.58
184.8	28.67
185.02	24.58
185.239	79.87
185.459	55.3
185.679	63.49
185.898	-90.11
186.118	75.77
186.338	69.63
186.557	-18.43
186.777	0
186.997	69.63
187.216	32.77
187.436	26.62
187.655	8.19
187.875	36.86
188.095	12.29
188.314	59.39
188.534	79.87
188.753	53.25
188.973	59.39
189.192	57.34
189.412	-34.82
189.631	22.53
189.851	36.86
190.07	100.35
190.29	-20.48
190.509	-18.43
190.729	28.67
190.948	-36.86
191.168	104.45
191.387	-12.29
191.607	10.24
191.826	-4.1
192.045	28.67
192.265	69.63
192.484	59.39
192.704	4.1
192.923	-20.48
193.142	77.82
193.362	53.25
193.581	14.34
193.8	90.11
194.02	126.97
194.239	6.14
194.458	-16.38
194.678	-61.44
194.897	47.1
195.116	8.19
195.335	6.14
195.555	55.3
195.774	73.73
195.993	45.06
196.212	-4.1
196.432	-57.34
196.651	24.58
196.87	6.14
197.089	86.01
197.308	-12.29
197.528	2.05
197.747	0
197.966	53.25
198.185	69.63
198.404	61.44
198.623	24.58
198.842	104.45
199.062	16.38
199.281	63.49
199.5	-26.62
199.719	49.15
199.938	98.3
200.157	14.34
200.376	51.2
200.595	32.77
200.814	16.38
201.033	-38.91
201.252	-12.29
201.471	-6.14
201.69	-36.86
201.909	16.38
202.128	14.34
202.347	22.53
202.566	69.63
202.785	-32.77
203.004	36.86
203.223	69.63
203.442	40.96
203.661	10.24
203.879	-45.06
204.098	20.48
204.317	-2.05
204.536	24.58
204.755	79.87
204.974	-24.58
205.193	67.58
205.411	16.38
205.63	61.44
205.849	20.48
206.068	6.14
206.287	-71.68
206.505	57.34
206.724	-67.58
206.943	47.1
207.162	2.05
207.381	6.14
207.599	4.1
207.818	75.77
208.037	4.1
208.255	-18.43
208.474	-34.82
208.693	77.82
208.911	-6.14
209.13	-53.25
209.349	53.25
209.567	69.63
209.786	28.67
210.005	51.2
210.223	-2.05
210.442	8.19
210.661	67.58
210.879	30.72
211.098	63.49
211.316	53.25
211.535	49.15
211.753	-43.01
211.972	106.49
212.191	-12.29
212.409	65.53
212.628	16.38
212.846	45.06
213.065	2.05
213.283	-4.1
213.502	18.43
213.72	77.82
213.938	10.24
214.157	96.25
214.375	4.1
214.594	61.44
214.812	18.43
215.031	30.72
215.249	-18.43
215.467	-12.29
215.686	110.59
215.904	63.49
216.122	36.86
216.341	38.91
216.559	12.29
216.778	86.01
216.996	40.96
217.214	-18.43
217.432	-2.05
217.651	8.19
217.869	-2.05
218.087	38.91
218.306	0
218.524	40.96
218.742	12.29
218.96	36.86
219.179	-12.29
219.397	51.2
219.615	45.06
219.833	81.92
220.051	20.48
220.27	96.25
220.488	34.82
220.706	122.88
220.924	-43.01
221.142	79.87
221.36	8.19
221.578	86.01
221.796	28.67
222.015	102.4
222.233	24.58
222.451	94.21
222.669	24.58
222.887	49.15
223.105	30.72
223.323	40.96
223.541	10.24
223.759	104.45
223.977	-16.38
224.195	-8.19
224.413	47.1
224.631	75.77
224.849	79.87
225.067	55.3
225.285	18.43
225.503	75.77
225.721	-10.24
225.939	14.34
226.157	-10.24
226.375	159.74
226.592	-34.82
226.81	4.1
227.028	118.78
227.246	45.06
227.464	69.63
227.682	69.63
227.9	-36.86
228.117	45.06
228.335	61.44
228.553	-12.29
228.771	-8.19
228.989	-18.43
229.206	26.62
229.424	4.1
229.642	-10.24
229.86	79.87
230.077	14.34
230.295	12.29
230.513	36.86
230.731	53.25
230.948	30.72
231.166	61.44
231.384	34.82
231.601	79.87
231.819	53.25
232.037	53.25
232.254	12.29
232.472	77.82
232.689	6.14
232.907	75.77
233.125	-24.58
233.342	14.34
233.56	-6.14
233.777	40.96
233.995	-18.43
234.213	86.01
234.43	-20.48
234.648	36.86
234.865	0
235.083	47.1
235.3	-36.86
235.518	24.58
235.735	28.67
235.953	53.25
236.17	-4.1
236.388	12.29
236.605	28.67
236.822	65.53
237.04	-36.86
237.257	12.29
237.475	-34.82
237.692	-26.62
237.909	65.53
238.127	86.01
238.344	63.49
238.562	61.44
238.779	-12.29
238.996	-34.82
239.214	98.3
239.431	36.86
239.648	45.06
239.865	77.82
240.083	47.1
240.3	22.53
240.517	-55.3
240.735	-45.06
240.952	65.53
241.169	81.92
241.386	67.58
241.603	-12.29
241.821	14.34
242.038	110.59
242.255	86.01
242.472	-20.48
242.689	14.34
242.907	8.19
243.124	90.11
243.341	-18.43
243.558	61.44
243.775	69.63
243.992	24.58
244.209	-51.2
244.426	-12.29
244.643	61.44
244.86	24.58
245.078	-4.1
245.295	8.19
245.512	-28.67
245.729	-10.24
245.946	102.4
246.163	28.67
246.38	67.58
246.597	-4.1
246.814	45.06
247.031	61.44
247.248	22.53
247.464	-38.91
247.681	6.14
247.898	20.48
248.115	86.01
248.332	6.14
248.549	69.63
248.766	94.21
248.983	-22.53
249.2	28.67
249.417	61.44
249.633	30.72
249.85	-40.96
250.067	57.34
250.284	36.86
250.501	-20.48
250.717	-26.62
250.934	61.44
251.151	94.21
251.368	8.19
251.585	55.3
251.801	20.48
252.018	40.96
252.235	94.21
252.451	-12.29
252.668	49.15
252.885	57.34
253.102	53.25
253.318	40.96
253.535	40.96
253.752	-14.34
253.968	0
254.185	-36.86
254.401	28.67
254.618	47.1
254.835	-18.43
255.051	69.63
255.268	36.86
255.484	61.44
255.701	47.1
255.917	94.21
256.134	-69.63
256.351	67.58
256.567	-12.29
256.784	49.15
257	-61.44
257.217	20.48
257.433	116.73
257.65	45.06
257.866	4.1
258.082	-18.43
258.299	-12.29
258.515	-28.67
258.732	38.91
258.948	18.43
259.165	40.96
259.381	8.19
259.597	-14.34
259.814	16.38
260.03	8.19
260.246	16.38
260.463	67.58
260.679	6.14
260.895	24.58
261.112	57.34
261.328	-12.29
261.544	12.29
261.761	43.01
261.977	24.58
262.193	49.15
262.409	110.59
262.626	8.19
262.842	40.96
263.058	45.06
263.274	32.77
263.49	-6.14
263.707	36.86
263.923	26.62
264.139	53.25
264.355	14.34
264.571	118.78
264.787	12.29
265.004	69.63
265.22	45.06
265.436	-32.77
265.652	-20.48
265.868	55.3
266.084	-24.58
266.3	86.01
266.516	-16.38
266.732	-8.19
266.948	30.72
267.164	61.44
267.38	83.97
267.596	-45.06
267.812	129.02
268.028	-12.29
268.244	-20.48
268.46	59.39
268.676	-28.67
268.892	0
269.108	-22.53
269.324	32.77
269.54	28.67
269.756	94.21
269.972	-12.29
270.188	4.1
270.403	-61.44
270.619	61.44
270.835	43.01
271.051	24.58
271.267	12.29
271.483	22.53
271.698	51.2
271.914	69.63
272.13	12.29
272.346	0
272.562	40.96
272.777	40.96
272.993	-22.53
273.209	32.77
273.425	36.86
273.64	6.14
273.856	61.44
274.072	57.34
274.287	20.48
274.503	55.3
274.719	34.82
274.934	40.96
275.15	81.92
275.366	61.44
275.581	40.96
275.797	53.25
276.012	90.11
276.228	77.82
276.444	16.38
276.659	43.01
276.875	-28.67
277.09	71.68
277.306	-20.48
277.521	49.15
277.737	-18.43
277.952	4.1
278.168	20.48
278.383	94.21
278.599	69.63
278.814	86.01
279.03	53.25
279.245	45.06
279.461	12.29
279.676	77.82
279.892	-14.34
280.107	49.15
280.322	36.86
280.538	75.77
280.753	8.19
280.969	77.82
281.184	-18.43
281.399	55.3
281.615	32.77
281.83	49.15
282.045	49.15
282.26	-28.67
282.476	61.44
282.691	86.01
282.906	6.14
283.122	6.14
283.337	-30.72
283.552	96.25
283.767	20.48
283.983	30.72
284.198	43.01
284.413	53.25
284.628	-18.43
284.843	49.15
285.058	30.72
285.274	28.67
285.489	-10.24
285.704	86.01
285.919	-18.43
286.134	92.16
286.349	4.1
286.564	16.38
286.779	90.11
286.995	65.53
287.21	-90.11
287.425	38.91
287.64	20.48
287.855	-45.06
288.07	-8.19
288.285	-20.48
288.5	36.86
288.715	94.21
288.93	38.91
289.145	102.4
289.36	55.3
289.575	-40.96
289.79	61.44
290.004	55.3
290.219	116.73
290.434	-10.24
290.649	32.77
290.864	4.1
291.079	10.24
291.294	55.3
291.509	-18.43
291.724	10.24
291.938	-32.77
292.153	28.67
292.368	0
292.583	102.4
292.798	38.91
293.012	22.53
293.227	86.01
293.442	12.29
293.657	34.82
293.871	81.92
294.086	49.15
294.301	79.87
294.516	77.82
294.73	2.05
294.945	-57.34
295.16	32.77
295.374	73.73
295.589	45.06
295.804	63.49
296.018	65.53
296.233	-12.29
296.447	57.34
296.662	-73.73
296.877	51.2
297.091	38.91
297.306	16.38
297.52	65.53
297.735	-10.24
297.949	49.15
298.164	6.14
298.378	-32.77
298.593	102.4
298.807	-2.05
299.022	-24.58
299.236	36.86
299.451	94.21
299.665	86.01
299.88	36.86
300.094	110.59
300.309	36.86
300.523	28.67
300.737	26.62
300.952	71.68
301.166	-4.1
301.381	40.96
301.595	20.48
301.809	18.43
302.024	0
302.238	57.34
302.452	8.19
302.667	65.53
302.881	36.86
303.095	61.44
303.309	69.63
303.524	-8.19
303.738	14.34
303.952	2.05
304.166	79.87
304.381	4.1
304.595	63.49
304.809	49.15
305.023	65.53
305.237	96.25
305.452	53.25
305.666	53.25
305.88	20.48
306.094	112.64
306.308	38.91
306.522	30.72
306.736	40.96
306.95	-4.1
307.164	118.78
307.379	-47.1
307.593	86.01
307.807	55.3
308.021	-4.1
308.235	28.67
308.449	-18.43
308.663	-10.24
308.877	149.5
309.091	-10.24
309.305	-18.43
309.519	-126.97
309.733	34.82
309.947	57.34
310.161	63.49
310.374	155.65
310.588	51.2
310.802	28.67
311.016	28.67
311.23	24.58
311.444	63.49
311.658	96.25
311.872	69.63
312.085	-26.62
312.299	67.58
312.513	51.2
312.727	110.59
312.941	45.06
313.154	22.53
313.368	57.34
313.582	10.24
313.796	4.1
314.009	36.86
314.223	20.48
314.437	79.87
314.651	-4.1
314.864	57.34
315.078	73.73
315.292	57.34
315.505	67.58
315.719	88.06
315.933	71.68
316.146	59.39
316.36	-32.77
316.573	49.15
316.787	16.38
317.001	122.88
317.214	4.1
317.428	40.96
317.641	34.82
317.855	26.62
318.068	-12.29
318.282	30.72
318.495	69.63
318.709	63.49
318.922	61.44
319.136	32.77
319.349	6.14
319.563	79.87
319.776	79.87
319.99	12.29
320.203	61.44
320.417	14.34
320.63	55.3
320.843	16.38
321.057	22.53
321.27	40.96
321.483	65.53
321.697	151.55
321.91	-8.19
322.124	45.06
322.337	32.77
322.55	14.34
322.763	28.67
322.977	30.72
323.19	-43.01
323.403	12.29
323.617	57.34
323.83	83.97
324.043	-20.48
324.256	30.72
324.469	45.06
324.683	57.34
324.896	-10.24
325.109	-8.19
325.322	12.29
325.535	20.48
325.748	96.25
325.962	-30.72
326.175	14.34
326.388	53.25
326.601	45.06
326.814	-2.05
327.027	-20.48
327.24	53.25
327.453	55.3
327.666	14.34
327.879	88.06
328.092	61.44
328.305	24.58
328.518	55.3
328.731	-77.82
328.944	47.1
329.157	86.01
329.37	-36.86
329.583	-34.82
329.796	63.49
330.009	-36.86
330.222	65.53
330.435	40.96
330.648	-22.53
330.861	28.67
331.073	55.3
331.286	36.86
331.499	88.06
331.712	-10.24
331.925	-4.1
332.138	-8.19
332.35	126.97
332.563	73.73
332.776	28.67
332.989	4.1
333.202	-12.29
333.414	-4.1
333.627	28.67
333.84	22.53
334.053	55.3
334.265	59.39
334.478	8.19
334.691	12.29
334.903	83.97
335.116	-32.77
335.329	-2.05
335.541	88.06
335.754	28.67
335.966	-10.24
336.179	32.77
336.392	34.82
336.604	-8.19
336.817	20.48
337.029	55.3
337.242	65.53
337.454	38.91
337.667	14.34
337.88	73.73
338.092	6.14
338.305	-24.58
338.517	47.1
338.729	67.58
338.942	-28.67
339.154	6.14
339.367	-26.62
339.579	77.82
339.792	-28.67
340.004	12.29
340.217	86.01
340.429	28.67
340.641	49.15
340.854	63.49
341.066	20.48
341.278	120.83
341.491	47.1
341.703	47.1
341.915	-53.25
342.128	73.73
342.34	53.25
342.552	28.67
342.764	-10.24
342.977	-28.67
343.189	53.25
343.401	71.68
343.613	4.1
343.826	61.44
344.038	-43.01
344.25	18.43
344.462	-16.38
344.674	49.15
344.886	-18.43
345.099	16.38
345.311	6.14
345.523	40.96
345.735	14.34
345.947	14.34
346.159	4.1
346.371	61.44
346.583	-4.1
346.795	69.63
347.007	-6.14
347.219	112.64
347.431	53.25
347.643	57.34
347.855	-18.43
348.067	126.97
348.279	-71.68
348.491	96.25
348.703	71.68
348.915	26.62
349.127	49.15
349.339	20.48
349.551	45.06
349.763	10.24
349.975	-4.1
350.187	61.44
350.399	34.82
350.61	38.91
350.822	32.77
351.034	112.64
351.246	55.3
351.458	61.44
351.669	36.86
351.881	0
352.093	67.58
352.305	90.11
352.517	-16.38
352.728	67.58
352.94	28.67
353.152	20.48
353.363	-14.34
353.575	40.96
353.787	65.53
353.999	10.24
354.21	102.4
354.422	-28.67
354.633	20.48
354.845	36.86
355.057	6.14
355.268	118.78
355.48	79.87
355.692	-32.77
355.903	8.19
356.115	38.91
356.326	30.72
356.538	96.25
356.749	2.05
356.961	188.41
357.172	61.44
357.384	65.53
357.595	86.01
357.807	51.2
358.018	0
358.23	36.86
358.441	73.73
358.653	135.17
358.864	96.25
359.075	45.06
359.287	69.63
359.498	55.3
359.709	30.72
359.921	28.67
360.132	4.1
360.344	77.82
360.555	20.48
360.766	61.44
360.977	47.1
361.189	159.74
361.4	61.44
361.611	81.92
361.823	110.59
362.034	106.49
362.245	34.82
362.456	28.67
362.667	96.25
362.879	0
363.09	22.53
363.301	47.1
363.512	81.92
363.723	-6.14
363.935	4.1
364.146	4.1
364.357	126.97
364.568	16.38
364.779	-4.1
364.99	28.67
365.201	4.1
365.412	45.06
365.623	8.19
365.834	51.2
366.045	43.01
366.256	61.44
366.467	59.39
366.678	120.83
366.889	53.25
367.1	63.49
367.311	22.53
367.522	-8.19
367.733	69.63
367.944	4.1
368.155	45.06
368.366	73.73
368.577	110.59
368.788	20.48
368.999	0
369.209	100.35
369.42	45.06
369.631	6.14
369.842	53.25
370.053	112.64
370.264	110.59
370.474	4.1
370.685	16.38
370.896	32.77
371.107	73.73
371.317	47.1
371.528	77.82
371.739	145.41
371.95	20.48
372.16	22.53
372.371	6.14
372.582	-20.48
372.792	81.92
373.003	20.48
373.214	61.44
373.424	20.48
373.635	34.82
373.846	86.01
374.056	65.53
374.267	71.68
374.477	61.44
374.688	24.58
374.898	0
375.109	94.21
375.319	47.1
375.53	40.96
375.74	24.58
375.951	49.15
376.161	71.68
376.372	45.06
376.582	65.53
376.793	69.63
377.003	65.53
377.214	12.29
377.424	67.58
377.635	20.48
377.845	2.05
378.055	-36.86
378.266	-2.05
378.476	77.82
378.686	14.34
378.897	-4.1
379.107	-34.82
379.317	86.01
379.528	-32.77
379.738	30.72
379.948	28.67
380.158	61.44
380.369	4.1
380.579	55.3
380.789	32.77
380.999	57.34
381.21	16.38
381.42	151.55
381.63	36.86
381.84	38.91
382.05	30.72
382.261	65.53
382.471	22.53
382.681	122.88
382.891	53.25
383.101	118.78
383.311	24.58
383.521	8.19
383.731	106.49
383.941	28.67
384.151	49.15
384.361	106.49
384.571	40.96
384.781	40.96
384.991	73.73
385.201	143.36
385.411	12.29
385.621	61.44
385.831	10.24
386.041	12.29
386.251	49.15
386.461	28.67
386.671	67.58
386.881	77.82
387.091	51.2
387.301	106.49
387.511	6.14
387.72	69.63
387.93	75.77
388.14	-38.91
388.35	118.78
388.56	34.82
388.769	94.21
388.979	61.44
389.189	57.34
389.399	45.06
389.609	51.2
389.818	102.4
390.028	47.1
390.238	47.1
390.447	-40.96
390.657	73.73
390.867	112.64
391.076	36.86
391.286	34.82
391.496	96.25
391.705	4.1
391.915	92.16
392.125	86.01
392.334	161.79
392.544	96.25
392.753	96.25
392.963	86.01
393.172	81.92
393.382	-20.48
393.591	102.4
393.801	28.67
394.01	65.53
394.22	102.4
394.429	118.78
394.639	139.26
394.848	126.97
395.058	94.21
395.267	77.82
395.477	-10.24
395.686	122.88
395.895	94.21
396.105	114.69
396.314	88.06
396.524	53.25
396.733	61.44
396.942	118.78
397.152	139.26
397.361	133.12
397.57	65.53
397.78	61.44
397.989	112.64
398.198	137.21
398.407	14.34
398.617	55.3
398.826	118.78
399.035	28.67
399.244	102.4
399.453	137.21
399.663	139.26
399.872	131.07
400.081	59.39
400.29	118.78
400.499	53.25
400.708	88.06
400.917	36.86
401.127	100.35
401.336	92.16
401.545	176.13
401.754	118.78
401.963	67.58
402.172	61.44
402.381	86.01
402.59	43.01
402.799	110.59
403.008	153.6
403.217	149.5
403.426	106.49
403.635	102.4
403.844	104.45
404.053	67.58
404.262	126.97
404.471	192.51
404.68	131.07
404.888	145.41
405.097	153.6
405.306	157.69
405.515	96.25
405.724	86.01
405.933	110.59
406.142	106.49
406.35	221.18
406.559	131.07
406.768	163.84
406.977	182.27
407.185	118.78
407.394	180.22
407.603	188.41
407.812	194.56
408.02	159.74
408.229	208.89
408.438	192.51
408.646	212.99
408.855	219.13
409.064	266.24
409.272	180.22
409.481	294.91
409.69	253.95
409.898	315.39
410.107	303.1
410.315	321.53
410.524	258.04
410.733	323.58
410.941	372.73
411.15	325.63
411.358	315.39
411.567	393.21
411.775	307.2
411.984	385.02
412.192	456.7
412.401	385.02
412.609	333.82
412.818	477.18
413.026	495.61
413.234	430.07
413.443	511.99
413.651	458.74
413.86	544.76
414.068	518.14
414.276	516.09
414.485	587.77
414.693	614.39
414.901	677.88
415.11	659.45
415.318	643.06
415.526	614.39
415.734	643.06
415.943	714.74
416.151	724.98
416.359	819.19
416.567	681.97
416.776	831.48
416.984	780.28
417.192	1003.5
417.4	917.49
417.608	874.48
417.817	907.25
418.025	929.78
418.233	1069.04
418.441	1069.04
418.649	1044.46
418.857	1069.04
419.065	1159.15
419.273	1208.3
419.481	1247.21
419.689	1173.49
419.897	1322.99
420.105	1329.13
420.313	1322.99
420.521	1460.2
420.729	1386.47
420.937	1394.67
421.145	1535.98
421.353	1642.47
421.561	1681.38
421.769	1789.92
421.977	1732.58
422.185	1830.88
422.393	1978.34
422.601	2031.59
422.809	1986.53
423.017	2039.78
423.224	2062.3
423.432	2228.19
423.64	2201.57
423.848	2455.51
424.056	2418.65
424.263	2543.58
424.471	2539.48
424.679	2445.27
424.887	2809.81
425.094	2813.91
425.302	2709.46
425.51	2750.42
425.718	3028.95
425.925	3057.62
426.133	3092.43
426.341	3291.09
426.548	3336.14
426.756	3407.82
426.964	3508.17
427.171	3588.04
427.379	3805.13
427.586	3717.06
427.794	3934.15
428.001	4091.84
428.209	4337.6
428.417	4304.83
428.624	4614.07
428.832	4579.26
429.039	4571.07
429.247	4632.51
429.454	4886.45
429.662	5259.18
429.869	4931.51
430.076	5312.43
430.284	5212.08
430.491	5306.29
430.699	5644.2
430.906	5705.64
431.114	5713.83
431.321	6002.6
431.528	6061.99
431.736	6496.16
431.943	6856.6
432.15	6619.03
432.358	6600.6
432.565	6905.75
432.772	6934.42
432.979	7405.45
433.187	7268.24
433.394	7417.74
433.601	7831.43
433.808	8025.99
434.016	8189.83
434.223	8413.06
434.43	8732.54
434.637	8640.38
434.844	9336.69
435.052	9281.39
435.259	9181.04
435.466	9496.43
435.673	9285.49
435.88	10028.9
436.087	10471.26
436.294	10258.28
436.501	10102.63
436.708	10411.87
436.915	10823.51
437.122	11220.82
437.329	11276.12
437.537	11546.45
437.743	11603.79
437.95	11788.11
438.157	12316.48
438.364	12623.68
438.571	12525.38
438.778	12625.73
438.985	13606.7
439.192	13102.9
439.399	13504.31
439.606	13485.87
439.813	14161.7
440.02	14964.51
440.227	14712.61
440.433	14468.9
440.64	14935.84
440.847	14790.43
441.054	15222.55
441.261	16404.23
441.467	16221.96
441.674	16379.65
441.881	17168.12
442.088	16807.68
442.294	16836.35
442.501	17667.83
442.708	17473.27
442.914	18282.22
443.121	19218.14
443.328	18374.38
443.534	19734.23
443.741	19517.14
443.948	18869.98
444.154	20586.18
444.361	20373.19
444.568	20596.42
444.774	20414.15
444.981	20762.31
445.187	21253.82
445.394	22318.76
445.6	21810.87
445.807	24000.15
446.013	22693.54
446.22	23260.83
446.426	24415.88
446.633	24698.5
446.839	25185.92
447.046	24415.88
447.252	25456.25
447.459	25579.13
447.665	25747.06
447.871	26586.73
448.078	27602.52
448.284	26596.97
448.491	27084.39
448.697	28227.15
448.903	28624.46
449.11	29165.12
449.316	28870.22
449.522	28913.22
449.728	29898.3
449.935	29703.74
450.141	30074.42
450.347	30733.87
450.553	29550.14
450.76	29799.99
450.966	30989.86
451.172	30602.8
451.378	31440.42
451.584	30488.11
451.791	31680.03
451.997	31804.95
452.203	31981.08
452.409	31878.68
452.615	31919.64
452.821	31024.68
453.027	30758.44
453.233	32253.46
453.44	30619.18
453.646	31430.18
453.852	31241.76
454.058	31981.08
454.264	30807.59
454.47	31618.59
454.676	30828.07
454.882	31938.07
455.088	29185.6
455.294	29464.13
455.5	29951.54
455.705	30436.91
455.911	29328.96
456.117	28839.5
456.323	28173.91
456.529	26812.01
456.735	27938.39
456.941	27203.17
457.147	26969.7
457.352	26476.14
457.558	25859.7
457.764	25910.9
457.97	25077.38
458.176	24903.3
458.381	25013.89
458.587	23613.08
458.793	23918.23
458.999	22460.07
459.204	23967.38
459.41	23387.8
459.616	21950.13
459.821	22064.82
460.027	21866.16
460.233	21479.1
460.438	20315.85
460.644	20868.8
460.85	19662.55
461.055	19347.16
461.261	19271.39
461.466	17782.51
461.672	17444.6
461.878	18640.61
462.083	17491.7
462.289	16928.51
462.494	17084.16
462.7	15982.35
462.905	15535.89
463.111	16258.82
463.316	16434.95
463.522	15587.09
463.727	15900.43
463.932	15992.59
464.138	15740.69
464.343	15857.42
464.549	15183.64
464.754	15898.38
464.959	15726.35
465.165	15687.44
465.37	15167.26
465.575	14413.6
465.781	14984.99
465.986	15171.35
466.191	14452.52
466.397	14317.35
466.602	13365.04
466.807	14255.91
467.012	14307.11
467.218	14020.39
467.423	13770.54
467.628	13920.04
467.833	14616.35
468.038	14102.31
468.244	13631.28
468.449	14141.22
468.654	13651.76
468.859	13778.73
469.064	13623.09
469.269	13053.75
469.474	13231.93
469.679	13346.61
469.885	13004.6
470.09	13166.39
470.295	13154.1
470.5	12615.49
470.705	12660.54
470.91	12420.93
471.115	12326.72
471.32	12566.34
471.525	12517.18
471.73	12318.53
471.935	12236.61
472.139	11874.12
472.344	12001.1
472.549	11962.19
472.754	11812.68
472.959	11329.36
473.164	11269.97
473.369	11161.43
473.574	11577.17
473.778	11464.53
473.983	11398.99
474.188	11114.33
474.393	10596.19
474.598	10872.67
474.802	10680.16
475.007	10755.93
475.212	10739.55
475.417	10250.08
475.621	10254.18
475.826	10188.64
476.031	10153.83
476.235	10084.2
476.44	10073.96
476.645	9820.01
476.849	9674.6
477.054	9760.62
477.259	9639.79
477.463	9570.16
477.668	9437.04
477.872	9650.03
478.077	9185.14
478.282	9084.79
478.486	9191.28
478.691	8927.1
478.895	9078.65
479.1	8814.46
479.304	8894.33
479.509	8728.44
479.713	8839.03
479.918	8507.26
480.122	8353.66
480.326	8679.29
480.531	8638.33
480.735	8599.42
480.94	8499.07
481.144	8675.2
481.348	8433.54
481.553	8286.08
481.757	8140.68
481.961	8236.93
482.166	8368
482.37	8195.97
482.574	8134.53
482.778	8298.37
482.983	8488.83
483.187	8171.4
483.391	8261.51
483.595	8134.53
483.8	8050.57
484.004	8380.29
484.208	8327.04
484.412	8195.97
484.616	8042.37
484.821	8126.34
485.025	8130.44
485.229	8228.74
485.433	8253.31
485.637	8294.27
485.841	8011.65
486.045	8081.28
486.249	8318.85
486.453	8021.89
486.657	8097.67
486.861	8034.18
487.065	8052.61
487.269	8107.91
487.473	8097.67
487.677	8165.25
487.881	8353.66
488.085	8081.28
488.289	8374.14
488.493	8224.64
488.697	8245.12
488.901	8220.55
489.105	8433.54
489.309	8447.87
489.512	8306.56
489.716	8212.35
489.92	8312.71
490.124	8425.34
490.328	8517.5
490.531	8177.54
490.735	8368
490.939	8380.29
491.143	8353.66
491.346	8548.22
491.55	8556.41
491.754	8419.2
491.958	8677.24
492.161	8521.6
492.365	8556.41
492.569	8679.29
492.772	8540.03
492.976	8722.3
493.18	8828.79
493.383	8966.01
493.587	8910.71
493.79	9049.97
493.994	8871.8
494.197	9021.3
494.401	9082.74
494.605	9080.69
494.808	9228.15
495.012	9316.21
495.215	9265.01
495.419	9181.04
495.622	9297.78
495.825	9467.76
496.029	9422.7
496.232	9660.27
496.436	9711.47
496.639	9836.39
496.843	9754.48
497.046	10106.73
497.249	10071.91
497.453	10071.91
497.656	10028.9
497.859	10133.35
498.063	10604.38
498.266	10540.9
498.469	10465.12
498.673	10491.74
498.876	11059.03
499.079	10977.11
499.282	10966.87
499.485	11190.1
499.689	11331.41
499.892	11386.71
500.095	11546.45
500.298	11685.71
500.501	11566.93
500.705	11843.4
500.908	12080.97
501.111	12089.16
501.314	12271.43
501.517	12250.95
501.72	12678.97
501.923	12500.8
502.126	12762.94
502.329	13233.97
502.532	12988.22
502.735	12998.46
502.938	13393.72
503.141	13295.41
503.344	13651.76
503.547	13852.46
503.75	13786.93
503.953	13993.77
504.156	13934.38
504.359	14552.87
504.562	14360.36
504.765	14716.7
504.968	14602.02
505.17	15081.24
505.373	14819.1
505.576	15103.77
505.779	15367.96
505.982	15116.06
506.185	15918.86
506.387	15838.99
506.59	16002.83
506.793	16430.85
506.996	16125.71
507.198	16549.64
507.401	16674.56
507.604	16836.35
507.807	16924.41
508.009	17346.3
508.212	17178.36
508.415	17471.22
508.617	17432.31
508.82	17665.78
509.022	17696.5
509.225	18085.61
509.428	18460.39
509.63	18374.38
509.833	18419.43
510.035	19009.25
510.238	19146.46
510.44	19218.14
510.643	19562.2
510.845	19449.56
511.048	19482.33
511.25	19799.76
511.453	20027.09
511.655	20844.23
511.858	20463.3
512.06	20723.4
512.262	21057.21
512.465	20676.29
512.667	21046.97
512.87	21290.68
513.072	21640.89
513.274	21921.46
513.477	22019.76
513.679	22296.24
513.881	22564.52
514.084	22777.51
514.286	22519.46
514.488	22707.88
514.69	23641.75
514.893	23309.98
515.095	23631.51
515.297	23312.03
515.499	23869.08
515.701	24245.9
515.904	24301.2
516.106	24815.24
516.308	24788.61
516.51	25073.28
516.712	25347.71
516.914	25509.5
517.116	25990.77
517.318	25796.21
517.52	25951.86
517.722	26080.88
517.925	26388.08
518.127	26508.91
518.329	27014.76
518.531	26965.6
518.733	27711.07
518.935	27567.71
519.136	27774.55
519.338	28212.82
519.54	28042.84
519.742	28409.42
519.944	28188.24
520.146	29109.83
520.348	29099.59
520.55	29300.29
520.752	29484.61
520.954	29890.1
521.155	29560.38
521.357	29894.2
521.559	30129.72
521.761	30572.08
521.963	30873.13
522.164	30670.38
522.366	31262.24
522.568	31628.83
522.77	31108.65
522.971	31866.39
523.173	31464.99
523.375	31944.22
523.576	31917.59
523.778	32038.42
523.98	32366.1
524.181	32577.04
524.383	32775.69
524.584	32859.66
524.786	32923.15
524.988	32884.23
525.189	33234.44
525.391	33680.89
525.592	33762.81
525.794	33791.48
525.995	33723.9
526.197	33893.88
526.398	34264.57
526.6	34051.58
526.801	34373.11
527.003	34770.41
527.204	34444.79
527.406	34967.02
527.607	34610.67
527.808	34977.26
528.01	34657.78
528.211	34684.4
528.412	35739.1
528.614	35409.38
528.815	35460.58
529.016	35642.85
529.218	35505.63
529.419	35755.49
529.62	35708.38
529.822	35675.62
530.023	35628.51
530.224	35692
530.425	35921.37
530.626	35737.05
530.828	35605.98
531.029	36720.08
531.23	36023.77
531.431	36152.79
531.632	36615.63
531.833	36287.96
532.035	36318.68
532.236	36478.42
532.437	36795.85
532.638	36445.65
532.839	36681.17
533.04	36627.92
533.241	36103.64
533.442	36785.61
533.643	36294.1
533.844	36484.56
534.045	36828.62
534.246	36140.5
534.447	36847.05
534.648	36613.59
534.849	36521.43
535.05	36326.87
535.251	36521.43
535.451	36687.31
535.652	36433.36
535.853	36738.51
536.054	36779.47
536.255	36900.3
536.456	35962.33
536.657	37412.29
536.857	36419.03
537.058	36603.35
537.259	36797.9
537.46	37039.56
537.66	36859.34
537.861	36605.39
538.062	36490.71
538.263	36699.6
538.463	36754.9
538.664	36464.08
538.865	36695.5
539.065	36730.32
539.266	36300.25
539.466	36793.81
539.667	36171.22
539.868	36793.81
540.068	36683.22
540.269	36576.72
540.469	36838.86
540.67	36447.7
540.87	36482.52
541.071	36570.58
541.271	36466.13
541.472	36144.6
541.672	36412.88
541.873	36459.99
542.073	35565.03
542.274	36883.92
542.474	36464.08
542.675	36380.12
542.875	36498.9
543.075	36457.94
543.276	35978.71
543.476	36498.9
543.676	36031.96
543.877	36421.08
544.077	36175.32
544.277	36279.77
544.478	36210.14
544.678	36435.41
544.878	36404.69
545.078	36011.48
545.279	36070.87
545.479	36126.17
545.679	36148.7
545.879	36013.53
546.079	36134.36
546.28	36236.76
546.48	35929.56
546.68	36419.03
546.88	36085.21
547.08	36300.25
547.28	35984.86
547.48	35849.69
547.68	36193.75
547.88	35833.31
548.081	36144.6
548.281	36216.28
548.481	35956.19
548.681	36541.91
548.881	35956.19
549.081	36175.32
549.28	35894.75
549.48	36062.68
549.68	36290.01
549.88	36810.19
550.08	35372.52
550.28	36185.56
550.48	35694.05
550.68	36191.7
550.88	35585.5
551.08	35827.17
551.279	35952.09
551.479	35913.18
551.679	35962.33
551.879	36007.39
552.079	36242.9
552.278	35050.99
552.478	36005.34
552.678	35821.02
552.878	35950.04
553.077	36048.35
553.277	35515.87
553.477	35915.23
553.676	35775.97
553.876	35669.47
554.076	35651.04
554.275	35294.69
554.475	35139.05
554.674	35923.42
554.874	35640.8
555.074	35522.02
555.273	35853.79
555.473	35755.49
555.672	35253.73
555.872	35171.82
556.071	35446.24
556.271	35751.39
556.47	35253.73
556.67	35116.52
556.869	35063.27
557.068	35397.09
557.268	35157.48
557.467	35300.84
557.667	35163.62
557.866	34967.02
558.065	35417.57
558.265	34678.25
558.464	34573.81
558.663	35235.3
558.863	34618.86
559.062	35204.58
559.261	34645.49
559.461	35153.38
559.66	34606.58
559.859	35081.7
560.058	34708.97
560.258	34659.82
560.457	34207.22
560.656	34573.81
560.855	34487.79
561.054	34977.26
561.253	34256.37
561.453	34588.14
561.652	34538.99
561.851	34622.96
562.05	34311.67
562.249	33744.38
562.448	34532.85
562.647	34227.7
562.846	34203.13
563.045	33932.79
563.244	33584.64
563.443	34481.65
563.642	33684.99
563.841	34139.64
564.04	33850.88
564.239	33938.94
564.438	33596.93
564.637	33852.92
564.836	33863.16
565.035	33328.64
565.234	33611.26
565.432	33510.91
565.631	33193.48
565.83	33254.92
566.029	33451.52
566.228	33394.18
566.427	32853.51
566.625	33111.56
566.824	32689.68
567.023	33277.44
567.222	32325.14
567.42	33537.54
567.619	32830.99
567.818	32847.37
568.016	32509.46
568.215	32794.12
568.414	32701.96
568.612	32933.39
568.811	32189.97
569.01	32370.19
569.208	32329.23
569.407	31968.79
569.605	32210.45
569.804	32212.5
570.002	31899.16
570.201	32058.9
570.4	31757.85
570.598	31624.73
570.797	31577.63
570.995	31761.95
571.193	31563.29
571.392	31878.68
571.59	31448.61
571.789	31372.83
571.987	31608.35
572.186	31684.12
572.384	30658.09
572.582	31397.41
572.781	31120.93
572.979	30854.7
573.177	31125.03
573.376	31098.41
573.574	30793.26
573.772	31172.13
573.971	30668.33
574.169	30641.71
574.367	30305.84
574.565	30842.41
574.763	30490.16
574.962	30770.73
575.16	30082.61
575.358	30553.65
575.556	30320.18
575.754	30338.61
575.952	30092.85
576.151	30389.81
576.349	30076.47
576.547	29957.69
576.745	29584.96
576.943	29859.38
577.141	29734.46
577.339	29910.58
577.537	29521.47
577.735	29441.6
577.933	29515.33
578.131	29640.25
578.329	29365.82
578.527	29269.57
578.725	29400.64
578.923	29316.67
579.121	28900.93
579.319	28937.8
579.516	29060.68
579.714	29013.57
579.912	28827.21
580.11	29005.38
580.308	28528.2
580.506	28571.21
580.704	28118.61
580.901	28644.94
581.099	28730.95
581.297	28442.19
581.495	28354.13
581.692	28161.62
581.89	28122.71
582.088	28173.91
582.285	28073.56
582.483	28173.91
582.681	27848.28
582.878	27850.33
583.076	27541.08
583.274	28157.52
583.471	27254.37
583.669	27428.45
583.866	27536.99
584.064	27516.51
584.262	27156.07
584.459	27432.54
584.657	27434.59
584.854	27768.41
585.052	27280.99
585.249	27004.52
585.447	27209.31
585.644	26545.77
585.841	27049.57
586.039	27002.47
586.236	26375.79
586.434	26627.69
586.631	26594.92
586.828	26463.85
587.026	26306.16
587.223	26269.3
587.42	25994.87
587.618	26359.41
587.815	26173.04
588.012	25886.32
588.21	26058.35
588.407	26226.29
588.604	25656.95
588.801	25587.32
588.999	25579.13
589.196	25620.09
589.393	25544.31
589.59	25632.38
589.787	25499.26
589.984	25341.57
590.182	25185.92
590.379	25507.45
590.576	25069.19
590.773	25132.67
590.97	25151.1
591.167	25007.75
591.364	24845.96
591.561	24934.02
591.758	24637.06
591.955	24422.03
592.152	24606.34
592.349	24698.5
592.546	24583.82
592.743	24637.06
592.94	23828.12
593.137	24471.18
593.334	24360.59
593.531	24016.53
593.727	24055.44
593.924	24166.03
594.121	23824.02
594.318	23977.62
594.515	23778.97
594.712	23836.31
594.908	23611.03
595.105	23670.42
595.302	23451.29
595.499	23836.31
595.696	23475.87
595.892	23350.94
596.089	23373.47
596.286	23269.02
596.482	23219.87
596.679	23269.02
596.876	23455.39
597.072	22920.87
597.269	22841
597.466	22894.24
597.662	22742.69
597.859	22941.35
598.055	22634.15
598.252	22806.18
598.448	22793.89
598.645	22544.04
598.841	22632.1
599.038	22425.26
599.234	22390.44
599.431	21831.35
599.627	22220.46
599.824	22406.83
600.02	21933.75
600.217	21995.18
600.413	22046.38
600.609	21976.75
600.806	21823.15
601.002	21663.41
601.198	21509.82
601.395	21497.53
601.591	21411.51
601.787	21280.44
601.984	21163.71
602.18	21368.51
602.376	21167.8
602.572	21143.23
602.769	21190.33
602.965	20983.49
603.161	21092.03
603.357	20852.42
603.553	20928.19
603.75	21098.17
603.946	20614.85
604.142	20920
604.338	20682.44
604.534	20674.24
604.73	20723.4
604.926	20532.93
605.122	20532.93
605.318	20391.62
605.514	20100.81
605.71	20297.42
605.906	20195.02
606.102	20016.85
606.298	20178.64
606.494	19898.06
606.69	20297.42
606.886	20031.18
607.082	19672.79
607.278	19893.97
607.474	19459.8
607.67	20025.04
607.866	19582.68
608.062	19982.03
608.257	19648.21
608.453	19789.52
608.649	19863.25
608.845	19408.6
609.041	19594.96
609.236	19496.66
609.432	19683.03
609.628	19515.09
609.824	19171.04
610.019	19293.91
610.215	19218.14
610.411	19476.18
610.606	19214.04
610.802	19349.21
610.998	19031.77
611.193	18978.53
611.389	18915.04
611.584	18972.38
611.78	18994.91
611.976	18960.09
612.171	19117.79
612.367	19019.49
612.562	18925.28
612.758	18792.16
612.953	18632.42
613.149	18861.79
613.344	18431.72
613.539	19023.58
613.735	18411.24
613.93	18444.01
614.126	18560.74
614.321	18657
614.517	18683.62
614.712	18398.95
614.907	18421.48
615.103	18415.33
615.298	18405.1
615.493	18157.29
615.688	18097.9
615.884	18562.79
616.079	18151.15
616.274	18032.36
616.47	18208.49
616.665	18218.73
616.86	18142.96
617.055	18104.04
617.25	18052.84
617.445	18185.96
617.641	17610.48
617.836	17889.01
618.031	17731.31
618.226	18136.81
618.421	17463.03
618.616	17714.93
618.811	17344.25
619.006	17698.55
619.201	17407.73
619.396	17665.78
619.591	17272.57
619.786	17719.03
619.981	17118.97
620.176	17112.83
620.371	16850.69
620.566	17309.43
620.761	16865.02
620.956	16889.6
621.151	17018.62
621.346	17094.4
621.541	16379.65
621.735	16877.31
621.93	16117.51
622.125	16535.3
622.32	16246.54
622.515	16359.17
622.709	16371.46
622.904	16146.19
623.099	16088.84
623.294	16131.85
623.488	15798.03
623.683	15970.06
623.878	15906.57
624.072	15875.85
624.267	15507.22
624.462	15451.92
624.656	15150.87
624.851	15478.55
625.046	15116.06
625.24	15107.87
625.435	15066.91
625.629	14976.8
625.824	14968.6
626.018	14798.62
626.213	14632.74
626.407	14679.84
626.602	14397.22
626.796	14671.65
626.991	14364.45
627.185	14491.43
627.38	14386.98
627.574	14176.04
627.768	13932.33
627.963	14124.84
628.157	13946.67
628.352	13741.87
628.546	13629.23
628.74	13858.6
628.935	13631.28
629.129	13612.85
629.323	13602.61
629.517	13438.77
629.712	13244.21
629.906	13397.81
630.1	13299.51
630.294	13315.89
630.489	12959.55
630.683	13080.38
630.877	12973.88
631.071	13100.86
631.265	12851
631.459	12963.64
631.653	12517.18
631.848	12748.61
632.042	12619.58
632.236	12570.43
632.43	12576.58
632.624	12480.32
632.818	12285.76
633.012	12222.28
633.206	12185.41
633.4	12275.52
633.594	11974.47
633.788	12123.97
633.982	11997
634.176	11908.94
634.369	12062.54
634.563	11812.68
634.757	11657.04
634.951	11624.27
635.145	11796.3
635.339	11808.59
635.533	11482.96
635.726	11474.77
635.92	11358.03
636.114	11452.24
636.308	11190.1
636.501	11102.04
636.695	11210.58
636.889	11032.41
637.083	11104.09
637.276	11020.12
637.47	10991.45
637.664	10645.34
637.857	11036.5
638.051	10653.53
638.244	10475.36
638.438	10651.49
638.632	10530.66
638.825	10522.46
639.019	10350.43
639.212	10268.52
639.406	10590.05
639.599	10233.7
639.793	10442.59
639.986	10129.25
640.18	10116.97
640.373	10262.37
640.567	9965.42
640.76	10233.7
640.954	9807.72
641.147	9856.87
641.34	9879.4
641.534	9860.97
641.727	9541.49
641.92	9793.39
642.114	9654.12
642.307	9781.1
642.5	9500.53
642.694	9420.66
642.887	9367.41
643.08	9459.57
643.273	9228.15
643.467	9404.27
643.66	9258.87
643.853	9193.33
644.046	9113.46
644.239	9344.88
644.432	8966.01
644.626	8886.14
644.819	8929.14
645.012	8951.67
645.205	8839.03
645.398	8787.83
645.591	8963.96
645.784	8589.18
645.977	8615.8
646.17	8556.41
646.363	8636.28
646.556	8482.69
646.749	8449.92
646.942	8544.13
647.135	8509.31
647.328	8378.24
647.521	8402.82
647.714	8363.9
647.907	8324.99
648.099	8286.08
648.292	8200.07
648.485	8114.05
648.678	7952.26
648.871	8146.82
649.064	8265.6
649.256	8195.97
649.449	7737.23
649.642	7944.07
649.835	7802.76
650.027	7827.34
650.22	7698.31
650.413	7679.88
650.605	7606.16
650.798	7630.73
650.991	7593.87
651.183	7675.79
651.376	7479.18
651.568	7411.6
651.761	7427.98
651.954	7503.76
652.146	7239.57
652.339	7438.22
652.531	7335.82
652.724	7221.14
652.916	7272.34
653.109	7159.7
653.301	7051.16
653.494	7249.81
653.686	6983.57
653.879	7188.37
654.071	7157.65
654.263	6983.57
654.456	6973.33
654.648	6915.99
654.84	6897.56
655.033	6807.45
655.225	6721.43
655.417	6815.64
655.61	6813.59
655.802	6731.67
655.994	6655.9
656.186	6662.04
656.379	6676.38
656.571	6649.75
656.763	6365.09
656.955	6487.96
657.148	6410.14
657.34	6608.8
657.532	6508.44
657.724	6475.68
657.916	6369.18
658.108	6279.07
658.3	6268.83
658.492	6215.59
658.684	6184.87
658.876	6133.67
659.068	6254.5
659.26	6131.62
659.452	6057.89
659.644	6152.1
659.836	6078.37
660.028	5881.77
660.22	5771.18
660.412	5937.06
660.604	5828.52
660.796	5756.84
660.988	5930.92
661.18	5797.8
661.372	5676.97
661.563	5799.85
661.755	5623.72
661.947	5715.88
662.139	5679.02
662.331	5644.2
662.522	5599.15
662.714	5705.64
662.906	5517.23
663.097	5621.67
663.289	5468.08
663.481	5306.29
663.673	5463.98
663.864	5386.16
664.056	5388.21
664.247	5394.35
664.439	5255.09
664.631	5281.71
664.822	5267.38
665.014	5386.16
665.205	5300.14
665.397	5154.74
665.588	5107.63
665.78	5130.16
665.971	5115.83
666.163	5160.88
666.354	5060.53
666.546	4962.23
666.737	5097.39
666.929	4878.26
667.12	5031.86
667.311	4763.58
667.503	4974.52
667.694	4945.84
667.885	4835.25
668.077	4878.26
668.268	4804.53
668.459	4831.16
668.651	4853.69
668.842	4763.58
669.033	4679.61
669.224	4859.83
669.416	4745.14
669.607	4698.04
669.798	4777.91
669.989	4622.27
670.18	4648.89
670.371	4589.5
670.563	4624.31
670.754	4587.45
670.945	4550.59
671.136	4509.63
671.327	4566.97
671.518	4372.41
671.709	4421.56
671.9	4566.97
672.091	4517.82
672.282	4437.95
672.473	4345.79
672.664	4222.91
672.855	4249.54
673.046	4487.1
673.237	4399.04
673.428	4313.02
673.619	4315.07
673.809	4272.06
674	4253.63
674.191	4380.61
674.382	4163.52
674.573	4138.94
674.764	4247.49
674.954	4069.31
675.145	4143.04
675.336	4075.46
675.527	4192.19
675.717	4192.19
675.908	3977.16
676.099	4046.79
676.289	4063.17
676.48	4083.65
676.671	3966.92
676.861	4030.4
677.052	4007.87
677.243	4003.78
677.433	4114.37
677.624	4165.57
677.814	3989.44
678.005	4087.75
678.195	3985.35
678.386	3952.58
678.576	3864.52
678.767	3909.57
678.957	4042.69
679.148	4026.31
679.338	3786.69
679.529	3819.46
679.719	3827.65
679.909	3958.72
680.1	3870.66
680.29	3940.29
680.481	3747.78
680.671	3844.04
680.861	3725.26
681.052	3760.07
681.242	3833.8
681.432	3821.51
681.622	3766.21
681.813	3710.92
682.003	3731.4
682.193	3596.23
682.383	3633.1
682.573	3719.11
682.764	3635.14
682.954	3747.78
683.144	3719.11
683.334	3674.06
683.524	3604.43
683.714	3766.21
683.904	3583.95
684.094	3637.19
684.284	3387.34
684.474	3551.18
684.664	3637.19
684.854	3526.6
685.044	3465.16
685.234	3524.55
685.424	3502.03
685.614	3489.74
685.804	3518.41
685.994	3624.9
686.184	3422.16
686.374	3610.57
686.564	3448.78
686.753	3411.92
686.943	3358.67
687.133	3356.62
687.323	3452.88
687.513	3370.96
687.702	3340.24
687.892	3274.7
688.082	3364.81
688.272	3334.09
688.461	3233.74
688.651	3227.6
688.841	3274.7
689.03	3381.2
689.22	3284.94
689.41	3160.02
689.599	3174.35
689.789	3209.17
689.979	3100.62
690.168	3135.44
690.358	3065.81
690.547	3299.28
690.737	3080.14
690.926	3219.41
691.116	3024.85
691.305	3112.91
691.495	3071.95
691.684	2985.94
691.874	2994.13
692.063	3045.33
692.252	3055.57
692.442	3037.14
692.631	2830.29
692.82	2932.69
693.01	2973.65
693.199	2879.44
693.388	2873.3
693.578	2924.5
693.767	2897.88
693.956	2830.29
694.146	2916.31
694.335	2893.78
694.524	2826.2
694.713	2871.25
694.902	2926.55
695.092	2824.15
695.281	2809.81
695.47	2813.91
695.659	2928.6
695.848	2697.17
696.037	2652.12
696.226	2678.74
696.415	2813.91
696.604	2801.62
696.793	2795.48
696.982	2740.18
697.171	2578.39
697.36	2844.63
697.549	2734.04
697.738	2645.98
697.927	2576.34
698.116	2609.11
698.305	2748.37
698.494	2678.74
698.683	2680.79
698.872	2594.78
699.061	2760.66
699.25	2660.31
699.438	2586.58
699.627	2592.73
699.816	2613.21
700.005	2654.17
700.193	2635.74
700.382	2678.74
700.571	2527.19
700.76	2531.29
700.948	2709.46
701.137	2494.43
701.326	2648.02
701.514	2740.18
701.703	2519
701.892	2605.02
702.08	2707.41
702.269	2590.68
702.457	2555.86
702.646	2365.4
702.834	2473.95
703.023	2578.39
703.212	2572.25
703.4	2420.7
703.589	2449.37
703.777	2496.47
703.965	2441.18
704.154	2529.24
704.342	2596.82
704.531	2498.52
704.719	2355.16
704.907	2439.13
705.096	2447.32
705.284	2471.9
705.472	2469.85
705.661	2457.56
705.849	2588.63
706.037	2457.56
706.226	2498.52
706.414	2387.93
706.602	2336.73
706.79	2441.18
706.979	2349.02
707.167	2480.09
707.355	2373.6
707.543	2369.5
707.731	2422.75
707.919	2346.97
708.107	2322.4
708.296	2338.78
708.484	2471.9
708.672	2332.64
708.86	2346.97
709.048	2392.03
709.236	2402.27
709.424	2398.17
709.612	2334.68
709.8	2338.78
709.988	2377.69
710.176	2402.27
710.364	2400.22
710.551	2437.08
710.739	2306.01
710.927	2363.36
711.115	2447.32
711.303	2473.95
711.491	2455.51
711.679	2371.55
711.866	2355.16
712.054	2230.24
712.242	2334.68
712.43	2371.55
712.617	2340.83
712.805	2314.2
712.993	2412.51
713.181	2314.2
713.368	2344.92
713.556	2299.87
713.744	2242.53
713.931	2353.12
714.119	2297.82
714.306	2320.35
714.494	2252.77
714.682	2224.09
714.869	2359.26
715.057	2203.61
715.244	2154.46
715.432	2197.47
715.619	2265.05
715.807	2220
715.994	2224.09
716.182	2267.1
716.369	2201.57
716.556	2404.32
716.744	2222.05
716.931	2297.82
717.119	2228.19
717.306	2191.33
717.493	2271.2
717.681	2289.63
717.868	2146.27
718.055	2275.29
718.242	2248.67
718.43	2220
718.617	2346.97
718.804	2256.86
718.991	2248.67
719.179	2203.61
719.366	2377.69
719.553	2236.38
719.74	2299.87
719.927	2162.65
720.114	2176.99
720.301	2306.01
720.488	2187.23
720.676	2291.68
720.863	2240.48
721.05	2209.76
721.237	2279.39
721.424	2146.27
721.611	2226.14
721.798	2150.37
721.985	2224.09
722.172	2164.7
722.358	2111.46
722.545	2154.46
722.732	2050.02
722.919	2234.33
723.106	2076.64
723.293	2258.91
723.48	2213.85
723.667	2158.56
723.853	2246.62
724.04	2138.08
724.227	2166.75
724.414	2131.94
724.6	2248.67
724.787	2217.95
724.974	2144.22
725.161	2242.53
725.347	2138.08
725.534	2191.33
725.72	2283.49
725.907	2154.46
726.094	2156.51
726.28	2107.36
726.467	2193.37
726.653	2166.75
726.84	2129.89
727.027	2189.28
727.213	2160.61
727.4	2281.44
727.586	2174.94
727.773	2136.03
727.959	2168.8
728.145	2146.27
728.332	2113.5
728.518	2125.79
728.705	2131.94
728.891	2070.5
729.077	2152.42
729.264	2166.75
729.45	2109.41
729.636	2189.28
729.823	2047.97
730.009	2127.84
730.195	2093.02
730.382	2095.07
730.568	2138.08
730.754	2138.08
730.94	2117.6
731.126	2152.42
731.313	2088.93
731.499	2088.93
731.685	2166.75
731.871	2097.12
732.057	2170.85
732.243	2211.81
732.429	2187.23
732.615	2101.22
732.801	2142.18
732.987	2111.46
733.173	1998.82
733.359	2197.47
733.545	2158.56
733.731	2140.13
733.917	2052.06
734.103	2101.22
734.289	2166.75
734.475	2068.45
734.661	2095.07
734.847	2136.03
735.033	2119.65
735.219	2103.26
735.404	2111.46
735.59	2154.46
735.776	2062.3
735.962	2086.88
736.148	2082.78
736.333	2007.01
736.519	2070.5
736.705	2117.6
736.89	2070.5
737.076	2041.82
737.262	2021.35
737.447	1994.72
737.633	1980.39
737.819	2093.02
738.004	2043.87
738.19	2084.83
738.375	2052.06
738.561	1953.76
738.747	2240.48
738.932	2064.35
739.118	2035.68
739.303	2009.06
739.489	2070.5
739.674	1939.43
739.859	1925.09
740.045	2002.91
740.23	1986.53
740.416	1955.81
740.601	1961.95
740.786	1810.4
740.972	1906.66
741.157	1978.34
741.342	1945.57
741.528	1920.99
741.713	2080.74
741.898	1834.98
742.084	1923.04
742.269	2068.45
742.454	1918.95
742.639	1980.39
742.824	1980.39
743.01	1929.19
743.195	1914.85
743.38	1888.23
743.565	1904.61
743.75	1920.99
743.935	1830.88
744.12	2004.96
744.305	1849.32
744.49	1806.31
744.675	1857.51
744.86	1798.12
745.045	1839.08
745.23	1851.36
745.415	1781.73
745.6	1794.02
745.785	1732.58
745.97	1728.49
746.155	1773.54
746.34	1781.73
746.525	1718.25
746.71	1644.52
746.895	1751.01
747.079	1712.1
747.264	1675.24
747.449	1722.34
747.634	1753.06
747.819	1769.44
748.003	1814.5
748.188	1597.42
748.373	1718.25
748.557	1691.62
748.742	1621.99
748.927	1652.71
749.111	1609.7
749.296	1535.98
749.481	1546.22
749.665	1660.9
749.85	1529.83
750.034	1662.95
750.219	1425.39
750.404	1523.69
750.588	1548.26
750.773	1578.98
750.957	1417.19
751.141	1441.77
751.326	1552.36
751.51	1445.87
751.695	1406.95
751.879	1519.59
752.064	1490.92
752.248	1470.44
752.432	1392.62
752.617	1359.85
752.801	1458.15
752.985	1380.33
753.17	1320.94
753.354	1353.71
753.538	1433.58
753.722	1335.28
753.907	1363.95
754.091	1312.75
754.275	1222.64
754.459	1284.08
754.643	1310.7
754.828	1224.69
755.012	1239.02
755.196	1224.69
755.38	1390.57
755.564	1302.51
755.748	1273.84
755.932	1249.26
756.116	1212.4
756.3	1265.64
756.484	1134.57
756.668	1193.97
756.852	1134.57
757.036	1181.68
757.22	1155.05
757.404	1146.86
757.588	1087.47
757.772	1173.49
757.956	1126.38
758.14	1128.43
758.323	1110
758.507	1110
758.691	1159.15
758.875	1173.49
759.059	1060.85
759.242	1095.66
759.426	1103.86
759.61	1097.71
759.794	1077.23
759.977	1005.55
760.161	1150.96
760.345	1095.66
760.528	1044.46
760.712	1077.23
760.895	999.41
761.079	1028.08
761.263	950.26
761.446	966.64
761.63	1032.18
761.813	1021.94
761.997	1001.46
762.18	995.31
762.364	954.35
762.547	942.07
762.731	1003.5
762.914	995.31
763.098	905.2
763.281	897.01
763.464	950.26
763.648	974.83
763.831	956.4
764.015	978.93
764.198	911.35
764.381	868.34
764.564	978.93
764.748	925.68
764.931	954.35
765.114	923.63
765.297	921.59
765.481	917.49
765.664	847.86
765.847	999.41
766.03	946.16
766.213	780.28
766.397	946.16
766.58	817.14
766.763	849.91
766.946	724.98
767.129	966.64
767.312	829.43
767.495	784.37
767.678	866.29
767.861	849.91
768.044	827.38
768.227	825.33
768.41	815.09
768.593	847.86
768.776	839.67
768.959	970.74
769.142	866.29
769.324	856.05
769.507	745.46
769.69	767.99
769.873	786.42
770.056	919.54
770.239	798.71
770.421	811
770.604	802.8
770.787	806.9
770.97	800.76
771.152	774.13
771.335	772.08
771.518	724.98
771.7	772.08
771.883	798.71
772.066	677.88
772.248	677.88
772.431	737.27
772.613	749.56
772.796	858.1
772.978	786.42
773.161	735.22
773.343	712.69
773.526	661.49
773.708	708.6
773.891	677.88
774.073	655.35
774.256	630.77
774.438	669.69
774.621	700.41
774.803	692.21
774.985	579.58
775.168	763.89
775.35	694.26
775.532	667.64
775.715	667.64
775.897	636.92
776.079	606.2
776.261	632.82
776.444	571.38
776.626	634.87
776.808	585.72
776.99	581.62
777.173	579.58
777.355	598.01
777.537	720.88
777.719	577.53
777.901	585.72
778.083	567.29
778.265	530.42
778.447	579.58
778.629	487.42
778.811	552.95
778.993	571.38
779.175	569.34
779.357	491.51
779.539	530.42
779.721	561.14
779.903	571.38
780.085	514.04
780.267	534.52
780.449	569.34
780.631	503.8
780.812	442.36
780.994	577.53
781.176	563.19
781.358	499.7
781.54	489.46
781.721	495.61
781.903	526.33
782.085	542.71
782.267	565.24
782.448	544.76
782.63	511.99
782.812	454.65
782.993	419.83
783.175	471.03
783.357	505.85
783.538	522.23
783.72	442.36
783.901	446.46
784.083	409.59
784.264	458.74
784.446	438.27
784.627	430.07
784.809	432.12
784.99	368.63
785.172	389.11
785.353	356.35
785.535	380.92
785.716	397.31
785.897	448.51
786.079	389.11
786.26	382.97
786.441	434.17
786.623	335.87
786.804	382.97
786.985	333.82
787.167	382.97
787.348	348.15
787.529	331.77
787.71	393.21
787.891	397.31
788.073	348.15
788.254	401.4
788.435	399.35
788.616	360.44
788.797	350.2
788.978	374.78
789.159	356.35
789.34	391.16
789.522	385.02
789.703	401.4
789.884	331.77
790.065	331.77
790.246	385.02
790.427	299
790.607	358.39
790.788	360.44
790.969	266.24
791.15	346.11
791.331	278.52
791.512	346.11
791.693	249.85
791.874	272.38
792.054	301.05
792.235	337.91
792.416	309.24
792.597	229.37
792.778	280.57
792.958	325.63
793.139	290.81
793.32	342.01
793.5	268.28
793.681	294.91
793.862	276.48
794.042	299
794.223	274.43
794.404	227.32
794.584	217.08
794.765	237.56
794.945	268.28
795.126	327.67
795.306	350.2
795.487	309.24
795.667	239.61
795.848	346.11
796.028	184.32
796.209	245.76
796.389	315.39
796.57	268.28
796.75	184.32
796.93	290.81
797.111	276.48
797.291	243.71
797.471	229.37
797.652	227.32
797.832	192.51
798.012	251.9
798.192	149.5
798.373	276.48
798.553	233.47
798.733	260.09
798.913	227.32
799.093	241.66
799.274	313.34
799.454	204.8
799.634	212.99
799.814	251.9
799.994	235.52
800.174	247.8
800.354	243.71
800.534	196.61
800.714	258.04
800.894	194.56
801.074	192.51
801.254	143.36
801.434	206.84
801.614	276.48
801.794	106.49
801.974	796.66
802.154	202.75
802.334	200.7
802.514	153.6
802.693	163.84
802.873	208.89
803.053	249.85
803.233	229.37
803.413	153.6
803.592	178.17
803.772	204.8
803.952	167.93
804.131	231.42
804.311	231.42
804.491	223.23
804.67	169.98
804.85	163.84
805.03	131.07
805.209	233.47
805.389	151.55
805.568	139.26
805.748	172.03
805.928	112.64
806.107	225.28
806.287	153.6
806.466	151.55
806.646	192.51
806.825	118.78
807.004	151.55
807.184	167.93
807.363	169.98
807.543	192.51
807.722	188.41
807.901	159.74
808.081	151.55
808.26	122.88
808.439	133.12
808.619	133.12
808.798	129.02
808.977	165.89
809.156	75.77
809.336	202.75
809.515	120.83
809.694	176.13
809.873	145.41
810.052	106.49
810.231	174.08
810.411	190.46
810.59	219.13
810.769	55.3
810.948	184.32
811.127	135.17
811.306	167.93
811.485	178.17
811.664	139.26
811.843	57.34
812.022	104.45
812.201	200.7
812.38	104.45
812.559	153.6
812.737	161.79
812.916	98.3
813.095	94.21
813.274	143.36
813.453	135.17
813.632	151.55
813.811	161.79
813.989	77.82
814.168	28.67
814.347	163.84
814.526	149.5
814.704	40.96
814.883	151.55
815.062	69.63
815.24	180.22
815.419	32.77
815.598	118.78
815.776	151.55
815.955	100.35
816.133	34.82
816.312	169.98
816.49	63.49
816.669	108.54
816.847	106.49
817.026	61.44
817.204	110.59
817.383	139.26
817.561	122.88
817.74	118.78
817.918	124.93
818.097	43.01
818.275	49.15
818.453	57.34
818.632	167.93
818.81	63.49
818.988	63.49
819.167	88.06
819.345	53.25
819.523	145.41
819.701	83.97
819.879	106.49
820.058	120.83
820.236	88.06
820.414	118.78
820.592	110.59
820.77	94.21
820.948	137.21
821.127	53.25
821.305	118.78
821.483	86.01
821.661	167.93
821.839	86.01
822.017	102.4
822.195	155.65
822.373	137.21
822.551	24.58
822.729	126.97
822.907	61.44
823.085	61.44
823.262	122.88
823.44	143.36
823.618	79.87
823.796	110.59
823.974	69.63
824.152	118.78
824.329	36.86
824.507	120.83
824.685	118.78
824.863	135.17
825.04	20.48
825.218	79.87
825.396	86.01
825.574	47.1
825.751	36.86
825.929	131.07
826.107	18.43
826.284	106.49
826.462	61.44
826.639	36.86
826.817	28.67
826.994	71.68
827.172	28.67
827.349	186.37
827.527	65.53
827.704	110.59
827.882	126.97
828.059	69.63
828.237	40.96
828.414	81.92
828.591	30.72
828.769	49.15
828.946	69.63
829.124	135.17
829.301	34.82
829.478	94.21
829.655	77.82
829.833	90.11
830.01	34.82
830.187	112.64
830.364	102.4
830.542	47.1
830.719	122.88
830.896	129.02
831.073	-36.86
831.25	86.01
831.427	69.63
831.604	73.73
831.782	45.06
831.959	100.35
832.136	98.3
832.313	81.92
832.49	118.78
832.667	47.1
832.844	34.82
833.021	151.55
833.198	69.63
833.374	79.87
833.551	30.72
833.728	88.06
833.905	73.73
834.082	110.59
834.259	116.73
834.436	135.17
834.612	94.21
834.789	47.1
834.966	45.06
835.143	122.88
835.319	69.63
835.496	63.49
835.673	102.4
835.85	167.93
836.026	-8.19
836.203	63.49
836.38	79.87
836.556	47.1
836.733	55.3
836.909	47.1
837.086	45.06
837.262	63.49
837.439	4.1
837.616	10.24
837.792	45.06
837.968	61.44
838.145	94.21
838.321	36.86
838.498	81.92
838.674	59.39
838.851	53.25
839.027	45.06
839.203	28.67
839.38	81.92
839.556	-10.24
839.732	2.05
839.909	12.29
840.085	8.19
840.261	-18.43
840.437	47.1
840.614	8.19
840.79	110.59
840.966	26.62
841.142	-20.48
841.318	32.77
841.494	24.58
841.671	49.15
841.847	106.49
842.023	30.72
842.199	69.63
842.375	126.97
842.551	-22.53
842.727	-10.24
842.903	110.59
843.079	26.62
843.255	102.4
843.431	45.06
843.607	67.58
843.783	14.34
843.959	73.73
844.134	24.58
844.31	69.63
844.486	14.34
844.662	14.34
844.838	0
845.013	-18.43
845.189	122.88
845.365	30.72
845.541	30.72
845.716	110.59
845.892	49.15
846.068	47.1
846.244	77.82
846.419	49.15
846.595	30.72
846.77	36.86
846.946	18.43
847.122	65.53
847.297	49.15
847.473	90.11
847.648	38.91
847.824	4.1
847.999	-67.58
848.175	32.77
848.35	20.48
848.526	20.48
848.701	104.45
848.876	118.78
849.052	47.1
849.227	53.25
849.403	47.1
849.578	16.38
849.753	-2.05
849.929	53.25
850.104	10.24
850.279	-2.05
850.454	63.49
850.63	43.01
850.805	-24.58
850.98	77.82
851.155	-6.14
851.33	-2.05
851.505	20.48
851.681	2.05
851.856	0
852.031	51.2
852.206	18.43
852.381	-12.29
852.556	16.38
852.731	0
852.906	45.06
853.081	30.72
853.256	-20.48
853.431	22.53
853.606	-16.38
853.781	-22.53
853.956	-8.19
854.131	45.06
854.305	-24.58
854.48	28.67
854.655	-18.43
854.83	-20.48
855.005	30.72
855.18	73.73
855.354	86.01
855.529	36.86
855.704	28.67
855.879	4.1
856.053	-28.67
856.228	63.49
856.403	12.29
856.577	12.29
856.752	-36.86
856.926	77.82
857.101	-16.38
857.276	63.49
857.45	-43.01
857.625	24.58
857.799	26.62
857.974	6.14
858.148	12.29
858.323	6.14
858.497	79.87
858.672	-45.06
858.846	-57.34
859.02	61.44
859.195	-30.72
859.369	63.49
859.543	24.58
859.718	-18.43
859.892	18.43
860.066	77.82
860.241	63.49
860.415	-8.19
860.589	-53.25
860.763	83.97
860.938	34.82
861.112	77.82
861.286	83.97
861.46	77.82
861.634	12.29
861.808	79.87
861.982	20.48
862.157	2.05
862.331	-28.67
862.505	14.34
862.679	2.05
862.853	57.34
863.027	-14.34
863.201	96.25
863.375	-59.39
863.549	28.67
863.722	16.38
863.896	20.48
864.07	45.06
864.244	-16.38
864.418	57.34
864.592	8.19
864.766	-71.68
864.939	26.62
865.113	-28.67
865.287	57.34
865.461	16.38
865.634	49.15
865.808	32.77
865.982	47.1
866.156	-45.06
866.329	14.34
866.503	-6.14
866.676	67.58
866.85	63.49
867.024	-2.05
867.197	-22.53
867.371	-18.43
867.544	32.77
867.718	22.53
867.891	45.06
868.065	8.19
868.238	20.48
868.412	65.53
868.585	49.15
868.759	28.67
868.932	-26.62
869.105	4.1
869.279	16.38
869.452	-36.86
869.625	53.25
869.799	10.24
869.972	-88.06
870.145	6.14
870.319	40.96
870.492	67.58
870.665	-59.39
870.838	-10.24
871.011	6.14
871.185	40.96
871.358	4.1
871.531	114.69
871.704	-16.38
871.877	36.86
872.05	-16.38
872.223	59.39
872.396	45.06
872.569	-59.39
872.742	16.38
872.915	6.14
873.088	53.25
873.261	20.48
873.434	26.62
873.607	28.67
873.78	65.53
873.953	-69.63
874.126	-32.77
874.299	53.25
874.471	4.1
874.644	-20.48
874.817	47.1
874.99	34.82
875.163	28.67
875.335	4.1
875.508	24.58
875.681	30.72
875.853	24.58
876.026	43.01
876.199	-4.1
876.371	57.34
876.544	-4.1
876.717	24.58
876.889	-24.58
877.062	12.29
877.234	-26.62
877.407	69.63
877.579	-8.19
877.752	86.01
877.924	-24.58
878.097	94.21
878.269	10.24
878.442	8.19
878.614	36.86
878.786	55.3
878.959	-28.67
879.131	-36.86
879.303	36.86
879.476	36.86
879.648	20.48
879.82	-6.14
879.993	0
880.165	14.34
880.337	-81.92
880.509	-18.43
880.681	-8.19
880.854	30.72
881.026	20.48
881.198	26.62
881.37	22.53
881.542	-8.19
881.714	8.19
881.886	45.06
882.058	36.86
882.23	36.86
882.402	4.1
882.574	-45.06
882.746	20.48
882.918	34.82
883.09	81.92
883.262	-57.34
883.434	-53.25
883.606	-106.49
883.778	71.68
883.95	-8.19
884.122	-65.54
884.293	77.82
884.465	47.1
884.637	40.96
884.809	-98.3
884.98	-73.73
885.152	-43.01
885.324	24.58
885.496	-81.92
885.667	4.1
885.839	2.05
886.011	-4.1
886.182	4.1
886.354	10.24
886.525	12.29
886.697	-24.58
886.869	83.97
887.04	8.19
887.212	26.62
887.383	20.48
887.555	0
887.726	32.77
887.897	4.1
888.069	20.48
888.24	38.91
888.412	40.96
888.583	8.19
888.754	4.1
888.926	-69.63
889.097	-12.29
889.268	-28.67
889.44	8.19
889.611	-83.97
889.782	16.38
889.953	36.86
890.125	47.1
890.296	57.34
890.467	-22.53
890.638	-59.39
890.809	-90.11
890.98	-45.06
891.151	22.53
891.323	12.29
891.494	73.73
891.665	28.67
891.836	36.86
892.007	-40.96
892.178	20.48
892.349	-53.25
892.52	-38.91
892.691	0
892.862	-12.29
893.032	12.29
893.203	-28.67
893.374	-4.1
893.545	32.77
893.716	2.05
893.887	28.67
894.057	-32.77
894.228	32.77
894.399	-67.58
894.57	49.15
894.74	-18.43
894.911	-36.86
895.082	-18.43
895.253	14.34
895.423	30.72
895.594	0
895.764	-2.05
895.935	30.72
896.106	4.1
896.276	10.24
896.447	26.62
896.617	-83.97
896.788	4.1
896.958	38.91
897.129	-12.29
897.299	0
897.47	71.68
897.64	-2.05
897.81	-55.3
897.981	-77.82
898.151	-10.24
898.322	49.15
898.492	6.14
898.662	-4.1
898.832	8.19
899.003	-8.19
899.173	-4.1
899.343	-20.48
899.513	-28.67
