Data from USB4F104151__222__14-21-21-888.txt Node

Date: Thu Mar 13 14:21:21 EDT 2025
User: louis
Spectrometer: USB4F10415
Trigger mode: 4
Integration Time (sec): 2.000000E-2
Scans to average: 1
Electric dark correction enabled: true
Nonlinearity correction enabled: false
Boxcar width: 0
XAxis mode: Wavelengths
Number of Pixels in Spectrum: 3648
>>>>>Begin Spectral Data<<<<<
178.204	-55.81
178.424	-55.81
178.644	-55.81
178.864	-168.45
179.084	-119.29
179.304	-12.8
179.524	-31.23
179.744	36.35
179.964	13.82
180.184	-61.95
180.404	-39.42
180.624	15.87
180.844	1.54
181.064	-0.51
181.283	1.54
181.503	5.63
181.723	71.17
181.943	-111.1
182.163	-12.8
182.383	52.74
182.602	101.89
182.822	38.4
183.042	48.64
183.262	3.58
183.482	-20.99
183.701	-43.52
183.921	-16.9
184.141	-55.81
184.361	42.5
184.58	44.54
184.8	75.26
185.02	3.58
185.239	87.55
185.459	103.93
185.679	50.69
185.898	-6.66
186.118	42.5
186.338	58.88
186.557	34.3
186.777	28.16
186.997	75.26
187.216	-8.7
187.436	91.65
187.655	40.45
187.875	-10.75
188.095	3.58
188.314	50.69
188.534	19.97
188.753	-0.51
188.973	60.93
189.192	38.4
189.412	44.54
189.631	34.3
189.851	38.4
190.07	60.93
190.29	22.02
190.509	30.21
190.729	-6.66
190.948	77.31
191.168	108.03
191.387	-6.66
191.607	9.73
191.826	-47.62
192.045	60.93
192.265	-0.51
192.484	-37.38
192.704	19.97
192.923	-29.18
193.142	71.17
193.362	42.5
193.581	19.97
193.8	40.45
194.02	-0.51
194.239	5.63
194.458	85.5
194.678	5.63
194.897	11.78
195.116	38.4
195.335	5.63
195.555	58.88
195.774	1.54
195.993	-4.61
196.212	13.82
196.432	-47.62
196.651	9.73
196.87	5.63
197.089	99.84
197.308	46.59
197.528	99.84
197.747	-29.18
197.966	-10.75
198.185	97.79
198.404	30.21
198.623	58.88
198.842	58.88
199.062	-14.85
199.281	69.12
199.5	-14.85
199.719	26.11
199.938	81.41
200.157	56.83
200.376	95.74
200.595	65.02
200.814	99.84
201.033	11.78
201.252	56.83
201.471	-6.66
201.69	58.88
201.909	93.69
202.128	50.69
202.347	-12.8
202.566	60.93
202.785	30.21
203.004	34.3
203.223	103.93
203.442	50.69
203.661	-20.99
203.879	17.92
204.098	30.21
204.317	-39.42
204.536	-0.51
204.755	28.16
204.974	-51.71
205.193	-4.61
205.411	124.41
205.63	3.58
205.849	38.4
206.068	85.5
206.287	36.35
206.505	-31.23
206.724	-10.75
206.943	-29.18
207.162	85.5
207.381	-14.85
207.599	52.74
207.818	1.54
208.037	-70.14
208.255	-27.14
208.474	-0.51
208.693	32.26
208.911	9.73
209.13	-27.14
209.349	-23.04
209.567	28.16
209.786	95.74
210.005	17.92
210.223	1.54
210.442	79.36
210.661	-35.33
210.879	-35.33
211.098	112.13
211.316	13.82
211.535	60.93
211.753	17.92
211.972	-35.33
212.191	-2.56
212.409	75.26
212.628	62.98
212.846	50.69
213.065	77.31
213.283	26.11
213.502	48.64
213.72	-6.66
213.938	124.41
214.157	38.4
214.375	1.54
214.594	54.78
214.812	38.4
215.031	28.16
215.249	-12.8
215.467	-55.81
215.686	75.26
215.904	71.17
216.122	34.3
216.341	56.83
216.559	-2.56
216.778	46.59
216.996	34.3
217.214	3.58
217.432	32.26
217.651	-12.8
217.869	44.54
218.087	24.06
218.306	42.5
218.524	3.58
218.742	-27.14
218.96	75.26
219.179	-0.51
219.397	58.88
219.615	110.08
219.833	17.92
220.051	34.3
220.27	50.69
220.488	26.11
220.706	44.54
220.924	48.64
221.142	30.21
221.36	42.5
221.578	-14.85
221.796	-2.56
222.015	32.26
222.233	67.07
222.451	60.93
222.669	-49.66
222.887	38.4
223.105	-4.61
223.323	3.58
223.541	-6.66
223.759	19.97
223.977	26.11
224.195	65.02
224.413	77.31
224.631	7.68
224.849	-6.66
225.067	60.93
225.285	-14.85
225.503	52.74
225.721	9.73
225.939	26.11
226.157	46.59
226.375	93.69
226.592	-16.9
226.81	-25.09
227.028	9.73
227.246	58.88
227.464	1.54
227.682	5.63
227.9	99.84
228.117	5.63
228.335	-2.56
228.553	11.78
228.771	19.97
228.989	9.73
229.206	36.35
229.424	17.92
229.642	9.73
229.86	-23.04
230.077	67.07
230.295	13.82
230.513	62.98
230.731	79.36
230.948	56.83
231.166	42.5
231.384	1.54
231.601	24.06
231.819	62.98
232.037	91.65
232.254	-27.14
232.472	26.11
232.689	9.73
232.907	50.69
233.125	77.31
233.342	-14.85
233.56	50.69
233.777	34.3
233.995	-23.04
234.213	46.59
234.43	36.35
234.648	62.98
234.865	5.63
235.083	42.5
235.3	40.45
235.518	101.89
235.735	83.45
235.953	60.93
236.17	3.58
236.388	17.92
236.605	-51.71
236.822	50.69
237.04	-2.56
237.257	54.78
237.475	-35.33
237.692	58.88
237.909	126.46
238.127	-0.51
238.344	58.88
238.562	65.02
238.779	62.98
238.996	9.73
239.214	48.64
239.431	32.26
239.648	-6.66
239.865	67.07
240.083	85.5
240.3	3.58
240.517	9.73
240.735	79.36
240.952	60.93
241.169	83.45
241.386	36.35
241.603	58.88
241.821	7.68
242.038	71.17
242.255	28.16
242.472	-23.04
242.689	-14.85
242.907	75.26
243.124	7.68
243.341	26.11
243.558	-41.47
243.775	52.74
243.992	9.73
244.209	71.17
244.426	17.92
244.643	83.45
244.86	38.4
245.078	42.5
245.295	26.11
245.512	34.3
245.729	-39.42
245.946	-10.75
246.163	-6.66
246.38	-29.18
246.597	28.16
246.814	-20.99
247.031	38.4
247.248	-4.61
247.464	46.59
247.681	17.92
247.898	26.11
248.115	28.16
248.332	28.16
248.549	134.65
248.766	95.74
248.983	46.59
249.2	15.87
249.417	7.68
249.633	42.5
249.85	83.45
250.067	24.06
250.284	-6.66
250.501	42.5
250.717	69.12
250.934	9.73
251.151	-35.33
251.368	28.16
251.585	46.59
251.801	19.97
252.018	-37.38
252.235	-20.99
252.451	28.16
252.668	5.63
252.885	34.3
253.102	1.54
253.318	50.69
253.535	-12.8
253.752	-6.66
253.968	-23.04
254.185	5.63
254.401	11.78
254.618	44.54
254.835	-25.09
255.051	91.65
255.268	19.97
255.484	42.5
255.701	28.16
255.917	69.12
256.134	5.63
256.351	-14.85
256.567	-31.23
256.784	9.73
257	48.64
257.217	-12.8
257.433	60.93
257.65	-59.9
257.866	28.16
258.082	3.58
258.299	26.11
258.515	-12.8
258.732	-2.56
258.948	11.78
259.165	36.35
259.381	-31.23
259.597	36.35
259.814	95.74
260.03	38.4
260.246	-37.38
260.463	85.5
260.679	22.02
260.895	17.92
261.112	60.93
261.328	67.07
261.544	-10.75
261.761	99.84
261.977	-18.94
262.193	-31.23
262.409	79.36
262.626	69.12
262.842	13.82
263.058	48.64
263.274	42.5
263.49	-12.8
263.707	58.88
263.923	34.3
264.139	3.58
264.355	48.64
264.571	108.03
264.787	22.02
265.004	46.59
265.22	-14.85
265.436	13.82
265.652	1.54
265.868	46.59
266.084	24.06
266.3	50.69
266.516	7.68
266.732	140.8
266.948	30.21
267.164	34.3
267.38	28.16
267.596	54.78
267.812	110.08
268.028	17.92
268.244	19.97
268.46	79.36
268.676	34.3
268.892	30.21
269.108	9.73
269.324	24.06
269.54	-45.57
269.756	85.5
269.972	-29.18
270.188	28.16
270.403	110.08
270.619	32.26
270.835	77.31
271.051	-23.04
271.267	32.26
271.483	34.3
271.698	30.21
271.914	140.8
272.13	28.16
272.346	-20.99
272.562	1.54
272.777	52.74
272.993	-6.66
273.209	38.4
273.425	-18.94
273.64	58.88
273.856	34.3
274.072	26.11
274.287	11.78
274.503	56.83
274.719	11.78
274.934	24.06
275.15	-33.28
275.366	99.84
275.581	-10.75
275.797	50.69
276.012	19.97
276.228	60.93
276.444	9.73
276.659	108.03
276.875	44.54
277.09	1.54
277.306	-47.62
277.521	67.07
277.737	52.74
277.952	9.73
278.168	-23.04
278.383	22.02
278.599	22.02
278.814	42.5
279.03	1.54
279.245	44.54
279.461	58.88
279.676	42.5
279.892	9.73
280.107	44.54
280.322	26.11
280.538	9.73
280.753	-23.04
280.969	-12.8
281.184	-33.28
281.399	54.78
281.615	48.64
281.83	73.21
282.045	34.3
282.26	3.58
282.476	-20.99
282.691	52.74
282.906	50.69
283.122	42.5
283.337	-6.66
283.552	-2.56
283.767	-31.23
283.983	110.08
284.198	-27.14
284.413	42.5
284.628	-20.99
284.843	-51.71
285.058	52.74
285.274	60.93
285.489	-35.33
285.704	-14.85
285.919	34.3
286.134	91.65
286.349	-25.09
286.564	-12.8
286.779	48.64
286.995	46.59
287.21	-27.14
287.425	42.5
287.64	19.97
287.855	46.59
288.07	32.26
288.285	99.84
288.5	24.06
288.715	9.73
288.93	26.11
289.145	-29.18
289.36	42.5
289.575	67.07
289.79	-61.95
290.004	17.92
290.219	65.02
290.434	40.45
290.649	5.63
290.864	13.82
291.079	11.78
291.294	24.06
291.509	44.54
291.724	-6.66
291.938	-18.94
292.153	46.59
292.368	110.08
292.583	-6.66
292.798	17.92
293.012	30.21
293.227	42.5
293.442	26.11
293.657	60.93
293.871	34.3
294.086	22.02
294.301	103.93
294.516	-10.75
294.73	-14.85
294.945	-25.09
295.16	42.5
295.374	46.59
295.589	75.26
295.804	13.82
296.018	42.5
296.233	75.26
296.447	50.69
296.662	34.3
296.877	105.98
297.091	-6.66
297.306	5.63
297.52	48.64
297.735	71.17
297.949	30.21
298.164	77.31
298.378	-80.38
298.593	-16.9
298.807	40.45
299.022	3.58
299.236	67.07
299.451	60.93
299.665	79.36
299.88	-2.56
300.094	9.73
300.309	50.69
300.523	52.74
300.737	50.69
300.952	-12.8
301.166	13.82
301.381	3.58
301.595	11.78
301.809	17.92
302.024	-14.85
302.238	1.54
302.452	114.17
302.667	-37.38
302.881	44.54
303.095	-49.66
303.309	69.12
303.524	11.78
303.738	24.06
303.952	-31.23
304.166	58.88
304.381	-59.9
304.595	110.08
304.809	-59.9
305.023	99.84
305.237	30.21
305.452	5.63
305.666	24.06
305.88	-31.23
306.094	110.08
306.308	36.35
306.522	60.93
306.736	81.41
306.95	52.74
307.164	42.5
307.379	26.11
307.593	48.64
307.807	50.69
308.021	34.3
308.235	75.26
308.449	9.73
308.663	-31.23
308.877	52.74
309.091	-12.8
309.305	110.08
309.519	-27.14
309.733	1.54
309.947	-53.76
310.161	11.78
310.374	-8.7
310.588	71.17
310.802	-27.14
311.016	11.78
311.23	5.63
311.444	-23.04
311.658	17.92
311.872	93.69
312.085	-14.85
312.299	42.5
312.513	75.26
312.727	5.63
312.941	-29.18
313.154	17.92
313.368	26.11
313.582	-45.57
313.796	19.97
314.009	17.92
314.223	-33.28
314.437	34.3
314.651	65.02
314.864	65.02
315.078	-59.9
315.292	-35.33
315.505	-31.23
315.719	65.02
315.933	42.5
316.146	17.92
316.36	22.02
316.573	83.45
316.787	-6.66
317.001	24.06
317.214	40.45
317.428	5.63
317.641	56.83
317.855	85.5
318.068	-10.75
318.282	9.73
318.495	62.98
318.709	75.26
318.922	44.54
319.136	87.55
319.349	50.69
319.563	-6.66
319.776	95.74
319.99	22.02
320.203	60.93
320.417	58.88
320.63	60.93
320.843	71.17
321.057	42.5
321.27	38.4
321.483	60.93
321.697	36.35
321.91	42.5
322.124	30.21
322.337	85.5
322.55	13.82
322.763	71.17
322.977	34.3
323.19	34.3
323.403	-39.42
323.617	-16.9
323.83	67.07
324.043	38.4
324.256	46.59
324.469	-39.42
324.683	-33.28
324.896	46.59
325.109	95.74
325.322	42.5
325.535	32.26
325.748	62.98
325.962	44.54
326.175	-23.04
326.388	50.69
326.601	44.54
326.814	48.64
327.027	13.82
327.24	65.02
327.453	5.63
327.666	50.69
327.879	83.45
328.092	42.5
328.305	22.02
328.518	54.78
328.731	-4.61
328.944	97.79
329.157	50.69
329.37	81.41
329.583	28.16
329.796	110.08
330.009	52.74
330.222	75.26
330.435	34.3
330.648	1.54
330.861	32.26
331.073	83.45
331.286	42.5
331.499	5.63
331.712	-20.99
331.925	30.21
332.138	9.73
332.35	17.92
332.563	67.07
332.776	11.78
332.989	17.92
333.202	9.73
333.414	22.02
333.627	-2.56
333.84	44.54
334.053	26.11
334.265	-59.9
334.478	42.5
334.691	22.02
334.903	-10.75
335.116	24.06
335.329	9.73
335.541	103.93
335.754	46.59
335.966	11.78
336.179	50.69
336.392	5.63
336.604	83.45
336.817	40.45
337.029	50.69
337.242	-59.9
337.454	97.79
337.667	83.45
337.88	52.74
338.092	42.5
338.305	118.27
338.517	13.82
338.729	95.74
338.942	-14.85
339.154	-2.56
339.367	9.73
339.579	30.21
339.792	1.54
340.004	60.93
340.217	69.12
340.429	87.55
340.641	-39.42
340.854	19.97
341.066	30.21
341.278	75.26
341.491	67.07
341.703	-16.9
341.915	7.68
342.128	50.69
342.34	87.55
342.552	9.73
342.764	22.02
342.977	44.54
343.189	32.26
343.401	58.88
343.613	-35.33
343.826	3.58
344.038	-4.61
344.25	38.4
344.462	3.58
344.674	42.5
344.886	36.35
345.099	52.74
345.311	42.5
345.523	-2.56
345.735	30.21
345.947	67.07
346.159	83.45
346.371	52.74
346.583	99.84
346.795	79.36
347.007	-8.7
347.219	42.5
347.431	9.73
347.643	79.36
347.855	-12.8
348.067	142.85
348.279	24.06
348.491	36.35
348.703	9.73
348.915	-45.57
349.127	3.58
349.339	42.5
349.551	1.54
349.763	101.89
349.975	19.97
350.187	-2.56
350.399	46.59
350.61	77.31
350.822	-0.51
351.034	93.69
351.246	34.3
351.458	85.5
351.669	52.74
351.881	79.36
352.093	71.17
352.305	140.8
352.517	28.16
352.728	46.59
352.94	-47.62
353.152	69.12
353.363	17.92
353.575	36.35
353.787	114.17
353.999	54.78
354.21	128.51
354.422	34.3
354.633	36.35
354.845	-18.94
355.057	50.69
355.268	52.74
355.48	99.84
355.692	-10.75
355.903	1.54
356.115	87.55
356.326	83.45
356.538	60.93
356.749	-43.52
356.961	140.8
357.172	71.17
357.384	34.3
357.595	30.21
357.807	9.73
358.018	-2.56
358.23	9.73
358.441	112.13
358.653	26.11
358.864	42.5
359.075	-4.61
359.287	83.45
359.498	69.12
359.709	-20.99
359.921	26.11
360.132	67.07
360.344	118.27
360.555	26.11
360.766	15.87
360.977	36.35
361.189	11.78
361.4	42.5
361.611	54.78
361.823	46.59
362.034	108.03
362.245	58.88
362.456	116.22
362.667	71.17
362.879	28.16
363.09	65.02
363.301	50.69
363.512	-6.66
363.723	34.3
363.935	-6.66
364.146	69.12
364.357	9.73
364.568	110.08
364.779	-20.99
364.99	101.89
365.201	-6.66
365.412	116.22
365.623	-10.75
365.834	60.93
366.045	54.78
366.256	73.21
366.467	-20.99
366.678	71.17
366.889	95.74
367.1	7.68
367.311	42.5
367.522	15.87
367.733	19.97
367.944	60.93
368.155	-14.85
368.366	13.82
368.577	46.59
368.788	73.21
368.999	85.5
369.209	85.5
369.42	83.45
369.631	60.93
369.842	91.65
370.053	28.16
370.264	91.65
370.474	69.12
370.685	60.93
370.896	34.3
371.107	46.59
371.317	-12.8
371.528	9.73
371.739	93.69
371.95	42.5
372.16	58.88
372.371	54.78
372.582	26.11
372.792	173.57
373.003	93.69
373.214	71.17
373.424	52.74
373.635	62.98
373.846	114.17
374.056	85.5
374.267	67.07
374.477	58.88
374.688	13.82
374.898	38.4
375.109	52.74
375.319	60.93
375.53	77.31
375.74	-18.94
375.951	85.5
376.161	13.82
376.372	62.98
376.582	101.89
376.793	46.59
377.003	32.26
377.214	-4.61
377.424	134.65
377.635	44.54
377.845	34.3
378.055	-4.61
378.266	-6.66
378.476	28.16
378.686	99.84
378.897	58.88
379.107	81.41
379.317	83.45
379.528	1.54
379.738	91.65
379.948	-25.09
380.158	62.98
380.369	48.64
380.579	13.82
380.789	30.21
380.999	52.74
381.21	77.31
381.42	136.7
381.63	-49.66
381.84	-27.14
382.05	116.22
382.261	71.17
382.471	46.59
382.681	1.54
382.891	69.12
383.101	79.36
383.311	19.97
383.521	28.16
383.731	120.32
383.941	-20.99
384.151	110.08
384.361	83.45
384.571	67.07
384.781	97.79
384.991	46.59
385.201	83.45
385.411	116.22
385.621	75.26
385.831	46.59
386.041	93.69
386.251	40.45
386.461	95.74
386.671	17.92
386.881	42.5
387.091	46.59
387.301	69.12
387.511	38.4
387.72	-0.51
387.93	46.59
388.14	50.69
388.35	50.69
388.56	108.03
388.769	71.17
388.979	-14.85
389.189	32.26
389.399	73.21
389.609	42.5
389.818	91.65
390.028	34.3
390.238	58.88
390.447	46.59
390.657	93.69
390.867	56.83
391.076	91.65
391.286	50.69
391.496	91.65
391.705	67.07
391.915	17.92
392.125	67.07
392.334	44.54
392.544	105.98
392.753	71.17
392.963	69.12
393.172	77.31
393.382	-2.56
393.591	126.46
393.801	122.37
394.01	3.58
394.22	-12.8
394.429	-109.05
394.639	54.78
394.848	60.93
395.058	30.21
395.267	79.36
395.477	85.5
395.686	108.03
395.895	75.26
396.105	89.6
396.314	62.98
396.524	103.93
396.733	114.17
396.942	167.42
397.152	134.65
397.361	165.37
397.57	163.33
397.78	93.69
397.989	173.57
398.198	67.07
398.407	69.12
398.617	169.47
398.826	95.74
399.035	19.97
399.244	85.5
399.453	87.55
399.663	95.74
399.872	34.3
400.081	232.96
400.29	83.45
400.499	19.97
400.708	173.57
400.917	67.07
401.127	112.13
401.336	91.65
401.545	173.57
401.754	142.85
401.963	153.09
402.172	126.46
402.381	99.84
402.59	140.8
402.799	165.37
403.008	175.61
403.217	151.04
403.426	91.65
403.635	101.89
403.844	87.55
404.053	148.99
404.262	169.47
404.471	165.37
404.68	144.89
404.888	93.69
405.097	142.85
405.306	214.52
405.515	175.61
405.724	161.28
405.933	159.23
406.142	206.33
406.35	210.43
406.559	226.81
406.768	271.87
406.977	116.22
407.185	263.68
407.394	312.83
407.603	222.72
407.812	278.01
408.02	232.96
408.229	280.06
408.438	232.96
408.646	263.68
408.855	232.96
409.064	251.39
409.272	306.68
409.481	366.07
409.69	261.63
409.898	298.49
410.107	347.64
410.315	296.44
410.524	321.02
410.733	409.08
410.941	445.95
411.15	404.99
411.358	343.55
411.567	493.05
411.775	466.42
411.984	577.02
412.192	517.62
412.401	550.39
412.609	611.83
412.818	585.21
413.026	595.45
413.234	624.12
413.443	626.17
413.651	577.02
413.86	712.18
414.068	611.83
414.276	703.99
414.485	632.31
414.693	732.66
414.901	886.26
415.11	763.38
415.318	845.3
415.526	849.4
415.734	873.97
415.943	968.18
416.151	861.68
416.359	894.45
416.567	1068.53
416.776	1021.42
416.984	1099.25
417.192	1224.17
417.4	1091.06
417.608	1086.96
417.817	1185.26
418.025	1220.08
418.233	1361.39
418.441	1269.23
418.649	1369.58
418.857	1410.54
419.065	1517.03
419.273	1463.79
419.481	1537.51
419.689	1727.97
419.897	1775.08
420.105	1654.25
420.313	1758.69
420.521	1844.71
420.729	1768.93
420.937	1869.28
421.145	2002.4
421.353	2065.89
421.561	2258.4
421.769	2250.21
421.977	2280.93
422.185	2268.64
422.393	2356.7
422.601	2649.56
422.809	2465.24
423.017	2622.94
423.224	2536.92
423.432	2762.2
423.64	2860.5
423.848	3036.63
424.056	3024.34
424.263	3229.13
424.471	3145.17
424.679	3253.71
424.887	3468.75
425.094	3476.94
425.302	3622.34
425.51	3706.31
425.718	3935.68
425.925	3851.72
426.133	3909.06
426.341	4218.3
426.548	4595.13
426.756	4404.67
426.964	4400.57
427.171	4705.72
427.379	4877.75
427.586	5021.11
427.794	5221.81
428.001	5264.82
428.209	5584.3
428.417	5500.33
428.624	5830.06
428.832	5836.2
429.039	5694.89
429.247	5801.38
429.454	6342.05
429.662	6671.77
429.869	6428.06
430.076	6811.03
430.284	6606.24
430.491	6948.25
430.699	7421.33
430.906	7247.25
431.114	7312.78
431.321	7583.12
431.528	7832.97
431.736	8203.65
431.943	8656.25
432.15	8504.7
432.358	8478.08
432.565	9006.45
432.772	8826.23
432.979	9508.21
433.187	9520.49
433.394	9565.55
433.601	10095.97
433.808	10464.61
434.016	10274.15
434.223	10800.48
434.43	11500.88
434.637	10995.03
434.844	12019.02
435.052	12055.88
435.259	12002.63
435.466	11945.29
435.673	12084.55
435.88	12676.41
436.087	13483.31
436.294	13391.16
436.501	13063.48
436.708	13258.04
436.915	13526.32
437.122	14548.26
437.329	14322.98
437.537	14613.79
437.743	14953.76
437.95	14841.12
438.157	15680.78
438.364	16301.32
438.571	16319.75
438.778	16280.84
438.985	17812.72
439.192	16971.01
439.399	17646.83
439.606	17151.23
439.813	18265.32
440.02	19604.69
440.227	18715.87
440.433	18666.72
440.64	19244.25
440.847	19315.93
441.054	19573.97
441.261	20718.79
441.467	20665.54
441.674	21193.92
441.881	21505.21
442.088	21771.44
442.294	21568.69
442.501	22152.37
442.708	22736.04
442.914	23608.47
443.121	24630.41
443.328	24009.87
443.534	25203.84
443.741	24861.83
443.948	24202.38
444.154	26244.21
444.361	25994.36
444.568	26244.21
444.774	25840.76
444.981	26317.93
445.187	26954.85
445.394	28419.15
445.6	28046.42
445.807	30587.95
446.013	29307.97
446.22	30133.3
446.426	31126.57
446.633	31306.79
446.839	32300.05
447.046	30979.11
447.252	32586.77
447.459	32508.94
447.665	32594.96
447.871	33963
448.078	35308.52
448.284	33717.25
448.491	34839.53
448.697	36084.7
448.903	36658.13
449.11	36860.88
449.316	36416.47
449.522	36821.97
449.728	37903.29
449.935	38144.95
450.141	38224.82
450.347	38906.8
450.553	37878.72
450.76	38204.35
450.966	39467.94
451.172	39287.72
451.378	40039.33
451.584	39033.77
451.791	40190.87
451.997	39973.79
452.203	40907.66
452.409	40770.45
452.615	40407.96
452.821	39033.77
453.027	38894.51
453.233	40506.26
453.44	39111.6
453.646	39455.65
453.852	39513
454.058	40094.62
454.264	39199.66
454.47	40102.81
454.676	38630.32
454.882	39820.19
455.088	37075.91
455.294	37315.53
455.5	38167.48
455.705	38515.64
455.911	36864.97
456.117	35984.35
456.323	35603.42
456.529	33969.15
456.735	35113.96
456.941	34518
457.147	33833.98
457.352	33166.34
457.558	32627.73
457.764	32625.68
457.97	31826.97
458.176	31454.24
458.381	31509.54
458.587	30018.61
458.793	29639.74
458.999	28124.24
459.204	30561.33
459.41	29258.82
459.616	27618.39
459.821	27663.45
460.027	27368.54
460.233	26991.72
460.438	25920.63
460.644	25695.35
460.85	24599.69
461.055	24579.21
461.261	24269.97
461.466	22502.57
461.672	21929.14
461.878	23102.62
462.083	21791.92
462.289	21394.62
462.494	20950.21
462.7	20264.14
462.905	19811.54
463.111	20378.83
463.316	20593.86
463.522	19825.87
463.727	20270.28
463.932	19954.9
464.138	19764.43
464.343	20079.82
464.549	19207.39
464.754	19981.52
464.959	19733.71
465.165	19657.94
465.37	19008.73
465.575	18638.05
465.781	19150.04
465.986	19244.25
466.191	18404.58
466.397	18158.83
466.602	17429.75
466.807	18021.61
467.012	17708.27
467.218	17818.86
467.423	17671.41
467.628	17718.51
467.833	18715.87
468.038	17794.29
468.244	17429.75
468.449	17980.65
468.654	17827.06
468.859	17296.63
469.064	17069.31
469.269	16524.55
469.474	16774.4
469.679	16997.63
469.885	16620.8
470.09	16647.43
470.295	16512.26
470.5	16233.74
470.705	16282.89
470.91	15805.71
471.115	15820.05
471.32	15979.79
471.525	16131.34
471.73	15422.74
471.935	15422.74
472.139	15152.41
472.344	15125.79
472.549	14941.47
472.754	14947.61
472.959	14519.59
473.164	14159.14
473.369	14148.9
473.574	14755.1
473.778	14333.22
473.983	14331.17
474.188	14355.75
474.393	13608.24
474.598	13911.34
474.802	13505.84
475.007	13602.1
475.212	13569.33
475.417	12881.21
475.621	13077.82
475.826	13186.36
476.031	12748.09
476.235	12596.54
476.44	12977.47
476.645	12395.84
476.849	12621.12
477.054	12354.88
477.259	12174.66
477.463	12031.3
477.668	11933
477.872	12311.88
478.077	11808.08
478.282	11642.19
478.486	11556.18
478.691	11388.24
478.895	11388.24
479.1	11271.51
479.304	11238.74
479.509	10937.69
479.713	11287.89
479.918	10929.5
480.122	10853.72
480.326	10849.63
480.531	11158.87
480.735	10743.13
480.94	10816.86
481.144	11210.07
481.348	10589.53
481.553	10675.55
481.757	10499.42
481.961	10693.98
482.166	10755.42
482.37	10773.85
482.574	10317.15
482.778	10452.32
482.983	10689.88
483.187	10409.31
483.391	10757.47
483.595	10372.45
483.8	10431.84
484.004	10558.81
484.208	10620.25
484.412	10515.81
484.616	10380.64
484.821	10462.56
485.025	10589.53
485.229	10524
485.433	10503.52
485.637	10569.05
485.841	10413.41
486.045	10485.09
486.249	10446.18
486.453	10280.29
486.657	10616.16
486.861	10646.88
487.065	10390.88
487.269	10544.48
487.473	10386.79
487.677	10417.51
487.881	10700.12
488.085	10564.96
488.289	10601.82
488.493	10464.61
488.697	10503.52
488.901	10610.01
489.105	10687.84
489.309	10591.58
489.512	10562.91
489.716	10519.9
489.92	10587.49
490.124	10759.52
490.328	10749.28
490.531	10831.19
490.735	11040.09
490.939	10876.25
491.143	10823
491.346	10757.47
491.55	11070.81
491.754	10878.3
491.958	11025.75
492.161	11019.61
492.365	11072.86
492.569	11072.86
492.772	11007.32
492.976	11263.32
493.18	11234.64
493.383	11390.29
493.587	11488.59
493.79	11605.33
493.994	11425.11
494.197	11353.43
494.401	11744.59
494.605	11650.38
494.808	11900.23
495.012	11914.57
495.215	12082.5
495.419	12072.26
495.622	12012.87
495.825	12117.32
496.029	12373.32
496.232	12490.05
496.436	12494.15
496.639	12838.2
496.843	12565.82
497.046	12868.92
497.249	12959.03
497.453	13206.84
497.656	13370.68
497.859	13344.05
498.063	13335.86
498.266	13870.38
498.469	13708.59
498.673	13851.95
498.876	13915.44
499.079	14214.44
499.282	14157.1
499.485	14402.85
499.689	14597.41
499.892	14886.17
500.095	14701.86
500.298	15127.83
500.501	15076.63
500.705	15269.14
500.908	15521.04
501.111	15629.59
501.314	15619.35
501.517	16035.08
501.72	16149.77
501.923	16051.47
502.126	16362.76
502.329	16676.1
502.532	16700.67
502.735	16819.46
502.938	17319.16
503.141	17378.55
503.344	17669.36
503.547	18015.47
503.75	17917.17
503.953	18138.35
504.156	18382.06
504.359	18423.01
504.562	18470.12
504.765	18769.12
504.968	19293.4
505.17	19332.31
505.373	19541.21
505.576	19479.77
505.779	19956.94
505.982	19946.7
506.185	20270.28
506.387	20430.02
506.59	20491.46
506.793	20982.98
506.996	20888.77
507.198	21433.53
507.401	21275.84
507.604	21634.23
507.807	22066.35
508.009	22334.64
508.212	22416.55
508.415	22658.21
508.617	22996.13
508.82	23035.04
509.022	22967.46
509.225	23616.66
509.428	23610.52
509.63	23964.82
509.833	24104.08
510.035	24784.01
510.238	24337.55
510.44	24734.85
510.643	24951.94
510.845	25158.78
511.048	25105.54
511.25	25590.91
511.453	25889.91
511.655	26502.25
511.858	26319.98
512.06	26602.6
512.262	26827.88
512.465	26788.97
512.667	27296.86
512.87	27495.52
513.072	27745.37
513.274	28140.63
513.477	28804.17
513.679	28697.67
513.881	28544.08
514.084	29187.14
514.286	28968.01
514.488	29404.22
514.69	30094.39
514.893	30309.43
515.095	30235.7
515.297	30673.96
515.499	30516.27
515.701	31171.62
515.904	31452.19
516.106	31634.46
516.308	31915.03
516.51	32209.94
516.712	32576.53
516.914	32785.42
517.116	33053.7
517.318	33379.33
517.52	33180.68
517.722	33522.69
517.925	34223.09
518.127	34790.38
518.329	34448.37
518.531	34427.89
518.733	35062.76
518.935	35304.42
519.136	35560.42
519.338	35847.13
519.54	35843.04
519.742	36240.34
519.944	36170.71
520.146	37004.24
520.348	37493.7
520.55	37286.86
520.752	37643.2
520.954	38503.35
521.155	37563.33
521.357	38386.61
521.559	38615.99
521.761	39058.35
521.963	38968.24
522.164	38929.33
522.366	39463.85
522.568	39633.83
522.77	39900.06
522.971	40233.88
523.173	40426.39
523.375	40616.85
523.576	40725.39
523.778	40881.04
523.98	41020.3
524.181	41378.7
524.383	41481.1
524.584	41589.64
524.786	42081.15
524.988	42095.49
525.189	42623.86
525.391	42337.15
525.592	42775.41
525.794	43168.62
525.995	42955.63
526.197	42990.45
526.398	43195.24
526.6	43371.37
526.801	43879.27
527.003	43553.64
527.204	43506.54
527.406	44657.49
527.607	44342.11
527.808	44032.86
528.01	43809.64
528.211	44538.71
528.412	45241.17
528.614	45028.18
528.815	45003.6
529.016	45632.33
529.218	44718.93
529.419	44888.92
529.62	45249.36
529.822	45062.99
530.023	44753.75
530.224	45065.04
530.425	45159.25
530.626	44669.78
530.828	45149.01
531.029	46121.79
531.23	45802.31
531.431	45617.99
531.632	45933.38
531.833	46035.78
532.035	45685.57
532.236	46021.44
532.437	46111.55
532.638	45308.75
532.839	46299.97
533.04	46154.56
533.241	45472.59
533.442	46727.99
533.643	46365.5
533.844	46244.67
534.045	45847.36
534.246	45511.5
534.447	46191.42
534.648	46172.99
534.849	46488.38
535.05	45505.35
535.251	45878.08
535.451	46033.73
535.652	46598.97
535.853	46105.41
536.054	46179.14
536.255	45957.95
536.456	46000.96
536.657	46345.02
536.857	46093.12
537.058	46091.07
537.259	46164.8
537.46	46117.7
537.66	46080.83
537.861	46275.39
538.062	46031.68
538.263	46144.32
538.463	45773.64
538.664	46152.51
538.865	46013.25
539.065	46537.53
539.266	45521.74
539.466	46318.4
539.667	45982.53
539.868	46764.85
540.068	46662.46
540.269	45947.71
540.469	46447.42
540.67	45755.21
540.87	46302.01
541.071	46062.4
541.271	46345.02
541.472	45892.42
541.672	46144.32
541.873	45929.28
542.073	45538.12
542.274	46187.33
542.474	46082.88
542.675	45437.77
542.875	46418.75
543.075	45968.19
543.276	45572.94
543.476	46283.58
543.676	45988.67
543.877	46082.88
544.077	46170.94
544.277	46138.18
544.478	45769.54
544.678	45839.17
544.878	46195.52
545.078	46119.74
545.279	46125.89
545.479	45914.95
545.679	45990.72
545.879	45523.79
546.079	46048.07
546.28	45570.89
546.48	45484.87
546.68	45738.82
546.88	45851.46
547.08	45937.48
547.28	45765.45
547.48	45253.45
547.68	45822.79
547.88	45517.64
548.081	45886.28
548.281	45554.5
548.481	45396.81
548.681	45603.66
548.881	45267.79
549.081	45617.99
549.28	45257.55
549.48	46000.96
549.68	45554.5
549.88	45816.64
550.08	45359.95
550.28	45546.31
550.48	45310.8
550.68	45773.64
550.88	45136.72
551.08	45493.07
551.279	45521.74
551.479	45040.46
551.679	45480.78
551.879	45425.48
552.079	45591.37
552.278	45046.61
552.478	45333.32
552.678	45112.14
552.878	45527.88
553.077	44841.81
553.277	45022.03
553.477	45919.04
553.676	45245.26
553.876	45120.34
554.076	45235.02
554.275	44821.33
554.475	44458.84
554.674	45159.25
554.874	44958.55
555.074	44594.01
555.273	45091.66
555.473	45136.72
555.672	44837.72
555.872	44985.17
556.071	44850
556.271	45216.59
556.47	44933.97
556.67	44333.92
556.869	44362.59
557.068	44591.96
557.268	44694.36
557.467	44630.87
557.667	44571.48
557.866	44561.24
558.065	44387.16
558.265	44170.08
558.464	44268.38
558.663	44825.43
558.863	43926.37
559.062	44811.09
559.261	44022.62
559.461	44438.36
559.66	43551.59
559.859	44397.4
560.058	43809.64
560.258	43955.04
560.457	43631.46
560.656	43776.87
560.855	43754.34
561.054	44125.02
561.253	43717.48
561.453	43678.57
561.652	43723.62
561.851	44055.39
562.05	43185.01
562.249	43320.17
562.448	43801.44
562.647	43553.64
562.846	43340.65
563.045	43135.85
563.244	42705.78
563.443	43572.07
563.642	42697.59
563.841	43228.01
564.04	42750.84
564.239	43033.46
564.438	42765.17
564.637	43076.46
564.836	42767.22
565.035	42523.51
565.234	43221.87
565.432	42498.94
565.631	42513.27
565.83	42695.54
566.029	42064.77
566.228	42201.98
566.427	42206.08
566.625	41999.23
566.824	41433.99
567.023	42169.21
567.222	41653.12
567.42	41792.39
567.619	42122.11
567.818	41804.67
568.016	41679.75
568.215	41968.51
568.414	41399.18
568.612	41960.32
568.811	41067.41
569.01	41280.39
569.208	40903.57
569.407	41644.93
569.605	40672.15
569.804	41407.37
570.002	40608.66
570.201	40979.34
570.4	40500.12
570.598	40082.33
570.797	40733.59
570.995	40592.28
571.193	40147.87
571.392	40610.71
571.59	39959.45
571.789	40387.48
571.987	40041.37
572.186	39736.23
572.384	39781.28
572.582	40121.24
572.781	40127.39
572.979	39398.31
573.177	39871.39
573.376	39877.54
573.574	38921.13
573.772	39242.67
573.971	39240.62
574.169	38937.52
574.367	39001
574.565	39078.83
574.763	38902.7
574.962	39222.19
575.16	38216.63
575.358	38906.8
575.556	38728.63
575.754	38190.01
575.952	38288.31
576.151	38917.04
576.349	38144.95
576.547	38200.25
576.745	38261.69
576.943	38067.13
577.141	37934.01
577.339	38134.71
577.537	38011.84
577.735	37737.41
577.933	37448.64
578.131	38116.28
578.329	37561.28
578.527	37092.3
578.725	37219.27
578.923	37268.42
579.121	37084.11
579.319	37057.48
579.516	37428.16
579.714	37026.76
579.912	37176.26
580.11	36733.9
580.308	36811.73
580.506	36869.07
580.704	36197.34
580.901	36250.58
581.099	36473.81
581.297	36086.75
581.495	35970.01
581.692	36402.13
581.89	35939.29
582.088	36527.06
582.285	35890.14
582.483	35935.2
582.681	35924.96
582.878	35830.75
583.076	35486.69
583.274	35771.36
583.471	35265.51
583.669	35152.87
583.866	35296.23
584.064	35480.55
584.262	34761.71
584.459	35015.66
584.657	34810.86
584.854	34907.12
585.052	34307.06
585.249	34771.95
585.447	34739.18
585.644	34438.13
585.841	34405.36
586.039	34630.64
586.236	33879.04
586.434	34204.66
586.631	33913.85
586.828	33993.72
587.026	33876.99
587.223	33874.94
587.42	33629.18
587.618	33752.06
587.815	33281.03
588.012	33567.74
588.21	33313.8
588.407	33364.99
588.604	32939.02
588.801	32928.78
588.999	33086.47
589.196	32883.72
589.393	32838.67
589.59	32719.88
589.787	32496.66
589.984	32496.66
590.182	32474.13
590.379	32437.27
590.576	32396.31
590.773	32263.19
590.97	32144.41
591.167	32234.52
591.364	31851.55
591.561	32093.21
591.758	31642.65
591.955	31302.69
592.152	31882.27
592.349	31450.14
592.546	31726.62
592.743	31730.72
592.94	31372.32
593.137	31349.79
593.334	31290.4
593.531	30762.03
593.727	30952.49
593.924	30796.84
594.121	30612.52
594.318	31314.98
594.515	30399.54
594.712	30735.4
594.908	30397.49
595.105	30686.25
595.302	30370.86
595.499	30350.38
595.696	30166.07
595.892	29674.56
596.089	30231.6
596.286	30004.28
596.482	29625.4
596.679	29635.64
596.876	29797.43
597.072	29074.5
597.269	29363.26
597.466	29383.74
597.662	29205.57
597.859	29193.28
598.055	29439.04
598.252	29027.4
598.448	29064.26
598.645	28855.37
598.841	28740.68
599.038	28652.62
599.234	28916.81
599.431	28486.73
599.627	28453.97
599.824	28832.84
600.02	28015.7
600.217	28167.25
600.413	27845.72
600.609	28017.75
600.806	28152.91
601.002	28150.87
601.198	27806.81
601.395	27579.48
601.591	27796.57
601.787	27958.36
601.984	27612.25
602.18	27712.6
602.376	27202.66
602.572	27374.69
602.769	27204.7
602.965	26717.29
603.161	27204.7
603.357	27047.01
603.553	26631.27
603.75	26799.21
603.946	26676.33
604.142	26690.66
604.338	26451.05
604.534	26541.16
604.73	26258.54
604.926	26106.99
605.122	26549.35
605.318	25914.48
605.514	26297.45
605.71	25834.61
605.906	26223.73
606.102	25836.66
606.298	26199.15
606.494	26020.98
606.69	25599.1
606.886	26061.94
607.082	25515.13
607.278	25650.3
607.474	25175.17
607.67	25812.09
607.866	25152.64
608.062	25459.84
608.257	25226.37
608.453	25252.99
608.649	25232.51
608.845	25173.12
609.041	25214.08
609.236	25652.34
609.432	24798.34
609.628	25140.35
609.824	24910.98
610.019	24697.99
610.215	24865.92
610.411	25062.53
610.606	24362.12
610.802	24667.27
610.998	24652.94
611.193	24470.67
611.389	24542.35
611.584	24601.74
611.78	24210.57
611.976	24442
612.171	24251.53
612.367	24364.17
612.562	24192.14
612.758	23803.03
612.953	24044.69
613.149	24374.41
613.344	24011.92
613.539	24210.57
613.735	24022.16
613.93	24028.31
614.126	23647.38
614.321	24091.79
614.517	23772.31
614.712	23577.75
614.907	23669.91
615.103	23547.03
615.298	23399.58
615.493	24071.31
615.688	23284.89
615.884	23948.43
616.079	23295.13
616.274	23461.02
616.47	23090.34
616.665	23577.75
616.86	23536.79
617.055	23125.15
617.25	23248.03
617.445	23145.63
617.641	22738.09
617.836	23305.37
618.031	22883.49
618.226	22973.6
618.421	22551.72
618.616	23041.18
618.811	22678.69
619.006	22764.71
619.201	22271.15
619.396	22533.29
619.591	22262.96
619.786	22389.93
619.981	22142.13
620.176	22477.99
620.371	22174.89
620.566	21693.62
620.761	21961.9
620.956	21621.94
621.151	21673.14
621.346	21679.29
621.541	21300.41
621.735	21423.29
621.93	20917.44
622.125	21400.76
622.32	20911.3
622.515	20952.26
622.709	20774.08
622.904	20913.34
623.099	20743.36
623.294	20872.39
623.488	20468.94
623.683	20667.59
623.878	20233.42
624.072	20161.74
624.267	20092.11
624.462	19944.66
624.656	19807.44
624.851	19842.26
625.046	19741.91
625.24	19352.79
625.435	19447
625.629	19410.14
625.824	19148
626.018	19307.74
626.213	18681.06
626.407	19172.57
626.602	18543.85
626.796	18488.55
626.991	18679.01
627.185	18470.12
627.38	18414.82
627.574	18269.42
627.768	18244.84
627.963	18087.15
628.157	17779.95
628.352	18058.48
628.546	17489.14
628.74	17919.21
628.935	17855.73
629.129	17396.98
629.323	17620.21
629.517	16966.91
629.712	17351.93
629.906	17335.54
630.1	17165.56
630.294	17073.4
630.489	16766.21
630.683	17138.94
630.877	16676.1
631.071	16567.56
631.265	16743.68
631.459	16450.82
631.653	16211.21
631.848	16278.79
632.042	16188.68
632.236	16225.54
632.43	16063.75
632.624	16278.79
632.818	15967.5
633.012	15836.43
633.206	15748.37
633.4	15807.76
633.594	15467.8
633.788	15551.76
633.982	15731.98
634.176	15402.26
634.369	15336.73
634.563	15283.48
634.757	15107.35
634.951	15090.97
635.145	14886.17
635.339	15099.16
635.533	14736.67
635.726	14910.75
635.92	14701.86
636.114	14685.47
636.308	14783.77
636.501	14378.28
636.695	14175.53
636.889	14142.76
637.083	14472.48
637.276	14208.3
637.47	14079.27
637.664	13931.82
637.857	13854
638.051	14109.99
638.244	13872.43
638.438	13761.84
638.632	13737.26
638.825	13403.44
639.019	13434.16
639.212	13407.54
639.406	13577.52
639.599	13276.47
639.793	13317.43
639.986	13118.78
640.18	12952.89
640.373	13092.15
640.567	12866.88
640.76	12905.79
640.954	13030.71
641.147	12735.81
641.34	12678.46
641.534	12799.29
641.727	12643.65
641.92	12508.48
642.114	12496.19
642.307	12571.97
642.5	12254.53
642.694	11951.43
642.887	12162.37
643.08	12301.64
643.273	12084.55
643.467	12102.98
643.66	11828.56
643.853	11830.6
644.046	11713.87
644.239	11945.29
644.432	11631.95
644.626	11636.05
644.819	11791.69
645.012	11537.74
645.205	11429.2
645.398	11509.07
645.591	11353.43
645.784	11414.87
645.977	11298.13
646.17	11273.56
646.363	10992.98
646.556	10880.35
646.749	10784.09
646.942	11218.26
647.135	10921.31
647.328	10732.89
647.521	10726.75
647.714	10501.47
647.907	10650.97
648.099	10593.63
648.292	10626.4
648.485	10407.27
648.678	10372.45
648.871	10394.98
649.064	10386.79
649.256	10165.6
649.449	10184.04
649.642	10214.76
649.835	9985.38
650.027	10268
650.22	9913.7
650.413	9985.38
650.605	9885.03
650.798	10028.39
650.991	9815.4
651.183	9882.99
651.376	9577.84
651.568	9768.3
651.761	9659.76
651.954	9483.63
652.146	9637.23
652.339	9594.22
652.531	9356.66
652.724	9370.99
652.916	9313.65
653.109	9274.74
653.301	9164.15
653.494	9192.82
653.686	9164.15
653.879	9205.11
654.071	9024.89
654.263	8807.8
654.456	9053.56
654.648	8854.9
654.84	8721.79
655.033	8611.2
655.225	8807.8
655.417	8932.73
655.61	8672.64
655.802	8805.75
655.994	8500.61
656.186	8576.38
656.379	8547.71
656.571	8473.98
656.763	8267.14
656.955	8246.66
657.148	8201.6
657.34	8310.15
657.532	8332.67
657.724	8076.68
657.916	8252.8
658.108	8291.71
658.3	7927.18
658.492	8101.25
658.684	8031.62
658.876	7974.28
659.068	7744.91
659.26	7796.11
659.452	7798.15
659.644	7857.54
659.836	7638.41
660.028	7755.15
660.22	7652.75
660.412	7595.4
660.604	7443.85
660.796	7464.33
660.988	7497.1
661.18	7357.84
661.372	7490.96
661.563	7570.83
661.755	7411.09
661.947	7343.5
662.139	7259.54
662.331	7216.53
662.522	7087.51
662.714	7177.62
662.906	7013.78
663.097	7241.11
663.289	6956.44
663.481	6866.33
663.673	6999.45
663.864	6808.98
664.056	6843.8
664.247	6925.72
664.439	6950.29
664.631	6845.85
664.822	6843.8
665.014	6704.54
665.205	6684.06
665.397	6677.91
665.588	6596
665.78	6630.81
665.971	6622.62
666.163	6604.19
666.354	6530.46
666.546	6409.63
666.737	6258.08
666.929	6413.73
667.12	6415.77
667.311	6448.54
667.503	6170.02
667.694	6313.38
667.885	6210.98
668.077	6229.41
668.268	6190.5
668.459	6141.35
668.651	6147.49
668.842	6217.12
669.033	6102.43
669.224	6081.96
669.416	5926.31
669.607	6098.34
669.798	5871.01
669.989	5856.68
670.18	5905.83
670.371	5971.36
670.563	5696.94
670.754	5819.82
670.945	5733.8
671.136	5768.62
671.327	5805.48
671.518	5567.92
671.709	5647.79
671.9	5555.63
672.091	5701.03
672.282	5641.64
672.473	5582.25
672.664	5557.68
672.855	5311.92
673.046	5324.21
673.237	5424.56
673.428	5612.97
673.619	5318.06
673.809	5223.86
674	5328.3
674.191	5457.32
674.382	5268.91
674.573	5352.88
674.764	5180.85
674.954	5293.49
675.145	5150.13
675.336	5244.34
675.527	5205.42
675.717	5027.25
675.908	5117.36
676.099	5109.17
676.289	5039.54
676.48	4941.24
676.671	4937.14
676.861	5100.98
677.052	4935.09
677.243	4842.93
677.433	4890.04
677.624	4883.89
677.814	4937.14
678.005	4961.72
678.195	4867.51
678.386	4842.93
678.576	4849.08
678.767	4754.87
678.957	4763.06
679.148	4750.78
679.338	4705.72
679.529	4720.06
679.719	4718.01
679.909	4861.37
680.1	4603.32
680.29	4844.98
680.481	4593.08
680.671	4638.14
680.861	4498.88
681.052	4658.62
681.242	4457.92
681.432	4697.53
681.622	4539.83
681.813	4447.68
682.003	4556.22
682.193	4509.12
682.383	4552.12
682.573	4525.5
682.764	4429.24
682.954	4509.12
683.144	4482.49
683.334	4283.84
683.524	4455.87
683.714	4410.81
683.904	4513.21
684.094	4287.93
684.284	4462.01
684.474	4400.57
684.664	4416.96
684.854	4324.8
685.044	4265.41
685.234	4064.71
685.424	4238.78
685.614	4265.41
685.804	4214.21
685.994	4212.16
686.184	4228.54
686.374	4169.15
686.564	4058.56
686.753	4064.71
686.943	3966.4
687.133	4144.58
687.323	4023.75
687.513	4042.18
687.702	4036.03
687.892	3950.02
688.082	4134.34
688.272	3968.45
688.461	3972.55
688.651	3997.12
688.841	3941.83
689.03	3843.53
689.22	3909.06
689.41	3675.59
689.599	3888.58
689.789	3722.7
689.979	3999.17
690.168	3708.36
690.358	3757.51
690.547	3769.8
690.737	3722.7
690.926	3601.87
691.116	3714.5
691.305	3755.46
691.495	3655.11
691.684	3653.06
691.874	3767.75
692.063	3605.96
692.252	3644.87
692.442	3671.5
692.631	3511.75
692.82	3560.91
693.01	3435.98
693.199	3468.75
693.388	3466.7
693.578	3483.08
693.767	3462.6
693.956	3438.03
694.146	3573.19
694.335	3456.46
694.524	3419.6
694.713	3458.51
694.902	3376.59
695.092	3386.83
695.281	3386.83
695.47	3319.25
695.659	3202.51
695.848	3278.29
696.037	3249.61
696.226	3438.03
696.415	3311.05
696.604	3347.92
696.793	3302.86
696.982	3237.33
697.171	3227.09
697.36	3241.42
697.549	3261.9
697.738	3173.84
697.927	3171.79
698.116	3229.13
698.305	3139.02
698.494	3143.12
698.683	3173.84
698.872	3206.61
699.061	3065.3
699.25	3018.19
699.438	3122.64
699.627	3153.36
699.816	3028.43
700.005	3093.97
700.193	3053.01
700.382	3118.54
700.571	2991.57
700.76	3200.46
700.948	3175.89
701.137	2962.9
701.326	3081.68
701.514	3110.35
701.703	2991.57
701.892	2958.8
702.08	3050.96
702.269	3030.48
702.457	3038.67
702.646	3042.77
702.834	2887.12
703.023	2936.28
703.212	2952.66
703.4	2934.23
703.589	2940.37
703.777	2973.14
703.965	2948.56
704.154	2923.99
704.342	2878.93
704.531	2979.28
704.719	2901.46
704.907	2876.88
705.096	2878.93
705.284	2885.08
705.472	2829.78
705.661	2837.97
705.849	2960.85
706.037	2952.66
706.226	2811.35
706.414	2762.2
706.602	2811.35
706.79	2831.83
706.979	2758.1
707.167	2938.32
707.355	2790.87
707.543	2811.35
707.731	2934.23
707.919	2754.01
708.107	2735.57
708.296	2772.44
708.484	2737.62
708.672	2827.73
708.86	2811.35
709.048	2805.21
709.236	2729.43
709.424	2786.77
709.612	2577.88
709.8	2659.8
709.988	2717.14
710.176	2680.28
710.364	2856.4
710.551	2801.11
710.739	2706.9
710.927	2737.62
711.115	2643.42
711.303	2635.22
711.491	2592.22
711.679	2663.9
711.866	2584.02
712.054	2659.8
712.242	2651.61
712.43	2665.94
712.617	2727.38
712.805	2608.6
712.993	2559.45
713.181	2588.12
713.368	2543.07
713.556	2635.22
713.744	2532.83
713.931	2745.81
714.119	2698.71
714.306	2690.52
714.494	2594.26
714.682	2483.67
714.869	2551.26
715.057	2573.78
715.244	2543.07
715.432	2614.74
715.619	2561.5
715.807	2477.53
715.994	2504.15
716.182	2360.8
716.369	2573.78
716.556	2573.78
716.744	2577.88
716.931	2385.37
717.119	2475.48
717.306	2418.14
717.493	2438.62
717.681	2407.9
717.868	2467.29
718.055	2530.78
718.242	2487.77
718.43	2450.91
718.617	2393.56
718.804	2348.51
718.991	2479.58
719.179	2493.91
719.366	2319.84
719.553	2457.05
719.74	2262.49
719.927	2442.71
720.114	2420.19
720.301	2412
720.488	2248.16
720.676	2377.18
720.863	2385.37
721.05	2491.87
721.237	2297.31
721.424	2405.85
721.611	2412
721.798	2368.99
721.985	2340.32
722.172	2270.69
722.358	2463.19
722.545	2399.71
722.732	2278.88
722.919	2375.13
723.106	2344.41
723.293	2385.37
723.48	2338.27
723.667	2237.92
723.853	2227.68
724.04	2205.15
724.227	2231.77
724.414	2268.64
724.6	2403.8
724.787	2229.73
724.974	2231.77
725.161	2213.34
725.347	2237.92
725.534	2205.15
725.72	2250.21
725.907	2274.78
726.094	2336.22
726.28	2264.54
726.467	2239.97
726.653	2156
726.84	2303.45
727.027	2315.74
727.213	2110.94
727.4	2295.26
727.586	2289.12
727.773	2143.71
727.959	2131.42
728.145	2106.85
728.332	2123.23
728.518	2092.51
728.705	2127.33
728.891	2133.47
729.077	2170.33
729.264	2090.46
729.45	2123.23
729.636	1969.63
729.823	2084.32
730.009	2096.61
730.195	2164.19
730.382	2182.62
730.568	2098.66
730.754	2188.77
730.94	1945.06
731.126	2074.08
731.313	2184.67
731.499	2078.18
731.685	2221.53
731.871	2182.62
732.057	2141.66
732.243	2174.43
732.429	2086.37
732.615	2057.7
732.801	2084.32
732.987	2024.93
733.173	2106.85
733.359	1934.82
733.545	2067.94
733.731	2061.79
733.917	2129.38
734.103	2100.7
734.289	2123.23
734.475	2010.59
734.661	2117.09
734.847	2002.4
735.033	2069.98
735.219	2041.31
735.404	2082.27
735.59	1988.07
735.776	1951.2
735.962	2082.27
736.148	2010.59
736.333	2029.03
736.519	2024.93
736.705	1910.24
736.89	2012.64
737.076	1955.3
737.262	1963.49
737.447	1959.39
737.633	1893.86
737.819	2020.83
738.004	1883.62
738.19	1861.09
738.375	1947.11
738.561	1971.68
738.747	1895.91
738.932	1861.09
739.118	1967.59
739.303	1873.38
739.489	1852.9
739.674	1959.39
739.859	1959.39
740.045	1852.9
740.23	1740.26
740.416	1846.76
740.601	1863.14
740.786	1830.37
740.972	1875.43
741.157	1768.93
741.342	1779.17
741.528	1813.99
741.713	1949.15
741.898	1811.94
742.084	1773.03
742.269	1936.87
742.454	1560.04
742.639	1736.17
742.824	1762.79
743.01	1705.45
743.195	1709.54
743.38	1644.01
743.565	1676.77
743.75	1684.97
743.935	1682.92
744.12	1732.07
744.305	1627.62
744.49	1594.86
744.675	1732.07
744.86	1676.77
745.045	1627.62
745.23	1711.59
745.415	1648.1
745.6	1734.12
745.785	1625.58
745.97	1758.69
746.155	1496.55
746.34	1625.58
746.525	1521.13
746.71	1592.81
746.895	1644.01
747.079	1471.98
747.264	1451.5
747.449	1527.27
747.634	1551.85
747.819	1541.61
748.003	1525.22
748.188	1449.45
748.373	1537.51
748.557	1459.69
748.742	1549.8
748.927	1443.31
749.111	1420.78
749.296	1467.88
749.481	1451.5
749.665	1392.11
749.85	1371.63
750.034	1496.55
750.219	1295.85
750.404	1312.24
750.588	1377.77
750.773	1377.77
750.957	1457.64
751.141	1377.77
751.326	1355.24
751.51	1390.06
751.695	1320.43
751.879	1379.82
752.064	1426.92
752.248	1342.96
752.432	1355.24
752.617	1224.17
752.801	1353.2
752.985	1265.13
753.17	1238.51
753.354	1285.61
753.538	1279.47
753.722	1232.37
753.907	1230.32
754.091	1228.27
754.275	1246.7
754.459	1203.69
754.643	1240.56
754.828	1156.59
755.012	1158.64
755.196	1127.92
755.38	1203.69
755.564	1189.36
755.748	1134.06
755.932	1166.83
756.116	1050.1
756.3	1181.17
756.484	1164.78
756.668	1150.45
756.852	1127.92
757.036	1146.35
757.22	1000.94
757.404	1115.63
757.588	1144.3
757.772	1084.91
757.956	1142.25
758.14	1082.86
758.323	992.75
758.507	1078.77
758.691	990.7
758.875	1086.96
759.059	1078.77
759.242	972.27
759.426	1015.28
759.61	1019.38
759.794	914.93
759.977	919.03
760.161	1058.29
760.345	1062.38
760.528	1046
760.712	984.56
760.895	1048.05
761.079	1033.71
761.263	923.12
761.446	904.69
761.63	1019.38
761.813	927.22
761.997	894.45
762.18	949.75
762.364	845.3
762.547	869.87
762.731	996.85
762.914	880.11
763.098	968.18
763.281	861.68
763.464	837.11
763.648	755.19
763.831	876.02
764.015	855.54
764.198	949.75
764.381	855.54
764.564	816.63
764.748	857.59
764.931	931.31
765.114	869.87
765.297	816.63
765.481	814.58
765.664	916.98
765.847	861.68
766.03	886.26
766.213	822.77
766.397	808.44
766.58	806.39
766.763	759.28
766.946	890.35
767.129	777.72
767.312	865.78
767.495	767.48
767.678	841.2
767.861	855.54
768.044	798.2
768.227	744.95
768.41	773.62
768.593	812.53
768.776	845.3
768.959	718.33
769.142	816.63
769.324	759.28
769.507	775.67
769.69	810.48
769.873	722.42
770.056	830.96
770.239	742.9
770.421	724.47
770.604	812.53
770.787	697.85
770.97	796.15
771.152	781.81
771.335	755.19
771.518	632.31
771.7	771.57
771.883	681.46
772.066	724.47
772.248	781.81
772.431	771.57
772.613	724.47
772.796	724.47
772.978	640.5
773.161	654.84
773.343	730.61
773.526	685.56
773.708	693.75
773.891	677.37
774.073	620.02
774.256	730.61
774.438	593.4
774.621	644.6
774.803	630.26
774.985	642.55
775.168	652.79
775.35	677.37
775.532	740.85
775.715	640.5
775.897	613.88
776.079	589.3
776.261	599.54
776.444	644.6
776.626	577.02
776.808	634.36
776.99	632.31
777.173	638.45
777.355	599.54
777.537	650.74
777.719	683.51
777.901	646.65
778.083	568.82
778.265	521.72
778.447	595.45
778.629	595.45
778.811	484.86
778.993	519.67
779.175	517.62
779.357	540.15
779.539	462.33
779.721	525.82
779.903	476.66
780.085	527.86
780.267	525.82
780.449	480.76
780.631	544.25
780.812	574.97
780.994	519.67
781.176	613.88
781.358	486.9
781.54	521.72
781.721	558.58
781.903	534.01
782.085	507.38
782.267	482.81
782.448	378.36
782.63	398.84
782.812	472.57
782.993	390.65
783.175	542.2
783.357	374.27
783.538	476.66
783.72	409.08
783.901	413.18
784.083	425.47
784.264	509.43
784.446	411.13
784.627	390.65
784.809	435.71
784.99	419.32
785.172	472.57
785.353	296.44
785.535	384.51
785.716	400.89
785.897	462.33
786.079	380.41
786.26	482.81
786.441	409.08
786.623	306.68
786.804	331.26
786.985	345.59
787.167	370.17
787.348	312.83
787.529	386.55
787.71	407.03
787.891	394.75
788.073	345.59
788.254	355.83
788.435	415.23
788.616	378.36
788.797	364.03
788.978	265.72
789.159	331.26
789.34	329.21
789.522	308.73
789.703	329.21
789.884	290.3
790.065	282.11
790.246	411.13
790.427	366.07
790.607	304.64
790.788	374.27
790.969	337.4
791.15	325.12
791.331	298.49
791.512	245.24
791.693	402.94
791.874	370.17
792.054	378.36
792.235	321.02
792.416	245.24
792.597	263.68
792.778	398.84
792.958	263.68
793.139	306.68
793.32	280.06
793.5	267.77
793.681	251.39
793.862	251.39
794.042	282.11
794.223	226.81
794.404	179.71
794.584	343.55
794.765	282.11
794.945	255.48
795.126	288.25
795.306	349.69
795.487	288.25
795.667	286.2
795.848	296.44
796.028	257.53
796.209	189.95
796.389	273.92
796.57	214.52
796.75	181.76
796.93	325.12
797.111	198.14
797.291	290.3
797.471	232.96
797.652	292.35
797.832	257.53
798.012	323.07
798.192	255.48
798.373	249.34
798.553	200.19
798.733	280.06
798.913	280.06
799.093	261.63
799.274	222.72
799.454	253.44
799.634	296.44
799.814	216.57
799.994	206.33
800.174	273.92
800.354	214.52
800.534	216.57
800.714	177.66
800.894	218.62
801.074	163.33
801.254	226.81
801.434	257.53
801.614	222.72
801.794	235
801.974	853.49
802.154	196.09
802.334	159.23
802.514	202.24
802.693	163.33
802.873	196.09
803.053	241.15
803.233	198.14
803.413	247.29
803.592	181.76
803.772	208.38
803.952	288.25
804.131	192
804.311	208.38
804.491	206.33
804.67	210.43
804.85	50.69
805.03	241.15
805.209	241.15
805.389	85.5
805.568	173.57
805.748	237.05
805.928	151.04
806.107	187.9
806.287	144.89
806.466	132.61
806.646	175.61
806.825	101.89
807.004	165.37
807.184	267.77
807.363	181.76
807.543	140.8
807.722	198.14
807.901	153.09
808.081	181.76
808.26	175.61
808.439	175.61
808.619	212.48
808.798	185.85
808.977	93.69
809.156	142.85
809.336	110.08
809.515	142.85
809.694	144.89
809.873	216.57
810.052	112.13
810.231	222.72
810.411	132.61
810.59	181.76
810.769	122.37
810.948	165.37
811.127	124.41
811.306	157.18
811.485	103.93
811.664	226.81
811.843	151.04
812.022	140.8
812.201	93.69
812.38	140.8
812.559	120.32
812.737	112.13
812.916	142.85
813.095	67.07
813.274	196.09
813.453	126.46
813.632	167.42
813.811	153.09
813.989	134.65
814.168	173.57
814.347	54.78
814.526	108.03
814.704	169.47
814.883	136.7
815.062	75.26
815.24	183.81
815.419	67.07
815.598	105.98
815.776	46.59
815.955	122.37
816.133	124.41
816.312	226.81
816.49	138.75
816.669	91.65
816.847	163.33
817.026	95.74
817.204	65.02
817.383	83.45
817.561	89.6
817.74	116.22
817.918	226.81
818.097	118.27
818.275	144.89
818.453	73.21
818.632	110.08
818.81	161.28
818.988	52.74
819.167	87.55
819.345	171.52
819.523	93.69
819.701	52.74
819.879	71.17
820.058	54.78
820.236	99.84
820.414	136.7
820.592	99.84
820.77	60.93
820.948	79.36
821.127	110.08
821.305	140.8
821.483	30.21
821.661	128.51
821.839	163.33
822.017	148.99
822.195	124.41
822.373	126.46
822.551	44.54
822.729	112.13
822.907	30.21
823.085	69.12
823.262	198.14
823.44	36.35
823.618	91.65
823.796	75.26
823.974	110.08
824.152	99.84
824.329	46.59
824.507	79.36
824.685	97.79
824.863	58.88
825.04	85.5
825.218	81.41
825.396	79.36
825.574	124.41
825.751	42.5
825.929	110.08
826.107	38.4
826.284	62.98
826.462	19.97
826.639	38.4
826.817	62.98
826.994	65.02
827.172	54.78
827.349	185.85
827.527	67.07
827.704	50.69
827.882	116.22
828.059	85.5
828.237	60.93
828.414	153.09
828.591	13.82
828.769	120.32
828.946	42.5
829.124	116.22
829.301	132.61
829.478	28.16
829.655	93.69
829.833	79.36
830.01	34.3
830.187	157.18
830.364	38.4
830.542	95.74
830.719	132.61
830.896	91.65
831.073	60.93
831.25	1.54
831.427	140.8
831.604	118.27
831.782	13.82
831.959	60.93
832.136	73.21
832.313	83.45
832.49	79.36
832.667	69.12
832.844	34.3
833.021	93.69
833.198	85.5
833.374	3.58
833.551	91.65
833.728	128.51
833.905	91.65
834.082	7.68
834.259	85.5
834.436	34.3
834.612	1.54
834.789	48.64
834.966	99.84
835.143	75.26
835.319	-18.94
835.496	77.31
835.673	79.36
835.85	85.5
836.026	83.45
836.203	77.31
836.38	-27.14
836.556	-47.62
836.733	62.98
836.909	87.55
837.086	17.92
837.262	-39.42
837.439	134.65
837.616	36.35
837.792	36.35
837.968	40.45
838.145	-4.61
838.321	42.5
838.498	-0.51
838.674	69.12
838.851	81.41
839.027	26.11
839.203	50.69
839.38	99.84
839.556	75.26
839.732	130.56
839.909	19.97
840.085	79.36
840.261	44.54
840.437	95.74
840.614	62.98
840.79	42.5
840.966	36.35
841.142	36.35
841.318	44.54
841.494	71.17
841.671	-10.75
841.847	26.11
842.023	67.07
842.199	-16.9
842.375	67.07
842.551	26.11
842.727	56.83
842.903	116.22
843.079	-0.51
843.255	122.37
843.431	17.92
843.607	13.82
843.783	22.02
843.959	44.54
844.134	89.6
844.31	99.84
844.486	5.63
844.662	40.45
844.838	54.78
845.013	75.26
845.189	138.75
845.365	19.97
845.541	7.68
845.716	7.68
845.892	101.89
846.068	36.35
846.244	62.98
846.419	126.46
846.595	46.59
846.77	108.03
846.946	54.78
847.122	54.78
847.297	34.3
847.473	165.37
847.648	22.02
847.824	34.3
847.999	11.78
848.175	28.16
848.35	60.93
848.526	56.83
848.701	46.59
848.876	50.69
849.052	42.5
849.227	91.65
849.403	36.35
849.578	58.88
849.753	-14.85
849.929	42.5
850.104	60.93
850.279	85.5
850.454	-4.61
850.63	-6.66
850.805	44.54
850.98	-37.38
851.155	32.26
851.33	13.82
851.505	42.5
851.681	9.73
851.856	-31.23
852.031	103.93
852.206	-4.61
852.381	-41.47
852.556	42.5
852.731	30.21
852.906	54.78
853.081	71.17
853.256	30.21
853.431	28.16
853.606	60.93
853.781	-6.66
853.956	32.26
854.131	28.16
854.305	-31.23
854.48	-8.7
854.655	-18.94
854.83	44.54
855.005	-14.85
855.18	-14.85
855.354	85.5
855.529	34.3
855.704	-6.66
855.879	26.11
856.053	50.69
856.228	54.78
856.403	38.4
856.577	58.88
856.752	42.5
856.926	11.78
857.101	71.17
857.276	-10.75
857.45	38.4
857.625	52.74
857.799	-0.51
857.974	9.73
858.148	26.11
858.323	32.26
858.497	34.3
858.672	-14.85
858.846	-27.14
859.02	5.63
859.195	-29.18
859.369	-16.9
859.543	56.83
859.718	71.17
859.892	71.17
860.066	36.35
860.241	17.92
860.415	9.73
860.589	22.02
860.763	28.16
860.938	22.02
861.112	22.02
861.286	52.74
861.46	-4.61
861.634	32.26
861.808	15.87
861.982	48.64
862.157	75.26
862.331	-29.18
862.505	22.02
862.679	3.58
862.853	1.54
863.027	-6.66
863.201	132.61
863.375	-33.28
863.549	52.74
863.722	19.97
863.896	95.74
864.07	-86.53
864.244	17.92
864.418	19.97
864.592	44.54
864.766	44.54
864.939	5.63
865.113	-18.94
865.287	17.92
865.461	7.68
865.634	3.58
865.808	-51.71
865.982	26.11
866.156	62.98
866.329	-51.71
866.503	28.16
866.676	50.69
866.85	1.54
867.024	30.21
867.197	50.69
867.371	17.92
867.544	5.63
867.718	-14.85
867.891	15.87
868.065	-18.94
868.238	15.87
868.412	62.98
868.585	3.58
868.759	-23.04
868.932	-29.18
869.105	-39.42
869.279	50.69
869.452	22.02
869.625	22.02
869.799	-0.51
869.972	-16.9
870.145	5.63
870.319	50.69
870.492	-45.57
870.665	-25.09
870.838	-18.94
871.011	-4.61
871.185	5.63
871.358	11.78
871.531	42.5
871.704	40.45
871.877	17.92
872.05	54.78
872.223	-20.99
872.396	24.06
872.569	32.26
872.742	1.54
872.915	13.82
873.088	-80.38
873.261	36.35
873.434	91.65
873.607	36.35
873.78	5.63
873.953	-29.18
874.126	-39.42
874.299	83.45
874.471	11.78
874.644	-12.8
874.817	-20.99
874.99	50.69
875.163	34.3
875.335	69.12
875.508	52.74
875.681	112.13
875.853	-0.51
876.026	58.88
876.199	-31.23
876.371	38.4
876.544	-20.99
876.717	-10.75
876.889	-35.33
877.062	30.21
877.234	-10.75
877.407	-18.94
877.579	-12.8
877.752	65.02
877.924	13.82
878.097	-23.04
878.269	11.78
878.442	-41.47
878.614	79.36
878.786	46.59
878.959	-35.33
879.131	69.12
879.303	-43.52
879.476	9.73
879.648	73.21
879.82	36.35
879.993	-2.56
880.165	-18.94
880.337	-29.18
880.509	-18.94
880.681	-47.62
880.854	-31.23
881.026	-29.18
881.198	52.74
881.37	32.26
881.542	-23.04
881.714	-18.94
881.886	-55.81
882.058	5.63
882.23	-14.85
882.402	42.5
882.574	-39.42
882.746	-29.18
882.918	81.41
883.09	3.58
883.262	9.73
883.434	13.82
883.606	9.73
883.778	56.83
883.95	122.37
884.122	5.63
884.293	-6.66
884.465	-23.04
884.637	9.73
884.809	-4.61
884.98	36.35
885.152	71.17
885.324	38.4
885.496	-6.66
885.667	1.54
885.839	73.21
886.011	-45.57
886.182	-33.28
886.354	-6.66
886.525	50.69
886.697	93.69
886.869	52.74
887.04	85.5
887.212	48.64
887.383	118.27
887.555	40.45
887.726	17.92
887.897	-8.7
888.069	30.21
888.24	38.4
888.412	-39.42
888.583	9.73
888.754	-31.23
888.926	3.58
889.097	-29.18
889.268	-25.09
889.44	-2.56
889.611	-23.04
889.782	30.21
889.953	-23.04
890.125	-2.56
890.296	-23.04
890.467	3.58
890.638	-53.76
890.809	-14.85
890.98	-39.42
891.151	-18.94
891.323	50.69
891.494	9.73
891.665	-43.52
891.836	-39.42
892.007	19.97
892.178	-20.99
892.349	-39.42
892.52	-47.62
892.691	-27.14
892.862	52.74
893.032	7.68
893.203	-2.56
893.374	-51.71
893.545	75.26
893.716	-68.09
893.887	65.02
894.057	-64
894.228	-55.81
894.399	-37.38
894.57	69.12
894.74	-45.57
894.911	36.35
895.082	3.58
895.253	-47.62
895.423	46.59
895.594	60.93
895.764	38.4
895.935	42.5
896.106	36.35
896.276	50.69
896.447	17.92
896.617	-39.42
896.788	-84.48
896.958	-70.14
897.129	-10.75
897.299	62.98
897.47	60.93
897.64	1.54
897.81	-23.04
897.981	93.69
898.151	28.16
898.322	-14.85
898.492	9.73
898.662	15.87
898.832	26.11
899.003	-61.95
899.173	3.58
899.343	-10.75
899.513	-18.94
