Data from USB4F104151__14__14-16-04-481.txt Node

Date: Thu Mar 13 14:16:04 EDT 2025
User: louis
Spectrometer: USB4F10415
Trigger mode: 4
Integration Time (sec): 2.000000E-2
Scans to average: 1
Electric dark correction enabled: true
Nonlinearity correction enabled: false
Boxcar width: 0
XAxis mode: Wavelengths
Number of Pixels in Spectrum: 3648
>>>>>Begin Spectral Data<<<<<
178.204	-50.18
178.424	-50.18
178.644	-50.18
178.864	-72.7
179.084	-54.27
179.304	35.84
179.524	-27.65
179.744	46.08
179.964	89.09
180.184	-5.12
180.404	-7.17
180.624	50.18
180.844	-82.94
181.064	-56.32
181.283	-13.31
181.503	-21.5
181.723	-7.17
181.943	-62.46
182.163	58.37
182.383	68.61
182.602	89.09
182.822	-23.55
183.042	41.98
183.262	-9.22
183.482	74.75
183.701	23.55
183.921	33.79
184.141	-29.7
184.361	-21.5
184.58	50.18
184.8	103.42
185.02	31.74
185.239	44.03
185.459	13.31
185.679	17.41
185.898	44.03
186.118	64.51
186.338	17.41
186.557	23.55
186.777	19.46
186.997	136.19
187.216	17.41
187.436	35.84
187.655	7.17
187.875	50.18
188.095	-39.94
188.314	89.09
188.534	91.13
188.753	-23.55
188.973	60.42
189.192	39.94
189.412	29.7
189.631	50.18
189.851	80.89
190.07	39.94
190.29	3.07
190.509	17.41
190.729	11.26
190.948	23.55
191.168	142.33
191.387	99.33
191.607	-66.56
191.826	37.89
192.045	-39.94
192.265	-1.02
192.484	64.51
192.704	125.95
192.923	-31.74
193.142	80.89
193.362	7.17
193.581	48.13
193.8	33.79
194.02	25.6
194.239	33.79
194.458	11.26
194.678	23.55
194.897	37.89
195.116	68.61
195.335	33.79
195.555	68.61
195.774	39.94
195.993	11.26
196.212	-1.02
196.432	15.36
196.651	23.55
196.87	41.98
197.089	66.56
197.308	58.37
197.528	7.17
197.747	-7.17
197.966	82.94
198.185	82.94
198.404	115.71
198.623	7.17
198.842	-21.5
199.062	33.79
199.281	97.28
199.5	56.32
199.719	60.42
199.938	39.94
200.157	105.47
200.376	99.33
200.595	89.09
200.814	70.65
201.033	52.22
201.252	107.52
201.471	23.55
201.69	-1.02
201.909	7.17
202.128	35.84
202.347	66.56
202.566	25.6
202.785	-46.08
203.004	-17.41
203.223	31.74
203.442	39.94
203.661	1.02
203.879	23.55
204.098	-7.17
204.317	58.37
204.536	56.32
204.755	-41.98
204.974	60.42
205.193	78.85
205.411	68.61
205.63	99.33
205.849	-33.79
206.068	33.79
206.287	-1.02
206.505	31.74
206.724	56.32
206.943	39.94
207.162	48.13
207.381	11.26
207.599	-9.22
207.818	33.79
208.037	-13.31
208.255	60.42
208.474	48.13
208.693	27.65
208.911	15.36
209.13	31.74
209.349	-1.02
209.567	7.17
209.786	50.18
210.005	-29.7
210.223	64.51
210.442	9.22
210.661	58.37
210.879	56.32
211.098	27.65
211.316	3.07
211.535	41.98
211.753	39.94
211.972	37.89
212.191	-39.94
212.409	44.03
212.628	-13.31
212.846	56.32
213.065	46.08
213.283	56.32
213.502	1.02
213.72	31.74
213.938	109.57
214.157	13.31
214.375	35.84
214.594	125.95
214.812	82.94
215.031	84.99
215.249	84.99
215.467	80.89
215.686	-7.17
215.904	37.89
216.122	93.18
216.341	84.99
216.559	31.74
216.778	1.02
216.996	9.22
217.214	37.89
217.432	13.31
217.651	80.89
217.869	39.94
218.087	46.08
218.306	33.79
218.524	41.98
218.742	97.28
218.96	60.42
219.179	87.04
219.397	-21.5
219.615	50.18
219.833	140.29
220.051	-21.5
220.27	64.51
220.488	7.17
220.706	41.98
220.924	29.7
221.142	39.94
221.36	13.31
221.578	39.94
221.796	31.74
222.015	48.13
222.233	41.98
222.451	89.09
222.669	44.03
222.887	25.6
223.105	23.55
223.323	39.94
223.541	7.17
223.759	3.07
223.977	117.76
224.195	74.75
224.413	58.37
224.631	48.13
224.849	44.03
225.067	41.98
225.285	66.56
225.503	52.22
225.721	-7.17
225.939	33.79
226.157	-66.56
226.375	105.47
226.592	11.26
226.81	17.41
227.028	72.7
227.246	72.7
227.464	121.85
227.682	46.08
227.9	44.03
228.117	25.6
228.335	39.94
228.553	74.75
228.771	-23.55
228.989	-52.22
229.206	64.51
229.424	68.61
229.642	44.03
229.86	-29.7
230.077	27.65
230.295	68.61
230.513	46.08
230.731	121.85
230.948	9.22
231.166	89.09
231.384	103.42
231.601	-7.17
231.819	33.79
232.037	-62.46
232.254	-21.5
232.472	9.22
232.689	58.37
232.907	-1.02
233.125	66.56
233.342	-46.08
233.56	-11.26
233.777	7.17
233.995	44.03
234.213	105.47
234.43	68.61
234.648	50.18
234.865	76.8
235.083	64.51
235.3	70.65
235.518	58.37
235.735	125.95
235.953	50.18
236.17	54.27
236.388	64.51
236.605	64.51
236.822	54.27
237.04	31.74
237.257	48.13
237.475	-25.6
237.692	-9.22
237.909	97.28
238.127	-66.56
238.344	46.08
238.562	17.41
238.779	7.17
238.996	-9.22
239.214	84.99
239.431	50.18
239.648	-58.37
239.865	41.98
240.083	80.89
240.3	15.36
240.517	1.02
240.735	33.79
240.952	48.13
241.169	74.75
241.386	25.6
241.603	17.41
241.821	31.74
242.038	25.6
242.255	44.03
242.472	48.13
242.689	17.41
242.907	66.56
243.124	9.22
243.341	39.94
243.558	-7.17
243.775	80.89
243.992	17.41
244.209	95.23
244.426	76.8
244.643	56.32
244.86	-27.65
245.078	58.37
245.295	60.42
245.512	72.7
245.729	11.26
245.946	48.13
246.163	58.37
246.38	-17.41
246.597	52.22
246.814	9.22
247.031	60.42
247.248	3.07
247.464	3.07
247.681	19.46
247.898	17.41
248.115	132.09
248.332	-17.41
248.549	48.13
248.766	72.7
248.983	115.71
249.2	-9.22
249.417	25.6
249.633	97.28
249.85	33.79
250.067	19.46
250.284	1.02
250.501	109.57
250.717	-11.26
250.934	-54.27
251.151	5.12
251.368	33.79
251.585	93.18
251.801	-31.74
252.018	64.51
252.235	19.46
252.451	23.55
252.668	82.94
252.885	25.6
253.102	76.8
253.318	25.6
253.535	25.6
253.752	-1.02
253.968	31.74
254.185	-11.26
254.401	-25.6
254.618	64.51
254.835	17.41
255.051	7.17
255.268	119.81
255.484	89.09
255.701	72.7
255.917	27.65
256.134	48.13
256.351	25.6
256.567	7.17
256.784	89.09
257	-50.18
257.217	52.22
257.433	91.13
257.65	97.28
257.866	87.04
258.082	-41.98
258.299	-62.46
258.515	56.32
258.732	50.18
258.948	-11.26
259.165	11.26
259.381	1.02
259.597	74.75
259.814	-3.07
260.03	23.55
260.246	130.05
260.463	56.32
260.679	80.89
260.895	11.26
261.112	72.7
261.328	27.65
261.544	48.13
261.761	80.89
261.977	11.26
262.193	31.74
262.409	-9.22
262.626	25.6
262.842	27.65
263.058	33.79
263.274	105.47
263.49	-21.5
263.707	84.99
263.923	95.23
264.139	5.12
264.355	23.55
264.571	113.66
264.787	7.17
265.004	68.61
265.22	35.84
265.436	31.74
265.652	27.65
265.868	95.23
266.084	1.02
266.3	19.46
266.516	29.7
266.732	39.94
266.948	29.7
267.164	23.55
267.38	56.32
267.596	-25.6
267.812	101.37
268.028	107.52
268.244	58.37
268.46	78.85
268.676	119.81
268.892	66.56
269.108	-7.17
269.324	72.7
269.54	11.26
269.756	41.98
269.972	-37.89
270.188	11.26
270.403	-37.89
270.619	84.99
270.835	76.8
271.051	31.74
271.267	-29.7
271.483	44.03
271.698	25.6
271.914	58.37
272.13	-25.6
272.346	52.22
272.562	-5.12
272.777	25.6
272.993	-15.36
273.209	35.84
273.425	-25.6
273.64	-7.17
273.856	33.79
274.072	87.04
274.287	-50.18
274.503	52.22
274.719	-25.6
274.934	56.32
275.15	31.74
275.366	41.98
275.581	13.31
275.797	52.22
276.012	-17.41
276.228	-35.84
276.444	115.71
276.659	15.36
276.875	13.31
277.09	15.36
277.306	3.07
277.521	46.08
277.737	41.98
277.952	138.24
278.168	48.13
278.383	121.85
278.599	27.65
278.814	25.6
279.03	89.09
279.245	76.8
279.461	97.28
279.676	89.09
279.892	37.89
280.107	-54.27
280.322	-44.03
280.538	3.07
280.753	31.74
280.969	89.09
281.184	15.36
281.399	54.27
281.615	64.51
281.83	33.79
282.045	37.89
282.26	39.94
282.476	19.46
282.691	64.51
282.906	39.94
283.122	80.89
283.337	13.31
283.552	39.94
283.767	41.98
283.983	19.46
284.198	19.46
284.413	31.74
284.628	21.5
284.843	91.13
285.058	39.94
285.274	121.85
285.489	-13.31
285.704	76.8
285.919	50.18
286.134	58.37
286.349	15.36
286.564	82.94
286.779	58.37
286.995	13.31
287.21	9.22
287.425	25.6
287.64	15.36
287.855	15.36
288.07	41.98
288.285	82.94
288.5	76.8
288.715	80.89
288.93	41.98
289.145	-9.22
289.36	48.13
289.575	74.75
289.79	41.98
290.004	35.84
290.219	7.17
290.434	-5.12
290.649	23.55
290.864	-41.98
291.079	60.42
291.294	5.12
291.509	19.46
291.724	23.55
291.938	-15.36
292.153	80.89
292.368	46.08
292.583	39.94
292.798	111.61
293.012	58.37
293.227	58.37
293.442	-58.37
293.657	80.89
293.871	64.51
294.086	103.42
294.301	50.18
294.516	54.27
294.73	97.28
294.945	31.74
295.16	105.47
295.374	56.32
295.589	25.6
295.804	-5.12
296.018	9.22
296.233	101.37
296.447	154.62
296.662	19.46
296.877	123.9
297.091	101.37
297.306	48.13
297.52	23.55
297.735	70.65
297.949	62.46
298.164	13.31
298.378	48.13
298.593	23.55
298.807	74.75
299.022	82.94
299.236	56.32
299.451	76.8
299.665	39.94
299.88	70.65
300.094	93.18
300.309	101.37
300.523	23.55
300.737	33.79
300.952	148.48
301.166	84.99
301.381	-9.22
301.595	64.51
301.809	1.02
302.024	66.56
302.238	82.94
302.452	101.37
302.667	37.89
302.881	9.22
303.095	80.89
303.309	39.94
303.524	48.13
303.738	48.13
303.952	-17.41
304.166	25.6
304.381	-15.36
304.595	74.75
304.809	-1.02
305.023	46.08
305.237	5.12
305.452	44.03
305.666	64.51
305.88	48.13
306.094	39.94
306.308	23.55
306.522	39.94
306.736	117.76
306.95	123.9
307.164	39.94
307.379	-31.74
307.593	35.84
307.807	17.41
308.021	115.71
308.235	44.03
308.449	11.26
308.663	21.5
308.877	82.94
309.091	44.03
309.305	156.67
309.519	-33.79
309.733	52.22
309.947	15.36
310.161	91.13
310.374	111.61
310.588	39.94
310.802	72.7
311.016	31.74
311.23	7.17
311.444	-62.46
311.658	19.46
311.872	91.13
312.085	31.74
312.299	123.9
312.513	39.94
312.727	58.37
312.941	74.75
313.154	17.41
313.368	80.89
313.582	72.7
313.796	7.17
314.009	80.89
314.223	84.99
314.437	107.52
314.651	89.09
314.864	-9.22
315.078	74.75
315.292	3.07
315.505	64.51
315.719	66.56
315.933	107.52
316.146	33.79
316.36	39.94
316.573	89.09
316.787	1.02
317.001	-3.07
317.214	56.32
317.428	15.36
317.641	41.98
317.855	56.32
318.068	62.46
318.282	-7.17
318.495	115.71
318.709	89.09
318.922	44.03
319.136	62.46
319.349	84.99
319.563	23.55
319.776	66.56
319.99	-31.74
320.203	56.32
320.417	121.85
320.63	89.09
320.843	64.51
321.057	66.56
321.27	3.07
321.483	64.51
321.697	48.13
321.91	-17.41
322.124	21.5
322.337	-29.7
322.55	-5.12
322.763	15.36
322.977	15.36
323.19	58.37
323.403	68.61
323.617	66.56
323.83	89.09
324.043	35.84
324.256	25.6
324.469	25.6
324.683	68.61
324.896	50.18
325.109	68.61
325.322	44.03
325.535	58.37
325.748	72.7
325.962	74.75
326.175	52.22
326.388	89.09
326.601	107.52
326.814	62.46
327.027	-9.22
327.24	78.85
327.453	21.5
327.666	64.51
327.879	72.7
328.092	50.18
328.305	60.42
328.518	50.18
328.731	70.65
328.944	23.55
329.157	1.02
329.37	105.47
329.583	130.05
329.796	74.75
330.009	-31.74
330.222	60.42
330.435	132.09
330.648	27.65
330.861	70.65
331.073	19.46
331.286	66.56
331.499	101.37
331.712	29.7
331.925	56.32
332.138	-11.26
332.35	74.75
332.563	58.37
332.776	93.18
332.989	48.13
333.202	107.52
333.414	15.36
333.627	15.36
333.84	97.28
334.053	-27.65
334.265	29.7
334.478	-50.18
334.691	52.22
334.903	3.07
335.116	72.7
335.329	64.51
335.541	74.75
335.754	105.47
335.966	-46.08
336.179	130.05
336.392	62.46
336.604	-37.89
336.817	7.17
337.029	27.65
337.242	130.05
337.454	46.08
337.667	25.6
337.88	115.71
338.092	27.65
338.305	56.32
338.517	35.84
338.729	78.85
338.942	82.94
339.154	27.65
339.367	3.07
339.579	35.84
339.792	74.75
340.004	48.13
340.217	56.32
340.429	41.98
340.641	37.89
340.854	23.55
341.066	64.51
341.278	76.8
341.491	162.81
341.703	-15.36
341.915	101.37
342.128	3.07
342.34	72.7
342.552	50.18
342.764	80.89
342.977	64.51
343.189	44.03
343.401	23.55
343.613	19.46
343.826	-9.22
344.038	35.84
344.25	52.22
344.462	46.08
344.674	76.8
344.886	9.22
345.099	109.57
345.311	35.84
345.523	46.08
345.735	60.42
345.947	134.14
346.159	56.32
346.371	130.05
346.583	29.7
346.795	113.66
347.007	97.28
347.219	7.17
347.431	15.36
347.643	64.51
347.855	-1.02
348.067	60.42
348.279	87.04
348.491	138.24
348.703	91.13
348.915	48.13
349.127	89.09
349.339	50.18
349.551	11.26
349.763	80.89
349.975	52.22
350.187	140.29
350.399	80.89
350.61	84.99
350.822	66.56
351.034	19.46
351.246	89.09
351.458	68.61
351.669	89.09
351.881	117.76
352.093	44.03
352.305	56.32
352.517	62.46
352.728	89.09
352.94	101.37
353.152	72.7
353.363	52.22
353.575	150.53
353.787	74.75
353.999	56.32
354.21	19.46
354.422	48.13
354.633	105.47
354.845	41.98
355.057	148.48
355.268	105.47
355.48	78.85
355.692	-15.36
355.903	31.74
356.115	25.6
356.326	13.31
356.538	164.86
356.749	76.8
356.961	78.85
357.172	-13.31
357.384	23.55
357.595	138.24
357.807	72.7
358.018	56.32
358.23	-1.02
358.441	-13.31
358.653	148.48
358.864	-1.02
359.075	115.71
359.287	46.08
359.498	109.57
359.709	48.13
359.921	44.03
360.132	68.61
360.344	1.02
360.555	35.84
360.766	72.7
360.977	48.13
361.189	66.56
361.4	97.28
361.611	5.12
361.823	66.56
362.034	68.61
362.245	31.74
362.456	48.13
362.667	72.7
362.879	23.55
363.09	64.51
363.301	56.32
363.512	50.18
363.723	52.22
363.935	48.13
364.146	48.13
364.357	35.84
364.568	93.18
364.779	15.36
364.99	84.99
365.201	17.41
365.412	136.19
365.623	31.74
365.834	58.37
366.045	-21.5
366.256	39.94
366.467	97.28
366.678	7.17
366.889	66.56
367.1	80.89
367.311	35.84
367.522	56.32
367.733	3.07
367.944	103.42
368.155	113.66
368.366	25.6
368.577	46.08
368.788	48.13
368.999	-23.55
369.209	48.13
369.42	109.57
369.631	89.09
369.842	78.85
370.053	15.36
370.264	5.12
370.474	39.94
370.685	39.94
370.896	82.94
371.107	56.32
371.317	113.66
371.528	44.03
371.739	109.57
371.95	-1.02
372.16	158.72
372.371	27.65
372.582	19.46
372.792	48.13
373.003	35.84
373.214	29.7
373.424	64.51
373.635	56.32
373.846	128
374.056	-37.89
374.267	-11.26
374.477	-25.6
374.688	121.85
374.898	-31.74
375.109	50.18
375.319	58.37
375.53	68.61
375.74	105.47
375.951	97.28
376.161	87.04
376.372	33.79
376.582	41.98
376.793	113.66
377.003	72.7
377.214	-23.55
377.424	99.33
377.635	89.09
377.845	-7.17
378.055	84.99
378.266	82.94
378.476	128
378.686	64.51
378.897	138.24
379.107	76.8
379.317	105.47
379.528	80.89
379.738	80.89
379.948	39.94
380.158	66.56
380.369	64.51
380.579	142.33
380.789	-29.7
380.999	138.24
381.21	35.84
381.42	123.9
381.63	11.26
381.84	68.61
382.05	80.89
382.261	123.9
382.471	9.22
382.681	93.18
382.891	134.14
383.101	72.7
383.311	-25.6
383.521	84.99
383.731	97.28
383.941	52.22
384.151	33.79
384.361	54.27
384.571	80.89
384.781	80.89
384.991	70.65
385.201	123.9
385.411	171.01
385.621	109.57
385.831	56.32
386.041	82.94
386.251	50.18
386.461	72.7
386.671	97.28
386.881	74.75
387.091	52.22
387.301	89.09
387.511	64.51
387.72	72.7
387.93	74.75
388.14	-25.6
388.35	5.12
388.56	130.05
388.769	27.65
388.979	35.84
389.189	68.61
389.399	84.99
389.609	74.75
389.818	130.05
390.028	60.42
390.238	41.98
390.447	-17.41
390.657	56.32
390.867	87.04
391.076	187.39
391.286	27.65
391.496	84.99
391.705	58.37
391.915	146.43
392.125	181.25
392.334	113.66
392.544	146.43
392.753	52.22
392.963	46.08
393.172	82.94
393.382	84.99
393.591	101.37
393.801	84.99
394.01	97.28
394.22	89.09
394.429	39.94
394.639	31.74
394.848	101.37
395.058	89.09
395.267	109.57
395.477	89.09
395.686	146.43
395.895	187.39
396.105	205.82
396.314	31.74
396.524	39.94
396.733	113.66
396.942	121.85
397.152	128
397.361	91.13
397.57	130.05
397.78	130.05
397.989	162.81
398.198	199.68
398.407	74.75
398.617	111.61
398.826	173.05
399.035	89.09
399.244	80.89
399.453	91.13
399.663	101.37
399.872	146.43
400.081	97.28
400.29	144.38
400.499	162.81
400.708	150.53
400.917	156.67
401.127	187.39
401.336	130.05
401.545	134.14
401.754	146.43
401.963	171.01
402.172	156.67
402.381	84.99
402.59	128
402.799	138.24
403.008	142.33
403.217	168.96
403.426	115.71
403.635	179.2
403.844	216.06
404.053	158.72
404.262	117.76
404.471	191.49
404.68	211.96
404.888	130.05
405.097	160.77
405.306	216.06
405.515	177.15
405.724	197.63
405.933	211.96
406.142	191.49
406.35	232.44
406.559	228.35
406.768	271.36
406.977	293.88
407.185	254.97
407.394	224.25
407.603	257.02
407.812	261.12
408.02	242.68
408.229	228.35
408.438	310.27
408.646	234.49
408.855	257.02
409.064	359.42
409.272	320.51
409.481	271.36
409.69	383.99
409.898	326.65
410.107	343.03
410.315	500.73
410.524	433.15
410.733	547.83
410.941	394.23
411.15	478.2
411.358	457.72
411.567	502.78
411.775	553.98
411.984	523.26
412.192	562.17
412.401	576.5
412.609	633.85
412.818	670.71
413.026	611.32
413.234	662.52
413.443	592.89
413.651	707.57
413.86	740.34
414.068	736.24
414.276	834.55
414.485	678.9
414.693	924.66
414.901	842.74
415.11	959.47
415.318	900.08
415.526	973.81
415.734	1047.54
415.943	1014.77
416.151	1068.02
416.359	1080.3
416.567	1041.39
416.776	1178.61
416.984	1211.37
417.192	1194.99
417.4	1268.72
417.608	1244.14
417.817	1303.53
418.025	1426.41
418.233	1459.18
418.441	1412.07
418.649	1479.66
418.857	1571.82
419.065	1612.78
419.273	1547.24
419.481	1702.89
419.689	1827.81
419.897	1870.82
420.105	1948.64
420.313	1958.88
420.521	2010.08
420.729	2014.18
420.937	2124.77
421.145	2210.78
421.353	2243.55
421.561	2530.27
421.769	2472.92
421.977	2579.42
422.185	2603.99
422.393	2702.29
422.601	2837.46
422.809	2935.76
423.017	2839.51
423.224	2964.43
423.432	3070.93
423.64	3130.32
423.848	3376.08
424.056	3326.93
424.263	3654.6
424.471	3572.68
424.679	3689.42
424.887	3873.73
425.094	4109.25
425.302	3988.42
425.51	4389.82
425.718	4252.61
425.925	4330.43
426.133	4467.64
426.341	4676.54
426.548	4701.11
426.756	4850.61
426.964	5053.36
427.171	5184.43
427.379	5458.86
427.586	5473.2
427.794	5794.73
428.001	5979.04
428.209	6269.86
428.417	6087.59
428.624	6372.25
428.832	6732.7
429.039	6749.08
429.247	6421.41
429.454	7314.32
429.662	7545.74
429.869	7076.76
430.076	7750.54
430.284	7222.16
430.491	7732.11
430.699	8180.61
430.906	8182.66
431.114	8190.85
431.321	8588.16
431.528	8969.08
431.736	9153.4
431.943	9816.94
432.15	9372.53
432.358	9640.81
432.565	10144.61
432.772	9958.25
432.979	10388.32
433.187	10785.63
433.394	10738.52
433.601	11541.33
433.808	11721.55
434.016	11230.04
434.223	12079.94
434.43	12680
434.637	12315.46
434.844	13275.96
435.052	13278.01
435.259	13474.61
435.466	13585.2
435.673	13253.43
435.88	14066.47
436.087	14799.65
436.294	14816.03
436.501	14627.62
436.708	14799.65
436.915	15401.75
437.122	15956.75
437.329	16132.87
437.537	16399.11
437.743	17052.41
437.95	16515.84
438.157	17631.99
438.364	18270.95
438.571	18105.07
438.778	18459.37
438.985	19598.04
439.192	18928.35
439.399	19804.88
439.606	19092.19
439.813	20318.92
440.02	21607.09
440.227	21297.85
440.433	20966.08
440.64	21607.09
440.847	21650.1
441.054	22061.74
441.261	23483.03
441.467	23208.61
441.674	23569.05
441.881	24593.03
442.088	24558.22
442.294	24418.96
442.501	24685.19
442.708	25395.84
442.914	26387.05
443.121	27284.06
443.328	26493.55
443.534	28508.75
443.741	28035.67
443.948	26958.44
444.154	29370.94
444.361	29252.16
444.568	29436.48
444.774	29264.45
444.981	29819.45
445.187	30755.37
445.394	31666.72
445.6	31525.41
445.807	34290.16
446.013	33036.81
446.22	33600
446.426	34828.78
446.633	34867.69
446.839	36202.97
447.046	34957.8
447.252	36465.11
447.459	36532.69
447.665	36678.1
447.871	37921.21
448.078	39764.39
448.284	37677.51
448.491	38838.7
448.697	40028.57
448.903	41122.19
449.11	41554.31
449.316	40739.22
449.522	41331.08
449.728	42336.63
449.935	42561.91
450.141	42383.74
450.347	43409.77
450.553	42357.11
450.76	42678.64
450.966	44042.59
451.172	43643.24
451.378	44654.93
451.584	43716.96
451.791	44882.26
451.997	44474.71
452.203	45445.45
452.409	45637.96
452.615	45193.55
452.821	43446.63
453.027	43073.9
453.233	45510.99
453.44	43469.16
453.646	43970.91
453.852	44493.15
454.058	44822.87
454.264	43733.35
454.47	44857.68
454.676	43112.81
454.882	45031.76
455.088	41144.72
455.294	41730.44
455.5	42455.42
455.705	42727.8
455.911	41136.52
456.117	40530.33
456.323	39651.75
456.529	38001.08
456.735	39045.55
456.941	38439.35
457.147	37902.78
457.352	36407.76
457.558	36256.21
457.764	36598.23
457.97	35961.31
458.176	34851.31
458.381	34836.97
458.587	33106.44
458.793	33575.42
458.999	31834.65
459.204	34118.14
459.41	32811.53
459.616	30579.25
459.821	30827.05
460.027	30677.55
460.233	30214.71
460.438	28750.41
460.644	29102.66
460.85	27566.68
461.055	27136.61
461.261	27032.16
461.466	25055.87
461.672	24122
461.878	26174.06
462.083	24386.19
462.289	23767.7
462.494	23794.32
462.7	22209.2
462.905	21957.3
463.111	22594.22
463.316	22950.56
463.522	22276.78
463.727	22500.01
463.932	22559.4
464.138	22100.65
464.343	22370.99
464.549	21727.92
464.754	21916.34
464.959	22125.23
465.165	21748.4
465.37	20968.13
465.575	20273.87
465.781	21113.53
465.986	21480.12
466.191	20351.69
466.397	20380.36
466.602	19094.24
466.807	20026.06
467.012	20175.56
467.218	19931.86
467.423	19577.56
467.628	19897.04
467.833	20339.4
468.038	19745.49
468.244	19233.5
468.449	19899.09
468.654	19153.63
468.859	19278.55
469.064	18963.17
469.269	18510.57
469.474	18610.92
469.679	18942.69
469.885	18356.97
470.09	18529
470.295	18463.46
470.5	17861.36
470.705	18356.97
470.91	17681.14
471.115	17359.61
471.32	17896.17
471.525	17629.94
471.73	17455.86
471.935	17226.49
472.139	16712.45
472.344	17007.36
472.549	16624.39
472.754	16581.38
472.959	16243.46
473.164	15956.75
473.369	15563.54
473.574	16583.43
473.778	15911.69
473.983	15907.6
474.188	15926.03
474.393	15254.3
474.598	15065.88
474.802	14887.71
475.007	14992.16
475.212	14979.87
475.417	14490.4
475.621	14627.62
475.826	14570.27
476.031	14340.9
476.235	13916.97
476.44	14156.58
476.645	13908.78
476.849	13914.92
477.054	13794.09
477.259	13603.63
477.463	13472.56
477.668	13228.85
477.872	13456.18
478.077	13050.68
478.282	12862.27
478.486	12624.7
478.691	12790.59
478.895	12725.05
479.1	12634.94
479.304	12784.44
479.509	12155.72
479.713	12505.92
479.918	12262.21
480.122	12094.28
480.326	12243.78
480.531	12075.85
480.735	11928.39
480.94	12012.36
481.144	12305.22
481.348	11592.53
481.553	12008.26
481.757	11815.76
481.961	11854.67
482.166	11944.78
482.37	11594.58
482.574	11699.02
482.778	11881.29
482.983	12034.89
483.187	11733.84
483.391	11995.98
483.595	11701.07
483.8	11369.3
484.004	11637.58
484.208	11979.59
484.412	11762.51
484.616	11641.68
484.821	11674.45
485.025	11438.93
485.229	11772.75
485.433	11739.98
485.637	11586.38
485.841	11584.34
486.045	11531.09
486.249	11633.49
486.453	11664.21
486.657	11723.6
486.861	11952.97
487.065	11393.87
487.269	11645.77
487.473	11518.8
487.677	11711.31
487.881	11713.36
488.085	11627.34
488.289	11643.73
488.493	11588.43
488.697	11922.25
488.901	11721.55
489.105	11543.38
489.309	11713.36
489.512	11899.72
489.716	11918.15
489.92	11778.89
490.124	11785.04
490.328	12059.46
490.531	11942.73
490.735	12073.8
490.939	12081.99
491.143	11729.74
491.346	11807.56
491.55	12084.04
491.754	12116.81
491.958	12280.64
492.161	12337.99
492.365	12323.65
492.569	12084.04
492.772	12512.07
492.976	12512.07
493.18	12555.07
493.383	12550.98
493.587	12798.78
493.79	12874.56
493.994	12583.74
494.197	12880.7
494.401	12899.13
494.605	12972.86
494.808	13151.03
495.012	12976.95
495.215	13228.85
495.419	13437.75
495.622	13445.94
495.825	13620.02
496.029	13683.5
496.232	13701.93
496.436	13769.52
496.639	13943.6
496.843	13777.71
497.046	14277.41
497.249	14318.37
497.453	14619.42
497.656	14527.27
497.859	14732.06
498.063	14881.56
498.266	15305.49
498.469	14908.19
498.673	15242.01
498.876	15381.27
499.079	15541.01
499.282	15663.89
499.485	16055.05
499.689	16014.09
499.892	16120.59
500.095	16294.66
500.298	16694.02
500.501	16505.6
500.705	16710.4
500.908	17230.59
501.111	17386.23
501.314	17466.1
501.517	17588.98
501.72	17718
501.923	17654.51
502.126	17920.75
502.329	18440.93
502.532	18397.93
502.735	18461.41
502.938	18991.84
503.141	19225.31
503.344	19567.32
503.547	19569.37
503.75	19645.14
503.953	20052.69
504.156	20181.71
504.359	20470.47
504.562	20581.06
504.765	21029.57
504.968	20890.31
505.17	21514.94
505.373	21113.53
505.576	21764.79
505.779	21723.83
505.982	22033.07
506.185	22405.8
506.387	22330.03
506.59	22968.99
506.793	23270.04
506.996	23014.05
507.198	23646.87
507.401	23841.43
507.604	23995.03
507.807	24363.66
508.009	24453.77
508.212	24681.1
508.415	24836.74
508.617	25473.66
508.82	25305.73
509.022	25180.8
509.225	25840.25
509.428	26200.69
509.63	26409.58
509.833	26567.27
510.035	26749.54
510.238	26962.53
510.44	27273.82
510.643	27828.82
510.845	27648.6
511.048	28070.48
511.25	28422.73
511.453	28514.89
511.655	29485.63
511.858	28873.29
512.06	29282.88
512.262	29665.85
512.465	29633.08
512.667	30296.63
512.87	30151.22
513.072	30366.26
513.274	30970.41
513.477	31134.24
513.679	31461.92
513.881	31638.05
514.084	32096.79
514.286	31967.77
514.488	32346.64
514.69	33563.14
514.893	33188.36
515.095	33331.72
515.297	33397.25
515.499	33747.45
515.701	34202.1
515.904	34599.41
516.106	34513.39
516.308	34927.08
516.51	35535.33
516.712	35420.64
516.914	35715.55
517.116	36755.92
517.318	36743.63
517.52	36743.63
517.722	36669.9
517.925	37583.3
518.127	37710.27
518.329	37732.8
518.531	37745.09
518.733	38721.97
518.935	38994.35
519.136	38588.85
519.338	38937.01
519.54	39508.39
519.742	39854.5
519.944	39760.29
520.146	40577.43
520.348	40743.31
520.55	41042.32
520.752	41335.18
520.954	41877.89
521.155	41822.59
521.357	41988.48
521.559	42791.28
521.761	42940.78
521.963	42897.78
522.164	43153.77
522.366	43247.98
522.568	43487.59
522.77	43821.41
522.971	44419.42
523.173	44097.89
523.375	44691.8
523.576	44753.24
523.778	44759.38
523.98	45240.65
524.181	45060.43
524.383	45492.55
524.584	45977.92
524.786	46092.61
524.988	46016.83
525.189	46616.89
525.391	46518.59
525.592	46598.46
525.794	46969.14
525.995	47020.34
526.197	47106.35
526.398	47407.4
526.6	47587.63
526.801	47857.96
527.003	47837.48
527.204	47765.8
527.406	48513.31
527.607	48347.42
527.808	48541.98
528.01	47591.72
528.211	48128.29
528.412	49277.2
528.614	49107.22
528.815	48824.6
529.016	49887.49
529.218	48912.66
529.419	48623.9
529.62	49719.56
529.822	49594.64
530.023	49547.53
530.224	49447.18
530.425	49238.29
530.626	49236.24
530.828	49375.5
531.029	50573.56
531.23	49551.63
531.431	49576.2
531.632	49852.68
531.833	49950.98
532.035	49907.97
532.236	49973.51
532.437	49522.96
532.638	49875.21
532.839	50213.12
533.04	50309.38
533.241	49742.09
533.442	50645.24
533.643	50399.49
533.844	50290.94
534.045	50376.96
534.246	50333.95
534.447	50327.81
534.648	49981.7
534.849	50639.1
535.05	49953.03
535.251	50209.03
535.451	49735.95
535.652	50313.47
535.853	49793.29
536.054	50354.43
536.255	50716.92
536.456	49752.33
536.657	50923.77
536.857	50075.91
537.058	50186.5
537.259	50503.93
537.46	50245.89
537.66	50352.38
537.861	50055.43
538.062	50278.66
538.263	50292.99
538.463	49793.29
538.664	50075.91
538.865	50137.35
539.065	50729.21
539.266	49905.93
539.466	50360.58
539.667	49621.26
539.868	50759.93
540.068	50127.11
540.269	50008.32
540.469	50411.77
540.67	50032.9
540.87	49754.38
541.071	49983.75
541.271	50276.61
541.472	49772.81
541.672	49819.91
541.873	49479.95
542.073	49613.07
542.274	49932.55
542.474	50010.37
542.675	49664.27
542.875	49955.08
543.075	49762.57
543.276	49422.61
543.476	50155.78
543.676	49864.97
543.877	49518.86
544.077	50032.9
544.277	49178.9
544.478	49656.07
544.678	49352.97
544.878	49277.2
545.078	49592.59
545.279	49246.48
545.479	49199.38
545.679	49539.34
545.879	49582.35
546.079	49531.15
546.28	49529.1
546.48	49064.21
546.68	49408.27
546.88	49479.95
547.08	49686.79
547.28	49228.05
547.48	49201.43
547.68	49467.66
547.88	49047.83
548.081	49449.23
548.281	49434.89
548.481	49162.51
548.681	49686.79
548.881	49447.18
549.081	49443.09
549.28	48726.3
549.48	49602.83
549.68	48877.85
549.88	49613.07
550.08	48933.14
550.28	49244.43
550.48	49213.71
550.68	49211.67
550.88	48974.1
551.08	48816.41
551.279	49232.14
551.479	48709.91
551.679	49006.87
551.879	48607.51
552.079	49111.31
552.278	48746.78
552.478	49266.96
552.678	49500.43
552.878	49443.09
553.077	48601.37
553.277	48296.22
553.477	48970
553.676	48511.26
553.876	49029.4
554.076	48673.05
554.275	48597.27
554.475	48476.44
554.674	48929.05
554.874	48992.53
555.074	48441.63
555.273	48599.32
555.473	49062.16
555.672	48584.99
555.872	48673.05
556.071	48345.37
556.271	48722.2
556.47	48113.95
556.67	48429.34
556.869	48079.14
557.068	48384.29
557.268	48107.81
557.467	48304.41
557.667	47952.16
557.866	47704.36
558.065	48193.82
558.265	47986.98
558.464	47724.84
558.663	48664.86
558.863	47434.03
559.062	48398.62
559.261	47591.72
559.461	47890.73
559.66	47542.57
559.859	47714.6
560.058	47440.17
560.258	47796.52
560.457	47014.19
560.656	47704.36
560.855	47530.28
561.054	47720.74
561.253	47196.46
561.453	47407.4
561.652	47620.39
561.851	47507.76
562.05	46670.14
562.249	46893.36
562.448	47651.11
562.647	46772.53
562.846	46754.1
563.045	47139.12
563.244	46440.76
563.443	47141.17
563.642	46504.25
563.841	47124.78
564.04	46715.19
564.239	47182.13
564.438	46301.5
564.637	46522.68
564.836	46686.52
565.035	45869.38
565.234	46455.1
565.432	46084.42
565.631	46108.99
565.83	46379.32
566.029	45701.45
566.228	45799.75
566.427	45816.13
566.625	45904.2
566.824	45363.53
567.023	45754.69
567.222	44978.51
567.42	45646.15
567.619	45201.74
567.818	45508.94
568.016	45171.02
568.215	45805.89
568.414	45191.5
568.612	45601.1
568.811	44738.9
569.01	45195.6
569.208	44380.51
569.407	45076.82
569.605	44355.93
569.804	44921.17
570.002	44480.86
570.201	44872.02
570.4	44093.79
570.598	44079.46
570.797	43925.86
570.995	44065.12
571.193	43739.49
571.392	43919.71
571.59	43503.98
571.789	44245.34
571.987	43682.15
572.186	43309.42
572.384	43555.18
572.582	43692.39
572.781	43594.09
572.979	42645.88
573.177	43655.53
573.376	43290.99
573.574	42783.09
573.772	43389.29
573.971	42994.03
574.169	42627.45
574.367	42529.14
574.565	42865.01
574.763	42774.9
574.962	42346.87
575.16	41961.86
575.358	42533.24
575.556	41857.41
575.754	42586.49
575.952	42291.58
576.151	42477.94
576.349	41732.48
576.547	41505.16
576.745	41580.93
576.943	41714.05
577.141	41963.9
577.339	41349.51
577.537	41335.18
577.735	41410.95
577.933	40843.66
578.131	41286.03
578.329	41132.43
578.527	41079.18
578.725	41001.36
578.923	41136.52
579.121	40661.4
579.319	40763.79
579.516	40694.16
579.714	41030.03
579.912	40405.4
580.11	40077.72
580.308	40546.71
580.506	40221.08
580.704	39385.51
580.901	40595.86
581.099	40192.41
581.297	39610.79
581.495	39494.05
581.692	40059.29
581.89	39313.83
582.088	39469.48
582.285	39219.63
582.483	39569.83
582.681	39094.7
582.878	39018.92
583.076	38549.94
583.274	39270.82
583.471	38576.56
583.669	38832.56
583.866	38619.57
584.064	38644.15
584.262	38306.23
584.459	38463.93
584.657	37779.9
584.854	38676.91
585.052	37915.07
585.249	37816.77
585.447	38322.62
585.644	37689.79
585.841	37951.93
586.039	38144.44
586.236	37409.22
586.434	37403.08
586.631	37276.1
586.828	37446.08
587.026	37001.68
587.223	37022.16
587.42	37192.14
587.618	36934.09
587.815	36719.06
588.012	36532.69
588.21	36430.29
588.407	36733.39
588.604	36733.39
588.801	36426.2
588.999	36327.89
589.196	36397.52
589.393	36065.75
589.59	36012.51
589.787	35981.79
589.984	35670.5
590.182	35246.57
590.379	35795.42
590.576	35541.47
590.773	35344.87
590.97	35385.83
591.167	35324.39
591.364	34884.08
591.561	35301.86
591.758	34884.08
591.955	34650.61
592.152	34974.19
592.349	34519.54
592.546	34353.65
592.743	34705.9
592.94	34300.4
593.137	34556.4
593.334	34198.01
593.531	33892.86
593.727	34140.66
593.924	34314.74
594.121	33716.73
594.318	33833.47
594.515	33509.89
594.712	33776.12
594.908	33741.31
595.105	33294.85
595.302	33397.25
595.499	33423.87
595.696	33159.69
595.892	33077.77
596.089	33079.82
596.286	32881.16
596.482	33075.72
596.679	32821.77
596.876	32997.9
597.072	32463.38
597.269	32444.94
597.466	32150.04
597.662	32313.87
597.859	32346.64
598.055	31918.62
598.252	31805.98
598.448	31853.08
598.645	31812.12
598.841	31914.52
599.038	31838.75
599.234	31527.45
599.431	31296.03
599.627	31089.19
599.824	31218.21
600.02	31384.1
600.217	30986.79
600.413	31078.95
600.609	31083.05
600.806	30450.22
601.002	30741.03
601.198	30523.95
601.395	30810.67
601.591	30349.87
601.787	30659.12
601.984	30183.99
602.18	30425.65
602.376	29932.09
602.572	30173.75
602.769	30009.91
602.965	29786.68
603.161	30024.25
603.357	29715
603.553	29708.86
603.75	29528.64
603.946	29434.43
604.142	29854.26
604.338	29151.81
604.534	29299.26
604.73	29094.47
604.926	29071.94
605.122	29084.23
605.318	28791.37
605.514	28961.35
605.71	28459.6
605.906	28836.42
606.102	28486.22
606.298	28537.42
606.494	28062.29
606.69	28607.05
606.886	28600.91
607.082	27998.8
607.278	28398.16
607.474	27781.72
607.67	28099.16
607.866	27615.83
608.062	27843.16
608.257	27976.28
608.453	27841.11
608.649	28021.33
608.845	27390.56
609.041	27531.87
609.236	27513.44
609.432	27560.54
609.628	27193.95
609.824	27470.43
610.019	27576.92
610.215	27290.21
610.411	27527.77
610.606	26643.05
610.802	27445.85
610.998	26905.19
611.193	27193.95
611.389	26892.9
611.584	26823.27
611.78	26626.67
611.976	26790.5
612.171	26741.35
612.367	26718.82
612.562	26600.04
612.758	26348.14
612.953	26493.55
613.149	26827.37
613.344	26153.58
613.539	26720.87
613.735	26200.69
613.93	26511.98
614.126	26497.64
614.321	26419.82
614.517	26106.48
614.712	25881.21
614.907	25873.01
615.103	26360.43
615.298	25922.16
615.493	26335.85
615.688	25746.04
615.884	26104.43
616.079	25621.11
616.274	25899.64
616.47	25586.3
616.665	25713.27
616.86	25418.36
617.055	25444.99
617.25	25430.65
617.445	25395.84
617.641	25092.74
617.836	25369.21
618.031	24789.64
618.226	25188.99
618.421	24742.53
618.616	25281.15
618.811	24638.09
619.006	24752.77
619.201	24351.37
619.396	24779.4
619.591	24230.54
619.786	24824.45
619.981	24103.57
620.176	24322.7
620.371	23970.45
620.566	23997.07
620.761	23779.99
620.956	23917.2
621.151	23523.99
621.346	23777.94
621.541	23431.83
621.735	23575.19
621.93	23038.62
622.125	23276.19
622.32	22921.89
622.515	23186.08
622.709	22614.69
622.904	22786.72
623.099	22612.65
623.294	22680.23
623.488	22237.87
623.683	22315.69
623.878	21797.56
624.072	22182.57
624.267	21922.48
624.462	21582.52
624.656	21826.23
624.851	21838.51
625.046	21603
625.24	21353.15
625.435	21289.66
625.629	21097.15
625.824	21062.33
626.018	20980.42
626.213	20636.36
626.407	20642.5
626.602	20347.59
626.796	20531.91
626.991	20316.87
627.185	20572.87
627.38	20363.98
627.574	20091.6
627.768	19978.96
627.963	19823.31
628.157	19462.87
628.352	19882.7
628.546	19469.01
628.74	19323.61
628.935	19229.4
629.129	19307.23
629.323	18926.3
629.517	18926.3
629.712	18885.34
629.906	18752.23
630.1	18473.7
630.294	18733.79
630.489	18549.48
630.683	18799.33
630.877	18293.48
631.071	18490.09
631.265	18309.86
631.459	18195.18
631.653	18019.05
631.848	17775.34
632.042	17869.55
632.236	17918.7
632.43	17455.86
632.624	17697.52
632.818	17570.55
633.012	17306.36
633.206	17011.45
633.4	17302.26
633.594	17187.58
633.788	16853.76
633.982	17066.75
634.176	17195.77
634.369	16892.67
634.563	16790.27
634.757	16431.88
634.951	16524.04
635.145	16302.86
635.339	16546.56
635.533	16196.36
635.726	16431.88
635.92	16134.92
636.114	16136.97
636.308	15911.69
636.501	15784.72
636.695	15858.45
636.889	15481.62
637.083	15590.16
637.276	15323.93
637.47	15244.06
637.664	15391.51
637.857	15362.84
638.051	15194.9
638.244	14877.47
638.438	15162.14
638.632	15000.35
638.825	14811.93
639.019	14820.13
639.212	14799.65
639.406	14644
639.599	14889.76
639.793	14658.34
639.986	14314.28
640.18	14457.64
640.373	14213.93
640.567	13949.74
640.76	14297.89
640.954	14023.47
641.147	14056.23
641.34	13910.83
641.534	13792.05
641.727	13935.4
641.92	13890.35
642.114	13579.06
642.307	13536.05
642.5	13824.81
642.694	13304.63
642.887	13400.88
643.08	13370.16
643.273	13237.05
643.467	13269.81
643.66	12847.93
643.853	13052.73
644.046	12974.91
644.239	12942.14
644.432	12983.1
644.626	12663.61
644.819	12573.5
645.012	12716.86
645.205	12698.43
645.398	12282.69
645.591	12452.67
645.784	12442.43
645.977	12288.84
646.17	12268.36
646.363	12297.03
646.556	12155.72
646.749	12002.12
646.942	12081.99
647.135	12141.38
647.328	11856.72
647.521	12041.03
647.714	11647.82
647.907	12002.12
648.099	11526.99
648.292	11529.04
648.485	11649.87
648.678	11445.07
648.871	11500.37
649.064	11387.73
649.256	11131.73
649.449	11170.65
649.642	11029.34
649.835	11191.13
650.027	10937.18
650.22	11082.58
650.413	11008.86
650.605	11002.71
650.798	10779.48
650.991	10953.56
651.183	10791.77
651.376	10525.54
651.568	10609.5
651.761	10718.04
651.954	10552.16
652.146	10333.03
652.339	10347.36
652.531	10197.86
652.724	10330.98
652.916	10115.94
653.109	10036.07
653.301	10079.08
653.494	10150.76
653.686	9898.86
653.879	10091.37
654.071	9769.83
654.263	9735.02
654.456	9726.83
654.648	9812.84
654.84	9567.09
655.033	9651.05
655.225	9679.72
655.417	9280.37
655.61	9511.79
655.802	9536.37
655.994	9474.93
656.186	9481.07
656.379	9423.73
656.571	9292.66
656.763	8944.5
656.955	9210.74
657.148	9063.29
657.34	9196.4
657.532	9120.63
657.724	9124.72
657.916	8895.35
658.108	8919.93
658.3	8729.47
658.492	8870.78
658.684	8725.37
658.876	8612.73
659.068	8674.17
659.26	8567.68
659.452	8633.21
659.644	8715.13
659.836	8366.98
660.028	8489.85
660.22	8223.62
660.412	8493.95
660.604	8227.71
660.796	8336.26
660.988	8260.48
661.18	8027.01
661.372	8119.17
661.563	8078.21
661.755	8086.4
661.947	8039.3
662.139	7949.19
662.331	8072.07
662.522	7961.48
662.714	7971.72
662.906	7809.93
663.097	7732.11
663.289	7662.48
663.481	7773.07
663.673	7611.28
663.864	7666.57
664.056	7502.73
664.247	7480.21
664.439	7455.63
664.631	7474.06
664.822	7314.32
665.014	7439.25
665.205	7160.72
665.397	7250.83
665.588	7347.09
665.78	7166.87
665.971	7150.48
666.163	7277.46
666.354	7183.25
666.546	7015.32
666.737	6921.11
666.929	6917.01
667.12	6962.07
667.311	6923.16
667.503	6919.06
667.694	6765.46
667.885	6837.14
668.077	6769.56
668.268	6902.68
668.459	6937.49
668.651	6546.33
668.842	6718.36
669.033	6714.27
669.224	6521.76
669.416	6624.15
669.607	6570.91
669.798	6491.04
669.989	6507.42
670.18	6415.26
670.371	6306.72
670.563	6265.76
670.754	6280.1
670.945	6183.84
671.136	6290.34
671.327	6169.51
671.518	6255.52
671.709	6052.77
671.9	6288.29
672.091	6085.54
672.282	6095.78
672.473	6200.23
672.664	5946.28
672.855	6044.58
673.046	6093.73
673.237	5983.14
673.428	6022.05
673.619	5940.13
673.809	5989.28
674	5888.93
674.191	5940.13
674.382	5831.59
674.573	5708.71
674.764	5735.34
674.954	5870.5
675.145	5757.86
675.336	5602.22
675.527	5725.1
675.717	5643.18
675.908	5684.14
676.099	5546.92
676.289	5647.27
676.48	5577.64
676.671	5456.81
676.861	5557.16
677.052	5456.81
677.243	5381.04
677.433	5346.22
677.624	5573.55
677.814	5348.27
678.005	5446.57
678.195	5522.35
678.386	5323.69
678.576	5266.35
678.767	5211.06
678.957	5268.4
679.148	5301.17
679.338	5335.98
679.529	5127.09
679.719	5120.95
679.909	5331.89
680.1	5163.95
680.29	5172.15
680.481	5194.67
680.671	5094.32
680.861	5176.24
681.052	5086.13
681.242	4881.33
681.432	5098.42
681.622	4799.41
681.813	4922.29
682.003	5026.74
682.193	4750.26
682.383	4967.35
682.573	4924.34
682.764	4971.44
682.954	4889.53
683.144	4934.58
683.334	4946.87
683.524	4807.61
683.714	4729.78
683.904	4883.38
684.094	4713.4
684.284	4725.69
684.474	4754.36
684.664	4694.97
684.854	4729.78
685.044	4692.92
685.234	4639.67
685.424	4615.1
685.614	4639.67
685.804	4645.82
685.994	4563.9
686.184	4529.08
686.374	4637.63
686.564	4481.98
686.753	4518.84
686.943	4410.3
687.133	4481.98
687.323	4357.05
687.513	4459.45
687.702	4484.03
687.892	4340.67
688.082	4363.2
688.272	4463.55
688.461	4238.27
688.651	4424.64
688.841	4258.75
689.03	4248.51
689.22	4236.22
689.41	4072.39
689.599	4205.5
689.789	4289.47
689.979	4275.13
690.168	4039.62
690.358	4205.5
690.547	4182.98
690.737	4160.45
690.926	4000.71
691.116	4029.38
691.305	4170.69
691.495	4000.71
691.684	3992.52
691.874	3965.89
692.063	3892.16
692.252	3965.89
692.442	4039.62
692.631	3976.13
692.82	3916.74
693.01	3783.62
693.199	3816.39
693.388	3865.54
693.578	3810.25
693.767	3996.61
693.956	3879.88
694.146	3947.46
694.335	3705.8
694.524	3744.71
694.713	3750.85
694.902	3834.82
695.092	3824.58
695.281	3793.86
695.47	3681.22
695.659	3605.45
695.848	3664.84
696.037	3670.98
696.226	3541.96
696.415	3533.77
696.604	3718.09
696.793	3718.09
696.982	3697.61
697.171	3566.54
697.36	3550.15
697.549	3576.78
697.738	3597.26
697.927	3603.4
698.116	3439.56
698.305	3539.91
698.494	3537.87
698.683	3435.47
698.872	3402.7
699.061	3638.22
699.25	3476.43
699.438	3505.1
699.627	3476.43
699.816	3591.11
700.005	3425.23
700.193	3488.71
700.382	3482.57
700.571	3283.92
700.76	3333.07
700.948	3384.27
701.137	3247.05
701.326	3382.22
701.514	3439.56
701.703	3314.64
701.892	3234.77
702.08	3378.12
702.269	3390.41
702.457	3195.86
702.646	3257.29
702.834	3259.34
703.023	3359.69
703.212	3212.24
703.4	3292.11
703.589	3421.13
703.777	3251.15
703.965	3107.79
704.154	3216.33
704.342	3218.38
704.531	3154.9
704.719	3245.01
704.907	3308.49
705.096	3195.86
705.284	3189.71
705.472	3154.9
705.661	3197.9
705.849	3242.96
706.037	3173.33
706.226	3179.47
706.414	3111.89
706.602	3105.74
706.79	3126.22
706.979	3005.39
707.167	3214.29
707.355	2898.9
707.543	3226.57
707.731	3210.19
707.919	3283.92
708.107	3048.4
708.296	3075.03
708.484	3005.39
708.672	3118.03
708.86	2989.01
709.048	3111.89
709.236	2968.53
709.424	2907.09
709.612	3009.49
709.8	2886.61
709.988	2970.58
710.176	3089.36
710.364	2948.05
710.551	2966.48
710.739	2997.2
710.927	3093.46
711.115	2931.67
711.303	2962.39
711.491	2886.61
711.679	2900.95
711.866	2841.56
712.054	2989.01
712.242	2835.41
712.43	2972.63
712.617	2968.53
712.805	2943.96
712.993	2759.64
713.181	2769.88
713.368	2866.13
713.556	2845.65
713.744	2761.69
713.931	2913.24
714.119	2868.18
714.306	2847.7
714.494	2859.99
714.682	2747.35
714.869	2870.23
715.057	2794.45
715.244	2823.12
715.432	2827.22
715.619	2903
715.807	2819.03
715.994	2745.3
716.182	2759.64
716.369	2694.1
716.556	2765.78
716.744	2714.58
716.931	2759.64
717.119	2673.62
717.306	2702.29
717.493	2802.65
717.681	2649.05
717.868	2726.87
718.055	2690.01
718.242	2771.93
718.43	2698.2
718.617	2724.82
718.804	2663.38
718.991	2700.25
719.179	2608.09
719.366	2739.16
719.553	2644.95
719.74	2665.43
719.927	2583.51
720.114	2694.1
720.301	2716.63
720.488	2622.42
720.676	2636.76
720.863	2759.64
721.05	2687.96
721.237	2581.46
721.424	2636.76
721.611	2417.63
721.798	2493.4
721.985	2448.35
722.172	2663.38
722.358	2587.61
722.545	2544.6
722.732	2524.12
722.919	2601.94
723.106	2540.51
723.293	2483.16
723.48	2485.21
723.667	2333.66
723.853	2407.39
724.04	2493.4
724.227	2534.36
724.414	2560.98
724.6	2479.07
724.787	2542.55
724.974	2407.39
725.161	2374.62
725.347	2507.74
725.534	2505.69
725.72	2462.68
725.907	2436.06
726.094	2507.74
726.28	2448.35
726.467	2552.79
726.653	2407.39
726.84	2489.31
727.027	2524.12
727.213	2333.66
727.4	2368.48
727.586	2391
727.773	2411.48
727.959	2335.71
728.145	2427.87
728.332	2448.35
728.518	2276.32
728.705	2321.37
728.891	2374.62
729.077	2376.67
729.264	2358.24
729.45	2284.51
729.636	2360.28
729.823	2311.13
730.009	2309.08
730.195	2313.18
730.382	2206.69
730.568	2327.52
730.754	2221.02
730.94	2268.13
731.126	2311.13
731.313	2319.32
731.499	2204.64
731.685	2384.86
731.871	2286.56
732.057	2204.64
732.243	2319.32
732.429	2348
732.615	2337.76
732.801	2286.56
732.987	2204.64
733.173	2237.41
733.359	2282.46
733.545	2173.92
733.731	2145.25
733.917	2243.55
734.103	2255.84
734.289	2155.49
734.475	2157.54
734.661	2229.21
734.847	2202.59
735.033	2282.46
735.219	2161.63
735.404	2243.55
735.59	2204.64
735.776	2188.25
735.962	2182.11
736.148	2227.17
736.333	2261.98
736.519	2120.67
736.705	2178.01
736.89	2079.71
737.076	2112.48
737.262	2055.14
737.447	2096.1
737.633	2155.49
737.819	2251.74
738.004	2106.34
738.19	2128.86
738.375	2030.56
738.561	2132.96
738.747	2094.05
738.932	2030.56
739.118	2114.53
739.303	2071.52
739.489	2079.71
739.674	2032.61
739.859	2016.23
740.045	2032.61
740.23	2030.56
740.416	1922.02
740.601	2038.75
740.786	1905.63
740.972	2042.85
741.157	1991.65
741.342	1917.92
741.528	1891.3
741.713	1997.79
741.898	1973.22
742.084	1815.52
742.269	1989.6
742.454	1895.4
742.639	1985.51
742.824	1870.82
743.01	1917.92
743.195	1940.45
743.38	1915.87
743.565	1848.29
743.75	1866.72
743.935	1842.15
744.12	1747.94
744.305	1836
744.49	1764.33
744.675	1795.04
744.86	1768.42
745.045	1770.47
745.23	1805.28
745.415	1709.03
745.6	1913.83
745.785	1788.9
745.97	1799.14
746.155	1739.75
746.34	1817.57
746.525	1733.61
746.71	1772.52
746.895	1706.98
747.079	1670.12
747.264	1702.89
747.449	1659.88
747.634	1713.13
747.819	1729.51
748.003	1678.31
748.188	1588.2
748.373	1641.45
748.557	1655.78
748.742	1661.93
748.927	1412.07
749.111	1629.16
749.296	1569.77
749.481	1674.21
749.665	1678.31
749.85	1549.29
750.034	1565.67
750.219	1473.51
750.404	1444.84
750.588	1588.2
750.773	1514.47
750.957	1493.99
751.141	1602.54
751.326	1463.27
751.51	1500.14
751.695	1407.98
751.879	1567.72
752.064	1549.29
752.248	1424.36
752.432	1457.13
752.617	1446.89
752.801	1504.23
752.985	1469.42
753.17	1403.88
753.354	1391.59
753.538	1342.44
753.722	1340.4
753.907	1293.29
754.091	1309.68
754.275	1305.58
754.459	1377.26
754.643	1317.87
754.828	1297.39
755.012	1235.95
755.196	1227.76
755.38	1194.99
755.564	1129.45
755.748	1278.96
755.932	1274.86
756.116	1258.48
756.3	1219.57
756.484	1233.9
756.668	1227.76
756.852	1246.19
757.036	1151.98
757.22	1215.47
757.404	1061.87
757.588	1016.82
757.772	1145.84
757.956	1100.78
758.14	1240.05
758.323	1074.16
758.507	1149.93
758.691	1055.73
758.875	1115.12
759.059	1068.02
759.242	1014.77
759.426	1156.08
759.61	1104.88
759.794	1074.16
759.977	1049.58
760.161	1106.93
760.345	1047.54
760.528	1102.83
760.712	1092.59
760.895	1117.17
761.079	1010.67
761.263	1010.67
761.446	996.34
761.63	1016.82
761.813	961.52
761.997	1041.39
762.18	973.81
762.364	973.81
762.547	1014.77
762.731	1090.54
762.914	924.66
763.098	879.6
763.281	941.04
763.464	881.65
763.648	891.89
763.831	971.76
764.015	924.66
764.198	928.75
764.381	930.8
764.564	891.89
764.748	879.6
764.931	990.19
765.114	934.9
765.297	936.95
765.481	816.12
765.664	918.51
765.847	801.78
766.03	885.75
766.213	746.48
766.397	910.32
766.58	832.5
766.763	861.17
766.946	799.73
767.129	945.14
767.312	844.79
767.495	805.88
767.678	820.21
767.861	857.07
768.044	842.74
768.227	879.6
768.41	769.01
768.593	873.46
768.776	779.25
768.959	842.74
769.142	889.84
769.324	887.79
769.507	791.54
769.69	785.4
769.873	834.55
770.056	859.12
770.239	863.22
770.421	820.21
770.604	719.86
770.787	711.67
770.97	838.64
771.152	846.84
771.335	826.36
771.518	793.59
771.7	789.49
771.883	791.54
772.066	826.36
772.248	744.44
772.431	816.12
772.613	777.2
772.796	783.35
772.978	793.59
773.161	752.63
773.343	787.44
773.526	764.92
773.708	805.88
773.891	721.91
774.073	678.9
774.256	713.72
774.438	793.59
774.621	728.05
774.803	695.29
774.985	695.29
775.168	734.2
775.35	723.96
775.532	693.24
775.715	644.09
775.897	650.23
776.079	629.75
776.261	666.61
776.444	629.75
776.626	721.91
776.808	678.9
776.99	654.33
777.173	715.77
777.355	676.85
777.537	668.66
777.719	615.41
777.901	605.17
778.083	601.08
778.265	590.84
778.447	670.71
778.629	517.11
778.811	576.5
778.993	527.35
779.175	615.41
779.357	570.36
779.539	599.03
779.721	599.03
779.903	556.02
780.085	529.4
780.267	521.21
780.449	488.44
780.631	558.07
780.812	572.41
780.994	656.37
781.176	525.3
781.358	586.74
781.54	558.07
781.721	580.6
781.903	531.45
782.085	625.65
782.267	556.02
782.448	566.26
782.63	498.68
782.812	535.54
782.993	558.07
783.175	502.78
783.357	429.05
783.538	525.3
783.72	453.63
783.901	408.57
784.083	482.3
784.264	502.78
784.446	543.74
784.627	453.63
784.809	482.3
784.99	533.5
785.172	500.73
785.353	449.53
785.535	482.3
785.716	418.81
785.897	492.54
786.079	412.67
786.26	465.91
786.441	427
786.623	377.85
786.804	381.95
786.985	441.34
787.167	486.39
787.348	402.43
787.529	459.77
787.71	353.27
787.891	418.81
788.073	363.51
788.254	343.03
788.435	463.86
788.616	424.95
788.797	388.09
788.978	336.89
789.159	371.71
789.34	383.99
789.522	326.65
789.703	338.94
789.884	359.42
790.065	367.61
790.246	361.47
790.427	349.18
790.607	375.8
790.788	441.34
790.969	396.28
791.15	279.55
791.331	281.6
791.512	326.65
791.693	371.71
791.874	412.67
792.054	347.13
792.235	359.42
792.416	310.27
792.597	240.64
792.778	361.47
792.958	340.99
793.139	334.84
793.32	297.98
793.5	314.36
793.681	306.17
793.862	316.41
794.042	373.75
794.223	285.69
794.404	287.74
794.584	289.79
794.765	295.93
794.945	349.18
795.126	302.08
795.306	322.56
795.487	265.21
795.667	238.59
795.848	318.46
796.028	328.7
796.209	304.12
796.389	326.65
796.57	257.02
796.75	248.83
796.93	244.73
797.111	244.73
797.291	351.23
797.471	287.74
797.652	259.07
797.832	214.01
798.012	328.7
798.192	228.35
798.373	236.54
798.553	265.21
798.733	263.16
798.913	230.4
799.093	345.08
799.274	232.44
799.454	302.08
799.634	271.36
799.814	287.74
799.994	226.3
800.174	261.12
800.354	293.88
800.534	302.08
800.714	240.64
800.894	199.68
801.074	236.54
801.254	293.88
801.434	297.98
801.614	195.58
801.794	146.43
801.974	756.72
802.154	228.35
802.334	244.73
802.514	291.84
802.693	265.21
802.873	150.53
803.053	316.41
803.233	199.68
803.413	160.77
803.592	216.06
803.772	269.31
803.952	152.57
804.131	293.88
804.311	250.88
804.491	277.5
804.67	113.66
804.85	230.4
805.03	257.02
805.209	160.77
805.389	234.49
805.568	279.55
805.748	130.05
805.928	158.72
806.107	224.25
806.287	263.16
806.466	195.58
806.646	179.2
806.825	187.39
807.004	181.25
807.184	195.58
807.363	209.92
807.543	220.16
807.722	142.33
807.901	191.49
808.081	214.01
808.26	193.53
808.439	187.39
808.619	211.96
808.798	185.34
808.977	216.06
809.156	201.72
809.336	152.57
809.515	197.63
809.694	121.85
809.873	136.19
810.052	138.24
810.231	193.53
810.411	160.77
810.59	222.2
810.769	197.63
810.948	199.68
811.127	117.76
811.306	195.58
811.485	140.29
811.664	201.72
811.843	189.44
812.022	164.86
812.201	164.86
812.38	183.29
812.559	117.76
812.737	236.54
812.916	105.47
813.095	187.39
813.274	91.13
813.453	175.1
813.632	195.58
813.811	136.19
813.989	168.96
814.168	138.24
814.347	132.09
814.526	162.81
814.704	154.62
814.883	179.2
815.062	121.85
815.24	138.24
815.419	84.99
815.598	121.85
815.776	134.14
815.955	173.05
816.133	154.62
816.312	183.29
816.49	189.44
816.669	179.2
816.847	130.05
817.026	76.8
817.204	109.57
817.383	130.05
817.561	142.33
817.74	93.18
817.918	193.53
818.097	156.67
818.275	-1.02
818.453	175.1
818.632	109.57
818.81	130.05
818.988	74.75
819.167	164.86
819.345	93.18
819.523	187.39
819.701	95.23
819.879	189.44
820.058	123.9
820.236	121.85
820.414	111.61
820.592	84.99
820.77	166.91
820.948	84.99
821.127	111.61
821.305	97.28
821.483	89.09
821.661	179.2
821.839	97.28
822.017	91.13
822.195	146.43
822.373	156.67
822.551	97.28
822.729	158.72
822.907	101.37
823.085	140.29
823.262	142.33
823.44	48.13
823.618	146.43
823.796	23.55
823.974	115.71
824.152	72.7
824.329	119.81
824.507	123.9
824.685	140.29
824.863	89.09
825.04	52.22
825.218	82.94
825.396	17.41
825.574	105.47
825.751	72.7
825.929	164.86
826.107	76.8
826.284	64.51
826.462	84.99
826.639	140.29
826.817	60.42
826.994	146.43
827.172	70.65
827.349	130.05
827.527	125.95
827.704	121.85
827.882	89.09
828.059	68.61
828.237	56.32
828.414	123.9
828.591	64.51
828.769	107.52
828.946	5.12
829.124	105.47
829.301	91.13
829.478	50.18
829.655	80.89
829.833	48.13
830.01	-7.17
830.187	82.94
830.364	93.18
830.542	78.85
830.719	50.18
830.896	146.43
831.073	76.8
831.25	140.29
831.427	48.13
831.604	84.99
831.782	54.27
831.959	52.22
832.136	113.66
832.313	48.13
832.49	35.84
832.667	15.36
832.844	11.26
833.021	101.37
833.198	-5.12
833.374	115.71
833.551	25.6
833.728	66.56
833.905	82.94
834.082	72.7
834.259	113.66
834.436	52.22
834.612	17.41
834.789	89.09
834.966	105.47
835.143	56.32
835.319	93.18
835.496	74.75
835.673	50.18
835.85	142.33
836.026	78.85
836.203	39.94
836.38	50.18
836.556	58.37
836.733	35.84
836.909	93.18
837.086	50.18
837.262	115.71
837.439	78.85
837.616	44.03
837.792	64.51
837.968	56.32
838.145	-31.74
838.321	60.42
838.498	15.36
838.674	74.75
838.851	23.55
839.027	50.18
839.203	48.13
839.38	33.79
839.556	37.89
839.732	60.42
839.909	-17.41
840.085	72.7
840.261	15.36
840.437	91.13
840.614	105.47
840.79	125.95
840.966	-1.02
841.142	93.18
841.318	29.7
841.494	121.85
841.671	123.9
841.847	91.13
842.023	107.52
842.199	25.6
842.375	33.79
842.551	17.41
842.727	41.98
842.903	33.79
843.079	35.84
843.255	115.71
843.431	31.74
843.607	89.09
843.783	35.84
843.959	179.2
844.134	33.79
844.31	72.7
844.486	7.17
844.662	56.32
844.838	-11.26
845.013	115.71
845.189	70.65
845.365	60.42
845.541	56.32
845.716	105.47
845.892	31.74
846.068	31.74
846.244	72.7
846.419	39.94
846.595	-7.17
846.77	-23.55
846.946	113.66
847.122	25.6
847.297	27.65
847.473	105.47
847.648	-17.41
847.824	117.76
847.999	-11.26
848.175	68.61
848.35	-9.22
848.526	58.37
848.701	39.94
848.876	99.33
849.052	58.37
849.227	25.6
849.403	31.74
849.578	89.09
849.753	89.09
849.929	80.89
850.104	23.55
850.279	27.65
850.454	15.36
850.63	138.24
850.805	19.46
850.98	41.98
851.155	-19.46
851.33	80.89
851.505	-48.13
851.681	72.7
851.856	-54.27
852.031	23.55
852.206	31.74
852.381	82.94
852.556	23.55
852.731	41.98
852.906	33.79
853.081	89.09
853.256	-1.02
853.431	7.17
853.606	-54.27
853.781	-17.41
853.956	89.09
854.131	15.36
854.305	3.07
854.48	29.7
854.655	-19.46
854.83	17.41
855.005	17.41
855.18	-9.22
855.354	46.08
855.529	74.75
855.704	31.74
855.879	50.18
856.053	-27.65
856.228	109.57
856.403	11.26
856.577	17.41
856.752	27.65
856.926	37.89
857.101	58.37
857.276	76.8
857.45	19.46
857.625	78.85
857.799	-21.5
857.974	19.46
858.148	31.74
858.323	37.89
858.497	64.51
858.672	3.07
858.846	-15.36
859.02	125.95
859.195	-21.5
859.369	13.31
859.543	60.42
859.718	33.79
859.892	23.55
860.066	21.5
860.241	7.17
860.415	72.7
860.589	48.13
860.763	48.13
860.938	-41.98
861.112	25.6
861.286	-1.02
861.46	56.32
861.634	15.36
861.808	33.79
861.982	48.13
862.157	-39.94
862.331	-41.98
862.505	7.17
862.679	9.22
862.853	58.37
863.027	-7.17
863.201	44.03
863.375	17.41
863.549	23.55
863.722	27.65
863.896	64.51
864.07	7.17
864.244	31.74
864.418	56.32
864.592	-19.46
864.766	-1.02
864.939	7.17
865.113	7.17
865.287	25.6
865.461	-23.55
865.634	-17.41
865.808	11.26
865.982	-23.55
866.156	17.41
866.329	-39.94
866.503	-15.36
866.676	93.18
866.85	31.74
867.024	35.84
867.197	23.55
867.371	-33.79
867.544	-17.41
867.718	7.17
867.891	19.46
868.065	-46.08
868.238	27.65
868.412	103.42
868.585	64.51
868.759	13.31
868.932	58.37
869.105	-25.6
869.279	23.55
869.452	23.55
869.625	5.12
869.799	44.03
869.972	31.74
870.145	52.22
870.319	9.22
870.492	5.12
870.665	21.5
870.838	-50.18
871.011	-17.41
871.185	23.55
871.358	-9.22
871.531	39.94
871.704	-33.79
871.877	107.52
872.05	60.42
872.223	35.84
872.396	-13.31
872.569	44.03
872.742	80.89
872.915	72.7
873.088	27.65
873.261	7.17
873.434	-15.36
873.607	-9.22
873.78	117.76
873.953	-9.22
874.126	52.22
874.299	15.36
874.471	-41.98
874.644	-1.02
874.817	1.02
874.99	31.74
875.163	29.7
875.335	33.79
875.508	-44.03
875.681	1.02
875.853	39.94
876.026	15.36
876.199	48.13
876.371	31.74
876.544	9.22
876.717	-82.94
876.889	-31.74
877.062	48.13
877.234	101.37
877.407	-64.51
877.579	-33.79
877.752	9.22
877.924	25.6
878.097	103.42
878.269	25.6
878.442	-27.65
878.614	91.13
878.786	52.22
878.959	72.7
879.131	23.55
879.303	7.17
879.476	-23.55
879.648	27.65
879.82	46.08
879.993	7.17
880.165	93.18
880.337	25.6
880.509	-13.31
880.681	-56.32
880.854	15.36
881.026	58.37
881.198	76.8
881.37	-17.41
881.542	44.03
881.714	-11.26
881.886	7.17
882.058	23.55
882.23	-23.55
882.402	41.98
882.574	-1.02
882.746	17.41
882.918	58.37
883.09	15.36
883.262	-74.75
883.434	-9.22
883.606	52.22
883.778	-11.26
883.95	130.05
884.122	9.22
884.293	27.65
884.465	17.41
884.637	9.22
884.809	-23.55
884.98	3.07
885.152	-31.74
885.324	-54.27
885.496	-21.5
885.667	23.55
885.839	15.36
886.011	80.89
886.182	19.46
886.354	5.12
886.525	9.22
886.697	44.03
886.869	-25.6
887.04	76.8
887.212	1.02
887.383	52.22
887.555	15.36
887.726	35.84
887.897	89.09
888.069	9.22
888.24	64.51
888.412	-5.12
888.583	1.02
888.754	15.36
888.926	-33.79
889.097	-29.7
889.268	-3.07
889.44	48.13
889.611	-41.98
889.782	-39.94
889.953	-13.31
890.125	130.05
890.296	19.46
890.467	9.22
890.638	-56.32
890.809	17.41
890.98	68.61
891.151	-25.6
891.323	17.41
891.494	7.17
891.665	-29.7
891.836	39.94
892.007	21.5
892.178	82.94
892.349	-21.5
892.52	3.07
892.691	89.09
892.862	-37.89
893.032	-23.55
893.203	23.55
893.374	-7.17
893.545	66.56
893.716	31.74
893.887	52.22
894.057	-7.17
894.228	11.26
894.399	39.94
894.57	7.17
894.74	27.65
894.911	17.41
895.082	-17.41
895.253	-37.89
895.423	-25.6
895.594	21.5
895.764	-17.41
895.935	-35.84
896.106	15.36
896.276	-17.41
896.447	-9.22
896.617	-11.26
896.788	-25.6
896.958	7.17
897.129	115.71
897.299	58.37
897.47	62.46
897.64	44.03
897.81	25.6
897.981	23.55
898.151	-66.56
898.322	29.7
898.492	33.79
898.662	-39.94
898.832	-11.26
899.003	27.65
899.173	11.26
899.343	7.17
899.513	-58.37
