Data from USB4F104151__160__14-19-36-665.txt Node

Date: Thu Mar 13 14:19:36 EDT 2025
User: louis
Spectrometer: USB4F10415
Trigger mode: 4
Integration Time (sec): 2.000000E-2
Scans to average: 1
Electric dark correction enabled: true
Nonlinearity correction enabled: false
Boxcar width: 0
XAxis mode: Wavelengths
Number of Pixels in Spectrum: 3648
>>>>>Begin Spectral Data<<<<<
178.204	-122.71
178.424	-122.71
178.644	-122.71
178.864	-151.38
179.084	-161.62
179.304	43.18
179.524	-53.08
179.744	-57.17
179.964	55.47
180.184	-91.99
180.404	65.71
180.624	-10.07
180.844	-16.21
181.064	-51.03
181.283	47.27
181.503	26.79
181.723	41.13
181.943	-71.51
182.163	14.51
182.383	32.94
182.602	71.85
182.822	22.7
183.042	16.55
183.262	0.17
183.482	-55.12
183.701	47.27
183.921	30.89
184.141	-59.22
184.361	149.67
184.58	-34.64
184.8	55.47
185.02	-3.93
185.239	8.36
185.459	-48.98
185.679	63.66
185.898	-42.84
186.118	24.75
186.338	39.08
186.557	22.7
186.777	55.47
186.997	18.6
187.216	-10.07
187.436	16.55
187.655	28.84
187.875	14.51
188.095	0.17
188.314	84.14
188.534	22.7
188.753	-14.17
188.973	55.47
189.192	-5.97
189.412	14.51
189.631	67.75
189.851	24.75
190.07	71.85
190.29	-42.84
190.509	-18.26
190.729	8.36
190.948	41.13
191.168	121
191.387	22.7
191.607	-42.84
191.826	-10.07
192.045	30.89
192.265	10.41
192.484	12.46
192.704	22.7
192.923	-55.12
193.142	59.56
193.362	8.36
193.581	37.03
193.8	8.36
194.02	-5.97
194.239	-14.17
194.458	-12.12
194.678	84.14
194.897	12.46
195.116	-3.93
195.335	-40.79
195.555	57.51
195.774	49.32
195.993	88.23
196.212	18.6
196.432	34.99
196.651	43.18
196.87	8.36
197.089	63.66
197.308	-34.64
197.528	80.04
197.747	-57.17
197.966	14.51
198.185	51.37
198.404	8.36
198.623	-22.36
198.842	98.47
199.062	30.89
199.281	73.9
199.5	51.37
199.719	92.33
199.938	14.51
200.157	41.13
200.376	104.62
200.595	88.23
200.814	24.75
201.033	6.31
201.252	65.71
201.471	20.65
201.69	110.76
201.909	30.89
202.128	34.99
202.347	6.31
202.566	24.75
202.785	-14.17
203.004	-26.45
203.223	55.47
203.442	47.27
203.661	14.51
203.879	24.75
204.098	39.08
204.317	-10.07
204.536	45.23
204.755	16.55
204.974	8.36
205.193	8.36
205.411	43.18
205.63	-18.26
205.849	61.61
206.068	65.71
206.287	-34.64
206.505	49.32
206.724	-28.5
206.943	14.51
207.162	69.8
207.381	-46.93
207.599	47.27
207.818	-10.07
208.037	47.27
208.255	30.89
208.474	18.6
208.693	75.95
208.911	43.18
209.13	57.51
209.349	73.9
209.567	24.75
209.786	47.27
210.005	-24.4
210.223	-63.32
210.442	-26.45
210.661	16.55
210.879	65.71
211.098	26.79
211.316	10.41
211.535	92.33
211.753	20.65
211.972	51.37
212.191	-16.21
212.409	20.65
212.628	-22.36
212.846	16.55
213.065	20.65
213.283	96.43
213.502	43.18
213.72	-22.36
213.938	41.13
214.157	90.28
214.375	65.71
214.594	10.41
214.812	121
215.031	94.38
215.249	71.85
215.467	-10.07
215.686	20.65
215.904	22.7
216.122	-10.07
216.341	4.27
216.559	32.94
216.778	57.51
216.996	102.57
217.214	57.51
217.432	-28.5
217.651	18.6
217.869	10.41
218.087	6.31
218.306	-34.64
218.524	8.36
218.742	39.08
218.96	39.08
219.179	59.56
219.397	57.51
219.615	153.77
219.833	-1.88
220.051	34.99
220.27	108.71
220.488	82.09
220.706	22.7
220.924	-38.74
221.142	18.6
221.36	6.31
221.578	47.27
221.796	-12.12
222.015	92.33
222.233	30.89
222.451	22.7
222.669	-18.26
222.887	0.17
223.105	32.94
223.323	57.51
223.541	2.22
223.759	-18.26
223.977	30.89
224.195	-40.79
224.413	-18.26
224.631	59.56
224.849	82.09
225.067	73.9
225.285	20.65
225.503	8.36
225.721	37.03
225.939	6.31
226.157	80.04
226.375	127.14
226.592	-34.64
226.81	16.55
227.028	8.36
227.246	47.27
227.464	6.31
227.682	10.41
227.9	82.09
228.117	39.08
228.335	32.94
228.553	94.38
228.771	-1.88
228.989	98.47
229.206	41.13
229.424	-30.55
229.642	-16.21
229.86	4.27
230.077	45.23
230.295	49.32
230.513	6.31
230.731	47.27
230.948	71.85
231.166	123.05
231.384	71.85
231.601	-1.88
231.819	39.08
232.037	-48.98
232.254	2.22
232.472	14.51
232.689	22.7
232.907	73.9
233.125	-14.17
233.342	-18.26
233.56	-40.79
233.777	-3.93
233.995	39.08
234.213	114.86
234.43	22.7
234.648	34.99
234.865	16.55
235.083	53.42
235.3	30.89
235.518	100.52
235.735	73.9
235.953	-14.17
236.17	16.55
236.388	24.75
236.605	-63.32
236.822	80.04
237.04	49.32
237.257	55.47
237.475	-53.08
237.692	86.19
237.909	55.47
238.127	8.36
238.344	55.47
238.562	59.56
238.779	-3.93
238.996	30.89
239.214	71.85
239.431	102.57
239.648	26.79
239.865	63.66
240.083	149.67
240.3	32.94
240.517	49.32
240.735	6.31
240.952	121
241.169	80.04
241.386	2.22
241.603	84.14
241.821	-1.88
242.038	100.52
242.255	49.32
242.472	-8.02
242.689	-18.26
242.907	63.66
243.124	65.71
243.341	6.31
243.558	18.6
243.775	65.71
243.992	-8.02
244.209	80.04
244.426	51.37
244.643	22.7
244.86	51.37
245.078	108.71
245.295	34.99
245.512	45.23
245.729	55.47
245.946	55.47
246.163	55.47
246.38	-1.88
246.597	6.31
246.814	104.62
247.031	-30.55
247.248	102.57
247.464	8.36
247.681	34.99
247.898	30.89
248.115	39.08
248.332	-30.55
248.549	-10.07
248.766	94.38
248.983	67.75
249.2	41.13
249.417	51.37
249.633	-30.55
249.85	20.65
250.067	-51.03
250.284	67.75
250.501	106.67
250.717	22.7
250.934	51.37
251.151	51.37
251.368	41.13
251.585	80.04
251.801	59.56
252.018	-8.02
252.235	112.81
252.451	2.22
252.668	-73.56
252.885	24.75
253.102	55.47
253.318	41.13
253.535	8.36
253.752	49.32
253.968	30.89
254.185	-65.36
254.401	-8.02
254.618	-26.45
254.835	80.04
255.051	125.1
255.268	-14.17
255.484	55.47
255.701	84.14
255.917	67.75
256.134	59.56
256.351	57.51
256.567	8.36
256.784	55.47
257	2.22
257.217	37.03
257.433	47.27
257.65	49.32
257.866	-18.26
258.082	10.41
258.299	-34.64
258.515	0.17
258.732	0.17
258.948	-18.26
259.165	39.08
259.381	30.89
259.597	14.51
259.814	-8.02
260.03	-12.12
260.246	77.99
260.463	75.95
260.679	-8.02
260.895	51.37
261.112	51.37
261.328	47.27
261.544	30.89
261.761	100.52
261.977	14.51
262.193	20.65
262.409	-8.02
262.626	32.94
262.842	-34.64
263.058	49.32
263.274	-1.88
263.49	-20.31
263.707	47.27
263.923	53.42
264.139	41.13
264.355	24.75
264.571	96.43
264.787	43.18
265.004	71.85
265.22	43.18
265.436	94.38
265.652	30.89
265.868	39.08
266.084	41.13
266.3	80.04
266.516	51.37
266.732	84.14
266.948	67.75
267.164	114.86
267.38	8.36
267.596	90.28
267.812	71.85
268.028	47.27
268.244	39.08
268.46	8.36
268.676	121
268.892	-48.98
269.108	4.27
269.324	2.22
269.54	-44.88
269.756	63.66
269.972	63.66
270.188	55.47
270.403	88.23
270.619	116.9
270.835	51.37
271.051	26.79
271.267	-3.93
271.483	-10.07
271.698	51.37
271.914	2.22
272.13	10.41
272.346	63.66
272.562	65.71
272.777	182.44
272.993	37.03
273.209	-26.45
273.425	47.27
273.64	-1.88
273.856	-40.79
274.072	39.08
274.287	22.7
274.503	39.08
274.719	55.47
274.934	63.66
275.15	26.79
275.366	22.7
275.581	0.17
275.797	34.99
276.012	28.84
276.228	34.99
276.444	39.08
276.659	22.7
276.875	20.65
277.09	71.85
277.306	10.41
277.521	57.51
277.737	14.51
277.952	-5.97
278.168	12.46
278.383	-8.02
278.599	45.23
278.814	18.6
279.03	47.27
279.245	80.04
279.461	41.13
279.676	10.41
279.892	-1.88
280.107	94.38
280.322	53.42
280.538	12.46
280.753	90.28
280.969	-22.36
281.184	57.51
281.399	41.13
281.615	63.66
281.83	98.47
282.045	51.37
282.26	-1.88
282.476	49.32
282.691	59.56
282.906	98.47
283.122	57.51
283.337	-59.22
283.552	34.99
283.767	-10.07
283.983	51.37
284.198	26.79
284.413	8.36
284.628	47.27
284.843	32.94
285.058	104.62
285.274	-8.02
285.489	-55.12
285.704	16.55
285.919	12.46
286.134	-10.07
286.349	63.66
286.564	49.32
286.779	98.47
286.995	-10.07
287.21	59.56
287.425	22.7
287.64	8.36
287.855	32.94
288.07	24.75
288.285	-26.45
288.5	24.75
288.715	24.75
288.93	41.13
289.145	-16.21
289.36	51.37
289.575	-24.4
289.79	102.57
290.004	-22.36
290.219	147.62
290.434	30.89
290.649	39.08
290.864	69.8
291.079	37.03
291.294	39.08
291.509	55.47
291.724	26.79
291.938	41.13
292.153	6.31
292.368	28.84
292.583	34.99
292.798	86.19
293.012	112.81
293.227	-1.88
293.442	0.17
293.657	10.41
293.871	65.71
294.086	53.42
294.301	75.95
294.516	137.38
294.73	75.95
294.945	22.7
295.16	24.75
295.374	73.9
295.589	14.51
295.804	39.08
296.018	92.33
296.233	37.03
296.447	22.7
296.662	30.89
296.877	104.62
297.091	-22.36
297.306	112.81
297.52	51.37
297.735	51.37
297.949	-14.17
298.164	16.55
298.378	47.27
298.593	-16.21
298.807	37.03
299.022	55.47
299.236	39.08
299.451	41.13
299.665	-5.97
299.88	55.47
300.094	39.08
300.309	59.56
300.523	14.51
300.737	108.71
300.952	41.13
301.166	75.95
301.381	20.65
301.595	0.17
301.809	80.04
302.024	24.75
302.238	63.66
302.452	16.55
302.667	-3.93
302.881	57.51
303.095	22.7
303.309	84.14
303.524	63.66
303.738	-67.41
303.952	45.23
304.166	90.28
304.381	-63.32
304.595	22.7
304.809	20.65
305.023	0.17
305.237	37.03
305.452	98.47
305.666	59.56
305.88	34.99
306.094	-1.88
306.308	22.7
306.522	6.31
306.736	45.23
306.95	61.61
307.164	26.79
307.379	-3.93
307.593	63.66
307.807	67.75
308.021	34.99
308.235	75.95
308.449	6.31
308.663	55.47
308.877	82.09
309.091	16.55
309.305	73.9
309.519	8.36
309.733	18.6
309.947	14.51
310.161	39.08
310.374	92.33
310.588	12.46
310.802	18.6
311.016	39.08
311.23	-12.12
311.444	47.27
311.658	37.03
311.872	123.05
312.085	67.75
312.299	71.85
312.513	53.42
312.727	71.85
312.941	26.79
313.154	10.41
313.368	-32.6
313.582	57.51
313.796	84.14
314.009	53.42
314.223	106.67
314.437	22.7
314.651	22.7
314.864	-38.74
315.078	6.31
315.292	51.37
315.505	45.23
315.719	77.99
315.933	80.04
316.146	104.62
316.36	-40.79
316.573	65.71
316.787	88.23
317.001	49.32
317.214	100.52
317.428	0.17
317.641	59.56
317.855	39.08
318.068	-38.74
318.282	20.65
318.495	51.37
318.709	28.84
318.922	24.75
319.136	6.31
319.349	63.66
319.563	-42.84
319.776	-18.26
319.99	63.66
320.203	88.23
320.417	55.47
320.63	61.61
320.843	57.51
321.057	4.27
321.27	14.51
321.483	18.6
321.697	116.9
321.91	71.85
322.124	82.09
322.337	39.08
322.55	0.17
322.763	18.6
322.977	-1.88
323.19	-40.79
323.403	88.23
323.617	10.41
323.83	-12.12
324.043	112.81
324.256	53.42
324.469	-48.98
324.683	47.27
324.896	65.71
325.109	18.6
325.322	0.17
325.535	92.33
325.748	75.95
325.962	-10.07
326.175	45.23
326.388	24.75
326.601	51.37
326.814	22.7
327.027	14.51
327.24	41.13
327.453	0.17
327.666	41.13
327.879	6.31
328.092	77.99
328.305	51.37
328.518	141.48
328.731	-34.64
328.944	-42.84
329.157	47.27
329.37	-34.64
329.583	20.65
329.796	53.42
330.009	118.95
330.222	53.42
330.435	30.89
330.648	65.71
330.861	73.9
331.073	16.55
331.286	55.47
331.499	-8.02
331.712	55.47
331.925	55.47
332.138	86.19
332.35	73.9
332.563	22.7
332.776	86.19
332.989	77.99
333.202	-24.4
333.414	133.29
333.627	14.51
333.84	53.42
334.053	49.32
334.265	-26.45
334.478	63.66
334.691	51.37
334.903	-22.36
335.116	26.79
335.329	137.38
335.541	30.89
335.754	172.2
335.966	39.08
336.179	8.36
336.392	82.09
336.604	73.9
336.817	-14.17
337.029	98.47
337.242	84.14
337.454	39.08
337.667	30.89
337.88	73.9
338.092	-18.26
338.305	63.66
338.517	2.22
338.729	84.14
338.942	92.33
339.154	110.76
339.367	106.67
339.579	57.51
339.792	39.08
340.004	49.32
340.217	90.28
340.429	129.19
340.641	65.71
340.854	88.23
341.066	67.75
341.278	41.13
341.491	90.28
341.703	145.58
341.915	16.55
342.128	49.32
342.34	57.51
342.552	30.89
342.764	12.46
342.977	59.56
343.189	63.66
343.401	37.03
343.613	-40.79
343.826	67.75
344.038	6.31
344.25	139.43
344.462	49.32
344.674	-18.26
344.886	14.51
345.099	6.31
345.311	34.99
345.523	37.03
345.735	-36.69
345.947	90.28
346.159	6.31
346.371	47.27
346.583	-48.98
346.795	30.89
347.007	47.27
347.219	47.27
347.431	63.66
347.643	82.09
347.855	0.17
348.067	65.71
348.279	30.89
348.491	41.13
348.703	22.7
348.915	71.85
349.127	69.8
349.339	28.84
349.551	-1.88
349.763	80.04
349.975	47.27
350.187	139.43
350.399	51.37
350.61	114.86
350.822	-14.17
351.034	59.56
351.246	0.17
351.458	65.71
351.669	24.75
351.881	63.66
352.093	108.71
352.305	100.52
352.517	22.7
352.728	98.47
352.94	98.47
353.152	0.17
353.363	65.71
353.575	43.18
353.787	88.23
353.999	112.81
354.21	55.47
354.422	63.66
354.633	131.24
354.845	22.7
355.057	84.14
355.268	32.94
355.48	67.75
355.692	22.7
355.903	18.6
356.115	47.27
356.326	30.89
356.538	114.86
356.749	59.56
356.961	73.9
357.172	63.66
357.384	41.13
357.595	100.52
357.807	104.62
358.018	-18.26
358.23	106.67
358.441	151.72
358.653	47.27
358.864	8.36
359.075	32.94
359.287	37.03
359.498	77.99
359.709	47.27
359.921	49.32
360.132	57.51
360.344	71.85
360.555	110.76
360.766	65.71
360.977	-40.79
361.189	104.62
361.4	-69.46
361.611	71.85
361.823	71.85
362.034	57.51
362.245	47.27
362.456	26.79
362.667	47.27
362.879	-40.79
363.09	47.27
363.301	114.86
363.512	88.23
363.723	82.09
363.935	30.89
364.146	135.34
364.357	22.7
364.568	96.43
364.779	-34.64
364.99	-1.88
365.201	43.18
365.412	71.85
365.623	-24.4
365.834	82.09
366.045	51.37
366.256	106.67
366.467	39.08
366.678	73.9
366.889	14.51
367.1	96.43
367.311	6.31
367.522	-22.36
367.733	47.27
367.944	82.09
368.155	22.7
368.366	32.94
368.577	147.62
368.788	55.47
368.999	6.31
369.209	88.23
369.42	88.23
369.631	108.71
369.842	75.95
370.053	6.31
370.264	55.47
370.474	41.13
370.685	77.99
370.896	84.14
371.107	116.9
371.317	63.66
371.528	-8.02
371.739	73.9
371.95	57.51
372.16	96.43
372.371	67.75
372.582	63.66
372.792	92.33
373.003	94.38
373.214	53.42
373.424	82.09
373.635	49.32
373.846	53.42
374.056	75.95
374.267	108.71
374.477	49.32
374.688	-28.5
374.898	22.7
375.109	41.13
375.319	20.65
375.53	123.05
375.74	102.57
375.951	129.19
376.161	30.89
376.372	92.33
376.582	37.03
376.793	24.75
377.003	28.84
377.214	71.85
377.424	-14.17
377.635	30.89
377.845	-1.88
378.055	49.32
378.266	14.51
378.476	73.9
378.686	69.8
378.897	51.37
379.107	73.9
379.317	112.81
379.528	82.09
379.738	75.95
379.948	194.73
380.158	149.67
380.369	39.08
380.579	26.79
380.789	63.66
380.999	69.8
381.21	65.71
381.42	98.47
381.63	34.99
381.84	96.43
382.05	75.95
382.261	112.81
382.471	-5.97
382.681	73.9
382.891	65.71
383.101	102.57
383.311	32.94
383.521	88.23
383.731	43.18
383.941	22.7
384.151	32.94
384.361	-5.97
384.571	75.95
384.781	53.42
384.991	170.15
385.201	71.85
385.411	41.13
385.621	73.9
385.831	121
386.041	0.17
386.251	43.18
386.461	82.09
386.671	80.04
386.881	80.04
387.091	90.28
387.301	98.47
387.511	110.76
387.72	88.23
387.93	63.66
388.14	30.89
388.35	51.37
388.56	112.81
388.769	121
388.979	67.75
389.189	47.27
389.399	123.05
389.609	71.85
389.818	123.05
390.028	57.51
390.238	16.55
390.447	8.36
390.657	114.86
390.867	30.89
391.076	96.43
391.286	98.47
391.496	104.62
391.705	47.27
391.915	84.14
392.125	221.35
392.334	71.85
392.544	129.19
392.753	47.27
392.963	82.09
393.172	67.75
393.382	65.71
393.591	190.63
393.801	92.33
394.01	51.37
394.22	137.38
394.429	82.09
394.639	121
394.848	80.04
395.058	121
395.267	90.28
395.477	182.44
395.686	104.62
395.895	166.06
396.105	147.62
396.314	100.52
396.524	139.43
396.733	161.96
396.942	123.05
397.152	123.05
397.361	63.66
397.57	129.19
397.78	182.44
397.989	67.75
398.198	147.62
398.407	153.77
398.617	125.1
398.826	139.43
399.035	71.85
399.244	114.86
399.453	51.37
399.663	149.67
399.872	137.38
400.081	88.23
400.29	131.24
400.499	34.99
400.708	211.11
400.917	123.05
401.127	133.29
401.336	157.86
401.545	227.5
401.754	123.05
401.963	121
402.172	211.11
402.381	153.77
402.59	164.01
402.799	159.91
403.008	121
403.217	57.51
403.426	192.68
403.635	182.44
403.844	164.01
404.053	227.5
404.262	104.62
404.471	223.4
404.68	188.58
404.888	211.11
405.097	180.39
405.306	166.06
405.515	256.17
405.724	270.5
405.933	211.11
406.142	235.69
406.35	284.84
406.559	260.26
406.768	211.11
406.977	284.84
407.185	317.61
407.394	350.37
407.603	215.21
407.812	282.79
408.02	278.69
408.229	327.85
408.438	301.22
408.646	391.33
408.855	274.6
409.064	307.37
409.272	280.74
409.481	401.57
409.69	350.37
409.898	415.91
410.107	354.47
410.315	411.81
410.524	473.25
410.733	405.67
410.941	452.77
411.15	549.03
411.358	485.54
411.567	667.81
411.775	528.55
411.984	518.31
412.192	612.51
412.401	551.07
412.609	729.25
412.818	768.16
413.026	620.71
413.234	657.57
413.443	641.18
413.651	721.06
413.86	858.27
414.068	854.17
414.276	870.56
414.485	891.04
414.693	841.89
414.901	989.34
415.11	952.48
415.318	997.53
415.526	1003.68
415.734	1138.84
415.943	1179.8
416.151	1212.57
416.359	1130.65
416.567	1204.38
416.776	1261.72
416.984	1292.44
417.192	1431.7
417.4	1425.56
417.608	1333.4
417.817	1439.89
418.025	1519.76
418.233	1636.5
418.441	1581.2
418.649	1607.83
418.857	1792.14
419.065	1810.58
419.273	1908.88
419.481	2068.62
419.689	2021.52
419.897	2140.3
420.105	2128.01
420.313	2216.07
420.521	2222.22
420.729	2349.19
420.937	2418.82
421.145	2660.48
421.353	2582.66
421.561	2635.91
421.769	2750.59
421.977	2754.69
422.185	2818.18
422.393	3004.54
422.601	3233.91
422.809	3219.58
423.017	3131.51
423.224	3246.2
423.432	3559.54
423.64	3467.38
423.848	3973.23
424.056	3655.79
424.263	3997.81
424.471	3983.47
424.679	4089.96
424.887	4274.28
425.094	4376.68
425.302	4413.54
425.51	4634.72
425.718	4880.48
425.925	4810.85
426.133	5072.99
426.341	5199.96
426.548	5328.99
426.756	5496.92
426.964	5603.41
427.171	5797.97
427.379	6047.82
427.586	6285.39
427.794	6273.1
428.001	6520.9
428.209	6660.17
428.417	6883.39
428.624	7198.78
428.832	7247.93
429.039	7174.21
429.247	7166.01
429.454	7893.04
429.662	8470.57
429.869	8020.02
430.076	8380.46
430.284	8132.65
430.491	8560.68
430.699	8970.27
430.906	8972.32
431.114	9076.77
431.321	9566.23
431.528	9852.95
431.736	10106.9
431.943	10921.99
432.15	10567.69
432.358	10686.47
432.565	11249.66
432.772	11051.01
432.979	11634.68
433.187	11812.85
433.394	11988.98
433.601	12840.93
433.808	12644.33
434.016	12771.3
434.223	13250.53
434.43	13995.99
434.637	13780.95
434.844	14374.86
435.052	14909.38
435.259	14604.24
435.466	15151.04
435.673	14735.31
435.88	15589.31
436.087	16598.96
436.294	16768.94
436.501	16107.44
436.708	16345.01
436.915	17014.7
437.122	17766.3
437.329	17481.63
437.537	18151.32
437.743	18517.9
437.95	18368.4
438.157	19314.56
438.364	20014.97
438.571	19949.43
438.778	19863.42
438.985	22200.15
439.192	20907.88
439.399	21569.38
439.606	21423.97
439.813	22331.22
440.02	23656.26
440.227	23179.08
440.433	23082.83
440.64	23699.27
440.847	23703.36
441.054	24225.59
441.261	25868.06
441.467	25298.73
441.674	25798.43
441.881	26744.59
442.088	26564.37
442.294	26455.83
442.501	27221.77
442.708	27969.28
442.914	28493.56
443.121	30023.39
443.328	29265.64
443.534	31440.59
443.741	30199.52
443.948	29925.09
444.154	32224.96
444.361	32116.42
444.568	32317.12
444.774	32202.43
444.981	32894.64
445.187	33375.92
445.394	34881.17
445.6	34406.05
445.807	37629.55
446.013	35903.11
446.22	36384.38
446.426	38176.36
446.633	38516.32
446.839	39698
447.046	37842.54
447.252	40144.45
447.459	40220.23
447.665	39921.23
447.871	41659.95
448.078	43312.66
448.284	41281.08
448.491	42413.6
448.697	44140.04
448.903	44725.76
449.11	45207.03
449.316	44516.87
449.522	44574.21
449.728	46093.8
449.935	46521.83
450.141	46278.12
450.347	47766.99
450.553	45661.68
450.76	46714.34
450.966	48287.18
451.172	47496.66
451.378	48096.72
451.584	47826.38
451.791	48491.97
451.997	48627.14
452.203	49712.56
452.409	49241.53
452.615	49515.96
452.821	47039.96
453.027	47312.34
453.233	49268.15
453.44	47328.73
453.646	48244.17
453.852	48473.54
454.058	49319.35
454.264	47668.69
454.47	48416.2
454.676	47402.46
454.882	48942.53
455.088	44934.65
455.294	45125.11
455.5	45809.14
455.705	46986.72
455.911	44846.59
456.117	44156.42
456.323	43335.19
456.529	40920.63
456.735	42976.79
456.941	41754.16
457.147	41299.51
457.352	40111.69
457.558	39738.96
457.764	39855.69
457.97	39061.08
458.176	38202.98
458.381	38284.9
458.587	36425.34
458.793	36327.04
458.999	34336.41
459.204	37226.1
459.41	36253.31
459.616	33568.43
459.821	33918.63
460.027	33357.49
460.233	32810.68
460.438	31178.45
460.644	31663.82
460.85	29980.39
461.055	29794.02
461.261	29671.14
461.466	27725.57
461.672	26685.2
461.878	28684.02
462.083	26765.07
462.289	25945.89
462.494	26019.61
462.7	24704.82
462.905	23916.35
463.111	24962.86
463.316	25069.36
463.522	24629.04
463.727	24637.23
463.932	24385.33
464.138	24219.45
464.343	24254.26
464.549	23576.39
464.754	24428.34
464.959	24000.32
465.165	24004.41
465.37	23070.54
465.575	22593.36
465.781	23062.35
465.986	23482.18
466.191	22488.92
466.397	22202.2
466.602	20813.68
466.807	21571.43
467.012	21952.35
467.218	21753.69
467.423	21325.67
467.628	21434.21
467.833	22239.06
468.038	21655.39
468.244	21137.26
468.449	21751.65
468.654	21149.54
468.859	20936.56
469.064	20598.64
469.269	20031.35
469.474	20006.78
469.679	20651.89
469.885	19888
470.09	19953.53
470.295	20098.94
470.5	19494.79
470.705	19611.52
470.91	18921.35
471.115	19005.32
471.32	19363.72
471.525	19193.73
471.73	18698.13
471.935	18628.49
472.139	18186.13
472.344	18218.9
472.549	18014.1
472.754	17749.92
472.959	17444.77
473.164	17301.41
473.369	16748.46
473.574	17481.63
473.778	17246.12
473.983	17358.75
474.188	17076.13
474.393	16443.31
474.598	16398.26
474.802	16256.95
475.007	16224.18
475.212	16218.04
475.417	15433.66
475.621	15556.54
475.826	15753.15
476.031	15595.45
476.235	15163.33
476.44	15185.86
476.645	14919.62
476.849	15294.4
477.054	14968.77
477.259	14704.59
477.463	14544.84
477.668	14233.55
477.872	14368.72
478.077	14039
478.282	13828.06
478.486	13811.67
478.691	13641.69
478.895	13508.57
479.1	13443.04
479.304	13516.76
479.509	13047.78
479.713	13402.08
479.918	12992.48
480.122	12885.99
480.326	13203.43
480.531	13187.04
480.735	12941.29
480.94	12582.89
481.144	13123.55
481.348	12537.84
481.553	12658.67
481.757	12326.89
481.961	12552.17
482.166	12955.62
482.37	12787.69
482.574	12367.85
482.778	12644.33
482.983	12455.92
483.187	12576.75
483.391	12605.42
483.595	12482.54
483.8	12351.47
484.004	12421.1
484.208	12427.25
484.412	12595.18
484.616	12482.54
484.821	12474.35
485.025	12394.48
485.229	12593.13
485.433	12472.3
485.637	12605.42
485.841	12302.32
486.045	12220.4
486.249	12435.44
486.453	12410.86
486.657	12330.99
486.861	12433.39
487.065	12142.58
487.269	12445.68
487.473	12005.36
487.677	12543.98
487.881	12484.59
488.085	12478.44
488.289	12369.9
488.493	12374
488.697	12589.03
488.901	12427.25
489.105	12378.09
489.309	12486.64
489.512	12513.26
489.716	12384.24
489.92	12543.98
490.124	12382.19
490.328	12652.52
490.531	12474.35
490.735	12732.39
490.939	12552.17
491.143	12752.87
491.346	12642.28
491.55	13025.25
491.754	12896.23
491.958	12873.7
492.161	12974.05
492.365	13047.78
492.569	13062.12
492.772	13090.79
492.976	13424.61
493.18	13127.65
493.383	13199.33
493.587	13395.93
493.79	13582.3
493.994	13240.29
494.197	13488.09
494.401	13682.65
494.605	13596.64
494.808	13895.64
495.012	13973.46
495.215	14032.85
495.419	14147.54
495.622	13973.46
495.825	14219.22
496.029	14270.42
496.232	14610.38
496.436	14522.32
496.639	14868.42
496.843	14747.59
497.046	15081.41
497.249	15284.16
497.453	15261.63
497.656	15390.66
497.859	15402.94
498.063	15429.57
498.266	15857.59
498.469	15906.74
498.673	15990.71
498.876	16220.08
499.079	16465.84
499.282	16449.46
499.485	16811.95
499.689	16691.12
499.892	17043.37
500.095	17162.15
500.298	17485.73
500.501	17393.57
500.705	17627.04
500.908	18139.03
501.111	18175.89
501.314	18182.04
501.517	18476.94
501.72	18831.24
501.923	18567.06
502.126	18904.97
502.329	19302.28
502.532	19591.04
502.735	19701.63
502.938	20187
503.141	19900.28
503.344	20066.17
503.547	20383.6
503.75	20617.07
503.953	20832.11
504.156	20905.84
504.359	21317.48
504.562	21383.01
504.765	21886.81
504.968	22064.99
505.17	22341.46
505.373	22282.07
505.576	22861.65
505.779	22714.19
505.982	23107.4
506.185	23435.08
506.387	23670.59
506.59	23813.95
506.793	24133.43
506.996	23983.93
507.198	25038.64
507.401	24491.83
507.604	25075.5
507.807	25499.43
508.009	25650.98
508.212	25560.87
508.415	25712.42
508.617	26205.98
508.82	26429.21
509.022	26199.83
509.225	27039.5
509.428	27064.08
509.63	26976.02
509.833	27420.42
510.035	28098.3
510.238	28043.01
510.44	28409.59
510.643	28587.77
510.845	28862.19
511.048	28940.02
511.25	29265.64
511.453	29654.76
511.655	30707.41
511.858	29959.91
512.06	30508.76
512.262	30959.31
512.465	30641.88
512.667	31170.26
512.87	31469.26
513.072	31448.78
513.274	32175.81
513.477	32480.96
513.679	32794.29
513.881	32970.42
514.084	33169.07
514.286	33097.39
514.488	33693.35
514.69	34412.19
514.893	34313.89
515.095	34684.57
515.297	35131.03
515.499	35249.81
515.701	35223.19
515.904	35755.66
516.106	36355.71
516.308	36220.55
516.51	36738.68
516.712	36757.11
516.914	37371.5
517.116	37707.37
517.318	37727.85
517.52	37727.85
517.722	38024.81
517.925	39110.23
518.127	39149.14
518.329	39431.76
518.531	39001.69
518.733	40040.01
518.935	39863.88
519.136	40185.41
519.338	40672.83
519.54	40607.3
519.742	41340.47
519.944	41524.79
520.146	41856.56
520.348	41709.1
520.55	42307.11
520.752	42769.95
520.954	42929.69
521.155	42786.33
521.357	43658.77
521.559	43789.84
521.761	44207.62
521.963	44422.66
522.164	44705.28
522.366	44910.08
522.568	45049.34
522.77	45452.79
522.971	46108.14
523.173	45741.55
523.375	46241.26
523.576	46149.1
523.778	46218.73
523.98	47074.78
524.181	46972.38
524.383	46978.53
524.584	47830.48
524.786	47762.9
524.988	47156.7
525.189	47752.66
525.391	48098.76
525.592	48317.9
525.794	48483.78
525.995	48475.59
526.197	48555.46
526.398	48860.61
526.6	49042.88
526.801	49317.31
527.003	49778.1
527.204	49489.34
527.406	49556.92
527.607	49849.78
527.808	50865.57
528.01	49417.66
528.211	50120.11
528.412	50523.56
528.614	50269.61
528.815	50255.28
529.016	51164.57
529.218	50697.64
529.419	50572.71
529.62	50658.73
529.822	50662.82
530.023	50685.35
530.224	50961.83
530.425	50857.38
530.626	50498.98
530.828	50550.18
531.029	51731.86
531.23	50873.76
531.431	51242.4
531.632	51568.02
531.833	51070.37
532.035	51277.21
532.236	51764.63
532.437	51735.96
532.638	51381.66
532.839	51785.11
533.04	51608.98
533.241	51277.21
533.442	51989.91
533.643	51854.74
533.844	51408.28
534.045	52080.02
534.246	51348.89
534.447	51961.23
534.648	51494.3
534.849	51682.71
535.05	51473.82
535.251	51905.94
535.451	51762.58
535.652	51815.83
535.853	52080.02
536.054	52235.66
536.255	51858.84
536.456	51398.04
536.657	52258.19
536.857	51744.15
537.058	51350.94
537.259	51811.73
537.46	51873.17
537.66	51582.36
537.861	51965.33
538.062	51895.7
538.263	52112.78
538.463	51273.12
538.664	51637.65
538.865	51514.78
539.065	51551.64
539.266	51275.16
539.466	51957.14
539.667	50759.08
539.868	51793.3
540.068	51525.02
540.269	51443.1
540.469	51778.96
540.67	51154.33
540.87	51623.32
541.071	51166.62
541.271	51441.05
541.472	51158.43
541.672	51125.66
541.873	51176.86
542.073	50531.75
542.274	51496.34
542.474	51178.91
542.675	50527.66
542.875	51858.84
543.075	51568.02
543.276	50593.19
543.476	51498.39
543.676	50769.32
543.877	50996.64
544.077	51244.44
544.277	51152.29
544.478	50943.39
544.678	51088.8
544.878	50951.59
545.078	50900.39
545.279	50662.82
545.479	50761.12
545.679	51072.42
545.879	50816.42
546.079	50994.59
546.28	50640.29
546.48	50294.19
546.68	50625.96
546.88	50890.15
547.08	50978.21
547.28	50857.38
547.48	50343.34
547.68	50634.15
547.88	50396.59
548.081	50126.25
548.281	50679.21
548.481	50556.33
548.681	50677.16
548.881	50621.86
549.081	50398.63
549.28	50341.29
549.48	50541.99
549.68	50546.09
549.88	51094.94
550.08	50236.84
550.28	50507.18
550.48	50617.77
550.68	50580.9
550.88	50255.28
551.08	50236.84
551.279	50095.53
551.479	49767.86
551.679	50533.8
551.879	49991.09
552.079	50189.74
552.278	50347.43
552.478	50210.22
552.678	50421.16
552.878	50183.6
553.077	50236.84
553.277	49518.01
553.477	50218.41
553.676	49491.38
553.876	49663.41
554.076	49667.51
554.275	49270.2
554.475	48926.14
554.674	49423.8
554.874	49970.61
555.074	49434.04
555.273	49876.4
555.473	49862.07
555.672	49270.2
555.872	49532.34
556.071	49391.03
556.271	49692.08
556.47	49180.09
556.67	48922.05
556.869	48997.82
557.068	49284.54
557.268	49264.06
557.467	49163.71
557.667	49446.33
557.866	49077.69
558.065	49331.64
558.265	48948.67
558.464	48762.31
558.663	49046.97
558.863	48508.36
559.062	49296.83
559.261	48348.62
559.461	48754.11
559.66	48475.59
559.859	48217.55
560.058	48209.36
560.258	48702.92
560.457	48326.09
560.656	48686.53
560.855	48061.9
561.054	48332.23
561.253	47918.54
561.453	48309.71
561.652	48119.24
561.851	48840.13
562.05	47822.29
562.249	47453.65
562.448	48264.65
562.647	48016.85
562.846	47535.57
563.045	47508.95
563.244	47211.99
563.443	48162.25
563.642	47121.88
563.841	46869.98
564.04	46869.98
564.239	47252.95
564.438	46716.39
564.637	47287.77
564.836	47193.56
565.035	46851.55
565.234	47025.63
565.432	46804.45
565.631	46689.76
565.83	46802.4
566.029	46396.9
566.228	46427.62
566.427	46382.57
566.625	46388.71
566.824	45759.98
567.023	46171.63
567.222	45733.36
567.42	46147.05
567.619	46245.35
567.818	45716.98
568.016	45983.21
568.215	46058.99
568.414	45907.44
568.612	45907.44
568.811	45551.09
569.01	45702.64
569.208	45196.79
569.407	45684.21
569.605	45266.42
569.804	45481.46
570.002	45221.37
570.201	45329.91
570.4	44846.59
570.598	44785.15
570.797	44604.93
570.995	44445.19
571.193	44273.16
571.392	44678.66
571.59	44000.78
571.789	44314.12
571.987	44359.17
572.186	43904.52
572.384	44125.71
572.582	44246.54
572.781	44340.74
572.979	43206.17
573.177	43308.57
573.376	43916.81
573.574	43353.62
573.772	43726.35
573.971	43451.92
574.169	43124.25
574.367	42645.02
574.565	43384.34
574.763	42972.7
574.962	42591.78
575.16	42716.7
575.358	42823.2
575.556	42761.76
575.754	42610.21
575.952	42649.12
576.151	42522.15
576.349	41926.19
576.547	42122.79
576.745	41903.66
576.943	42257.96
577.141	41961
577.339	41840.17
577.537	41547.31
577.735	41772.59
577.933	41123.38
578.131	41313.84
578.329	41354.8
578.527	41029.18
578.725	41344.56
578.923	41166.39
579.121	40810.04
579.319	40873.53
579.516	40937.02
579.714	40627.77
579.912	40758.84
580.11	40715.84
580.308	40623.68
580.506	40775.23
580.704	40207.94
580.901	40236.61
581.099	40420.93
581.297	39894.6
581.495	39984.71
581.692	39986.76
581.89	39296.6
582.088	39704.14
582.285	39265.88
582.483	39458.38
582.681	39726.67
582.878	39370.32
583.076	39011.93
583.274	39335.51
583.471	38588
583.669	38995.54
583.866	38473.31
584.064	38973.02
584.262	38344.29
584.459	38375.01
584.657	38262.37
584.854	38774.36
585.052	37875.3
585.249	38116.97
585.447	38049.38
585.644	37842.54
585.841	37983.85
586.039	38293.09
586.236	37518.96
586.434	37590.64
586.631	37326.45
586.828	37684.84
587.026	37584.49
587.223	37160.56
587.42	36791.93
587.618	37187.19
587.815	36681.34
588.012	36644.48
588.21	36728.44
588.407	36888.18
588.604	36200.07
588.801	36249.22
588.999	36214.4
589.196	36046.47
589.393	36550.27
589.59	35970.69
589.787	36099.72
589.984	35798.66
590.182	35638.92
590.379	35702.41
590.576	35464.85
590.773	35638.92
590.97	35362.45
591.167	35491.47
591.364	35233.43
591.561	35266.19
591.758	34698.91
591.955	34625.18
592.152	35047.06
592.349	34442.91
592.546	34731.67
592.743	34580.12
592.94	34301.6
593.137	34322.08
593.334	34186.91
593.531	33894.05
593.727	33828.52
593.924	33863.33
594.121	33623.72
594.318	33961.64
594.515	33443.5
594.712	33834.66
594.908	33261.23
595.105	33818.28
595.302	33193.65
595.499	33138.35
595.696	33244.85
595.892	32941.75
596.089	33257.14
596.286	32904.88
596.482	32644.79
596.679	32429.76
596.876	33007.28
597.072	32241.34
597.269	32612.03
597.466	31932.1
597.662	32192.19
597.859	32136.9
598.055	31981.25
598.252	31868.61
598.448	31833.8
598.645	31477.45
598.841	31672.01
599.038	31520.46
599.234	31993.54
599.431	31110.86
599.627	31151.82
599.824	31125.2
600.02	31207.12
600.217	30891.73
600.413	30693.08
600.609	30738.13
600.806	30807.76
601.002	30488.28
601.198	30365.4
601.395	30402.27
601.591	30263
601.787	30484.19
601.984	29964
602.18	30344.92
602.376	30330.59
602.572	30125.79
602.769	30035.68
602.965	29816.55
603.161	29851.36
603.357	29800.16
603.553	29388.52
603.75	29607.65
603.946	29200.11
604.142	29329.13
604.338	28854
604.534	28942.07
604.73	28833.52
604.926	28927.73
605.122	29056.75
605.318	28712.69
605.514	28503.8
605.71	28671.73
605.906	28540.66
606.102	28329.72
606.298	28335.87
606.494	28339.96
606.69	28264.19
606.886	28409.59
607.082	28020.48
607.278	27856.64
607.474	27666.18
607.67	28163.84
607.866	27750.15
608.062	27870.98
608.257	27580.17
608.453	27799.3
608.649	27916.03
608.845	27356.94
609.041	27506.44
609.236	27582.21
609.432	27371.27
609.628	27266.83
609.824	27574.02
610.019	27074.32
610.215	26910.48
610.411	27094.8
610.606	26896.14
610.802	26926.86
610.998	27166.48
611.193	27107.09
611.389	26423.06
611.584	26971.92
611.78	26439.45
611.976	26738.45
612.171	26828.56
612.367	26644.24
612.562	26197.79
612.758	26418.97
612.953	26339.1
613.149	26595.09
613.344	26283.8
613.539	26619.67
613.735	26421.02
613.93	26277.66
614.126	25947.93
614.321	26447.64
614.517	26113.82
614.712	25906.98
614.907	26095.39
615.103	26341.14
615.298	26052.38
615.493	26005.28
615.688	25497.38
615.884	25943.84
616.079	25538.34
616.274	25704.23
616.47	25575.2
616.665	25605.92
616.86	25401.13
617.055	25417.51
617.25	25433.89
617.445	25437.99
617.641	24766.26
617.836	25407.27
618.031	24981.29
618.226	25077.55
618.421	24649.52
618.616	25175.85
618.811	24510.26
619.006	24641.33
619.201	23967.55
619.396	24538.93
619.591	24104.76
619.786	24555.32
619.981	23861.05
620.176	24211.26
620.371	24018.75
620.566	23801.66
620.761	23809.86
620.956	23852.86
621.151	23723.84
621.346	23639.87
621.541	22972.24
621.735	23473.99
621.93	22636.37
622.125	22974.28
622.32	22994.76
622.515	23050.06
622.709	22667.09
622.904	22617.94
623.099	22509.4
623.294	22480.72
623.488	22142.81
623.683	22142.81
623.878	21507.94
624.072	21960.54
624.267	22040.41
624.462	21806.94
624.656	21421.92
624.851	21600.1
625.046	21438.31
625.24	21335.91
625.435	21313.38
625.629	21196.65
625.824	21012.33
626.018	20866.92
626.213	20492.15
626.407	20635.5
626.602	20289.4
626.796	20594.54
626.991	20727.66
627.185	20389.75
627.38	20021.11
627.574	19965.82
627.768	20039.54
627.963	19523.46
628.157	19404.67
628.352	19343.24
628.546	19171.21
628.74	19523.46
628.935	18990.98
629.129	19285.89
629.323	18872.2
629.517	18890.63
629.712	18827.15
629.906	18864.01
630.1	18429.84
630.294	18491.28
630.489	18395.03
630.683	18601.87
630.877	18151.32
631.071	18012.06
631.265	18263.96
631.459	17809.31
631.653	17842.07
631.848	17719.2
632.042	17870.75
632.236	17622.94
632.43	17166.24
632.624	17319.84
632.818	17246.12
633.012	16938.92
633.206	17004.46
633.4	17209.25
633.594	17069.99
633.788	16857
633.982	16867.24
634.176	16701.36
634.369	16627.63
634.563	16582.57
634.757	16256.95
634.951	16283.57
635.145	16230.32
635.339	16119.73
635.533	15955.9
635.726	16037.81
635.92	15898.55
636.114	15800.25
636.308	15646.65
636.501	15851.45
636.695	15595.45
636.889	15538.11
637.083	15587.26
637.276	15372.22
637.47	15366.08
637.664	14991.3
637.857	14972.87
638.051	15075.27
638.244	15146.95
638.438	14903.24
638.632	14952.39
638.825	14587.85
639.019	14931.91
639.212	14632.91
639.406	14428.11
639.599	14469.07
639.793	14464.97
639.986	14278.61
640.18	14217.17
640.373	13971.41
640.567	14020.56
640.76	14163.92
640.954	13926.36
641.147	13952.98
641.34	13748.18
641.534	13508.57
641.727	13864.92
641.92	13619.16
642.114	13408.22
642.307	13545.44
642.5	13357.02
642.694	13404.13
642.887	13189.09
643.08	13361.12
643.273	13035.49
643.467	13058.02
643.66	12992.48
643.853	12929
644.046	12804.07
644.239	12580.84
644.432	12652.52
644.626	12580.84
644.819	12527.6
645.012	12613.61
645.205	12492.78
645.398	12412.91
645.591	12183.54
645.784	12300.27
645.977	12052.47
646.17	11915.25
646.363	11896.82
646.556	11866.1
646.749	12089.33
646.942	11960.31
647.135	11679.74
647.328	11716.6
647.521	11649.02
647.714	11677.69
647.907	11646.97
648.099	11401.21
648.292	11515.9
648.485	11266.05
648.678	11384.83
648.871	11024.39
649.064	11167.74
649.256	11239.42
649.449	11231.23
649.642	11173.89
649.835	10977.28
650.027	11122.69
650.22	10960.9
650.413	10622.98
650.605	10680.33
650.798	10575.88
650.991	10641.42
651.183	10518.54
651.376	10401.8
651.568	10618.89
651.761	10385.42
651.954	10420.24
652.146	10352.65
652.339	10246.16
652.531	10024.98
652.724	10264.59
652.916	10065.94
653.109	10057.75
653.301	9934.87
653.494	10067.99
653.686	9881.62
653.879	10041.36
654.071	9914.39
654.263	9629.72
654.456	9775.13
654.648	9664.54
654.84	9328.67
655.033	9443.35
655.225	9582.62
655.417	9508.89
655.61	9480.22
655.802	9426.97
655.994	9277.47
656.186	9377.82
656.379	9166.88
656.571	9238.56
656.763	9158.69
656.955	8964.13
657.148	9046.05
657.34	8831.01
657.532	8704.04
657.724	8837.16
657.916	8984.61
658.108	8886.31
658.3	8562.73
658.492	8656.93
658.684	8525.86
658.876	8525.86
659.068	8468.52
659.26	8497.19
659.452	8566.82
659.644	8454.19
659.836	8419.37
660.028	8364.08
660.22	8103.98
660.412	8099.89
660.604	8163.37
660.796	8069.17
660.988	8099.89
661.18	8120.37
661.372	8136.75
661.563	7983.15
661.755	7845.94
661.947	7921.71
662.139	7825.46
662.331	7872.56
662.522	7710.77
662.714	7796.79
662.906	7673.91
663.097	7551.03
663.289	7653.43
663.481	7530.55
663.673	7626.81
663.864	7591.99
664.056	7471.16
664.247	7413.82
664.439	7321.66
664.631	7374.91
664.822	7182.4
665.014	7401.53
665.205	7084.09
665.397	7268.41
665.588	7321.66
665.78	7235.64
665.971	7182.4
666.163	7149.63
666.354	7190.59
666.546	6989.89
666.737	6946.88
666.929	7057.47
667.12	7014.46
667.311	6930.5
667.503	6795.33
667.694	6785.09
667.885	6645.83
668.077	6828.1
668.268	6719.56
668.459	6711.36
668.651	6608.97
668.842	6699.08
669.033	6529.1
669.224	6631.49
669.416	6649.93
669.607	6490.18
669.798	6391.88
669.989	6477.9
670.18	6410.31
670.371	6506.57
670.563	6176.84
670.754	6420.55
670.945	6240.33
671.136	6303.82
671.327	6371.4
671.518	6291.53
671.709	6109.26
671.9	6271.05
672.091	6234.19
672.282	6015.05
672.473	5972.05
672.664	6242.38
672.855	6076.49
673.046	5959.76
673.237	6080.59
673.428	5920.85
673.619	5959.76
673.809	5935.18
674	6058.06
674.191	5814.35
674.382	5806.16
674.573	5888.08
674.764	5607.51
674.954	5802.07
675.145	5763.15
675.336	5722.2
675.527	5808.21
675.717	5683.28
675.908	5572.69
676.099	5763.15
676.289	5642.32
676.48	5568.6
676.671	5619.8
676.861	5550.17
677.052	5476.44
677.243	5396.57
677.433	5541.97
677.624	5560.41
677.814	5445.72
678.005	5427.29
678.195	5371.99
678.386	5511.25
678.576	5371.99
678.767	5328.99
678.957	5371.99
679.148	5308.51
679.338	5376.09
679.529	5501.01
679.719	5288.03
679.909	5415
680.1	5273.69
680.29	5351.51
680.481	5333.08
680.671	5269.59
680.861	5208.16
681.052	5048.41
681.242	5165.15
681.432	5236.83
681.622	5228.63
681.813	5066.85
682.003	5107.8
682.193	4935.78
682.383	5056.61
682.573	5040.22
682.764	5025.89
682.954	4948.06
683.144	5017.69
683.334	5003.36
683.524	5150.81
683.714	4812.9
683.904	4960.35
684.094	4784.23
684.284	4806.75
684.474	5013.6
684.664	4847.71
684.854	4831.33
685.044	4819.04
685.234	4583.52
685.424	4716.64
685.614	4671.59
685.804	4753.51
685.994	4798.56
686.184	4855.9
686.374	4599.91
686.564	4587.62
686.753	4628.58
686.943	4589.67
687.133	4458.6
687.323	4733.03
687.513	4626.53
687.702	4589.67
687.892	4565.09
688.082	4470.89
688.272	4474.98
688.461	4474.98
688.651	4485.22
688.841	4429.93
689.03	4261.99
689.22	4319.34
689.41	4407.4
689.599	4425.83
689.789	4360.3
689.979	4325.48
690.168	4442.21
690.358	4354.15
690.547	4249.71
690.737	4374.63
690.926	4305
691.116	3971.18
691.305	4253.8
691.495	4055.15
691.684	4231.27
691.874	4081.77
692.063	4092.01
692.252	4167.79
692.442	4112.49
692.631	4003.95
692.82	4081.77
693.01	4210.79
693.199	4077.68
693.388	3891.31
693.578	3942.51
693.767	3897.46
693.956	4010.09
694.146	3838.06
694.335	3907.7
694.524	3856.5
694.713	4020.33
694.902	3858.54
695.092	3780.72
695.281	3856.5
695.47	3770.48
695.659	3725.43
695.848	3885.17
696.037	3848.3
696.226	3893.36
696.415	3711.09
696.604	3803.25
696.793	3799.15
696.982	3719.28
697.171	3651.7
697.36	3750
697.549	3698.8
697.738	3688.56
697.927	3618.93
698.116	3848.3
698.305	3647.6
698.494	3629.17
698.683	3537.01
698.872	3635.32
699.061	3577.97
699.25	3580.02
699.438	3612.79
699.627	3629.17
699.816	3670.13
700.005	3594.36
700.193	3491.96
700.382	3543.16
700.571	3612.79
700.76	3614.84
700.948	3506.29
701.137	3504.25
701.326	3348.6
701.514	3358.84
701.703	3457.14
701.892	3412.09
702.08	3483.77
702.269	3383.42
702.457	3426.42
702.646	3410.04
702.834	3375.22
703.023	3262.58
703.212	3340.41
703.4	3268.73
703.589	3274.87
703.777	3319.93
703.965	3410.04
704.154	3297.4
704.342	3340.41
704.531	3319.93
704.719	3127.42
704.907	3367.03
705.096	3231.87
705.284	3192.95
705.472	3156.09
705.661	3235.96
705.849	3254.39
706.037	3180.67
706.226	3276.92
706.414	3287.16
706.602	3324.02
706.79	3299.45
706.979	3168.38
707.167	3340.41
707.355	3043.45
707.543	3098.75
707.731	3168.38
707.919	3045.5
708.107	3127.42
708.296	2988.16
708.484	3151.99
708.672	3160.19
708.86	3111.04
709.048	3108.99
709.236	3027.07
709.424	3127.42
709.612	3102.84
709.8	2906.24
709.988	3020.92
710.176	3104.89
710.364	2963.58
710.551	3022.97
710.739	3014.78
710.927	2992.25
711.115	2967.68
711.303	2963.58
711.491	3014.78
711.679	2971.77
711.866	2949.25
712.054	3047.55
712.242	2852.99
712.43	2830.46
712.617	2959.49
712.805	2758.78
712.993	2834.56
713.181	2859.14
713.368	2863.23
713.556	2910.33
713.744	2758.78
713.931	2977.92
714.119	2797.7
714.306	2943.1
714.494	2898.05
714.682	2873.47
714.869	2783.36
715.057	2766.98
715.244	2758.78
715.432	2744.45
715.619	2695.3
715.807	2752.64
715.994	2758.78
716.182	2689.15
716.369	2896
716.556	2873.47
716.744	2723.97
716.931	2760.83
717.119	2691.2
717.306	2746.5
717.493	2750.59
717.681	2738.3
717.868	2805.89
718.055	2693.25
718.242	2707.59
718.43	2685.06
718.617	2742.4
718.804	2726.02
718.991	2783.36
719.179	2717.83
719.366	2760.83
719.553	2603.14
719.74	2758.78
719.927	2697.35
720.114	2541.7
720.301	2574.47
720.488	2662.53
720.676	2521.22
720.863	2703.49
721.05	2728.07
721.237	2644.1
721.424	2660.48
721.611	2590.85
721.798	2379.91
721.985	2582.66
722.172	2570.37
722.358	2521.22
722.545	2568.32
722.732	2437.25
722.919	2619.52
723.106	2558.08
723.293	2521.22
723.48	2504.84
723.667	2427.01
723.853	2531.46
724.04	2500.74
724.227	2488.45
724.414	2611.33
724.6	2588.8
724.787	2504.84
724.974	2431.11
725.161	2500.74
725.347	2414.73
725.534	2506.88
725.72	2455.69
725.907	2429.06
726.094	2447.49
726.28	2463.88
726.467	2459.78
726.653	2521.22
726.84	2472.07
727.027	2410.63
727.213	2422.92
727.4	2316.42
727.586	2424.97
727.773	2535.56
727.959	2414.73
728.145	2467.97
728.332	2433.16
728.518	2476.16
728.705	2273.42
728.891	2345.09
729.077	2365.57
729.264	2478.21
729.45	2367.62
729.636	2439.3
729.823	2289.8
730.009	2412.68
730.195	2394.25
730.382	2326.66
730.568	2373.77
730.754	2455.69
730.94	2357.38
731.126	2312.33
731.313	2318.47
731.499	2336.9
731.685	2283.66
731.871	2367.62
732.057	2361.48
732.243	2377.86
732.429	2250.89
732.615	2365.57
732.801	2310.28
732.987	2267.27
733.173	2226.31
733.359	2218.12
733.545	2252.94
733.731	2246.79
733.917	2234.5
734.103	2308.23
734.289	2193.55
734.475	2197.64
734.661	2291.85
734.847	2230.41
735.033	2244.74
735.219	2164.87
735.404	2308.23
735.59	2289.8
735.776	2191.5
735.962	2246.79
736.148	2234.5
736.333	2259.08
736.519	2228.36
736.705	2234.5
736.89	2093.19
737.076	2119.82
737.262	2218.12
737.447	2044.04
737.633	2166.92
737.819	2222.22
738.004	2148.49
738.19	2254.98
738.375	2185.35
738.561	2250.89
738.747	2171.02
738.932	2209.93
739.118	2179.21
739.303	2064.52
739.489	2136.2
739.674	2105.48
739.859	2162.83
740.045	2097.29
740.23	2089.1
740.416	1937.55
740.601	2115.72
740.786	1955.98
740.972	1970.32
741.157	1980.56
741.342	2046.09
741.528	2017.42
741.713	2042
741.898	1925.26
742.084	1939.6
742.269	2007.18
742.454	1992.84
742.639	1964.17
742.824	1974.41
743.01	1958.03
743.195	1917.07
743.38	1847.44
743.565	1955.98
743.75	1869.97
743.935	1867.92
744.12	1818.77
744.305	1824.91
744.49	1874.06
744.675	1812.62
744.86	1919.12
745.045	1794.19
745.23	1941.65
745.415	1849.49
745.6	1867.92
745.785	1736.85
745.97	1781.9
746.155	1759.38
746.34	1722.51
746.525	1745.04
746.71	1745.04
746.895	1677.46
747.079	1632.4
747.264	1695.89
747.449	1761.42
747.634	1661.07
747.819	1734.8
748.003	1654.93
748.188	1616.02
748.373	1716.37
748.557	1714.32
748.742	1611.92
748.927	1710.22
749.111	1554.58
749.296	1599.63
749.481	1626.26
749.665	1611.92
749.85	1495.19
750.034	1595.54
750.219	1636.5
750.404	1550.48
750.588	1570.96
750.773	1570.96
750.957	1538.2
751.141	1482.9
751.326	1476.76
751.51	1472.66
751.695	1423.51
751.879	1540.24
752.064	1523.86
752.248	1437.84
752.432	1480.85
752.617	1427.6
752.801	1370.26
752.985	1493.14
753.17	1409.17
753.354	1446.04
753.538	1376.41
753.722	1308.82
753.907	1308.82
754.091	1294.49
754.275	1423.51
754.459	1357.97
754.643	1245.34
754.828	1179.8
755.012	1319.06
755.196	1339.54
755.38	1294.49
755.564	1269.91
755.748	1261.72
755.932	1169.56
756.116	1298.58
756.3	1302.68
756.484	1130.65
756.668	1249.43
756.852	1206.42
757.036	1155.23
757.22	1245.34
757.404	1104.03
757.588	1144.99
757.772	1198.23
757.956	1196.18
758.14	1136.79
758.323	1159.32
758.507	1210.52
758.691	1147.03
758.875	1196.18
759.059	1181.85
759.242	1104.03
759.426	1147.03
759.61	1169.56
759.794	1104.03
759.977	1136.79
760.161	1056.92
760.345	1022.11
760.528	1153.18
760.712	1169.56
760.895	1030.3
761.079	1116.31
761.263	991.39
761.446	1095.83
761.63	1046.68
761.813	1034.39
761.997	981.15
762.18	977.05
762.364	1038.49
762.547	938.14
762.731	964.76
762.914	942.24
763.098	999.58
763.281	962.72
763.464	970.91
763.648	966.81
763.831	870.56
764.015	866.46
764.198	932
764.381	915.61
764.564	903.32
764.748	864.41
764.931	1030.3
765.114	968.86
765.297	950.43
765.481	809.12
765.664	966.81
765.847	891.04
766.03	946.33
766.213	854.17
766.397	915.61
766.58	862.37
766.763	940.19
766.946	807.07
767.129	800.93
767.312	932
767.495	856.22
767.678	823.45
767.861	845.98
768.044	966.81
768.227	768.16
768.41	848.03
768.593	917.66
768.776	858.27
768.959	852.13
769.142	813.21
769.324	800.93
769.507	790.69
769.69	778.4
769.873	764.06
770.056	845.98
770.239	762.02
770.421	854.17
770.604	735.39
770.787	809.12
770.97	796.83
771.152	821.41
771.335	716.96
771.518	764.06
771.7	809.12
771.883	753.82
772.066	790.69
772.248	825.5
772.431	776.35
772.613	784.54
772.796	778.4
772.978	768.16
773.161	731.3
773.343	751.78
773.526	700.58
773.708	575.65
773.891	688.29
774.073	755.87
774.256	630.95
774.438	716.96
774.621	661.66
774.803	721.06
774.985	659.62
775.168	762.02
775.35	571.55
775.532	702.62
775.715	632.99
775.897	620.71
776.079	645.28
776.261	669.86
776.444	671.9
776.626	647.33
776.808	655.52
776.99	497.83
777.173	665.76
777.355	573.6
777.537	618.66
777.719	620.71
777.901	624.8
778.083	587.94
778.265	549.03
778.447	686.24
778.629	506.02
778.811	579.75
778.993	579.75
779.175	592.03
779.357	622.75
779.539	458.92
779.721	528.55
779.903	587.94
780.085	501.92
780.267	546.98
780.449	577.7
780.631	516.26
780.812	579.75
780.994	589.99
781.176	542.88
781.358	506.02
781.54	485.54
781.721	516.26
781.903	522.4
782.085	542.88
782.267	528.55
782.448	555.17
782.63	467.11
782.812	452.77
782.993	520.35
783.175	495.78
783.357	473.25
783.538	465.06
783.72	424.1
783.901	415.91
784.083	503.97
784.264	477.35
784.446	393.38
784.627	391.33
784.809	417.96
784.99	436.39
785.172	569.51
785.353	430.24
785.535	463.01
785.716	430.24
785.897	458.92
786.079	374.95
786.26	301.22
786.441	395.43
786.623	331.94
786.804	342.18
786.985	348.33
787.167	358.57
787.348	368.81
787.529	401.57
787.71	387.24
787.891	385.19
788.073	387.24
788.254	362.66
788.435	374.95
788.616	366.76
788.797	309.41
788.978	379.04
789.159	323.75
789.34	415.91
789.522	399.52
789.703	366.76
789.884	338.09
790.065	336.04
790.246	352.42
790.427	270.5
790.607	366.76
790.788	358.57
790.969	354.47
791.15	305.32
791.331	215.21
791.512	342.18
791.693	270.5
791.874	313.51
792.054	325.8
792.235	297.13
792.416	293.03
792.597	252.07
792.778	293.03
792.958	327.85
793.139	299.17
793.32	370.85
793.5	311.46
793.681	340.13
793.862	272.55
794.042	202.92
794.223	223.4
794.404	254.12
794.584	276.65
794.765	293.03
794.945	282.79
795.126	305.32
795.306	319.65
795.487	317.61
795.667	309.41
795.848	243.88
796.028	221.35
796.209	188.58
796.389	297.13
796.57	288.93
796.75	204.97
796.93	264.36
797.111	211.11
797.291	276.65
797.471	241.83
797.652	282.79
797.832	262.31
798.012	303.27
798.192	243.88
798.373	268.45
798.553	172.2
798.733	237.74
798.913	231.59
799.093	268.45
799.274	186.54
799.454	252.07
799.634	288.93
799.814	286.89
799.994	262.31
800.174	215.21
800.354	215.21
800.534	219.3
800.714	188.58
800.894	202.92
801.074	151.72
801.254	190.63
801.434	278.69
801.614	188.58
801.794	243.88
801.974	792.73
802.154	229.54
802.334	213.16
802.514	151.72
802.693	266.41
802.873	147.62
803.053	250.02
803.233	221.35
803.413	237.74
803.592	96.43
803.772	213.16
803.952	170.15
804.131	219.3
804.311	204.97
804.491	243.88
804.67	86.19
804.85	190.63
805.03	180.39
805.209	235.69
805.389	194.73
805.568	215.21
805.748	182.44
805.928	243.88
806.107	141.48
806.287	243.88
806.466	213.16
806.646	178.34
806.825	149.67
807.004	202.92
807.184	190.63
807.363	221.35
807.543	166.06
807.722	190.63
807.901	262.31
808.081	137.38
808.26	157.86
808.439	129.19
808.619	200.87
808.798	202.92
808.977	151.72
809.156	145.58
809.336	172.2
809.515	243.88
809.694	178.34
809.873	202.92
810.052	127.14
810.231	133.29
810.411	202.92
810.59	180.39
810.769	131.24
810.948	178.34
811.127	129.19
811.306	153.77
811.485	121
811.664	145.58
811.843	159.91
812.022	123.05
812.201	145.58
812.38	125.1
812.559	143.53
812.737	161.96
812.916	82.09
813.095	153.77
813.274	88.23
813.453	127.14
813.632	202.92
813.811	149.67
813.989	137.38
814.168	145.58
814.347	204.97
814.526	88.23
814.704	110.76
814.883	215.21
815.062	209.06
815.24	112.81
815.419	151.72
815.598	92.33
815.776	147.62
815.955	94.38
816.133	24.75
816.312	145.58
816.49	145.58
816.669	147.62
816.847	69.8
817.026	217.26
817.204	170.15
817.383	143.53
817.561	137.38
817.74	84.14
817.918	88.23
818.097	139.43
818.275	137.38
818.453	116.9
818.632	121
818.81	75.95
818.988	98.47
819.167	75.95
819.345	112.81
819.523	106.67
819.701	116.9
819.879	137.38
820.058	90.28
820.236	104.62
820.414	114.86
820.592	80.04
820.77	157.86
820.948	147.62
821.127	71.85
821.305	157.86
821.483	86.19
821.661	84.14
821.839	39.08
822.017	106.67
822.195	139.43
822.373	104.62
822.551	47.27
822.729	88.23
822.907	155.82
823.085	116.9
823.262	106.67
823.44	88.23
823.618	67.75
823.796	77.99
823.974	135.34
824.152	166.06
824.329	67.75
824.507	71.85
824.685	127.14
824.863	86.19
825.04	65.71
825.218	65.71
825.396	92.33
825.574	80.04
825.751	41.13
825.929	102.57
826.107	53.42
826.284	98.47
826.462	137.38
826.639	118.95
826.817	39.08
826.994	49.32
827.172	88.23
827.349	104.62
827.527	98.47
827.704	90.28
827.882	96.43
828.059	100.52
828.237	92.33
828.414	32.94
828.591	28.84
828.769	106.67
828.946	77.99
829.124	65.71
829.301	106.67
829.478	55.47
829.655	106.67
829.833	65.71
830.01	41.13
830.187	123.05
830.364	102.57
830.542	88.23
830.719	75.95
830.896	121
831.073	121
831.25	39.08
831.427	149.67
831.604	96.43
831.782	-26.45
831.959	73.9
832.136	143.53
832.313	104.62
832.49	96.43
832.667	73.9
832.844	100.52
833.021	127.14
833.198	137.38
833.374	116.9
833.551	30.89
833.728	172.2
833.905	0.17
834.082	22.7
834.259	82.09
834.436	82.09
834.612	47.27
834.789	84.14
834.966	30.89
835.143	43.18
835.319	6.31
835.496	145.58
835.673	121
835.85	96.43
836.026	88.23
836.203	71.85
836.38	6.31
836.556	55.47
836.733	20.65
836.909	104.62
837.086	80.04
837.262	10.41
837.439	47.27
837.616	-40.79
837.792	137.38
837.968	63.66
838.145	2.22
838.321	69.8
838.498	32.94
838.674	104.62
838.851	104.62
839.027	39.08
839.203	59.56
839.38	147.62
839.556	43.18
839.732	4.27
839.909	47.27
840.085	24.75
840.261	80.04
840.437	80.04
840.614	84.14
840.79	139.43
840.966	106.67
841.142	123.05
841.318	-34.64
841.494	51.37
841.671	39.08
841.847	-18.26
842.023	55.47
842.199	71.85
842.375	32.94
842.551	41.13
842.727	67.75
842.903	137.38
843.079	82.09
843.255	49.32
843.431	96.43
843.607	-1.88
843.783	30.89
843.959	100.52
844.134	65.71
844.31	96.43
844.486	51.37
844.662	24.75
844.838	65.71
845.013	47.27
845.189	112.81
845.365	-26.45
845.541	41.13
845.716	71.85
845.892	112.81
846.068	55.47
846.244	28.84
846.419	47.27
846.595	8.36
846.77	98.47
846.946	22.7
847.122	34.99
847.297	55.47
847.473	127.14
847.648	24.75
847.824	47.27
847.999	-44.88
848.175	71.85
848.35	34.99
848.526	82.09
848.701	18.6
848.876	116.9
849.052	22.7
849.227	41.13
849.403	39.08
849.578	84.14
849.753	51.37
849.929	10.41
850.104	-10.07
850.279	41.13
850.454	-5.97
850.63	51.37
850.805	16.55
850.98	8.36
851.155	100.52
851.33	47.27
851.505	49.32
851.681	88.23
851.856	32.94
852.031	125.1
852.206	51.37
852.381	106.67
852.556	82.09
852.731	22.7
852.906	51.37
853.081	82.09
853.256	71.85
853.431	-40.79
853.606	4.27
853.781	-57.17
853.956	63.66
854.131	8.36
854.305	-3.93
854.48	24.75
854.655	-34.64
854.83	16.55
855.005	71.85
855.18	94.38
855.354	14.51
855.529	41.13
855.704	43.18
855.879	49.32
856.053	10.41
856.228	80.04
856.403	10.41
856.577	18.6
856.752	-10.07
856.926	51.37
857.101	6.31
857.276	47.27
857.45	71.85
857.625	47.27
857.799	-26.45
857.974	12.46
858.148	-14.17
858.323	65.71
858.497	4.27
858.672	39.08
858.846	-48.98
859.02	39.08
859.195	24.75
859.369	32.94
859.543	32.94
859.718	84.14
859.892	-14.17
860.066	77.99
860.241	49.32
860.415	77.99
860.589	26.79
860.763	39.08
860.938	57.51
861.112	10.41
861.286	16.55
861.46	77.99
861.634	-34.64
861.808	34.99
861.982	16.55
862.157	8.36
862.331	16.55
862.505	0.17
862.679	-69.46
862.853	24.75
863.027	-28.5
863.201	73.9
863.375	102.57
863.549	24.75
863.722	16.55
863.896	39.08
864.07	-59.22
864.244	16.55
864.418	51.37
864.592	-102.23
864.766	30.89
864.939	24.75
865.113	-14.17
865.287	41.13
865.461	30.89
865.634	-38.74
865.808	-1.88
865.982	14.51
866.156	-1.88
866.329	-16.21
866.503	-22.36
866.676	18.6
866.85	12.46
867.024	43.18
867.197	20.65
867.371	4.27
867.544	82.09
867.718	6.31
867.891	55.47
868.065	8.36
868.238	32.94
868.412	84.14
868.585	22.7
868.759	-14.17
868.932	-5.97
869.105	-24.4
869.279	-8.02
869.452	-8.02
869.625	-8.02
869.799	32.94
869.972	43.18
870.145	2.22
870.319	-18.26
870.492	-10.07
870.665	8.36
870.838	-71.51
871.011	-8.02
871.185	22.7
871.358	-1.88
871.531	51.37
871.704	80.04
871.877	-18.26
872.05	18.6
872.223	-32.6
872.396	73.9
872.569	24.75
872.742	53.42
872.915	26.79
873.088	63.66
873.261	22.7
873.434	30.89
873.607	39.08
873.78	-34.64
873.953	-24.4
874.126	55.47
874.299	39.08
874.471	-40.79
874.644	16.55
874.817	28.84
874.99	41.13
875.163	-18.26
875.335	28.84
875.508	6.31
875.681	2.22
875.853	104.62
876.026	-46.93
876.199	6.31
876.371	14.51
876.544	59.56
876.717	47.27
876.889	8.36
877.062	47.27
877.234	-26.45
877.407	-28.5
877.579	75.95
877.752	-22.36
877.924	41.13
878.097	39.08
878.269	61.61
878.442	37.03
878.614	57.51
878.786	47.27
878.959	-38.74
879.131	10.41
879.303	-112.47
879.476	-26.45
879.648	24.75
879.82	-34.64
879.993	-14.17
880.165	24.75
880.337	-8.02
880.509	67.75
880.681	-57.17
880.854	-30.55
881.026	69.8
881.198	69.8
881.37	63.66
881.542	30.89
881.714	-38.74
881.886	6.31
882.058	-8.02
882.23	-46.93
882.402	73.9
882.574	-1.88
882.746	73.9
882.918	32.94
883.09	34.99
883.262	-46.93
883.434	80.04
883.606	-5.97
883.778	-1.88
883.95	61.61
884.122	34.99
884.293	2.22
884.465	-16.21
884.637	90.28
884.809	-10.07
884.98	-26.45
885.152	-32.6
885.324	41.13
885.496	-18.26
885.667	6.31
885.839	55.47
886.011	65.71
886.182	26.79
886.354	8.36
886.525	77.99
886.697	-24.4
886.869	-10.07
887.04	14.51
887.212	14.51
887.383	26.79
887.555	43.18
887.726	28.84
887.897	-5.97
888.069	-1.88
888.24	-26.45
888.412	-10.07
888.583	-3.93
888.754	-38.74
888.926	-18.26
889.097	14.51
889.268	-73.56
889.44	6.31
889.611	-38.74
889.782	-26.45
889.953	34.99
890.125	96.43
890.296	-59.22
890.467	43.18
890.638	-79.7
890.809	53.42
890.98	-42.84
891.151	82.09
891.323	39.08
891.494	8.36
891.665	-51.03
891.836	112.81
892.007	-67.41
892.178	24.75
892.349	-22.36
892.52	-20.31
892.691	-26.45
892.862	-10.07
893.032	-55.12
893.203	-46.93
893.374	49.32
893.545	-30.55
893.716	80.04
893.887	22.7
894.057	6.31
894.228	-24.4
894.399	-20.31
894.57	-16.21
894.74	18.6
894.911	51.37
895.082	14.51
895.253	12.46
895.423	71.85
895.594	-1.88
895.764	22.7
895.935	-87.89
896.106	-18.26
896.276	-40.79
896.447	-28.5
896.617	-18.26
896.788	-30.55
896.958	-57.17
897.129	-63.32
897.299	16.55
897.47	63.66
897.64	43.18
897.81	-63.32
897.981	59.56
898.151	-16.21
898.322	-30.55
898.492	39.08
898.662	-22.36
898.832	-57.17
899.003	-14.17
899.173	2.22
899.343	-48.98
899.513	10.41
