Data from USB4F104151__234__14-22-07-094.txt Node

Date: Thu Mar 13 14:22:07 EDT 2025
User: louis
Spectrometer: USB4F10415
Trigger mode: 4
Integration Time (sec): 2.000000E-2
Scans to average: 1
Electric dark correction enabled: true
Nonlinearity correction enabled: false
Boxcar width: 0
XAxis mode: Wavelengths
Number of Pixels in Spectrum: 3648
>>>>>Begin Spectral Data<<<<<
178.204	-141.31
178.424	-141.31
178.644	-141.31
178.864	-149.5
179.084	-151.55
179.304	-34.82
179.524	-53.25
179.744	51.2
179.964	45.06
180.184	-10.24
180.404	36.86
180.624	-57.34
180.844	2.05
181.064	36.86
181.283	8.19
181.503	-69.63
181.723	45.06
181.943	-18.43
182.163	55.3
182.383	-24.58
182.602	6.14
182.822	47.1
183.042	102.4
183.262	63.49
183.482	47.1
183.701	14.34
183.921	53.25
184.141	-16.38
184.361	-32.77
184.58	0
184.8	69.63
185.02	-28.67
185.239	28.67
185.459	-32.77
185.679	79.87
185.898	-16.38
186.118	55.3
186.338	-6.14
186.557	57.34
186.777	-12.29
186.997	20.48
187.216	-26.62
187.436	126.97
187.655	49.15
187.875	49.15
188.095	59.39
188.314	36.86
188.534	79.87
188.753	22.53
188.973	-30.72
189.192	73.73
189.412	65.53
189.631	45.06
189.851	59.39
190.07	30.72
190.29	45.06
190.509	-12.29
190.729	-2.05
190.948	-51.2
191.168	104.45
191.387	69.63
191.607	2.05
191.826	30.72
192.045	20.48
192.265	-24.58
192.484	40.96
192.704	-14.34
192.923	36.86
193.142	16.38
193.362	55.3
193.581	88.06
193.8	116.73
194.02	61.44
194.239	24.58
194.458	20.48
194.678	53.25
194.897	-2.05
195.116	30.72
195.335	104.45
195.555	47.1
195.774	102.4
195.993	34.82
196.212	-26.62
196.432	4.1
196.651	38.91
196.87	-10.24
197.089	53.25
197.308	28.67
197.528	69.63
197.747	-32.77
197.966	69.63
198.185	-18.43
198.404	-43.01
198.623	12.29
198.842	73.73
199.062	14.34
199.281	81.92
199.5	-77.82
199.719	71.68
199.938	-30.72
200.157	30.72
200.376	51.2
200.595	86.01
200.814	-59.39
201.033	14.34
201.252	135.17
201.471	22.53
201.69	112.64
201.909	47.1
202.128	102.4
202.347	-26.62
202.566	94.21
202.785	-20.48
203.004	-34.82
203.223	86.01
203.442	40.96
203.661	8.19
203.879	61.44
204.098	4.1
204.317	90.11
204.536	131.07
204.755	4.1
204.974	53.25
205.193	86.01
205.411	47.1
205.63	28.67
205.849	53.25
206.068	63.49
206.287	55.3
206.505	55.3
206.724	6.14
206.943	26.62
207.162	-4.1
207.381	30.72
207.599	6.14
207.818	65.53
208.037	-20.48
208.255	12.29
208.474	73.73
208.693	28.67
208.911	45.06
209.13	53.25
209.349	63.49
209.567	28.67
209.786	43.01
210.005	94.21
210.223	45.06
210.442	22.53
210.661	57.34
210.879	38.91
211.098	94.21
211.316	22.53
211.535	8.19
211.753	45.06
211.972	45.06
212.191	61.44
212.409	114.69
212.628	-8.19
212.846	38.91
213.065	34.82
213.283	57.34
213.502	108.54
213.72	51.2
213.938	-94.21
214.157	28.67
214.375	53.25
214.594	0
214.812	24.58
215.031	45.06
215.249	16.38
215.467	12.29
215.686	12.29
215.904	86.01
216.122	0
216.341	180.22
216.559	2.05
216.778	79.87
216.996	71.68
217.214	-4.1
217.432	73.73
217.651	28.67
217.869	79.87
218.087	28.67
218.306	69.63
218.524	45.06
218.742	36.86
218.96	30.72
219.179	53.25
219.397	6.14
219.615	16.38
219.833	-10.24
220.051	57.34
220.27	118.78
220.488	6.14
220.706	118.78
220.924	53.25
221.142	20.48
221.36	65.53
221.578	-28.67
221.796	12.29
222.015	20.48
222.233	26.62
222.451	153.6
222.669	63.49
222.887	-12.29
223.105	38.91
223.323	18.43
223.541	38.91
223.759	79.87
223.977	30.72
224.195	83.97
224.413	75.77
224.631	106.49
224.849	4.1
225.067	100.35
225.285	12.29
225.503	-4.1
225.721	4.1
225.939	69.63
226.157	53.25
226.375	55.3
226.592	-12.29
226.81	4.1
227.028	45.06
227.246	102.4
227.464	45.06
227.682	81.92
227.9	69.63
228.117	98.3
228.335	-8.19
228.553	-28.67
228.771	0
228.989	112.64
229.206	65.53
229.424	43.01
229.642	-14.34
229.86	6.14
230.077	57.34
230.295	24.58
230.513	67.58
230.731	49.15
230.948	137.21
231.166	77.82
231.384	40.96
231.601	12.29
231.819	98.3
232.037	20.48
232.254	-6.14
232.472	20.48
232.689	-18.43
232.907	-10.24
233.125	20.48
233.342	-2.05
233.56	-34.82
233.777	57.34
233.995	24.58
234.213	49.15
234.43	24.58
234.648	12.29
234.865	34.82
235.083	77.82
235.3	-20.48
235.518	67.58
235.735	120.83
235.953	-2.05
236.17	90.11
236.388	-8.19
236.605	69.63
236.822	69.63
237.04	22.53
237.257	-8.19
237.475	36.86
237.692	71.68
237.909	110.59
238.127	69.63
238.344	63.49
238.562	36.86
238.779	-47.1
238.996	61.44
239.214	24.58
239.431	26.62
239.648	38.91
239.865	104.45
240.083	137.21
240.3	65.53
240.517	6.14
240.735	47.1
240.952	-12.29
241.169	4.1
241.386	47.1
241.603	16.38
241.821	-2.05
242.038	53.25
242.255	8.19
242.472	24.58
242.689	55.3
242.907	16.38
243.124	94.21
243.341	-8.19
243.558	47.1
243.775	110.59
243.992	-49.15
244.209	45.06
244.426	59.39
244.643	57.34
244.86	61.44
245.078	30.72
245.295	61.44
245.512	53.25
245.729	12.29
245.946	36.86
246.163	57.34
246.38	43.01
246.597	24.58
246.814	8.19
247.031	-12.29
247.248	-53.25
247.464	65.53
247.681	36.86
247.898	83.97
248.115	102.4
248.332	65.53
248.549	131.07
248.766	67.58
248.983	106.49
249.2	104.45
249.417	88.06
249.633	53.25
249.85	129.02
250.067	81.92
250.284	49.15
250.501	36.86
250.717	104.45
250.934	-12.29
251.151	49.15
251.368	16.38
251.585	30.72
251.801	63.49
252.018	4.1
252.235	24.58
252.451	8.19
252.668	169.98
252.885	-32.77
253.102	61.44
253.318	45.06
253.535	10.24
253.752	20.48
253.968	77.82
254.185	-45.06
254.401	-14.34
254.618	-18.43
254.835	57.34
255.051	69.63
255.268	51.2
255.484	-10.24
255.701	49.15
255.917	73.73
256.134	106.49
256.351	75.77
256.567	36.86
256.784	4.1
257	61.44
257.217	104.45
257.433	79.87
257.65	45.06
257.866	83.97
258.082	12.29
258.299	2.05
258.515	65.53
258.732	36.86
258.948	45.06
259.165	-6.14
259.381	12.29
259.597	26.62
259.814	110.59
260.03	55.3
260.246	61.44
260.463	63.49
260.679	47.1
260.895	63.49
261.112	59.39
261.328	102.4
261.544	86.01
261.761	32.77
261.977	32.77
262.193	69.63
262.409	118.78
262.626	71.68
262.842	0
263.058	2.05
263.274	69.63
263.49	57.34
263.707	32.77
263.923	53.25
264.139	24.58
264.355	-28.67
264.571	-6.14
264.787	63.49
265.004	88.06
265.22	-2.05
265.436	47.1
265.652	6.14
265.868	38.91
266.084	57.34
266.3	55.3
266.516	-6.14
266.732	16.38
266.948	47.1
267.164	-4.1
267.38	43.01
267.596	24.58
267.812	118.78
268.028	69.63
268.244	63.49
268.46	0
268.676	34.82
268.892	26.62
269.108	40.96
269.324	-12.29
269.54	53.25
269.756	77.82
269.972	26.62
270.188	45.06
270.403	86.01
270.619	18.43
270.835	38.91
271.051	53.25
271.267	98.3
271.483	8.19
271.698	96.25
271.914	53.25
272.13	34.82
272.346	30.72
272.562	47.1
272.777	40.96
272.993	-2.05
273.209	53.25
273.425	67.58
273.64	-34.82
273.856	86.01
274.072	73.73
274.287	45.06
274.503	26.62
274.719	120.83
274.934	53.25
275.15	-10.24
275.366	36.86
275.581	59.39
275.797	86.01
276.012	0
276.228	57.34
276.444	-14.34
276.659	131.07
276.875	34.82
277.09	63.49
277.306	28.67
277.521	53.25
277.737	-14.34
277.952	86.01
278.168	77.82
278.383	100.35
278.599	59.39
278.814	163.84
279.03	-75.77
279.245	53.25
279.461	63.49
279.676	47.1
279.892	2.05
280.107	86.01
280.322	38.91
280.538	53.25
280.753	6.14
280.969	55.3
281.184	16.38
281.399	206.84
281.615	49.15
281.83	69.63
282.045	20.48
282.26	28.67
282.476	51.2
282.691	57.34
282.906	65.53
283.122	22.53
283.337	4.1
283.552	53.25
283.767	81.92
283.983	45.06
284.198	73.73
284.413	8.19
284.628	40.96
284.843	90.11
285.058	14.34
285.274	61.44
285.489	-24.58
285.704	106.49
285.919	59.39
286.134	71.68
286.349	69.63
286.564	94.21
286.779	104.45
286.995	4.1
287.21	36.86
287.425	20.48
287.64	77.82
287.855	102.4
288.07	30.72
288.285	57.34
288.5	90.11
288.715	38.91
288.93	30.72
289.145	79.87
289.36	102.4
289.575	59.39
289.79	94.21
290.004	90.11
290.219	59.39
290.434	49.15
290.649	18.43
290.864	53.25
291.079	32.77
291.294	51.2
291.509	20.48
291.724	77.82
291.938	67.58
292.153	-28.67
292.368	4.1
292.583	167.93
292.798	28.67
293.012	47.1
293.227	118.78
293.442	12.29
293.657	65.53
293.871	47.1
294.086	-45.06
294.301	100.35
294.516	135.17
294.73	47.1
294.945	102.4
295.16	38.91
295.374	94.21
295.589	12.29
295.804	57.34
296.018	59.39
296.233	32.77
296.447	36.86
296.662	-12.29
296.877	98.3
297.091	83.97
297.306	53.25
297.52	43.01
297.735	67.58
297.949	30.72
298.164	-4.1
298.378	118.78
298.593	90.11
298.807	45.06
299.022	32.77
299.236	-20.48
299.451	30.72
299.665	77.82
299.88	129.02
300.094	40.96
300.309	45.06
300.523	24.58
300.737	22.53
300.952	38.91
301.166	55.3
301.381	36.86
301.595	96.25
301.809	75.77
302.024	79.87
302.238	0
302.452	94.21
302.667	40.96
302.881	94.21
303.095	20.48
303.309	45.06
303.524	59.39
303.738	-28.67
303.952	20.48
304.166	90.11
304.381	18.43
304.595	90.11
304.809	12.29
305.023	-8.19
305.237	12.29
305.452	30.72
305.666	81.92
305.88	104.45
306.094	65.53
306.308	100.35
306.522	34.82
306.736	135.17
306.95	102.4
307.164	26.62
307.379	55.3
307.593	36.86
307.807	38.91
308.021	120.83
308.235	47.1
308.449	147.45
308.663	-38.91
308.877	77.82
309.091	28.67
309.305	102.4
309.519	-16.38
309.733	49.15
309.947	79.87
310.161	-8.19
310.374	67.58
310.588	102.4
310.802	-28.67
311.016	49.15
311.23	-55.3
311.444	20.48
311.658	104.45
311.872	-20.48
312.085	71.68
312.299	75.77
312.513	114.69
312.727	71.68
312.941	86.01
313.154	112.64
313.368	28.67
313.582	28.67
313.796	73.73
314.009	73.73
314.223	98.3
314.437	47.1
314.651	40.96
314.864	114.69
315.078	75.77
315.292	0
315.505	16.38
315.719	69.63
315.933	61.44
316.146	-69.63
316.36	63.49
316.573	28.67
316.787	59.39
317.001	40.96
317.214	30.72
317.428	-8.19
317.641	30.72
317.855	69.63
318.068	30.72
318.282	14.34
318.495	22.53
318.709	73.73
318.922	47.1
319.136	4.1
319.349	32.77
319.563	-51.2
319.776	-26.62
319.99	12.29
320.203	45.06
320.417	122.88
320.63	32.77
320.843	77.82
321.057	96.25
321.27	61.44
321.483	20.48
321.697	118.78
321.91	28.67
322.124	63.49
322.337	79.87
322.55	65.53
322.763	92.16
322.977	36.86
323.19	-8.19
323.403	88.06
323.617	-6.14
323.83	45.06
324.043	20.48
324.256	83.97
324.469	-28.67
324.683	49.15
324.896	-49.15
325.109	71.68
325.322	20.48
325.535	67.58
325.748	104.45
325.962	63.49
326.175	12.29
326.388	4.1
326.601	12.29
326.814	47.1
327.027	69.63
327.24	122.88
327.453	71.68
327.666	-28.67
327.879	22.53
328.092	20.48
328.305	36.86
328.518	118.78
328.731	12.29
328.944	38.91
329.157	69.63
329.37	73.73
329.583	110.59
329.796	63.49
330.009	16.38
330.222	77.82
330.435	77.82
330.648	57.34
330.861	61.44
331.073	104.45
331.286	120.83
331.499	14.34
331.712	-18.43
331.925	69.63
332.138	32.77
332.35	53.25
332.563	24.58
332.776	61.44
332.989	28.67
333.202	28.67
333.414	16.38
333.627	34.82
333.84	38.91
334.053	69.63
334.265	22.53
334.478	36.86
334.691	30.72
334.903	94.21
335.116	63.49
335.329	22.53
335.541	92.16
335.754	129.02
335.966	69.63
336.179	30.72
336.392	69.63
336.604	90.11
336.817	110.59
337.029	57.34
337.242	32.77
337.454	43.01
337.667	65.53
337.88	112.64
338.092	63.49
338.305	102.4
338.517	47.1
338.729	45.06
338.942	69.63
339.154	69.63
339.367	-45.06
339.579	61.44
339.792	-4.1
340.004	63.49
340.217	32.77
340.429	65.53
340.641	77.82
340.854	63.49
341.066	-20.48
341.278	155.65
341.491	75.77
341.703	36.86
341.915	98.3
342.128	63.49
342.34	18.43
342.552	28.67
342.764	20.48
342.977	45.06
343.189	110.59
343.401	69.63
343.613	16.38
343.826	102.4
344.038	14.34
344.25	110.59
344.462	59.39
344.674	24.58
344.886	67.58
345.099	102.4
345.311	65.53
345.523	79.87
345.735	45.06
345.947	57.34
346.159	94.21
346.371	45.06
346.583	86.01
346.795	104.45
347.007	69.63
347.219	112.64
347.431	55.3
347.643	81.92
347.855	63.49
348.067	61.44
348.279	-30.72
348.491	81.92
348.703	110.59
348.915	92.16
349.127	28.67
349.339	36.86
349.551	16.38
349.763	122.88
349.975	51.2
350.187	79.87
350.399	108.54
350.61	77.82
350.822	36.86
351.034	53.25
351.246	69.63
351.458	110.59
351.669	53.25
351.881	65.53
352.093	86.01
352.305	22.53
352.517	38.91
352.728	126.97
352.94	45.06
353.152	67.58
353.363	53.25
353.575	79.87
353.787	120.83
353.999	88.06
354.21	69.63
354.422	83.97
354.633	30.72
354.845	16.38
355.057	8.19
355.268	-2.05
355.48	30.72
355.692	45.06
355.903	77.82
356.115	110.59
356.326	112.64
356.538	77.82
356.749	81.92
356.961	61.44
357.172	71.68
357.384	20.48
357.595	126.97
357.807	49.15
358.018	63.49
358.23	112.64
358.441	65.53
358.653	98.3
358.864	26.62
359.075	28.67
359.287	28.67
359.498	129.02
359.709	86.01
359.921	6.14
360.132	-4.1
360.344	-10.24
360.555	96.25
360.766	49.15
360.977	47.1
361.189	49.15
361.4	8.19
361.611	110.59
361.823	8.19
362.034	40.96
362.245	22.53
362.456	75.77
362.667	45.06
362.879	45.06
363.09	102.4
363.301	106.49
363.512	34.82
363.723	34.82
363.935	43.01
364.146	90.11
364.357	94.21
364.568	81.92
364.779	49.15
364.99	112.64
365.201	75.77
365.412	47.1
365.623	-28.67
365.834	8.19
366.045	20.48
366.256	45.06
366.467	57.34
366.678	57.34
366.889	63.49
367.1	77.82
367.311	100.35
367.522	24.58
367.733	118.78
367.944	118.78
368.155	8.19
368.366	131.07
368.577	137.21
368.788	129.02
368.999	30.72
369.209	63.49
369.42	174.08
369.631	149.5
369.842	30.72
370.053	36.86
370.264	73.73
370.474	32.77
370.685	67.58
370.896	98.3
371.107	57.34
371.317	106.49
371.528	86.01
371.739	186.37
371.95	34.82
372.16	51.2
372.371	20.48
372.582	200.7
372.792	83.97
373.003	55.3
373.214	40.96
373.424	63.49
373.635	43.01
373.846	145.41
374.056	4.1
374.267	96.25
374.477	53.25
374.688	20.48
374.898	-96.25
375.109	86.01
375.319	32.77
375.53	69.63
375.74	159.74
375.951	77.82
376.161	69.63
376.372	36.86
376.582	-8.19
376.793	67.58
377.003	32.77
377.214	94.21
377.424	126.97
377.635	79.87
377.845	81.92
378.055	143.36
378.266	36.86
378.476	135.17
378.686	102.4
378.897	96.25
379.107	38.91
379.317	45.06
379.528	-26.62
379.738	69.63
379.948	88.06
380.158	106.49
380.369	22.53
380.579	61.44
380.789	88.06
380.999	129.02
381.21	79.87
381.42	81.92
381.63	112.64
381.84	86.01
382.05	28.67
382.261	53.25
382.471	14.34
382.681	-4.1
382.891	149.5
383.101	98.3
383.311	96.25
383.521	81.92
383.731	155.65
383.941	96.25
384.151	131.07
384.361	79.87
384.571	75.77
384.781	79.87
384.991	79.87
385.201	88.06
385.411	141.31
385.621	137.21
385.831	102.4
386.041	22.53
386.251	49.15
386.461	79.87
386.671	45.06
386.881	104.45
387.091	63.49
387.301	73.73
387.511	16.38
387.72	55.3
387.93	57.34
388.14	0
388.35	110.59
388.56	94.21
388.769	79.87
388.979	69.63
389.189	45.06
389.399	53.25
389.609	65.53
389.818	96.25
390.028	47.1
390.238	24.58
390.447	102.4
390.657	81.92
390.867	61.44
391.076	81.92
391.286	61.44
391.496	129.02
391.705	79.87
391.915	110.59
392.125	45.06
392.334	-38.91
392.544	116.73
392.753	90.11
392.963	28.67
393.172	79.87
393.382	36.86
393.591	108.54
393.801	114.69
394.01	28.67
394.22	141.31
394.429	133.12
394.639	10.24
394.848	137.21
395.058	120.83
395.267	90.11
395.477	104.45
395.686	106.49
395.895	131.07
396.105	192.51
396.314	77.82
396.524	161.79
396.733	40.96
396.942	133.12
397.152	192.51
397.361	192.51
397.57	126.97
397.78	63.49
397.989	163.84
398.198	143.36
398.407	131.07
398.617	116.73
398.826	153.6
399.035	106.49
399.244	69.63
399.453	124.93
399.663	180.22
399.872	233.47
400.081	131.07
400.29	217.08
400.499	135.17
400.708	163.84
400.917	161.79
401.127	45.06
401.336	155.65
401.545	186.37
401.754	143.36
401.963	141.31
402.172	155.65
402.381	65.53
402.59	114.69
402.799	204.8
403.008	221.18
403.217	94.21
403.426	104.45
403.635	184.32
403.844	206.84
404.053	196.61
404.262	151.55
404.471	225.28
404.68	212.99
404.888	143.36
405.097	264.19
405.306	159.74
405.515	256
405.724	208.89
405.933	208.89
406.142	286.72
406.35	229.37
406.559	253.95
406.768	192.51
406.977	262.14
407.185	315.39
407.394	276.48
407.603	274.43
407.812	339.96
408.02	280.57
408.229	278.52
408.438	421.88
408.646	274.43
408.855	335.87
409.064	202.75
409.272	276.48
409.481	282.62
409.69	348.15
409.898	409.59
410.107	495.61
410.315	428.03
410.524	479.22
410.733	430.07
410.941	460.79
411.15	497.66
411.358	493.56
411.567	505.85
411.775	522.23
411.984	464.89
412.192	536.57
412.401	489.46
412.609	634.87
412.818	612.34
413.026	598.01
413.234	651.25
413.443	667.64
413.651	626.68
413.86	741.36
414.068	753.65
414.276	761.84
414.485	765.94
414.693	886.77
414.901	915.44
415.11	808.95
415.318	847.86
415.526	923.63
415.734	929.78
415.943	1038.32
416.151	1095.66
416.359	1150.96
416.567	1060.85
416.776	1120.24
416.984	1167.34
417.192	1183.73
417.4	1220.59
417.608	1314.8
417.817	1222.64
418.025	1376.23
418.233	1495.02
418.441	1370.09
418.649	1548.26
418.857	1558.5
419.065	1662.95
419.273	1619.94
419.481	1699.81
419.689	1814.5
419.897	1834.98
420.105	1964
420.313	2074.59
420.521	1984.48
420.729	2174.94
420.937	2236.38
421.145	2297.82
421.353	2146.27
421.561	2369.5
421.769	2482.14
421.977	2510.81
422.185	2504.67
422.393	2766.81
422.601	2830.29
422.809	2854.87
423.017	2955.22
423.224	3141.58
423.432	3209.17
423.64	3284.94
423.848	3403.72
424.056	3293.13
424.263	3549.13
424.471	3542.99
424.679	3639.24
424.887	3825.61
425.094	3977.16
425.302	4005.83
425.51	4118.47
425.718	4210.62
425.925	4388.8
426.133	4267.97
426.341	4628.41
426.548	4812.73
426.756	4960.18
426.964	5056.43
427.171	5142.45
427.379	5341.1
427.586	5466.03
427.794	5650.35
428.001	5892.01
428.209	6115.23
428.417	5851.05
428.624	6490.01
428.832	6508.44
429.039	6385.57
429.247	6381.47
429.454	7151.51
429.662	7456.65
429.869	7186.32
430.076	7456.65
430.284	7475.09
430.491	7597.96
430.699	8103.81
430.906	8085.38
431.114	8220.55
431.321	8470.4
431.528	8611.71
431.736	9064.31
431.943	9383.79
432.15	9234.29
432.358	9346.93
432.565	9953.13
432.772	9717.61
432.979	10354.53
433.187	10540.9
433.394	10518.37
433.601	11415.38
433.808	11433.81
434.016	11384.66
434.223	11759.44
434.43	12527.42
434.637	12250.95
434.844	13080.38
435.052	13358.9
435.259	13182.77
435.466	13195.06
435.673	12914.49
435.88	13942.57
436.087	14839.58
436.294	14536.48
436.501	14464.8
436.708	14638.88
436.915	15363.86
437.122	16072.46
437.329	15757.07
437.537	16260.87
437.743	16551.68
437.95	16107.27
438.157	17227.51
438.364	17901.29
438.571	17932.01
438.778	17792.75
438.985	19441.37
439.192	18679.52
439.399	19322.59
439.606	18876.13
439.813	20119.24
440.02	21212.86
440.227	20893.38
440.433	20739.78
440.64	21317.31
440.847	21210.81
441.054	21597.88
441.261	23086.75
441.467	22933.15
441.674	23287.45
441.881	24231.57
442.088	23979.67
442.294	23635.61
442.501	24213.13
442.708	24979.07
442.914	25579.13
443.121	26922.6
443.328	25775.73
443.534	27997.78
443.741	27190.88
443.948	26793.58
444.154	28640.84
444.361	28563.02
444.568	29058.63
444.774	28733
444.981	28839.5
445.187	30166.58
445.394	31245.86
445.6	30807.59
445.807	33910.27
446.013	32581.13
446.22	32667.15
446.426	33877.5
446.633	34389.49
446.839	35577.31
447.046	34268.66
447.252	35839.45
447.459	36101.59
447.665	35898.84
447.871	37352.9
448.078	38772.14
448.284	37144.01
448.491	38161.85
448.697	39935.39
448.903	40410.52
449.11	40789.39
449.316	40029.6
449.522	40527.25
449.728	41649.54
449.935	41786.75
450.141	41610.63
450.347	42990.96
450.553	41309.58
450.76	42009.98
450.966	43191.66
451.172	42988.91
451.378	43912.55
451.584	43031.92
451.791	44279.13
451.997	43804
452.203	44660.05
452.409	44731.73
452.615	44402.01
452.821	43126.13
453.027	42564.98
453.233	44938.58
453.44	43113.84
453.646	43312.49
453.852	43955.55
454.058	44852.56
454.264	42927.47
454.47	44098.91
454.676	43316.59
454.882	44336.48
455.088	40813.97
455.294	41508.23
455.5	42220.92
455.705	42325.37
455.911	40639.89
456.117	40129.95
456.323	39601.57
456.529	37430.72
456.735	39142.83
456.941	38143.42
457.147	37864.89
457.352	36713.94
457.558	36011.48
457.764	36148.7
457.97	35784.16
458.176	34897.39
458.381	34731.5
458.587	33457.67
458.793	33359.36
458.999	31450.66
459.204	33605.12
459.41	32556.56
459.616	30821.93
459.821	30797.35
460.027	30686.76
460.233	30246.45
460.438	28931.65
460.644	28759.63
460.85	27612.76
461.055	27188.83
461.261	27405.92
461.466	25136.77
461.672	24317.58
461.878	25992.82
462.083	24391.31
462.289	24215.18
462.494	23795.35
462.7	22726.31
462.905	22169.26
463.111	22881.95
463.316	22894.24
463.522	22214.32
463.727	22406.83
463.932	22349.48
464.138	22228.65
464.343	22460.07
464.549	21538.49
464.754	22386.35
464.959	21978.8
465.165	21923.51
465.37	21067.45
465.575	20463.3
465.781	21231.29
465.986	21413.56
466.191	20561.61
466.397	20197.07
466.602	19422.94
466.807	20061.9
467.012	20022.99
467.218	19863.25
467.423	19699.41
467.628	19959.5
467.833	20690.63
468.038	19896.02
468.244	19183.32
468.449	20192.97
468.654	19467.99
468.859	19439.32
469.064	19308.25
469.269	18357.99
469.474	18783.97
469.679	19072.73
469.885	18437.86
470.09	18659.04
470.295	18409.19
470.5	17903.34
470.705	17995.5
470.91	17743.6
471.115	17590
471.32	17911.53
471.525	17714.93
471.73	17252.09
471.935	17264.38
472.139	16688.9
472.344	17090.3
472.549	16779.01
472.754	16535.3
472.959	16127.75
473.164	16019.21
473.369	15820.56
473.574	16428.81
473.778	15992.59
473.983	15992.59
474.188	15949.58
474.393	15261.46
474.598	15148.82
474.802	15398.68
475.007	14855.97
475.212	15195.93
475.417	14438.18
475.621	14583.59
475.826	14663.46
476.031	14229.29
476.235	13944.62
476.44	14329.64
476.645	13942.57
476.849	14151.46
477.054	13971.24
477.259	13637.42
477.463	13537.07
477.668	13389.62
477.872	13520.69
478.077	12982.07
478.282	12928.83
478.486	12977.98
478.691	12939.07
478.895	12844.86
479.1	12687.17
479.304	12633.92
479.509	12386.11
479.713	12691.26
479.918	12250.95
480.122	12009.29
480.326	12330.82
480.531	12300.1
480.735	12201.8
480.94	12070.73
481.144	12332.87
481.348	11765.58
481.553	11876.17
481.757	11749.2
481.961	11982.67
482.166	12056.39
482.37	11865.93
482.574	11650.89
482.778	11884.36
482.983	11761.48
483.187	11814.73
483.391	11775.82
483.595	11556.69
483.8	11657.04
484.004	11810.64
484.208	11648.85
484.412	11939.66
484.616	11935.56
484.821	11800.4
485.025	11644.75
485.229	11861.83
485.433	11958.09
485.637	11695.95
485.841	11796.3
486.045	11663.18
486.249	11710.29
486.453	11671.37
486.657	11851.6
486.861	11851.6
487.065	11358.03
487.269	11702.09
487.473	11556.69
487.677	11704.14
487.881	11767.63
488.085	11607.89
488.289	11841.36
488.493	11917.13
488.697	11845.45
488.901	11878.22
489.105	11644.75
489.309	11827.02
489.512	11913.03
489.716	11847.5
489.92	11685.71
490.124	11999.05
490.328	12103.5
490.531	11896.65
490.735	12097.35
490.939	12156.74
491.143	11892.55
491.346	11956.04
491.55	12201.8
491.754	12240.71
491.958	12341.06
492.161	12347.2
492.365	12449.6
492.569	12257.09
492.772	12406.59
492.976	12488.51
493.18	12513.09
493.383	12816.19
493.587	12742.46
493.79	12711.74
493.994	12570.43
494.197	12826.43
494.401	13020.99
494.605	12959.55
494.808	13268.79
495.012	13102.9
495.215	13115.19
495.419	13635.38
495.622	13123.38
495.825	13535.03
496.029	13514.55
496.232	13815.6
496.436	13670.19
496.639	14104.36
496.843	14389.03
497.046	14479.14
497.249	14376.74
497.453	14595.87
497.656	14645.02
497.859	14645.02
498.063	14841.63
498.266	15015.71
498.469	14935.84
498.673	15413.01
498.876	15376.15
499.079	15636.24
499.282	15654.67
499.485	16140.04
499.689	16074.51
499.892	16406.28
500.095	16275.21
500.298	16641.79
500.501	16553.73
500.705	17065.72
500.908	17104.63
501.111	17463.03
501.314	17569.52
501.517	17800.94
501.72	18034.41
501.923	17932.01
502.126	18120.43
502.329	18710.24
502.532	18626.28
502.735	18910.94
502.938	19209.95
503.141	19085.02
503.344	19328.73
503.547	19484.37
503.75	19754.71
503.953	20022.99
504.156	20115.15
504.359	20479.69
504.562	20485.83
504.765	21141.18
504.968	21212.86
505.17	21479.1
505.373	21782.2
505.576	21900.98
505.779	21900.98
505.982	22036.14
506.185	22707.88
506.387	22728.36
506.59	22972.07
506.793	23195.29
506.996	22951.59
507.198	24092.3
507.401	23981.71
507.604	24061.58
507.807	24460.94
508.009	24415.88
508.212	24628.87
508.415	25079.43
508.617	25374.33
508.82	25300.61
509.022	25370.24
509.225	25878.13
509.428	26119.79
509.63	26568.3
509.833	26625.64
510.035	27362.91
510.238	26971.75
510.44	27971.16
510.643	27647.58
510.845	28065.36
511.048	27682.39
511.25	28440.14
511.453	28567.12
511.655	29816.38
511.858	29238.85
512.06	29544
512.262	30055.99
512.465	29863.48
512.667	30529.07
512.87	30674.48
513.072	30692.91
513.274	31221.28
513.477	31381.03
513.679	31481.38
513.881	32179.73
514.084	32339.47
514.286	32677.39
514.488	32486.93
514.69	33480.19
514.893	33664.51
515.095	33822.2
515.297	33947.13
515.499	34035.19
515.701	34854.38
515.904	35063.27
516.106	34977.26
516.308	35220.97
516.51	35929.56
516.712	35810.78
516.914	36136.41
517.116	36986.32
517.318	36802
517.52	37019.08
517.722	37526.98
517.925	37957.05
518.127	38268.34
518.329	38397.37
518.531	38241.72
518.733	39083.44
518.935	39822.75
519.136	39361.96
519.338	39908.77
519.54	40095.13
519.742	40064.41
519.944	40799.63
520.146	41416.07
520.348	41391.5
520.55	41153.93
520.752	41923.97
520.954	42599.8
521.155	42331.51
521.357	42515.83
521.559	43275.63
521.761	43728.23
521.963	43560.3
522.164	43984.22
522.366	44146.01
522.568	44635.48
522.77	44590.42
522.971	45327.69
523.173	44975.44
523.375	45774.15
523.576	45133.14
523.778	45600.07
523.98	46300.48
524.181	46114.11
524.383	46030.15
524.584	46791.99
524.786	46689.59
524.988	47115.57
525.189	47457.58
525.391	47496.49
525.592	48092.45
525.794	48233.76
525.995	48323.87
526.197	48102.69
526.398	48309.53
526.6	48690.46
526.801	48665.88
527.003	49177.87
527.204	49186.07
527.406	49700.11
527.607	49341.71
527.808	49673.48
528.01	49386.77
528.211	49759.5
528.412	50545.92
528.614	49988.87
528.815	50420.99
529.016	50781.43
529.218	49972.49
529.419	50691.32
529.62	50380.03
529.822	50554.11
530.023	50550.01
530.224	50740.47
530.425	50838.78
530.626	50640.12
530.828	50531.58
531.029	51262.71
531.23	51100.92
531.431	51053.81
531.632	51657.96
531.833	51475.69
532.035	51559.66
532.236	51483.89
532.437	51526.89
532.638	51424.5
532.839	51561.71
533.04	51821.8
533.241	51066.1
533.442	52092.13
533.643	51805.42
533.844	51913.96
534.045	51942.63
534.246	51561.71
534.447	52233.44
534.648	51657.96
534.849	51879.14
535.05	51469.55
535.251	51772.65
535.451	51465.45
535.652	51795.18
535.853	51471.6
536.054	52221.16
536.255	51793.13
536.456	51297.52
536.657	52098.28
536.857	51668.2
537.058	51873
537.259	52051.17
537.46	52282.59
537.66	51756.27
537.861	51805.42
538.062	51418.35
538.263	51856.62
538.463	51731.69
538.664	51891.43
538.865	51821.8
539.065	52321.51
539.266	51322.1
539.466	52378.85
539.667	50863.35
539.868	52196.58
540.068	51617
540.269	51528.94
540.469	51969.25
540.67	51492.08
540.87	51688.68
541.071	51436.78
541.271	51940.58
541.472	51700.97
541.672	51170.55
541.873	51197.17
542.073	51102.96
542.274	51588.33
542.474	52004.07
542.675	51250.42
542.875	51987.69
543.075	51469.55
543.276	51379.44
543.476	52024.55
543.676	51412.21
543.877	51653.87
544.077	51633.39
544.277	51358.96
544.478	51426.54
544.678	51766.51
544.878	51170.55
545.078	51743.98
545.279	51397.87
545.479	51127.54
545.679	51764.46
545.879	51369.2
546.079	51256.56
546.28	51256.56
546.48	51113.2
546.68	51414.26
546.88	51641.58
547.08	51504.37
547.28	51246.32
547.48	50808.06
547.68	51668.2
547.88	51049.72
548.081	51092.72
548.281	50875.64
548.481	50810.1
548.681	51469.55
548.881	50935.03
549.081	51266.8
549.28	50570.49
549.48	51447.02
549.68	51119.35
549.88	51881.19
550.08	50900.22
550.28	51313.9
550.48	50758.91
550.68	51700.97
550.88	50740.47
551.08	51039.48
551.279	51051.76
551.479	50904.31
551.679	51084.53
551.879	50582.78
552.079	50836.73
552.278	50930.93
552.478	50840.82
552.678	50750.71
552.878	51463.41
553.077	50445.57
553.277	50433.28
553.477	51045.62
553.676	51029.24
553.876	50740.47
554.076	50457.85
554.275	50425.09
554.475	50316.54
554.674	50896.12
554.874	50711.8
555.074	50685.18
555.273	50480.38
555.473	50658.55
555.672	50083.08
555.872	50251.01
556.071	50586.88
556.271	50771.19
556.47	50337.02
556.67	50060.55
556.869	50238.72
557.068	50193.67
557.268	49816.84
557.467	50224.39
557.667	49634.57
557.866	50150.66
558.065	49761.54
558.265	49677.58
558.464	49820.94
558.663	50146.56
558.863	49669.39
559.062	50007.3
559.261	49331.47
559.461	49874.18
559.66	49073.43
559.859	49589.52
560.058	48882.97
560.258	49415.44
560.457	48674.07
560.656	49655.05
560.855	49323.28
561.054	49267.98
561.253	49143.06
561.453	49435.92
561.652	49018.13
561.851	49286.42
562.05	48708.89
562.249	48799
562.448	48731.42
562.647	48596.25
562.846	48973.08
563.045	48684.31
563.244	48436.51
563.443	48504.09
563.642	47813.93
563.841	48104.74
564.04	48106.79
564.239	48600.35
564.438	47834.41
564.637	48381.21
564.836	47838.5
565.035	47537.45
565.234	47883.56
565.432	47346.99
565.631	47406.38
565.83	47988
566.029	47545.64
566.228	47299.89
566.427	47072.56
566.625	46894.39
566.824	46746.93
567.023	47373.61
567.222	46409.02
567.42	47211.82
567.619	46849.33
567.818	46564.67
568.016	46742.84
568.215	46714.17
568.414	46378.3
568.612	46974.26
568.811	46097.73
569.01	46273.85
569.208	45614.41
569.407	46640.44
569.605	45548.87
569.804	46423.36
570.002	45645.13
570.201	45899.08
570.4	45845.83
570.598	45735.24
570.797	45503.82
570.995	45360.46
571.193	44928.34
571.392	45233.49
571.59	44852.56
571.789	45133.14
571.987	45190.48
572.186	44860.76
572.384	44565.85
572.582	44989.78
572.781	44696.92
572.979	44152.16
573.177	44774.74
573.376	44545.37
573.574	44141.92
573.772	44430.68
573.971	43906.4
574.169	44064.1
574.367	43713.89
574.565	43926.88
574.763	43693.41
574.962	43515.24
575.16	43216.24
575.358	43439.47
575.556	42984.82
575.754	43580.77
575.952	42798.45
576.151	43717.99
576.349	42646.9
576.547	42925.42
576.745	42870.13
576.943	42968.43
577.141	42235.26
577.339	42872.18
577.537	42417.53
577.735	42427.77
577.933	42325.37
578.131	42251.64
578.329	42323.32
578.527	42433.91
578.725	42102.14
578.923	42556.79
579.121	41553.29
579.319	41637.25
579.516	41598.34
579.714	41649.54
579.912	41424.26
580.11	41145.74
580.308	41637.25
580.506	41002.38
580.704	40672.66
580.901	40934.8
581.099	41223.56
581.297	40699.28
581.495	40711.57
581.692	40639.89
581.89	40641.94
582.088	40648.08
582.285	40433.05
582.483	40598.93
582.681	40334.74
582.878	40207.77
583.076	39714.21
583.274	40152.48
583.471	39462.31
583.669	39814.56
583.866	39169.45
584.064	39679.39
584.262	38913.45
584.459	39714.21
584.657	39097.77
584.854	39546.28
585.052	38407.61
585.249	38630.83
585.447	38962.61
585.644	38479.28
585.841	38602.16
586.039	38692.27
586.236	38180.28
586.434	38186.43
586.631	38401.46
586.828	38475.19
587.026	37686.72
587.223	37854.65
587.42	37760.45
587.618	37610.95
587.815	37742.02
588.012	37825.98
588.21	37178.82
588.407	37739.97
588.604	37107.15
588.801	37043.66
588.999	36969.93
589.196	37176.78
589.393	37305.8
589.59	36486.61
589.787	36697.55
589.984	36566.48
590.182	36294.1
590.379	36619.73
590.576	36179.42
590.773	36269.53
590.97	35823.07
591.167	36072.92
591.364	35911.13
591.561	36124.12
591.758	35370.47
591.955	35397.09
592.152	35839.45
592.349	35534.31
592.546	35505.63
592.743	35354.08
592.94	35116.52
593.137	35358.18
593.334	35333.6
593.531	34723.31
593.727	34713.07
593.924	34758.13
594.121	34395.64
594.318	34878.96
594.515	34256.37
594.712	34631.15
594.908	34235.89
595.105	34049.53
595.302	33990.14
595.499	34225.65
595.696	33820.16
595.892	33654.27
596.089	34094.58
596.286	33648.13
596.482	33351.17
596.679	33474.05
596.876	33482.24
597.072	32953.87
597.269	33213.96
597.466	32810.51
597.662	32857.61
597.859	32865.8
598.055	33060.36
598.252	32376.34
598.448	32613.9
598.645	32482.83
598.841	32161.3
599.038	32351.76
599.234	32402.96
599.431	31712.8
599.627	32122.39
599.824	32052.76
600.02	31833.63
600.217	31698.46
600.413	31651.36
600.609	31657.5
600.806	31200.8
601.002	31598.11
601.198	31297.06
601.395	31055.4
601.591	31141.41
601.787	31190.56
601.984	31131.17
602.18	30991.91
602.376	30748.2
602.572	30385.71
602.769	30422.58
602.965	30572.08
603.161	30422.58
603.357	30443.06
603.553	30043.7
603.75	30080.56
603.946	29693.5
604.142	30178.87
604.338	29419.07
604.534	29892.15
604.73	29392.45
604.926	29333.06
605.122	29967.93
605.318	29447.74
605.514	29318.72
605.71	29384.26
605.906	29107.78
606.102	29226.56
606.298	29126.21
606.494	29087.3
606.69	29070.92
606.886	28913.22
607.082	28857.93
607.278	29003.33
607.474	28182.1
607.67	28741.19
607.866	28190.29
608.062	28747.34
608.257	28282.45
608.453	28446.29
608.649	28243.54
608.845	28032.6
609.041	28329.55
609.236	28046.93
609.432	28034.64
609.628	28206.67
609.824	27856.47
610.019	27670.11
610.215	27577.95
610.411	27645.53
610.606	27743.83
610.802	27467.36
610.998	27473.5
611.193	27606.62
611.389	27616.86
611.584	27358.81
611.78	27154.02
611.976	27346.53
612.171	27596.38
612.367	27350.62
612.562	27219.55
612.758	26789.48
612.953	26570.35
613.149	27018.85
613.344	26973.8
613.539	27518.56
613.735	26531.44
613.93	26668.65
614.126	26488.43
614.321	26887.78
614.517	26521.2
614.712	26459.76
614.907	26474.09
615.103	26728.04
615.298	26285.68
615.493	26607.21
615.688	26324.59
615.884	26619.5
616.079	26062.45
616.274	26281.58
616.47	25919.09
616.665	26308.21
616.86	25915
617.055	25765.49
617.25	26093.17
617.445	25988.72
617.641	25202.3
617.836	25783.93
618.031	25513.59
618.226	25597.56
618.421	25599.61
618.616	25650.81
618.811	25423.48
619.006	25472.64
619.201	24915.59
619.396	25013.89
619.591	24592.01
619.786	25144.96
619.981	24606.34
620.176	24989.31
620.371	24675.98
620.566	24477.32
620.761	24366.73
620.956	24462.99
621.151	23631.51
621.346	24274.57
621.541	23697.05
621.735	24092.3
621.93	23688.85
622.125	23789.2
622.32	22933.15
622.515	23537.3
622.709	23320.22
622.904	23213.73
623.099	23023.26
623.294	23025.31
623.488	22728.36
623.683	22752.93
623.878	22605.48
624.072	22761.12
624.267	22761.12
624.462	22453.93
624.656	22146.73
624.851	22341.29
625.046	22005.42
625.24	21827.25
625.435	21614.26
625.629	21546.68
625.824	21464.76
626.018	21532.34
626.213	20862.66
626.407	21112.51
626.602	20829.89
626.796	20913.86
626.991	21020.35
627.185	20750.02
627.38	20614.85
627.574	20711.11
627.768	20405.96
627.963	20311.75
628.157	20012.75
628.352	20377.29
628.546	19982.03
628.74	20016.85
628.935	19746.51
629.129	19775.19
629.323	19248.86
629.517	19642.07
629.712	19484.37
629.906	19338.97
630.1	19044.06
630.294	19062.49
630.489	19107.55
630.683	19080.92
630.877	18921.18
631.071	18710.24
631.265	18773.73
631.459	18484.97
631.653	18603.75
631.848	18439.91
632.042	18218.73
632.236	18034.41
632.43	17725.17
632.624	17975.02
632.818	17702.64
633.012	17512.18
633.206	17665.78
633.4	17823.47
633.594	17086.2
633.788	17262.33
633.982	17448.69
634.176	17190.65
634.369	17198.84
634.563	17129.21
634.757	17022.72
634.951	16987.9
635.145	16832.26
635.339	16871.17
635.533	16611.07
635.726	16762.62
635.92	16455.43
636.114	16406.28
636.308	16324.36
636.501	16400.13
636.695	16355.08
636.889	16002.83
637.083	15996.68
637.276	15791.89
637.47	15806.22
637.664	15585.04
637.857	15798.03
638.051	15396.63
638.244	15552.27
638.438	15486.74
638.632	15126.3
638.825	15210.26
639.019	15093.53
639.212	15240.98
639.406	15140.63
639.599	14794.53
639.793	14866.21
639.986	14624.54
640.18	14839.58
640.373	14567.2
640.567	14556.96
640.76	14679.84
640.954	14364.45
641.147	14350.12
641.34	14102.31
641.534	14192.42
641.727	13948.72
641.92	14018.35
642.114	13872.94
642.307	14071.59
642.5	13932.33
642.694	13479.73
642.887	13510.45
643.08	13539.12
643.273	13711.15
643.467	13422.39
643.66	13389.62
643.853	13287.22
644.046	13193.01
644.239	13313.84
644.432	12980.03
644.626	13020.99
644.819	12887.87
645.012	12887.87
645.205	12732.22
645.398	12783.42
645.591	12652.35
645.784	12656.45
645.977	12320.58
646.17	12365.64
646.363	12418.88
646.556	12271.43
646.749	12365.64
646.942	12328.77
647.135	12111.69
647.328	12169.03
647.521	11953.99
647.714	12044.1
647.907	12152.65
648.099	11728.72
648.292	11876.17
648.485	11636.56
648.678	11618.13
648.871	11458.39
649.064	11540.3
649.256	11382.61
649.449	11605.84
649.642	11317.08
649.835	11272.02
650.027	11089.75
650.22	11269.97
650.413	11040.6
650.605	11097.94
650.798	10882.91
650.991	10772.32
651.183	10899.29
651.376	10981.21
651.568	10862.43
651.761	10735.45
651.954	10803.04
652.146	10549.09
652.339	10596.19
652.531	10532.7
652.724	10409.83
652.916	10334.05
653.109	10319.71
653.301	10157.92
653.494	10323.81
653.686	9951.08
653.879	10233.7
654.071	10159.97
654.263	10041.19
654.456	9973.61
654.648	10033
654.84	9768.81
655.033	9791.34
655.225	9734
655.417	9688.94
655.61	9699.18
655.802	9797.48
655.994	9416.56
656.186	9570.16
656.379	9434.99
656.571	9426.8
656.763	9303.92
656.955	9326.45
657.148	9131.89
657.34	9443.18
657.532	9156.47
657.724	9095.03
657.916	9140.08
658.108	8984.44
658.3	9021.3
658.492	9103.22
658.684	8896.38
658.876	8871.8
659.068	8830.84
659.26	8615.8
659.452	8836.99
659.644	8699.77
659.836	8667
660.028	8679.29
660.22	8484.73
660.412	8533.89
660.604	8343.42
660.796	8564.61
660.988	8466.3
661.18	8281.99
661.372	8279.94
661.563	8216.45
661.755	8226.69
661.947	8302.47
662.139	8378.24
662.331	7970.69
662.522	7946.12
662.714	7772.04
662.906	7944.07
663.097	7927.69
663.289	7778.19
663.481	7614.35
663.673	7833.48
663.864	7747.47
664.056	7542.67
664.247	7600.01
664.439	7649.16
664.631	7671.69
664.822	7757.71
665.014	7606.16
665.205	7559.05
665.397	7495.57
665.588	7499.66
665.78	7391.12
665.971	7364.5
666.163	7438.22
666.354	7442.32
666.546	7243.67
666.737	7190.42
666.929	7155.6
667.12	6983.57
667.311	7118.74
667.503	7032.72
667.694	7059.35
667.885	7096.21
668.077	6999.96
668.268	6872.98
668.459	7016.34
668.651	6829.98
668.842	6924.18
669.033	6698.91
669.224	6580.12
669.416	6770.58
669.607	6821.78
669.798	6576.03
669.989	6731.67
670.18	6608.8
670.371	6602.65
670.563	6569.88
670.754	6578.08
670.945	6664.09
671.136	6528.92
671.327	6508.44
671.518	6418.33
671.709	6543.26
671.9	6485.92
672.091	6377.37
672.282	6397.85
672.473	6348.7
672.664	6320.03
672.855	6234.02
673.046	6438.81
673.237	6285.22
673.428	6369.18
673.619	6234.02
673.809	6092.71
674	6168.48
674.191	5996.45
674.382	6104.99
674.573	6076.32
674.764	6123.43
674.954	6037.41
675.145	5855.14
675.336	5971.88
675.527	5824.42
675.717	5980.07
675.908	5775.27
676.099	5959.59
676.289	5881.77
676.48	5705.64
676.671	5738.41
676.861	5892.01
677.052	5789.61
677.243	5656.49
677.433	5789.61
677.624	5791.66
677.814	5586.86
678.005	5623.72
678.195	5853.09
678.386	5900.2
678.576	5550
678.767	5560.24
678.957	5625.77
679.148	5756.84
679.338	5500.84
679.529	5476.27
679.719	5609.39
679.909	5418.93
680.1	5582.76
680.29	5545.9
680.481	5449.64
680.671	5570.47
680.861	5443.5
681.052	5451.69
681.242	5500.84
681.432	5443.5
681.622	5291.95
681.813	5310.38
682.003	5353.39
682.193	5455.79
682.383	5248.94
682.573	5187.5
682.764	5234.61
682.954	5187.5
683.144	5337.01
683.334	5214.13
683.524	5318.57
683.714	5248.94
683.904	5246.9
684.094	5201.84
684.284	5263.28
684.474	5420.97
684.664	5255.09
684.854	5035.96
685.044	5199.79
685.234	5121.97
685.424	5085.11
685.614	4951.99
685.804	5121.97
685.994	5089.2
686.184	5001.14
686.374	5027.76
686.564	5015.48
686.753	4945.84
686.943	4919.22
687.133	4954.04
687.323	4954.04
687.513	5083.06
687.702	4888.5
687.892	4790.2
688.082	4759.48
688.272	4851.64
688.461	4655.03
688.651	4765.62
688.841	4648.89
689.03	4685.75
689.22	4550.59
689.41	4630.46
689.599	4542.39
689.789	4583.35
689.979	4591.55
690.168	4538.3
690.358	4546.49
690.547	4577.21
690.737	4431.8
690.926	4337.6
691.116	4446.14
691.305	4515.77
691.495	4460.48
691.684	4347.84
691.874	4380.61
692.063	4392.89
692.252	4257.73
692.442	4296.64
692.631	4247.49
692.82	4380.61
693.01	4337.6
693.199	4231.1
693.388	4095.94
693.578	4175.81
693.767	4165.57
693.956	4239.3
694.146	4087.75
694.335	4231.1
694.524	4188.1
694.713	4143.04
694.902	4034.5
695.092	3987.4
695.281	4128.7
695.47	4233.15
695.659	4073.41
695.848	4108.23
696.037	4128.7
696.226	4069.31
696.415	3897.28
696.604	4112.32
696.793	3977.16
696.982	3909.57
697.171	3899.33
697.36	3940.29
697.549	3846.09
697.738	3825.61
697.927	3780.55
698.116	3923.91
698.305	3833.8
698.494	3907.52
698.683	3776.45
698.872	3958.72
699.061	3856.33
699.25	3739.59
699.438	3878.85
699.627	3684.3
699.816	3825.61
700.005	3698.63
700.193	3833.8
700.382	3805.13
700.571	3833.8
700.76	3706.82
700.948	3641.29
701.137	3583.95
701.326	3723.21
701.514	3755.97
701.703	3780.55
701.892	3616.71
702.08	3665.86
702.269	3665.86
702.457	3729.35
702.646	3608.52
702.834	3596.23
703.023	3542.99
703.212	3585.99
703.4	3667.91
703.589	3506.12
703.777	3645.38
703.965	3551.18
704.154	3555.27
704.342	3598.28
704.531	3540.94
704.719	3446.73
704.907	3477.45
705.096	3516.36
705.284	3479.5
705.472	3440.59
705.661	3444.68
705.849	3518.41
706.037	3424.2
706.226	3389.39
706.414	3475.4
706.602	3395.53
706.79	3497.93
706.979	3434.44
707.167	3360.72
707.355	3338.19
707.543	3424.2
707.731	3454.92
707.919	3430.35
708.107	3395.53
708.296	3243.98
708.484	3241.93
708.672	3291.09
708.86	3276.75
709.048	3450.83
709.236	3209.17
709.424	3276.75
709.612	3289.04
709.8	3231.69
709.988	3297.23
710.176	3346.38
710.364	3207.12
710.551	3309.52
710.739	3248.08
710.927	3119.06
711.115	3188.69
711.303	3387.34
711.491	3143.63
711.679	3137.49
711.866	3110.86
712.054	3147.73
712.242	3217.36
712.43	3110.86
712.617	3108.82
712.805	3151.82
712.993	3018.71
713.181	3143.63
713.368	3108.82
713.556	3129.3
713.744	2975.7
713.931	3153.87
714.119	3088.34
714.306	3047.38
714.494	3100.62
714.682	3114.96
714.869	2998.23
715.057	3063.76
715.244	3002.32
715.432	2947.03
715.619	2951.12
715.807	3045.33
715.994	3055.57
716.182	3014.61
716.369	2930.64
716.556	3047.38
716.744	2926.55
716.931	2897.88
717.119	3086.29
717.306	3067.86
717.493	2969.55
717.681	2904.02
717.868	2879.44
718.055	3010.51
718.242	2871.25
718.43	2820.05
718.617	2944.98
718.804	2883.54
718.991	2906.07
719.179	2936.79
719.366	2965.46
719.553	2944.98
719.74	2824.15
719.927	2914.26
720.114	2793.43
720.301	2848.72
720.488	2934.74
720.676	2895.83
720.863	2824.15
721.05	2858.96
721.237	2760.66
721.424	2750.42
721.611	2842.58
721.798	2723.8
721.985	2695.13
722.172	2750.42
722.358	2775
722.545	2850.77
722.732	2734.04
722.919	2725.85
723.106	2693.08
723.293	2625.5
723.48	2766.81
723.667	2721.75
723.853	2799.57
724.04	2768.85
724.227	2705.37
724.414	2703.32
724.6	2598.87
724.787	2693.08
724.974	2691.03
725.161	2727.89
725.347	2600.92
725.534	2502.62
725.72	2568.15
725.907	2666.46
726.094	2641.88
726.28	2605.02
726.467	2568.15
726.653	2570.2
726.84	2590.68
727.027	2637.78
727.213	2617.3
727.4	2590.68
727.586	2502.62
727.773	2617.3
727.959	2570.2
728.145	2559.96
728.332	2600.92
728.518	2519
728.705	2621.4
728.891	2602.97
729.077	2584.54
729.264	2533.34
729.45	2564.06
729.636	2605.02
729.823	2445.27
730.009	2592.73
730.195	2506.71
730.382	2553.82
730.568	2519
730.754	2549.72
730.94	2428.89
731.126	2502.62
731.313	2535.39
731.499	2467.8
731.685	2545.63
731.871	2406.36
732.057	2367.45
732.243	2533.34
732.429	2377.69
732.615	2486.23
732.801	2265.05
732.987	2521.05
733.173	2592.73
733.359	2314.2
733.545	2480.09
733.731	2351.07
733.917	2385.88
734.103	2465.75
734.289	2336.73
734.475	2346.97
734.661	2322.4
734.847	2408.41
735.033	2471.9
735.219	2449.37
735.404	2355.16
735.59	2383.84
735.776	2273.25
735.962	2265.05
736.148	2342.88
736.333	2330.59
736.519	2289.63
736.705	2306.01
736.89	2299.87
737.076	2310.11
737.262	2226.14
737.447	2281.44
737.633	2244.57
737.819	2236.38
738.004	2412.51
738.19	2301.92
738.375	2240.48
738.561	2334.68
738.747	2283.49
738.932	2203.61
739.118	2166.75
739.303	2265.05
739.489	2248.67
739.674	2176.99
739.859	2150.37
740.045	2179.04
740.23	2285.53
740.416	2174.94
740.601	2154.46
740.786	2105.31
740.972	2084.83
741.157	2248.67
741.342	2127.84
741.528	2217.95
741.713	2068.45
741.898	2064.35
742.084	2062.3
742.269	1972.19
742.454	2220
742.639	2056.16
742.824	2109.41
743.01	2027.49
743.195	2236.38
743.38	2000.87
743.565	2029.54
743.75	2011.11
743.935	2000.87
744.12	2002.91
744.305	2023.39
744.49	1953.76
744.675	1990.63
744.86	1875.94
745.045	1929.19
745.23	1970.15
745.415	1920.99
745.6	1961.95
745.785	1839.08
745.97	1886.18
746.155	1841.12
746.34	1875.94
746.525	1798.12
746.71	1914.85
746.895	1845.22
747.079	1818.6
747.264	1728.49
747.449	1834.98
747.634	1789.92
747.819	1783.78
748.003	1738.73
748.188	1806.31
748.373	1845.22
748.557	1718.25
748.742	1695.72
748.927	1738.73
749.111	1703.91
749.296	1644.52
749.481	1724.39
749.665	1677.29
749.85	1742.82
750.034	1708.01
750.219	1683.43
750.404	1665
750.588	1593.32
750.773	1601.51
750.957	1560.55
751.141	1554.41
751.326	1503.21
751.51	1578.98
751.695	1495.02
751.879	1478.63
752.064	1578.98
752.248	1523.69
752.432	1478.63
752.617	1574.89
752.801	1488.87
752.985	1544.17
753.17	1570.79
753.354	1523.69
753.538	1372.14
753.722	1361.9
753.907	1409
754.091	1374.19
754.275	1368.04
754.459	1421.29
754.643	1482.73
754.828	1355.76
755.012	1464.3
755.196	1349.61
755.38	1282.03
755.564	1363.95
755.748	1261.55
755.932	1368.04
756.116	1376.23
756.3	1304.56
756.484	1339.37
756.668	1308.65
756.852	1177.58
757.036	1249.26
757.22	1218.54
757.404	1253.36
757.588	1234.93
757.772	1165.29
757.956	1290.22
758.14	1269.74
758.323	1142.77
758.507	1116.14
758.691	1126.38
758.875	1220.59
759.059	1142.77
759.242	1079.28
759.426	1241.07
759.61	1140.72
759.794	1189.87
759.977	1095.66
760.161	1196.01
760.345	1189.87
760.528	1177.58
760.712	1185.77
760.895	1171.44
761.079	1069.04
761.263	1085.42
761.446	1144.81
761.63	1021.94
761.813	1107.95
761.997	1062.9
762.18	985.07
762.364	1050.61
762.547	1026.03
762.731	1079.28
762.914	1071.09
763.098	997.36
763.281	1044.46
763.464	1003.5
763.648	954.35
763.831	897.01
764.015	983.03
764.198	1038.32
764.381	1042.42
764.564	1001.46
764.748	921.59
764.931	1034.22
765.114	1044.46
765.297	999.41
765.481	978.93
765.664	954.35
765.847	931.83
766.03	931.83
766.213	946.16
766.397	1028.08
766.58	983.03
766.763	907.25
766.946	927.73
767.129	940.02
767.312	921.59
767.495	849.91
767.678	849.91
767.861	874.48
768.044	1048.56
768.227	886.77
768.41	929.78
768.593	989.17
768.776	929.78
768.959	897.01
769.142	972.79
769.324	821.24
769.507	847.86
769.69	882.67
769.873	847.86
770.056	897.01
770.239	831.48
770.421	841.72
770.604	864.24
770.787	888.82
770.97	907.25
771.152	796.66
771.335	815.09
771.518	839.67
771.7	851.95
771.883	870.39
772.066	894.96
772.248	847.86
772.431	806.9
772.613	743.41
772.796	751.6
772.978	718.84
773.161	813.04
773.343	741.36
773.526	638.97
773.708	741.36
773.891	745.46
774.073	735.22
774.256	815.09
774.438	792.56
774.621	778.23
774.803	692.21
774.985	761.84
775.168	878.58
775.35	677.88
775.532	751.6
775.715	667.64
775.897	710.65
776.079	630.77
776.261	700.41
776.444	679.93
776.626	618.49
776.808	745.46
776.99	667.64
777.173	643.06
777.355	643.06
777.537	737.27
777.719	638.97
777.901	604.15
778.083	663.54
778.265	602.1
778.447	659.45
778.629	571.38
778.811	634.87
778.993	604.15
779.175	536.57
779.357	552.95
779.539	604.15
779.721	610.29
779.903	544.76
780.085	516.09
780.267	536.57
780.449	538.62
780.631	528.38
780.812	561.14
780.994	591.86
781.176	595.96
781.358	460.79
781.54	561.14
781.721	524.28
781.903	561.14
782.085	552.95
782.267	495.61
782.448	479.22
782.63	489.46
782.812	532.47
782.993	516.09
783.175	419.83
783.357	542.71
783.538	448.51
783.72	528.38
783.901	440.31
784.083	471.03
784.264	534.52
784.446	368.63
784.627	452.6
784.809	473.08
784.99	509.94
785.172	491.51
785.353	446.46
785.535	448.51
785.716	456.7
785.897	430.07
786.079	425.98
786.26	438.27
786.441	413.69
786.623	438.27
786.804	446.46
786.985	417.79
787.167	503.8
787.348	417.79
787.529	483.32
787.71	438.27
787.891	421.88
788.073	389.11
788.254	448.51
788.435	473.08
788.616	448.51
788.797	348.15
788.978	356.35
789.159	362.49
789.34	391.16
789.522	421.88
789.703	389.11
789.884	382.97
790.065	342.01
790.246	376.83
790.427	372.73
790.607	425.98
790.788	382.97
790.969	335.87
791.15	421.88
791.331	309.24
791.512	380.92
791.693	335.87
791.874	325.63
792.054	391.16
792.235	360.44
792.416	294.91
792.597	299
792.778	352.25
792.958	352.25
793.139	253.95
793.32	356.35
793.5	288.76
793.681	339.96
793.862	325.63
794.042	372.73
794.223	282.62
794.404	280.57
794.584	288.76
794.765	284.67
794.945	348.15
795.126	327.67
795.306	323.58
795.487	323.58
795.667	325.63
795.848	292.86
796.028	288.76
796.209	331.77
796.389	288.76
796.57	243.71
796.75	251.9
796.93	335.87
797.111	278.52
797.291	264.19
797.471	276.48
797.652	307.2
797.832	202.75
798.012	249.85
798.192	258.04
798.373	249.85
798.553	311.29
798.733	227.32
798.913	284.67
799.093	196.61
799.274	305.15
799.454	335.87
799.634	172.03
799.814	231.42
799.994	245.76
800.174	309.24
800.354	290.81
800.534	253.95
800.714	260.09
800.894	212.99
801.074	208.89
801.254	165.89
801.434	237.56
801.614	204.8
801.794	256
801.974	722.93
802.154	251.9
802.334	309.24
802.514	266.24
802.693	233.47
802.873	253.95
803.053	172.03
803.233	266.24
803.413	266.24
803.592	251.9
803.772	174.08
803.952	253.95
804.131	192.51
804.311	192.51
804.491	241.66
804.67	282.62
804.85	268.28
805.03	294.91
805.209	251.9
805.389	202.75
805.568	200.7
805.748	178.17
805.928	282.62
806.107	161.79
806.287	210.94
806.466	167.93
806.646	225.28
806.825	253.95
807.004	196.61
807.184	243.71
807.363	186.37
807.543	155.65
807.722	194.56
807.901	167.93
808.081	172.03
808.26	90.11
808.439	217.08
808.619	237.56
808.798	135.17
808.977	151.55
809.156	184.32
809.336	192.51
809.515	172.03
809.694	133.12
809.873	167.93
810.052	192.51
810.231	153.6
810.411	163.84
810.59	215.04
810.769	161.79
810.948	200.7
811.127	135.17
811.306	178.17
811.485	143.36
811.664	233.47
811.843	223.23
812.022	143.36
812.201	143.36
812.38	69.63
812.559	59.39
812.737	192.51
812.916	172.03
813.095	159.74
813.274	200.7
813.453	137.21
813.632	155.65
813.811	217.08
813.989	63.49
814.168	139.26
814.347	167.93
814.526	176.13
814.704	126.97
814.883	126.97
815.062	131.07
815.24	192.51
815.419	176.13
815.598	126.97
815.776	155.65
815.955	155.65
816.133	147.45
816.312	129.02
816.49	83.97
816.669	96.25
816.847	126.97
817.026	249.85
817.204	139.26
817.383	77.82
817.561	94.21
817.74	161.79
817.918	133.12
818.097	110.59
818.275	71.68
818.453	137.21
818.632	176.13
818.81	94.21
818.988	81.92
819.167	135.17
819.345	106.49
819.523	110.59
819.701	90.11
819.879	104.45
820.058	67.58
820.236	172.03
820.414	94.21
820.592	135.17
820.77	141.31
820.948	59.39
821.127	90.11
821.305	96.25
821.483	118.78
821.661	219.13
821.839	106.49
822.017	145.41
822.195	120.83
822.373	118.78
822.551	71.68
822.729	126.97
822.907	65.53
823.085	200.7
823.262	147.45
823.44	141.31
823.618	161.79
823.796	135.17
823.974	143.36
824.152	120.83
824.329	90.11
824.507	147.45
824.685	36.86
824.863	86.01
825.04	94.21
825.218	73.73
825.396	71.68
825.574	75.77
825.751	4.1
825.929	116.73
826.107	83.97
826.284	98.3
826.462	36.86
826.639	100.35
826.817	36.86
826.994	65.53
827.172	104.45
827.349	79.87
827.527	110.59
827.704	61.44
827.882	192.51
828.059	73.73
828.237	112.64
828.414	145.41
828.591	83.97
828.769	81.92
828.946	116.73
829.124	126.97
829.301	126.97
829.478	61.44
829.655	131.07
829.833	135.17
830.01	38.91
830.187	114.69
830.364	53.25
830.542	147.45
830.719	161.79
830.896	86.01
831.073	106.49
831.25	36.86
831.427	133.12
831.604	69.63
831.782	61.44
831.959	36.86
832.136	86.01
832.313	73.73
832.49	79.87
832.667	94.21
832.844	36.86
833.021	110.59
833.198	57.34
833.374	104.45
833.551	69.63
833.728	94.21
833.905	94.21
834.082	40.96
834.259	102.4
834.436	20.48
834.612	55.3
834.789	114.69
834.966	69.63
835.143	94.21
835.319	90.11
835.496	88.06
835.673	79.87
835.85	112.64
836.026	28.67
836.203	77.82
836.38	53.25
836.556	102.4
836.733	90.11
836.909	88.06
837.086	63.49
837.262	45.06
837.439	104.45
837.616	102.4
837.792	131.07
837.968	77.82
838.145	69.63
838.321	61.44
838.498	45.06
838.674	178.17
838.851	45.06
839.027	110.59
839.203	116.73
839.38	61.44
839.556	71.68
839.732	106.49
839.909	36.86
840.085	22.53
840.261	36.86
840.437	65.53
840.614	126.97
840.79	120.83
840.966	86.01
841.142	102.4
841.318	26.62
841.494	45.06
841.671	81.92
841.847	47.1
842.023	59.39
842.199	47.1
842.375	114.69
842.551	75.77
842.727	20.48
842.903	86.01
843.079	-40.96
843.255	65.53
843.431	47.1
843.607	53.25
843.783	53.25
843.959	36.86
844.134	51.2
844.31	61.44
844.486	75.77
844.662	79.87
844.838	172.03
845.013	47.1
845.189	24.58
845.365	4.1
845.541	63.49
845.716	38.91
845.892	143.36
846.068	-6.14
846.244	65.53
846.419	34.82
846.595	45.06
846.77	116.73
846.946	43.01
847.122	-32.77
847.297	-6.14
847.473	96.25
847.648	47.1
847.824	69.63
847.999	4.1
848.175	20.48
848.35	36.86
848.526	118.78
848.701	73.73
848.876	38.91
849.052	63.49
849.227	110.59
849.403	77.82
849.578	4.1
849.753	45.06
849.929	69.63
850.104	34.82
850.279	75.77
850.454	45.06
850.63	102.4
850.805	71.68
850.98	90.11
851.155	75.77
851.33	6.14
851.505	-16.38
851.681	32.77
851.856	24.58
852.031	94.21
852.206	40.96
852.381	69.63
852.556	81.92
852.731	129.02
852.906	63.49
853.081	45.06
853.256	120.83
853.431	53.25
853.606	57.34
853.781	16.38
853.956	-40.96
854.131	86.01
854.305	28.67
854.48	36.86
854.655	-20.48
854.83	67.58
855.005	45.06
855.18	112.64
855.354	77.82
855.529	61.44
855.704	8.19
855.879	79.87
856.053	45.06
856.228	28.67
856.403	47.1
856.577	79.87
856.752	-8.19
856.926	4.1
857.101	53.25
857.276	53.25
857.45	36.86
857.625	28.67
857.799	61.44
857.974	98.3
858.148	-8.19
858.323	88.06
858.497	36.86
858.672	20.48
858.846	8.19
859.02	69.63
859.195	-12.29
859.369	67.58
859.543	20.48
859.718	108.54
859.892	20.48
860.066	36.86
860.241	34.82
860.415	-59.39
860.589	6.14
860.763	110.59
860.938	28.67
861.112	28.67
861.286	6.14
861.46	53.25
861.634	65.53
861.808	124.93
861.982	55.3
862.157	-53.25
862.331	32.77
862.505	38.91
862.679	45.06
862.853	20.48
863.027	-51.2
863.201	69.63
863.375	-45.06
863.549	-32.77
863.722	6.14
863.896	69.63
864.07	-28.67
864.244	20.48
864.418	61.44
864.592	-28.67
864.766	0
864.939	4.1
865.113	86.01
865.287	139.26
865.461	-96.25
865.634	0
865.808	36.86
865.982	-26.62
866.156	47.1
866.329	0
866.503	6.14
866.676	77.82
866.85	40.96
867.024	45.06
867.197	65.53
867.371	79.87
867.544	-59.39
867.718	12.29
867.891	81.92
868.065	71.68
868.238	40.96
868.412	100.35
868.585	6.14
868.759	38.91
868.932	94.21
869.105	55.3
869.279	61.44
869.452	14.34
869.625	-43.01
869.799	38.91
869.972	-36.86
870.145	49.15
870.319	55.3
870.492	-16.38
870.665	53.25
870.838	28.67
871.011	-22.53
871.185	69.63
871.358	53.25
871.531	67.58
871.704	-4.1
871.877	118.78
872.05	24.58
872.223	8.19
872.396	12.29
872.569	143.36
872.742	30.72
872.915	145.41
873.088	28.67
873.261	47.1
873.434	38.91
873.607	73.73
873.78	24.58
873.953	28.67
874.126	12.29
874.299	57.34
874.471	28.67
874.644	-47.1
874.817	77.82
874.99	94.21
875.163	24.58
875.335	6.14
875.508	40.96
875.681	69.63
875.853	28.67
876.026	104.45
876.199	38.91
876.371	30.72
876.544	-28.67
876.717	8.19
876.889	14.34
877.062	-36.86
877.234	20.48
877.407	-8.19
877.579	36.86
877.752	49.15
877.924	36.86
878.097	86.01
878.269	-32.77
878.442	63.49
878.614	53.25
878.786	-4.1
878.959	34.82
879.131	4.1
879.303	-20.48
879.476	-2.05
879.648	8.19
879.82	47.1
879.993	-28.67
880.165	-20.48
880.337	20.48
880.509	-2.05
880.681	-2.05
880.854	61.44
881.026	34.82
881.198	0
881.37	14.34
881.542	53.25
881.714	-53.25
881.886	45.06
882.058	-18.43
882.23	-4.1
882.402	-20.48
882.574	6.14
882.746	40.96
882.918	-8.19
883.09	0
883.262	-8.19
883.434	-75.77
883.606	-73.73
883.778	-22.53
883.95	94.21
884.122	6.14
884.293	22.53
884.465	28.67
884.637	12.29
884.809	-34.82
884.98	-36.86
885.152	6.14
885.324	36.86
885.496	-53.25
885.667	-2.05
885.839	-30.72
886.011	69.63
886.182	-4.1
886.354	-43.01
886.525	51.2
886.697	98.3
886.869	-26.62
887.04	71.68
887.212	110.59
887.383	75.77
887.555	47.1
887.726	16.38
887.897	-59.39
888.069	12.29
888.24	49.15
888.412	30.72
888.583	-28.67
888.754	-26.62
888.926	4.1
889.097	-20.48
889.268	36.86
889.44	-8.19
889.611	-67.58
889.782	8.19
889.953	94.21
890.125	-49.15
890.296	26.62
890.467	22.53
890.638	28.67
890.809	45.06
890.98	77.82
891.151	88.06
891.323	49.15
891.494	-8.19
891.665	32.77
891.836	49.15
892.007	-8.19
892.178	47.1
892.349	-18.43
892.52	-20.48
892.691	18.43
892.862	-51.2
893.032	30.72
893.203	28.67
893.374	12.29
893.545	14.34
893.716	79.87
893.887	-14.34
894.057	20.48
894.228	-28.67
894.399	-20.48
894.57	69.63
894.74	12.29
894.911	57.34
895.082	-71.68
895.253	-53.25
895.423	24.58
895.594	30.72
895.764	-8.19
895.935	45.06
896.106	12.29
896.276	-2.05
896.447	-40.96
896.617	-2.05
896.788	8.19
896.958	24.58
897.129	30.72
897.299	-47.1
897.47	90.11
897.64	12.29
897.81	-40.96
897.981	-6.14
898.151	4.1
898.322	51.2
898.492	4.1
898.662	-69.63
898.832	20.48
899.003	-4.1
899.173	8.19
899.343	-28.67
899.513	10.24
