Data from USB4F104151__65__14-17-17-956.txt Node

Date: Thu Mar 13 14:17:17 EDT 2025
User: louis
Spectrometer: USB4F10415
Trigger mode: 4
Integration Time (sec): 2.000000E-2
Scans to average: 1
Electric dark correction enabled: true
Nonlinearity correction enabled: false
Boxcar width: 0
XAxis mode: Wavelengths
Number of Pixels in Spectrum: 3648
>>>>>Begin Spectral Data<<<<<
178.204	-147.8
178.424	-147.8
178.644	-147.8
178.864	-82.26
179.084	-102.74
179.304	-31.06
179.524	-33.11
179.744	-24.92
179.964	16.04
180.184	9.9
180.404	73.39
180.624	28.33
180.844	57
181.064	-47.44
181.283	11.95
181.503	-45.4
181.723	-14.68
181.943	-65.88
182.163	73.39
182.383	-0.34
182.602	59.05
182.822	34.47
183.042	34.47
183.262	-65.88
183.482	-16.73
183.701	40.62
183.921	-24.92
184.141	110.25
184.361	32.43
184.58	-39.25
184.8	57
185.02	85.67
185.239	-24.92
185.459	32.43
185.679	52.91
185.898	-47.44
186.118	18.09
186.338	-31.06
186.557	46.76
186.777	63.15
186.997	57
187.216	85.67
187.436	57
187.655	13.99
187.875	32.43
188.095	-39.25
188.314	134.82
188.534	42.67
188.753	-20.82
188.973	-41.3
189.192	57
189.412	67.24
189.631	42.67
189.851	-29.01
190.07	57
190.29	1.71
190.509	-16.73
190.729	81.58
190.948	36.52
191.168	116.39
191.387	81.58
191.607	22.19
191.826	-31.06
192.045	-4.44
192.265	32.43
192.484	-22.87
192.704	-14.68
192.923	-49.49
193.142	42.67
193.362	36.52
193.581	81.58
193.8	7.85
194.02	120.49
194.239	18.09
194.458	83.63
194.678	77.48
194.897	52.91
195.116	93.87
195.335	3.75
195.555	-10.58
195.774	-6.49
195.993	-8.53
196.212	11.95
196.432	79.53
196.651	-24.92
196.87	108.2
197.089	-0.34
197.308	57
197.528	-22.87
197.747	-47.44
197.966	75.43
198.185	89.77
198.404	24.23
198.623	81.58
198.842	11.95
199.062	46.76
199.281	34.47
199.5	28.33
199.719	42.67
199.938	52.91
200.157	48.81
200.376	69.29
200.595	65.19
200.814	67.24
201.033	65.19
201.252	-4.44
201.471	65.19
201.69	20.14
201.909	36.52
202.128	-0.34
202.347	128.68
202.566	50.86
202.785	-35.16
203.004	-0.34
203.223	46.76
203.442	48.81
203.661	-0.34
203.879	7.85
204.098	97.96
204.317	-61.78
204.536	46.76
204.755	67.24
204.974	57
205.193	9.9
205.411	7.85
205.63	-35.16
205.849	89.77
206.068	-39.25
206.287	-14.68
206.505	16.04
206.724	-6.49
206.943	42.67
207.162	7.85
207.381	40.62
207.599	20.14
207.818	9.9
208.037	26.28
208.255	40.62
208.474	34.47
208.693	-47.44
208.911	-16.73
209.13	73.39
209.349	91.82
209.567	57
209.786	79.53
210.005	57
210.223	54.95
210.442	-39.25
210.661	-20.82
210.879	34.47
211.098	57
211.316	26.28
211.535	69.29
211.753	7.85
211.972	50.86
212.191	7.85
212.409	3.75
212.628	48.81
212.846	18.09
213.065	75.43
213.283	50.86
213.502	-0.34
213.72	22.19
213.938	9.9
214.157	50.86
214.375	112.3
214.594	-8.53
214.812	34.47
215.031	50.86
215.249	48.81
215.467	75.43
215.686	63.15
215.904	65.19
216.122	-10.58
216.341	83.63
216.559	7.85
216.778	54.95
216.996	-6.49
217.214	42.67
217.432	-12.63
217.651	7.85
217.869	34.47
218.087	-24.92
218.306	73.39
218.524	9.9
218.742	-31.06
218.96	-12.63
219.179	9.9
219.397	-8.53
219.615	57
219.833	16.04
220.051	24.23
220.27	79.53
220.488	20.14
220.706	40.62
220.924	52.91
221.142	1.71
221.36	18.09
221.578	32.43
221.796	65.19
222.015	95.91
222.233	26.28
222.451	50.86
222.669	22.19
222.887	57
223.105	32.43
223.323	34.47
223.541	-72.02
223.759	77.48
223.977	-14.68
224.195	42.67
224.413	22.19
224.631	69.29
224.849	38.57
225.067	100.01
225.285	50.86
225.503	-24.92
225.721	-41.3
225.939	7.85
226.157	-6.49
226.375	104.11
226.592	26.28
226.81	11.95
227.028	87.72
227.246	81.58
227.464	-47.44
227.682	-0.34
227.9	112.3
228.117	-20.82
228.335	34.47
228.553	-26.96
228.771	3.75
228.989	100.01
229.206	100.01
229.424	9.9
229.642	18.09
229.86	-8.53
230.077	-0.34
230.295	34.47
230.513	1.71
230.731	-8.53
230.948	38.57
231.166	63.15
231.384	-2.39
231.601	1.71
231.819	61.1
232.037	-16.73
232.254	-67.92
232.472	61.1
232.689	18.09
232.907	30.38
233.125	61.1
233.342	77.48
233.56	16.04
233.777	-22.87
233.995	30.38
234.213	18.09
234.43	100.01
234.648	26.28
234.865	-6.49
235.083	63.15
235.3	77.48
235.518	34.47
235.735	50.86
235.953	40.62
236.17	32.43
236.388	-2.39
236.605	28.33
236.822	24.23
237.04	73.39
237.257	52.91
237.475	-55.64
237.692	13.99
237.909	-0.34
238.127	-31.06
238.344	48.81
238.562	32.43
238.779	13.99
238.996	28.33
239.214	42.67
239.431	46.76
239.648	75.43
239.865	-16.73
240.083	7.85
240.3	40.62
240.517	73.39
240.735	16.04
240.952	50.86
241.169	26.28
241.386	57
241.603	34.47
241.821	40.62
242.038	48.81
242.255	77.48
242.472	-8.53
242.689	54.95
242.907	75.43
243.124	7.85
243.341	83.63
243.558	48.81
243.775	-63.83
243.992	85.67
244.209	-43.35
244.426	83.63
244.643	-0.34
244.86	-61.78
245.078	3.75
245.295	59.05
245.512	67.24
245.729	-12.63
245.946	-0.34
246.163	5.8
246.38	32.43
246.597	16.04
246.814	9.9
247.031	-14.68
247.248	-4.44
247.464	28.33
247.681	65.19
247.898	-0.34
248.115	65.19
248.332	18.09
248.549	73.39
248.766	97.96
248.983	59.05
249.2	44.71
249.417	104.11
249.633	20.14
249.85	65.19
250.067	3.75
250.284	42.67
250.501	24.23
250.717	130.73
250.934	-4.44
251.151	30.38
251.368	61.1
251.585	32.43
251.801	26.28
252.018	85.67
252.235	38.57
252.451	20.14
252.668	-26.96
252.885	46.76
253.102	-24.92
253.318	11.95
253.535	-18.77
253.752	-22.87
253.968	16.04
254.185	-4.44
254.401	9.9
254.618	5.8
254.835	22.19
255.051	44.71
255.268	97.96
255.484	57
255.701	-10.58
255.917	32.43
256.134	-45.4
256.351	-4.44
256.567	-8.53
256.784	-24.92
257	-29.01
257.217	32.43
257.433	116.39
257.65	93.87
257.866	24.23
258.082	28.33
258.299	-41.3
258.515	79.53
258.732	54.95
258.948	-20.82
259.165	7.85
259.381	26.28
259.597	-8.53
259.814	1.71
260.03	42.67
260.246	34.47
260.463	81.58
260.679	16.04
260.895	61.1
261.112	26.28
261.328	18.09
261.544	-39.25
261.761	138.92
261.977	42.67
262.193	69.29
262.409	128.68
262.626	50.86
262.842	48.81
263.058	-24.92
263.274	71.34
263.49	34.47
263.707	128.68
263.923	52.91
264.139	24.23
264.355	26.28
264.571	22.19
264.787	30.38
265.004	7.85
265.22	18.09
265.436	57
265.652	16.04
265.868	-24.92
266.084	71.34
266.3	24.23
266.516	11.95
266.732	32.43
266.948	32.43
267.164	-0.34
267.38	89.77
267.596	54.95
267.812	97.96
268.028	32.43
268.244	79.53
268.46	18.09
268.676	9.9
268.892	28.33
269.108	-12.63
269.324	59.05
269.54	48.81
269.756	77.48
269.972	75.43
270.188	61.1
270.403	81.58
270.619	-35.16
270.835	50.86
271.051	48.81
271.267	3.75
271.483	-10.58
271.698	18.09
271.914	89.77
272.13	1.71
272.346	26.28
272.562	57
272.777	9.9
272.993	-0.34
273.209	57
273.425	32.43
273.64	7.85
273.856	34.47
274.072	69.29
274.287	1.71
274.503	-16.73
274.719	50.86
274.934	-18.77
275.15	-41.3
275.366	-20.82
275.581	73.39
275.797	-39.25
276.012	18.09
276.228	-31.06
276.444	13.99
276.659	32.43
276.875	-43.35
277.09	34.47
277.306	16.04
277.521	-31.06
277.737	67.24
277.952	134.82
278.168	-2.39
278.383	-8.53
278.599	13.99
278.814	42.67
279.03	9.9
279.245	69.29
279.461	69.29
279.676	-0.34
279.892	-16.73
280.107	40.62
280.322	16.04
280.538	89.77
280.753	-47.44
280.969	32.43
281.184	44.71
281.399	97.96
281.615	46.76
281.83	-26.96
282.045	-63.83
282.26	81.58
282.476	52.91
282.691	108.2
282.906	44.71
283.122	-8.53
283.337	7.85
283.552	3.75
283.767	-92.5
283.983	-26.96
284.198	9.9
284.413	24.23
284.628	26.28
284.843	83.63
285.058	122.54
285.274	-24.92
285.489	26.28
285.704	-6.49
285.919	-0.34
286.134	24.23
286.349	71.34
286.564	-6.49
286.779	104.11
286.995	-41.3
287.21	7.85
287.425	69.29
287.64	-0.34
287.855	-29.01
288.07	-18.77
288.285	20.14
288.5	16.04
288.715	65.19
288.93	11.95
289.145	52.91
289.36	65.19
289.575	9.9
289.79	38.57
290.004	-16.73
290.219	38.57
290.434	-14.68
290.649	32.43
290.864	-8.53
291.079	26.28
291.294	24.23
291.509	40.62
291.724	-22.87
291.938	-16.73
292.153	71.34
292.368	34.47
292.583	57
292.798	46.76
293.012	59.05
293.227	24.23
293.442	57
293.657	106.15
293.871	54.95
294.086	40.62
294.301	73.39
294.516	11.95
294.73	85.67
294.945	9.9
295.16	16.04
295.374	59.05
295.589	48.81
295.804	22.19
296.018	65.19
296.233	67.24
296.447	24.23
296.662	34.47
296.877	40.62
297.091	48.81
297.306	28.33
297.52	-14.68
297.735	-8.53
297.949	-6.49
298.164	95.91
298.378	-8.53
298.593	44.71
298.807	-4.44
299.022	44.71
299.236	85.67
299.451	-4.44
299.665	7.85
299.88	52.91
300.094	28.33
300.309	69.29
300.523	1.71
300.737	1.71
300.952	28.33
301.166	91.82
301.381	52.91
301.595	50.86
301.809	61.1
302.024	57
302.238	-14.68
302.452	59.05
302.667	7.85
302.881	157.35
303.095	48.81
303.309	112.3
303.524	34.47
303.738	-59.73
303.952	11.95
304.166	48.81
304.381	26.28
304.595	48.81
304.809	1.71
305.023	-53.59
305.237	-10.58
305.452	-16.73
305.666	63.15
305.88	57
306.094	87.72
306.308	9.9
306.522	20.14
306.736	1.71
306.95	-22.87
307.164	114.34
307.379	-14.68
307.593	91.82
307.807	102.06
308.021	20.14
308.235	114.34
308.449	1.71
308.663	71.34
308.877	42.67
309.091	52.91
309.305	32.43
309.519	-35.16
309.733	5.8
309.947	30.38
310.161	32.43
310.374	-12.63
310.588	73.39
310.802	5.8
311.016	93.87
311.23	65.19
311.444	7.85
311.658	-31.06
311.872	-6.49
312.085	65.19
312.299	67.24
312.513	81.58
312.727	69.29
312.941	-8.53
313.154	75.43
313.368	-16.73
313.582	75.43
313.796	-20.82
314.009	-29.01
314.223	57
314.437	91.82
314.651	-2.39
314.864	57
315.078	-22.87
315.292	48.81
315.505	9.9
315.719	22.19
315.933	83.63
316.146	57
316.36	1.71
316.573	65.19
316.787	57
317.001	22.19
317.214	-10.58
317.428	93.87
317.641	-16.73
317.855	83.63
318.068	38.57
318.282	42.67
318.495	50.86
318.709	95.91
318.922	-41.3
319.136	79.53
319.349	81.58
319.563	24.23
319.776	48.81
319.99	-49.49
320.203	26.28
320.417	1.71
320.63	91.82
320.843	40.62
321.057	-26.96
321.27	71.34
321.483	89.77
321.697	83.63
321.91	9.9
322.124	11.95
322.337	69.29
322.55	71.34
322.763	89.77
322.977	-33.11
323.19	30.38
323.403	-4.44
323.617	48.81
323.83	42.67
324.043	16.04
324.256	83.63
324.469	3.75
324.683	26.28
324.896	-12.63
325.109	81.58
325.322	11.95
325.535	-10.58
325.748	32.43
325.962	-33.11
326.175	57
326.388	48.81
326.601	61.1
326.814	67.24
327.027	-16.73
327.24	83.63
327.453	57
327.666	16.04
327.879	87.72
328.092	110.25
328.305	-8.53
328.518	34.47
328.731	-35.16
328.944	61.1
329.157	89.77
329.37	32.43
329.583	44.71
329.796	-4.44
330.009	-41.3
330.222	71.34
330.435	26.28
330.648	59.05
330.861	42.67
331.073	48.81
331.286	11.95
331.499	126.63
331.712	30.38
331.925	32.43
332.138	34.47
332.35	102.06
332.563	-31.06
332.776	40.62
332.989	-16.73
333.202	110.25
333.414	57
333.627	40.62
333.84	34.47
334.053	81.58
334.265	-72.02
334.478	69.29
334.691	18.09
334.903	91.82
335.116	26.28
335.329	16.04
335.541	81.58
335.754	67.24
335.966	63.15
336.179	59.05
336.392	13.99
336.604	106.15
336.817	44.71
337.029	108.2
337.242	13.99
337.454	5.8
337.667	-16.73
337.88	46.76
338.092	61.1
338.305	130.73
338.517	81.58
338.729	81.58
338.942	61.1
339.154	44.71
339.367	16.04
339.579	32.43
339.792	124.58
340.004	30.38
340.217	81.58
340.429	9.9
340.641	3.75
340.854	20.14
341.066	20.14
341.278	30.38
341.491	50.86
341.703	54.95
341.915	5.8
342.128	-8.53
342.34	108.2
342.552	-16.73
342.764	22.19
342.977	3.75
343.189	67.24
343.401	-4.44
343.613	42.67
343.826	28.33
344.038	-0.34
344.25	73.39
344.462	40.62
344.674	24.23
344.886	67.24
345.099	48.81
345.311	32.43
345.523	-47.44
345.735	65.19
345.947	-0.34
346.159	57
346.371	75.43
346.583	40.62
346.795	81.58
347.007	26.28
347.219	28.33
347.431	3.75
347.643	9.9
347.855	16.04
348.067	57
348.279	42.67
348.491	-61.78
348.703	52.91
348.915	91.82
349.127	16.04
349.339	-8.53
349.551	61.1
349.763	32.43
349.975	42.67
350.187	81.58
350.399	65.19
350.61	36.52
350.822	16.04
351.034	108.2
351.246	89.77
351.458	-41.3
351.669	65.19
351.881	143.02
352.093	100.01
352.305	59.05
352.517	95.91
352.728	57
352.94	42.67
353.152	57
353.363	-20.82
353.575	79.53
353.787	57
353.999	106.15
354.21	20.14
354.422	52.91
354.633	-26.96
354.845	77.48
355.057	61.1
355.268	67.24
355.48	100.01
355.692	73.39
355.903	81.58
356.115	61.1
356.326	20.14
356.538	71.34
356.749	7.85
356.961	26.28
357.172	1.71
357.384	24.23
357.595	61.1
357.807	7.85
358.018	-53.59
358.23	20.14
358.441	102.06
358.653	63.15
358.864	-29.01
359.075	13.99
359.287	11.95
359.498	48.81
359.709	22.19
359.921	16.04
360.132	75.43
360.344	16.04
360.555	38.57
360.766	-24.92
360.977	9.9
361.189	97.96
361.4	11.95
361.611	81.58
361.823	59.05
362.034	48.81
362.245	89.77
362.456	89.77
362.667	48.81
362.879	-10.58
363.09	-57.68
363.301	97.96
363.512	75.43
363.723	48.81
363.935	36.52
364.146	83.63
364.357	114.34
364.568	116.39
364.779	18.09
364.99	71.34
365.201	24.23
365.412	73.39
365.623	18.09
365.834	44.71
366.045	16.04
366.256	104.11
366.467	151.21
366.678	-0.34
366.889	50.86
367.1	65.19
367.311	81.58
367.522	83.63
367.733	32.43
367.944	26.28
368.155	-10.58
368.366	36.52
368.577	65.19
368.788	153.26
368.999	-31.06
369.209	32.43
369.42	44.71
369.631	75.43
369.842	24.23
370.053	36.52
370.264	61.1
370.474	-12.63
370.685	42.67
370.896	18.09
371.107	63.15
371.317	59.05
371.528	-2.39
371.739	110.25
371.95	157.35
372.16	48.81
372.371	-29.01
372.582	34.47
372.792	73.39
373.003	65.19
373.214	-2.39
373.424	65.19
373.635	24.23
373.846	83.63
374.056	5.8
374.267	1.71
374.477	52.91
374.688	73.39
374.898	40.62
375.109	81.58
375.319	46.76
375.53	59.05
375.74	73.39
375.951	20.14
376.161	97.96
376.372	106.15
376.582	16.04
376.793	67.24
377.003	93.87
377.214	3.75
377.424	3.75
377.635	24.23
377.845	5.8
378.055	69.29
378.266	48.81
378.476	77.48
378.686	67.24
378.897	63.15
379.107	-0.34
379.317	34.47
379.528	1.71
379.738	69.29
379.948	-43.35
380.158	95.91
380.369	1.71
380.579	46.76
380.789	-31.06
380.999	54.95
381.21	34.47
381.42	151.21
381.63	22.19
381.84	26.28
382.05	108.2
382.261	61.1
382.471	18.09
382.681	65.19
382.891	48.81
383.101	61.1
383.311	16.04
383.521	83.63
383.731	-24.92
383.941	114.34
384.151	40.62
384.361	91.82
384.571	13.99
384.781	48.81
384.991	61.1
385.201	83.63
385.411	89.77
385.621	32.43
385.831	24.23
386.041	48.81
386.251	83.63
386.461	44.71
386.671	44.71
386.881	102.06
387.091	57
387.301	81.58
387.511	34.47
387.72	36.52
387.93	7.85
388.14	18.09
388.35	79.53
388.56	79.53
388.769	89.77
388.979	89.77
389.189	16.04
389.399	40.62
389.609	28.33
389.818	54.95
390.028	89.77
390.238	153.26
390.447	-0.34
390.657	67.24
390.867	-12.63
391.076	11.95
391.286	106.15
391.496	118.44
391.705	108.2
391.915	77.48
392.125	93.87
392.334	63.15
392.544	44.71
392.753	48.81
392.963	57
393.172	93.87
393.382	95.91
393.591	89.77
393.801	110.25
394.01	97.96
394.22	77.48
394.429	122.54
394.639	20.14
394.848	122.54
395.058	83.63
395.267	54.95
395.477	102.06
395.686	79.53
395.895	128.68
396.105	59.05
396.314	61.1
396.524	93.87
396.733	81.58
396.942	130.73
397.152	24.23
397.361	140.97
397.57	7.85
397.78	102.06
397.989	108.2
398.198	112.3
398.407	198.31
398.617	59.05
398.826	73.39
399.035	108.2
399.244	136.87
399.453	89.77
399.663	61.1
399.872	155.3
400.081	48.81
400.29	198.31
400.499	118.44
400.708	114.34
400.917	91.82
401.127	77.48
401.336	100.01
401.545	231.08
401.754	147.11
401.963	100.01
402.172	116.39
402.381	130.73
402.59	110.25
402.799	114.34
403.008	122.54
403.217	71.34
403.426	118.44
403.635	126.63
403.844	114.34
404.053	100.01
404.262	200.36
404.471	171.69
404.68	155.3
404.888	116.39
405.097	171.69
405.306	157.35
405.515	155.3
405.724	204.46
405.933	220.84
406.142	183.98
406.35	161.45
406.559	173.74
406.768	204.46
406.977	183.98
407.185	222.89
407.394	188.07
407.603	204.46
407.812	202.41
408.02	186.02
408.229	206.5
408.438	204.46
408.646	181.93
408.855	278.18
409.064	329.38
409.272	243.37
409.481	280.23
409.69	253.61
409.898	327.33
410.107	278.18
410.315	261.8
410.524	300.71
410.733	392.87
410.941	345.77
411.15	386.72
411.358	345.77
411.567	366.25
411.775	415.4
411.984	452.26
412.192	499.36
412.401	478.88
412.609	466.6
412.818	577.19
413.026	503.46
413.234	607.91
413.443	482.98
413.651	564.9
413.86	591.52
414.068	698.02
414.276	609.95
414.485	655.01
414.693	679.58
414.901	700.06
415.11	720.54
415.318	695.97
415.526	671.39
415.734	763.55
415.943	714.4
416.151	831.13
416.359	845.47
416.567	777.89
416.776	949.92
416.984	949.92
417.192	999.07
417.4	1023.64
417.608	1048.22
417.817	1072.79
418.025	1119.9
418.233	1191.58
418.441	1134.23
418.649	1162.9
418.857	1314.45
419.065	1371.8
419.273	1220.25
419.481	1353.37
419.689	1474.2
419.897	1466
420.105	1449.62
420.313	1619.6
420.521	1592.98
420.729	1642.13
420.937	1670.8
421.145	1836.69
421.353	1873.55
421.561	1914.51
421.769	1904.27
421.977	1939.09
422.185	2039.44
422.393	2213.51
422.601	2346.63
422.809	2379.4
423.017	2272.9
423.224	2360.97
423.432	2473.6
423.64	2614.91
423.848	2795.14
424.056	2705.03
424.263	2868.86
424.471	2686.59
424.679	2850.43
424.887	3100.28
425.094	3169.91
425.302	3239.55
425.51	3260.02
425.718	3411.57
425.925	3518.07
426.133	3595.89
426.341	3868.27
426.548	3980.91
426.756	3913.33
426.964	4005.49
427.171	4175.47
427.379	4484.71
427.586	4443.75
427.794	4531.81
428.001	4646.5
428.209	4965.98
428.417	4810.34
428.624	5195.36
428.832	5254.75
429.039	5185.12
429.247	5117.53
429.454	5627.48
429.662	6166.09
429.869	5738.07
430.076	6082.13
430.284	5918.29
430.491	6213.2
430.699	6471.24
430.906	6512.2
431.114	6587.97
431.321	6819.39
431.528	7020.1
431.736	7360.06
431.943	7759.41
432.15	7611.96
432.358	7632.44
432.565	7992.88
432.772	7906.87
432.979	8341.04
433.187	8670.76
433.394	8486.44
433.601	9162.27
433.808	9354.78
434.016	9178.65
434.223	9481.75
434.43	9965.07
434.637	10018.32
434.844	10427.92
435.052	10677.77
435.259	10767.88
435.466	10671.62
435.673	10511.88
435.88	11187.71
436.087	11951.6
436.294	11978.23
436.501	11576.83
436.708	11918.84
436.915	12369.39
437.122	12750.31
437.329	12631.53
437.537	13164
437.743	13342.18
437.95	13487.58
438.157	13929.94
438.364	14568.91
438.571	14384.59
438.778	14607.82
438.985	15683
439.192	15105.48
439.399	15738.3
439.606	15236.55
439.813	16510.38
440.02	17141.16
440.227	17010.09
440.433	16653.74
440.64	17026.47
440.847	17190.31
441.054	17423.78
441.261	18777.48
441.467	18574.74
441.674	18660.75
441.881	19477.89
442.088	19391.87
442.294	19135.88
442.501	19836.28
442.708	20170.1
442.914	20876.65
443.121	21839.2
443.328	21185.9
443.534	22762.83
443.741	22007.13
443.948	21972.32
444.154	23797.06
444.361	23450.95
444.568	23215.43
444.774	23579.97
444.981	23596.35
445.187	24571.19
445.394	25709.86
445.6	25199.91
445.807	27489.54
446.013	26316.06
446.22	26668.31
446.426	27890.95
446.633	28093.69
446.839	29230.32
447.046	27741.44
447.252	29185.26
447.459	29263.08
447.665	29369.58
447.871	30645.46
448.078	31552.71
448.284	30332.12
448.491	31012.05
448.697	32478.4
448.903	32496.83
449.11	32742.58
449.316	32249.02
449.522	32928.95
449.728	33834.15
449.935	34063.52
450.141	34059.43
450.347	34950.29
450.553	33864.87
450.76	34491.55
450.966	35464.33
451.172	34981.01
451.378	35818.63
451.584	35069.08
451.791	36306.05
451.997	36062.34
452.203	36818.04
452.409	36568.19
452.615	36105.35
452.821	34966.68
453.027	35052.69
453.233	36283.52
453.44	35163.28
453.646	35599.5
453.852	35693.71
454.058	36160.64
454.264	35011.73
454.47	35808.39
454.676	34856.09
454.882	36398.21
455.088	33000.63
455.294	33584.3
455.5	34014.37
455.705	34530.46
455.911	33217.71
456.117	32431.29
456.323	32384.19
456.529	30160.09
456.735	31792.33
456.941	31075.54
457.147	30690.52
457.352	29494.5
457.558	29041.9
457.764	29428.97
457.97	28826.87
458.176	28353.79
458.381	28083.45
458.587	26887.44
458.793	26445.08
458.999	25226.54
459.204	27372.81
459.41	26354.97
459.616	24603.96
459.821	25298.22
460.027	24698.16
460.233	24165.69
460.438	23018.83
460.644	23192.9
460.85	22386.01
461.055	21898.59
461.261	22136.15
461.466	20241.78
461.672	19588.48
461.878	20911.47
462.083	19443.07
462.289	19342.72
462.494	19199.37
462.7	18220.44
462.905	17974.68
463.111	18267.54
463.316	18490.77
463.522	18025.88
463.727	18154.9
463.932	18072.98
464.138	17761.69
464.343	18019.74
464.549	17530.27
464.754	17937.82
464.959	17745.31
465.165	17497.5
465.37	17175.97
465.575	16403.89
465.781	17051.05
465.986	17173.92
466.191	16440.75
466.397	16176.56
466.602	15459.77
466.807	16186.8
467.012	16082.36
467.218	16162.23
467.423	15756.73
467.628	15670.72
467.833	16375.22
468.038	15758.78
468.244	15547.84
468.449	16041.4
468.654	15568.32
468.859	15556.03
469.064	15336.9
469.269	14798.28
469.474	14869.96
469.679	15138.24
469.885	14665.16
470.09	15207.87
470.295	14869.96
470.5	14386.64
470.705	14448.08
470.91	14271.95
471.115	14179.79
471.32	14308.82
471.525	14335.44
471.73	13966.81
471.935	13800.92
472.139	13344.22
472.344	13622.75
472.549	13194.72
472.754	13344.22
472.959	13264.35
473.164	12629.48
473.369	12660.2
473.574	13209.06
473.778	12936.68
473.983	12908.01
474.188	12785.13
474.393	12172.78
474.598	12148.21
474.802	11994.61
475.007	11947.51
475.212	12006.9
475.417	11615.74
475.621	11711.99
475.826	11750.9
476.031	11501.05
476.235	11329.02
476.44	11546.11
476.645	11234.82
476.849	11378.17
477.054	10782.21
477.259	10976.77
477.463	10872.32
477.668	10690.06
477.872	10667.53
478.077	10583.56
478.282	10259.98
478.486	10290.7
478.691	10292.75
478.895	10081.81
479.1	10014.23
479.304	9946.64
479.509	9823.76
479.713	10022.42
479.918	9891.35
480.122	9711.13
480.326	9788.95
480.531	9821.72
480.735	9707.03
480.94	9821.72
481.144	9821.72
481.348	9459.23
481.553	9549.34
481.757	9389.6
481.961	9500.19
482.166	9739.8
482.37	9610.78
482.574	9381.4
482.778	9383.45
482.983	9629.21
483.187	9432.6
483.391	9440.79
483.595	9143.84
483.8	9141.79
484.004	9541.15
484.208	9444.89
484.412	9336.35
484.616	9332.25
484.821	9365.02
485.025	9358.88
485.229	9365.02
485.433	9324.06
485.637	9344.54
485.841	9389.6
486.045	9459.23
486.249	9479.71
486.453	9338.4
486.657	9371.16
486.861	9477.66
487.065	9125.41
487.269	9229.85
487.473	9291.29
487.677	9455.13
487.881	9391.64
488.085	9442.84
488.289	9334.3
488.493	9297.44
488.697	9487.9
488.901	9410.08
489.105	9393.69
489.309	9567.77
489.512	9424.41
489.716	9436.7
489.92	9750.04
490.124	9362.97
490.328	9653.78
490.531	9649.69
490.735	9532.95
490.939	9618.97
491.143	9520.67
491.346	9831.96
491.55	9874.96
491.754	9764.37
491.958	9739.8
492.161	9932.31
492.365	9893.4
492.569	9817.62
492.772	9864.72
492.976	10173.97
493.18	9969.17
493.383	10198.54
493.587	10153.49
493.79	10518.03
493.994	10053.14
494.197	10386.96
494.401	10315.28
494.605	10288.65
494.808	10313.23
495.012	10667.53
495.215	10731.01
495.419	10589.71
495.622	10708.49
495.825	10952.2
496.029	11128.32
496.232	11015.68
496.436	11122.18
496.639	11490.81
496.843	11499
497.046	11552.25
497.249	11605.5
497.453	11589.11
497.656	12002.8
497.859	11906.55
498.063	12148.21
498.266	12199.41
498.469	12318.19
498.673	12494.32
498.876	12680.68
499.079	12684.78
499.282	12598.76
499.485	12983.78
499.689	13151.71
499.892	13372.89
500.095	13164
500.298	13514.2
500.501	13338.08
500.705	13788.63
500.908	13962.71
501.111	14022.1
501.314	14196.18
501.517	14206.42
501.72	14419.41
501.923	14403.02
502.126	14648.78
502.329	14943.69
502.532	15171.01
502.735	15220.16
502.938	15281.6
503.141	15603.13
503.344	15834.55
503.547	15728.06
503.75	16129.46
503.953	16358.83
504.156	16190.9
504.359	16623.02
504.562	16618.93
504.765	17120.68
504.968	16977.32
505.17	17313.19
505.373	17517.98
505.576	17647.01
505.779	18011.54
505.982	18113.94
506.185	18494.86
506.387	18197.91
506.59	18580.88
506.793	18658.7
506.996	19006.86
507.198	19320.2
507.401	19150.21
507.604	19258.76
507.807	20004.22
508.009	19938.68
508.212	20168.05
508.415	20458.87
508.617	20516.21
508.82	20974.95
509.022	20333.94
509.225	21106.02
509.428	21323.11
509.63	21343.59
509.833	21560.67
510.035	22400.34
510.238	22058.33
510.44	22175.06
510.643	22758.74
510.845	22771.02
511.048	23067.98
511.25	23303.5
511.453	23360.84
511.655	24253.75
511.858	23780.67
512.06	24319.29
512.262	24263.99
512.465	24218.94
512.667	24886.57
512.87	24952.11
513.072	25058.6
513.274	25535.78
513.477	25867.55
513.679	25949.47
513.881	26160.41
514.084	26365.21
514.286	26506.52
514.488	26860.82
514.69	27555.08
514.893	27565.32
515.095	27526.41
515.297	27927.81
515.499	28159.23
515.701	28497.14
515.904	28603.64
516.106	28994.8
516.308	28941.55
516.51	29533.42
516.712	29117.68
516.914	29684.97
517.116	30268.64
517.318	30315.74
517.52	30754.01
517.722	30774.49
517.925	31370.44
518.127	31513.8
518.329	31782.09
518.531	31634.63
518.733	32130.24
518.935	32332.99
519.136	32214.21
519.338	33146.03
519.54	33168.56
519.742	33559.72
519.944	33629.35
520.146	33922.21
520.348	34362.53
520.55	34256.03
520.752	34327.71
520.954	34960.53
521.155	34985.11
521.357	35263.63
521.559	35687.56
521.761	36125.83
521.963	35968.13
522.164	36136.07
522.366	36531.33
522.568	36785.27
522.77	37039.22
522.971	37749.87
523.173	37155.96
523.375	37260.4
523.576	37649.52
523.778	37653.61
523.98	38100.07
524.181	38358.11
524.383	38124.64
524.584	38630.49
524.786	38913.11
524.988	38831.19
525.189	39496.78
525.391	39586.89
525.592	39875.66
525.794	39801.93
525.995	39777.36
526.197	39828.55
526.398	40184.9
526.6	40471.62
526.801	40881.21
527.003	40496.19
527.204	40782.91
527.406	40928.31
527.607	40762.43
527.808	41643.06
528.01	40592.45
528.211	41104.44
528.412	42066.98
528.614	41577.52
528.815	41593.9
529.016	42255.4
529.218	41827.37
529.419	42114.09
529.62	42118.18
529.822	42003.5
530.023	42087.46
530.224	42109.99
530.425	42456.1
530.626	42239.01
530.828	42388.52
531.029	42984.47
531.23	42327.08
531.431	42279.97
531.632	43111.45
531.833	43002.91
532.035	42609.7
532.236	42742.81
532.437	43174.94
532.638	42957.85
532.839	43219.99
533.04	43103.26
533.241	42499.11
533.442	43746.32
533.643	43447.32
533.844	43170.84
534.045	42945.56
534.246	43164.7
534.447	43627.54
534.648	43129.88
534.849	43340.82
535.05	42968.09
535.251	43209.75
535.451	42626.08
535.652	43291.67
535.853	43373.59
536.054	43861.01
536.255	43328.53
536.456	43099.16
536.657	43838.48
536.857	43406.36
537.058	43189.27
537.259	43383.83
537.46	43308.05
537.66	43422.74
537.861	43691.02
538.062	43375.64
538.263	43772.94
538.463	43170.84
538.664	43400.21
538.865	43346.97
539.065	43772.94
539.266	43213.85
539.466	43912.2
539.667	43109.4
539.868	43721.74
540.068	43213.85
540.269	43340.82
540.469	43824.14
540.67	43219.99
540.87	43234.33
541.071	43373.59
541.271	43523.09
541.472	42961.95
541.672	42980.38
541.873	43453.46
542.073	42990.62
542.274	43377.68
542.474	43344.92
542.675	42611.74
542.875	43693.07
543.075	43144.22
543.276	42540.07
543.476	43297.81
543.676	42697.76
543.877	43234.33
544.077	42920.99
544.277	43029.53
544.478	43117.59
544.678	43453.46
544.878	43000.86
545.078	43154.46
545.279	42931.23
545.479	42863.64
545.679	43244.57
545.879	42892.32
546.079	42880.03
546.28	43219.99
546.48	42431.52
546.68	42900.51
546.88	43033.63
547.08	43219.99
547.28	42785.82
547.48	42611.74
547.68	42916.89
547.88	42800.16
548.081	43334.68
548.281	43424.79
548.481	42636.32
548.681	42906.65
548.881	43029.53
549.081	42568.74
549.28	42920.99
549.48	42558.5
549.68	42527.78
549.88	43361.3
550.08	43029.53
550.28	42585.12
550.48	42896.41
550.68	42849.31
550.88	42165.29
551.08	42544.16
551.279	42757.15
551.479	42157.1
551.679	42789.92
551.879	42495.01
552.079	43379.73
552.278	42421.28
552.478	43068.44
552.678	42454.05
552.878	42859.55
553.077	42828.83
553.277	42263.59
553.477	42806.3
553.676	42626.08
553.876	42802.21
554.076	42384.42
554.275	41888.81
554.475	42087.46
554.674	42578.98
554.874	42310.69
555.074	42230.82
555.273	42308.65
555.473	42560.55
555.672	42128.42
555.872	41972.78
556.071	42122.28
556.271	42525.73
556.47	41976.87
556.67	41897
556.869	41999.4
557.068	42236.97
557.268	41620.53
557.467	41913.39
557.667	41999.4
557.866	41794.6
558.065	42271.78
558.265	41587.76
558.464	41897
558.663	41808.94
558.863	41227.32
559.062	42071.08
559.261	41028.66
559.461	41862.19
559.66	40971.32
559.859	41397.3
560.058	40848.44
560.258	41315.38
560.457	40885.31
560.656	41321.52
560.855	41227.32
561.054	41333.81
561.253	40979.51
561.453	41169.97
561.652	41163.83
561.851	41126.97
562.05	40610.88
562.249	40565.82
562.448	41245.75
562.647	41055.29
562.846	40870.97
563.045	40604.74
563.244	39986.25
563.443	40875.07
563.642	40223.81
563.841	40172.61
564.04	39892.04
564.239	40561.73
564.438	40215.62
564.637	40229.96
564.836	40195.14
565.035	39961.67
565.234	39855.18
565.432	39201.88
565.631	39677.01
565.83	39521.36
566.029	39756.88
566.228	39709.77
566.427	39627.85
566.625	39504.98
566.824	38835.29
567.023	39289.94
567.222	38749.28
567.42	39097.43
567.619	38849.63
567.818	38745.18
568.016	39007.32
568.215	39101.53
568.414	38683.74
568.612	39257.17
568.811	38407.26
569.01	38921.3
569.208	37946.47
569.407	38491.23
569.605	38001.77
569.804	38304.87
570.002	37739.63
570.201	38251.62
570.4	37512.3
570.598	37778.54
570.797	37645.42
570.995	38149.22
571.193	37477.49
571.392	38378.59
571.59	37540.97
571.789	37418.1
571.987	37569.65
572.186	37393.52
572.384	37100.66
572.582	37352.56
572.781	37016.69
572.979	36516.99
573.177	36928.63
573.376	37047.41
573.574	36631.68
573.772	36777.08
573.971	36437.12
574.169	36428.93
574.367	35847.3
574.565	36428.93
574.763	36482.17
574.962	35632.27
575.16	35667.08
575.358	35906.69
575.556	35763.34
575.754	35798.15
575.952	35402.89
576.151	35773.58
576.349	35097.75
576.547	35394.7
576.745	35529.87
576.943	35237.01
577.141	35366.03
577.339	35331.22
577.537	34612.38
577.735	34768.02
577.933	34581.66
578.131	35005.59
578.329	34882.71
578.527	34395.29
578.725	34368.67
578.923	34423.97
579.121	34202.78
579.319	34487.45
579.516	34272.42
579.714	33965.22
579.912	33764.52
580.11	33838.25
580.308	33649.83
580.506	34041
580.704	33531.05
580.901	33764.52
581.099	34215.07
581.297	33535.15
581.495	33490.09
581.692	33477.8
581.89	33238.19
582.088	33318.06
582.285	33395.89
582.483	33137.84
582.681	33090.74
582.878	33117.36
583.076	32562.36
583.274	33006.77
583.471	32265.41
583.669	32685.24
583.866	32701.62
584.064	32683.19
584.262	32083.14
584.459	32402.62
584.657	32271.55
584.854	32382.14
585.052	32050.37
585.249	32433.34
585.447	32228.54
585.644	31558.86
585.841	31550.67
586.039	31765.7
586.236	31325.39
586.434	31325.39
586.631	31214.8
586.828	31419.6
587.026	31419.6
587.223	31327.44
587.42	31220.94
587.618	31063.25
587.815	30831.83
588.012	30696.66
588.21	30272.73
588.407	30860.5
588.604	30416.09
588.801	30223.58
588.999	30133.47
589.196	30149.85
589.393	30368.99
589.59	30059.74
589.787	29912.29
589.984	29869.28
590.182	29707.49
590.379	29949.15
590.576	29553.9
590.773	29467.88
590.97	29402.35
591.167	29795.56
591.364	29168.88
591.561	29336.81
591.758	28951.79
591.955	29177.07
592.152	29119.73
592.349	29125.87
592.546	28957.94
592.743	29035.76
592.94	28749.04
593.137	28835.06
593.334	28968.18
593.531	28185.85
593.727	28658.93
593.924	28431.61
594.121	28261.63
594.318	28161.28
594.515	27868.42
594.712	28370.17
594.908	28136.7
595.105	28327.16
595.302	27399.43
595.499	28071.17
595.696	27852.03
595.892	27542.79
596.089	27546.89
596.286	27458.82
596.482	27249.93
596.679	27290.89
596.876	27297.03
597.072	27381
597.269	27321.61
597.466	27090.19
597.662	26899.73
597.859	27057.42
598.055	26811.67
598.252	26410.26
598.448	26539.29
598.645	26420.5
598.841	26346.78
599.038	26377.5
599.234	26324.25
599.431	26096.92
599.627	25894.18
599.824	26373.4
600.02	25918.75
600.217	25900.32
600.413	25617.7
600.609	25593.12
600.806	25713.95
601.002	25783.59
601.198	25412.9
601.395	25154.86
601.591	25363.75
601.787	25546.02
601.984	25181.48
602.18	25253.16
602.376	25023.79
602.572	24937.77
602.769	24732.98
602.965	24950.06
603.161	24585.52
603.357	24753.46
603.553	24438.07
603.75	24442.17
603.946	24384.82
604.142	24460.6
604.338	23815.49
604.534	24304.95
604.73	24218.94
604.926	23856.45
605.122	24241.46
605.318	24051
605.514	23995.71
605.71	23588.16
605.906	24032.57
606.102	23641.41
606.298	23571.78
606.494	23489.86
606.69	23672.13
606.886	23534.92
607.082	23188.81
607.278	23651.65
607.474	23137.61
607.67	23379.27
607.866	23000.4
608.062	23586.11
608.257	22893.9
608.453	22910.29
608.649	22994.25
608.845	22965.58
609.041	22891.85
609.236	22744.4
609.432	22658.38
609.628	22717.78
609.824	22895.95
610.019	22469.97
610.215	22732.11
610.411	22863.18
610.606	22549.84
610.802	22664.53
610.998	22607.19
611.193	22426.96
611.389	22150.49
611.584	22326.61
611.78	22158.68
611.976	22072.67
612.171	22115.67
612.367	22166.87
612.562	21998.94
612.758	21581.15
612.953	21654.88
613.149	22127.96
613.344	21835.1
613.539	22406.48
613.735	21730.66
613.93	22035.8
614.126	21540.19
614.321	21884.25
614.517	21687.65
614.712	21644.64
614.907	21405.03
615.103	21822.81
615.298	21497.19
615.493	21761.37
615.688	21290.34
615.884	21669.22
616.079	21157.22
616.274	21159.27
616.47	21169.51
616.665	20979.05
616.86	21202.28
617.055	21206.38
617.25	20821.36
617.445	21220.71
617.641	20839.79
617.836	20602.22
618.031	20725.1
618.226	20829.55
618.421	20696.43
618.616	20807.02
618.811	20170.1
619.006	20518.26
619.201	20249.97
619.396	20403.57
619.591	20137.34
619.786	20198.77
619.981	20004.22
620.176	19973.5
620.371	19887.48
620.566	19871.1
620.761	19856.76
620.956	19651.97
621.151	19293.57
621.346	19283.33
621.541	19330.44
621.735	19406.21
621.93	19299.72
622.125	19029.38
622.32	18898.31
622.515	18879.88
622.709	18718.09
622.904	18742.67
623.099	18312.6
623.294	18464.14
623.488	18337.17
623.683	18283.92
623.878	18261.4
624.072	18247.06
624.267	18118.04
624.462	18228.63
624.656	17903
624.851	17966.49
625.046	17849.75
625.24	17827.23
625.435	17456.54
625.629	17354.15
625.824	17192.36
626.018	17231.27
626.213	16983.46
626.407	17225.12
626.602	16993.7
626.796	16971.18
626.991	16883.11
627.185	16786.86
627.38	16672.17
627.574	16610.73
627.768	16364.98
627.963	16307.63
628.157	16371.12
628.352	16334.26
628.546	16065.97
628.74	16229.81
628.935	15760.83
629.129	16045.49
629.323	15707.58
629.517	15850.94
629.712	15564.22
629.906	15529.41
630.1	15500.73
630.294	15570.37
630.489	15316.42
630.683	15605.18
630.877	15013.32
631.071	15187.39
631.265	14968.26
631.459	15066.56
631.653	14949.83
631.848	14958.02
632.042	14562.76
632.236	14759.37
632.43	14589.39
632.624	14587.34
632.818	14372.3
633.012	14429.65
633.206	14159.31
633.4	14190.03
633.594	14120.4
633.788	14075.35
633.982	14288.34
634.176	13829.59
634.369	13831.64
634.563	13897.17
634.757	13618.65
634.951	13917.65
635.145	13510.11
635.339	13585.88
635.533	13321.7
635.726	13587.93
635.92	13260.26
636.114	13368.8
636.308	13278.69
636.501	12951.01
636.695	13047.27
636.889	13200.87
637.083	12965.35
637.276	12934.63
637.47	12951.01
637.664	12719.59
637.857	12682.73
638.051	12592.62
638.244	12336.62
638.438	12316.14
638.632	12492.27
638.825	12531.18
639.019	12140.02
639.212	11988.47
639.406	12086.77
639.599	12164.59
639.793	11935.22
639.986	11961.84
640.18	12082.67
640.373	11929.08
640.567	11714.04
640.76	11652.6
640.954	11439.61
641.147	11523.58
641.34	11312.64
641.534	11458.04
641.727	11492.86
641.92	11365.89
642.114	11267.58
642.307	11101.7
642.5	11075.07
642.694	11081.22
642.887	10948.1
643.08	11128.32
643.273	10866.18
643.467	10956.29
643.66	10659.34
643.853	10612.23
644.046	10460.68
644.239	10765.83
644.432	10710.54
644.626	10436.11
644.819	10444.3
645.012	10331.66
645.205	10333.71
645.398	10192.4
645.591	10395.15
645.784	10118.67
645.977	9979.41
646.17	10118.67
646.363	10085.9
646.556	10051.09
646.749	9963.03
646.942	9997.84
647.135	9692.69
647.328	9711.13
647.521	9747.99
647.714	9539.1
647.907	9578.01
648.099	9551.38
648.292	9586.2
648.485	9543.19
648.678	9297.44
648.871	9381.4
649.064	9266.72
649.256	9491.99
649.449	9215.52
649.642	8959.52
649.835	8969.76
650.027	8900.13
650.22	8840.74
650.413	8930.85
650.605	8887.84
650.798	9018.91
650.991	8961.57
651.183	8924.71
651.376	8508.97
651.568	8699.43
651.761	8592.94
651.954	8465.96
652.146	8449.58
652.339	8531.5
652.531	8502.82
652.724	8511.02
652.916	8281.64
653.109	8242.73
653.301	8388.14
653.494	8224.3
653.686	7994.93
653.879	8291.88
654.071	8222.25
654.263	8226.35
654.456	8148.53
654.648	8109.61
654.84	7874.1
655.033	7847.47
655.225	7960.11
655.417	7841.33
655.61	7851.57
655.802	7697.97
655.994	7749.17
656.186	7671.35
656.379	7646.77
656.571	7654.97
656.763	7515.7
656.955	7491.13
657.148	7525.94
657.34	7534.14
657.532	7527.99
657.724	7374.39
657.916	7185.98
658.108	7282.24
658.3	7228.99
658.492	7341.63
658.684	7200.32
658.876	7065.15
659.068	7253.56
659.26	6927.94
659.452	7163.45
659.644	7069.25
659.836	7032.38
660.028	7048.77
660.22	6774.34
660.412	6729.28
660.604	6882.88
660.796	6972.99
660.988	6938.18
661.18	6688.32
661.372	6614.6
661.563	6757.96
661.755	6725.19
661.947	6542.92
662.139	6428.23
662.331	6399.56
662.522	6487.62
662.714	6528.58
662.906	6383.18
663.097	6327.88
663.289	6334.03
663.481	6217.29
663.673	6469.19
663.864	6217.29
664.056	6241.87
664.247	6155.85
664.439	6217.29
664.631	6075.98
664.822	6080.08
665.014	6168.14
665.205	6176.33
665.397	6110.8
665.588	5979.73
665.78	5883.47
665.971	6053.45
666.163	6010.45
666.354	5949.01
666.546	5920.34
666.737	5697.11
666.929	5815.89
667.12	5578.33
667.311	5758.55
667.503	5660.24
667.694	5643.86
667.885	5504.6
668.077	5615.19
668.268	5531.22
668.459	5611.09
668.651	5441.11
668.842	5502.55
669.033	5529.17
669.224	5461.59
669.416	5484.12
669.607	5447.26
669.798	5320.28
669.989	5443.16
670.18	5437.02
670.371	5373.53
670.563	5146.2
670.754	5443.16
670.945	5389.91
671.136	5201.5
671.327	5238.36
671.518	5264.99
671.709	5095
671.9	5156.44
672.091	5056.09
672.282	5023.33
672.473	5168.73
672.664	5144.16
672.855	4935.26
673.046	5037.66
673.237	4959.84
673.428	5023.33
673.619	4906.59
673.809	5015.13
674	4943.46
674.191	4994.65
674.382	4861.54
674.573	4859.49
674.764	4783.71
674.954	4783.71
675.145	4752.99
675.336	4822.63
675.527	4718.18
675.717	4865.63
675.908	4587.11
676.099	4632.16
676.289	4734.56
676.48	4744.8
676.671	4783.71
676.861	4752.99
677.052	4664.93
677.243	4656.74
677.433	4773.47
677.624	4662.88
677.814	4589.16
678.005	4578.92
678.195	4804.19
678.386	4470.37
678.576	4519.53
678.767	4501.09
678.957	4443.75
679.148	4580.96
679.338	4415.08
679.529	4505.19
679.719	4476.52
679.909	4410.98
680.1	4482.66
680.29	4441.7
680.481	4429.42
680.671	4515.43
680.861	4316.78
681.052	4365.93
681.242	4376.17
681.432	4376.17
681.622	4343.4
681.813	4286.06
682.003	4472.42
682.193	4255.34
682.383	4398.7
682.573	4286.06
682.764	4279.91
682.954	4376.17
683.144	4312.68
683.334	4183.66
683.524	4288.11
683.714	4245.1
683.904	4247.15
684.094	4284.01
684.284	4286.06
684.474	4204.14
684.664	4177.51
684.854	4236.91
685.044	4152.94
685.234	4005.49
685.424	4101.74
685.614	4163.18
685.804	4013.68
685.994	3950.19
686.184	4128.36
686.374	4142.7
686.564	3964.53
686.753	4046.44
686.943	3851.89
687.133	4093.55
687.323	4030.06
687.513	3993.2
687.702	3886.7
687.892	3919.47
688.082	3821.17
688.272	3823.22
688.461	3802.74
688.651	3999.34
688.841	3878.51
689.03	3915.37
689.22	3939.95
689.41	3937.9
689.599	3669.62
689.789	3847.79
689.979	3780.21
690.168	3739.25
690.358	3645.04
690.547	3620.47
690.737	3692.15
690.926	3720.82
691.116	3632.76
691.305	3688.05
691.495	3573.36
691.684	3636.85
691.874	3587.7
692.063	3546.74
692.252	3425.91
692.442	3595.89
692.631	3442.29
692.82	3473.01
693.01	3415.67
693.199	3407.48
693.388	3511.93
693.578	3520.12
693.767	3391.09
693.956	3575.41
694.146	3380.86
694.335	3393.14
694.524	3335.8
694.713	3382.9
694.902	3319.42
695.092	3333.75
695.281	3317.37
695.47	3260.02
695.659	3391.09
695.848	3169.91
696.037	3321.46
696.226	3260.02
696.415	3364.47
696.604	3309.18
696.793	3305.08
696.982	3376.76
697.171	3360.38
697.36	3317.37
697.549	3341.94
697.738	3102.33
697.927	3221.11
698.116	3309.18
698.305	3276.41
698.494	3212.92
698.683	3219.07
698.872	3161.72
699.061	3284.6
699.25	3131
699.438	3200.63
699.627	3245.69
699.816	3128.95
700.005	3067.52
700.193	3106.43
700.382	3149.43
700.571	3114.62
700.76	3061.37
700.948	3194.49
701.137	3088
701.326	3075.71
701.514	3008.12
701.703	3284.6
701.892	3122.81
702.08	3065.47
702.269	2981.5
702.457	3004.03
702.646	2993.79
702.834	2944.64
703.023	3092.09
703.212	3137.15
703.4	2977.41
703.589	2989.69
703.777	3071.61
703.965	3010.17
704.154	2977.41
704.342	2950.78
704.531	3024.51
704.719	3034.75
704.907	3139.19
705.096	2797.18
705.284	2932.35
705.472	3030.65
705.661	2825.86
705.849	2991.74
706.037	2956.93
706.226	3022.46
706.414	2954.88
706.602	2819.71
706.79	2795.14
706.979	2868.86
707.167	2899.58
707.355	2813.57
707.543	2975.36
707.731	2903.68
707.919	2854.53
708.107	2768.51
708.296	2909.82
708.484	2868.86
708.672	2817.66
708.86	2848.38
709.048	2891.39
709.236	2793.09
709.424	2809.47
709.612	2846.34
709.8	2793.09
709.988	2735.74
710.176	2842.24
710.364	2852.48
710.551	2727.55
710.739	2752.13
710.927	2635.39
711.115	2666.11
711.303	2743.94
711.491	2868.86
711.679	2743.94
711.866	2698.88
712.054	2801.28
712.242	2803.33
712.43	2766.46
712.617	2805.38
712.805	2797.18
712.993	2702.98
713.181	2664.07
713.368	2743.94
713.556	2731.65
713.744	2702.98
713.931	2676.35
714.119	2776.7
714.306	2637.44
714.494	2670.21
714.682	2608.77
714.869	2666.11
715.057	2688.64
715.244	2647.68
715.432	2754.18
715.619	2719.36
715.807	2662.02
715.994	2608.77
716.182	2637.44
716.369	2750.08
716.556	2707.07
716.744	2561.67
716.931	2664.07
717.119	2676.35
717.306	2721.41
717.493	2512.52
717.681	2602.63
717.868	2530.95
718.055	2481.8
718.242	2643.59
718.43	2692.74
718.617	2655.87
718.804	2467.46
718.991	2504.32
719.179	2377.35
719.366	2586.24
719.553	2518.66
719.74	2643.59
719.927	2510.47
720.114	2557.57
720.301	2547.33
720.488	2625.15
720.676	2408.07
720.863	2592.39
721.05	2569.86
721.237	2602.63
721.424	2424.45
721.611	2469.51
721.798	2485.89
721.985	2465.41
722.172	2504.32
722.358	2483.84
722.545	2588.29
722.732	2424.45
722.919	2489.99
723.106	2451.08
723.293	2412.17
723.48	2369.16
723.667	2387.59
723.853	2375.3
724.04	2356.87
724.227	2363.01
724.414	2434.69
724.6	2465.41
724.787	2342.53
724.974	2383.49
725.161	2354.82
725.347	2346.63
725.534	2367.11
725.72	2309.77
725.907	2383.49
726.094	2434.69
726.28	2326.15
726.467	2346.63
726.653	2342.53
726.84	2369.16
727.027	2408.07
727.213	2295.43
727.4	2246.28
727.586	2287.24
727.773	2264.71
727.959	2328.2
728.145	2399.88
728.332	2272.9
728.518	2268.81
728.705	2358.92
728.891	2322.06
729.077	2393.73
729.264	2379.4
729.45	2154.12
729.636	2307.72
729.823	2262.66
730.009	2326.15
730.195	2317.96
730.382	2301.58
730.568	2227.85
730.754	2244.23
730.94	2340.49
731.126	2211.46
731.313	2391.69
731.499	2197.13
731.685	2256.52
731.871	2301.58
732.057	2213.51
732.243	2256.52
732.429	2279.05
732.615	2283.14
732.801	2229.9
732.987	2244.23
733.173	2277
733.359	2229.9
733.545	2207.37
733.731	2221.7
733.917	2252.42
734.103	2229.9
734.289	2186.89
734.475	2231.94
734.661	2164.36
734.847	2084.49
735.033	2162.31
735.219	2274.95
735.404	2178.7
735.59	2113.16
735.776	2150.03
735.962	2264.71
736.148	2180.75
736.333	2211.46
736.519	2129.55
736.705	2150.03
736.89	2104.97
737.076	2111.11
737.262	1998.48
737.447	2121.35
737.633	2143.88
737.819	2102.92
738.004	2098.83
738.19	2086.54
738.375	2008.72
738.561	2123.4
738.747	2041.48
738.932	1955.47
739.118	2104.97
739.303	2176.65
739.489	2109.07
739.674	2012.81
739.859	1926.8
740.045	1961.61
740.23	2025.1
740.416	1937.04
740.601	2053.77
740.786	2115.21
740.972	1916.56
741.157	1928.85
741.342	2008.72
741.528	1879.69
741.713	2016.91
741.898	2014.86
742.084	1908.37
742.269	1900.17
742.454	1916.56
742.639	2031.24
742.824	1918.61
743.01	1945.23
743.195	2025.1
743.38	1861.26
743.565	1883.79
743.75	1902.22
743.935	1887.89
744.12	1900.17
744.305	1982.09
744.49	1803.92
744.675	1783.44
744.86	1818.25
745.045	1873.55
745.23	1754.77
745.415	1810.06
745.6	1687.18
745.785	1820.3
745.97	1853.07
746.155	1701.52
746.34	1666.71
746.525	1728.14
746.71	1793.68
746.895	1736.34
747.079	1662.61
747.264	1797.78
747.449	1785.49
747.634	1832.59
747.819	1642.13
748.003	1687.18
748.188	1695.38
748.373	1705.62
748.557	1597.07
748.742	1492.63
748.927	1629.84
749.111	1584.79
749.296	1613.46
749.481	1607.31
749.665	1517.2
749.85	1496.72
750.034	1578.64
750.219	1539.73
750.404	1607.31
750.588	1599.12
750.773	1400.47
750.957	1451.67
751.141	1439.38
751.326	1470.1
751.51	1486.48
751.695	1345.17
751.879	1410.71
752.064	1468.05
752.248	1443.48
752.432	1525.4
752.617	1523.35
752.801	1466
752.985	1351.32
753.17	1367.7
753.354	1390.23
753.538	1304.21
753.722	1343.13
753.907	1304.21
754.091	1285.78
754.275	1349.27
754.459	1287.83
754.643	1250.97
754.828	1343.13
755.012	1345.17
755.196	1265.3
755.38	1273.5
755.564	1115.8
755.748	1224.34
755.932	1246.87
756.116	1214.1
756.3	1177.24
756.484	1279.64
756.668	1218.2
756.852	1113.75
757.036	1212.06
757.22	1167
757.404	1138.33
757.588	1132.19
757.772	1152.67
757.956	1175.19
758.14	1080.99
758.323	1132.19
758.507	1148.57
758.691	1015.45
758.875	1162.9
759.059	1101.47
759.242	1105.56
759.426	1017.5
759.61	1146.52
759.794	1015.45
759.977	1126.04
760.161	1156.76
760.345	1107.61
760.528	1101.47
760.712	1052.31
760.895	1052.31
761.079	1035.93
761.263	911
761.446	1019.55
761.63	1015.45
761.813	931.48
761.997	1007.26
762.18	992.92
762.364	999.07
762.547	927.39
762.731	1021.6
762.914	941.72
763.098	908.96
763.281	984.73
763.464	925.34
763.648	925.34
763.831	886.43
764.015	966.3
764.198	829.09
764.381	904.86
764.564	831.13
764.748	966.3
764.931	892.57
765.114	913.05
765.297	956.06
765.481	816.8
765.664	855.71
765.847	859.81
766.03	835.23
766.213	878.24
766.397	876.19
766.58	855.71
766.763	933.53
766.946	935.58
767.129	925.34
767.312	872.09
767.495	800.41
767.678	777.89
767.861	816.8
768.044	845.47
768.227	878.24
768.41	806.56
768.593	861.85
768.776	847.52
768.959	786.08
769.142	880.29
769.324	917.15
769.507	859.81
769.69	747.17
769.873	839.33
770.056	827.04
770.239	814.75
770.421	798.37
770.604	773.79
770.787	749.22
770.97	628.39
771.152	720.54
771.335	716.45
771.518	769.69
771.7	730.78
771.883	818.85
772.066	757.41
772.248	741.02
772.431	712.35
772.613	724.64
772.796	704.16
772.978	786.08
773.161	802.46
773.343	771.74
773.526	683.68
773.708	663.2
773.891	683.68
774.073	757.41
774.256	720.54
774.438	736.93
774.621	657.06
774.803	689.82
774.985	648.86
775.168	704.16
775.35	605.86
775.532	622.24
775.715	689.82
775.897	634.53
776.079	548.51
776.261	718.5
776.444	622.24
776.626	675.49
776.808	614.05
776.99	616.1
777.173	618.15
777.355	718.5
777.537	556.71
777.719	622.24
777.901	577.19
778.083	534.18
778.265	564.9
778.447	538.27
778.629	525.99
778.811	614.05
778.993	601.76
779.175	540.32
779.357	515.75
779.539	499.36
779.721	499.36
779.903	536.23
780.085	564.9
780.267	530.08
780.449	511.65
780.631	507.55
780.812	573.09
780.994	511.65
781.176	509.6
781.358	536.23
781.54	466.6
781.721	548.51
781.903	573.09
782.085	493.22
782.267	427.68
782.448	495.27
782.63	515.75
782.812	560.8
782.993	511.65
783.175	517.79
783.357	468.64
783.538	435.88
783.72	495.27
783.901	474.79
784.083	417.44
784.264	427.68
784.446	450.21
784.627	468.64
784.809	388.77
784.99	452.26
785.172	433.83
785.353	384.68
785.535	448.16
785.716	411.3
785.897	339.62
786.079	495.27
786.26	364.2
786.441	407.2
786.623	304.81
786.804	427.68
786.985	401.06
787.167	386.72
787.348	302.76
787.529	427.68
787.71	405.16
787.891	327.33
788.073	339.62
788.254	296.61
788.435	351.91
788.616	405.16
788.797	337.57
788.978	462.5
789.159	292.52
789.34	315.05
789.522	351.91
789.703	376.48
789.884	321.19
790.065	290.47
790.246	413.35
790.427	218.79
790.607	384.68
790.788	372.39
790.969	345.77
791.15	306.85
791.331	396.96
791.512	317.09
791.693	345.77
791.874	261.8
792.054	337.57
792.235	313
792.416	265.89
792.597	247.46
792.778	241.32
792.958	356.01
793.139	294.57
793.32	362.15
793.5	261.8
793.681	237.22
793.862	261.8
794.042	286.37
794.223	310.95
794.404	253.61
794.584	286.37
794.765	204.46
794.945	349.86
795.126	335.53
795.306	298.66
795.487	292.52
795.667	237.22
795.848	190.12
796.028	214.7
796.209	179.88
796.389	335.53
796.57	269.99
796.75	233.13
796.93	280.23
797.111	179.88
797.291	249.51
797.471	216.74
797.652	313
797.832	208.55
798.012	255.65
798.192	188.07
798.373	216.74
798.553	220.84
798.733	231.08
798.913	149.16
799.093	290.47
799.274	237.22
799.454	333.48
799.634	163.5
799.814	288.42
799.994	261.8
800.174	157.35
800.354	188.07
800.534	214.7
800.714	155.3
800.894	231.08
801.074	163.5
801.254	212.65
801.434	216.74
801.614	181.93
801.794	140.97
801.974	757.41
802.154	188.07
802.334	192.17
802.514	231.08
802.693	179.88
802.873	163.5
803.053	241.32
803.233	261.8
803.413	229.03
803.592	157.35
803.772	157.35
803.952	167.59
804.131	239.27
804.311	229.03
804.491	200.36
804.67	163.5
804.85	204.46
805.03	237.22
805.209	183.98
805.389	204.46
805.568	161.45
805.748	198.31
805.928	255.65
806.107	190.12
806.287	200.36
806.466	257.7
806.646	130.73
806.825	106.15
807.004	114.34
807.184	267.94
807.363	204.46
807.543	192.17
807.722	245.41
807.901	200.36
808.081	171.69
808.26	165.54
808.439	190.12
808.619	118.44
808.798	124.58
808.977	200.36
809.156	145.06
809.336	120.49
809.515	147.11
809.694	147.11
809.873	171.69
810.052	267.94
810.231	136.87
810.411	179.88
810.59	202.41
810.769	163.5
810.948	198.31
811.127	167.59
811.306	126.63
811.485	210.6
811.664	362.15
811.843	140.97
812.022	118.44
812.201	130.73
812.38	106.15
812.559	140.97
812.737	214.7
812.916	138.92
813.095	110.25
813.274	169.64
813.453	181.93
813.632	179.88
813.811	237.22
813.989	108.2
814.168	89.77
814.347	138.92
814.526	138.92
814.704	132.78
814.883	282.28
815.062	65.19
815.24	167.59
815.419	122.54
815.598	136.87
815.776	91.82
815.955	130.73
816.133	212.65
816.312	126.63
816.49	81.58
816.669	124.58
816.847	104.11
817.026	130.73
817.204	216.74
817.383	36.52
817.561	65.19
817.74	100.01
817.918	194.22
818.097	159.4
818.275	116.39
818.453	122.54
818.632	93.87
818.81	85.67
818.988	122.54
819.167	67.24
819.345	124.58
819.523	97.96
819.701	157.35
819.879	89.77
820.058	104.11
820.236	69.29
820.414	93.87
820.592	165.54
820.77	52.91
820.948	124.58
821.127	65.19
821.305	89.77
821.483	38.57
821.661	73.39
821.839	122.54
822.017	73.39
822.195	145.06
822.373	130.73
822.551	114.34
822.729	132.78
822.907	87.72
823.085	112.3
823.262	97.96
823.44	112.3
823.618	136.87
823.796	93.87
823.974	38.57
824.152	71.34
824.329	89.77
824.507	122.54
824.685	65.19
824.863	124.58
825.04	116.39
825.218	128.68
825.396	32.43
825.574	118.44
825.751	93.87
825.929	83.63
826.107	106.15
826.284	75.43
826.462	102.06
826.639	116.39
826.817	77.48
826.994	73.39
827.172	13.99
827.349	153.26
827.527	138.92
827.704	161.45
827.882	71.34
828.059	130.73
828.237	147.11
828.414	77.48
828.591	77.48
828.769	102.06
828.946	91.82
829.124	102.06
829.301	79.53
829.478	65.19
829.655	132.78
829.833	65.19
830.01	93.87
830.187	97.96
830.364	26.28
830.542	7.85
830.719	183.98
830.896	97.96
831.073	-16.73
831.25	83.63
831.427	81.58
831.604	73.39
831.782	59.05
831.959	57
832.136	20.14
832.313	50.86
832.49	24.23
832.667	165.54
832.844	18.09
833.021	100.01
833.198	52.91
833.374	46.76
833.551	81.58
833.728	52.91
833.905	69.29
834.082	-14.68
834.259	67.24
834.436	114.34
834.612	-29.01
834.789	106.15
834.966	-14.68
835.143	130.73
835.319	1.71
835.496	65.19
835.673	100.01
835.85	114.34
836.026	42.67
836.203	40.62
836.38	73.39
836.556	116.39
836.733	-12.63
836.909	89.77
837.086	69.29
837.262	22.19
837.439	1.71
837.616	110.25
837.792	61.1
837.968	102.06
838.145	9.9
838.321	134.82
838.498	3.75
838.674	42.67
838.851	116.39
839.027	44.71
839.203	93.87
839.38	116.39
839.556	89.77
839.732	48.81
839.909	67.24
840.085	85.67
840.261	48.81
840.437	52.91
840.614	89.77
840.79	57
840.966	24.23
841.142	24.23
841.318	16.04
841.494	38.57
841.671	81.58
841.847	16.04
842.023	61.1
842.199	59.05
842.375	122.54
842.551	79.53
842.727	89.77
842.903	95.91
843.079	38.57
843.255	69.29
843.431	75.43
843.607	-0.34
843.783	65.19
843.959	81.58
844.134	69.29
844.31	3.75
844.486	59.05
844.662	50.86
844.838	30.38
845.013	22.19
845.189	16.04
845.365	32.43
845.541	16.04
845.716	89.77
845.892	24.23
846.068	18.09
846.244	34.47
846.419	65.19
846.595	67.24
846.77	16.04
846.946	30.38
847.122	63.15
847.297	-22.87
847.473	36.52
847.648	-16.73
847.824	67.24
847.999	34.47
848.175	85.67
848.35	77.48
848.526	-8.53
848.701	147.11
848.876	61.1
849.052	114.34
849.227	-4.44
849.403	59.05
849.578	-16.73
849.753	7.85
849.929	110.25
850.104	7.85
850.279	9.9
850.454	1.71
850.63	-14.68
850.805	9.9
850.98	16.04
851.155	32.43
851.33	87.72
851.505	69.29
851.681	28.33
851.856	38.57
852.031	57
852.206	61.1
852.381	26.28
852.556	-12.63
852.731	30.38
852.906	40.62
853.081	13.99
853.256	65.19
853.431	85.67
853.606	24.23
853.781	65.19
853.956	-49.49
854.131	83.63
854.305	-31.06
854.48	102.06
854.655	28.33
854.83	75.43
855.005	81.58
855.18	42.67
855.354	57
855.529	32.43
855.704	28.33
855.879	40.62
856.053	11.95
856.228	48.81
856.403	-4.44
856.577	-6.49
856.752	34.47
856.926	26.28
857.101	67.24
857.276	44.71
857.45	-22.87
857.625	-16.73
857.799	5.8
857.974	81.58
858.148	5.8
858.323	50.86
858.497	-0.34
858.672	1.71
858.846	-16.73
859.02	50.86
859.195	61.1
859.369	16.04
859.543	-16.73
859.718	40.62
859.892	-16.73
860.066	97.96
860.241	44.71
860.415	-0.34
860.589	61.1
860.763	40.62
860.938	-45.4
861.112	67.24
861.286	30.38
861.46	7.85
861.634	38.57
861.808	67.24
861.982	7.85
862.157	-0.34
862.331	44.71
862.505	-29.01
862.679	7.85
862.853	-8.53
863.027	32.43
863.201	24.23
863.375	26.28
863.549	28.33
863.722	9.9
863.896	-0.34
864.07	-4.44
864.244	7.85
864.418	18.09
864.592	-20.82
864.766	67.24
864.939	57
865.113	-37.2
865.287	122.54
865.461	-47.44
865.634	5.8
865.808	65.19
865.982	-4.44
866.156	-8.53
866.329	26.28
866.503	-24.92
866.676	79.53
866.85	65.19
867.024	18.09
867.197	7.85
867.371	67.24
867.544	24.23
867.718	26.28
867.891	52.91
868.065	26.28
868.238	1.71
868.412	32.43
868.585	-0.34
868.759	-55.64
868.932	30.38
869.105	57
869.279	-8.53
869.452	100.01
869.625	89.77
869.799	34.47
869.972	26.28
870.145	16.04
870.319	-22.87
870.492	28.33
870.665	65.19
870.838	20.14
871.011	28.33
871.185	61.1
871.358	24.23
871.531	24.23
871.704	-22.87
871.877	3.75
872.05	16.04
872.223	16.04
872.396	83.63
872.569	38.57
872.742	20.14
872.915	-41.3
873.088	-33.11
873.261	32.43
873.434	16.04
873.607	3.75
873.78	48.81
873.953	1.71
874.126	-22.87
874.299	65.19
874.471	52.91
874.644	-72.02
874.817	-6.49
874.99	7.85
875.163	7.85
875.335	-22.87
875.508	65.19
875.681	-8.53
875.853	-4.44
876.026	48.81
876.199	40.62
876.371	1.71
876.544	-41.3
876.717	-43.35
876.889	42.67
877.062	-8.53
877.234	-78.16
877.407	-0.34
877.579	-6.49
877.752	11.95
877.924	18.09
878.097	-8.53
878.269	-43.35
878.442	9.9
878.614	-26.96
878.786	34.47
878.959	28.33
879.131	52.91
879.303	-51.54
879.476	83.63
879.648	24.23
879.82	30.38
879.993	-45.4
880.165	-22.87
880.337	-47.44
880.509	11.95
880.681	32.43
880.854	18.09
881.026	-2.39
881.198	-24.92
881.37	26.28
881.542	16.04
881.714	-22.87
881.886	-2.39
882.058	11.95
882.23	54.95
882.402	7.85
882.574	54.95
882.746	-47.44
882.918	18.09
883.09	73.39
883.262	24.23
883.434	3.75
883.606	40.62
883.778	-4.44
883.95	100.01
884.122	46.76
884.293	-33.11
884.465	-4.44
884.637	77.48
884.809	-8.53
884.98	-16.73
885.152	-12.63
885.324	42.67
885.496	-41.3
885.667	-29.01
885.839	26.28
886.011	36.52
886.182	-0.34
886.354	65.19
886.525	30.38
886.697	32.43
886.869	40.62
887.04	34.47
887.212	26.28
887.383	-69.97
887.555	50.86
887.726	50.86
887.897	-20.82
888.069	3.75
888.24	9.9
888.412	-12.63
888.583	-63.83
888.754	-49.49
888.926	11.95
889.097	-37.2
889.268	7.85
889.44	-8.53
889.611	67.24
889.782	5.8
889.953	-33.11
890.125	93.87
890.296	-4.44
890.467	52.91
890.638	-37.2
890.809	13.99
890.98	20.14
891.151	9.9
891.323	-2.39
891.494	-55.64
891.665	-22.87
891.836	26.28
892.007	24.23
892.178	-24.92
892.349	-43.35
892.52	-14.68
892.691	-10.58
892.862	61.1
893.032	-20.82
893.203	-57.68
893.374	-24.92
893.545	-6.49
893.716	28.33
893.887	34.47
894.057	-41.3
894.228	38.57
894.399	-12.63
894.57	46.76
894.74	-0.34
894.911	32.43
895.082	-8.53
895.253	-31.06
895.423	18.09
895.594	18.09
895.764	-16.73
895.935	-14.68
896.106	13.99
896.276	-8.53
896.447	61.1
896.617	-51.54
896.788	-16.73
896.958	16.04
897.129	-49.49
897.299	-6.49
897.47	52.91
897.64	52.91
897.81	-24.92
897.981	1.71
898.151	65.19
898.322	73.39
898.492	1.71
898.662	16.04
898.832	1.71
899.003	7.85
899.173	77.48
899.343	-16.73
899.513	-24.92
