Data from USB4F104151__241__14-22-17-088.txt Node

Date: Thu Mar 13 14:22:17 EDT 2025
User: louis
Spectrometer: USB4F10415
Trigger mode: 4
Integration Time (sec): 2.000000E-2
Scans to average: 1
Electric dark correction enabled: true
Nonlinearity correction enabled: false
Boxcar width: 0
XAxis mode: Wavelengths
Number of Pixels in Spectrum: 3648
>>>>>Begin Spectral Data<<<<<
178.204	-83.28
178.424	-83.28
178.644	-83.28
178.864	-81.24
179.084	-107.86
179.304	-34.13
179.524	15.02
179.744	41.64
179.964	23.21
180.184	33.45
180.404	-13.65
180.624	-27.99
180.844	-7.51
181.064	8.87
181.283	-13.65
181.503	-71
181.723	45.74
181.943	27.31
182.163	96.94
182.383	15.02
182.602	-13.65
182.822	80.55
183.042	19.11
183.262	37.55
183.482	15.02
183.701	29.35
183.921	49.83
184.141	15.02
184.361	84.65
184.58	15.02
184.8	27.31
185.02	6.83
185.239	23.21
185.459	27.31
185.679	39.59
185.898	-27.99
186.118	60.07
186.338	-13.65
186.557	80.55
186.777	0.68
186.997	27.31
187.216	0.68
187.436	64.17
187.655	70.31
187.875	-9.56
188.095	31.4
188.314	0.68
188.534	43.69
188.753	47.79
188.973	6.83
189.192	72.36
189.412	80.55
189.631	41.64
189.851	-13.65
190.07	109.22
190.29	31.4
190.509	64.17
190.729	-17.75
190.948	101.03
191.168	131.75
191.387	49.83
191.607	-9.56
191.826	17.07
192.045	6.83
192.265	115.37
192.484	-3.41
192.704	31.4
192.923	15.02
193.142	23.21
193.362	27.31
193.581	55.98
193.8	45.74
194.02	43.69
194.239	-17.75
194.458	105.13
194.678	17.07
194.897	8.87
195.116	88.75
195.335	23.21
195.555	47.79
195.774	10.92
195.993	55.98
196.212	45.74
196.432	-17.75
196.651	31.4
196.87	37.55
197.089	117.42
197.308	72.36
197.528	92.84
197.747	-11.61
197.966	2.73
198.185	133.8
198.404	25.26
198.623	39.59
198.842	-9.56
199.062	72.36
199.281	90.79
199.5	60.07
199.719	82.6
199.938	-25.94
200.157	21.16
200.376	74.41
200.595	74.41
200.814	17.07
201.033	-1.37
201.252	96.94
201.471	88.75
201.69	17.07
201.909	39.59
202.128	35.5
202.347	90.79
202.566	31.4
202.785	6.83
203.004	23.21
203.223	2.73
203.442	64.17
203.661	19.11
203.879	72.36
204.098	2.73
204.317	90.79
204.536	60.07
204.755	35.5
204.974	78.51
205.193	33.45
205.411	154.28
205.63	76.46
205.849	25.26
206.068	60.07
206.287	96.94
206.505	55.98
206.724	-25.94
206.943	-30.04
207.162	-1.37
207.381	47.79
207.599	17.07
207.818	66.22
208.037	43.69
208.255	53.93
208.474	-13.65
208.693	-32.08
208.911	-23.89
209.13	21.16
209.349	72.36
209.567	17.07
209.786	47.79
210.005	23.21
210.223	98.99
210.442	72.36
210.661	86.7
210.879	103.08
211.098	51.88
211.316	19.11
211.535	105.13
211.753	-3.41
211.972	49.83
212.191	47.79
212.409	43.69
212.628	127.66
212.846	35.5
213.065	37.55
213.283	55.98
213.502	86.7
213.72	-42.32
213.938	-9.56
214.157	47.79
214.375	103.08
214.594	17.07
214.812	-1.37
215.031	58.03
215.249	35.5
215.467	-7.51
215.686	33.45
215.904	-5.46
216.122	8.87
216.341	27.31
216.559	62.12
216.778	66.22
216.996	33.45
217.214	-83.28
217.432	-5.46
217.651	47.79
217.869	113.32
218.087	-1.37
218.306	0.68
218.524	39.59
218.742	55.98
218.96	74.41
219.179	0.68
219.397	58.03
219.615	96.94
219.833	29.35
220.051	119.46
220.27	96.94
220.488	23.21
220.706	55.98
220.924	17.07
221.142	-50.52
221.36	10.92
221.578	82.6
221.796	15.02
222.015	17.07
222.233	90.79
222.451	82.6
222.669	62.12
222.887	66.22
223.105	2.73
223.323	17.07
223.541	51.88
223.759	19.11
223.977	15.02
224.195	96.94
224.413	55.98
224.631	23.21
224.849	-5.46
225.067	4.78
225.285	-11.61
225.503	58.03
225.721	-54.61
225.939	17.07
226.157	19.11
226.375	111.27
226.592	31.4
226.81	4.78
227.028	123.56
227.246	66.22
227.464	15.02
227.682	94.89
227.9	37.55
228.117	58.03
228.335	49.83
228.553	43.69
228.771	51.88
228.989	49.83
229.206	19.11
229.424	-1.37
229.642	-1.37
229.86	-15.7
230.077	76.46
230.295	90.79
230.513	76.46
230.731	68.27
230.948	17.07
231.166	55.98
231.384	-34.13
231.601	-34.13
231.819	58.03
232.037	-15.7
232.254	72.36
232.472	2.73
232.689	66.22
232.907	62.12
233.125	51.88
233.342	-21.85
233.56	27.31
233.777	2.73
233.995	-27.99
234.213	23.21
234.43	37.55
234.648	80.55
234.865	-36.18
235.083	37.55
235.3	-38.23
235.518	31.4
235.735	129.7
235.953	31.4
236.17	-25.94
236.388	-9.56
236.605	76.46
236.822	53.93
237.04	25.26
237.257	-13.65
237.475	49.83
237.692	35.5
237.909	41.64
238.127	107.18
238.344	90.79
238.562	98.99
238.779	25.26
238.996	29.35
239.214	-34.13
239.431	19.11
239.648	2.73
239.865	105.13
240.083	84.65
240.3	-7.51
240.517	47.79
240.735	47.79
240.952	115.37
241.169	74.41
241.386	68.27
241.603	-19.8
241.821	-7.51
242.038	66.22
242.255	25.26
242.472	-21.85
242.689	47.79
242.907	41.64
243.124	96.94
243.341	15.02
243.558	37.55
243.775	-25.94
243.992	8.87
244.209	-30.04
244.426	105.13
244.643	74.41
244.86	2.73
245.078	35.5
245.295	33.45
245.512	74.41
245.729	-36.18
245.946	-17.75
246.163	98.99
246.38	51.88
246.597	39.59
246.814	39.59
247.031	58.03
247.248	4.78
247.464	72.36
247.681	111.27
247.898	-5.46
248.115	72.36
248.332	66.22
248.549	82.6
248.766	123.56
248.983	64.17
249.2	127.66
249.417	82.6
249.633	2.73
249.85	-7.51
250.067	-17.75
250.284	80.55
250.501	78.51
250.717	121.51
250.934	-3.41
251.151	6.83
251.368	2.73
251.585	55.98
251.801	45.74
252.018	58.03
252.235	55.98
252.451	17.07
252.668	4.78
252.885	74.41
253.102	84.65
253.318	84.65
253.535	-19.8
253.752	21.16
253.968	66.22
254.185	49.83
254.401	2.73
254.618	51.88
254.835	31.4
255.051	113.32
255.268	109.22
255.484	23.21
255.701	64.17
255.917	58.03
256.134	80.55
256.351	31.4
256.567	19.11
256.784	90.79
257	6.83
257.217	27.31
257.433	23.21
257.65	115.37
257.866	49.83
258.082	17.07
258.299	19.11
258.515	121.51
258.732	84.65
258.948	60.07
259.165	33.45
259.381	47.79
259.597	-5.46
259.814	51.88
260.03	-1.37
260.246	33.45
260.463	27.31
260.679	88.75
260.895	58.03
261.112	-27.99
261.328	41.64
261.544	101.03
261.761	53.93
261.977	8.87
262.193	10.92
262.409	51.88
262.626	35.5
262.842	47.79
263.058	33.45
263.274	88.75
263.49	51.88
263.707	51.88
263.923	51.88
264.139	-9.56
264.355	58.03
264.571	49.83
264.787	15.02
265.004	23.21
265.22	4.78
265.436	33.45
265.652	-1.37
265.868	96.94
266.084	6.83
266.3	23.21
266.516	-25.94
266.732	25.26
266.948	49.83
267.164	-25.94
267.38	111.27
267.596	58.03
267.812	64.17
268.028	39.59
268.244	49.83
268.46	80.55
268.676	47.79
268.892	98.99
269.108	72.36
269.324	27.31
269.54	23.21
269.756	70.31
269.972	27.31
270.188	-17.75
270.403	53.93
270.619	-9.56
270.835	-17.75
271.051	49.83
271.267	31.4
271.483	49.83
271.698	115.37
271.914	41.64
272.13	-21.85
272.346	23.21
272.562	47.79
272.777	41.64
272.993	66.22
273.209	35.5
273.425	33.45
273.64	84.65
273.856	2.73
274.072	90.79
274.287	49.83
274.503	-66.9
274.719	-25.94
274.934	-15.7
275.15	33.45
275.366	66.22
275.581	49.83
275.797	58.03
276.012	84.65
276.228	17.07
276.444	6.83
276.659	49.83
276.875	31.4
277.09	35.5
277.306	86.7
277.521	15.02
277.737	6.83
277.952	43.69
278.168	23.21
278.383	0.68
278.599	19.11
278.814	55.98
279.03	12.97
279.245	47.79
279.461	92.84
279.676	72.36
279.892	66.22
280.107	92.84
280.322	68.27
280.538	58.03
280.753	88.75
280.969	64.17
281.184	47.79
281.399	101.03
281.615	58.03
281.83	64.17
282.045	-7.51
282.26	12.97
282.476	12.97
282.691	105.13
282.906	37.55
283.122	55.98
283.337	-7.51
283.552	15.02
283.767	29.35
283.983	125.61
284.198	39.59
284.413	21.16
284.628	-25.94
284.843	105.13
285.058	6.83
285.274	96.94
285.489	55.98
285.704	96.94
285.919	-23.89
286.134	39.59
286.349	117.42
286.564	23.21
286.779	148.14
286.995	80.55
287.21	8.87
287.425	27.31
287.64	58.03
287.855	23.21
288.07	23.21
288.285	51.88
288.5	15.02
288.715	68.27
288.93	-15.7
289.145	23.21
289.36	74.41
289.575	33.45
289.79	76.46
290.004	74.41
290.219	96.94
290.434	51.88
290.649	17.07
290.864	6.83
291.079	107.18
291.294	51.88
291.509	17.07
291.724	39.59
291.938	-1.37
292.153	66.22
292.368	-11.61
292.583	76.46
292.798	66.22
293.012	66.22
293.227	6.83
293.442	72.36
293.657	47.79
293.871	47.79
294.086	-7.51
294.301	60.07
294.516	72.36
294.73	0.68
294.945	-13.65
295.16	72.36
295.374	53.93
295.589	66.22
295.804	-40.28
296.018	96.94
296.233	60.07
296.447	23.21
296.662	105.13
296.877	64.17
297.091	31.4
297.306	103.08
297.52	31.4
297.735	27.31
297.949	72.36
298.164	-44.37
298.378	60.07
298.593	80.55
298.807	25.26
299.022	98.99
299.236	137.9
299.451	27.31
299.665	39.59
299.88	31.4
300.094	51.88
300.309	41.64
300.523	150.18
300.737	15.02
300.952	15.02
301.166	31.4
301.381	-1.37
301.595	35.5
301.809	64.17
302.024	-11.61
302.238	-19.8
302.452	96.94
302.667	19.11
302.881	74.41
303.095	117.42
303.309	0.68
303.524	-13.65
303.738	-17.75
303.952	2.73
304.166	41.64
304.381	31.4
304.595	82.6
304.809	101.03
305.023	60.07
305.237	51.88
305.452	19.11
305.666	43.69
305.88	119.46
306.094	31.4
306.308	47.79
306.522	4.78
306.736	141.99
306.95	70.31
307.164	55.98
307.379	47.79
307.593	15.02
307.807	84.65
308.021	12.97
308.235	51.88
308.449	-17.75
308.663	23.21
308.877	115.37
309.091	-40.28
309.305	72.36
309.519	-17.75
309.733	82.6
309.947	-7.51
310.161	55.98
310.374	82.6
310.588	113.32
310.802	51.88
311.016	55.98
311.23	31.4
311.444	-17.75
311.658	66.22
311.872	-1.37
312.085	125.61
312.299	82.6
312.513	72.36
312.727	84.65
312.941	4.78
313.154	72.36
313.368	70.31
313.582	72.36
313.796	29.35
314.009	76.46
314.223	49.83
314.437	35.5
314.651	88.75
314.864	31.4
315.078	2.73
315.292	23.21
315.505	58.03
315.719	35.5
315.933	96.94
316.146	39.59
316.36	6.83
316.573	129.7
316.787	4.78
317.001	80.55
317.214	-58.71
317.428	47.79
317.641	31.4
317.855	-9.56
318.068	123.56
318.282	72.36
318.495	96.94
318.709	51.88
318.922	35.5
319.136	105.13
319.349	82.6
319.563	90.79
319.776	92.84
319.99	23.21
320.203	35.5
320.417	68.27
320.63	15.02
320.843	80.55
321.057	-7.51
321.27	15.02
321.483	80.55
321.697	98.99
321.91	154.28
322.124	60.07
322.337	88.75
322.55	-11.61
322.763	101.03
322.977	62.12
323.19	80.55
323.403	49.83
323.617	39.59
323.83	113.32
324.043	25.26
324.256	19.11
324.469	39.59
324.683	51.88
324.896	101.03
325.109	72.36
325.322	92.84
325.535	76.46
325.748	64.17
325.962	45.74
326.175	58.03
326.388	6.83
326.601	37.55
326.814	31.4
327.027	27.31
327.24	64.17
327.453	-36.18
327.666	39.59
327.879	10.92
328.092	121.51
328.305	55.98
328.518	2.73
328.731	23.21
328.944	19.11
329.157	51.88
329.37	39.59
329.583	76.46
329.796	78.51
330.009	-1.37
330.222	103.08
330.435	10.92
330.648	41.64
330.861	-5.46
331.073	80.55
331.286	25.26
331.499	80.55
331.712	-5.46
331.925	39.59
332.138	62.12
332.35	43.69
332.563	21.16
332.776	47.79
332.989	66.22
333.202	90.79
333.414	72.36
333.627	51.88
333.84	37.55
334.053	121.51
334.265	78.51
334.478	-21.85
334.691	113.32
334.903	72.36
335.116	19.11
335.329	23.21
335.541	88.75
335.754	76.46
335.966	31.4
336.179	72.36
336.392	76.46
336.604	55.98
336.817	15.02
337.029	76.46
337.242	43.69
337.454	51.88
337.667	-9.56
337.88	141.99
338.092	53.93
338.305	80.55
338.517	-13.65
338.729	74.41
338.942	137.9
339.154	-3.41
339.367	60.07
339.579	90.79
339.792	80.55
340.004	115.37
340.217	4.78
340.429	27.31
340.641	19.11
340.854	-7.51
341.066	74.41
341.278	105.13
341.491	166.57
341.703	53.93
341.915	72.36
342.128	133.8
342.34	68.27
342.552	23.21
342.764	2.73
342.977	105.13
343.189	55.98
343.401	127.66
343.613	12.97
343.826	96.94
344.038	55.98
344.25	23.21
344.462	-38.23
344.674	96.94
344.886	39.59
345.099	98.99
345.311	31.4
345.523	84.65
345.735	-13.65
345.947	92.84
346.159	58.03
346.371	101.03
346.583	82.6
346.795	43.69
347.007	117.42
347.219	25.26
347.431	60.07
347.643	129.7
347.855	74.41
348.067	146.09
348.279	25.26
348.491	74.41
348.703	58.03
348.915	113.32
349.127	55.98
349.339	72.36
349.551	74.41
349.763	129.7
349.975	51.88
350.187	111.27
350.399	84.65
350.61	-7.51
350.822	72.36
351.034	113.32
351.246	58.03
351.458	15.02
351.669	15.02
351.881	64.17
352.093	25.26
352.305	51.88
352.517	-21.85
352.728	27.31
352.94	60.07
353.152	72.36
353.363	66.22
353.575	113.32
353.787	152.23
353.999	35.5
354.21	70.31
354.422	76.46
354.633	121.51
354.845	49.83
355.057	72.36
355.268	115.37
355.48	84.65
355.692	10.92
355.903	64.17
356.115	66.22
356.326	39.59
356.538	123.56
356.749	90.79
356.961	68.27
357.172	64.17
357.384	86.7
357.595	115.37
357.807	33.45
358.018	27.31
358.23	-17.75
358.441	137.9
358.653	105.13
358.864	84.65
359.075	101.03
359.287	39.59
359.498	84.65
359.709	105.13
359.921	39.59
360.132	53.93
360.344	-25.94
360.555	109.22
360.766	51.88
360.977	88.75
361.189	111.27
361.4	109.22
361.611	107.18
361.823	37.55
362.034	127.66
362.245	25.26
362.456	68.27
362.667	45.74
362.879	96.94
363.09	17.07
363.301	80.55
363.512	90.79
363.723	82.6
363.935	86.7
364.146	51.88
364.357	60.07
364.568	80.55
364.779	31.4
364.99	101.03
365.201	10.92
365.412	43.69
365.623	37.55
365.834	49.83
366.045	80.55
366.256	90.79
366.467	55.98
366.678	107.18
366.889	105.13
367.1	109.22
367.311	154.28
367.522	98.99
367.733	74.41
367.944	121.51
368.155	43.69
368.366	98.99
368.577	105.13
368.788	88.75
368.999	68.27
369.209	49.83
369.42	96.94
369.631	197.29
369.842	70.31
370.053	27.31
370.264	90.79
370.474	109.22
370.685	90.79
370.896	96.94
371.107	86.7
371.317	88.75
371.528	43.69
371.739	31.4
371.95	88.75
372.16	66.22
372.371	31.4
372.582	82.6
372.792	109.22
373.003	64.17
373.214	121.51
373.424	90.79
373.635	-3.41
373.846	51.88
374.056	101.03
374.267	131.75
374.477	113.32
374.688	-27.99
374.898	60.07
375.109	105.13
375.319	49.83
375.53	90.79
375.74	39.59
375.951	47.79
376.161	84.65
376.372	64.17
376.582	17.07
376.793	92.84
377.003	47.79
377.214	6.83
377.424	158.38
377.635	68.27
377.845	15.02
378.055	133.8
378.266	37.55
378.476	25.26
378.686	64.17
378.897	43.69
379.107	74.41
379.317	82.6
379.528	-17.75
379.738	139.94
379.948	72.36
380.158	101.03
380.369	23.21
380.579	96.94
380.789	51.88
380.999	43.69
381.21	92.84
381.42	84.65
381.63	35.5
381.84	72.36
382.05	80.55
382.261	115.37
382.471	107.18
382.681	78.51
382.891	107.18
383.101	125.61
383.311	39.59
383.521	-1.37
383.731	92.84
383.941	172.71
384.151	84.65
384.361	129.7
384.571	107.18
384.781	39.59
384.991	146.09
385.201	105.13
385.411	88.75
385.621	72.36
385.831	39.59
386.041	117.42
386.251	96.94
386.461	90.79
386.671	72.36
386.881	88.75
387.091	96.94
387.301	41.64
387.511	88.75
387.72	113.32
387.93	43.69
388.14	58.03
388.35	37.55
388.56	121.51
388.769	58.03
388.979	43.69
389.189	144.04
389.399	129.7
389.609	82.6
389.818	86.7
390.028	82.6
390.238	123.56
390.447	55.98
390.657	60.07
390.867	103.08
391.076	76.46
391.286	105.13
391.496	92.84
391.705	113.32
391.915	82.6
392.125	84.65
392.334	76.46
392.544	115.37
392.753	101.03
392.963	129.7
393.172	74.41
393.382	101.03
393.591	244.39
393.801	58.03
394.01	156.33
394.22	137.9
394.429	64.17
394.639	137.9
394.848	88.75
395.058	150.18
395.267	96.94
395.477	182.95
395.686	115.37
395.895	150.18
396.105	158.38
396.314	133.8
396.524	98.99
396.733	43.69
396.942	135.85
397.152	211.62
397.361	199.34
397.57	39.59
397.78	148.14
397.989	141.99
398.198	164.52
398.407	197.29
398.617	129.7
398.826	131.75
399.035	148.14
399.244	154.28
399.453	117.42
399.663	217.77
399.872	178.86
400.081	164.52
400.29	187.05
400.499	160.42
400.708	164.52
400.917	144.04
401.127	139.94
401.336	156.33
401.545	162.47
401.754	260.77
401.963	164.52
402.172	176.81
402.381	154.28
402.59	209.58
402.799	170.66
403.008	244.39
403.217	178.86
403.426	129.7
403.635	152.23
403.844	182.95
404.053	205.48
404.262	187.05
404.471	287.4
404.68	228.01
404.888	260.77
405.097	205.48
405.306	309.93
405.515	219.82
405.724	324.26
405.933	248.49
406.142	354.98
406.35	228.01
406.559	301.73
406.768	340.65
406.977	260.77
407.185	338.6
407.394	279.21
407.603	309.93
407.812	369.32
408.02	332.45
408.229	287.4
408.438	348.84
408.646	322.21
408.855	361.13
409.064	408.23
409.272	434.85
409.481	473.76
409.69	400.04
409.898	441
410.107	516.77
410.315	524.96
410.524	484
410.733	539.3
410.941	481.96
411.15	596.64
411.358	574.11
411.567	621.22
411.775	647.84
411.984	592.55
412.192	688.8
412.401	676.51
412.609	645.79
412.818	854.69
413.026	701.09
413.234	842.4
413.443	776.86
413.651	793.25
413.86	891.55
414.068	926.36
414.276	834.21
414.485	887.45
414.693	991.9
414.901	1131.16
415.11	965.28
415.318	1100.44
415.526	1135.26
415.734	1127.07
415.943	1260.18
416.151	1186.46
416.359	1260.18
416.567	1284.76
416.776	1360.53
416.984	1473.17
417.192	1510.04
417.4	1426.07
417.608	1675.92
417.817	1567.38
418.025	1688.21
418.233	1706.64
418.441	1673.87
418.649	1813.13
418.857	1999.5
419.065	1923.73
419.273	1989.26
419.481	2034.32
419.689	2157.19
419.897	2302.6
420.105	2347.65
420.313	2286.22
420.521	2384.52
420.729	2474.63
420.937	2497.16
421.145	2622.08
421.353	2767.49
421.561	2968.19
421.769	2851.46
421.977	3113.6
422.185	3021.44
422.393	3285.62
422.601	3381.88
422.809	3361.4
423.017	3394.17
423.224	3684.98
423.432	3766.9
423.64	3662.45
423.848	4094.57
424.056	4045.42
424.263	4178.54
424.471	4182.63
424.679	4440.68
424.887	4678.24
425.094	4837.98
425.302	4792.93
425.51	4885.09
425.718	4993.63
425.925	5188.19
426.133	5417.56
426.341	5610.07
426.548	5950.03
426.756	5907.02
426.964	6036.05
427.171	6531.65
427.379	6400.58
427.586	6605.38
427.794	6697.54
428.001	7098.94
428.209	7379.51
428.417	7260.73
428.624	7742
428.832	7830.07
429.039	7713.33
429.247	7664.18
429.454	8446.51
429.662	9071.14
429.869	8469.03
430.076	8837.67
430.284	8690.21
430.491	9230.88
430.699	9529.88
430.906	9726.49
431.114	9800.21
431.321	10185.23
431.528	10484.23
431.736	10906.12
431.943	11518.46
432.15	11168.26
432.358	11176.45
432.565	11950.58
432.772	11876.85
432.979	12478.96
433.187	12628.46
433.394	12769.77
433.601	13461.98
433.808	13814.23
434.016	13578.72
434.223	14191.06
434.43	14854.6
434.637	14541.26
434.844	15419.84
435.052	15872.44
435.259	15845.82
435.466	15901.11
435.673	15874.49
435.88	16566.7
436.087	17439.14
436.294	17566.11
436.501	17199.52
436.708	17506.72
436.915	18295.19
437.122	18819.47
437.329	18878.86
437.537	19530.11
437.743	19806.59
437.95	19779.96
438.157	20595.06
438.364	21107.05
438.571	21582.18
438.778	21401.96
438.985	23628.1
439.192	22448.47
439.399	22966.6
439.606	22606.16
439.813	24148.28
440.02	25538.85
440.227	25014.57
440.433	24807.73
440.64	25387.3
440.847	25729.31
441.054	26114.33
441.261	27586.82
441.467	27261.19
441.674	27973.89
441.881	28918
442.088	28741.88
442.294	28631.29
442.501	29329.64
442.708	29982.95
442.914	31178.96
443.121	32448.7
443.328	31549.64
443.534	33470.64
443.741	32432.32
443.948	32547
444.154	34523.29
444.361	34027.68
444.568	34470.04
444.774	34615.45
444.981	35014.8
445.187	35457.17
445.394	37226.61
445.6	36790.39
445.807	40310.85
446.013	38449.25
446.22	39098.45
446.426	40736.83
446.633	41318.45
446.839	42514.47
447.046	40802.36
447.252	42999.83
447.459	42999.83
447.665	42633.25
447.871	44689.41
448.078	46039.02
448.284	44189.7
448.491	45099
448.697	47566.8
448.903	47888.34
449.11	48535.49
449.316	47505.37
449.522	47697.87
449.728	49614.77
449.935	50032.56
450.141	49866.67
450.347	50890.66
450.553	49295.29
450.76	49985.46
450.966	51859.35
451.172	50919.33
451.378	52522.89
451.584	51494.81
451.791	52512.65
451.997	52055.95
452.203	53100.42
452.409	52842.37
452.615	53026.69
452.821	51216.29
453.027	50522.02
453.233	53036.93
453.44	51511.19
453.646	51869.59
453.852	52170.64
454.058	52692.87
454.264	51464.09
454.47	52389.77
454.676	51283.87
454.882	52891.52
455.088	48048.08
455.294	49170.36
455.5	49913.78
455.705	50450.34
455.911	48664.52
456.117	47679.44
456.323	46991.33
456.529	45113.34
456.735	46845.92
456.941	45610.99
457.147	44914.69
457.352	43331.61
457.558	42786.85
457.764	43091.99
457.97	42037.29
458.176	41586.74
458.381	41510.96
458.587	39665.74
458.793	39745.61
458.999	37650.54
459.204	40118.34
459.41	39018.58
459.616	36903.03
459.821	36804.73
460.027	36667.52
460.233	35817.61
460.438	34089.12
460.644	34650.27
460.85	33161.39
461.055	32450.75
461.261	32235.71
461.466	29880.55
461.672	29061.36
461.878	31197.39
462.083	29057.26
462.289	28424.44
462.494	28551.41
462.7	27308.3
462.905	26495.25
463.111	27314.44
463.316	27574.53
463.522	26648.85
463.727	26708.24
463.932	26931.47
464.138	26659.09
464.343	26685.72
464.549	25788.71
464.754	26798.35
464.959	26675.48
465.165	26056.99
465.37	25073.96
465.575	24508.72
465.781	25475.37
465.986	25688.35
466.191	24770.86
466.397	24092.99
466.602	22985.04
466.807	23804.22
467.012	23658.82
467.218	23849.28
467.423	23451.97
467.628	23472.45
467.833	24469.81
468.038	23765.31
468.244	23005.52
468.449	23925.05
468.654	23130.44
468.859	22909.26
469.064	23009.61
469.269	21991.77
469.474	22030.68
469.679	22255.96
469.885	21887.32
470.09	22088.03
470.295	22155.61
470.5	21379.43
470.705	21682.53
470.91	21270.89
471.115	21176.68
471.32	21627.23
471.525	21240.17
471.73	20683.12
471.935	20760.94
472.139	19859.84
472.344	20167.03
472.549	20394.36
472.754	19736.96
472.959	19462.53
473.164	19278.21
473.369	18860.43
473.574	19317.12
473.778	19329.41
473.983	19200.39
474.188	19200.39
474.393	18379.15
474.598	18155.93
474.802	18168.21
475.007	17973.66
475.212	18006.42
475.417	17349.03
475.621	17502.62
475.826	17742.24
476.031	17220
476.235	17009.06
476.44	17082.79
476.645	16841.13
476.849	16949.67
477.054	16628.14
477.259	16349.62
477.463	16511.41
477.668	15796.67
477.872	16030.13
478.077	15661.5
478.282	15532.48
478.486	15194.56
478.691	15419.84
478.895	15288.77
479.1	15135.17
479.304	15241.67
479.509	14664.14
479.713	15012.29
479.918	14801.35
480.122	14459.34
480.326	14666.19
480.531	14473.68
480.735	14539.21
480.94	14309.84
481.144	14989.77
481.348	14115.28
481.553	14164.43
481.757	14006.74
481.961	14045.65
482.166	14244.31
482.37	14178.77
482.574	13935.06
482.778	14207.44
482.983	14254.55
483.187	14045.65
483.391	14016.98
483.595	13789.66
483.8	13711.83
484.004	13822.42
484.208	14068.18
484.412	13908.44
484.616	13670.87
484.821	14248.4
485.025	13681.11
485.229	14041.56
485.433	13705.69
485.637	14223.83
485.841	13672.92
486.045	14125.52
486.249	13935.06
486.453	13836.76
486.657	13847
486.861	13910.49
487.065	13756.89
487.269	13707.74
487.473	13892.05
487.677	14059.99
487.881	14268.88
488.085	13953.49
488.289	14115.28
488.493	13967.83
488.697	14227.92
488.901	14031.32
489.105	13769.18
489.309	13986.26
489.512	14172.63
489.716	14119.38
489.92	14107.09
490.124	13998.55
490.328	14623.18
490.531	14344.66
490.735	14510.54
490.939	14637.52
491.143	14299.6
491.346	14393.81
491.55	14657.99
491.754	14713.29
491.958	14537.16
492.161	14686.67
492.365	14737.87
492.569	14651.85
492.772	14623.18
492.976	14672.33
493.18	14789.06
493.383	14971.33
493.587	15194.56
493.79	15389.12
493.994	15094.21
494.197	15452.61
494.401	15542.72
494.605	15292.87
494.808	15761.85
495.012	15735.23
495.215	15532.48
495.419	15686.08
495.622	15847.86
495.825	16146.87
496.029	16163.25
496.232	16423.34
496.436	16189.88
496.639	16845.23
496.843	16578.99
497.046	17080.74
497.249	17424.8
497.453	17195.43
497.656	17654.17
497.859	17549.73
498.063	17525.15
498.266	17906.07
498.469	18014.62
498.673	18139.54
498.876	18309.52
499.079	18594.19
499.282	18594.19
499.485	19159.43
499.689	18882.95
499.892	19679.61
500.095	19536.26
500.298	19820.92
500.501	19673.47
500.705	20259.19
500.908	20369.78
501.111	20832.62
501.314	20636.02
501.517	21049.71
501.72	21604.7
501.923	21385.57
502.126	21752.16
502.329	21801.31
502.532	22118.75
502.735	22292.82
502.938	22626.64
503.141	22567.25
503.344	23388.49
503.547	23368.01
503.75	23269.7
503.953	23931.2
504.156	24201.53
504.359	24447.29
504.562	24295.74
504.765	24936.75
504.968	25000.24
505.17	25354.54
505.373	25569.57
505.576	25782.56
505.779	26384.66
505.982	26226.97
506.185	26892.56
506.387	26951.95
506.59	26726.67
506.793	27717.89
506.996	27678.98
507.198	28248.32
507.401	28266.75
507.604	28502.26
507.807	28897.52
508.009	29253.87
508.212	29403.37
508.415	29729
508.617	30040.29
508.82	30175.45
509.022	29927.65
509.225	30431.45
509.428	31084.75
509.63	31645.9
509.833	31418.57
510.035	32295.1
510.238	31983.81
510.44	32577.72
510.643	32807.09
510.845	32962.74
511.048	33355.95
511.25	33929.38
511.453	33691.82
511.655	35106.96
511.858	34697.37
512.06	35004.56
512.262	34996.37
512.465	35412.11
512.667	35833.99
512.87	36272.26
513.072	36219.01
513.274	37023.86
513.477	37470.32
513.679	37800.04
513.881	37986.41
514.084	38600.8
514.286	38365.28
514.488	38522.97
514.69	40003.66
514.893	39729.23
515.095	40153.16
515.297	40276.04
515.499	40544.32
515.701	40894.52
515.904	41140.28
516.106	41855.02
516.308	41916.46
516.51	42348.58
516.712	42420.26
516.914	43091.99
517.116	43589.65
517.318	43821.07
517.52	43943.95
517.722	44214.28
517.925	44789.76
518.127	45240.31
518.329	44957.69
518.531	45250.55
518.733	45936.62
518.935	46493.67
519.136	46409.7
519.338	46970.85
519.54	47480.79
519.742	47531.99
519.944	47749.07
520.146	48609.22
520.348	48140.24
520.55	48785.35
520.752	49147.84
520.954	49885.11
521.155	49672.12
521.357	50296.75
521.559	50493.35
521.761	51546.01
521.963	51363.74
522.164	51347.36
522.366	51509.14
522.568	52193.17
522.77	51994.51
522.971	53071.74
523.173	52701.06
523.375	53192.57
523.576	52979.59
523.778	53292.93
523.98	53731.19
524.181	54054.77
524.383	54355.82
524.584	54728.55
524.786	54732.65
524.988	54902.63
525.189	55240.54
525.391	55385.95
525.592	55607.13
525.794	56086.35
525.995	56102.74
526.197	56307.54
526.398	56285.01
526.6	56325.97
526.801	56665.93
527.003	56895.3
527.204	57118.53
527.406	57485.12
527.607	57411.39
527.808	58181.43
528.01	57102.15
528.211	57550.65
528.412	58787.63
528.614	58482.48
528.815	58324.78
529.016	58650.41
529.218	58335.02
529.419	58271.54
529.62	58797.87
529.822	58875.69
530.023	58640.17
530.224	58808.11
530.425	58881.83
530.626	58470.19
530.828	58556.21
531.029	59752.22
531.23	58351.41
531.431	58976.04
531.632	59641.63
531.833	59813.66
532.035	59361.06
532.236	59426.59
532.437	59664.16
532.638	59420.45
532.839	59658.01
533.04	60098.33
533.241	59025.19
533.442	60192.53
533.643	60090.13
533.844	59715.36
534.045	59510.56
534.246	59254.56
534.447	59625.24
534.648	59297.57
534.849	59240.23
535.05	59193.12
535.251	59748.12
535.451	59369.25
535.652	59836.19
535.853	59907.86
536.054	59696.92
536.255	59887.38
536.456	59438.88
536.657	59879.19
536.857	59703.07
537.058	59373.34
537.259	60155.67
537.46	59770.65
537.66	59875.1
537.861	59688.73
538.062	59666.2
538.263	59760.41
538.463	59572
538.664	59240.23
538.865	60026.65
539.065	59944.73
539.266	59348.77
539.466	59678.49
539.667	59039.53
539.868	60270.35
540.068	59576.09
540.269	59309.86
540.469	60071.7
540.67	59815.71
540.87	59674.4
541.071	59320.1
541.271	59649.82
541.472	59367.2
541.672	59320.1
541.873	59737.88
542.073	58797.87
542.274	59891.48
542.474	59490.08
542.675	58928.94
542.875	59561.76
543.075	59559.71
543.276	58535.73
543.476	59762.46
543.676	59004.71
543.877	59352.86
544.077	59209.51
544.277	59217.7
544.478	59244.32
544.678	59477.79
544.878	58984.23
545.078	59272.99
545.279	59074.34
545.479	58937.13
545.679	59330.34
545.879	58947.37
546.079	59182.88
546.28	59119.4
546.48	58459.95
546.68	58883.88
546.88	58732.33
547.08	58949.42
547.28	58607.4
547.48	58212.15
547.68	59014.95
547.88	58320.69
548.081	59207.46
548.281	58558.25
548.481	58853.16
548.681	59227.94
548.881	58490.67
549.081	58820.39
549.28	58717.99
549.48	59043.62
549.68	58437.42
549.88	59193.12
550.08	58509.1
550.28	59256.61
550.48	58482.48
550.68	58701.61
550.88	58105.65
551.08	58105.65
551.279	58505.01
551.479	58187.57
551.679	59066.15
551.879	58404.66
552.079	58519.34
552.278	58437.42
552.478	58429.23
552.678	58427.18
552.878	58371.89
553.077	57945.91
553.277	58324.78
553.477	58672.94
553.676	58392.37
553.876	58314.54
554.076	57993.01
554.275	58552.11
554.475	57784.12
554.674	58003.25
554.874	58027.83
555.074	57808.7
555.273	58167.09
555.473	57839.42
555.672	57749.31
555.872	57640.76
556.071	57769.79
556.271	58218.29
556.47	58115.89
556.67	57132.87
556.869	57069.38
557.068	57855.8
557.268	57438.01
557.467	58085.17
557.667	57304.9
557.866	57550.65
558.065	57222.98
558.265	57249.6
558.464	57020.23
558.663	57673.53
558.863	57028.42
559.062	57900.86
559.261	57235.27
559.461	57800.5
559.66	56401.74
559.859	57126.72
560.058	56641.35
560.258	56862.53
560.457	56205.14
560.656	57036.61
560.855	56659.79
561.054	57159.49
561.253	56297.3
561.453	57014.08
561.652	56663.88
561.851	56414.03
562.05	56381.26
562.249	56033.11
562.448	56864.58
562.647	56446.8
562.846	56315.73
563.045	56215.38
563.244	56110.93
563.443	56559.44
563.642	55535.45
563.841	55797.59
564.04	55658.33
564.239	56174.42
564.438	55324.51
564.637	55783.26
564.836	56119.12
565.035	55152.48
565.234	55758.68
565.432	55373.66
565.631	55373.66
565.83	54904.68
566.029	55113.57
566.228	55347.04
566.427	55295.84
566.625	54652.78
566.824	54343.53
567.023	54818.66
567.222	53935.99
567.42	54830.95
567.619	54542.19
567.818	54464.36
568.016	54265.71
568.215	54628.2
568.414	54296.43
568.612	54536.04
568.811	54030.19
569.01	54392.68
569.208	53518.2
569.407	54013.81
569.605	53473.15
569.804	53596.02
570.002	53415.8
570.201	53471.1
570.4	53243.77
570.598	53014.4
570.797	52889.48
570.995	53424
571.193	52785.03
571.392	52725.64
571.59	52236.17
571.789	52672.39
571.987	52705.16
572.186	52488.07
572.384	52500.36
572.582	52797.32
572.781	52455.31
572.979	51810.2
573.177	52234.13
573.376	52402.06
573.574	51832.72
573.772	52393.87
573.971	51662.74
574.169	51582.87
574.367	51171.23
574.565	51507.1
574.763	51441.56
574.962	51261.34
575.16	50806.69
575.358	51167.13
575.556	50409.39
575.754	50886.56
575.952	50655.14
576.151	50839.46
576.349	50249.64
576.547	50587.56
576.745	50196.4
576.943	50532.26
577.141	50212.78
577.339	50104.24
577.537	49602.49
577.735	49801.14
577.933	49668.02
578.131	49797.04
578.329	49651.64
578.527	49086.4
578.725	48879.55
578.923	49440.7
579.121	48926.66
579.319	48981.95
579.516	49027.01
579.714	48596.93
579.912	48658.37
580.11	48717.76
580.308	48902.08
580.506	48754.63
580.704	47902.67
580.901	48181.2
581.099	48244.68
581.297	47663.06
581.495	47693.78
581.692	48168.91
581.89	47366.1
582.088	47716.31
582.285	47282.14
582.483	47732.69
582.681	47554.52
582.878	47294.42
583.076	46436.33
583.274	47046.62
583.471	46538.72
583.669	46706.66
583.866	46381.03
584.064	46809.06
584.262	45985.77
584.459	46505.96
584.657	45918.19
584.854	46387.17
585.052	45631.47
585.249	45680.63
585.447	45334.52
585.644	45445.11
585.841	45389.81
586.039	45484.02
586.236	45174.78
586.434	44849.15
586.631	44761.09
586.828	45197.3
587.026	44634.11
587.223	44724.22
587.42	44654.59
587.618	44349.45
587.815	43937.8
588.012	44126.22
588.21	44156.94
588.407	44689.41
588.604	44064.78
588.801	43560.98
588.999	43802.64
589.196	43368.47
589.393	43606.03
589.59	43196.44
589.787	43241.49
589.984	43259.93
590.182	42184.74
590.379	42973.21
590.576	42772.51
590.773	42651.68
590.97	42360.87
591.167	42545.19
591.364	41930.79
591.561	42512.42
591.758	41664.56
591.955	42098.73
592.152	42170.41
592.349	41740.33
592.546	41537.58
592.743	41553.97
592.94	40767.55
593.137	41660.46
593.334	41363.51
593.531	40759.36
593.727	41078.84
593.924	41179.19
594.121	40616
594.318	40888.38
594.515	40233.03
594.712	40943.67
594.908	40355.91
595.105	40505.41
595.302	39721.04
595.499	40382.53
595.696	39665.74
595.892	39833.67
596.089	39723.08
596.286	39622.73
596.482	39616.59
596.679	39536.72
596.876	39432.27
597.072	39037.01
597.269	39006.3
597.466	38547.55
597.662	38715.48
597.859	38416.48
598.055	38449.25
598.252	38604.89
598.448	38058.09
598.645	38197.35
598.841	37828.71
599.038	38254.69
599.234	37777.51
599.431	37675.12
599.627	37681.26
599.824	37867.62
600.02	37163.12
600.217	37474.41
600.413	37331.06
600.609	36868.22
600.806	36989.05
601.002	37195.89
601.198	36800.63
601.395	36669.56
601.591	36296.83
601.787	36511.87
601.984	36280.45
602.18	36477.05
602.376	36130.95
602.572	36073.6
602.769	35874.95
602.965	35707.02
603.161	35537.04
603.357	35440.78
603.553	35395.73
603.75	35070.1
603.946	35494.03
604.142	35334.29
604.338	34631.83
604.534	35252.37
604.73	34795.67
604.926	34916.5
605.122	34683.03
605.318	34949.27
605.514	34230.43
605.71	34001.06
605.906	34314.4
606.102	34232.48
606.298	34261.15
606.494	34052.26
606.69	34074.79
606.886	34191.52
607.082	33683.62
607.278	34074.79
607.474	33351.85
607.67	33665.19
607.866	33362.09
608.062	33654.95
608.257	33476.78
608.453	33269.93
608.649	33452.2
608.845	32856.25
609.041	32874.68
609.236	32972.98
609.432	32643.26
609.628	32854.2
609.824	32852.15
610.019	32571.58
610.215	32813.24
610.411	32972.98
610.606	32614.58
610.802	32506.04
610.998	32503.99
611.193	32542.91
611.389	32637.11
611.584	32374.97
611.78	32065.73
611.976	32065.73
612.171	32192.7
612.367	32155.84
612.562	31713.48
612.758	31234.25
612.953	31391.95
613.149	31891.65
613.344	31754.44
613.539	31887.56
613.735	31539.4
613.93	31725.77
614.126	31467.72
614.321	31752.39
614.517	31430.86
614.712	31058.13
614.907	31082.7
615.103	31463.63
615.298	30910.67
615.493	31652.04
615.688	30810.32
615.884	31658.18
616.079	30537.94
616.274	31168.72
616.47	30707.93
616.665	30793.94
616.86	30431.45
617.055	30703.83
617.25	30628.06
617.445	30464.22
617.641	30021.86
617.836	30073.06
618.031	29487.34
618.226	30284
618.421	30109.92
618.616	30079.2
618.811	29532.39
619.006	30019.81
619.201	29257.96
619.396	29528.3
619.591	28926.19
619.786	29475.05
619.981	29059.31
620.176	29403.37
620.371	28754.16
620.566	28907.76
620.761	28731.64
620.956	28819.7
621.151	28213.5
621.346	28416.25
621.541	27736.32
621.735	28344.57
621.93	27470.09
622.125	27994.37
622.32	27506.95
622.515	27652.36
622.709	27343.11
622.904	27189.52
623.099	27472.14
623.294	27113.74
623.488	26835.22
623.683	26859.79
623.878	26550.55
624.072	26540.31
624.267	26548.5
624.462	26126.62
624.656	26007.84
624.851	26237.21
625.046	25987.36
625.24	25549.09
625.435	25471.27
625.629	25588
625.824	25393.45
626.018	25340.2
626.213	24699.19
626.407	25202.99
626.602	24809.78
626.796	24903.98
626.991	24805.68
627.185	24492.34
627.38	24303.93
627.574	23896.38
627.768	24166.71
627.963	23982.4
628.157	23910.72
628.352	23867.71
628.546	23091.53
628.74	23546.18
628.935	23417.16
629.129	23343.43
629.323	22825.29
629.517	23034.19
629.712	23267.66
629.906	22686.03
630.1	22341.97
630.294	22718.8
630.489	22262.1
630.683	22559.06
630.877	22110.55
631.071	22206.81
631.265	22215
631.459	21717.34
631.653	21514.59
631.848	21485.92
632.042	21512.55
632.236	21703.01
632.43	21068.14
632.624	21277.03
632.818	20996.46
633.012	20748.65
633.206	20840.81
633.4	20906.35
633.594	20570.48
633.788	20611.44
633.982	20468.08
634.176	20269.43
634.369	20191.61
634.563	20187.51
634.757	20195.7
634.951	20238.71
635.145	20005.24
635.339	19579.26
635.533	19501.44
635.726	19777.92
635.92	19396.99
636.114	19480.96
636.308	19210.63
636.501	19290.5
636.695	19206.53
636.889	19095.94
637.083	18862.47
637.276	18602.38
637.47	18604.43
637.664	18817.42
637.857	18487.7
638.051	18479.5
638.244	18123.16
638.438	18274.71
638.632	18379.15
638.825	18334.1
639.019	17709.47
639.212	17793.44
639.406	17656.22
639.599	17605.02
639.793	17688.99
639.986	17211.81
640.18	17316.26
640.373	17398.18
640.567	17160.61
640.76	17045.93
640.954	16947.62
641.147	17004.97
641.34	16791.98
641.534	16775.59
641.727	16785.83
641.92	16728.49
642.114	16507.31
642.307	16656.81
642.5	16329.14
642.694	16277.94
642.887	16251.31
643.08	16081.33
643.273	15923.64
643.467	16052.66
643.66	15671.74
643.853	15702.46
644.046	15536.57
644.239	15499.71
644.432	15444.41
644.626	15702.46
644.819	15325.63
645.012	15608.25
645.205	15432.13
645.398	15010.25
645.591	14854.6
645.784	14989.77
645.977	14703.05
646.17	14997.96
646.363	14832.07
646.556	14514.64
646.749	14377.42
646.942	14617.04
647.135	14326.22
647.328	14363.09
647.521	14406.09
647.714	14084.56
647.907	14207.44
648.099	14246.35
648.292	14006.74
648.485	14053.84
648.678	13728.22
648.871	13695.45
649.064	13771.22
649.256	13777.37
649.449	13543.9
649.642	13423.07
649.835	13625.82
650.027	13367.77
650.22	13246.94
650.413	13160.93
650.605	13244.9
650.798	12984.8
650.991	12949.99
651.183	12917.22
651.376	12614.12
651.568	13072.87
651.761	12712.42
651.954	12659.18
652.146	12466.67
652.339	12401.13
652.531	12384.75
652.724	12573.16
652.916	12225.01
653.109	12419.57
653.301	12253.68
653.494	12372.46
653.686	12079.6
653.879	12286.45
654.071	11874.81
654.263	11966.96
654.456	11829.75
654.648	12001.78
654.84	11612.67
655.033	11620.86
655.225	11688.44
655.417	11520.51
655.61	11614.71
655.802	11366.91
655.994	11170.3
656.186	11440.64
656.379	11168.26
656.571	11198.98
656.763	11084.29
656.955	10793.48
657.148	11026.95
657.34	11166.21
657.532	10846.73
657.724	11018.75
657.916	10750.47
658.108	10852.87
658.3	10908.16
658.492	10877.44
658.684	10574.35
658.876	10600.97
659.068	10582.54
659.26	10420.75
659.452	10517
659.644	10330.64
659.836	10027.54
660.028	10160.66
660.22	10148.37
660.412	10041.87
660.604	10174.99
660.796	9865.75
660.988	10162.7
661.18	9982.48
661.372	9849.36
661.563	9849.36
661.755	9671.19
661.947	9646.62
662.139	9630.23
662.331	9673.24
662.522	9595.42
662.714	9341.47
662.906	9423.39
663.097	9431.58
663.289	9345.56
663.481	9126.43
663.673	9302.56
663.864	9224.73
664.056	9239.07
664.247	9249.31
664.439	9030.18
664.631	9019.94
664.822	9114.14
665.014	8866.34
665.205	9095.71
665.397	9021.99
665.588	8839.72
665.78	8772.13
665.971	8702.5
666.163	8970.79
666.354	8624.68
666.546	8501.8
666.737	8624.68
666.929	8714.79
667.12	8553
667.311	8399.4
667.503	8448.55
667.694	8213.04
667.885	8290.86
668.077	8370.73
668.268	8084.02
668.459	8290.86
668.651	8323.63
668.842	8137.26
669.033	7989.81
669.224	7940.66
669.416	8038.96
669.607	7797.3
669.798	7911.99
669.989	7854.64
670.18	7805.49
670.371	7834.16
670.563	7584.31
670.754	7787.06
670.945	7602.74
671.136	7455.29
671.327	7676.47
671.518	7649.85
671.709	7569.98
671.9	7592.5
672.091	7436.86
672.282	7463.48
672.473	7406.14
672.664	7373.37
672.855	7242.3
673.046	7305.79
673.237	7522.87
673.428	7309.88
673.619	7182.91
673.809	7217.72
674	7199.29
674.191	7205.44
674.382	7019.07
674.573	7217.72
674.764	7027.26
674.954	7129.66
675.145	7076.41
675.336	6939.2
675.527	6928.96
675.717	7002.69
675.908	6994.5
676.099	6740.55
676.289	6871.62
676.48	6959.68
676.671	6605.38
676.861	6765.12
677.052	6824.51
677.243	6910.53
677.433	6652.49
677.624	6695.49
677.814	6523.46
678.005	6543.94
678.195	6593.09
678.386	6556.23
678.576	6330.95
678.767	6681.16
678.957	6541.89
679.148	6562.37
679.338	6451.78
679.529	6447.69
679.719	6412.87
679.909	6502.98
680.1	6308.43
680.29	6349.39
680.481	6365.77
680.671	6392.39
680.861	6396.49
681.052	6257.23
681.242	6277.71
681.432	6384.2
681.622	6199.88
681.813	6195.79
682.003	6120.01
682.193	6179.4
682.383	6224.46
682.573	6179.4
682.764	6210.12
682.954	6023.76
683.144	6199.88
683.334	6232.65
683.524	6029.9
683.714	6074.96
683.904	6029.9
684.094	6113.87
684.284	6105.68
684.474	5997.14
684.664	5954.13
684.854	5890.64
685.044	5950.03
685.234	5876.3
685.424	5933.65
685.614	5720.66
685.804	5757.52
685.994	5726.8
686.184	5816.91
686.374	5565.01
686.564	5837.39
686.753	5790.29
686.943	5513.81
687.133	5657.17
687.323	5587.54
687.513	5720.66
687.702	5640.79
687.892	5491.29
688.082	5534.29
688.272	5513.81
688.461	5462.62
688.651	5519.96
688.841	5392.98
689.03	5536.34
689.22	5290.59
689.41	5454.42
689.599	5292.63
689.789	5347.93
689.979	5225.05
690.168	5296.73
690.358	5356.12
690.547	5161.56
690.737	5128.8
690.926	5098.08
691.116	5243.48
691.305	4938.34
691.495	5186.14
691.684	4924
691.874	5143.13
692.063	4887.14
692.252	5091.93
692.442	4909.66
692.631	4856.42
692.82	4956.77
693.01	4842.08
693.199	4825.7
693.388	4776.55
693.578	4940.38
693.767	4719.2
693.956	4790.88
694.146	4758.11
694.335	4823.65
694.524	4729.44
694.713	4637.28
694.902	4717.15
695.092	4778.59
695.281	4467.3
695.47	4704.87
695.659	4692.58
695.848	4442.73
696.037	4573.8
696.226	4543.08
696.415	4696.67
696.604	4645.48
696.793	4553.32
696.982	4567.65
697.171	4504.17
697.36	4516.45
697.549	4377.19
697.738	4471.4
697.927	4403.82
698.116	4336.23
698.305	4416.1
698.494	4383.34
698.683	4364.9
698.872	4416.1
699.061	4440.68
699.25	4457.06
699.438	4426.34
699.627	4342.38
699.816	4325.99
700.005	4307.56
700.193	4239.98
700.382	4330.09
700.571	4336.23
700.76	4178.54
700.948	4213.35
701.137	4055.66
701.326	4291.18
701.514	4201.07
701.703	4336.23
701.892	4127.34
702.08	4229.74
702.269	4129.39
702.457	3979.89
702.646	4082.28
702.834	4137.58
703.023	4029.04
703.212	4045.42
703.4	4008.56
703.589	4020.85
703.777	3943.02
703.965	4063.85
704.154	4053.61
704.342	3938.93
704.531	3912.3
704.719	3981.93
704.907	3926.64
705.096	3928.69
705.284	4010.61
705.472	3943.02
705.661	3945.07
705.849	3902.06
706.037	3897.97
706.226	3969.65
706.414	3914.35
706.602	3689.07
706.79	3943.02
706.979	3744.37
707.167	3799.66
707.355	3826.29
707.543	3791.47
707.731	3691.12
707.919	3826.29
708.107	3668.59
708.296	3783.28
708.484	3652.21
708.672	3631.73
708.86	3687.03
709.048	3703.41
709.236	3617.4
709.424	3596.92
709.612	3617.4
709.8	3701.36
709.988	3543.67
710.176	3529.33
710.364	3492.47
710.551	3564.15
710.739	3443.32
710.927	3555.96
711.115	3566.2
711.303	3359.35
711.491	3670.64
711.679	3537.52
711.866	3562.1
712.054	3541.62
712.242	3441.27
712.43	3558
712.617	3410.55
712.805	3504.76
712.993	3492.47
713.181	3418.74
713.368	3480.18
713.556	3414.65
713.744	3480.18
713.931	3361.4
714.119	3351.16
714.306	3496.57
714.494	3338.87
714.682	3334.78
714.869	3328.63
715.057	3476.09
715.244	3349.11
715.432	3443.32
715.619	3334.78
715.807	3361.4
715.994	3250.81
716.182	3349.11
716.369	3336.82
716.556	3299.96
716.744	3295.86
716.931	3293.82
717.119	3299.96
717.306	3205.75
717.493	3261.05
717.681	3242.62
717.868	3361.4
718.055	3125.88
718.242	3158.65
718.43	3203.71
718.617	3201.66
718.804	3107.45
718.991	3121.79
719.179	3037.82
719.366	3140.22
719.553	3111.55
719.74	3215.99
719.927	3084.92
720.114	3250.81
720.301	3195.51
720.488	3185.27
720.676	3164.79
720.863	3093.12
721.05	3062.4
721.237	3086.97
721.424	3015.29
721.611	3099.26
721.798	2921.09
721.985	3015.29
722.172	2902.65
722.358	2882.17
722.545	3072.64
722.732	2998.91
722.919	3082.88
723.106	2947.71
723.293	2996.86
723.48	2976.38
723.667	2957.95
723.853	2910.85
724.04	2955.9
724.227	2859.65
724.414	2941.57
724.6	2867.84
724.787	2935.42
724.974	2914.94
725.161	2876.03
725.347	2828.93
725.534	2960
725.72	2863.74
725.907	2826.88
726.094	2919.04
726.28	2798.21
726.467	2704
726.653	2759.3
726.84	2685.57
727.027	2771.58
727.213	2753.15
727.4	2837.12
727.586	2796.16
727.773	2898.56
727.959	2759.3
728.145	2816.64
728.332	2683.52
728.518	2628.23
728.705	2820.74
728.891	2734.72
729.077	2689.67
729.264	2605.7
729.45	2742.91
729.636	2742.91
729.823	2595.46
730.009	2742.91
730.195	2775.68
730.382	2738.82
730.568	2622.08
730.754	2570.88
730.94	2783.87
731.126	2679.43
731.313	2605.7
731.499	2583.17
731.685	2570.88
731.871	2632.32
732.057	2607.75
732.243	2503.3
732.429	2648.71
732.615	2636.42
732.801	2579.08
732.987	2613.89
733.173	2652.8
733.359	2564.74
733.545	2603.65
733.731	2515.59
733.917	2589.32
734.103	2665.09
734.289	2415.24
734.475	2495.11
734.661	2650.75
734.847	2714.24
735.033	2417.29
735.219	2378.37
735.404	2554.5
735.59	2427.53
735.776	2497.16
735.962	2495.11
736.148	2591.36
736.333	2499.2
736.519	2488.96
736.705	2443.91
736.89	2497.16
737.076	2382.47
737.262	2431.62
737.447	2413.19
737.633	2437.77
737.819	2355.85
738.004	2318.98
738.19	2296.46
738.375	2441.86
738.561	2445.96
738.747	2335.37
738.932	2349.7
739.118	2443.91
739.303	2271.88
739.489	2337.41
739.674	2347.65
739.859	2407.05
740.045	2275.98
740.23	2243.21
740.416	2251.4
740.601	2179.72
740.786	2288.26
740.972	2144.91
741.157	2308.74
741.342	2316.94
741.528	2099.85
741.713	2220.68
741.898	2206.34
742.084	2194.06
742.269	2149
742.454	2114.19
742.639	2169.48
742.824	2173.58
743.01	2230.92
743.195	2257.54
743.38	2146.95
743.565	2212.49
743.75	2081.42
743.935	2153.1
744.12	2198.15
744.305	2128.52
744.49	2028.17
744.675	2099.85
744.86	2075.27
745.045	2079.37
745.23	2095.75
745.415	1983.12
745.6	2171.53
745.785	2118.28
745.97	2128.52
746.155	1983.12
746.34	1927.82
746.525	2052.75
746.71	2046.6
746.895	2001.55
747.079	2017.93
747.264	1915.53
747.449	1960.59
747.634	1866.38
747.819	1868.43
748.003	1837.71
748.188	1776.27
748.373	1909.39
748.557	1841.81
748.742	1741.46
748.927	1850
749.111	1811.09
749.296	1858.19
749.481	1725.07
749.665	1876.62
749.85	1714.83
750.034	1804.94
750.219	1696.4
750.404	1747.6
750.588	1727.12
750.773	1729.17
750.957	1696.4
751.141	1733.26
751.326	1620.63
751.51	1688.21
751.695	1577.62
751.879	1602.19
752.064	1553.04
752.248	1573.52
752.432	1624.72
752.617	1686.16
752.801	1608.34
752.985	1608.34
753.17	1639.06
753.354	1577.62
753.538	1589.91
753.722	1489.56
753.907	1542.8
754.091	1530.52
754.275	1575.57
754.459	1432.21
754.643	1448.6
754.828	1460.88
755.012	1456.79
755.196	1485.46
755.38	1350.29
755.564	1342.1
755.748	1383.06
755.932	1471.12
756.116	1458.84
756.3	1305.24
756.484	1329.81
756.668	1342.1
756.852	1323.67
757.036	1374.87
757.22	1243.8
757.404	1383.06
757.588	1251.99
757.772	1249.94
757.956	1237.66
758.14	1333.91
758.323	1292.95
758.507	1292.95
758.691	1170.07
758.875	1295
759.059	1292.95
759.242	1260.18
759.426	1211.03
759.61	1137.31
759.794	1145.5
759.977	1204.89
760.161	1219.22
760.345	1122.97
760.528	1129.11
760.712	1221.27
760.895	1211.03
761.079	1114.78
761.263	1182.36
761.446	1071.77
761.63	1188.5
761.813	1159.83
761.997	1065.63
762.18	1157.78
762.364	1163.93
762.547	952.99
762.731	1049.24
762.914	1141.4
763.098	1104.54
763.281	1096.35
763.464	1157.78
763.648	1149.59
763.831	1100.44
764.015	1055.39
764.198	1100.44
764.381	1047.19
764.564	1077.91
764.748	1041.05
764.931	981.66
765.114	991.9
765.297	983.71
765.481	1067.67
765.664	934.56
765.847	955.04
766.03	1104.54
766.213	967.32
766.397	977.56
766.58	1057.43
766.763	1047.19
766.946	973.47
767.129	955.04
767.312	963.23
767.495	1022.62
767.678	985.76
767.861	961.18
768.044	940.7
768.227	975.52
768.41	877.21
768.593	903.84
768.776	842.4
768.959	950.94
769.142	981.66
769.324	891.55
769.507	981.66
769.69	1002.14
769.873	807.58
770.056	1014.43
770.239	950.94
770.421	879.26
770.604	957.08
770.787	909.98
770.97	844.45
771.152	817.82
771.335	866.97
771.518	811.68
771.7	928.41
771.883	895.64
772.066	850.59
772.248	883.36
772.431	891.55
772.613	893.6
772.796	858.78
772.978	836.25
773.161	838.3
773.343	785.05
773.526	805.53
773.708	842.4
773.891	760.48
774.073	758.43
774.256	772.77
774.438	828.06
774.621	758.43
774.803	817.82
774.985	705.18
775.168	740
775.35	840.35
775.532	811.68
775.715	723.62
775.897	713.38
776.079	780.96
776.261	729.76
776.444	703.14
776.626	617.12
776.808	676.51
776.99	694.94
777.173	696.99
777.355	744.1
777.537	744.1
777.719	705.18
777.901	686.75
778.083	633.5
778.265	682.66
778.447	725.66
778.629	645.79
778.811	676.51
778.993	686.75
779.175	639.65
779.357	621.22
779.539	672.42
779.721	627.36
779.903	608.93
780.085	639.65
780.267	686.75
780.449	670.37
780.631	563.87
780.812	582.31
780.994	656.03
781.176	613.03
781.358	565.92
781.54	606.88
781.721	613.03
781.903	617.12
782.085	547.49
782.267	651.94
782.448	588.45
782.63	494.24
782.812	598.69
782.993	490.15
783.175	449.19
783.357	475.81
783.538	547.49
783.72	490.15
783.901	486.05
784.083	408.23
784.264	500.39
784.446	506.53
784.627	496.29
784.809	506.53
784.99	516.77
785.172	449.19
785.353	522.91
785.535	391.84
785.716	451.24
785.897	500.39
786.079	547.49
786.26	424.61
786.441	467.62
786.623	367.27
786.804	449.19
786.985	543.39
787.167	494.24
787.348	371.36
787.529	426.66
787.71	490.15
787.891	416.42
788.073	383.65
788.254	459.43
788.435	465.57
788.616	410.28
788.797	404.13
788.978	367.27
789.159	400.04
789.34	441
789.522	350.89
789.703	449.19
789.884	416.42
790.065	385.7
790.246	428.71
790.427	367.27
790.607	432.8
790.788	416.42
790.969	359.08
791.15	363.17
791.331	344.74
791.512	377.51
791.693	303.78
791.874	408.23
792.054	441
792.235	428.71
792.416	330.41
792.597	326.31
792.778	309.93
792.958	410.28
793.139	318.12
793.32	340.65
793.5	357.03
793.681	293.54
793.862	387.75
794.042	385.7
794.223	275.11
794.404	303.78
794.584	244.39
794.765	228.01
794.945	303.78
795.126	311.97
795.306	363.17
795.487	367.27
795.667	336.55
795.848	369.32
796.028	258.73
796.209	299.69
796.389	352.93
796.57	293.54
796.75	199.34
796.93	228.01
797.111	297.64
797.291	346.79
797.471	336.55
797.652	256.68
797.832	277.16
798.012	346.79
798.192	244.39
798.373	285.35
798.553	268.97
798.733	322.21
798.913	285.35
799.093	228.01
799.274	318.12
799.454	281.25
799.634	262.82
799.814	238.25
799.994	277.16
800.174	275.11
800.354	252.58
800.534	256.68
800.714	262.82
800.894	262.82
801.074	246.44
801.254	268.97
801.434	324.26
801.614	232.1
801.794	197.29
801.974	727.71
802.154	232.1
802.334	369.32
802.514	230.06
802.693	225.96
802.873	197.29
803.053	256.68
803.233	246.44
803.413	205.48
803.592	291.49
803.772	250.53
803.952	244.39
804.131	164.52
804.311	309.93
804.491	244.39
804.67	187.05
804.85	299.69
805.03	281.25
805.209	342.69
805.389	174.76
805.568	244.39
805.748	217.77
805.928	131.75
806.107	232.1
806.287	195.24
806.466	236.2
806.646	195.24
806.825	236.2
807.004	281.25
807.184	232.1
807.363	162.47
807.543	201.38
807.722	217.77
807.901	264.87
808.081	230.06
808.26	109.22
808.439	228.01
808.619	228.01
808.798	232.1
808.977	172.71
809.156	133.8
809.336	170.66
809.515	191.14
809.694	129.7
809.873	213.67
810.052	228.01
810.231	211.62
810.411	213.67
810.59	203.43
810.769	144.04
810.948	197.29
811.127	115.37
811.306	174.76
811.485	156.33
811.664	234.15
811.843	187.05
812.022	168.62
812.201	195.24
812.38	178.86
812.559	168.62
812.737	193.19
812.916	154.28
813.095	150.18
813.274	187.05
813.453	107.18
813.632	197.29
813.811	193.19
813.989	146.09
814.168	123.56
814.347	125.61
814.526	170.66
814.704	180.9
814.883	133.8
815.062	115.37
815.24	250.53
815.419	137.9
815.598	172.71
815.776	162.47
815.955	228.01
816.133	84.65
816.312	195.24
816.49	88.75
816.669	141.99
816.847	119.46
817.026	166.57
817.204	180.9
817.383	135.85
817.561	150.18
817.74	185
817.918	141.99
818.097	88.75
818.275	88.75
818.453	162.47
818.632	180.9
818.81	150.18
818.988	62.12
819.167	88.75
819.345	47.79
819.523	139.94
819.701	121.51
819.879	219.82
820.058	129.7
820.236	154.28
820.414	199.34
820.592	141.99
820.77	109.22
820.948	121.51
821.127	72.36
821.305	92.84
821.483	64.17
821.661	135.85
821.839	197.29
822.017	88.75
822.195	98.99
822.373	117.42
822.551	64.17
822.729	72.36
822.907	82.6
823.085	90.79
823.262	164.52
823.44	86.7
823.618	131.75
823.796	98.99
823.974	88.75
824.152	49.83
824.329	72.36
824.507	107.18
824.685	86.7
824.863	135.85
825.04	105.13
825.218	131.75
825.396	205.48
825.574	135.85
825.751	43.69
825.929	166.57
826.107	33.45
826.284	156.33
826.462	113.32
826.639	88.75
826.817	35.5
826.994	64.17
827.172	107.18
827.349	111.27
827.527	113.32
827.704	152.23
827.882	137.9
828.059	146.09
828.237	66.22
828.414	119.46
828.591	8.87
828.769	31.4
828.946	137.9
829.124	105.13
829.301	123.56
829.478	80.55
829.655	115.37
829.833	117.42
830.01	88.75
830.187	53.93
830.364	58.03
830.542	55.98
830.719	154.28
830.896	113.32
831.073	125.61
831.25	146.09
831.427	-11.61
831.604	96.94
831.782	49.83
831.959	39.59
832.136	92.84
832.313	33.45
832.49	19.11
832.667	58.03
832.844	86.7
833.021	178.86
833.198	156.33
833.374	55.98
833.551	60.07
833.728	117.42
833.905	156.33
834.082	60.07
834.259	123.56
834.436	88.75
834.612	12.97
834.789	96.94
834.966	68.27
835.143	62.12
835.319	117.42
835.496	203.43
835.673	88.75
835.85	58.03
836.026	129.7
836.203	82.6
836.38	4.78
836.556	113.32
836.733	86.7
836.909	47.79
837.086	53.93
837.262	-9.56
837.439	92.84
837.616	123.56
837.792	88.75
837.968	101.03
838.145	43.69
838.321	88.75
838.498	47.79
838.674	51.88
838.851	78.51
839.027	84.65
839.203	47.79
839.38	17.07
839.556	51.88
839.732	72.36
839.909	58.03
840.085	74.41
840.261	0.68
840.437	64.17
840.614	55.98
840.79	76.46
840.966	43.69
841.142	80.55
841.318	19.11
841.494	49.83
841.671	47.79
841.847	92.84
842.023	35.5
842.199	105.13
842.375	84.65
842.551	27.31
842.727	58.03
842.903	88.75
843.079	88.75
843.255	60.07
843.431	43.69
843.607	115.37
843.783	39.59
843.959	31.4
844.134	117.42
844.31	33.45
844.486	6.83
844.662	39.59
844.838	-1.37
845.013	113.32
845.189	41.64
845.365	25.26
845.541	15.02
845.716	66.22
845.892	94.89
846.068	-1.37
846.244	96.94
846.419	105.13
846.595	15.02
846.77	70.31
846.946	121.51
847.122	60.07
847.297	-9.56
847.473	41.64
847.648	-17.75
847.824	107.18
847.999	115.37
848.175	39.59
848.35	66.22
848.526	121.51
848.701	8.87
848.876	-19.8
849.052	113.32
849.227	43.69
849.403	68.27
849.578	33.45
849.753	51.88
849.929	109.22
850.104	72.36
850.279	74.41
850.454	88.75
850.63	74.41
850.805	86.7
850.98	105.13
851.155	47.79
851.33	17.07
851.505	-5.46
851.681	80.55
851.856	6.83
852.031	72.36
852.206	55.98
852.381	43.69
852.556	23.21
852.731	45.74
852.906	21.16
853.081	115.37
853.256	10.92
853.431	21.16
853.606	82.6
853.781	92.84
853.956	-1.37
854.131	47.79
854.305	49.83
854.48	-30.04
854.655	27.31
854.83	29.35
855.005	47.79
855.18	21.16
855.354	72.36
855.529	-32.08
855.704	-30.04
855.879	-15.7
856.053	-1.37
856.228	64.17
856.403	25.26
856.577	31.4
856.752	31.4
856.926	33.45
857.101	-9.56
857.276	-50.52
857.45	78.51
857.625	64.17
857.799	23.21
857.974	60.07
858.148	-9.56
858.323	68.27
858.497	-13.65
858.672	-23.89
858.846	-3.41
859.02	39.59
859.195	39.59
859.369	15.02
859.543	74.41
859.718	96.94
859.892	-9.56
860.066	-17.75
860.241	-1.37
860.415	4.78
860.589	-13.65
860.763	-19.8
860.938	-91.48
861.112	55.98
861.286	80.55
861.46	-1.37
861.634	41.64
861.808	15.02
861.982	43.69
862.157	31.4
862.331	55.98
862.505	-50.52
862.679	47.79
862.853	-9.56
863.027	-9.56
863.201	2.73
863.375	72.36
863.549	19.11
863.722	4.78
863.896	154.28
864.07	-15.7
864.244	-7.51
864.418	-1.37
864.592	58.03
864.766	-32.08
864.939	47.79
865.113	-56.66
865.287	115.37
865.461	31.4
865.634	31.4
865.808	68.27
865.982	51.88
866.156	-32.08
866.329	2.73
866.503	47.79
866.676	80.55
866.85	96.94
867.024	19.11
867.197	-13.65
867.371	-23.89
867.544	41.64
867.718	15.02
867.891	117.42
868.065	23.21
868.238	-23.89
868.412	76.46
868.585	55.98
868.759	90.79
868.932	-23.89
869.105	72.36
869.279	-17.75
869.452	-7.51
869.625	68.27
869.799	29.35
869.972	-9.56
870.145	33.45
870.319	58.03
870.492	39.59
870.665	27.31
870.838	-21.85
871.011	-64.85
871.185	-5.46
871.358	31.4
871.531	33.45
871.704	-34.13
871.877	39.59
872.05	-7.51
872.223	60.07
872.396	39.59
872.569	-9.56
872.742	21.16
872.915	39.59
873.088	-42.32
873.261	-19.8
873.434	19.11
873.607	0.68
873.78	64.17
873.953	-13.65
874.126	-11.61
874.299	31.4
874.471	4.78
874.644	53.93
874.817	41.64
874.99	148.14
875.163	-30.04
875.335	6.83
875.508	88.75
875.681	6.83
875.853	15.02
876.026	76.46
876.199	-7.51
876.371	43.69
876.544	43.69
876.717	-81.24
876.889	-83.28
877.062	23.21
877.234	6.83
877.407	-1.37
877.579	-1.37
877.752	58.03
877.924	43.69
878.097	-27.99
878.269	-25.94
878.442	47.79
878.614	86.7
878.786	19.11
878.959	41.64
879.131	33.45
879.303	25.26
879.476	78.51
879.648	-27.99
879.82	-5.46
879.993	-21.85
880.165	-13.65
880.337	-73.04
880.509	-13.65
880.681	60.07
880.854	0.68
881.026	39.59
881.198	47.79
881.37	-71
881.542	15.02
881.714	31.4
881.886	49.83
882.058	-46.42
882.23	-21.85
882.402	8.87
882.574	35.5
882.746	109.22
882.918	66.22
883.09	-44.37
883.262	43.69
883.434	39.59
883.606	-25.94
883.778	76.46
883.95	17.07
884.122	35.5
884.293	49.83
884.465	-34.13
884.637	72.36
884.809	41.64
884.98	19.11
885.152	23.21
885.324	-9.56
885.496	31.4
885.667	-32.08
885.839	29.35
886.011	55.98
886.182	0.68
886.354	25.26
886.525	4.78
886.697	-1.37
886.869	31.4
887.04	10.92
887.212	78.51
887.383	68.27
887.555	53.93
887.726	55.98
887.897	55.98
888.069	49.83
888.24	-1.37
888.412	-1.37
888.583	0.68
888.754	-30.04
888.926	62.12
889.097	47.79
889.268	25.26
889.44	64.17
889.611	2.73
889.782	-38.23
889.953	15.02
890.125	72.36
890.296	-38.23
890.467	53.93
890.638	15.02
890.809	66.22
890.98	31.4
891.151	33.45
891.323	53.93
891.494	23.21
891.665	4.78
891.836	0.68
892.007	-32.08
892.178	-17.75
892.349	2.73
892.52	-1.37
892.691	31.4
892.862	84.65
893.032	-58.71
893.203	0.68
893.374	17.07
893.545	8.87
893.716	-13.65
893.887	-25.94
894.057	-52.56
894.228	8.87
894.399	41.64
894.57	64.17
894.74	-58.71
894.911	68.27
895.082	66.22
895.253	-38.23
895.423	-11.61
895.594	-15.7
895.764	53.93
895.935	41.64
896.106	-42.32
896.276	-46.42
896.447	27.31
896.617	8.87
896.788	-19.8
896.958	-66.9
897.129	-1.37
897.299	-17.75
897.47	6.83
897.64	53.93
897.81	-25.94
897.981	53.93
898.151	17.07
898.322	-46.42
898.492	15.02
898.662	15.02
898.832	-1.37
899.003	0.68
899.173	-13.65
899.343	-5.46
899.513	-5.46
