Data from USB4F104151__105__14-18-12-176.txt Node

Date: Thu Mar 13 14:18:12 EDT 2025
User: louis
Spectrometer: USB4F10415
Trigger mode: 4
Integration Time (sec): 2.000000E-2
Scans to average: 1
Electric dark correction enabled: true
Nonlinearity correction enabled: false
Boxcar width: 0
XAxis mode: Wavelengths
Number of Pixels in Spectrum: 3648
>>>>>Begin Spectral Data<<<<<
178.204	-54.27
178.424	-54.27
178.644	-54.27
178.864	-158.72
179.084	-111.61
179.304	9.22
179.524	-107.52
179.744	17.41
179.964	-9.22
180.184	27.65
180.404	17.41
180.624	64.51
180.844	-37.89
181.064	25.6
181.283	15.36
181.503	-56.32
181.723	33.79
181.943	-113.66
182.163	39.94
182.383	17.41
182.602	58.37
182.822	56.32
183.042	25.6
183.262	-60.42
183.482	21.5
183.701	23.55
183.921	9.22
184.141	-11.26
184.361	13.31
184.58	-1.02
184.8	-37.89
185.02	-9.22
185.239	-1.02
185.459	-13.31
185.679	-1.02
185.898	-62.46
186.118	13.31
186.338	-39.94
186.557	58.37
186.777	-41.98
186.997	48.13
187.216	-52.22
187.436	56.32
187.655	52.22
187.875	9.22
188.095	7.17
188.314	27.65
188.534	11.26
188.753	48.13
188.973	91.13
189.192	99.33
189.412	41.98
189.631	64.51
189.851	-11.26
190.07	-27.65
190.29	-1.02
190.509	31.74
190.729	-1.02
190.948	35.84
191.168	87.04
191.387	56.32
191.607	23.55
191.826	54.27
192.045	-35.84
192.265	17.41
192.484	-21.5
192.704	56.32
192.923	27.65
193.142	60.42
193.362	17.41
193.581	39.94
193.8	39.94
194.02	101.37
194.239	-29.7
194.458	27.65
194.678	17.41
194.897	76.8
195.116	58.37
195.335	-44.03
195.555	1.02
195.774	72.7
195.993	-35.84
196.212	-1.02
196.432	-17.41
196.651	-9.22
196.87	-70.65
197.089	111.61
197.308	21.5
197.528	99.33
197.747	-41.98
197.966	-33.79
198.185	35.84
198.404	62.46
198.623	15.36
198.842	-19.46
199.062	-5.12
199.281	50.18
199.5	-46.08
199.719	39.94
199.938	66.56
200.157	68.61
200.376	17.41
200.595	46.08
200.814	62.46
201.033	13.31
201.252	-1.02
201.471	-17.41
201.69	13.31
201.909	35.84
202.128	33.79
202.347	23.55
202.566	-48.13
202.785	31.74
203.004	80.89
203.223	113.66
203.442	-44.03
203.661	7.17
203.879	31.74
204.098	29.7
204.317	35.84
204.536	-33.79
204.755	23.55
204.974	-60.42
205.193	-23.55
205.411	113.66
205.63	-39.94
205.849	-17.41
206.068	-9.22
206.287	-17.41
206.505	3.07
206.724	7.17
206.943	-3.07
207.162	-9.22
207.381	23.55
207.599	-25.6
207.818	48.13
208.037	-23.55
208.255	19.46
208.474	64.51
208.693	-5.12
208.911	35.84
209.13	-5.12
209.349	29.7
209.567	39.94
209.786	-17.41
210.005	11.26
210.223	44.03
210.442	-7.17
210.661	-9.22
210.879	-5.12
211.098	17.41
211.316	19.46
211.535	44.03
211.753	3.07
211.972	-21.5
212.191	39.94
212.409	58.37
212.628	13.31
212.846	44.03
213.065	64.51
213.283	113.66
213.502	17.41
213.72	-39.94
213.938	39.94
214.157	-37.89
214.375	-9.22
214.594	27.65
214.812	87.04
215.031	-23.55
215.249	44.03
215.467	-23.55
215.686	-7.17
215.904	41.98
216.122	11.26
216.341	72.7
216.559	-33.79
216.778	93.18
216.996	68.61
217.214	50.18
217.432	15.36
217.651	-39.94
217.869	13.31
218.087	7.17
218.306	-37.89
218.524	5.12
218.742	-25.6
218.96	50.18
219.179	29.7
219.397	21.5
219.615	52.22
219.833	19.46
220.051	3.07
220.27	23.55
220.488	1.02
220.706	72.7
220.924	31.74
221.142	-15.36
221.36	23.55
221.578	1.02
221.796	-25.6
222.015	-21.5
222.233	7.17
222.451	-15.36
222.669	-44.03
222.887	39.94
223.105	-9.22
223.323	33.79
223.541	-29.7
223.759	-1.02
223.977	33.79
224.195	50.18
224.413	84.99
224.631	48.13
224.849	31.74
225.067	72.7
225.285	-17.41
225.503	50.18
225.721	19.46
225.939	48.13
226.157	-5.12
226.375	87.04
226.592	-33.79
226.81	17.41
227.028	41.98
227.246	56.32
227.464	-29.7
227.682	50.18
227.9	17.41
228.117	7.17
228.335	15.36
228.553	9.22
228.771	56.32
228.989	9.22
229.206	48.13
229.424	-23.55
229.642	-23.55
229.86	21.5
230.077	7.17
230.295	-1.02
230.513	105.47
230.731	58.37
230.948	68.61
231.166	-37.89
231.384	-70.65
231.601	-13.31
231.819	76.8
232.037	15.36
232.254	-9.22
232.472	-41.98
232.689	-19.46
232.907	9.22
233.125	11.26
233.342	76.8
233.56	-48.13
233.777	-21.5
233.995	41.98
234.213	70.65
234.43	72.7
234.648	27.65
234.865	48.13
235.083	48.13
235.3	1.02
235.518	-29.7
235.735	117.76
235.953	-9.22
236.17	64.51
236.388	-74.75
236.605	21.5
236.822	39.94
237.04	-11.26
237.257	-17.41
237.475	-35.84
237.692	-19.46
237.909	27.65
238.127	23.55
238.344	41.98
238.562	41.98
238.779	-13.31
238.996	-52.22
239.214	-9.22
239.431	50.18
239.648	-23.55
239.865	3.07
240.083	80.89
240.3	23.55
240.517	-58.37
240.735	80.89
240.952	27.65
241.169	23.55
241.386	48.13
241.603	15.36
241.821	15.36
242.038	41.98
242.255	1.02
242.472	33.79
242.689	3.07
242.907	66.56
243.124	80.89
243.341	48.13
243.558	33.79
243.775	11.26
243.992	31.74
244.209	84.99
244.426	60.42
244.643	-3.07
244.86	46.08
245.078	-17.41
245.295	-25.6
245.512	48.13
245.729	-29.7
245.946	7.17
246.163	15.36
246.38	50.18
246.597	44.03
246.814	-66.56
247.031	1.02
247.248	19.46
247.464	39.94
247.681	13.31
247.898	46.08
248.115	50.18
248.332	5.12
248.549	3.07
248.766	78.85
248.983	48.13
249.2	33.79
249.417	27.65
249.633	-72.7
249.85	130.05
250.067	-17.41
250.284	64.51
250.501	35.84
250.717	29.7
250.934	25.6
251.151	-17.41
251.368	27.65
251.585	46.08
251.801	-5.12
252.018	-50.18
252.235	35.84
252.451	-7.17
252.668	3.07
252.885	64.51
253.102	7.17
253.318	-33.79
253.535	31.74
253.752	-3.07
253.968	-39.94
254.185	-33.79
254.401	39.94
254.618	17.41
254.835	74.75
255.051	48.13
255.268	101.37
255.484	23.55
255.701	-7.17
255.917	15.36
256.134	-33.79
256.351	58.37
256.567	-17.41
256.784	-1.02
257	-25.6
257.217	52.22
257.433	60.42
257.65	58.37
257.866	33.79
258.082	-1.02
258.299	23.55
258.515	66.56
258.732	23.55
258.948	87.04
259.165	76.8
259.381	-25.6
259.597	11.26
259.814	13.31
260.03	-37.89
260.246	48.13
260.463	13.31
260.679	82.94
260.895	33.79
261.112	-25.6
261.328	13.31
261.544	89.09
261.761	130.05
261.977	80.89
262.193	-25.6
262.409	-25.6
262.626	31.74
262.842	80.89
263.058	23.55
263.274	-13.31
263.49	19.46
263.707	56.32
263.923	44.03
264.139	33.79
264.355	-19.46
264.571	31.74
264.787	3.07
265.004	68.61
265.22	58.37
265.436	31.74
265.652	21.5
265.868	41.98
266.084	-25.6
266.3	115.71
266.516	11.26
266.732	-17.41
266.948	-7.17
267.164	9.22
267.38	50.18
267.596	17.41
267.812	46.08
268.028	39.94
268.244	21.5
268.46	-9.22
268.676	-99.33
268.892	93.18
269.108	-7.17
269.324	-80.89
269.54	-29.7
269.756	9.22
269.972	56.32
270.188	25.6
270.403	1.02
270.619	11.26
270.835	44.03
271.051	109.57
271.267	-9.22
271.483	-25.6
271.698	23.55
271.914	1.02
272.13	35.84
272.346	-5.12
272.562	-35.84
272.777	54.27
272.993	46.08
273.209	1.02
273.425	29.7
273.64	52.22
273.856	52.22
274.072	-9.22
274.287	-29.7
274.503	31.74
274.719	97.28
274.934	35.84
275.15	11.26
275.366	-3.07
275.581	-15.36
275.797	15.36
276.012	1.02
276.228	5.12
276.444	64.51
276.659	58.37
276.875	-33.79
277.09	-5.12
277.306	-33.79
277.521	103.42
277.737	-50.18
277.952	39.94
278.168	-9.22
278.383	7.17
278.599	41.98
278.814	-13.31
279.03	39.94
279.245	56.32
279.461	130.05
279.676	89.09
279.892	-1.02
280.107	39.94
280.322	56.32
280.538	39.94
280.753	-27.65
280.969	7.17
281.184	-29.7
281.399	87.04
281.615	9.22
281.83	78.85
282.045	-5.12
282.26	19.46
282.476	-17.41
282.691	-3.07
282.906	-29.7
283.122	-7.17
283.337	15.36
283.552	39.94
283.767	-21.5
283.983	-21.5
284.198	82.94
284.413	-41.98
284.628	39.94
284.843	78.85
285.058	56.32
285.274	15.36
285.489	48.13
285.704	82.94
285.919	-7.17
286.134	-13.31
286.349	-15.36
286.564	-7.17
286.779	78.85
286.995	7.17
287.21	19.46
287.425	19.46
287.64	-23.55
287.855	58.37
288.07	27.65
288.285	115.71
288.5	68.61
288.715	15.36
288.93	15.36
289.145	23.55
289.36	97.28
289.575	48.13
289.79	39.94
290.004	-29.7
290.219	56.32
290.434	-23.55
290.649	60.42
290.864	5.12
291.079	27.65
291.294	97.28
291.509	74.75
291.724	78.85
291.938	50.18
292.153	-1.02
292.368	15.36
292.583	64.51
292.798	48.13
293.012	68.61
293.227	13.31
293.442	7.17
293.657	72.7
293.871	138.24
294.086	23.55
294.301	27.65
294.516	5.12
294.73	-48.13
294.945	-78.85
295.16	-9.22
295.374	23.55
295.589	25.6
295.804	-25.6
296.018	-15.36
296.233	39.94
296.447	15.36
296.662	64.51
296.877	82.94
297.091	-23.55
297.306	115.71
297.52	54.27
297.735	80.89
297.949	60.42
298.164	15.36
298.378	19.46
298.593	-1.02
298.807	17.41
299.022	64.51
299.236	70.65
299.451	-31.74
299.665	74.75
299.88	19.46
300.094	64.51
300.309	-41.98
300.523	19.46
300.737	123.9
300.952	72.7
301.166	31.74
301.381	48.13
301.595	31.74
301.809	-62.46
302.024	-21.5
302.238	31.74
302.452	-41.98
302.667	56.32
302.881	23.55
303.095	58.37
303.309	25.6
303.524	-9.22
303.738	39.94
303.952	-9.22
304.166	3.07
304.381	50.18
304.595	130.05
304.809	-31.74
305.023	-27.65
305.237	50.18
305.452	46.08
305.666	15.36
305.88	23.55
306.094	1.02
306.308	21.5
306.522	58.37
306.736	-9.22
306.95	66.56
307.164	54.27
307.379	52.22
307.593	58.37
307.807	31.74
308.021	23.55
308.235	31.74
308.449	-15.36
308.663	19.46
308.877	148.48
309.091	41.98
309.305	66.56
309.519	3.07
309.733	54.27
309.947	21.5
310.161	48.13
310.374	9.22
310.588	68.61
310.802	31.74
311.016	-41.98
311.23	9.22
311.444	21.5
311.658	33.79
311.872	-31.74
312.085	56.32
312.299	78.85
312.513	56.32
312.727	13.31
312.941	-7.17
313.154	19.46
313.368	44.03
313.582	31.74
313.796	17.41
314.009	1.02
314.223	41.98
314.437	-5.12
314.651	27.65
314.864	15.36
315.078	27.65
315.292	72.7
315.505	52.22
315.719	39.94
315.933	-19.46
316.146	23.55
316.36	15.36
316.573	58.37
316.787	-17.41
317.001	15.36
317.214	33.79
317.428	-25.6
317.641	-3.07
317.855	56.32
318.068	60.42
318.282	48.13
318.495	130.05
318.709	41.98
318.922	60.42
319.136	21.5
319.349	97.28
319.563	105.47
319.776	60.42
319.99	-39.94
320.203	39.94
320.417	87.04
320.63	15.36
320.843	91.13
321.057	41.98
321.27	-5.12
321.483	17.41
321.697	27.65
321.91	9.22
322.124	21.5
322.337	-9.22
322.55	-11.26
322.763	80.89
322.977	35.84
323.19	25.6
323.403	1.02
323.617	15.36
323.83	58.37
324.043	46.08
324.256	117.76
324.469	33.79
324.683	64.51
324.896	72.7
325.109	76.8
325.322	-58.37
325.535	5.12
325.748	52.22
325.962	44.03
326.175	31.74
326.388	37.89
326.601	58.37
326.814	15.36
327.027	25.6
327.24	23.55
327.453	15.36
327.666	23.55
327.879	70.65
328.092	87.04
328.305	15.36
328.518	9.22
328.731	5.12
328.944	72.7
329.157	5.12
329.37	50.18
329.583	44.03
329.796	66.56
330.009	33.79
330.222	25.6
330.435	1.02
330.648	23.55
330.861	13.31
331.073	80.89
331.286	27.65
331.499	56.32
331.712	39.94
331.925	27.65
332.138	1.02
332.35	74.75
332.563	-39.94
332.776	50.18
332.989	-3.07
333.202	39.94
333.414	58.37
333.627	54.27
333.84	27.65
334.053	46.08
334.265	3.07
334.478	31.74
334.691	44.03
334.903	82.94
335.116	19.46
335.329	-17.41
335.541	50.18
335.754	93.18
335.966	3.07
336.179	27.65
336.392	9.22
336.604	17.41
336.817	7.17
337.029	76.8
337.242	39.94
337.454	64.51
337.667	9.22
337.88	68.61
338.092	41.98
338.305	82.94
338.517	-15.36
338.729	52.22
338.942	154.62
339.154	56.32
339.367	99.33
339.579	60.42
339.792	35.84
340.004	5.12
340.217	9.22
340.429	35.84
340.641	15.36
340.854	31.74
341.066	19.46
341.278	23.55
341.491	44.03
341.703	132.09
341.915	54.27
342.128	31.74
342.34	99.33
342.552	93.18
342.764	74.75
342.977	48.13
343.189	78.85
343.401	-13.31
343.613	35.84
343.826	3.07
344.038	84.99
344.25	35.84
344.462	31.74
344.674	56.32
344.886	19.46
345.099	97.28
345.311	13.31
345.523	35.84
345.735	41.98
345.947	56.32
346.159	68.61
346.371	74.75
346.583	-7.17
346.795	31.74
347.007	27.65
347.219	-46.08
347.431	-17.41
347.643	97.28
347.855	23.55
348.067	64.51
348.279	56.32
348.491	-5.12
348.703	56.32
348.915	-21.5
349.127	21.5
349.339	140.29
349.551	-29.7
349.763	64.51
349.975	50.18
350.187	58.37
350.399	17.41
350.61	-31.74
350.822	72.7
351.034	52.22
351.246	-1.02
351.458	74.75
351.669	50.18
351.881	54.27
352.093	23.55
352.305	76.8
352.517	7.17
352.728	48.13
352.94	84.99
353.152	35.84
353.363	-1.02
353.575	-41.98
353.787	74.75
353.999	33.79
354.21	54.27
354.422	134.14
354.633	-13.31
354.845	66.56
355.057	44.03
355.268	66.56
355.48	37.89
355.692	7.17
355.903	76.8
356.115	105.47
356.326	7.17
356.538	35.84
356.749	-7.17
356.961	113.66
357.172	21.5
357.384	23.55
357.595	146.43
357.807	39.94
358.018	-31.74
358.23	70.65
358.441	171.01
358.653	58.37
358.864	93.18
359.075	15.36
359.287	66.56
359.498	27.65
359.709	64.51
359.921	64.51
360.132	72.7
360.344	7.17
360.555	50.18
360.766	15.36
360.977	60.42
361.189	76.8
361.4	107.52
361.611	82.94
361.823	15.36
362.034	48.13
362.245	11.26
362.456	89.09
362.667	44.03
362.879	44.03
363.09	-35.84
363.301	44.03
363.512	74.75
363.723	1.02
363.935	74.75
364.146	99.33
364.357	-25.6
364.568	56.32
364.779	91.13
364.99	56.32
365.201	93.18
365.412	144.38
365.623	54.27
365.834	-23.55
366.045	1.02
366.256	37.89
366.467	107.52
366.678	7.17
366.889	44.03
367.1	58.37
367.311	60.42
367.522	41.98
367.733	-21.5
367.944	46.08
368.155	41.98
368.366	91.13
368.577	91.13
368.788	60.42
368.999	39.94
369.209	146.43
369.42	105.47
369.631	101.37
369.842	39.94
370.053	-25.6
370.264	9.22
370.474	140.29
370.685	105.47
370.896	1.02
371.107	109.57
371.317	66.56
371.528	60.42
371.739	173.05
371.95	-19.46
372.16	113.66
372.371	1.02
372.582	70.65
372.792	97.28
373.003	-25.6
373.214	109.57
373.424	82.94
373.635	33.79
373.846	105.47
374.056	13.31
374.267	60.42
374.477	97.28
374.688	52.22
374.898	19.46
375.109	29.7
375.319	35.84
375.53	103.42
375.74	48.13
375.951	-17.41
376.161	17.41
376.372	80.89
376.582	52.22
376.793	130.05
377.003	-13.31
377.214	11.26
377.424	56.32
377.635	52.22
377.845	23.55
378.055	99.33
378.266	19.46
378.476	103.42
378.686	-9.22
378.897	48.13
379.107	19.46
379.317	82.94
379.528	-7.17
379.738	89.09
379.948	-72.7
380.158	17.41
380.369	109.57
380.579	27.65
380.789	93.18
380.999	62.46
381.21	58.37
381.42	64.51
381.63	13.31
381.84	-5.12
382.05	25.6
382.261	93.18
382.471	142.33
382.681	60.42
382.891	119.81
383.101	54.27
383.311	60.42
383.521	15.36
383.731	136.19
383.941	138.24
384.151	13.31
384.361	48.13
384.571	66.56
384.781	17.41
384.991	109.57
385.201	115.71
385.411	52.22
385.621	-17.41
385.831	-9.22
386.041	35.84
386.251	64.51
386.461	224.25
386.671	-39.94
386.881	107.52
387.091	64.51
387.301	89.09
387.511	89.09
387.72	97.28
387.93	37.89
388.14	60.42
388.35	111.61
388.56	33.79
388.769	48.13
388.979	105.47
389.189	56.32
389.399	15.36
389.609	105.47
389.818	91.13
390.028	97.28
390.238	31.74
390.447	7.17
390.657	91.13
390.867	87.04
391.076	105.47
391.286	-17.41
391.496	125.95
391.705	64.51
391.915	134.14
392.125	209.92
392.334	-5.12
392.544	93.18
392.753	64.51
392.963	56.32
393.172	68.61
393.382	50.18
393.591	148.48
393.801	93.18
394.01	119.81
394.22	140.29
394.429	80.89
394.639	72.7
394.848	113.66
395.058	91.13
395.267	84.99
395.477	31.74
395.686	146.43
395.895	113.66
396.105	138.24
396.314	99.33
396.524	150.53
396.733	52.22
396.942	148.48
397.152	132.09
397.361	179.2
397.57	142.33
397.78	89.09
397.989	109.57
398.198	117.76
398.407	56.32
398.617	134.14
398.826	97.28
399.035	97.28
399.244	113.66
399.453	107.52
399.663	68.61
399.872	138.24
400.081	146.43
400.29	158.72
400.499	89.09
400.708	191.49
400.917	113.66
401.127	91.13
401.336	195.58
401.545	123.9
401.754	152.57
401.963	222.2
402.172	164.86
402.381	123.9
402.59	80.89
402.799	158.72
403.008	162.81
403.217	154.62
403.426	236.54
403.635	197.63
403.844	195.58
404.053	146.43
404.262	185.34
404.471	201.72
404.68	156.67
404.888	136.19
405.097	179.2
405.306	193.53
405.515	211.96
405.724	236.54
405.933	240.64
406.142	240.64
406.35	257.02
406.559	179.2
406.768	150.53
406.977	248.83
407.185	236.54
407.394	310.27
407.603	289.79
407.812	267.26
408.02	306.17
408.229	314.36
408.438	320.51
408.646	279.55
408.855	263.16
409.064	371.71
409.272	279.55
409.481	338.94
409.69	359.42
409.898	388.09
410.107	402.43
410.315	494.58
410.524	482.3
410.733	504.82
410.941	463.86
411.15	519.16
411.358	541.69
411.567	478.2
411.775	619.51
411.984	596.98
412.192	525.3
412.401	607.22
412.609	695.29
412.818	695.29
413.026	693.24
413.234	750.58
413.443	744.44
413.651	779.25
413.86	740.34
414.068	822.26
414.276	883.7
414.485	885.75
414.693	973.81
414.901	1022.96
415.11	936.95
415.318	1022.96
415.526	1047.54
415.734	1096.69
415.943	1135.6
416.151	1162.22
416.359	1190.89
416.567	1192.94
416.776	1278.96
416.984	1356.78
417.192	1448.94
417.4	1410.03
417.608	1332.2
417.817	1510.38
418.025	1483.75
418.233	1614.82
418.441	1545.19
418.649	1653.73
418.857	1801.19
419.065	1801.19
419.273	1768.42
419.481	1883.11
419.689	2053.09
419.897	2094.05
420.105	2212.83
420.313	2030.56
420.521	2348
420.729	2317.28
420.937	2382.81
421.145	2556.89
421.353	2616.28
421.561	2796.5
421.769	2726.87
421.977	2898.9
422.185	3027.92
422.393	2960.34
422.601	3134.42
422.809	3189.71
423.017	3388.36
423.224	3396.56
423.432	3658.7
423.64	3597.26
423.848	3832.77
424.056	3859.4
424.263	4031.43
424.471	4070.34
424.679	4262.85
424.887	4516.8
425.094	4522.94
425.302	4334.53
425.51	4686.78
425.718	4840.37
425.925	4797.37
426.133	5071.79
426.341	5307.31
426.548	5579.69
426.756	5524.4
426.964	5675.95
427.171	5850.02
427.379	6138.79
427.586	6409.12
427.794	6468.51
428.001	6710.17
428.209	7056.28
428.417	6929.3
428.624	7347.09
428.832	7431.05
429.039	7230.35
429.247	7199.63
429.454	8223.62
429.662	8489.85
429.869	8074.12
430.076	8584.06
430.284	8287.11
430.491	8754.04
430.699	9157.49
430.906	9229.17
431.114	9247.6
431.321	9548.65
431.528	9874.28
431.736	10322.79
431.943	10781.53
432.15	10701.66
432.358	10623.84
432.565	11303.76
432.772	11379.54
432.979	11733.84
433.187	12020.55
433.394	11834.19
433.601	13044.54
433.808	12983.1
434.016	12901.18
434.223	13599.54
434.43	14289.7
434.637	13783.85
434.844	14682.91
435.052	14756.64
435.259	15166.23
435.466	15127.32
435.673	14934.81
435.88	15948.56
436.087	16505.6
436.294	16691.97
436.501	16184.07
436.708	16780.03
436.915	17509.11
437.122	18090.73
437.329	17984.24
437.537	18475.75
437.743	18832.1
437.95	18442.98
438.157	19565.27
438.364	20452.04
438.571	19921.62
438.778	20200.14
438.985	21895.86
439.192	21392.06
439.399	21799.6
439.606	21537.46
439.813	22803.11
440.02	24189.58
440.227	23517.85
440.433	23440.03
440.64	24328.84
440.847	23749.27
441.054	24750.73
441.261	26192.5
441.467	25721.46
441.674	26413.68
441.881	27374.17
442.088	27271.78
442.294	27173.47
442.501	27507.29
442.708	28482.13
442.914	28994.12
443.121	30614.06
443.328	29977.14
443.534	31722.01
443.741	30974.5
443.948	30218.8
444.154	32852.49
444.361	32832.01
444.568	32678.41
444.774	32850.44
444.981	32483.86
445.187	33823.23
445.394	35588.58
445.6	34943.47
445.807	37974.46
446.013	36532.69
446.22	37071.31
446.426	38574.52
446.633	39176.62
446.839	40495.51
447.046	38193.59
447.252	40833.42
447.459	40784.27
447.665	40827.28
447.871	42393.98
448.078	44157.28
448.284	42068.35
448.491	43358.57
448.697	44788.05
448.903	45449.55
449.11	45678.92
449.316	44863.83
449.522	45703.49
449.728	46934.32
449.935	47257.9
450.141	47139.12
450.347	48124.19
450.553	47081.78
450.76	47386.92
450.966	49066.26
451.172	48709.91
451.378	50012.42
451.584	48111.91
451.791	49490.19
451.997	49553.68
452.203	50268.42
452.409	50252.03
452.615	50100.48
452.821	48417.05
453.027	47726.89
453.233	50213.12
453.44	48431.39
453.646	48838.93
453.852	48978.2
454.058	50163.97
454.264	48386.33
454.47	49467.66
454.676	48173.34
454.882	49692.94
455.088	45621.58
455.294	46537.02
455.5	46919.99
455.705	47315.25
455.911	45650.25
456.117	44919.12
456.323	44274.01
456.529	41947.52
456.735	43954.53
456.941	42486.14
457.147	42101.12
457.352	41013.65
457.558	40372.63
457.764	40735.12
457.97	39870.88
458.176	38633.91
458.381	39350.7
458.587	37177.8
458.793	37087.69
458.999	35135.98
459.204	37528
459.41	36495.83
459.616	34322.93
459.821	34363.89
460.027	34038.26
460.233	33411.59
460.438	32184.85
460.644	32109.08
460.85	30612.01
461.055	30218.8
461.261	30237.23
461.466	27804.25
461.672	27384.41
461.878	28949.06
462.083	27247.2
462.289	26829.41
462.494	26532.46
462.7	25346.69
462.905	24633.99
463.111	25330.3
463.316	25631.35
463.522	24875.65
463.727	24937.09
463.932	25248.38
464.138	24431.24
464.343	24816.26
464.549	24332.94
464.754	24935.04
464.959	24431.24
465.165	24455.82
465.37	23331.48
465.575	22766.24
465.781	23847.57
465.986	24003.22
466.191	22889.12
466.397	22547.11
466.602	21596.85
466.807	22420.14
467.012	22338.22
467.218	22225.58
467.423	21766.84
467.628	22241.96
467.833	22946.47
468.038	22211.25
468.244	21359.29
468.449	22137.52
468.654	21613.24
468.859	21295.8
469.064	21414.59
469.269	20523.72
469.474	20900.55
469.679	21095.1
469.885	20316.87
470.09	20820.67
470.295	20808.39
470.5	19987.15
470.705	20454.09
470.91	19843.79
471.115	19688.15
471.32	20060.88
471.525	19780.31
471.73	19251.93
471.935	19106.52
472.139	18784.99
472.344	18850.53
472.549	18397.93
472.754	18211.56
472.959	18258.67
473.164	17558.26
473.369	17513.2
473.574	18399.98
473.778	17849.07
473.983	17996.53
474.188	17660.66
474.393	17013.5
474.598	16739.07
474.802	16882.43
475.007	16737.02
475.212	17097.47
475.417	16134.92
475.621	16280.33
475.826	16407.3
476.031	15971.08
476.235	15645.46
476.44	15747.86
476.645	15409.94
476.849	15522.58
477.054	15463.19
477.259	15254.3
477.463	15139.61
477.668	14514.98
477.872	15090.46
478.077	14781.21
478.282	14383.91
478.486	14345
478.691	14220.07
478.895	14064.43
479.1	13871.92
479.304	13970.22
479.509	13660.98
479.713	13886.25
479.918	13378.36
480.122	13423.41
480.326	13646.64
480.531	13708.08
480.735	13642.54
480.94	13364.02
481.144	13730.61
481.348	12901.18
481.553	13275.96
481.757	12811.07
481.961	13089.59
482.166	13235
482.37	12979
482.574	12884.8
482.778	12997.43
482.983	13249.33
483.187	13003.58
483.391	13224.76
483.595	12901.18
483.8	12704.57
484.004	13011.77
484.208	13073.21
484.412	12749.63
484.616	13212.47
484.821	12909.37
485.025	12925.75
485.229	13056.82
485.433	12956.47
485.637	12917.56
485.841	12755.77
486.045	12954.43
486.249	13081.4
486.453	12897.08
486.657	12952.38
486.861	13167.42
487.065	12665.66
487.269	13050.68
487.473	12866.36
487.677	12919.61
487.881	13165.37
488.085	13007.67
488.289	13198.13
488.493	12692.29
488.697	12979
488.901	13120.31
489.105	12886.84
489.309	12938.04
489.512	12993.34
489.716	12999.48
489.92	12901.18
490.124	12989.24
490.328	13105.98
490.531	13130.55
490.735	13312.82
490.939	13208.37
491.143	13138.74
491.346	13062.97
491.55	13679.41
491.754	13386.55
491.958	13591.34
492.161	13490.99
492.365	13617.97
492.569	13472.56
492.772	13429.56
492.976	13679.41
493.18	13843.24
493.383	13951.79
493.587	14043.95
493.79	13974.31
493.994	13886.25
494.197	14142.25
494.401	14193.45
494.605	14162.73
494.808	14506.79
495.012	14502.69
495.215	14678.82
495.419	14572.32
495.622	14635.81
495.825	14863.13
496.029	14967.58
496.232	15364.89
496.436	15104.79
496.639	15614.74
496.843	15432.47
497.046	15829.77
497.249	15923.98
497.453	15813.39
497.656	16255.75
497.859	16540.42
498.063	16431.88
498.266	16952.06
498.469	16526.08
498.673	16857.85
498.876	17140.47
499.079	17113.85
499.282	17040.12
499.485	17672.95
499.689	17617.65
499.892	17937.13
500.095	18223.85
500.298	18721.51
500.501	18248.43
500.705	18838.24
500.908	19030.75
501.111	19284.7
501.314	19364.57
501.517	19587.8
501.72	19806.93
501.923	19399.38
502.126	20001.49
502.329	20605.64
502.532	20564.68
502.735	20421.32
502.938	20857.54
503.141	20847.3
503.344	21641.91
503.547	21373.63
503.75	21789.36
503.953	22166.19
504.156	22282.92
504.359	22565.54
504.562	22790.82
504.765	23227.04
504.968	22809.25
505.17	23272.09
505.373	23489.18
505.576	23773.85
505.779	24111.76
505.982	24341.13
506.185	24889.99
506.387	24750.73
506.59	25176.7
506.793	25625.21
506.996	25500.28
507.198	26278.51
507.401	25930.36
507.604	26110.58
507.807	26698.34
508.009	26847.85
508.212	27042.4
508.415	27447.9
508.617	27781.72
508.82	27703.9
509.022	27978.33
509.225	28719.69
509.428	28871.24
509.63	28740.17
509.833	29090.37
510.035	29606.46
510.238	29614.65
510.44	30157.36
510.643	30632.49
510.845	30849.58
511.048	30429.74
511.25	31081
511.453	31455.78
511.655	32410.13
511.858	31887.9
512.06	32485.9
512.262	32416.27
512.465	32705.04
512.667	32961.03
512.87	33452.55
513.072	34058.74
513.274	34068.98
513.477	34652.66
513.679	34783.73
513.881	34722.29
514.084	35445.22
514.286	35275.24
514.488	35623.39
514.69	36444.63
514.893	36428.24
515.095	36901.32
515.297	37108.17
515.499	37257.67
515.701	37198.28
515.904	37753.28
516.106	38328.76
516.308	38107.58
516.51	38758.83
516.712	38934.96
516.914	39553.44
517.116	39823.78
517.318	40491.41
517.52	40616.34
517.722	40229.27
517.925	40769.94
518.127	41511.3
518.329	41695.62
518.531	41732.48
518.733	42260.86
518.935	42805.62
519.136	42609.01
519.338	43530.6
519.54	43112.81
519.742	43661.67
519.944	43907.43
520.146	44611.93
520.348	45232.46
520.55	44941.65
520.752	45054.29
520.954	46016.83
521.155	45037.9
521.357	46186.82
521.559	46342.46
521.761	46651.7
521.963	47151.41
522.164	47382.83
522.366	47163.7
522.568	47597.87
522.77	47986.98
522.971	48703.77
523.173	48095.52
523.375	48699.67
523.576	49049.88
523.778	48847.13
523.98	49916.17
524.181	49410.32
524.383	49791.24
524.584	50370.82
524.786	50858.23
524.988	50557.18
525.189	51122.42
525.391	50974.97
525.592	51282.16
525.794	51235.06
525.995	51640.56
526.197	51998.95
526.398	52093.16
526.6	52289.76
526.801	52719.84
527.003	52574.43
527.204	52498.65
527.406	52814.04
527.607	53192.92
527.808	53252.31
528.01	52373.73
528.211	53358.8
528.412	54014.15
528.614	53924.04
528.815	53768.4
529.016	54431.94
529.218	53637.33
529.419	53854.41
529.62	54194.37
529.822	53913.8
530.023	53991.62
530.224	54470.85
530.425	54710.46
530.626	54143.17
530.828	54186.18
531.029	55494.83
531.23	54829.24
531.431	54571.2
531.632	54886.59
531.833	55021.75
532.035	54841.53
532.236	55019.7
532.437	55357.62
532.638	54991.03
532.839	55271.6
533.04	55474.35
533.241	55011.51
533.442	55515.31
533.643	55476.4
533.844	54941.88
534.045	55349.43
534.246	55095.48
534.447	55863.47
534.648	55154.87
534.849	55374
535.05	54847.68
535.251	55134.39
535.451	55263.41
535.652	55351.48
535.853	55242.93
536.054	55359.67
536.255	55478.45
536.456	55232.69
536.657	55722.16
536.857	55374
537.058	55077.05
537.259	55699.63
537.46	55476.4
537.66	55201.97
537.861	55570.61
538.062	55214.26
538.263	55601.33
538.463	55218.36
538.664	55410.87
538.865	55113.91
539.065	55560.37
539.266	55042.23
539.466	55183.54
539.667	54997.18
539.868	55638.19
540.068	54972.6
540.269	55122.1
540.469	55799.98
540.67	55031.99
540.87	55042.23
541.071	55265.46
541.271	55132.34
541.472	55013.56
541.672	55034.04
541.873	54839.48
542.073	54687.93
542.274	55537.84
542.474	55077.05
542.675	54700.22
542.875	55210.17
543.075	55021.75
543.276	54415.55
543.476	55216.31
543.676	54788.28
543.877	54626.49
544.077	54792.38
544.277	54788.28
544.478	54866.11
544.678	54978.75
544.878	54862.01
545.078	54886.59
545.279	54161.61
545.479	54495.42
545.679	55038.14
545.879	54773.95
546.079	54747.32
546.28	54581.44
546.48	54825.15
546.68	54649.02
546.88	54741.18
547.08	54954.17
547.28	54792.38
547.48	54284.48
547.68	54771.9
547.88	54505.66
548.081	54988.98
548.281	54618.3
548.481	54382.79
548.681	54964.41
548.881	54495.42
549.081	54350.02
549.28	54399.17
549.48	54927.55
549.68	54259.91
549.88	55103.67
550.08	54098.12
550.28	54919.35
550.48	54003.91
550.68	54784.19
550.88	53965
551.08	54560.96
551.279	54444.23
551.479	54603.97
551.679	54429.89
551.879	54022.34
552.079	54307.01
552.278	54292.68
552.478	54358.21
552.678	53921.99
552.878	54841.53
553.077	53934.28
553.277	53686.48
553.477	54636.73
553.676	54161.61
553.876	54126.79
554.076	53811.4
554.275	53774.54
554.475	53350.61
554.674	54145.22
554.874	53594.32
555.074	53694.67
555.273	53561.55
555.473	54167.75
555.672	53453.01
555.872	53326.03
556.071	53731.53
556.271	53958.86
556.47	53422.29
556.67	53201.11
556.869	53373.14
557.068	53448.91
557.268	53381.33
557.467	53289.17
557.667	53029.08
557.866	53487.82
558.065	53047.51
558.265	53131.48
558.464	52871.39
558.663	53547.21
558.863	52687.07
559.062	53473.49
559.261	52474.08
559.461	53471.44
559.66	52304.1
559.859	52674.78
560.058	52650.2
560.258	52680.92
560.457	52431.07
560.656	52539.61
560.855	52377.82
561.054	52496.61
561.253	52285.67
561.453	53074.13
561.652	52562.14
561.851	52662.49
562.05	51974.37
562.249	51699.95
562.448	52068.58
562.647	51529.97
562.846	52015.33
563.045	51765.48
563.244	51753.19
563.443	52052.2
563.642	51179.76
563.841	51900.65
564.04	51384.56
564.239	51937.51
564.438	50964.73
564.637	51654.89
564.836	51357.94
565.035	51079.41
565.234	51235.06
565.432	50475.26
565.631	50923.77
565.83	51456.24
566.029	50417.92
566.228	50802.94
566.427	50489.6
566.625	50202.88
566.824	50192.64
567.023	50608.38
567.222	49850.63
567.42	50692.35
567.619	50495.74
567.818	49989.89
568.016	50032.9
568.215	50131.2
568.414	49803.53
568.612	49950.98
568.811	49596.68
569.01	50006.28
569.208	49375.5
569.407	49781
569.605	49029.4
569.804	49275.15
570.002	48918.81
570.201	49252.62
570.4	48716.06
570.598	48576.79
570.797	48584.99
570.995	48767.26
571.193	48197.92
571.392	48615.71
571.59	48429.34
571.789	48378.14
571.987	48304.41
572.186	48314.65
572.384	48052.51
572.582	48218.4
572.781	47796.52
572.979	47636.78
573.177	47724.84
573.376	47876.39
573.574	47434.03
573.772	47769.9
573.971	47397.16
574.169	47319.34
574.367	47026.48
574.565	47264.05
574.763	47040.82
574.962	47108.4
575.16	46305.6
575.358	46911.8
575.556	46537.02
575.754	46600.5
575.952	46352.7
576.151	46532.92
576.349	46205.25
576.547	45861.19
576.745	45928.77
576.943	45949.25
577.141	45228.37
577.339	46180.67
577.537	45654.34
577.735	45437.26
577.933	45308.24
578.131	45822.28
578.329	45175.12
578.527	44921.17
578.725	44855.64
578.923	45211.98
579.121	44734.81
579.319	45033.81
579.516	44876.12
579.714	44609.88
579.912	44407.13
580.11	44091.74
580.308	44632.41
580.506	44306.78
580.704	43680.1
580.901	43817.32
581.099	44142.94
581.297	43815.27
581.495	43587.94
581.692	43673.96
581.89	43293.04
582.088	44003.68
582.285	43563.37
582.483	43702.63
582.681	43366.76
582.878	42977.65
583.076	42881.39
583.274	43123.05
583.471	42117.5
583.669	42596.73
583.866	42281.34
584.064	43092.33
584.262	41775.49
584.459	42267
584.657	42391.93
584.854	42185.08
585.052	41570.69
585.249	41849.22
585.447	41816.45
585.644	41662.85
585.841	41451.91
586.039	41775.49
586.236	41449.86
586.434	41392.52
586.631	41107.85
586.828	41185.68
587.026	40935.82
587.223	40538.52
587.42	40704.4
587.618	40878.48
587.815	40438.17
588.012	40507.8
588.21	40268.19
588.407	40685.97
588.604	40026.53
588.801	39500.2
588.999	40323.48
589.196	39721.38
589.393	39817.63
589.59	39506.34
589.787	39477.67
589.984	39133.61
590.182	39154.09
590.379	39653.79
590.576	38961.58
590.773	39563.68
590.97	38750.64
591.167	39035.31
591.364	38719.92
591.561	38535.6
591.758	38226.36
591.955	38359.48
592.152	38658.48
592.349	37980.6
592.546	38085.05
592.743	38261.18
592.94	37396.93
593.137	37485
593.334	37611.97
593.531	37007.82
593.727	37818.81
593.924	37646.79
594.121	37206.47
594.318	37003.72
594.515	36870.61
594.712	37118.41
594.908	37102.03
595.105	36645.33
595.302	36364.76
595.499	36694.48
595.696	36286.93
595.892	36000.22
596.089	36448.72
596.286	36497.88
596.482	35805.66
596.679	36426.2
596.876	35983.83
597.072	35946.97
597.269	35314.15
597.466	35434.98
597.662	35553.76
597.859	35738.08
598.055	35576.29
598.252	35162.6
598.448	34834.92
598.645	35197.41
598.841	34460.15
599.038	34810.35
599.234	35138.02
599.431	34116.09
599.627	34218.49
599.824	34578.93
600.02	33526.27
600.217	34587.12
600.413	34097.66
600.609	34019.83
600.806	33714.69
601.002	33704.45
601.198	33786.36
601.395	33702.4
601.591	33145.35
601.787	33360.39
601.984	33112.58
602.18	33567.23
602.376	33212.93
602.572	32760.33
602.769	32709.13
602.965	32737.8
603.161	32975.37
603.357	32694.8
603.553	32709.13
603.75	32332.31
603.946	32446.99
604.142	32446.99
604.338	31965.72
604.534	32256.53
604.73	31863.32
604.926	31783.45
605.122	31914.52
605.318	31492.64
605.514	31631.9
605.71	31398.43
605.906	31404.58
606.102	31517.22
606.298	31474.21
606.494	31414.82
606.69	31482.4
606.886	31447.58
607.082	30642.73
607.278	31023.65
607.474	30753.32
607.67	30929.45
607.866	30558.77
608.062	31119.91
608.257	30644.78
608.453	30751.27
608.649	30444.08
608.845	30198.32
609.041	30507.57
609.236	30859.82
609.432	30343.73
609.628	30061.11
609.824	29960.76
610.019	30048.82
610.215	29979.19
610.411	30134.84
610.606	29960.76
610.802	30034.49
610.998	29874.74
611.193	29809.21
611.389	29624.89
611.584	29366.85
611.78	29481.53
611.976	29694.52
612.171	29651.52
612.367	29348.42
612.562	29172.29
612.758	28813.9
612.953	28877.38
613.149	29555.26
613.344	28768.84
613.539	29168.19
613.735	28944.97
613.93	29071.94
614.126	28709.45
614.321	29370.94
614.517	28897.86
614.712	29026.89
614.907	28385.87
615.103	28699.21
615.298	28453.45
615.493	28729.93
615.688	28254.8
615.884	28850.76
616.079	28371.54
616.274	28340.82
616.47	28510.8
616.665	28217.94
616.86	28119.63
617.055	27857.49
617.25	28107.35
617.445	28205.65
617.641	27560.54
617.836	28142.16
618.031	27388.51
618.226	27689.56
618.421	27501.15
618.616	27701.85
618.811	27411.04
619.006	27445.85
619.201	27247.2
619.396	27089.51
619.591	26423.92
619.786	27136.61
619.981	26444.4
620.176	26755.69
620.371	26464.88
620.566	26569.32
620.761	26325.61
620.956	26421.87
621.151	26057.33
621.346	26135.15
621.541	25850.49
621.735	26088.05
621.93	25367.16
622.125	25512.57
622.32	25363.07
622.515	25606.78
622.709	25289.34
622.904	24916.61
623.099	25037.44
623.294	25176.7
623.488	24504.97
623.683	24746.63
623.878	24244.88
624.072	24224.4
624.267	24169.1
624.462	23898.77
624.656	23833.24
624.851	23995.03
625.046	23861.91
625.24	23708.31
625.435	23431.83
625.629	23567
625.824	23159.45
626.018	23413.4
626.213	22717.09
626.407	22864.55
626.602	22637.22
626.796	22567.59
626.991	22698.66
627.185	22555.3
627.38	22317.74
627.574	22078.13
627.768	22231.72
627.963	22012.59
628.157	21875.38
628.352	21680.82
628.546	21263.04
628.74	21674.68
628.935	21197.5
629.129	21478.07
629.323	21144.25
629.517	21043.9
629.712	20830.91
629.906	20724.42
630.1	20626.12
630.294	20499.14
630.489	20361.93
630.683	20497.1
630.877	20204.24
631.071	20241.1
631.265	20493
631.459	20011.73
631.653	19835.6
631.848	19720.92
632.042	19706.58
632.236	19784.4
632.43	19679.96
632.624	19391.19
632.818	19217.11
633.012	18969.31
633.206	19071.71
633.4	19022.56
633.594	18727.65
633.788	18711.27
633.982	18950.88
634.176	18813.66
634.369	18445.03
634.563	18498.28
634.757	18291.43
634.951	18391.78
635.145	18080.49
635.339	18340.58
635.533	17715.95
635.726	18053.87
635.92	17836.78
636.114	17668.85
636.308	17609.46
636.501	17373.94
636.695	17443.57
636.889	17292.02
637.083	17230.59
637.276	17545.97
637.47	17083.13
637.664	16970.49
637.857	16868.09
638.051	16933.63
638.244	16788.22
638.438	16597.76
638.632	16243.46
638.825	16374.53
639.019	16677.63
639.212	16304.9
639.406	16079.63
639.599	16247.56
639.793	16134.92
639.986	15981.32
640.18	15930.12
640.373	15940.36
640.567	15528.72
640.76	15844.11
640.954	15663.89
641.147	15586.07
641.34	15438.61
641.534	15434.52
641.727	15471.38
641.92	15215.38
642.114	15164.18
642.307	15022.87
642.5	14908.19
642.694	14734.11
642.887	14801.69
643.08	14840.61
643.273	14631.71
643.467	14474.02
643.66	14453.54
643.853	14572.32
644.046	14252.84
644.239	14310.18
644.432	14007.08
644.626	14144.3
644.819	14228.26
645.012	13884.2
645.205	13906.73
645.398	13921.07
645.591	13787.95
645.784	13683.5
645.977	13484.85
646.17	13855.53
646.363	13370.16
646.556	13257.53
646.749	13570.86
646.942	13355.83
647.135	13237.05
647.328	13007.67
647.521	13114.17
647.714	12833.6
647.907	13081.4
648.099	12790.59
648.292	12874.56
648.485	12731.2
648.678	12573.5
648.871	12622.66
649.064	12462.91
649.256	12829.5
649.449	12458.82
649.642	12344.13
649.835	12180.29
650.027	12374.85
650.22	12053.32
650.413	11854.67
650.605	12176.2
650.798	11973.45
650.991	11641.68
651.183	12028.74
651.376	11551.57
651.568	11914.06
651.761	11598.67
651.954	11684.69
652.146	11498.32
652.339	11363.15
652.531	11461.46
652.724	11352.91
652.916	11217.75
653.109	11404.11
653.301	11189.08
653.494	11385.68
653.686	11035.48
653.879	11205.46
654.071	11174.74
654.263	10890.07
654.456	10971.99
654.648	10871.64
654.84	10709.85
655.033	10699.61
655.225	10578.78
655.417	10509.15
655.61	10615.65
655.802	10554.21
655.994	10412.9
656.186	10476.38
656.379	10410.85
656.571	10263.4
656.763	9964.39
656.955	10144.61
657.148	10294.11
657.34	10197.86
657.532	10040.17
657.724	9952.1
657.916	9894.76
658.108	9982.82
658.3	9804.65
658.492	9810.79
658.684	9579.37
658.876	9644.91
659.068	9599.85
659.26	9489.26
659.452	9655.15
659.644	9577.33
659.836	9489.26
660.028	9319.28
660.22	9225.08
660.412	9296.75
660.604	9118.58
660.796	9177.97
660.988	9083.77
661.18	9108.34
661.372	8921.98
661.563	9001.85
661.755	8905.59
661.947	8864.63
662.139	8690.56
662.331	8829.82
662.522	8778.62
662.714	8754.04
662.906	8594.3
663.097	8547.2
663.289	8678.27
663.481	8440.7
663.673	8416.13
663.864	8475.52
664.056	8373.12
664.247	8426.37
664.439	8211.33
664.631	8504.19
664.822	8321.92
665.014	8156.04
665.205	8297.35
665.397	8082.31
665.588	8168.32
665.78	8149.89
665.971	7955.33
666.163	8063.88
666.354	8051.59
666.546	8006.53
666.737	7719.82
666.929	7875.46
667.12	7842.7
667.311	7828.36
667.503	7723.91
667.694	7705.48
667.885	7623.56
668.077	7584.65
668.268	7607.18
668.459	7568.27
668.651	7480.21
668.842	7613.32
669.033	7623.56
669.224	7502.73
669.416	7500.69
669.607	7216.02
669.798	7209.87
669.989	7363.47
670.18	7308.18
670.371	7080.85
670.563	7216.02
670.754	7203.73
670.945	6974.36
671.136	6931.35
671.327	6904.73
671.518	7076.76
671.709	7060.37
671.9	7125.91
672.091	6937.49
672.282	6906.77
672.473	6904.73
672.664	6896.53
672.855	6814.62
673.046	6646.68
673.237	6808.47
673.428	6691.74
673.619	6798.23
673.809	6677.4
674	6806.42
674.191	6667.16
674.382	6536.09
674.573	6650.78
674.764	6443.93
674.954	6609.82
675.145	6308.77
675.336	6364.06
675.527	6431.65
675.717	6468.51
675.908	6427.55
676.099	6382.49
676.289	6364.06
676.48	6421.41
676.671	6237.09
676.861	6220.71
677.052	6255.52
677.243	6343.58
677.433	6253.47
677.624	6087.59
677.814	6118.31
678.005	6276
678.195	6101.92
678.386	6120.35
678.576	6153.12
678.767	5987.24
678.957	6046.63
679.148	6138.79
679.338	6022.05
679.529	6085.54
679.719	5997.48
679.909	5856.17
680.1	5890.98
680.29	6034.34
680.481	6026.15
680.671	5774.25
680.861	5856.17
681.052	5743.53
681.242	5843.88
681.432	5888.93
681.622	5817.26
681.813	5870.5
682.003	5727.14
682.193	5825.45
682.383	5753.77
682.573	5794.73
682.764	5602.22
682.954	5553.07
683.144	5659.56
683.334	5626.79
683.524	5690.28
683.714	5620.65
683.904	5602.22
684.094	5628.84
684.284	5505.96
684.474	5684.14
684.664	5469.1
684.854	5473.2
685.044	5544.88
685.234	5401.52
685.424	5495.72
685.614	5338.03
685.804	5462.96
685.994	5544.88
686.184	5516.2
686.374	5309.36
686.564	5200.82
686.753	5122.99
686.943	5262.26
687.133	5211.06
687.323	5233.58
687.513	5352.37
687.702	5155.76
687.892	5192.62
688.082	5045.17
688.272	5143.47
688.461	5116.85
688.651	5018.55
688.841	5008.31
689.03	5249.97
689.22	4963.25
689.41	5157.81
689.599	4998.07
689.789	5024.69
689.979	4920.24
690.168	5000.12
690.358	4846.52
690.547	4823.99
690.737	4912.05
690.926	4795.32
691.116	4795.32
691.305	4910.01
691.495	4733.88
691.684	4719.54
691.874	4742.07
692.063	4795.32
692.252	4645.82
692.442	4692.92
692.631	4643.77
692.82	4604.86
693.01	4471.74
693.199	4561.85
693.388	4516.8
693.578	4596.67
693.767	4604.86
693.956	4520.89
694.146	4504.51
694.335	4414.4
694.524	4357.05
694.713	4393.92
694.902	4228.03
695.092	4436.92
695.281	4445.12
695.47	4443.07
695.659	4228.03
695.848	4324.29
696.037	4295.61
696.226	4236.22
696.415	4244.42
696.604	4217.79
696.793	4209.6
696.982	4281.28
697.171	4262.85
697.36	4232.13
697.549	4221.89
697.738	4303.81
697.927	4312
698.116	4299.71
698.305	4209.6
698.494	4252.61
698.683	4027.33
698.872	4223.94
699.061	4041.67
699.25	4129.73
699.438	4211.65
699.627	4015.04
699.816	4168.64
700.005	4060.1
700.193	4000.71
700.382	4072.39
700.571	3963.84
700.76	3974.08
700.948	4041.67
701.137	4004.8
701.326	3908.55
701.514	3847.11
701.703	3894.21
701.892	3898.31
702.08	3990.47
702.269	3912.64
702.457	3873.73
702.646	3881.92
702.834	3869.64
703.023	3826.63
703.212	3750.85
703.4	3855.3
703.589	3924.93
703.777	3800.01
703.965	3804.1
704.154	3822.53
704.342	3681.22
704.531	3779.53
704.719	3802.05
704.907	3802.05
705.096	3804.1
705.284	3644.36
705.472	3861.45
705.661	3726.28
705.849	3759.05
706.037	3744.71
706.226	3699.66
706.414	3697.61
706.602	3746.76
706.79	3750.85
706.979	3691.46
707.167	3664.84
707.355	3544.01
707.543	3705.8
707.731	3720.14
707.919	3595.21
708.107	3544.01
708.296	3660.74
708.484	3660.74
708.672	3660.74
708.86	3439.56
709.048	3562.44
709.236	3515.34
709.424	3501
709.612	3484.62
709.8	3695.56
709.988	3390.41
710.176	3546.06
710.364	3582.92
710.551	3488.71
710.739	3423.18
710.927	3402.7
711.115	3546.06
711.303	3394.51
711.491	3439.56
711.679	3447.76
711.866	3376.08
712.054	3488.71
712.242	3406.8
712.43	3531.72
712.617	3427.28
712.805	3423.18
712.993	3386.32
713.181	3412.94
713.368	3302.35
713.556	3310.54
713.744	3259.34
713.931	3423.18
714.119	3353.55
714.306	3408.84
714.494	3310.54
714.682	3294.16
714.869	3279.82
715.057	3345.36
715.244	3212.24
715.432	3288.01
715.619	3314.64
715.807	3435.47
715.994	3290.06
716.182	3204.05
716.369	3216.33
716.556	3161.04
716.744	3136.46
716.931	3202
717.119	3218.38
717.306	3210.19
717.493	3083.22
717.681	3197.9
717.868	3212.24
718.055	3349.45
718.242	3290.06
718.43	3195.86
718.617	3185.62
718.804	3132.37
718.991	3179.47
719.179	3202
719.366	3089.36
719.553	3128.27
719.74	3105.74
719.927	3144.66
720.114	3214.29
720.301	3134.42
720.488	3115.98
720.676	3079.12
720.863	3025.87
721.05	2909.14
721.237	3111.89
721.424	3075.03
721.611	3105.74
721.798	3017.68
721.985	2948.05
722.172	2993.11
722.358	3009.49
722.545	3050.45
722.732	3163.09
722.919	3113.94
723.106	3044.31
723.293	3095.5
723.48	3017.68
723.667	2925.52
723.853	3003.35
724.04	3038.16
724.227	2937.81
724.414	2837.46
724.6	2982.87
724.787	2909.14
724.974	2939.86
725.161	2993.11
725.347	2743.25
725.534	2884.56
725.72	2915.28
725.907	2917.33
726.094	3025.87
726.28	2798.55
726.467	2909.14
726.653	2989.01
726.84	2915.28
727.027	3032.02
727.213	2874.32
727.4	2862.04
727.586	2882.52
727.773	2915.28
727.959	2903
728.145	2833.36
728.332	2808.79
728.518	2804.69
728.705	2857.94
728.891	2833.36
729.077	2886.61
729.264	2876.37
729.45	2816.98
729.636	2923.48
729.823	2794.45
730.009	2769.88
730.195	2800.6
730.382	2751.45
730.568	2730.97
730.754	2761.69
730.94	2745.3
731.126	2849.75
731.313	2780.12
731.499	2704.34
731.685	2694.1
731.871	2786.26
732.057	2743.25
732.243	2778.07
732.429	2784.21
732.615	2706.39
732.801	2780.12
732.987	2720.73
733.173	2698.2
733.359	2733.01
733.545	2681.82
733.731	2620.38
733.917	2784.21
734.103	2771.93
734.289	2737.11
734.475	2698.2
734.661	2728.92
734.847	2622.42
735.033	2718.68
735.219	2665.43
735.404	2687.96
735.59	2714.58
735.776	2778.07
735.962	2644.95
736.148	2532.31
736.333	2632.66
736.519	2644.95
736.705	2618.33
736.89	2587.61
737.076	2636.76
737.262	2597.85
737.447	2595.8
737.633	2532.31
737.819	2501.59
738.004	2489.31
738.19	2485.21
738.375	2671.58
738.561	2542.55
738.747	2511.83
738.932	2532.31
739.118	2497.5
739.303	2497.5
739.489	2450.39
739.674	2565.08
739.859	2464.73
740.045	2522.07
740.23	2417.63
740.416	2386.91
740.601	2452.44
740.786	2413.53
740.972	2485.21
741.157	2407.39
741.342	2503.64
741.528	2354.14
741.713	2489.31
741.898	2261.98
742.084	2411.48
742.269	2380.76
742.454	2401.24
742.639	2391
742.824	2399.2
743.01	2345.95
743.195	2311.13
743.38	2307.04
743.565	2280.41
743.75	2345.95
743.935	2231.26
744.12	2341.85
744.305	2210.78
744.49	2321.37
744.675	2153.44
744.86	2165.73
745.045	2218.97
745.23	2218.97
745.415	2171.87
745.6	2100.19
745.785	2186.21
745.97	2194.4
746.155	2137.06
746.34	2165.73
746.525	1973.22
746.71	2251.74
746.895	2141.15
747.079	2048.99
747.264	2112.48
747.449	2087.9
747.634	2065.38
747.819	1995.75
748.003	1989.6
748.188	2016.23
748.373	1899.49
748.557	1868.77
748.742	1942.5
748.927	1981.41
749.111	1973.22
749.296	1926.11
749.481	1981.41
749.665	1842.15
749.85	1850.34
750.034	1911.78
750.219	1866.72
750.404	1858.53
750.588	1833.96
750.773	1815.52
750.957	1915.87
751.141	1817.57
751.326	1772.52
751.51	1833.96
751.695	1735.65
751.879	1788.9
752.064	1786.85
752.248	1731.56
752.432	1663.97
752.617	1729.51
752.801	1719.27
752.985	1711.08
753.17	1620.97
753.354	1653.73
753.538	1584.1
753.722	1606.63
753.907	1594.34
754.091	1657.83
754.275	1672.17
754.459	1498.09
754.643	1477.61
754.828	1573.86
755.012	1539.05
755.196	1575.91
755.38	1526.76
755.564	1543.14
755.748	1524.71
755.932	1477.61
756.116	1442.79
756.3	1584.1
756.484	1473.51
756.668	1432.55
756.852	1461.23
757.036	1416.17
757.22	1430.51
757.404	1381.35
757.588	1371.12
757.772	1473.51
757.956	1383.4
758.14	1377.26
758.323	1350.64
758.507	1377.26
758.691	1330.16
758.875	1258.48
759.059	1352.68
759.242	1407.98
759.426	1168.37
759.61	1321.96
759.794	1354.73
759.977	1250.28
760.161	1319.92
760.345	1260.52
760.528	1211.37
760.712	1258.48
760.895	1299.44
761.079	1256.43
761.263	1227.76
761.446	1238
761.63	1258.48
761.813	1154.03
761.997	1090.54
762.18	1227.76
762.364	1170.41
762.547	1137.65
762.731	1178.61
762.914	1068.02
763.098	1145.84
763.281	1141.74
763.464	1254.38
763.648	1133.55
763.831	1137.65
764.015	1061.87
764.198	1164.27
764.381	1100.78
764.564	1108.98
764.748	1160.17
764.931	1145.84
765.114	1055.73
765.297	1137.65
765.481	1125.36
765.664	1018.86
765.847	1027.06
766.03	1076.21
766.213	1051.63
766.397	988.14
766.58	1076.21
766.763	926.71
766.946	1065.97
767.129	1047.54
767.312	1018.86
767.495	1082.35
767.678	992.24
767.861	1010.67
768.044	1010.67
768.227	1018.86
768.41	1029.1
768.593	990.19
768.776	934.9
768.959	1006.58
769.142	1027.06
769.324	982
769.507	984.05
769.69	1006.58
769.873	990.19
770.056	971.76
770.239	934.9
770.421	1020.91
770.604	898.03
770.787	959.47
770.97	941.04
771.152	928.75
771.335	904.18
771.518	918.51
771.7	900.08
771.883	934.9
772.066	865.27
772.248	801.78
772.431	875.51
772.613	945.14
772.796	793.59
772.978	863.22
773.161	943.09
773.343	883.7
773.526	738.29
773.708	805.88
773.891	861.17
774.073	902.13
774.256	838.64
774.438	867.31
774.621	801.78
774.803	885.75
774.985	828.4
775.168	850.93
775.35	844.79
775.532	744.44
775.715	760.82
775.897	805.88
776.079	760.82
776.261	781.3
776.444	664.57
776.626	820.21
776.808	752.63
776.99	855.03
777.173	689.14
777.355	793.59
777.537	746.48
777.719	715.77
777.901	717.81
778.083	596.98
778.265	711.67
778.447	629.75
778.629	648.18
778.811	754.68
778.993	769.01
779.175	744.44
779.357	670.71
779.539	605.17
779.721	672.76
779.903	705.53
780.085	566.26
780.267	574.46
780.449	629.75
780.631	658.42
780.812	705.53
780.994	603.13
781.176	601.08
781.358	644.09
781.54	623.61
781.721	658.42
781.903	535.54
782.085	558.07
782.267	584.7
782.448	539.64
782.63	549.88
782.812	574.46
782.993	564.22
783.175	617.46
783.357	539.64
783.538	623.61
783.72	541.69
783.901	498.68
784.083	599.03
784.264	576.5
784.446	457.72
784.627	474.1
784.809	453.63
784.99	625.65
785.172	465.91
785.353	508.92
785.535	510.97
785.716	420.86
785.897	467.96
786.079	525.3
786.26	496.63
786.441	502.78
786.623	343.03
786.804	443.39
786.985	429.05
787.167	443.39
787.348	392.19
787.529	500.73
787.71	506.87
787.891	461.82
788.073	367.61
788.254	443.39
788.435	506.87
788.616	435.19
788.797	420.86
788.978	392.19
789.159	396.28
789.34	388.09
789.522	406.52
789.703	359.42
789.884	396.28
790.065	433.15
790.246	474.1
790.427	437.24
790.607	379.9
790.788	441.34
790.969	402.43
791.15	431.1
791.331	345.08
791.512	394.23
791.693	351.23
791.874	355.32
792.054	390.14
792.235	379.9
792.416	375.8
792.597	359.42
792.778	369.66
792.958	345.08
793.139	377.85
793.32	377.85
793.5	287.74
793.681	369.66
793.862	400.38
794.042	359.42
794.223	304.12
794.404	291.84
794.584	281.6
794.765	336.89
794.945	316.41
795.126	306.17
795.306	383.99
795.487	295.93
795.667	363.51
795.848	412.67
796.028	330.75
796.209	326.65
796.389	318.46
796.57	269.31
796.75	359.42
796.93	267.26
797.111	302.08
797.291	236.54
797.471	328.7
797.652	238.59
797.832	252.92
798.012	383.99
798.192	228.35
798.373	189.44
798.553	228.35
798.733	318.46
798.913	306.17
799.093	254.97
799.274	218.11
799.454	293.88
799.634	275.45
799.814	302.08
799.994	257.02
800.174	269.31
800.354	226.3
800.534	220.16
800.714	310.27
800.894	220.16
801.074	252.92
801.254	138.24
801.434	269.31
801.614	257.02
801.794	254.97
801.974	824.31
802.154	246.78
802.334	273.4
802.514	177.15
802.693	269.31
802.873	230.4
803.053	257.02
803.233	175.1
803.413	224.25
803.592	246.78
803.772	101.37
803.952	246.78
804.131	197.63
804.311	244.73
804.491	273.4
804.67	230.4
804.85	156.67
805.03	191.49
805.209	205.82
805.389	293.88
805.568	173.05
805.748	183.29
805.928	238.59
806.107	214.01
806.287	269.31
806.466	146.43
806.646	148.48
806.825	211.96
807.004	224.25
807.184	183.29
807.363	160.77
807.543	209.92
807.722	242.68
807.901	146.43
808.081	236.54
808.26	179.2
808.439	142.33
808.619	277.5
808.798	152.57
808.977	248.83
809.156	197.63
809.336	220.16
809.515	189.44
809.694	203.77
809.873	220.16
810.052	152.57
810.231	205.82
810.411	132.09
810.59	207.87
810.769	162.81
810.948	228.35
811.127	152.57
811.306	187.39
811.485	72.7
811.664	197.63
811.843	125.95
812.022	173.05
812.201	171.01
812.38	121.85
812.559	193.53
812.737	179.2
812.916	89.09
813.095	150.53
813.274	136.19
813.453	187.39
813.632	191.49
813.811	121.85
813.989	91.13
814.168	187.39
814.347	162.81
814.526	154.62
814.704	97.28
814.883	146.43
815.062	58.37
815.24	179.2
815.419	64.51
815.598	195.58
815.776	89.09
815.955	164.86
816.133	162.81
816.312	136.19
816.49	134.14
816.669	130.05
816.847	123.9
817.026	173.05
817.204	187.39
817.383	183.29
817.561	123.9
817.74	109.57
817.918	191.49
818.097	207.87
818.275	175.1
818.453	179.2
818.632	109.57
818.81	201.72
818.988	95.23
819.167	76.8
819.345	95.23
819.523	99.33
819.701	95.23
819.879	160.77
820.058	72.7
820.236	191.49
820.414	162.81
820.592	154.62
820.77	113.66
820.948	150.53
821.127	74.75
821.305	97.28
821.483	62.46
821.661	156.67
821.839	107.52
822.017	162.81
822.195	111.61
822.373	138.24
822.551	130.05
822.729	84.99
822.907	39.94
823.085	146.43
823.262	156.67
823.44	130.05
823.618	99.33
823.796	134.14
823.974	72.7
824.152	140.29
824.329	125.95
824.507	130.05
824.685	82.94
824.863	117.76
825.04	123.9
825.218	56.32
825.396	138.24
825.574	119.81
825.751	91.13
825.929	148.48
826.107	117.76
826.284	130.05
826.462	37.89
826.639	132.09
826.817	121.85
826.994	56.32
827.172	80.89
827.349	187.39
827.527	27.65
827.704	109.57
827.882	164.86
828.059	72.7
828.237	160.77
828.414	91.13
828.591	62.46
828.769	95.23
828.946	74.75
829.124	31.74
829.301	23.55
829.478	125.95
829.655	64.51
829.833	158.72
830.01	-11.26
830.187	128
830.364	48.13
830.542	154.62
830.719	128
830.896	162.81
831.073	119.81
831.25	105.47
831.427	74.75
831.604	109.57
831.782	48.13
831.959	111.61
832.136	62.46
832.313	84.99
832.49	70.65
832.667	93.18
832.844	115.71
833.021	115.71
833.198	66.56
833.374	41.98
833.551	132.09
833.728	21.5
833.905	138.24
834.082	-7.17
834.259	33.79
834.436	91.13
834.612	80.89
834.789	76.8
834.966	44.03
835.143	115.71
835.319	19.46
835.496	107.52
835.673	93.18
835.85	82.94
836.026	25.6
836.203	64.51
836.38	39.94
836.556	68.61
836.733	48.13
836.909	119.81
837.086	93.18
837.262	56.32
837.439	105.47
837.616	-9.22
837.792	117.76
837.968	46.08
838.145	48.13
838.321	52.22
838.498	82.94
838.674	46.08
838.851	52.22
839.027	113.66
839.203	56.32
839.38	52.22
839.556	25.6
839.732	64.51
839.909	11.26
840.085	31.74
840.261	46.08
840.437	44.03
840.614	21.5
840.79	80.89
840.966	37.89
841.142	33.79
841.318	72.7
841.494	84.99
841.671	113.66
841.847	-15.36
842.023	-50.18
842.199	1.02
842.375	11.26
842.551	35.84
842.727	39.94
842.903	175.1
843.079	-33.79
843.255	162.81
843.431	95.23
843.607	1.02
843.783	19.46
843.959	41.98
844.134	-41.98
844.31	48.13
844.486	23.55
844.662	7.17
844.838	41.98
845.013	-17.41
845.189	99.33
845.365	132.09
845.541	64.51
845.716	109.57
845.892	93.18
846.068	35.84
846.244	-19.46
846.419	37.89
846.595	29.7
846.77	15.36
846.946	52.22
847.122	76.8
847.297	-17.41
847.473	109.57
847.648	3.07
847.824	76.8
847.999	-25.6
848.175	-52.22
848.35	17.41
848.526	101.37
848.701	23.55
848.876	72.7
849.052	21.5
849.227	-46.08
849.403	-58.37
849.578	89.09
849.753	-1.02
849.929	35.84
850.104	7.17
850.279	31.74
850.454	72.7
850.63	19.46
850.805	97.28
850.98	35.84
851.155	25.6
851.33	121.85
851.505	-15.36
851.681	9.22
851.856	31.74
852.031	107.52
852.206	66.56
852.381	-35.84
852.556	68.61
852.731	1.02
852.906	70.65
853.081	89.09
853.256	146.43
853.431	84.99
853.606	64.51
853.781	-1.02
853.956	1.02
854.131	15.36
854.305	15.36
854.48	56.32
854.655	-29.7
854.83	-21.5
855.005	72.7
855.18	41.98
855.354	-50.18
855.529	13.31
855.704	15.36
855.879	23.55
856.053	1.02
856.228	-11.26
856.403	-54.27
856.577	52.22
856.752	-17.41
856.926	-7.17
857.101	80.89
857.276	-78.85
857.45	105.47
857.625	23.55
857.799	37.89
857.974	60.42
858.148	39.94
858.323	23.55
858.497	7.17
858.672	64.51
858.846	-3.07
859.02	109.57
859.195	19.46
859.369	-23.55
859.543	-5.12
859.718	31.74
859.892	46.08
860.066	25.6
860.241	21.5
860.415	-31.74
860.589	56.32
860.763	74.75
860.938	-25.6
861.112	-33.79
861.286	-11.26
861.46	60.42
861.634	-39.94
861.808	60.42
861.982	-7.17
862.157	-11.26
862.331	-7.17
862.505	-41.98
862.679	-13.31
862.853	9.22
863.027	-17.41
863.201	25.6
863.375	23.55
863.549	27.65
863.722	17.41
863.896	31.74
864.07	11.26
864.244	64.51
864.418	15.36
864.592	64.51
864.766	19.46
864.939	-27.65
865.113	46.08
865.287	99.33
865.461	-74.75
865.634	15.36
865.808	-7.17
865.982	9.22
866.156	64.51
866.329	-25.6
866.503	-35.84
866.676	101.37
866.85	7.17
867.024	-48.13
867.197	-31.74
867.371	68.61
867.544	7.17
867.718	-46.08
867.891	25.6
868.065	-29.7
868.238	-39.94
868.412	121.85
868.585	-9.22
868.759	-27.65
868.932	23.55
869.105	-5.12
869.279	-21.5
869.452	25.6
869.625	64.51
869.799	31.74
869.972	27.65
870.145	93.18
870.319	97.28
870.492	-54.27
870.665	33.79
870.838	-29.7
871.011	-74.75
871.185	48.13
871.358	-25.6
871.531	54.27
871.704	-17.41
871.877	56.32
872.05	15.36
872.223	3.07
872.396	3.07
872.569	-17.41
872.742	-7.17
872.915	39.94
873.088	23.55
873.261	-48.13
873.434	-5.12
873.607	-1.02
873.78	7.17
873.953	-13.31
874.126	27.65
874.299	58.37
874.471	7.17
874.644	-17.41
874.817	-44.03
874.99	-15.36
875.163	15.36
875.335	-58.37
875.508	89.09
875.681	-27.65
875.853	-31.74
876.026	15.36
876.199	5.12
876.371	-15.36
876.544	76.8
876.717	-9.22
876.889	-1.02
877.062	-23.55
877.234	-56.32
877.407	31.74
877.579	31.74
877.752	1.02
877.924	46.08
878.097	-13.31
878.269	-58.37
878.442	-9.22
878.614	9.22
878.786	25.6
878.959	56.32
879.131	-7.17
879.303	-62.46
879.476	13.31
879.648	-15.36
879.82	1.02
879.993	-21.5
880.165	31.74
880.337	-41.98
880.509	-23.55
880.681	-25.6
880.854	-37.89
881.026	1.02
881.198	58.37
881.37	41.98
881.542	25.6
881.714	84.99
881.886	-66.56
882.058	-7.17
882.23	-33.79
882.402	-11.26
882.574	-17.41
882.746	7.17
882.918	-9.22
883.09	-33.79
883.262	-19.46
883.434	-9.22
883.606	-60.42
883.778	-50.18
883.95	-11.26
884.122	-39.94
884.293	-9.22
884.465	76.8
884.637	56.32
884.809	-37.89
884.98	-76.8
885.152	1.02
885.324	39.94
885.496	-58.37
885.667	-31.74
885.839	25.6
886.011	23.55
886.182	-17.41
886.354	33.79
886.525	3.07
886.697	50.18
886.869	3.07
887.04	46.08
887.212	31.74
887.383	23.55
887.555	50.18
887.726	31.74
887.897	48.13
888.069	9.22
888.24	7.17
888.412	-74.75
888.583	15.36
888.754	19.46
888.926	-15.36
889.097	-70.65
889.268	23.55
889.44	27.65
889.611	15.36
889.782	-29.7
889.953	-78.85
890.125	-13.31
890.296	-56.32
890.467	-9.22
890.638	-9.22
890.809	25.6
890.98	-29.7
891.151	-5.12
891.323	1.02
891.494	44.03
891.665	-11.26
891.836	31.74
892.007	23.55
892.178	31.74
892.349	-68.61
892.52	-27.65
892.691	-21.5
892.862	-27.65
893.032	-23.55
893.203	3.07
893.374	11.26
893.545	17.41
893.716	-48.13
893.887	48.13
894.057	-17.41
894.228	64.51
894.399	-33.79
894.57	27.65
894.74	-17.41
894.911	3.07
895.082	-5.12
895.253	-89.09
895.423	56.32
895.594	7.17
895.764	-66.56
895.935	17.41
896.106	7.17
896.276	48.13
896.447	35.84
896.617	13.31
896.788	-35.84
896.958	-13.31
897.129	-48.13
897.299	-7.17
897.47	37.89
897.64	-50.18
897.81	-13.31
897.981	-33.79
898.151	-39.94
898.322	27.65
898.492	58.37
898.662	-99.33
898.832	-54.27
899.003	-9.22
899.173	-64.51
899.343	27.65
899.513	-37.89
