Data from USB4F104151__83__14-17-44-486.txt Node

Date: Thu Mar 13 14:17:44 EDT 2025
User: louis
Spectrometer: USB4F10415
Trigger mode: 4
Integration Time (sec): 2.000000E-2
Scans to average: 1
Electric dark correction enabled: true
Nonlinearity correction enabled: false
Boxcar width: 0
XAxis mode: Wavelengths
Number of Pixels in Spectrum: 3648
>>>>>Begin Spectral Data<<<<<
178.204	-133.46
178.424	-133.46
178.644	-133.46
178.864	-137.56
179.084	-133.46
179.304	1.71
179.524	-72.02
179.744	28.33
179.964	-18.77
180.184	9.9
180.404	-35.16
180.624	20.14
180.844	1.71
181.064	11.95
181.283	32.43
181.503	34.47
181.723	-14.68
181.943	18.09
182.163	-14.68
182.383	1.71
182.602	59.05
182.822	59.05
183.042	32.43
183.262	-10.58
183.482	-6.49
183.701	122.54
183.921	-10.58
184.141	1.71
184.361	34.47
184.58	-4.44
184.8	-2.39
185.02	34.47
185.239	42.67
185.459	69.29
185.679	28.33
185.898	57
186.118	26.28
186.338	-35.16
186.557	-4.44
186.777	75.43
186.997	-12.63
187.216	13.99
187.436	-6.49
187.655	50.86
187.875	91.82
188.095	67.24
188.314	-18.77
188.534	30.38
188.753	-10.58
188.973	36.52
189.192	24.23
189.412	34.47
189.631	-22.87
189.851	13.99
190.07	38.57
190.29	-2.39
190.509	-55.64
190.729	46.76
190.948	16.04
191.168	34.47
191.387	69.29
191.607	28.33
191.826	-14.68
192.045	-14.68
192.265	34.47
192.484	85.67
192.704	26.28
192.923	22.19
193.142	124.58
193.362	67.24
193.581	50.86
193.8	9.9
194.02	61.1
194.239	52.91
194.458	79.53
194.678	40.62
194.897	-31.06
195.116	-61.78
195.335	34.47
195.555	38.57
195.774	-6.49
195.993	-4.44
196.212	18.09
196.432	3.75
196.651	26.28
196.87	-20.82
197.089	42.67
197.308	24.23
197.528	18.09
197.747	-20.82
197.966	73.39
198.185	59.05
198.404	-63.83
198.623	132.78
198.842	59.05
199.062	-6.49
199.281	93.87
199.5	-39.25
199.719	59.05
199.938	54.95
200.157	65.19
200.376	-18.77
200.595	59.05
200.814	50.86
201.033	20.14
201.252	65.19
201.471	-8.53
201.69	59.05
201.909	40.62
202.128	-37.2
202.347	28.33
202.566	-26.96
202.785	11.95
203.004	59.05
203.223	95.91
203.442	24.23
203.661	42.67
203.879	-18.77
204.098	42.67
204.317	-41.3
204.536	36.52
204.755	-2.39
204.974	100.01
205.193	22.19
205.411	44.71
205.63	28.33
205.849	-22.87
206.068	5.8
206.287	42.67
206.505	85.67
206.724	40.62
206.943	54.95
207.162	116.39
207.381	36.52
207.599	-35.16
207.818	52.91
208.037	34.47
208.255	44.71
208.474	77.48
208.693	36.52
208.911	9.9
209.13	61.1
209.349	-76.12
209.567	-24.92
209.786	77.48
210.005	52.91
210.223	59.05
210.442	26.28
210.661	44.71
210.879	11.95
211.098	1.71
211.316	77.48
211.535	44.71
211.753	67.24
211.972	42.67
212.191	38.57
212.409	22.19
212.628	44.71
212.846	11.95
213.065	34.47
213.283	38.57
213.502	65.19
213.72	63.15
213.938	61.1
214.157	18.09
214.375	65.19
214.594	13.99
214.812	-63.83
215.031	42.67
215.249	34.47
215.467	11.95
215.686	-10.58
215.904	75.43
216.122	13.99
216.341	57
216.559	30.38
216.778	147.11
216.996	69.29
217.214	9.9
217.432	-26.96
217.651	16.04
217.869	9.9
218.087	22.19
218.306	52.91
218.524	-10.58
218.742	75.43
218.96	26.28
219.179	69.29
219.397	38.57
219.615	63.15
219.833	34.47
220.051	7.85
220.27	87.72
220.488	75.43
220.706	59.05
220.924	-55.64
221.142	38.57
221.36	40.62
221.578	-0.34
221.796	9.9
222.015	42.67
222.233	54.95
222.451	87.72
222.669	-2.39
222.887	7.85
223.105	18.09
223.323	-37.2
223.541	44.71
223.759	61.1
223.977	42.67
224.195	71.34
224.413	11.95
224.631	100.01
224.849	59.05
225.067	11.95
225.285	-76.12
225.503	71.34
225.721	-6.49
225.939	42.67
226.157	22.19
226.375	83.63
226.592	11.95
226.81	44.71
227.028	59.05
227.246	77.48
227.464	34.47
227.682	91.82
227.9	-14.68
228.117	48.81
228.335	50.86
228.553	11.95
228.771	34.47
228.989	36.52
229.206	30.38
229.424	-14.68
229.642	11.95
229.86	13.99
230.077	18.09
230.295	46.76
230.513	26.28
230.731	48.81
230.948	102.06
231.166	9.9
231.384	1.71
231.601	42.67
231.819	30.38
232.037	5.8
232.254	-37.2
232.472	36.52
232.689	-12.63
232.907	85.67
233.125	-6.49
233.342	44.71
233.56	-80.21
233.777	42.67
233.995	-31.06
234.213	9.9
234.43	18.09
234.648	-12.63
234.865	9.9
235.083	22.19
235.3	26.28
235.518	63.15
235.735	50.86
235.953	71.34
236.17	-35.16
236.388	-51.54
236.605	24.23
236.822	34.47
237.04	-20.82
237.257	48.81
237.475	-72.02
237.692	-29.01
237.909	83.63
238.127	-4.44
238.344	81.58
238.562	85.67
238.779	-14.68
238.996	38.57
239.214	26.28
239.431	-12.63
239.648	28.33
239.865	46.76
240.083	77.48
240.3	44.71
240.517	-96.6
240.735	32.43
240.952	3.75
241.169	36.52
241.386	-22.87
241.603	87.72
241.821	13.99
242.038	-31.06
242.255	1.71
242.472	18.09
242.689	104.11
242.907	112.3
243.124	-6.49
243.341	-12.63
243.558	-35.16
243.775	11.95
243.992	30.38
244.209	63.15
244.426	87.72
244.643	-4.44
244.86	-2.39
245.078	83.63
245.295	28.33
245.512	83.63
245.729	36.52
245.946	40.62
246.163	85.67
246.38	140.97
246.597	71.34
246.814	36.52
247.031	-29.01
247.248	65.19
247.464	22.19
247.681	54.95
247.898	7.85
248.115	-31.06
248.332	-8.53
248.549	36.52
248.766	9.9
248.983	91.82
249.2	-24.92
249.417	67.24
249.633	-20.82
249.85	110.25
250.067	-10.58
250.284	9.9
250.501	3.75
250.717	18.09
250.934	52.91
251.151	59.05
251.368	104.11
251.585	61.1
251.801	50.86
252.018	-4.44
252.235	-4.44
252.451	104.11
252.668	-41.3
252.885	75.43
253.102	100.01
253.318	-14.68
253.535	9.9
253.752	22.19
253.968	-2.39
254.185	34.47
254.401	5.8
254.618	50.86
254.835	-12.63
255.051	32.43
255.268	106.15
255.484	77.48
255.701	1.71
255.917	1.71
256.134	20.14
256.351	38.57
256.567	-39.25
256.784	52.91
257	-22.87
257.217	91.82
257.433	9.9
257.65	75.43
257.866	52.91
258.082	36.52
258.299	-0.34
258.515	13.99
258.732	91.82
258.948	81.58
259.165	83.63
259.381	-31.06
259.597	71.34
259.814	26.28
260.03	38.57
260.246	34.47
260.463	46.76
260.679	18.09
260.895	-31.06
261.112	95.91
261.328	32.43
261.544	-4.44
261.761	140.97
261.977	-0.34
262.193	-31.06
262.409	11.95
262.626	186.02
262.842	-12.63
263.058	26.28
263.274	54.95
263.49	95.91
263.707	89.77
263.923	9.9
264.139	-35.16
264.355	79.53
264.571	18.09
264.787	42.67
265.004	26.28
265.22	22.19
265.436	-14.68
265.652	-29.01
265.868	11.95
266.084	-0.34
266.3	-41.3
266.516	-29.01
266.732	1.71
266.948	69.29
267.164	100.01
267.38	18.09
267.596	71.34
267.812	67.24
268.028	93.87
268.244	1.71
268.46	11.95
268.676	157.35
268.892	22.19
269.108	36.52
269.324	18.09
269.54	-31.06
269.756	59.05
269.972	-26.96
270.188	30.38
270.403	-47.44
270.619	9.9
270.835	9.9
271.051	18.09
271.267	-39.25
271.483	34.47
271.698	3.75
271.914	7.85
272.13	13.99
272.346	34.47
272.562	-18.77
272.777	87.72
272.993	42.67
273.209	26.28
273.425	34.47
273.64	9.9
273.856	102.06
274.072	1.71
274.287	50.86
274.503	46.76
274.719	77.48
274.934	-18.77
275.15	-63.83
275.366	26.28
275.581	30.38
275.797	-0.34
276.012	50.86
276.228	-31.06
276.444	50.86
276.659	124.58
276.875	-31.06
277.09	26.28
277.306	30.38
277.521	59.05
277.737	13.99
277.952	34.47
278.168	-18.77
278.383	77.48
278.599	-4.44
278.814	46.76
279.03	38.57
279.245	95.91
279.461	67.24
279.676	-0.34
279.892	-14.68
280.107	-43.35
280.322	-82.26
280.538	26.28
280.753	20.14
280.969	26.28
281.184	54.95
281.399	34.47
281.615	59.05
281.83	81.58
282.045	13.99
282.26	-20.82
282.476	-14.68
282.691	9.9
282.906	46.76
283.122	20.14
283.337	36.52
283.552	83.63
283.767	79.53
283.983	-14.68
284.198	-39.25
284.413	-4.44
284.628	1.71
284.843	83.63
285.058	50.86
285.274	18.09
285.489	67.24
285.704	26.28
285.919	16.04
286.134	5.8
286.349	1.71
286.564	13.99
286.779	22.19
286.995	67.24
287.21	9.9
287.425	44.71
287.64	85.67
287.855	100.01
288.07	20.14
288.285	87.72
288.5	22.19
288.715	20.14
288.93	26.28
289.145	-69.97
289.36	1.71
289.575	20.14
289.79	63.15
290.004	38.57
290.219	75.43
290.434	-2.39
290.649	-0.34
290.864	20.14
291.079	28.33
291.294	59.05
291.509	11.95
291.724	-4.44
291.938	20.14
292.153	95.91
292.368	-6.49
292.583	38.57
292.798	-2.39
293.012	3.75
293.227	67.24
293.442	38.57
293.657	59.05
293.871	83.63
294.086	28.33
294.301	77.48
294.516	69.29
294.73	22.19
294.945	-4.44
295.16	42.67
295.374	-8.53
295.589	140.97
295.804	-6.49
296.018	26.28
296.233	28.33
296.447	67.24
296.662	3.75
296.877	61.1
297.091	30.38
297.306	1.71
297.52	26.28
297.735	-18.77
297.949	32.43
298.164	61.1
298.378	13.99
298.593	46.76
298.807	85.67
299.022	44.71
299.236	87.72
299.451	30.38
299.665	-16.73
299.88	59.05
300.094	-2.39
300.309	38.57
300.523	-82.26
300.737	75.43
300.952	104.11
301.166	91.82
301.381	-51.54
301.595	34.47
301.809	-4.44
302.024	38.57
302.238	-22.87
302.452	77.48
302.667	28.33
302.881	42.67
303.095	75.43
303.309	140.97
303.524	46.76
303.738	85.67
303.952	42.67
304.166	9.9
304.381	3.75
304.595	59.05
304.809	11.95
305.023	26.28
305.237	-37.2
305.452	13.99
305.666	61.1
305.88	20.14
306.094	11.95
306.308	65.19
306.522	-10.58
306.736	30.38
306.95	69.29
307.164	124.58
307.379	91.82
307.593	46.76
307.807	108.2
308.021	11.95
308.235	73.39
308.449	36.52
308.663	-31.06
308.877	18.09
309.091	-26.96
309.305	40.62
309.519	36.52
309.733	34.47
309.947	1.71
310.161	116.39
310.374	34.47
310.588	95.91
310.802	-35.16
311.016	-14.68
311.23	46.76
311.444	69.29
311.658	-12.63
311.872	-4.44
312.085	112.3
312.299	28.33
312.513	57
312.727	32.43
312.941	-47.44
313.154	20.14
313.368	42.67
313.582	18.09
313.796	100.01
314.009	-6.49
314.223	63.15
314.437	59.05
314.651	28.33
314.864	-26.96
315.078	28.33
315.292	11.95
315.505	79.53
315.719	77.48
315.933	63.15
316.146	26.28
316.36	42.67
316.573	77.48
316.787	69.29
317.001	67.24
317.214	-4.44
317.428	13.99
317.641	-39.25
317.855	28.33
318.068	95.91
318.282	50.86
318.495	69.29
318.709	28.33
318.922	-24.92
319.136	116.39
319.349	87.72
319.563	-20.82
319.776	75.43
319.99	42.67
320.203	38.57
320.417	1.71
320.63	87.72
320.843	20.14
321.057	46.76
321.27	34.47
321.483	83.63
321.697	59.05
321.91	50.86
322.124	-24.92
322.337	-16.73
322.55	44.71
322.763	1.71
322.977	52.91
323.19	3.75
323.403	85.67
323.617	63.15
323.83	65.19
324.043	42.67
324.256	20.14
324.469	-26.96
324.683	28.33
324.896	104.11
325.109	-18.77
325.322	3.75
325.535	11.95
325.748	9.9
325.962	-14.68
326.175	108.2
326.388	24.23
326.601	79.53
326.814	42.67
327.027	-35.16
327.24	42.67
327.453	85.67
327.666	20.14
327.879	85.67
328.092	77.48
328.305	36.52
328.518	-16.73
328.731	28.33
328.944	3.75
329.157	65.19
329.37	26.28
329.583	65.19
329.796	91.82
330.009	1.71
330.222	79.53
330.435	46.76
330.648	71.34
330.861	38.57
331.073	22.19
331.286	77.48
331.499	83.63
331.712	48.81
331.925	-39.25
332.138	22.19
332.35	34.47
332.563	-18.77
332.776	9.9
332.989	18.09
333.202	63.15
333.414	38.57
333.627	28.33
333.84	36.52
334.053	9.9
334.265	-4.44
334.478	28.33
334.691	38.57
334.903	18.09
335.116	75.43
335.329	69.29
335.541	3.75
335.754	38.57
335.966	36.52
336.179	28.33
336.392	-0.34
336.604	36.52
336.817	100.01
337.029	-51.54
337.242	38.57
337.454	9.9
337.667	69.29
337.88	100.01
338.092	28.33
338.305	3.75
338.517	24.23
338.729	42.67
338.942	1.71
339.154	20.14
339.367	-12.63
339.579	57
339.792	-10.58
340.004	52.91
340.217	13.99
340.429	67.24
340.641	11.95
340.854	38.57
341.066	16.04
341.278	110.25
341.491	108.2
341.703	-2.39
341.915	-8.53
342.128	44.71
342.34	5.8
342.552	85.67
342.764	18.09
342.977	100.01
343.189	18.09
343.401	26.28
343.613	-0.34
343.826	28.33
344.038	22.19
344.25	36.52
344.462	-16.73
344.674	69.29
344.886	38.57
345.099	69.29
345.311	34.47
345.523	1.71
345.735	-76.12
345.947	-4.44
346.159	34.47
346.371	81.58
346.583	42.67
346.795	57
347.007	-0.34
347.219	42.67
347.431	83.63
347.643	5.8
347.855	-43.35
348.067	102.06
348.279	28.33
348.491	30.38
348.703	67.24
348.915	36.52
349.127	-29.01
349.339	13.99
349.551	-6.49
349.763	20.14
349.975	28.33
350.187	13.99
350.399	67.24
350.61	83.63
350.822	26.28
351.034	-61.78
351.246	24.23
351.458	57
351.669	59.05
351.881	18.09
352.093	108.2
352.305	1.71
352.517	18.09
352.728	100.01
352.94	83.63
353.152	75.43
353.363	-22.87
353.575	67.24
353.787	112.3
353.999	34.47
354.21	54.95
354.422	40.62
354.633	67.24
354.845	26.28
355.057	67.24
355.268	71.34
355.48	79.53
355.692	20.14
355.903	-14.68
356.115	32.43
356.326	-12.63
356.538	54.95
356.749	61.1
356.961	-6.49
357.172	67.24
357.384	40.62
357.595	57
357.807	81.58
358.018	-22.87
358.23	46.76
358.441	81.58
358.653	87.72
358.864	22.19
359.075	34.47
359.287	79.53
359.498	-6.49
359.709	59.05
359.921	40.62
360.132	69.29
360.344	100.01
360.555	-6.49
360.766	75.43
360.977	83.63
361.189	108.2
361.4	52.91
361.611	83.63
361.823	11.95
362.034	67.24
362.245	7.85
362.456	42.67
362.667	87.72
362.879	1.71
363.09	-10.58
363.301	50.86
363.512	5.8
363.723	1.71
363.935	77.48
364.146	54.95
364.357	18.09
364.568	95.91
364.779	20.14
364.99	106.15
365.201	38.57
365.412	95.91
365.623	9.9
365.834	91.82
366.045	28.33
366.256	34.47
366.467	34.47
366.678	52.91
366.889	50.86
367.1	100.01
367.311	63.15
367.522	22.19
367.733	108.2
367.944	26.28
368.155	32.43
368.366	83.63
368.577	54.95
368.788	71.34
368.999	63.15
369.209	89.77
369.42	132.78
369.631	87.72
369.842	63.15
370.053	13.99
370.264	-53.59
370.474	52.91
370.685	52.91
370.896	61.1
371.107	67.24
371.317	52.91
371.528	18.09
371.739	75.43
371.95	71.34
372.16	52.91
372.371	5.8
372.582	102.06
372.792	67.24
373.003	40.62
373.214	-12.63
373.424	104.11
373.635	100.01
373.846	83.63
374.056	18.09
374.267	32.43
374.477	48.81
374.688	34.47
374.898	63.15
375.109	50.86
375.319	9.9
375.53	120.49
375.74	24.23
375.951	11.95
376.161	59.05
376.372	34.47
376.582	63.15
376.793	36.52
377.003	1.71
377.214	11.95
377.424	7.85
377.635	67.24
377.845	28.33
378.055	54.95
378.266	-14.68
378.476	44.71
378.686	-29.01
378.897	16.04
379.107	116.39
379.317	-29.01
379.528	87.72
379.738	44.71
379.948	50.86
380.158	100.01
380.369	-4.44
380.579	20.14
380.789	34.47
380.999	100.01
381.21	128.68
381.42	151.21
381.63	61.1
381.84	93.87
382.05	71.34
382.261	59.05
382.471	38.57
382.681	-4.44
382.891	116.39
383.101	93.87
383.311	46.76
383.521	85.67
383.731	134.82
383.941	81.58
384.151	87.72
384.361	5.8
384.571	151.21
384.781	75.43
384.991	75.43
385.201	40.62
385.411	-12.63
385.621	40.62
385.831	48.81
386.041	52.91
386.251	9.9
386.461	75.43
386.671	75.43
386.881	69.29
387.091	38.57
387.301	132.78
387.511	42.67
387.72	77.48
387.93	22.19
388.14	-20.82
388.35	112.3
388.56	13.99
388.769	91.82
388.979	122.54
389.189	-69.97
389.399	42.67
389.609	100.01
389.818	57
390.028	42.67
390.238	61.1
390.447	30.38
390.657	85.67
390.867	59.05
391.076	50.86
391.286	50.86
391.496	20.14
391.705	-4.44
391.915	83.63
392.125	42.67
392.334	26.28
392.544	69.29
392.753	116.39
392.963	65.19
393.172	124.58
393.382	59.05
393.591	89.77
393.801	26.28
394.01	128.68
394.22	63.15
394.429	9.9
394.639	91.82
394.848	75.43
395.058	38.57
395.267	100.01
395.477	38.57
395.686	83.63
395.895	67.24
396.105	100.01
396.314	38.57
396.524	108.2
396.733	104.11
396.942	159.4
397.152	63.15
397.361	102.06
397.57	136.87
397.78	75.43
397.989	54.95
398.198	151.21
398.407	83.63
398.617	83.63
398.826	116.39
399.035	77.48
399.244	-14.68
399.453	75.43
399.663	59.05
399.872	97.96
400.081	116.39
400.29	116.39
400.499	155.3
400.708	100.01
400.917	67.24
401.127	151.21
401.336	77.48
401.545	177.83
401.754	79.53
401.963	100.01
402.172	38.57
402.381	38.57
402.59	75.43
402.799	9.9
403.008	104.11
403.217	110.25
403.426	108.2
403.635	-0.34
403.844	30.38
404.053	91.82
404.262	104.11
404.471	194.22
404.68	104.11
404.888	130.73
405.097	61.1
405.306	114.34
405.515	181.93
405.724	120.49
405.933	159.4
406.142	157.35
406.35	249.51
406.559	243.37
406.768	204.46
406.977	216.74
407.185	91.82
407.394	165.54
407.603	132.78
407.812	243.37
408.02	220.84
408.229	177.83
408.438	165.54
408.646	128.68
408.855	151.21
409.064	245.41
409.272	288.42
409.481	212.65
409.69	280.23
409.898	353.96
410.107	259.75
410.315	345.77
410.524	276.13
410.733	296.61
410.941	282.28
411.15	278.18
411.358	339.62
411.567	390.82
411.775	415.4
411.984	380.58
412.192	345.77
412.401	411.3
412.609	444.07
412.818	419.49
413.026	458.4
413.234	466.6
413.443	478.88
413.651	478.88
413.86	505.51
414.068	571.04
414.276	577.19
414.485	511.65
414.693	566.95
414.901	624.29
415.11	650.91
415.318	624.29
415.526	644.77
415.734	622.24
415.943	702.11
416.151	673.44
416.359	773.79
416.567	773.79
416.776	734.88
416.984	849.57
417.192	841.37
417.4	759.46
417.608	839.33
417.817	888.48
418.025	927.39
418.233	984.73
418.441	896.67
418.649	1027.74
418.857	1156.76
419.065	1179.29
419.273	1173.14
419.481	1189.53
419.689	1216.15
419.897	1246.87
420.105	1255.06
420.313	1361.56
420.521	1431.19
420.729	1384.09
420.937	1517.2
421.145	1576.59
421.353	1631.89
421.561	1687.18
421.769	1670.8
421.977	1740.43
422.185	1697.42
422.393	1762.96
422.601	1955.47
422.809	2000.52
423.017	1910.41
423.224	1996.43
423.432	2129.55
423.64	2172.55
423.848	2363.01
424.056	2375.3
424.263	2438.79
424.471	2551.43
424.679	2500.23
424.887	2641.54
425.094	2825.86
425.302	2770.56
425.51	2664.07
425.718	2963.07
425.925	2825.86
426.133	2999.93
426.341	3270.26
426.548	3296.89
426.756	3346.04
426.964	3479.16
427.171	3737.2
427.379	3876.46
427.586	3749.49
427.794	3950.19
428.001	4048.49
428.209	4163.18
428.417	4109.93
428.624	4482.66
428.832	4410.98
429.039	4474.47
429.247	4370.02
429.454	4789.86
429.662	5076.57
429.869	4605.54
430.076	5049.95
430.284	4861.54
430.491	5250.65
430.699	5475.93
430.906	5555.8
431.114	5523.03
431.321	5742.16
431.528	5908.05
431.736	6256.2
431.943	6690.37
432.15	6532.68
432.358	6573.64
432.565	6927.94
432.772	6868.55
432.979	7204.41
433.187	7358.01
433.394	7388.73
433.601	7716.4
433.808	7759.41
434.016	7790.13
434.223	7798.32
434.43	8541.74
434.637	8386.09
434.844	8971.81
435.052	9160.22
435.259	9113.12
435.466	8984.1
435.673	8982.05
435.88	9459.23
436.087	10360.33
436.294	10036.75
436.501	10051.09
436.708	9874.96
436.915	10472.97
437.122	10946.05
437.329	10751.49
437.537	11431.42
437.743	11314.69
437.95	11271.68
438.157	11836.92
438.364	12142.07
438.571	12191.22
438.778	12484.08
438.985	13540.83
439.192	12948.97
439.399	13520.35
439.606	13159.91
439.813	13792.73
440.02	14464.46
440.227	14249.43
440.433	14151.12
440.64	14638.54
440.847	14616.01
441.054	14869.96
441.261	15562.17
441.467	15680.96
441.674	15865.27
441.881	16690.6
442.088	16715.18
442.294	16328.11
442.501	16641.45
442.708	17001.9
442.914	17730.97
443.121	18636.17
443.328	18091.41
443.534	19174.79
443.741	18531.73
443.948	18419.09
444.154	19854.72
444.361	19733.89
444.568	19727.74
444.774	19807.61
444.981	20118.9
445.187	20759.92
445.394	21458.28
445.6	21431.65
445.807	23373.13
446.013	22424.92
446.22	22453.59
446.426	23442.76
446.633	23960.89
446.839	24612.15
447.046	23565.64
447.252	24962.35
447.459	24671.54
447.665	24759.6
447.871	26012.96
448.078	27120.91
448.284	25660.71
448.491	26422.55
448.697	27698.44
448.903	28022.02
449.11	28058.88
449.316	27792.64
449.522	27884.8
449.728	28835.06
449.935	29017.33
450.141	28996.85
450.347	29371.63
450.553	28685.56
450.76	28992.75
450.966	30112.99
451.172	29940.96
451.378	30637.27
451.584	29887.71
451.791	30309.6
451.997	30579.93
452.203	30825.68
452.409	31505.61
452.615	30889.17
452.821	29852.9
453.027	29529.32
453.233	31212.75
453.44	29713.64
453.646	30360.8
453.852	30350.56
454.058	30786.77
454.264	29754.6
454.47	30530.78
454.676	29900
454.882	30575.83
455.088	27964.67
455.294	28613.88
455.5	29162.73
455.705	29082.86
455.911	28022.02
456.117	27331.85
456.323	27360.52
456.529	25881.89
456.735	27233.55
456.941	26168.6
457.147	26068.25
457.352	25064.75
457.558	24595.76
457.764	24888.62
457.97	24401.21
458.176	24057.15
458.381	23981.37
458.587	22990.16
458.793	22713.68
458.999	21542.24
459.204	23172.43
459.41	22117.72
459.616	21122.41
459.821	21101.93
460.027	21020.01
460.233	20667.76
460.438	19713.41
460.644	19561.86
460.85	18912.65
461.055	18308.5
461.261	18527.63
461.466	17092.01
461.672	16764.33
461.878	17843.61
462.083	16723.37
462.289	16229.81
462.494	16326.07
462.7	15353.28
462.905	15324.61
463.111	15566.27
463.316	15683
463.522	15435.2
463.727	15189.44
463.932	15416.77
464.138	14994.89
464.343	15117.76
464.549	14867.91
464.754	14923.21
464.959	15025.61
465.165	14880.2
465.37	14405.07
465.575	13819.35
465.781	14423.5
465.986	14443.98
466.191	14024.15
466.397	13639.13
466.602	13102.56
466.807	13796.82
467.012	13643.23
467.218	13749.72
467.423	13280.74
467.628	13479.39
467.833	14101.97
468.038	13372.89
468.244	13235.68
468.449	13727.19
468.654	13057.51
468.859	13135.33
469.064	13176.29
469.269	12613.1
469.474	12641.77
469.679	12928.49
469.885	12568.04
470.09	12865
470.295	12445.16
470.5	12256.75
470.705	12461.55
470.91	12174.83
471.115	11945.46
471.32	12211.7
471.525	12252.66
471.73	11879.93
471.935	11775.48
472.139	11343.36
472.344	11554.3
472.549	11347.45
472.754	11300.35
472.959	11103.75
473.164	10640.9
473.369	10626.57
473.574	11261.44
473.778	10950.15
473.983	10755.59
474.188	10829.32
474.393	10380.81
474.598	10466.83
474.802	10126.86
475.007	10401.29
475.212	10370.57
475.417	9840.15
475.621	9778.71
475.826	9793.05
476.031	9717.27
476.235	9442.84
476.44	9850.39
476.645	9496.09
476.849	9659.93
477.054	9303.58
477.259	9174.56
477.463	9258.53
477.668	9127.46
477.872	9043.49
478.077	8961.57
478.282	8734.25
478.486	8701.48
478.691	8683.05
478.895	8652.33
479.1	8713.77
479.304	8619.56
479.509	8433.19
479.713	8664.61
479.918	8594.98
480.122	8095.28
480.326	8494.63
480.531	8263.21
480.735	8298.03
480.94	8095.28
481.144	8156.72
481.348	7982.64
481.553	8214.06
481.757	7833.14
481.961	8126
482.166	8252.97
482.37	8095.28
482.574	7865.91
482.778	7974.45
482.983	8048.18
483.187	8103.47
483.391	8046.13
483.595	8023.6
483.8	7906.87
484.004	8085.04
484.208	8005.17
484.412	7996.98
484.616	7923.25
484.821	8064.56
485.025	7859.76
485.229	8113.71
485.433	7845.43
485.637	7769.65
485.841	8054.32
486.045	7841.33
486.249	8136.24
486.453	7949.87
486.657	7999.02
486.861	7900.72
487.065	7761.46
487.269	7925.3
487.473	7806.52
487.677	8005.17
487.881	8214.06
488.085	8019.5
488.289	7980.59
488.493	7910.96
488.697	8007.22
488.901	8336.94
489.105	8111.66
489.309	8056.37
489.512	7996.98
489.716	7972.4
489.92	7915.06
490.124	8107.57
490.328	8128.05
490.531	7763.51
490.735	8263.21
490.939	8095.28
491.143	8218.16
491.346	8046.13
491.55	8275.5
491.754	8226.35
491.958	8312.36
492.161	8302.12
492.365	8312.36
492.569	8252.97
492.772	8492.59
492.976	8502.82
493.18	8513.06
493.383	8603.18
493.587	8717.86
493.79	8642.09
493.994	8750.63
494.197	8769.06
494.401	8701.48
494.605	8742.44
494.808	8990.24
495.012	8973.86
495.215	8865.32
495.419	9188.89
495.622	9111.07
495.825	9250.33
496.029	9111.07
496.232	9704.98
496.436	9473.56
496.639	9608.73
496.843	9469.47
497.046	9700.89
497.249	9965.07
497.453	9758.23
497.656	9975.31
497.859	10071.57
498.063	10200.59
498.266	10575.37
498.469	10292.75
498.673	10317.33
498.876	10356.24
499.079	10688.01
499.282	10634.76
499.485	10941.96
499.689	10860.04
499.892	10946.05
500.095	10962.44
500.298	11308.54
500.501	11249.15
500.705	11597.31
500.908	11834.87
501.111	11587.07
501.314	12041.71
501.517	12088.82
501.72	12289.52
501.923	12269.04
502.126	12406.25
502.329	12604.91
502.532	12541.42
502.735	12617.19
502.938	13077.99
503.141	13254.11
503.344	13280.74
503.547	13217.25
503.75	13452.77
503.953	13569.5
504.156	13764.06
504.359	13891.03
504.562	13882.84
504.765	14419.41
504.968	14491.09
505.17	14419.41
505.373	14337.49
505.576	14708.17
505.779	14704.07
505.982	14915.02
506.185	15545.79
506.387	15482.3
506.59	15584.7
506.793	15549.89
506.996	15789.5
507.198	16192.95
507.401	16121.27
507.604	16450.99
507.807	16661.93
508.009	16827.82
508.212	16836.01
508.415	17380.77
508.617	17200.55
508.82	17405.35
509.022	17300.9
509.225	17597.85
509.428	17870.23
509.63	18056.6
509.833	17993.11
510.035	18599.31
510.238	18304.4
510.44	18773.39
510.643	19066.25
510.845	19199.37
511.048	18949.51
511.25	19293.57
511.453	19326.34
511.655	20006.27
511.858	19934.59
512.06	20096.38
512.262	20245.88
512.465	20348.28
512.667	20473.2
512.87	20876.65
513.072	21108.07
513.274	21486.95
513.477	21542.24
513.679	21902.68
513.881	22087
514.084	22056.28
514.286	22029.66
514.488	22310.23
514.69	23176.52
514.893	23323.97
515.095	23016.78
515.297	23614.79
515.499	23463.24
515.701	23844.16
515.904	23717.18
516.106	24110.39
516.308	24272.18
516.51	24438.07
516.712	24489.27
516.914	24864.05
517.116	25197.87
517.318	25365.8
517.52	25720.1
517.722	25386.28
517.925	25957.66
518.127	26182.94
518.329	26473.75
518.531	26502.42
518.733	26926.35
518.935	27217.16
519.136	26977.55
519.338	27272.46
519.54	27612.42
519.742	27544.84
519.944	28251.39
520.146	28478.71
520.348	28560.63
520.55	28841.2
520.752	28697.84
520.954	29381.87
521.155	29222.12
521.357	29463.79
521.559	29861.09
521.761	30342.36
521.963	30411.99
522.164	30233.82
522.366	30411.99
522.568	30561.5
522.77	30801.11
522.971	31237.33
523.173	30823.64
523.375	31509.71
523.576	31663.3
523.778	31634.63
523.98	32107.71
524.181	32005.31
524.383	32371.9
524.584	32611.51
524.786	32744.63
524.988	32361.66
525.189	32914.61
525.391	33117.36
525.592	33506.48
525.794	33234.1
525.995	33399.98
526.197	33567.91
526.398	33514.67
526.6	33934.5
526.801	33979.56
527.003	34217.12
527.204	34096.29
527.406	34696.35
527.607	34634.91
527.808	34897.05
528.01	33934.5
528.211	34622.62
528.412	35122.32
528.614	34985.11
528.815	35105.94
529.016	35521.68
529.218	35038.36
529.419	35282.06
529.62	35335.31
529.822	35634.31
530.023	35564.68
530.224	35951.75
530.425	35830.92
530.626	35652.75
530.828	35275.92
531.029	36009.09
531.23	35755.15
531.431	35888.26
531.632	36142.21
531.833	35935.37
532.035	36033.67
532.236	36435.07
532.437	36392.06
532.638	36181.12
532.839	36035.72
533.04	36222.08
533.241	35800.2
533.442	36742.27
533.643	36263.04
533.844	36142.21
534.045	36744.31
534.246	35785.86
534.447	36662.4
534.648	36316.29
534.849	36568.19
535.05	36160.64
535.251	36134.02
535.451	36535.42
535.652	36699.26
535.853	35906.69
536.054	36367.49
536.255	36621.44
536.456	36480.13
536.657	36619.39
536.857	36412.54
537.058	36236.42
537.259	36637.82
537.46	36621.44
537.66	36404.35
537.861	36422.78
538.062	36390.02
538.263	36600.96
538.463	36504.7
538.664	36107.4
538.865	36684.92
539.065	36693.11
539.266	36506.75
539.466	36871.29
539.667	36281.47
539.868	36484.22
540.068	36555.9
540.269	36291.71
540.469	36719.74
540.67	36349.06
540.87	36361.34
541.071	36306.05
541.271	36545.66
541.472	36457.6
541.672	36295.81
541.873	36351.1
542.073	35767.43
542.274	36555.9
542.474	36146.31
542.675	36086.92
542.875	36658.3
543.075	36224.13
543.276	36129.92
543.476	36297.86
543.676	36277.38
543.877	36359.3
544.077	36064.39
544.277	36256.9
544.478	36285.57
544.678	36443.26
544.878	36410.5
545.078	36347.01
545.279	36152.45
545.479	36160.64
545.679	36103.3
545.879	36095.11
546.079	36142.21
546.28	36199.55
546.48	35626.12
546.68	36217.99
546.88	36048
547.08	36287.62
547.28	36279.43
547.48	35699.85
547.68	35982.47
547.88	36058.24
548.081	36082.82
548.281	35863.69
548.481	35861.64
548.681	36297.86
548.881	35830.92
549.081	35839.11
549.28	35673.23
549.48	36109.44
549.68	35746.95
549.88	36336.77
550.08	35683.47
550.28	36025.48
550.48	35785.86
550.68	36029.57
550.88	35777.67
551.08	35601.55
551.279	36254.85
551.479	35611.79
551.679	36070.53
551.879	35536.01
552.079	36285.57
552.278	35470.48
552.478	35460.24
552.678	35572.88
552.878	35925.13
553.077	35583.12
553.277	35280.02
553.477	35861.64
553.676	35423.37
553.876	35548.3
554.076	35552.4
554.275	35632.27
554.475	35341.46
554.674	35480.72
554.874	35351.7
555.074	35568.78
555.273	35546.25
555.473	35824.78
555.672	35048.6
555.872	35222.67
556.071	35656.84
556.271	35622.03
556.47	35050.64
556.67	35159.19
556.869	35107.99
557.068	35011.73
557.268	35181.71
557.467	35042.45
557.667	35144.85
557.866	35110.03
558.065	34991.25
558.265	34737.3
558.464	35093.65
558.663	35116.18
558.863	34546.84
559.062	35103.89
559.261	34669.72
559.461	35091.6
559.66	34464.92
559.859	34886.81
560.058	34356.38
560.258	34493.6
560.457	34204.83
560.656	34731.16
560.855	34608.28
561.054	34632.86
561.253	33828.01
561.453	34411.68
561.652	34446.49
561.851	34346.14
562.05	34176.16
562.249	33776.81
562.448	34223.26
562.647	34127.01
562.846	33799.33
563.045	33852.58
563.244	33797.29
563.443	34272.42
563.642	33307.82
563.841	33504.43
564.04	33682.6
564.239	33653.93
564.438	33438.89
564.637	33561.77
564.836	33412.27
565.035	33459.37
565.234	33418.41
565.432	33090.74
565.631	33299.63
565.83	33600.68
566.029	32572.6
566.228	32675
566.427	32808.12
566.625	32560.31
566.824	32390.33
567.023	32873.65
567.222	32142.53
567.42	32963.76
567.619	32339.13
567.818	32218.3
568.016	32165.06
568.215	32453.82
568.414	31902.92
568.612	32507.07
568.811	32175.3
569.01	32302.27
569.208	31777.99
569.407	32265.41
569.605	31960.26
569.804	31909.06
570.002	31734.98
570.201	31675.59
570.4	31667.4
570.598	31528.14
570.797	30883.03
570.995	31489.23
571.193	31085.78
571.392	30907.6
571.59	30811.35
571.789	31093.97
571.987	30809.3
572.186	30768.34
572.384	30995.67
572.582	30891.22
572.781	31165.65
572.979	30270.68
573.177	30319.84
573.376	30573.78
573.574	30483.67
573.772	30649.56
573.971	30508.25
574.169	29848.8
574.367	30211.29
574.565	30471.39
574.763	30121.18
574.962	30162.14
575.16	29922.53
575.358	30196.96
575.556	29293.8
575.754	30022.88
575.952	29218.03
576.151	29859.04
576.349	29330.67
576.547	29469.93
576.745	29189.36
576.943	29179.12
577.141	29242.6
577.339	29320.43
577.537	28986.61
577.735	28886.26
577.933	28683.51
578.131	28865.78
578.329	28456.18
578.527	28671.22
578.725	28419.32
578.923	28349.69
579.121	28325.11
579.319	28464.38
579.516	28144.89
579.714	28259.58
579.912	28169.47
580.11	27884.8
580.308	28044.54
580.506	27884.8
580.704	27565.32
580.901	27776.26
581.099	27856.13
581.297	27612.42
581.495	27471.11
581.692	27780.35
581.89	27550.98
582.088	27419.91
582.285	27268.36
582.483	27270.41
582.681	27219.21
582.878	27182.35
583.076	26805.52
583.274	27174.16
583.471	26696.98
583.669	26944.78
583.866	26692.88
584.064	26983.69
584.262	26660.12
584.459	26520.85
584.657	26725.65
584.854	26572.05
585.052	26066.2
585.249	26316.06
585.447	26168.6
585.644	26277.15
585.841	26322.2
586.039	26256.67
586.236	26019.1
586.434	25863.46
586.631	25812.26
586.828	25658.66
587.026	26195.23
587.223	25455.91
587.42	25851.17
587.618	25548.07
587.815	25513.25
588.012	25158.95
588.21	25206.06
588.407	25605.41
588.604	24974.64
588.801	24771.89
588.999	25134.38
589.196	24751.41
589.393	24843.57
589.59	24608.05
589.787	24958.25
589.984	24728.88
590.182	24522.04
590.379	24591.67
590.576	24601.91
590.773	24524.08
590.97	24339.77
591.167	24669.49
591.364	23960.89
591.561	24347.96
591.758	24208.7
591.955	23950.65
592.152	24352.06
592.349	24048.96
592.546	23782.72
592.743	23835.97
592.94	23252.3
593.137	23723.33
593.334	23487.81
593.531	23229.77
593.727	23530.82
593.924	23430.47
594.121	22889.81
594.318	23604.55
594.515	22957.39
594.712	23207.24
594.908	22748.5
595.105	23076.17
595.302	22680.91
595.499	22666.58
595.696	22914.38
595.892	22689.1
596.089	22486.36
596.286	22750.54
596.482	22635.86
596.679	22379.86
596.876	22549.84
597.072	22201.69
597.269	22584.66
597.466	21904.73
597.662	22037.85
597.859	21945.69
598.055	22017.37
598.252	21871.96
598.448	21757.28
598.645	21890.4
598.841	21425.51
599.038	21863.77
599.234	21726.56
599.431	21468.52
599.627	21216.61
599.824	21785.95
600.02	21296.49
600.217	21335.4
600.413	21456.23
600.609	21091.69
600.806	20923.76
601.002	21282.15
601.198	20751.73
601.395	20866.41
601.591	20815.21
601.787	20966.76
601.984	20526.45
602.18	20876.65
602.376	20532.59
602.572	20456.82
602.769	20546.93
602.965	20430.19
603.161	20270.45
603.357	20204.92
603.553	20268.41
603.75	20182.39
603.946	20036.98
604.142	20141.43
604.338	20120.95
604.534	20090.23
604.73	19754.37
604.926	19926.39
605.122	19686.78
605.318	19813.76
605.514	19686.78
605.71	19654.01
605.906	19508.61
606.102	19561.86
606.298	19213.7
606.494	19281.28
606.69	19565.95
606.886	19584.38
607.082	18980.23
607.278	19643.77
607.474	19080.58
607.67	19037.58
607.866	18728.33
608.062	18939.27
608.257	19078.54
608.453	19150.21
608.649	19000.71
608.845	18699.66
609.041	18627.98
609.236	18808.2
609.432	18834.83
609.628	18929.03
609.824	18632.08
610.019	18630.03
610.215	18552.21
610.411	18752.91
610.606	18369.94
610.802	18406.8
610.998	18412.95
611.193	18255.25
611.389	17972.63
611.584	18306.45
611.78	18007.45
611.976	18234.77
612.171	18169.24
612.367	18285.97
612.562	17993.11
612.758	17841.56
612.953	17849.75
613.149	18175.38
613.344	17874.33
613.539	18052.5
613.735	17790.36
613.93	17937.82
614.126	17806.75
614.321	17794.46
614.517	17540.51
614.712	17890.71
614.907	17954.2
615.103	17657.25
615.298	17534.37
615.493	17821.08
615.688	17257.89
615.884	17690.01
616.079	17292.71
616.274	17560.99
616.47	17452.45
616.665	17384.87
616.86	17386.91
617.055	17235.36
617.25	17345.95
617.445	17446.3
617.641	16946.6
617.836	17049
618.031	17055.14
618.226	16956.84
618.421	16895.4
618.616	16889.26
618.811	16518.57
619.006	16852.39
619.201	16639.4
619.396	16676.27
619.591	16469.42
619.786	16653.74
619.981	16422.32
620.176	16575.92
620.371	16276.91
620.566	16238
620.761	16364.98
620.956	16068.02
621.151	16182.71
621.346	16207.28
621.541	15738.3
621.735	16131.51
621.93	15594.94
622.125	15658.43
622.32	15404.48
622.515	15519.17
622.709	15611.32
622.904	15345.09
623.099	15281.6
623.294	15154.63
623.488	15023.56
623.683	15156.68
623.878	14863.82
624.072	14898.63
624.267	15048.13
624.462	14921.16
624.656	14640.59
624.851	14681.55
625.046	14458.32
625.24	14640.59
625.435	14476.75
625.629	14099.92
625.824	14173.65
626.018	14200.27
626.213	13936.09
626.407	14067.16
626.602	13987.29
626.796	13991.38
626.991	13680.09
627.185	13424.09
627.38	13540.83
627.574	13567.45
627.768	13319.65
627.963	13420
628.157	13485.53
628.352	13364.7
628.546	13014.5
628.74	13094.37
628.935	13180.39
629.129	12844.52
629.323	12975.59
629.517	12836.33
629.712	13057.51
629.906	12682.73
630.1	12570.09
630.294	12856.81
630.489	12447.21
630.683	12717.54
630.877	12318.19
631.071	12287.47
631.265	12705.26
631.459	12162.55
631.653	11957.75
631.848	12215.79
632.042	12105.2
632.236	11951.6
632.43	11959.8
632.624	11957.75
632.818	11763.19
633.012	11757.05
633.206	11568.63
633.4	11726.33
633.594	11496.96
633.788	11679.22
633.982	11507.2
634.176	11359.74
634.369	11443.71
634.563	11396.6
634.757	11339.26
634.951	11159.04
635.145	11054.59
635.339	11171.33
635.533	10923.52
635.726	10929.67
635.92	10692.1
636.114	10776.07
636.308	10849.8
636.501	10796.55
636.695	10896.9
636.889	10563.08
637.083	10538.51
637.276	10339.85
637.47	10464.78
637.664	10333.71
637.857	10456.59
638.051	10348.04
638.244	10278.41
638.438	10229.26
638.632	10292.75
638.825	10003.99
639.019	10071.57
639.212	9930.26
639.406	9895.44
639.599	9913.88
639.793	9784.85
639.986	9594.39
640.18	9760.28
640.373	9688.6
640.567	9475.61
640.76	9590.3
640.954	9573.91
641.147	9473.56
641.34	9332.25
641.534	9201.18
641.727	9397.79
641.92	9160.22
642.114	9233.95
642.307	9131.55
642.5	9063.97
642.694	9004.58
642.887	8977.95
643.08	9233.95
643.273	9100.83
643.467	8701.48
643.66	8939.04
643.853	9012.77
644.046	8707.62
644.239	8695.33
644.432	8705.57
644.626	8472.11
644.819	8500.78
645.012	8562.22
645.205	8539.69
645.398	8308.27
645.591	8482.35
645.784	8431.15
645.977	8392.23
646.17	8169.01
646.363	8322.6
646.556	7906.87
646.749	8039.98
646.942	8195.63
647.135	7999.02
647.328	7882.29
647.521	8087.09
647.714	7704.12
647.907	7808.56
648.099	7968.31
648.292	7751.22
648.485	7732.79
648.678	7708.21
648.871	7568.95
649.064	7638.58
649.256	7738.93
649.449	7626.29
649.642	7689.78
649.835	7255.61
650.027	7419.45
650.22	7523.9
650.413	7419.45
650.605	7345.72
650.798	7366.2
650.991	7259.71
651.183	7116.35
651.376	7239.23
651.568	7118.4
651.761	6964.8
651.954	6989.38
652.146	7065.15
652.339	6893.12
652.531	6837.83
652.724	6821.44
652.916	6821.44
653.109	6762.05
653.301	6905.41
653.494	6895.17
653.686	6692.42
653.879	6870.59
654.071	6643.27
654.263	6571.59
654.456	6628.93
654.648	6559.3
654.84	6512.2
655.033	6581.83
655.225	6389.32
655.417	6403.66
655.61	6454.86
655.802	6415.94
655.994	6407.75
656.186	6286.92
656.379	6198.86
656.571	6317.64
656.763	6174.28
656.955	6194.76
657.148	6020.69
657.34	6268.49
657.532	6039.12
657.724	5989.97
657.916	5955.15
658.108	5838.42
658.3	5934.67
658.492	6098.51
658.684	5977.68
658.876	5901.9
659.068	5686.87
659.26	5707.35
659.452	5656.15
659.644	5842.51
659.836	5715.54
660.028	5836.37
660.22	5467.74
660.412	5678.68
660.604	5641.81
660.796	5541.46
660.988	5553.75
661.18	5496.41
661.372	5465.69
661.563	5596.76
661.755	5416.54
661.947	5518.93
662.139	5525.08
662.331	5252.7
662.522	5287.51
662.714	5330.52
662.906	5207.64
663.097	5277.27
663.289	5211.74
663.481	5178.97
663.673	5201.5
663.864	5049.95
664.056	5088.86
664.247	5156.44
664.439	5113.44
664.631	5109.34
664.822	5195.36
665.014	4912.74
665.205	4992.61
665.397	4836.96
665.588	5039.71
665.78	5070.43
665.971	4898.4
666.163	5049.95
666.354	4869.73
666.546	4826.72
666.737	4834.91
666.929	4707.94
667.12	4933.22
667.311	4888.16
667.503	4675.17
667.694	4716.13
667.885	4626.02
668.077	4783.71
668.268	4736.61
668.459	4695.65
668.651	4511.33
668.842	4589.16
669.033	4591.2
669.224	4462.18
669.416	4619.88
669.607	4548.2
669.798	4419.18
669.989	4548.2
670.18	4515.43
670.371	4425.32
670.563	4398.7
670.754	4453.99
670.945	4386.41
671.136	4384.36
671.327	4329.06
671.518	4302.44
671.709	4443.75
671.9	4286.06
672.091	4238.95
672.282	4320.87
672.473	4312.68
672.664	4214.38
672.855	4154.99
673.046	4216.43
673.237	4302.44
673.428	4335.21
673.619	4142.7
673.809	4197.99
674	4068.97
674.191	4171.37
674.382	4085.36
674.573	4044.4
674.764	4157.04
674.954	4185.71
675.145	4130.41
675.336	4140.65
675.527	4040.3
675.717	4173.42
675.908	4154.99
676.099	3956.33
676.289	4140.65
676.48	3917.42
676.671	3876.46
676.861	3968.62
677.052	4025.97
677.243	3901.04
677.433	3968.62
677.624	3948.14
677.814	4042.35
678.005	3812.98
678.195	4068.97
678.386	4048.49
678.576	3925.61
678.767	3862.13
678.957	3835.5
679.148	3798.64
679.338	3903.09
679.529	3843.7
679.719	3720.82
679.909	3903.09
680.1	3868.27
680.29	3864.18
680.481	3788.4
680.671	3905.14
680.861	3823.22
681.052	3960.43
681.242	3792.5
681.432	3982.96
681.622	3833.46
681.813	3716.72
682.003	3720.82
682.193	3675.76
682.383	3737.2
682.573	3788.4
682.764	3720.82
682.954	3806.83
683.144	3782.26
683.334	3739.25
683.524	3835.5
683.714	3704.43
683.904	3788.4
684.094	3794.54
684.284	3702.39
684.474	3843.7
684.664	3765.87
684.854	3712.63
685.044	3774.07
685.234	3698.29
685.424	3577.46
685.614	3606.13
685.804	3710.58
685.994	3569.27
686.184	3499.64
686.374	3481.21
686.564	3329.66
686.753	3466.87
686.943	3477.11
687.133	3520.12
687.323	3573.36
687.513	3526.26
687.702	3624.56
687.892	3378.81
688.082	3401.33
688.272	3509.88
688.461	3446.39
688.651	3538.55
688.841	3434.1
689.03	3348.09
689.22	3315.32
689.41	3403.38
689.599	3237.5
689.789	3438.2
689.979	3380.86
690.168	3278.46
690.358	3321.46
690.547	3245.69
690.737	3282.55
690.926	3401.33
691.116	3188.35
691.305	3311.22
691.495	3288.7
691.684	3171.96
691.874	3352.18
692.063	3188.35
692.252	3075.71
692.442	3139.19
692.631	3171.96
692.82	3061.37
693.01	3032.7
693.199	2950.78
693.388	3122.81
693.578	3112.57
693.767	3057.28
693.956	2999.93
694.146	3188.35
694.335	2918.01
694.524	3032.7
694.713	2952.83
694.902	2870.91
695.092	3038.84
695.281	2975.36
695.47	3004.03
695.659	2860.67
695.848	2848.38
696.037	2893.44
696.226	2930.3
696.415	2854.53
696.604	2999.93
696.793	2926.21
696.982	2809.47
697.171	2821.76
697.36	2788.99
697.549	2827.9
697.738	2832
697.927	2918.01
698.116	2696.83
698.305	2856.58
698.494	2887.29
698.683	2764.42
698.872	2825.86
699.061	2821.76
699.25	2733.7
699.438	2745.98
699.627	2821.76
699.816	2803.33
700.005	2762.37
700.193	2756.22
700.382	2825.86
700.571	2778.75
700.76	2752.13
700.948	2805.38
701.137	2737.79
701.326	2811.52
701.514	2762.37
701.703	2686.59
701.892	2674.31
702.08	2803.33
702.269	2688.64
702.457	2719.36
702.646	2754.18
702.834	2600.58
703.023	2557.57
703.212	2776.7
703.4	2829.95
703.589	2696.83
703.777	2780.8
703.965	2737.79
704.154	2672.26
704.342	2698.88
704.531	2729.6
704.719	2705.03
704.907	2764.42
705.096	2688.64
705.284	2651.78
705.472	2641.54
705.661	2551.43
705.849	2770.56
706.037	2748.03
706.226	2692.74
706.414	2690.69
706.602	2643.59
706.79	2614.91
706.979	2553.48
707.167	2610.82
707.355	2602.63
707.543	2647.68
707.731	2606.72
707.919	2584.2
708.107	2643.59
708.296	2616.96
708.484	2485.89
708.672	2576
708.86	2664.07
709.048	2610.82
709.236	2666.11
709.424	2715.27
709.612	2592.39
709.8	2604.67
709.988	2604.67
710.176	2594.44
710.364	2561.67
710.551	2403.97
710.739	2539.14
710.927	2565.76
711.115	2588.29
711.303	2582.15
711.491	2631.3
711.679	2680.45
711.866	2489.99
712.054	2619.01
712.242	2528.9
712.43	2623.11
712.617	2524.8
712.805	2442.89
712.993	2451.08
713.181	2444.93
713.368	2516.61
713.556	2635.39
713.744	2557.57
713.931	2434.69
714.119	2528.9
714.306	2467.46
714.494	2590.34
714.682	2432.65
714.869	2446.98
715.057	2481.8
715.244	2428.55
715.432	2641.54
715.619	2449.03
715.807	2436.74
715.994	2426.5
716.182	2483.84
716.369	2438.79
716.556	2467.46
716.744	2483.84
716.931	2477.7
717.119	2561.67
717.306	2442.89
717.493	2481.8
717.681	2418.31
717.868	2549.38
718.055	2588.29
718.242	2504.32
718.43	2500.23
718.617	2471.56
718.804	2389.64
718.991	2395.78
719.179	2516.61
719.366	2373.25
719.553	2500.23
719.74	2373.25
719.927	2451.08
720.114	2496.13
720.301	2442.89
720.488	2401.93
720.676	2395.78
720.863	2363.01
721.05	2483.84
721.237	2344.58
721.424	2303.62
721.611	2356.87
721.798	2389.64
721.985	2332.3
722.172	2369.16
722.358	2418.31
722.545	2346.63
722.732	2338.44
722.919	2453.13
723.106	2428.55
723.293	2459.27
723.48	2352.77
723.667	2356.87
723.853	2311.82
724.04	2524.8
724.227	2287.24
724.414	2381.45
724.6	2408.07
724.787	2430.6
724.974	2492.04
725.161	2442.89
725.347	2334.34
725.534	2496.13
725.72	2279.05
725.907	2291.34
726.094	2336.39
726.28	2363.01
726.467	2403.97
726.653	2254.47
726.84	2520.71
727.027	2434.69
727.213	2309.77
727.4	2311.82
727.586	2272.9
727.773	2395.78
727.959	2385.54
728.145	2293.38
728.332	2360.97
728.518	2246.28
728.705	2281.1
728.891	2408.07
729.077	2504.32
729.264	2223.75
729.45	2313.86
729.636	2268.81
729.823	2326.15
730.009	2317.96
730.195	2397.83
730.382	2348.68
730.568	2279.05
730.754	2332.3
730.94	2291.34
731.126	2215.56
731.313	2205.32
731.499	2274.95
731.685	2346.63
731.871	2238.09
732.057	2354.82
732.243	2305.67
732.429	2287.24
732.615	2172.55
732.801	2365.06
732.987	2219.66
733.173	2385.54
733.359	2154.12
733.545	2199.18
733.731	2240.14
733.917	2313.86
734.103	2258.57
734.289	2285.19
734.475	2262.66
734.661	2287.24
734.847	2352.77
735.033	2295.43
735.219	2188.94
735.404	2289.29
735.59	2248.33
735.776	2223.75
735.962	2238.09
736.148	2207.37
736.333	2209.42
736.519	2266.76
736.705	2297.48
736.89	2197.13
737.076	2100.87
737.262	2076.3
737.447	2180.75
737.633	2174.6
737.819	2272.9
738.004	2182.79
738.19	2248.33
738.375	2127.5
738.561	2252.42
738.747	2201.23
738.932	2162.31
739.118	2221.7
739.303	2174.6
739.489	2129.55
739.674	2190.99
739.859	2074.25
740.045	2193.03
740.23	2182.79
740.416	2061.96
740.601	2119.31
740.786	2037.39
740.972	2090.63
741.157	2061.96
741.342	2166.41
741.528	2051.72
741.713	2078.35
741.898	2029.2
742.084	1984.14
742.269	1937.04
742.454	2010.76
742.639	2035.34
742.824	2043.53
743.01	2074.25
743.195	2082.44
743.38	2027.15
743.565	1998.48
743.75	2010.76
743.935	1947.28
744.12	2068.11
744.305	1920.65
744.49	1939.09
744.675	1918.61
744.86	1965.71
745.045	2002.57
745.23	1984.14
745.415	2029.2
745.6	1889.93
745.785	1830.54
745.97	1894.03
746.155	1922.7
746.34	1816.21
746.525	1879.69
746.71	1810.06
746.895	1873.55
747.079	1857.17
747.264	1844.88
747.449	1785.49
747.634	1758.86
747.819	1803.92
748.003	1595.03
748.188	1724.05
748.373	1805.97
748.557	1674.9
748.742	1689.23
748.927	1756.82
749.111	1715.86
749.296	1781.39
749.481	1660.56
749.665	1681.04
749.85	1664.66
750.034	1603.22
750.219	1619.6
750.404	1674.9
750.588	1615.51
750.773	1539.73
750.957	1625.75
751.141	1533.59
751.326	1574.55
751.51	1595.03
751.695	1584.79
751.879	1492.63
752.064	1511.06
752.248	1513.11
752.432	1582.74
752.617	1445.52
752.801	1539.73
752.985	1457.81
753.17	1373.85
753.354	1494.68
753.538	1461.91
753.722	1488.53
753.907	1443.48
754.091	1386.13
754.275	1402.52
754.459	1361.56
754.643	1347.22
754.828	1361.56
755.012	1330.84
755.196	1437.33
755.38	1449.62
755.564	1324.69
755.748	1271.45
755.932	1326.74
756.116	1357.46
756.3	1394.33
756.484	1289.88
756.668	1167
756.852	1164.95
757.036	1185.43
757.22	1238.68
757.404	1298.07
757.588	1226.39
757.772	1267.35
757.956	1152.67
758.14	1195.67
758.323	1044.12
758.507	1248.92
758.691	1263.26
758.875	1156.76
759.059	1107.61
759.242	1146.52
759.426	1191.58
759.61	1162.9
759.794	1117.85
759.977	1148.57
760.161	1121.95
760.345	1113.75
760.528	1197.72
760.712	1164.95
760.895	1148.57
761.079	986.78
761.263	1185.43
761.446	990.88
761.63	1042.07
761.813	1111.71
761.997	1029.79
762.18	1074.84
762.364	1042.07
762.547	1017.5
762.731	947.87
762.914	1031.83
763.098	1050.27
763.281	1017.5
763.464	1005.21
763.648	988.83
763.831	1025.69
764.015	1027.74
764.198	951.96
764.381	927.39
764.564	992.92
764.748	1058.46
764.931	943.77
765.114	964.25
765.297	1017.5
765.481	890.53
765.664	898.72
765.847	882.33
766.03	904.86
766.213	947.87
766.397	898.72
766.58	835.23
766.763	949.92
766.946	945.82
767.129	939.68
767.312	923.29
767.495	845.47
767.678	919.2
767.861	960.16
768.044	1007.26
768.227	923.29
768.41	847.52
768.593	839.33
768.776	870.05
768.959	882.33
769.142	896.67
769.324	820.89
769.507	861.85
769.69	804.51
769.873	861.85
770.056	822.94
770.239	855.71
770.421	868
770.604	855.71
770.787	812.7
770.97	820.89
771.152	767.65
771.335	810.65
771.518	861.85
771.7	833.18
771.883	790.17
772.066	822.94
772.248	732.83
772.431	773.79
772.613	763.55
772.796	698.02
772.978	741.02
773.161	808.61
773.343	738.98
773.526	738.98
773.708	726.69
773.891	691.87
774.073	751.26
774.256	689.82
774.438	652.96
774.621	677.54
774.803	732.83
774.985	650.91
775.168	695.97
775.35	638.62
775.532	714.4
775.715	702.11
775.897	710.3
776.079	626.34
776.261	681.63
776.444	642.72
776.626	659.1
776.808	622.24
776.99	640.67
777.173	640.67
777.355	624.29
777.537	589.47
777.719	609.95
777.901	609.95
778.083	622.24
778.265	726.69
778.447	534.18
778.629	558.75
778.811	642.72
778.993	581.28
779.175	620.19
779.357	550.56
779.539	542.37
779.721	525.99
779.903	585.38
780.085	616.1
780.267	568.99
780.449	521.89
780.631	452.26
780.812	581.28
780.994	489.12
781.176	470.69
781.358	521.89
781.54	525.99
781.721	577.19
781.903	538.27
782.085	497.32
782.267	519.84
782.448	470.69
782.63	423.59
782.812	519.84
782.993	482.98
783.175	474.79
783.357	460.45
783.538	530.08
783.72	444.07
783.901	431.78
784.083	460.45
784.264	480.93
784.446	417.44
784.627	339.62
784.809	446.12
784.99	442.02
785.172	431.78
785.353	386.72
785.535	489.12
785.716	378.53
785.897	394.92
786.079	378.53
786.26	394.92
786.441	388.77
786.623	366.25
786.804	429.73
786.985	421.54
787.167	419.49
787.348	376.48
787.529	403.11
787.71	464.55
787.891	325.29
788.073	313
788.254	403.11
788.435	446.12
788.616	315.05
788.797	370.34
788.978	376.48
789.159	351.91
789.34	335.53
789.522	321.19
789.703	304.81
789.884	394.92
790.065	323.24
790.246	419.49
790.427	249.51
790.607	378.53
790.788	345.77
790.969	294.57
791.15	288.42
791.331	329.38
791.512	321.19
791.693	349.86
791.874	435.88
792.054	427.68
792.235	300.71
792.416	284.33
792.597	255.65
792.778	358.05
792.958	427.68
793.139	353.96
793.32	292.52
793.5	378.53
793.681	280.23
793.862	321.19
794.042	308.9
794.223	298.66
794.404	358.05
794.584	300.71
794.765	304.81
794.945	259.75
795.126	257.7
795.306	341.67
795.487	243.37
795.667	269.99
795.848	259.75
796.028	288.42
796.209	306.85
796.389	263.85
796.57	304.81
796.75	300.71
796.93	237.22
797.111	198.31
797.291	255.65
797.471	362.15
797.652	183.98
797.832	181.93
798.012	290.47
798.192	257.7
798.373	251.56
798.553	233.13
798.733	143.02
798.913	206.5
799.093	239.27
799.274	214.7
799.454	194.22
799.634	272.04
799.814	294.57
799.994	226.98
800.174	226.98
800.354	161.45
800.534	239.27
800.714	263.85
800.894	218.79
801.074	222.89
801.254	181.93
801.434	265.89
801.614	202.41
801.794	175.78
801.974	820.89
802.154	222.89
802.334	247.46
802.514	159.4
802.693	190.12
802.873	186.02
803.053	202.41
803.233	247.46
803.413	128.68
803.592	87.72
803.772	181.93
803.952	186.02
804.131	165.54
804.311	263.85
804.491	198.31
804.67	124.58
804.85	175.78
805.03	202.41
805.209	231.08
805.389	149.16
805.568	126.63
805.748	181.93
805.928	249.51
806.107	181.93
806.287	206.5
806.466	165.54
806.646	93.87
806.825	192.17
807.004	149.16
807.184	159.4
807.363	140.97
807.543	192.17
807.722	167.59
807.901	128.68
808.081	214.7
808.26	157.35
808.439	173.74
808.619	210.6
808.798	200.36
808.977	167.59
809.156	140.97
809.336	106.15
809.515	218.79
809.694	132.78
809.873	171.69
810.052	140.97
810.231	157.35
810.411	128.68
810.59	165.54
810.769	186.02
810.948	149.16
811.127	140.97
811.306	161.45
811.485	210.6
811.664	216.74
811.843	126.63
812.022	149.16
812.201	138.92
812.38	132.78
812.559	198.31
812.737	138.92
812.916	95.91
813.095	177.83
813.274	145.06
813.453	157.35
813.632	147.11
813.811	190.12
813.989	89.77
814.168	128.68
814.347	83.63
814.526	108.2
814.704	100.01
814.883	165.54
815.062	136.87
815.24	190.12
815.419	112.3
815.598	91.82
815.776	110.25
815.955	167.59
816.133	69.29
816.312	159.4
816.49	134.82
816.669	183.98
816.847	147.11
817.026	179.88
817.204	102.06
817.383	143.02
817.561	69.29
817.74	153.26
817.918	116.39
818.097	143.02
818.275	159.4
818.453	89.77
818.632	95.91
818.81	67.24
818.988	100.01
819.167	102.06
819.345	67.24
819.523	149.16
819.701	73.39
819.879	116.39
820.058	67.24
820.236	143.02
820.414	126.63
820.592	126.63
820.77	149.16
820.948	118.44
821.127	151.21
821.305	104.11
821.483	126.63
821.661	116.39
821.839	81.58
822.017	110.25
822.195	63.15
822.373	157.35
822.551	118.44
822.729	134.82
822.907	91.82
823.085	118.44
823.262	91.82
823.44	85.67
823.618	136.87
823.796	140.97
823.974	118.44
824.152	132.78
824.329	30.38
824.507	52.91
824.685	233.13
824.863	63.15
825.04	61.1
825.218	145.06
825.396	112.3
825.574	110.25
825.751	175.78
825.929	100.01
826.107	136.87
826.284	143.02
826.462	89.77
826.639	116.39
826.817	18.09
826.994	198.31
827.172	69.29
827.349	140.97
827.527	69.29
827.704	143.02
827.882	112.3
828.059	79.53
828.237	36.52
828.414	91.82
828.591	67.24
828.769	120.49
828.946	91.82
829.124	91.82
829.301	77.48
829.478	71.34
829.655	38.57
829.833	59.05
830.01	79.53
830.187	30.38
830.364	26.28
830.542	79.53
830.719	173.74
830.896	175.78
831.073	81.58
831.25	75.43
831.427	54.95
831.604	163.5
831.782	34.47
831.959	151.21
832.136	120.49
832.313	52.91
832.49	95.91
832.667	83.63
832.844	83.63
833.021	71.34
833.198	89.77
833.374	67.24
833.551	83.63
833.728	108.2
833.905	128.68
834.082	50.86
834.259	75.43
834.436	120.49
834.612	26.28
834.789	89.77
834.966	71.34
835.143	104.11
835.319	63.15
835.496	54.95
835.673	71.34
835.85	18.09
836.026	59.05
836.203	128.68
836.38	52.91
836.556	18.09
836.733	26.28
836.909	102.06
837.086	5.8
837.262	20.14
837.439	71.34
837.616	57
837.792	67.24
837.968	124.58
838.145	71.34
838.321	110.25
838.498	44.71
838.674	122.54
838.851	67.24
839.027	54.95
839.203	-86.36
839.38	11.95
839.556	38.57
839.732	77.48
839.909	75.43
840.085	50.86
840.261	20.14
840.437	34.47
840.614	59.05
840.79	71.34
840.966	-0.34
841.142	79.53
841.318	81.58
841.494	20.14
841.671	79.53
841.847	16.04
842.023	42.67
842.199	63.15
842.375	81.58
842.551	81.58
842.727	20.14
842.903	87.72
843.079	32.43
843.255	52.91
843.431	-55.64
843.607	42.67
843.783	5.8
843.959	48.81
844.134	52.91
844.31	5.8
844.486	69.29
844.662	36.52
844.838	46.76
845.013	-2.39
845.189	100.01
845.365	9.9
845.541	42.67
845.716	59.05
845.892	28.33
846.068	75.43
846.244	42.67
846.419	89.77
846.595	63.15
846.77	-31.06
846.946	71.34
847.122	61.1
847.297	5.8
847.473	30.38
847.648	-57.68
847.824	38.57
847.999	30.38
848.175	24.23
848.35	-55.64
848.526	59.05
848.701	30.38
848.876	42.67
849.052	73.39
849.227	26.28
849.403	-12.63
849.578	83.63
849.753	40.62
849.929	52.91
850.104	16.04
850.279	22.19
850.454	-2.39
850.63	75.43
850.805	46.76
850.98	65.19
851.155	20.14
851.33	97.96
851.505	42.67
851.681	34.47
851.856	-24.92
852.031	81.58
852.206	7.85
852.381	-24.92
852.556	22.19
852.731	77.48
852.906	5.8
853.081	-18.77
853.256	67.24
853.431	-26.96
853.606	38.57
853.781	13.99
853.956	9.9
854.131	46.76
854.305	-55.64
854.48	-0.34
854.655	-39.25
854.83	1.71
855.005	44.71
855.18	42.67
855.354	24.23
855.529	16.04
855.704	18.09
855.879	79.53
856.053	75.43
856.228	28.33
856.403	-22.87
856.577	83.63
856.752	9.9
856.926	26.28
857.101	-16.73
857.276	-8.53
857.45	71.34
857.625	20.14
857.799	75.43
857.974	59.05
858.148	22.19
858.323	-51.54
858.497	18.09
858.672	-18.77
858.846	-4.44
859.02	85.67
859.195	26.28
859.369	11.95
859.543	63.15
859.718	61.1
859.892	26.28
860.066	5.8
860.241	26.28
860.415	-20.82
860.589	-6.49
860.763	40.62
860.938	-51.54
861.112	-49.49
861.286	1.71
861.46	5.8
861.634	-39.25
861.808	67.24
861.982	-45.4
862.157	-39.25
862.331	102.06
862.505	50.86
862.679	24.23
862.853	-35.16
863.027	-55.64
863.201	75.43
863.375	20.14
863.549	85.67
863.722	5.8
863.896	30.38
864.07	-6.49
864.244	20.14
864.418	-26.96
864.592	52.91
864.766	81.58
864.939	50.86
865.113	48.81
865.287	30.38
865.461	-63.83
865.634	85.67
865.808	9.9
865.982	-10.58
866.156	11.95
866.329	-121.17
866.503	-10.58
866.676	89.77
866.85	-0.34
867.024	18.09
867.197	1.71
867.371	28.33
867.544	-14.68
867.718	-47.44
867.891	3.75
868.065	26.28
868.238	-16.73
868.412	5.8
868.585	-20.82
868.759	-45.4
868.932	-61.78
869.105	-33.11
869.279	13.99
869.452	-4.44
869.625	46.76
869.799	36.52
869.972	-61.78
870.145	-4.44
870.319	75.43
870.492	-6.49
870.665	50.86
870.838	75.43
871.011	-55.64
871.185	-31.06
871.358	-10.58
871.531	-35.16
871.704	5.8
871.877	81.58
872.05	1.71
872.223	1.71
872.396	32.43
872.569	-35.16
872.742	1.71
872.915	50.86
873.088	-12.63
873.261	52.91
873.434	-35.16
873.607	26.28
873.78	42.67
873.953	102.06
874.126	-55.64
874.299	34.47
874.471	-55.64
874.644	54.95
874.817	42.67
874.99	-10.58
875.163	75.43
875.335	63.15
875.508	-6.49
875.681	-14.68
875.853	20.14
876.026	57
876.199	-10.58
876.371	69.29
876.544	-12.63
876.717	7.85
876.889	-37.2
877.062	9.9
877.234	5.8
877.407	50.86
877.579	-2.39
877.752	67.24
877.924	11.95
878.097	18.09
878.269	18.09
878.442	-18.77
878.614	-39.25
878.786	-4.44
878.959	-22.87
879.131	1.71
879.303	20.14
879.476	18.09
879.648	13.99
879.82	-49.49
879.993	-47.44
880.165	-6.49
880.337	-29.01
880.509	18.09
880.681	-57.68
880.854	20.14
881.026	75.43
881.198	91.82
881.37	22.19
881.542	-47.44
881.714	71.34
881.886	13.99
882.058	20.14
882.23	-33.11
882.402	22.19
882.574	-8.53
882.746	63.15
882.918	-20.82
883.09	7.85
883.262	1.71
883.434	-45.4
883.606	34.47
883.778	-47.44
883.95	9.9
884.122	-31.06
884.293	16.04
884.465	54.95
884.637	-4.44
884.809	46.76
884.98	44.71
885.152	34.47
885.324	-20.82
885.496	-2.39
885.667	18.09
885.839	63.15
886.011	67.24
886.182	46.76
886.354	46.76
886.525	-47.44
886.697	54.95
886.869	-92.5
887.04	-14.68
887.212	-39.25
887.383	69.29
887.555	-20.82
887.726	-63.83
887.897	-0.34
888.069	-49.49
888.24	-47.44
888.412	52.91
888.583	-6.49
888.754	36.52
888.926	11.95
889.097	-31.06
889.268	-29.01
889.44	32.43
889.611	16.04
889.782	-22.87
889.953	38.57
890.125	77.48
890.296	-29.01
890.467	61.1
890.638	7.85
890.809	22.19
890.98	-12.63
891.151	13.99
891.323	136.87
891.494	-43.35
891.665	22.19
891.836	-4.44
892.007	-4.44
892.178	26.28
892.349	-16.73
892.52	-22.87
892.691	24.23
892.862	59.05
893.032	-31.06
893.203	7.85
893.374	7.85
893.545	87.72
893.716	1.71
893.887	20.14
894.057	26.28
894.228	11.95
894.399	-51.54
894.57	16.04
894.74	-55.64
894.911	36.52
895.082	-51.54
895.253	-4.44
895.423	26.28
895.594	87.72
895.764	54.95
895.935	32.43
896.106	38.57
896.276	-12.63
896.447	20.14
896.617	-47.44
896.788	-29.01
896.958	-12.63
897.129	30.38
897.299	46.76
897.47	-35.16
897.64	-88.4
897.81	-61.78
897.981	67.24
898.151	-84.31
898.322	57
898.492	30.38
898.662	-31.06
898.832	-6.49
899.003	-10.58
899.173	26.28
899.343	-14.68
899.513	75.43
