Data from USB4F104151__230__14-21-50-218.txt Node

Date: Thu Mar 13 14:21:50 EDT 2025
User: louis
Spectrometer: USB4F10415
Trigger mode: 4
Integration Time (sec): 2.000000E-2
Scans to average: 1
Electric dark correction enabled: true
Nonlinearity correction enabled: false
Boxcar width: 0
XAxis mode: Wavelengths
Number of Pixels in Spectrum: 3648
>>>>>Begin Spectral Data<<<<<
178.204	-125.44
178.424	-125.44
178.644	-125.44
178.864	-84.48
179.084	-88.57
179.304	-43.52
179.524	-10.75
179.744	50.69
179.964	-2.56
180.184	-8.7
180.404	44.54
180.624	38.4
180.844	-66.05
181.064	-18.94
181.283	-18.94
181.503	-29.18
181.723	65.02
181.943	-6.66
182.163	112.13
182.383	-27.14
182.602	5.63
182.822	38.4
183.042	46.59
183.262	73.21
183.482	7.68
183.701	50.69
183.921	65.02
184.141	26.11
184.361	101.89
184.58	46.59
184.8	56.83
185.02	77.31
185.239	65.02
185.459	5.63
185.679	-25.09
185.898	-64
186.118	26.11
186.338	67.07
186.557	13.82
186.777	32.26
186.997	-43.52
187.216	-16.9
187.436	58.88
187.655	22.02
187.875	-37.38
188.095	38.4
188.314	48.64
188.534	67.07
188.753	32.26
188.973	-10.75
189.192	116.22
189.412	15.87
189.631	87.55
189.851	32.26
190.07	42.5
190.29	13.82
190.509	-16.9
190.729	54.78
190.948	9.73
191.168	69.12
191.387	54.78
191.607	-41.47
191.826	54.78
192.045	110.08
192.265	50.69
192.484	32.26
192.704	48.64
192.923	13.82
193.142	85.5
193.362	-39.42
193.581	58.88
193.8	36.35
194.02	24.06
194.239	13.82
194.458	13.82
194.678	-2.56
194.897	22.02
195.116	54.78
195.335	-33.28
195.555	79.36
195.774	17.92
195.993	75.26
196.212	-2.56
196.432	17.92
196.651	54.78
196.87	32.26
197.089	73.21
197.308	114.17
197.528	69.12
197.747	-37.38
197.966	71.17
198.185	34.3
198.404	-51.71
198.623	17.92
198.842	89.6
199.062	42.5
199.281	48.64
199.5	-16.9
199.719	46.59
199.938	46.59
200.157	48.64
200.376	38.4
200.595	46.59
200.814	13.82
201.033	83.45
201.252	-4.61
201.471	79.36
201.69	-0.51
201.909	30.21
202.128	48.64
202.347	-10.75
202.566	-18.94
202.785	-8.7
203.004	-2.56
203.223	71.17
203.442	11.78
203.661	30.21
203.879	62.98
204.098	62.98
204.317	-68.09
204.536	26.11
204.755	89.6
204.974	17.92
205.193	24.06
205.411	112.13
205.63	30.21
205.849	26.11
206.068	15.87
206.287	-31.23
206.505	75.26
206.724	22.02
206.943	24.06
207.162	-39.42
207.381	26.11
207.599	24.06
207.818	85.5
208.037	40.45
208.255	-59.9
208.474	103.93
208.693	58.88
208.911	-0.51
209.13	32.26
209.349	112.13
209.567	54.78
209.786	128.51
210.005	50.69
210.223	54.78
210.442	-2.56
210.661	56.83
210.879	40.45
211.098	-37.38
211.316	9.73
211.535	48.64
211.753	-14.85
211.972	-4.61
212.191	-41.47
212.409	56.83
212.628	-31.23
212.846	15.87
213.065	-29.18
213.283	81.41
213.502	26.11
213.72	38.4
213.938	48.64
214.157	38.4
214.375	-8.7
214.594	73.21
214.812	40.45
215.031	46.59
215.249	38.4
215.467	7.68
215.686	83.45
215.904	54.78
216.122	17.92
216.341	7.68
216.559	87.55
216.778	22.02
216.996	87.55
217.214	-0.51
217.432	-51.71
217.651	5.63
217.869	75.26
218.087	62.98
218.306	26.11
218.524	50.69
218.742	54.78
218.96	-2.56
219.179	7.68
219.397	34.3
219.615	42.5
219.833	62.98
220.051	-45.57
220.27	65.02
220.488	95.74
220.706	93.69
220.924	56.83
221.142	9.73
221.36	28.16
221.578	71.17
221.796	83.45
222.015	69.12
222.233	32.26
222.451	97.79
222.669	36.35
222.887	87.55
223.105	13.82
223.323	22.02
223.541	-76.29
223.759	71.17
223.977	79.36
224.195	112.13
224.413	-0.51
224.631	65.02
224.849	46.59
225.067	79.36
225.285	13.82
225.503	62.98
225.721	-12.8
225.939	-10.75
226.157	73.21
226.375	122.37
226.592	-41.47
226.81	97.79
227.028	120.32
227.246	42.5
227.464	73.21
227.682	103.93
227.9	67.07
228.117	9.73
228.335	-2.56
228.553	30.21
228.771	32.26
228.989	85.5
229.206	28.16
229.424	5.63
229.642	46.59
229.86	30.21
230.077	46.59
230.295	24.06
230.513	46.59
230.731	95.74
230.948	40.45
231.166	11.78
231.384	-18.94
231.601	56.83
231.819	36.35
232.037	65.02
232.254	-16.9
232.472	65.02
232.689	9.73
232.907	30.21
233.125	-2.56
233.342	15.87
233.56	-31.23
233.777	-0.51
233.995	44.54
234.213	81.41
234.43	85.5
234.648	9.73
234.865	81.41
235.083	28.16
235.3	77.31
235.518	38.4
235.735	116.22
235.953	73.21
236.17	-10.75
236.388	52.74
236.605	-31.23
236.822	46.59
237.04	73.21
237.257	73.21
237.475	7.68
237.692	83.45
237.909	32.26
238.127	-10.75
238.344	52.74
238.562	95.74
238.779	7.68
238.996	17.92
239.214	46.59
239.431	22.02
239.648	38.4
239.865	58.88
240.083	87.55
240.3	38.4
240.517	93.69
240.735	93.69
240.952	65.02
241.169	95.74
241.386	120.32
241.603	-43.52
241.821	-10.75
242.038	114.17
242.255	75.26
242.472	46.59
242.689	44.54
242.907	108.03
243.124	40.45
243.341	48.64
243.558	169.47
243.775	85.5
243.992	5.63
244.209	24.06
244.426	36.35
244.643	120.32
244.86	62.98
245.078	58.88
245.295	1.54
245.512	95.74
245.729	-10.75
245.946	114.17
246.163	71.17
246.38	-10.75
246.597	40.45
246.814	38.4
247.031	56.83
247.248	75.26
247.464	3.58
247.681	48.64
247.898	56.83
248.115	62.98
248.332	67.07
248.549	73.21
248.766	108.03
248.983	95.74
249.2	5.63
249.417	13.82
249.633	24.06
249.85	79.36
250.067	-4.61
250.284	73.21
250.501	60.93
250.717	81.41
250.934	-39.42
251.151	3.58
251.368	-2.56
251.585	17.92
251.801	19.97
252.018	-10.75
252.235	87.55
252.451	48.64
252.668	-14.85
252.885	50.69
253.102	95.74
253.318	26.11
253.535	-29.18
253.752	69.12
253.968	5.63
254.185	13.82
254.401	34.3
254.618	38.4
254.835	38.4
255.051	124.41
255.268	5.63
255.484	112.13
255.701	-6.66
255.917	81.41
256.134	24.06
256.351	50.69
256.567	13.82
256.784	50.69
257	-23.04
257.217	60.93
257.433	62.98
257.65	30.21
257.866	67.07
258.082	1.54
258.299	3.58
258.515	30.21
258.732	75.26
258.948	38.4
259.165	-51.71
259.381	54.78
259.597	122.37
259.814	-41.47
260.03	-31.23
260.246	38.4
260.463	40.45
260.679	87.55
260.895	-27.14
261.112	50.69
261.328	48.64
261.544	32.26
261.761	91.65
261.977	28.16
262.193	26.11
262.409	56.83
262.626	108.03
262.842	32.26
263.058	7.68
263.274	58.88
263.49	28.16
263.707	148.99
263.923	71.17
264.139	13.82
264.355	38.4
264.571	71.17
264.787	67.07
265.004	5.63
265.22	-23.04
265.436	1.54
265.652	-0.51
265.868	52.74
266.084	34.3
266.3	-18.94
266.516	11.78
266.732	73.21
266.948	-4.61
267.164	116.22
267.38	34.3
267.596	50.69
267.812	54.78
268.028	65.02
268.244	-0.51
268.46	62.98
268.676	13.82
268.892	-18.94
269.108	30.21
269.324	-0.51
269.54	34.3
269.756	50.69
269.972	-20.99
270.188	17.92
270.403	-16.9
270.619	9.73
270.835	42.5
271.051	99.84
271.267	3.58
271.483	32.26
271.698	19.97
271.914	91.65
272.13	22.02
272.346	58.88
272.562	-74.24
272.777	15.87
272.993	52.74
273.209	-55.81
273.425	116.22
273.64	5.63
273.856	85.5
274.072	81.41
274.287	54.78
274.503	71.17
274.719	7.68
274.934	28.16
275.15	-10.75
275.366	-27.14
275.581	42.5
275.797	24.06
276.012	3.58
276.228	-18.94
276.444	58.88
276.659	85.5
276.875	26.11
277.09	71.17
277.306	58.88
277.521	58.88
277.737	65.02
277.952	30.21
278.168	71.17
278.383	87.55
278.599	101.89
278.814	24.06
279.03	56.83
279.245	30.21
279.461	15.87
279.676	-10.75
279.892	9.73
280.107	73.21
280.322	-31.23
280.538	11.78
280.753	36.35
280.969	30.21
281.184	7.68
281.399	112.13
281.615	62.98
281.83	9.73
282.045	-6.66
282.26	-0.51
282.476	73.21
282.691	71.17
282.906	144.89
283.122	97.79
283.337	65.02
283.552	54.78
283.767	-4.61
283.983	60.93
284.198	-2.56
284.413	87.55
284.628	9.73
284.843	65.02
285.058	163.33
285.274	50.69
285.489	-25.09
285.704	114.17
285.919	22.02
286.134	-14.85
286.349	97.79
286.564	60.93
286.779	118.27
286.995	48.64
287.21	40.45
287.425	38.4
287.64	-4.61
287.855	71.17
288.07	58.88
288.285	99.84
288.5	71.17
288.715	24.06
288.93	89.6
289.145	54.78
289.36	-4.61
289.575	-2.56
289.79	73.21
290.004	-0.51
290.219	87.55
290.434	15.87
290.649	38.4
290.864	42.5
291.079	-41.47
291.294	15.87
291.509	52.74
291.724	62.98
291.938	-23.04
292.153	46.59
292.368	54.78
292.583	91.65
292.798	120.32
293.012	46.59
293.227	13.82
293.442	-27.14
293.657	79.36
293.871	73.21
294.086	13.82
294.301	42.5
294.516	130.56
294.73	75.26
294.945	17.92
295.16	54.78
295.374	87.55
295.589	85.5
295.804	30.21
296.018	-4.61
296.233	65.02
296.447	46.59
296.662	-39.42
296.877	62.98
297.091	52.74
297.306	62.98
297.52	58.88
297.735	-33.28
297.949	58.88
298.164	-25.09
298.378	71.17
298.593	87.55
298.807	22.02
299.022	32.26
299.236	65.02
299.451	69.12
299.665	9.73
299.88	26.11
300.094	-6.66
300.309	22.02
300.523	54.78
300.737	-29.18
300.952	30.21
301.166	54.78
301.381	34.3
301.595	48.64
301.809	19.97
302.024	56.83
302.238	30.21
302.452	114.17
302.667	32.26
302.881	118.27
303.095	30.21
303.309	-2.56
303.524	79.36
303.738	13.82
303.952	-31.23
304.166	40.45
304.381	-4.61
304.595	46.59
304.809	5.63
305.023	52.74
305.237	24.06
305.452	65.02
305.666	-20.99
305.88	120.32
306.094	26.11
306.308	32.26
306.522	69.12
306.736	73.21
306.95	-2.56
307.164	22.02
307.379	13.82
307.593	79.36
307.807	-4.61
308.021	22.02
308.235	65.02
308.449	-0.51
308.663	87.55
308.877	140.8
309.091	87.55
309.305	54.78
309.519	22.02
309.733	79.36
309.947	7.68
310.161	122.37
310.374	54.78
310.588	124.41
310.802	-23.04
311.016	-10.75
311.23	71.17
311.444	26.11
311.658	7.68
311.872	108.03
312.085	48.64
312.299	22.02
312.513	79.36
312.727	38.4
312.941	48.64
313.154	71.17
313.368	-43.52
313.582	40.45
313.796	128.51
314.009	15.87
314.223	30.21
314.437	32.26
314.651	17.92
314.864	71.17
315.078	5.63
315.292	79.36
315.505	-25.09
315.719	5.63
315.933	-8.7
316.146	54.78
316.36	7.68
316.573	65.02
316.787	5.63
317.001	7.68
317.214	1.54
317.428	71.17
317.641	28.16
317.855	50.69
318.068	24.06
318.282	54.78
318.495	120.32
318.709	77.31
318.922	-51.71
319.136	65.02
319.349	69.12
319.563	58.88
319.776	75.26
319.99	26.11
320.203	71.17
320.417	5.63
320.63	24.06
320.843	153.09
321.057	79.36
321.27	87.55
321.483	32.26
321.697	30.21
321.91	19.97
322.124	116.22
322.337	105.98
322.55	95.74
322.763	62.98
322.977	3.58
323.19	-10.75
323.403	13.82
323.617	46.59
323.83	89.6
324.043	13.82
324.256	15.87
324.469	-6.66
324.683	1.54
324.896	38.4
325.109	58.88
325.322	-35.33
325.535	19.97
325.748	38.4
325.962	56.83
326.175	-4.61
326.388	50.69
326.601	87.55
326.814	101.89
327.027	40.45
327.24	116.22
327.453	-35.33
327.666	93.69
327.879	42.5
328.092	71.17
328.305	46.59
328.518	30.21
328.731	17.92
328.944	5.63
329.157	48.64
329.37	81.41
329.583	38.4
329.796	62.98
330.009	30.21
330.222	42.5
330.435	17.92
330.648	73.21
330.861	32.26
331.073	54.78
331.286	5.63
331.499	48.64
331.712	7.68
331.925	13.82
332.138	-31.23
332.35	89.6
332.563	46.59
332.776	32.26
332.989	54.78
333.202	62.98
333.414	42.5
333.627	87.55
333.84	83.45
334.053	9.73
334.265	69.12
334.478	71.17
334.691	-49.66
334.903	40.45
335.116	42.5
335.329	60.93
335.541	50.69
335.754	42.5
335.966	1.54
336.179	15.87
336.392	-23.04
336.604	62.98
336.817	89.6
337.029	89.6
337.242	24.06
337.454	54.78
337.667	24.06
337.88	126.46
338.092	15.87
338.305	110.08
338.517	56.83
338.729	-29.18
338.942	46.59
339.154	-35.33
339.367	-51.71
339.579	38.4
339.792	103.93
340.004	32.26
340.217	50.69
340.429	38.4
340.641	-2.56
340.854	116.22
341.066	13.82
341.278	73.21
341.491	87.55
341.703	93.69
341.915	7.68
342.128	65.02
342.34	40.45
342.552	5.63
342.764	15.87
342.977	97.79
343.189	22.02
343.401	44.54
343.613	-8.7
343.826	38.4
344.038	30.21
344.25	24.06
344.462	-25.09
344.674	30.21
344.886	71.17
345.099	120.32
345.311	46.59
345.523	54.78
345.735	44.54
345.947	54.78
346.159	-27.14
346.371	-2.56
346.583	52.74
346.795	134.65
347.007	42.5
347.219	91.65
347.431	24.06
347.643	122.37
347.855	13.82
348.067	122.37
348.279	30.21
348.491	-10.75
348.703	13.82
348.915	50.69
349.127	54.78
349.339	89.6
349.551	71.17
349.763	95.74
349.975	60.93
350.187	-2.56
350.399	32.26
350.61	42.5
350.822	3.58
351.034	134.65
351.246	-10.75
351.458	87.55
351.669	65.02
351.881	38.4
352.093	71.17
352.305	58.88
352.517	71.17
352.728	46.59
352.94	-0.51
353.152	69.12
353.363	56.83
353.575	56.83
353.787	56.83
353.999	122.37
354.21	54.78
354.422	50.69
354.633	87.55
354.845	-43.52
355.057	-6.66
355.268	99.84
355.48	77.31
355.692	54.78
355.903	105.98
356.115	46.59
356.326	79.36
356.538	71.17
356.749	42.5
356.961	87.55
357.172	9.73
357.384	40.45
357.595	67.07
357.807	62.98
358.018	-10.75
358.23	54.78
358.441	65.02
358.653	95.74
358.864	22.02
359.075	-51.71
359.287	36.35
359.498	40.45
359.709	60.93
359.921	22.02
360.132	52.74
360.344	95.74
360.555	26.11
360.766	67.07
360.977	34.3
361.189	17.92
361.4	42.5
361.611	79.36
361.823	77.31
362.034	95.74
362.245	15.87
362.456	-10.75
362.667	75.26
362.879	52.74
363.09	28.16
363.301	28.16
363.512	30.21
363.723	79.36
363.935	-18.94
364.146	81.41
364.357	17.92
364.568	19.97
364.779	91.65
364.99	67.07
365.201	1.54
365.412	52.74
365.623	22.02
365.834	30.21
366.045	46.59
366.256	62.98
366.467	67.07
366.678	44.54
366.889	132.61
367.1	17.92
367.311	71.17
367.522	-41.47
367.733	54.78
367.944	7.68
368.155	46.59
368.366	54.78
368.577	77.31
368.788	87.55
368.999	28.16
369.209	56.83
369.42	85.5
369.631	79.36
369.842	42.5
370.053	85.5
370.264	87.55
370.474	38.4
370.685	124.41
370.896	5.63
371.107	112.13
371.317	95.74
371.528	-10.75
371.739	58.88
371.95	99.84
372.16	65.02
372.371	-29.18
372.582	24.06
372.792	48.64
373.003	71.17
373.214	75.26
373.424	79.36
373.635	11.78
373.846	73.21
374.056	38.4
374.267	144.89
374.477	46.59
374.688	75.26
374.898	-16.9
375.109	83.45
375.319	71.17
375.53	99.84
375.74	105.98
375.951	-10.75
376.161	32.26
376.372	124.41
376.582	56.83
376.793	62.98
377.003	97.79
377.214	52.74
377.424	24.06
377.635	54.78
377.845	-8.7
378.055	83.45
378.266	71.17
378.476	54.78
378.686	103.93
378.897	58.88
379.107	7.68
379.317	87.55
379.528	65.02
379.738	103.93
379.948	13.82
380.158	-2.56
380.369	79.36
380.579	81.41
380.789	65.02
380.999	-14.85
381.21	67.07
381.42	87.55
381.63	62.98
381.84	38.4
382.05	77.31
382.261	116.22
382.471	56.83
382.681	26.11
382.891	126.46
383.101	89.6
383.311	73.21
383.521	73.21
383.731	79.36
383.941	105.98
384.151	112.13
384.361	122.37
384.571	75.26
384.781	99.84
384.991	140.8
385.201	99.84
385.411	105.98
385.621	56.83
385.831	56.83
386.041	122.37
386.251	24.06
386.461	24.06
386.671	71.17
386.881	24.06
387.091	67.07
387.301	28.16
387.511	-8.7
387.72	87.55
387.93	58.88
388.14	56.83
388.35	48.64
388.56	48.64
388.769	67.07
388.979	81.41
389.189	62.98
389.399	-2.56
389.609	87.55
389.818	81.41
390.028	101.89
390.238	91.65
390.447	91.65
390.657	67.07
390.867	38.4
391.076	5.63
391.286	81.41
391.496	32.26
391.705	124.41
391.915	79.36
392.125	89.6
392.334	71.17
392.544	226.81
392.753	85.5
392.963	60.93
393.172	17.92
393.382	-0.51
393.591	42.5
393.801	26.11
394.01	122.37
394.22	30.21
394.429	126.46
394.639	95.74
394.848	138.75
395.058	110.08
395.267	97.79
395.477	48.64
395.686	83.45
395.895	69.12
396.105	136.7
396.314	148.99
396.524	93.69
396.733	38.4
396.942	173.57
397.152	95.74
397.361	138.75
397.57	128.51
397.78	50.69
397.989	169.47
398.198	155.13
398.407	112.13
398.617	153.09
398.826	112.13
399.035	46.59
399.244	116.22
399.453	85.5
399.663	83.45
399.872	99.84
400.081	87.55
400.29	155.13
400.499	99.84
400.708	153.09
400.917	89.6
401.127	58.88
401.336	120.32
401.545	173.57
401.754	30.21
401.963	103.93
402.172	110.08
402.381	144.89
402.59	126.46
402.799	48.64
403.008	165.37
403.217	128.51
403.426	99.84
403.635	222.72
403.844	67.07
404.053	120.32
404.262	118.27
404.471	185.85
404.68	138.75
404.888	151.04
405.097	136.7
405.306	136.7
405.515	165.37
405.724	210.43
405.933	132.61
406.142	202.24
406.35	181.76
406.559	202.24
406.768	218.62
406.977	194.05
407.185	228.86
407.394	206.33
407.603	282.11
407.812	249.34
408.02	300.54
408.229	243.2
408.438	243.2
408.646	286.2
408.855	267.77
409.064	329.21
409.272	333.31
409.481	337.4
409.69	308.73
409.898	261.63
410.107	302.59
410.315	337.4
410.524	341.5
410.733	327.16
410.941	327.16
411.15	390.65
411.358	491
411.567	415.23
411.775	353.79
411.984	462.33
412.192	499.19
412.401	458.23
412.609	452.09
412.818	585.21
413.026	517.62
413.234	515.58
413.443	517.62
413.651	603.64
413.86	501.24
414.068	587.26
414.276	652.79
414.485	599.54
414.693	685.56
414.901	792.05
415.11	706.04
415.318	685.56
415.526	792.05
415.734	769.52
415.943	841.2
416.151	912.88
416.359	919.03
416.567	966.13
416.776	869.87
416.984	1050.1
417.192	1041.9
417.4	1025.52
417.608	994.8
417.817	1015.28
418.025	1082.86
418.233	1218.03
418.441	1197.55
418.649	1226.22
418.857	1250.8
419.065	1277.42
419.273	1254.89
419.481	1340.91
419.689	1414.63
419.897	1422.83
420.105	1500.65
420.313	1562.09
420.521	1562.09
420.729	1668.58
420.937	1590.76
421.145	1730.02
421.353	1889.76
421.561	1789.41
421.769	2004.45
421.977	2024.93
422.185	1965.54
422.393	2246.11
422.601	2276.83
422.809	2317.79
423.017	2350.56
423.224	2387.42
423.432	2420.19
423.64	2442.71
423.848	2749.91
424.056	2606.55
424.263	3032.53
424.471	2801.11
424.679	2917.84
424.887	3069.39
425.094	3216.85
425.302	3179.98
425.51	3208.66
425.718	3450.32
425.925	3507.66
426.133	3470.8
426.341	3612.1
426.548	3974.6
426.756	3982.79
426.964	3919.3
427.171	4171.2
427.379	4265.41
427.586	4332.99
427.794	4670.9
428.001	4728.25
428.209	4890.04
428.417	4928.95
428.624	5176.75
428.832	5230
429.039	5252.53
429.247	5293.49
429.454	5711.27
429.662	5993.89
429.869	5563.82
430.076	6077.86
430.284	5842.34
430.491	6104.48
430.699	6428.06
430.906	6454.69
431.114	6628.76
431.321	6757.78
431.528	6944.15
431.736	7374.22
431.943	7816.58
432.15	7333.26
432.358	7581.07
432.565	8000.9
432.772	7937.41
432.979	8349.06
433.187	8310.15
433.394	8525.18
433.601	8885.62
433.808	8979.83
434.016	8955.26
434.223	9360.75
434.43	9954.66
434.637	9844.07
434.844	10218.85
435.052	10601.82
435.259	10562.91
435.466	10728.8
435.673	10483.04
435.88	10995.03
436.087	11744.59
436.294	11664.72
436.501	11486.54
436.708	11744.59
436.915	12197.19
437.122	12488
437.329	12819.77
437.537	13008.19
437.743	13518.13
437.95	13204.79
438.157	13823.28
438.364	14247.21
438.571	14232.87
438.778	14021.93
438.985	15656.21
439.192	15105.31
439.399	15506.71
439.606	15203.61
439.813	16155.91
440.02	17061.12
440.227	16663.81
440.433	16694.53
440.64	17212.67
440.847	16887.04
441.054	17345.78
441.261	18461.93
441.467	18210.03
441.674	18642.15
441.881	19571.93
442.088	19463.38
442.294	18928.86
442.501	19674.32
442.708	19795.15
442.914	20729.03
443.121	21449.91
443.328	21003.46
443.534	22574.25
443.741	22189.23
443.948	21124.29
444.154	23332
444.361	22957.22
444.568	23059.62
444.774	23098.53
444.981	23452.83
445.187	24220.81
445.394	24921.22
445.6	24935.56
445.807	27300.96
446.013	25902.2
446.22	26336.37
446.426	27253.86
446.633	27907.16
446.839	28691.53
447.046	27737.18
447.252	29133.89
447.459	28931.14
447.665	28970.05
447.871	30536.75
448.078	31566.88
448.284	29699.13
448.491	30655.53
448.697	31804.44
448.903	32670.73
449.11	32695.31
449.316	32240.66
449.522	32744.46
449.728	33537.02
449.935	33795.07
450.141	33719.29
450.347	34352.12
450.553	33119.24
450.76	33928.19
450.966	35083.24
451.172	34651.12
451.378	35300.33
451.584	34866.16
451.791	35539.94
451.997	35740.64
452.203	35918.81
452.409	35957.72
452.615	35992.54
452.821	34589.68
453.027	34395.12
453.233	36021.21
453.44	34860.01
453.646	34970.6
453.852	35369.96
454.058	35904.48
454.264	34561.01
454.47	35587.04
454.676	34200.57
454.882	35750.88
455.088	32455.7
455.294	33565.7
455.5	33838.08
455.705	34026.49
455.911	32932.87
456.117	31843.35
456.323	31503.39
456.529	30188.6
456.735	31400.99
456.941	30448.69
457.147	30137.4
457.352	29568.06
457.558	28748.87
457.764	29443.13
457.97	28486.73
458.176	27892.82
458.381	27962.45
458.587	26377.33
458.793	26250.35
458.999	25224.32
459.204	27122.79
459.41	25994.36
459.616	24528.01
459.821	24523.91
460.027	24564.87
460.233	23907.48
460.438	22926.5
460.644	23002.27
460.85	21818.55
461.055	21623.99
461.261	21503.16
461.466	20079.82
461.672	19510.49
461.878	20901.06
462.083	19365.08
462.289	19037.41
462.494	19000.54
462.7	18011.37
462.905	17534.2
463.111	18087.15
463.316	18468.07
463.522	18050.28
463.727	17765.62
463.932	17863.92
464.138	17630.45
464.343	17655.03
464.549	17001.72
464.754	17597.68
464.959	17753.33
465.165	17601.78
465.37	16651.52
465.575	16092.43
465.781	17081.6
465.986	17222.91
466.191	16262.41
466.397	16233.74
466.602	15486.23
466.807	15947.02
467.012	16080.14
467.218	16010.51
467.423	15471.89
467.628	15766.8
467.833	16393.48
468.038	15871.25
468.244	15529.24
468.449	16207.11
468.654	15713.55
468.859	15500.56
469.064	15138.07
469.269	14654.75
469.474	14880.03
469.679	15160.6
469.885	14865.69
470.09	15070.49
470.295	14658.85
470.5	14636.32
470.705	14349.61
470.91	14087.47
471.115	14155.05
471.32	14300.45
471.525	14218.54
471.73	13837.61
471.935	13792.56
472.139	13346.1
472.344	13571.38
472.549	13233.46
472.754	13444.4
472.959	13094.2
473.164	12844.35
473.369	12870.97
473.574	13026.62
473.778	12868.92
473.983	12809.53
474.188	12746.05
474.393	12193.09
474.598	12375.36
474.802	12223.81
475.007	11902.28
475.212	12225.86
475.417	11521.36
475.621	11689.29
475.826	11799.88
476.031	11351.38
476.235	11177.3
476.44	11502.93
476.645	11216.21
476.849	11203.93
477.054	10931.55
477.259	10786.14
477.463	10949.98
477.668	10470.75
477.872	10784.09
478.077	10474.85
478.282	10419.55
478.486	10468.7
478.691	10046.82
478.895	10272.1
479.1	10143.08
479.304	10286.44
479.509	9801.07
479.713	10016.1
479.918	9719.15
480.122	9604.46
480.326	9823.59
480.531	9743.72
480.735	9598.32
480.94	9696.62
481.144	9917.8
481.348	9579.89
481.553	9399.66
481.757	9178.48
481.961	9522.54
482.166	9565.55
482.37	9395.57
482.574	9305.46
482.778	9217.4
482.983	9733.48
483.187	9069.94
483.391	9469.3
483.595	9430.38
483.8	9049.46
484.004	9270.64
484.208	9368.95
484.412	9510.25
484.616	9516.4
484.821	9282.93
485.025	9211.25
485.229	9229.68
485.433	9311.6
485.637	9387.38
485.841	9434.48
486.045	9078.13
486.249	9375.09
486.453	9381.23
486.657	9504.11
486.861	9522.54
487.065	9293.17
487.269	9438.58
487.473	8981.88
487.677	9287.03
487.881	9516.4
488.085	9256.31
488.289	9223.54
488.493	9395.57
488.697	9352.56
488.901	9497.97
489.105	9489.78
489.309	9524.59
489.512	9528.69
489.716	9409.9
489.92	9579.89
490.124	9452.91
490.328	9626.99
490.531	9624.94
490.735	9618.8
490.939	9565.55
491.143	9647.47
491.346	9665.9
491.55	9960.81
491.754	10181.99
491.958	10016.1
492.161	9842.03
492.365	9983.34
492.569	9969
492.772	9903.46
492.976	9979.24
493.18	10231.14
493.383	10067.3
493.587	10081.64
493.79	10274.15
493.994	10149.22
494.197	10085.73
494.401	10208.61
494.605	10626.4
494.808	10607.97
495.012	10425.7
495.215	10853.72
495.419	10775.9
495.622	10802.52
495.825	10732.89
496.029	10734.94
496.232	10896.73
496.436	10949.98
496.639	11437.39
496.843	11328.85
497.046	11703.63
497.249	11730.25
497.453	11687.25
497.656	11738.44
497.859	11894.09
498.063	11777.36
498.266	11990.35
498.469	12117.32
498.673	12268.87
498.876	12617.02
499.079	12475.71
499.282	12483.91
499.485	12713.28
499.689	12985.66
499.892	13202.74
500.095	12977.47
500.298	13567.28
500.501	13573.42
500.705	13684.02
500.908	13956.4
501.111	13890.86
501.314	14101.8
501.517	14189.86
501.72	14353.7
501.923	14148.9
502.126	14779.68
502.329	14855.45
502.532	15183.13
502.735	15047.96
502.938	15168.79
503.141	15424.79
503.344	15482.13
503.547	15609.11
503.75	15983.88
503.953	16045.32
504.156	16373
504.359	16219.4
504.562	16516.36
504.765	16872.7
504.968	17124.6
505.17	17239.29
505.373	17364.22
505.576	17798.38
505.779	17681.65
505.982	17683.7
506.185	18191.59
506.387	18425.06
506.59	18343.14
506.793	18414.82
506.996	18660.58
507.198	19088.6
507.401	19027.17
507.604	19305.69
507.807	19750.1
508.009	19897.55
508.212	19985.62
508.415	20141.26
508.617	20575.43
508.82	20636.87
509.022	20395.21
509.225	21064.89
509.428	21216.44
509.63	21132.48
509.833	21406.91
510.035	21929.14
510.238	21525.69
510.44	22226.09
510.643	22723.75
510.845	22473.9
511.048	22688.93
511.25	23018.66
511.453	23071.9
511.655	23966.87
511.858	23880.85
512.06	23809.17
512.262	24097.94
512.465	24091.79
512.667	24329.36
512.87	24765.57
513.072	25252.99
513.274	24784.01
513.477	25590.91
513.679	25910.39
513.881	25980.02
514.084	26156.14
514.286	26150
514.488	26469.48
514.69	27556.96
514.893	27470.94
515.095	27237.47
515.297	27878.49
515.499	27444.32
515.701	28204.11
515.904	28230.74
516.106	28378.19
516.308	28814.41
516.51	29017.16
516.712	29174.85
516.914	29371.46
517.116	29940.79
517.318	30022.71
517.52	30299.19
517.722	30463.02
517.925	30702.64
518.127	30940.2
518.329	31349.79
518.531	30956.58
518.733	31867.93
518.935	31833.11
519.136	31996.95
519.338	32900.11
519.54	33039.37
519.742	33084.42
519.944	33205.25
520.146	33641.47
520.348	33895.42
520.55	33811.45
520.752	34135.03
520.954	34495.47
521.155	34575.34
521.357	34860.01
521.559	35374.05
521.761	35740.64
521.963	35726.3
522.164	36123.61
522.366	36039.64
522.568	36443.09
522.77	36428.76
522.971	37022.67
523.173	36940.75
523.375	37045.19
523.576	37166.02
523.778	37200.84
523.98	37936.06
524.181	37987.26
524.383	37979.07
524.584	38794.16
524.786	38316.98
524.988	38419.38
525.189	38646.71
525.391	38912.94
525.592	39263.14
525.794	39437.22
525.995	39252.91
526.197	39687.07
526.398	39795.62
526.6	40047.52
526.801	40115.1
527.003	40534.93
527.204	40323.99
527.406	40813.46
527.607	40295.32
527.808	41188.24
528.01	40283.03
528.211	40831.89
528.412	41481.1
528.614	41286.54
528.815	41251.72
529.016	41638.79
529.218	40960.91
529.419	41536.39
529.62	41702.28
529.822	41649.03
530.023	41806.72
530.224	41722.76
530.425	41941.89
530.626	41640.84
530.828	41679.75
531.029	42484.6
531.23	41986.94
531.431	42161.02
531.632	42204.03
531.833	42478.46
532.035	42568.57
532.236	42466.17
532.437	42722.16
532.638	42412.92
532.839	42648.44
533.04	42929.01
533.241	42064.77
533.442	42877.81
533.643	42861.43
533.844	42519.42
534.045	42707.83
534.246	42548.09
534.447	43080.56
534.648	42652.53
534.849	42890.1
535.05	42656.63
535.251	42703.73
535.451	42662.77
535.652	42824.56
535.853	42496.89
536.054	42484.6
536.255	42955.63
536.456	42638.2
536.657	43248.49
536.857	42740.6
537.058	42247.04
537.259	43209.58
537.46	42767.22
537.66	42666.87
537.861	42814.32
538.062	42611.57
538.263	42886
538.463	42505.08
538.664	43305.84
538.865	42892.15
539.065	43314.03
539.266	42634.1
539.466	42998.64
539.667	42261.37
539.868	43170.67
540.068	42881.91
540.269	42972.02
540.469	42963.82
540.67	42955.63
540.87	42754.93
541.071	42845.04
541.271	42582.9
541.472	42965.87
541.672	42417.02
541.873	42060.67
542.073	42253.18
542.274	42736.5
542.474	42543.99
542.675	42910.58
542.875	42890.1
543.075	42507.13
543.276	42052.48
543.476	43113.33
543.676	42503.03
543.877	42455.93
544.077	42886
544.277	42443.64
544.478	42382.2
544.678	42543.99
544.878	42347.39
545.078	42625.91
545.279	42296.19
545.479	42550.13
545.679	42654.58
545.879	42427.26
546.079	42220.41
546.28	42359.67
546.48	42144.64
546.68	42281.85
546.88	42593.14
547.08	42523.51
547.28	42142.59
547.48	41757.57
547.68	42314.62
547.88	41892.74
548.081	42543.99
548.281	42316.67
548.481	42093.44
548.681	42642.29
548.881	42738.55
549.081	42267.52
549.28	41991.04
549.48	42500.98
549.68	41855.87
549.88	42556.28
550.08	42126.21
550.28	42312.57
550.48	41905.02
550.68	42410.87
550.88	42050.43
551.08	42034.05
551.279	42204.03
551.479	41948.03
551.679	42142.59
551.879	41847.68
552.079	42361.72
552.278	42148.73
552.478	41886.59
552.678	42058.62
552.878	42105.73
553.077	41679.75
553.277	41898.88
553.477	42267.52
553.676	41886.59
553.876	41839.49
554.076	41771.91
554.275	41616.26
554.475	41485.19
554.674	41665.41
554.874	41694.08
555.074	41477
555.273	41894.78
555.473	41821.06
555.672	41227.15
555.872	42070.91
556.071	41915.26
556.271	41155.47
556.47	41192.33
556.67	41075.6
556.869	41225.1
557.068	41735.04
557.268	41110.41
557.467	41134.99
557.667	40680.34
557.866	41425.8
558.065	41212.81
558.265	40776.59
558.464	40653.72
558.663	41362.31
558.863	40635.28
559.062	41356.17
559.261	40780.69
559.461	41505.67
559.66	40287.13
559.859	40618.9
560.058	40323.99
560.258	40803.22
560.457	40663.96
560.656	40823.7
560.855	40178.59
561.054	40426.39
561.253	40328.09
561.453	40283.03
561.652	40782.74
561.851	40481.69
562.05	39873.44
562.249	39930.78
562.448	40285.08
562.647	40002.46
562.846	40264.6
563.045	40098.72
563.244	39543.72
563.443	40192.92
563.642	39365.54
563.841	39912.35
564.04	39406.5
564.239	40223.64
564.438	39578.53
564.637	39406.5
564.836	39701.41
565.035	39009.2
565.234	39449.51
565.432	39070.64
565.631	39629.73
565.83	39281.58
566.029	39209.9
566.228	38828.98
566.427	38765.49
566.625	38831.02
566.824	38562.74
567.023	39170.99
567.222	38587.32
567.42	38966.19
567.619	38546.36
567.818	38233.02
568.016	38454.2
568.215	38943.66
568.414	38081.47
568.612	38499.25
568.811	37737.41
569.01	38005.69
569.208	37602.24
569.407	38390.71
569.605	37379.01
569.804	37823.42
570.002	37309.38
570.201	37960.64
570.4	37381.06
570.598	37075.91
570.797	36965.32
570.995	37618.63
571.193	36494.29
571.392	37391.3
571.59	36819.92
571.789	36922.32
571.987	36547.54
572.186	37016.52
572.384	36277.21
572.582	36604.88
572.781	36809.68
572.979	36033.5
573.177	36608.98
573.376	36606.93
573.574	36199.38
573.772	36471.76
573.971	35783.65
574.169	36049.88
574.367	35763.17
574.565	35916.76
574.763	35681.25
574.962	35703.78
575.16	35349.48
575.358	35851.23
575.556	35218.41
575.754	35619.81
575.952	35421.16
576.151	35408.87
576.349	34642.93
576.547	34872.3
576.745	35242.98
576.943	34782.19
577.141	34989.03
577.339	34878.44
577.537	34636.78
577.735	34624.5
577.933	34208.76
578.131	34909.16
578.329	34573.3
578.527	33883.13
578.725	34098.17
578.923	33836.03
579.121	33997.82
579.319	33887.23
579.516	33797.12
579.714	33692.67
579.912	33676.29
580.11	33682.43
580.308	33797.12
580.506	33139.72
580.704	33240.07
580.901	33403.91
581.099	33715.2
581.297	32951.31
581.495	32789.52
581.692	33268.74
581.89	32846.86
582.088	32793.61
582.285	32826.38
582.483	32752.65
582.681	33051.66
582.878	32826.38
583.076	32125.97
583.274	32537.62
583.471	32128.02
583.669	32154.65
583.866	31845.4
584.064	32322.58
584.262	31577.12
584.459	32304.15
584.657	31534.11
584.854	32148.5
585.052	31562.78
585.249	31855.64
585.447	31638.56
585.644	31198.24
585.841	31306.79
586.039	31654.94
586.236	31400.99
586.434	31444
586.631	30903.34
586.828	30925.86
587.026	30723.12
587.223	30833.71
587.42	30780.46
587.618	30428.21
587.815	30444.59
588.012	30491.69
588.21	30444.59
588.407	30694.44
588.604	30198.84
588.801	30151.73
588.999	29817.91
589.196	30032.95
589.393	29793.34
589.59	29918.26
589.787	29809.72
589.984	29570.11
590.182	29762.62
590.379	29703.23
590.576	29391.94
590.773	29606.97
590.97	29277.25
591.167	29262.91
591.364	29070.4
591.561	29203.52
591.758	29000.77
591.955	28828.74
592.152	29203.52
592.349	28900.42
592.546	28576.84
592.743	28554.32
592.94	28175.44
593.137	28644.43
593.334	28580.94
593.531	27919.45
593.727	28283.98
593.924	27968.6
594.121	28111.96
594.318	28064.85
594.515	27917.4
594.712	27700.31
594.908	27626.59
595.105	27704.41
595.302	27507.8
595.499	27657.31
595.696	27550.81
595.892	27239.52
596.089	27327.58
596.286	27374.69
596.482	26915.94
596.679	27135.07
596.876	26686.57
597.072	27024.48
597.269	27051.11
597.466	26592.36
597.662	26590.31
597.859	26625.13
598.055	26631.27
598.252	26190.96
598.448	26387.57
598.645	26428.52
598.841	26113.14
599.038	26086.51
599.234	26287.21
599.431	25857.14
599.627	25631.86
599.824	26150
600.02	25619.58
600.217	25896.05
600.413	25625.72
600.609	25623.67
600.806	25468.03
601.002	25592.95
601.198	25212.03
601.395	25289.85
601.591	25154.69
601.787	25500.79
601.984	25087.11
602.18	25126.02
602.376	25005.19
602.572	24759.43
602.769	24806.53
602.965	24628.36
603.161	24839.3
603.357	24831.11
603.553	24456.33
603.75	24394.89
603.946	24071.31
604.142	24368.27
604.338	24231.05
604.534	24065.17
604.73	23893.14
604.926	23979.15
605.122	24245.39
605.318	23817.36
605.514	23878.8
605.71	23497.88
605.906	23616.66
606.102	23719.06
606.298	23606.42
606.494	23647.38
606.69	23327.9
606.886	23227.55
607.082	23137.44
607.278	23393.44
607.474	23065.76
607.67	23422.11
607.866	22961.31
608.062	23151.77
608.257	23098.53
608.453	22938.79
608.649	23270.56
608.845	22690.98
609.041	23012.51
609.236	22740.13
609.432	22793.38
609.628	22611.11
609.824	22410.41
610.019	22496.42
610.215	22338.73
610.411	22695.08
610.606	22471.85
610.802	22475.95
610.998	22348.97
611.193	22297.77
611.389	22342.83
611.584	22254.76
611.78	22131.89
611.976	22107.31
612.171	22183.09
612.367	22033.58
612.562	21890.23
612.758	21476.54
612.953	21554.36
613.149	21863.6
613.344	21638.33
613.539	21701.81
613.735	22080.69
613.93	21691.57
614.126	21609.65
614.321	21742.77
614.517	21566.65
614.712	21619.89
614.907	21519.54
615.103	21425.34
615.298	21177.53
615.493	21601.46
615.688	21112
615.884	21763.25
616.079	20960.45
616.274	21499.06
616.47	21114.05
616.665	21167.29
616.86	20999.36
617.055	20972.74
617.25	20907.2
617.445	21122.24
617.641	20600.01
617.836	21128.38
618.031	20714.69
618.226	20630.73
618.421	20436.17
618.616	20837.57
618.811	20370.63
619.006	20489.42
619.201	20006.09
619.396	20147.4
619.591	19678.42
619.786	20120.78
619.981	19756.24
620.176	19770.58
620.371	19502.29
620.566	19825.87
620.761	19909.84
620.956	19803.35
621.151	19561.69
621.346	19498.2
621.541	19176.67
621.735	19508.44
621.93	18873.57
622.125	19166.43
622.32	18889.95
622.515	18908.38
622.709	18808.03
622.904	18818.27
623.099	18388.2
623.294	18590.95
623.488	18248.94
623.683	18337
623.878	18060.52
624.072	18392.3
624.267	17734.9
624.462	17853.68
624.656	17724.66
624.851	18070.76
625.046	17665.27
625.24	17718.51
625.435	17442.04
625.629	17339.64
625.824	17325.3
626.018	17265.91
626.213	16854.27
626.407	17040.64
626.602	16762.11
626.796	16782.59
626.991	17059.07
627.185	16676.1
627.38	16735.49
627.574	16424.2
627.768	16354.57
627.963	16516.36
628.157	16321.8
628.352	16282.89
628.546	15611.15
628.74	16194.82
628.935	15809.81
629.129	15889.68
629.323	15500.56
629.517	15557.91
629.712	15504.66
629.906	15674.64
630.1	15117.59
630.294	15289.62
630.489	15222.04
630.683	15095.07
630.877	15123.74
631.071	14918.94
631.265	14955.8
631.459	14890.27
631.653	14918.94
631.848	14574.88
632.042	14724.38
632.236	14810.4
632.43	14415.14
632.624	14140.71
632.818	14251.3
633.012	14230.82
633.206	14245.16
633.4	14165.29
633.594	13835.56
633.788	14148.9
633.982	13745.45
634.176	14089.51
634.369	13628.72
634.563	13524.27
634.757	13339.96
634.951	13737.26
635.145	13403.44
635.339	13417.78
635.533	13487.41
635.726	13346.1
635.92	13233.46
636.114	13206.84
636.308	13079.86
636.501	13104.44
636.695	12844.35
636.889	12848.44
637.083	12637.5
637.276	12942.65
637.47	12926.27
637.664	12713.28
637.857	12537.15
638.051	12526.91
638.244	12422.47
638.438	12416.32
638.632	12350.79
638.825	12205.38
639.019	12025.16
639.212	12053.83
639.406	12154.18
639.599	11937.1
639.793	11892.04
639.986	11853.13
640.18	11867.47
640.373	11892.04
640.567	11603.28
640.76	11599.18
640.954	11402.58
641.147	11416.91
641.34	11302.23
641.534	11316.56
641.727	11238.74
641.92	11357.52
642.114	11064.66
642.307	11171.16
642.5	10999.13
642.694	10722.65
642.887	10716.51
643.08	10976.6
643.273	10870.11
643.467	10859.87
643.66	10802.52
643.853	10728.8
644.046	10478.94
644.239	10677.6
644.432	10296.67
644.626	10315.11
644.819	10542.43
645.012	10171.75
645.205	10349.92
645.398	10202.47
645.591	10112.36
645.784	10106.21
645.977	9966.95
646.17	10122.6
646.363	9876.84
646.556	9932.14
646.749	9971.05
646.942	9882.99
647.135	9598.32
647.328	9721.2
647.521	9575.79
647.714	9559.41
647.907	9614.7
648.099	9416.05
648.292	9512.3
648.485	9389.42
648.678	9319.79
648.871	9360.75
649.064	9237.88
649.256	9334.13
649.449	9098.61
649.642	9082.23
649.835	9076.09
650.027	8985.97
650.22	8893.82
650.413	9004.41
650.605	8772.99
650.798	8832.38
650.991	8797.56
651.183	8793.47
651.376	8738.17
651.568	8521.09
651.761	8492.41
651.954	8478.08
652.146	8525.18
652.339	8527.23
652.531	8396.16
652.724	8355.2
652.916	8238.47
653.109	8355.2
653.301	8447.36
653.494	8254.85
653.686	8101.25
653.879	8160.64
654.071	8033.67
654.263	8043.91
654.456	8193.41
654.648	7978.37
654.84	7904.65
655.033	7912.84
655.225	7724.43
655.417	7744.91
655.61	7847.3
655.802	7910.79
655.994	7634.32
656.186	7411.09
656.379	7656.84
656.571	7519.63
656.763	7566.73
656.955	7470.48
657.148	7652.75
657.34	7300.5
657.532	7300.5
657.724	7435.66
657.916	7466.38
658.108	7337.36
658.3	7187.86
658.492	7265.68
658.684	7148.95
658.876	7075.22
659.068	6978.97
659.26	7214.48
659.452	6978.97
659.644	6899.09
659.836	6919.57
660.028	6790.55
660.22	6976.92
660.412	6913.43
660.604	6495.64
660.796	6796.7
660.988	6772.12
661.18	6514.08
661.372	6643.1
661.563	6571.42
661.755	6559.13
661.947	6462.88
662.139	6561.18
662.331	6630.81
662.522	6489.5
662.714	6559.13
662.906	6319.52
663.097	6440.35
663.289	6383.01
663.481	6217.12
663.673	6262.18
663.864	6182.31
664.056	6327.71
664.247	6149.54
664.439	6036.9
664.631	6149.54
664.822	6135.2
665.014	5997.99
665.205	6096.29
665.397	5989.8
665.588	5789.1
665.78	5842.34
665.971	5791.14
666.163	5883.3
666.354	5873.06
666.546	5836.2
666.737	5731.75
666.929	5709.22
667.12	5799.34
667.311	5698.99
667.503	5744.04
667.694	5762.47
667.885	5488.04
668.077	5629.35
668.268	5498.28
668.459	5442.99
668.651	5600.68
668.842	5463.47
669.033	5463.47
669.224	5455.28
669.416	5549.48
669.607	5434.8
669.798	5352.88
669.989	5453.23
670.18	5463.47
670.371	5399.98
670.563	5166.51
670.754	5438.89
670.945	5225.9
671.136	5324.21
671.327	5111.22
671.518	5223.86
671.709	5215.66
671.9	5234.1
672.091	5068.21
672.282	5137.84
672.473	4978.1
672.664	5088.69
672.855	5000.63
673.046	4963.76
673.237	5148.08
673.428	5121.46
673.619	4937.14
673.809	4871.61
674	4961.72
674.191	5025.2
674.382	4847.03
674.573	4814.26
674.764	4871.61
674.954	4949.43
675.145	4791.73
675.336	4797.88
675.527	4896.18
675.717	4875.7
675.908	4793.78
676.099	4691.38
676.289	4871.61
676.48	4715.96
676.671	4693.43
676.861	4857.27
677.052	4679.1
677.243	4636.09
677.433	4650.43
677.624	4791.73
677.814	4654.52
678.005	4728.25
678.195	4527.55
678.386	4652.47
678.576	4693.43
678.767	4588.99
678.957	4552.12
679.148	4543.93
679.338	4486.59
679.529	4488.64
679.719	4554.17
679.909	4445.63
680.1	4371.9
680.29	4457.92
680.481	4281.79
680.671	4451.77
680.861	4316.61
681.052	4277.69
681.242	4298.17
681.432	4449.72
681.622	4419
681.813	4277.69
682.003	4265.41
682.193	4382.14
682.383	4371.9
682.573	4316.61
682.764	4283.84
682.954	4302.27
683.144	4142.53
683.334	4294.08
683.524	4281.79
683.714	4308.41
683.904	4064.71
684.094	4201.92
684.284	4158.91
684.474	4318.65
684.664	4257.22
684.854	4222.4
685.044	4199.87
685.234	4154.82
685.424	4259.26
685.614	4117.95
685.804	4156.86
685.994	4144.58
686.184	4052.42
686.374	4001.22
686.564	4079.04
686.753	4072.9
686.943	4031.94
687.133	4079.04
687.323	4048.32
687.513	3964.36
687.702	3954.12
687.892	3925.44
688.082	3857.86
688.272	3919.3
688.461	3997.12
688.651	3982.79
688.841	3855.81
689.03	3929.54
689.22	3925.44
689.41	3943.88
689.599	3945.92
689.789	3798.47
689.979	3814.85
690.168	3892.68
690.358	3700.17
690.547	3777.99
690.737	3677.64
690.926	3612.1
691.116	3716.55
691.305	3718.6
691.495	3741.13
691.684	3538.38
691.874	3487.18
692.063	3577.29
692.252	3661.26
692.442	3698.12
692.631	3571.15
692.82	3470.8
693.01	3560.91
693.199	3495.37
693.388	3593.67
693.578	3528.14
693.767	3446.22
693.956	3489.23
694.146	3524.04
694.335	3440.08
694.524	3464.65
694.713	3364.3
694.902	3356.11
695.092	3280.33
695.281	3483.08
695.47	3399.12
695.659	3341.77
695.848	3284.43
696.037	3294.67
696.226	3419.6
696.415	3335.63
696.604	3292.62
696.793	3315.15
696.982	3268.05
697.171	3321.29
697.36	3276.24
697.549	3216.85
697.738	3208.66
697.927	3323.34
698.116	3184.08
698.305	3208.66
698.494	3114.45
698.683	3241.42
698.872	3298.77
699.061	3241.42
699.25	3153.36
699.438	3206.61
699.627	3227.09
699.816	3190.22
700.005	3227.09
700.193	3175.89
700.382	3165.65
700.571	3063.25
700.76	3302.86
700.948	3206.61
701.137	3014.1
701.326	3184.08
701.514	3081.68
701.703	3128.78
701.892	3055.06
702.08	3112.4
702.269	3093.97
702.457	2917.84
702.646	3093.97
702.834	3069.39
703.023	2948.56
703.212	3085.78
703.4	3104.21
703.589	3024.34
703.777	3014.1
703.965	3040.72
704.154	2913.75
704.342	2954.71
704.531	2921.94
704.719	2905.56
704.907	2969.04
705.096	2797.01
705.284	2930.13
705.472	2952.66
705.661	3034.58
705.849	3028.43
706.037	2903.51
706.226	2817.49
706.414	2770.39
706.602	2913.75
706.79	2966.99
706.979	2745.81
707.167	2895.32
707.355	2805.21
707.543	2930.13
707.731	2938.32
707.919	2915.8
708.107	2864.6
708.296	2840.02
708.484	2819.54
708.672	2805.21
708.86	2782.68
709.048	2815.45
709.236	2708.95
709.424	2860.5
709.612	2872.79
709.8	2729.43
709.988	2786.77
710.176	2833.88
710.364	2745.81
710.551	2803.16
710.739	2680.28
710.927	2930.13
711.115	2811.35
711.303	2770.39
711.491	2758.1
711.679	2766.29
711.866	2840.02
712.054	2780.63
712.242	2717.14
712.43	2764.25
712.617	2819.54
712.805	2751.96
712.993	2731.48
713.181	2711
713.368	2704.85
713.556	2700.76
713.744	2588.12
713.931	2696.66
714.119	2717.14
714.306	2643.42
714.494	2651.61
714.682	2586.07
714.869	2534.87
715.057	2581.98
715.244	2655.7
715.432	2788.82
715.619	2651.61
715.807	2643.42
715.994	2536.92
716.182	2590.17
716.369	2725.33
716.556	2590.17
716.744	2586.07
716.931	2633.18
717.119	2498.01
717.306	2463.19
717.493	2624.98
717.681	2581.98
717.868	2606.55
718.055	2581.98
718.242	2575.83
718.43	2680.28
718.617	2596.31
718.804	2684.38
718.991	2495.96
719.179	2620.89
719.366	2528.73
719.553	2616.79
719.74	2528.73
719.927	2493.91
720.114	2471.39
720.301	2553.31
720.488	2512.35
720.676	2438.62
720.863	2655.7
721.05	2635.22
721.237	2471.39
721.424	2506.2
721.611	2424.28
721.798	2360.8
721.985	2528.73
722.172	2450.91
722.358	2442.71
722.545	2442.71
722.732	2432.47
722.919	2442.71
723.106	2393.56
723.293	2387.42
723.48	2440.67
723.667	2401.76
723.853	2315.74
724.04	2457.05
724.227	2383.32
724.414	2397.66
724.6	2428.38
724.787	2483.67
724.974	2375.13
725.161	2387.42
725.347	2262.49
725.534	2440.67
725.72	2407.9
725.907	2391.52
726.094	2299.36
726.28	2383.32
726.467	2405.85
726.653	2366.94
726.84	2457.05
727.027	2432.47
727.213	2229.73
727.4	2346.46
727.586	2319.84
727.773	2315.74
727.959	2293.21
728.145	2266.59
728.332	2360.8
728.518	2252.25
728.705	2385.37
728.891	2325.98
729.077	2401.76
729.264	2311.64
729.45	2299.36
729.636	2338.27
729.823	2332.12
730.009	2311.64
730.195	2287.07
730.382	2356.7
730.568	2260.45
730.754	2260.45
730.94	2315.74
731.126	2256.35
731.313	2293.21
731.499	2239.97
731.685	2330.08
731.871	2252.25
732.057	2264.54
732.243	2158.05
732.429	2209.25
732.615	2307.55
732.801	2285.02
732.987	2219.49
733.173	2252.25
733.359	2203.1
733.545	2151.9
733.731	2129.38
733.917	2176.48
734.103	2285.02
734.289	2260.45
734.475	2248.16
734.661	2219.49
734.847	2139.62
735.033	2272.73
735.219	2145.76
735.404	2211.29
735.59	2129.38
735.776	2133.47
735.962	2315.74
736.148	2156
736.333	2072.03
736.519	2151.9
736.705	2153.95
736.89	2115.04
737.076	2147.81
737.262	2049.5
737.447	2158.05
737.633	2119.14
737.819	2143.71
738.004	2115.04
738.19	2057.7
738.375	2133.47
738.561	2047.46
738.747	2084.32
738.932	2024.93
739.118	2139.62
739.303	2045.41
739.489	2078.18
739.674	2112.99
739.859	2145.76
740.045	2125.28
740.23	2172.38
740.416	2072.03
740.601	1981.92
740.786	2072.03
740.972	1998.31
741.157	2012.64
741.342	2004.45
741.528	1928.67
741.713	1994.21
741.898	1897.96
742.084	1926.63
742.269	1971.68
742.454	2035.17
742.639	1889.76
742.824	1947.11
743.01	2029.03
743.195	2006.5
743.38	1813.99
743.565	1891.81
743.75	1902.05
743.935	1740.26
744.12	1951.2
744.305	1779.17
744.49	1891.81
744.675	1922.53
744.86	1709.54
745.045	1842.66
745.23	1916.39
745.415	1940.96
745.6	1842.66
745.785	1721.83
745.97	1824.23
746.155	1832.42
746.34	1711.59
746.525	1848.8
746.71	1820.13
746.895	1768.93
747.079	1738.21
747.264	1734.12
747.449	1648.1
747.634	1746.41
747.819	1750.5
748.003	1758.69
748.188	1631.72
748.373	1562.09
748.557	1611.24
748.742	1652.2
748.927	1730.02
749.111	1607.14
749.296	1670.63
749.481	1644.01
749.665	1545.7
749.85	1545.7
750.034	1578.47
750.219	1549.8
750.404	1545.7
750.588	1570.28
750.773	1537.51
750.957	1578.47
751.141	1611.24
751.326	1459.69
751.51	1496.55
751.695	1557.99
751.879	1424.87
752.064	1353.2
752.248	1527.27
752.432	1428.97
752.617	1451.5
752.801	1392.11
752.985	1433.07
753.17	1443.31
753.354	1476.07
753.538	1476.07
753.722	1471.98
753.907	1314.28
754.091	1310.19
754.275	1353.2
754.459	1250.8
754.643	1291.76
754.828	1416.68
755.012	1187.31
755.196	1224.17
755.38	1154.54
755.564	1234.41
755.748	1195.5
755.932	1228.27
756.116	1285.61
756.3	1236.46
756.484	1072.62
756.668	1295.85
756.852	1119.73
757.036	1250.8
757.22	1105.39
757.404	1179.12
757.588	1138.16
757.772	1164.78
757.956	1215.98
758.14	1099.25
758.323	1013.23
758.507	1095.15
758.691	1078.77
758.875	1064.43
759.059	1160.69
759.242	1103.34
759.426	1078.77
759.61	1103.34
759.794	1035.76
759.977	1156.59
760.161	1123.82
760.345	972.27
760.528	1084.91
760.712	1033.71
760.895	1021.42
761.079	1072.62
761.263	1062.38
761.446	1002.99
761.63	962.03
761.813	1031.66
761.997	1093.1
762.18	959.99
762.364	970.23
762.547	912.88
762.731	996.85
762.914	1000.94
763.098	959.99
763.281	962.03
763.464	1000.94
763.648	916.98
763.831	996.85
764.015	892.4
764.198	968.18
764.381	900.59
764.564	894.45
764.748	1023.47
764.931	972.27
765.114	916.98
765.297	912.88
765.481	869.87
765.664	843.25
765.847	873.97
766.03	1050.1
766.213	878.07
766.397	900.59
766.58	865.78
766.763	843.25
766.946	824.82
767.129	976.37
767.312	845.3
767.495	824.82
767.678	771.57
767.861	806.39
768.044	912.88
768.227	845.3
768.41	845.3
768.593	935.41
768.776	890.35
768.959	822.77
769.142	869.87
769.324	882.16
769.507	865.78
769.69	808.44
769.873	894.45
770.056	869.87
770.239	843.25
770.421	800.24
770.604	792.05
770.787	726.52
770.97	714.23
771.152	843.25
771.335	785.91
771.518	712.18
771.7	769.52
771.883	804.34
772.066	730.61
772.248	744.95
772.431	830.96
772.613	751.09
772.796	603.64
772.978	796.15
773.161	763.38
773.343	652.79
773.526	681.46
773.708	660.98
773.891	642.55
774.073	660.98
774.256	665.08
774.438	787.96
774.621	718.33
774.803	777.72
774.985	652.79
775.168	650.74
775.35	669.17
775.532	744.95
775.715	667.13
775.897	681.46
776.079	648.69
776.261	671.22
776.444	714.23
776.626	695.8
776.808	624.12
776.99	574.97
777.173	597.49
777.355	710.13
777.537	591.35
777.719	636.41
777.901	562.68
778.083	564.73
778.265	546.3
778.447	673.27
778.629	538.1
778.811	493.05
778.993	605.69
779.175	632.31
779.357	597.49
779.539	687.61
779.721	630.26
779.903	572.92
780.085	622.07
780.267	581.11
780.449	521.72
780.631	560.63
780.812	468.47
780.994	529.91
781.176	441.85
781.358	509.43
781.54	558.58
781.721	536.06
781.903	548.34
782.085	439.8
782.267	491
782.448	466.42
782.63	509.43
782.812	548.34
782.993	534.01
783.175	538.1
783.357	427.51
783.538	497.14
783.72	392.7
783.901	472.57
784.083	488.95
784.264	427.51
784.446	361.98
784.627	513.53
784.809	439.8
784.99	491
785.172	439.8
785.353	476.66
785.535	423.42
785.716	437.75
785.897	409.08
786.079	364.03
786.26	396.79
786.441	482.81
786.623	411.13
786.804	468.47
786.985	427.51
787.167	384.51
787.348	427.51
787.529	306.68
787.71	462.33
787.891	394.75
788.073	366.07
788.254	292.35
788.435	409.08
788.616	349.69
788.797	355.83
788.978	345.59
789.159	392.7
789.34	316.92
789.522	280.06
789.703	341.5
789.884	323.07
790.065	378.36
790.246	396.79
790.427	294.4
790.607	445.95
790.788	419.32
790.969	337.4
791.15	456.19
791.331	364.03
791.512	284.16
791.693	353.79
791.874	366.07
792.054	296.44
792.235	275.96
792.416	294.4
792.597	245.24
792.778	312.83
792.958	349.69
793.139	286.2
793.32	345.59
793.5	202.24
793.681	312.83
793.862	329.21
794.042	337.4
794.223	284.16
794.404	271.87
794.584	259.58
794.765	325.12
794.945	304.64
795.126	253.44
795.306	318.97
795.487	325.12
795.667	247.29
795.848	306.68
796.028	247.29
796.209	157.18
796.389	302.59
796.57	261.63
796.75	259.58
796.93	286.2
797.111	249.34
797.291	259.58
797.471	290.3
797.652	179.71
797.832	222.72
798.012	243.2
798.192	185.85
798.373	253.44
798.553	288.25
798.733	226.81
798.913	169.47
799.093	237.05
799.274	259.58
799.454	212.48
799.634	269.82
799.814	226.81
799.994	179.71
800.174	273.92
800.354	206.33
800.534	269.82
800.714	243.2
800.894	230.91
801.074	198.14
801.254	235
801.434	235
801.614	226.81
801.794	259.58
801.974	732.66
802.154	181.76
802.334	269.82
802.514	185.85
802.693	251.39
802.873	157.18
803.053	206.33
803.233	198.14
803.413	230.91
803.592	206.33
803.772	212.48
803.952	171.52
804.131	196.09
804.311	261.63
804.491	204.28
804.67	230.91
804.85	194.05
805.03	198.14
805.209	212.48
805.389	183.81
805.568	204.28
805.748	161.28
805.928	214.52
806.107	202.24
806.287	255.48
806.466	212.48
806.646	128.51
806.825	216.57
807.004	97.79
807.184	210.43
807.363	218.62
807.543	232.96
807.722	161.28
807.901	189.95
808.081	284.16
808.26	171.52
808.439	155.13
808.619	179.71
808.798	146.94
808.977	165.37
809.156	226.81
809.336	196.09
809.515	179.71
809.694	132.61
809.873	153.09
810.052	171.52
810.231	267.77
810.411	93.69
810.59	226.81
810.769	218.62
810.948	187.9
811.127	163.33
811.306	144.89
811.485	222.72
811.664	196.09
811.843	212.48
812.022	132.61
812.201	124.41
812.38	105.98
812.559	153.09
812.737	196.09
812.916	75.26
813.095	103.93
813.274	122.37
813.453	142.85
813.632	175.61
813.811	169.47
813.989	101.89
814.168	124.41
814.347	169.47
814.526	210.43
814.704	153.09
814.883	177.66
815.062	206.33
815.24	169.47
815.419	91.65
815.598	130.56
815.776	62.98
815.955	163.33
816.133	91.65
816.312	181.76
816.49	185.85
816.669	245.24
816.847	124.41
817.026	173.57
817.204	167.42
817.383	177.66
817.561	-2.56
817.74	130.56
817.918	54.78
818.097	62.98
818.275	155.13
818.453	148.99
818.632	212.48
818.81	239.1
818.988	118.27
819.167	155.13
819.345	151.04
819.523	144.89
819.701	120.32
819.879	198.14
820.058	48.64
820.236	153.09
820.414	126.46
820.592	136.7
820.77	83.45
820.948	171.52
821.127	169.47
821.305	128.51
821.483	128.51
821.661	114.17
821.839	85.5
822.017	71.17
822.195	75.26
822.373	153.09
822.551	108.03
822.729	136.7
822.907	40.45
823.085	146.94
823.262	95.74
823.44	146.94
823.618	32.26
823.796	148.99
823.974	83.45
824.152	67.07
824.329	40.45
824.507	155.13
824.685	99.84
824.863	77.31
825.04	105.98
825.218	87.55
825.396	95.74
825.574	108.03
825.751	136.7
825.929	108.03
826.107	99.84
826.284	103.93
826.462	58.88
826.639	38.4
826.817	69.12
826.994	132.61
827.172	26.11
827.349	103.93
827.527	112.13
827.704	128.51
827.882	62.98
828.059	161.28
828.237	79.36
828.414	46.59
828.591	48.64
828.769	17.92
828.946	7.68
829.124	83.45
829.301	124.41
829.478	134.65
829.655	58.88
829.833	89.6
830.01	42.5
830.187	97.79
830.364	93.69
830.542	108.03
830.719	144.89
830.896	194.05
831.073	40.45
831.25	42.5
831.427	124.41
831.604	71.17
831.782	67.07
831.959	116.22
832.136	73.21
832.313	73.21
832.49	75.26
832.667	36.35
832.844	22.02
833.021	48.64
833.198	144.89
833.374	91.65
833.551	89.6
833.728	75.26
833.905	103.93
834.082	48.64
834.259	112.13
834.436	132.61
834.612	50.69
834.789	87.55
834.966	95.74
835.143	46.59
835.319	103.93
835.496	7.68
835.673	181.76
835.85	105.98
836.026	97.79
836.203	128.51
836.38	5.63
836.556	95.74
836.733	114.17
836.909	136.7
837.086	54.78
837.262	13.82
837.439	-10.75
837.616	71.17
837.792	40.45
837.968	144.89
838.145	26.11
838.321	22.02
838.498	62.98
838.674	103.93
838.851	36.35
839.027	22.02
839.203	67.07
839.38	38.4
839.556	60.93
839.732	108.03
839.909	112.13
840.085	48.64
840.261	-29.18
840.437	54.78
840.614	71.17
840.79	136.7
840.966	79.36
841.142	71.17
841.318	48.64
841.494	42.5
841.671	103.93
841.847	-18.94
842.023	77.31
842.199	136.7
842.375	120.32
842.551	7.68
842.727	22.02
842.903	95.74
843.079	52.74
843.255	136.7
843.431	50.69
843.607	52.74
843.783	79.36
843.959	38.4
844.134	38.4
844.31	134.65
844.486	-18.94
844.662	56.83
844.838	62.98
845.013	71.17
845.189	-18.94
845.365	52.74
845.541	89.6
845.716	77.31
845.892	71.17
846.068	87.55
846.244	30.21
846.419	32.26
846.595	56.83
846.77	65.02
846.946	26.11
847.122	1.54
847.297	-49.66
847.473	110.08
847.648	42.5
847.824	38.4
847.999	30.21
848.175	30.21
848.35	46.59
848.526	32.26
848.701	73.21
848.876	132.61
849.052	40.45
849.227	36.35
849.403	54.78
849.578	22.02
849.753	56.83
849.929	5.63
850.104	-35.33
850.279	-20.99
850.454	58.88
850.63	65.02
850.805	62.98
850.98	48.64
851.155	22.02
851.33	-39.42
851.505	-45.57
851.681	97.79
851.856	30.21
852.031	97.79
852.206	81.41
852.381	-10.75
852.556	42.5
852.731	50.69
852.906	67.07
853.081	11.78
853.256	26.11
853.431	15.87
853.606	28.16
853.781	97.79
853.956	15.87
854.131	71.17
854.305	-31.23
854.48	46.59
854.655	17.92
854.83	9.73
855.005	-41.47
855.18	-6.66
855.354	101.89
855.529	-10.75
855.704	54.78
855.879	7.68
856.053	-23.04
856.228	32.26
856.403	-6.66
856.577	58.88
856.752	24.06
856.926	-2.56
857.101	15.87
857.276	38.4
857.45	32.26
857.625	-6.66
857.799	-0.51
857.974	-12.8
858.148	-74.24
858.323	60.93
858.497	42.5
858.672	-51.71
858.846	50.69
859.02	17.92
859.195	36.35
859.369	34.3
859.543	93.69
859.718	108.03
859.892	42.5
860.066	5.63
860.241	30.21
860.415	87.55
860.589	-16.9
860.763	-12.8
860.938	13.82
861.112	79.36
861.286	13.82
861.46	46.59
861.634	62.98
861.808	42.5
861.982	71.17
862.157	-18.94
862.331	-16.9
862.505	-16.9
862.679	7.68
862.853	83.45
863.027	7.68
863.201	89.6
863.375	-10.75
863.549	30.21
863.722	103.93
863.896	22.02
864.07	22.02
864.244	48.64
864.418	44.54
864.592	54.78
864.766	-64
864.939	40.45
865.113	22.02
865.287	-31.23
865.461	-0.51
865.634	-8.7
865.808	-6.66
865.982	34.3
866.156	-2.56
866.329	7.68
866.503	-39.42
866.676	42.5
866.85	1.54
867.024	50.69
867.197	44.54
867.371	36.35
867.544	38.4
867.718	1.54
867.891	128.51
868.065	-2.56
868.238	-33.28
868.412	81.41
868.585	112.13
868.759	-6.66
868.932	46.59
869.105	62.98
869.279	56.83
869.452	46.59
869.625	24.06
869.799	19.97
869.972	-10.75
870.145	13.82
870.319	46.59
870.492	54.78
870.665	5.63
870.838	46.59
871.011	-29.18
871.185	-39.42
871.358	62.98
871.531	24.06
871.704	-12.8
871.877	13.82
872.05	-55.81
872.223	73.21
872.396	11.78
872.569	38.4
872.742	-35.33
872.915	56.83
873.088	17.92
873.261	-2.56
873.434	65.02
873.607	-35.33
873.78	99.84
873.953	5.63
874.126	-27.14
874.299	17.92
874.471	-16.9
874.644	30.21
874.817	36.35
874.99	-6.66
875.163	48.64
875.335	-8.7
875.508	22.02
875.681	83.45
875.853	-25.09
876.026	108.03
876.199	34.3
876.371	26.11
876.544	56.83
876.717	15.87
876.889	30.21
877.062	54.78
877.234	-14.85
877.407	-2.56
877.579	-20.99
877.752	9.73
877.924	28.16
878.097	-10.75
878.269	17.92
878.442	24.06
878.614	-23.04
878.786	1.54
878.959	-31.23
879.131	71.17
879.303	15.87
879.476	-41.47
879.648	32.26
879.82	46.59
879.993	11.78
880.165	56.83
880.337	-84.48
880.509	30.21
880.681	65.02
880.854	-33.28
881.026	3.58
881.198	71.17
881.37	26.11
881.542	22.02
881.714	-2.56
881.886	128.51
882.058	-18.94
882.23	46.59
882.402	-47.62
882.574	34.3
882.746	87.55
882.918	38.4
883.09	-2.56
883.262	-43.52
883.434	-12.8
883.606	17.92
883.778	5.63
883.95	17.92
884.122	-10.75
884.293	7.68
884.465	-31.23
884.637	13.82
884.809	-59.9
884.98	17.92
885.152	-27.14
885.324	54.78
885.496	-6.66
885.667	32.26
885.839	-18.94
886.011	50.69
886.182	54.78
886.354	42.5
886.525	62.98
886.697	40.45
886.869	-0.51
887.04	30.21
887.212	95.74
887.383	46.59
887.555	44.54
887.726	-80.38
887.897	-6.66
888.069	87.55
888.24	9.73
888.412	65.02
888.583	-27.14
888.754	85.5
888.926	-66.05
889.097	30.21
889.268	-23.04
889.44	-68.09
889.611	38.4
889.782	-74.24
889.953	7.68
890.125	34.3
890.296	-29.18
890.467	13.82
890.638	19.97
890.809	-76.29
890.98	5.63
891.151	13.82
891.323	56.83
891.494	15.87
891.665	-25.09
891.836	-2.56
892.007	-37.38
892.178	-31.23
892.349	15.87
892.52	5.63
892.691	22.02
892.862	38.4
893.032	-16.9
893.203	-2.56
893.374	-0.51
893.545	56.83
893.716	46.59
893.887	15.87
894.057	-37.38
894.228	13.82
894.399	-31.23
894.57	120.32
894.74	77.31
894.911	-25.09
895.082	-0.51
895.253	54.78
895.423	-41.47
895.594	7.68
895.764	83.45
895.935	-39.42
896.106	-59.9
896.276	1.54
896.447	15.87
896.617	-43.52
896.788	15.87
896.958	-27.14
897.129	15.87
897.299	22.02
897.47	62.98
897.64	1.54
897.81	17.92
897.981	32.26
898.151	3.58
898.322	24.06
898.492	-6.66
898.662	58.88
898.832	62.98
899.003	-6.66
899.173	5.63
899.343	17.92
899.513	32.26
