Data from USB4F104151__181__14-20-12-896.txt Node

Date: Thu Mar 13 14:20:12 EDT 2025
User: louis
Spectrometer: USB4F10415
Trigger mode: 4
Integration Time (sec): 2.000000E-2
Scans to average: 1
Electric dark correction enabled: true
Nonlinearity correction enabled: false
Boxcar width: 0
XAxis mode: Wavelengths
Number of Pixels in Spectrum: 3648
>>>>>Begin Spectral Data<<<<<
178.204	-111.44
178.424	-111.44
178.644	-111.44
178.864	-123.73
179.084	-99.16
179.304	-9.05
179.524	1.19
179.744	-66.39
179.964	52.39
180.184	-13.14
180.404	19.63
180.624	15.53
180.844	23.72
181.064	-25.43
181.283	-41.81
181.503	-17.24
181.723	60.59
181.943	40.11
182.163	60.59
182.383	19.63
182.602	50.35
182.822	23.72
183.042	33.96
183.262	-17.24
183.482	36.01
183.701	44.2
183.921	40.11
184.141	-45.91
184.361	-29.52
184.58	81.07
184.8	-66.39
185.02	3.24
185.239	52.39
185.459	-23.38
185.679	101.55
185.898	15.53
186.118	3.24
186.338	40.11
186.557	17.58
186.777	25.77
186.997	38.06
187.216	21.67
187.436	11.43
187.655	40.11
187.875	85.16
188.095	-23.38
188.314	105.64
188.534	74.92
188.753	-17.24
188.973	25.77
189.192	87.21
189.412	50.35
189.631	9.39
189.851	36.01
190.07	50.35
190.29	7.34
190.509	-21.33
190.729	-29.52
190.948	72.87
191.168	138.41
191.387	-25.43
191.607	40.11
191.826	7.34
192.045	-17.24
192.265	36.01
192.484	87.21
192.704	-45.91
192.923	-0.85
193.142	48.3
193.362	17.58
193.581	109.74
193.8	42.15
194.02	31.91
194.239	19.63
194.458	-41.81
194.678	48.3
194.897	-17.24
195.116	-19.29
195.335	56.49
195.555	-9.05
195.774	42.15
195.993	-60.24
196.212	23.72
196.432	-17.24
196.651	23.72
196.87	58.54
197.089	126.12
197.308	15.53
197.528	58.54
197.747	-25.43
197.966	31.91
198.185	3.24
198.404	-0.85
198.623	31.91
198.842	-29.52
199.062	25.77
199.281	72.87
199.5	-103.25
199.719	42.15
199.938	40.11
200.157	-13.14
200.376	60.59
200.595	33.96
200.814	5.29
201.033	-11.09
201.252	3.24
201.471	70.83
201.69	76.97
201.909	-31.57
202.128	-25.43
202.347	-4.95
202.566	-13.14
202.785	1.19
203.004	-58.2
203.223	33.96
203.442	1.19
203.661	-37.72
203.879	62.63
204.098	83.11
204.317	-25.43
204.536	64.68
204.755	23.72
204.974	27.82
205.193	-33.62
205.411	83.11
205.63	54.44
205.849	62.63
206.068	50.35
206.287	-19.29
206.505	9.39
206.724	7.34
206.943	52.39
207.162	19.63
207.381	42.15
207.599	48.3
207.818	31.91
208.037	15.53
208.255	-25.43
208.474	97.45
208.693	31.91
208.911	17.58
209.13	58.54
209.349	25.77
209.567	40.11
209.786	52.39
210.005	50.35
210.223	23.72
210.442	-9.05
210.661	50.35
210.879	66.73
211.098	25.77
211.316	72.87
211.535	31.91
211.753	60.59
211.972	79.02
212.191	31.91
212.409	62.63
212.628	-31.57
212.846	-0.85
213.065	11.43
213.283	15.53
213.502	-0.85
213.72	-17.24
213.938	33.96
214.157	-21.33
214.375	-80.72
214.594	109.74
214.812	64.68
215.031	50.35
215.249	29.87
215.467	7.34
215.686	9.39
215.904	5.29
216.122	23.72
216.341	115.88
216.559	38.06
216.778	44.2
216.996	17.58
217.214	-11.09
217.432	93.35
217.651	3.24
217.869	85.16
218.087	-31.57
218.306	-0.85
218.524	97.45
218.742	64.68
218.96	15.53
219.179	-4.95
219.397	29.87
219.615	44.2
219.833	68.78
220.051	7.34
220.27	74.92
220.488	-7
220.706	19.63
220.924	56.49
221.142	-7
221.36	68.78
221.578	89.26
221.796	48.3
222.015	9.39
222.233	7.34
222.451	44.2
222.669	36.01
222.887	-15.19
223.105	-45.91
223.323	9.39
223.541	40.11
223.759	-11.09
223.977	19.63
224.195	33.96
224.413	5.29
224.631	85.16
224.849	36.01
225.067	40.11
225.285	58.54
225.503	109.74
225.721	-52.05
225.939	-21.33
226.157	68.78
226.375	115.88
226.592	60.59
226.81	15.53
227.028	89.26
227.246	40.11
227.464	44.2
227.682	23.72
227.9	23.72
228.117	79.02
228.335	74.92
228.553	3.24
228.771	33.96
228.989	66.73
229.206	15.53
229.424	7.34
229.642	7.34
229.86	-29.52
230.077	66.73
230.295	-9.05
230.513	122.02
230.731	31.91
230.948	17.58
231.166	95.4
231.384	15.53
231.601	-15.19
231.819	54.44
232.037	19.63
232.254	-23.38
232.472	33.96
232.689	7.34
232.907	-50
233.125	64.68
233.342	-13.14
233.56	-9.05
233.777	74.92
233.995	46.25
234.213	-15.19
234.43	58.54
234.648	46.25
234.865	-2.9
235.083	-9.05
235.3	-9.05
235.518	52.39
235.735	44.2
235.953	173.22
236.17	36.01
236.388	40.11
236.605	-27.48
236.822	7.34
237.04	15.53
237.257	-25.43
237.475	19.63
237.692	40.11
237.909	-41.81
238.127	52.39
238.344	1.19
238.562	76.97
238.779	-31.57
238.996	-0.85
239.214	-21.33
239.431	31.91
239.648	-9.05
239.865	42.15
240.083	113.83
240.3	19.63
240.517	-4.95
240.735	54.44
240.952	15.53
241.169	52.39
241.386	48.3
241.603	46.25
241.821	54.44
242.038	124.07
242.255	15.53
242.472	17.58
242.689	33.96
242.907	48.3
243.124	122.02
243.341	19.63
243.558	38.06
243.775	-25.43
243.992	25.77
244.209	-4.95
244.426	21.67
244.643	3.24
244.86	25.77
245.078	48.3
245.295	11.43
245.512	15.53
245.729	-27.48
245.946	33.96
246.163	72.87
246.38	21.67
246.597	15.53
246.814	7.34
247.031	31.91
247.248	40.11
247.464	-19.29
247.681	56.49
247.898	87.21
248.115	27.82
248.332	87.21
248.549	93.35
248.766	50.35
248.983	113.83
249.2	-4.95
249.417	19.63
249.633	7.34
249.85	48.3
250.067	-9.05
250.284	64.68
250.501	-4.95
250.717	33.96
250.934	44.2
251.151	31.91
251.368	23.72
251.585	64.68
251.801	40.11
252.018	64.68
252.235	58.54
252.451	27.82
252.668	68.78
252.885	66.73
253.102	93.35
253.318	11.43
253.535	60.59
253.752	-58.2
253.968	62.63
254.185	31.91
254.401	7.34
254.618	-29.52
254.835	76.97
255.051	97.45
255.268	-23.38
255.484	23.72
255.701	19.63
255.917	40.11
256.134	-17.24
256.351	48.3
256.567	-4.95
256.784	42.15
257	-31.57
257.217	5.29
257.433	60.59
257.65	85.16
257.866	70.83
258.082	25.77
258.299	50.35
258.515	48.3
258.732	-11.09
258.948	7.34
259.165	-2.9
259.381	-27.48
259.597	17.58
259.814	64.68
260.03	-0.85
260.246	56.49
260.463	50.35
260.679	40.11
260.895	64.68
261.112	60.59
261.328	-9.05
261.544	-19.29
261.761	19.63
261.977	-15.19
262.193	-4.95
262.409	-25.43
262.626	-17.24
262.842	1.19
263.058	13.48
263.274	17.58
263.49	15.53
263.707	48.3
263.923	19.63
264.139	5.29
264.355	-7
264.571	58.54
264.787	42.15
265.004	52.39
265.22	-7
265.436	36.01
265.652	27.82
265.868	117.93
266.084	-39.76
266.3	85.16
266.516	-66.39
266.732	7.34
266.948	9.39
267.164	36.01
267.38	-13.14
267.596	36.01
267.812	-21.33
268.028	72.87
268.244	-9.05
268.46	83.11
268.676	31.91
268.892	-27.48
269.108	-50
269.324	52.39
269.54	13.48
269.756	52.39
269.972	-13.14
270.188	-29.52
270.403	-50
270.619	31.91
270.835	-29.52
271.051	7.34
271.267	-47.96
271.483	-9.05
271.698	-7
271.914	48.3
272.13	21.67
272.346	-13.14
272.562	40.11
272.777	25.77
272.993	42.15
273.209	-54.1
273.425	52.39
273.64	23.72
273.856	72.87
274.072	-31.57
274.287	23.72
274.503	40.11
274.719	7.34
274.934	66.73
275.15	-29.52
275.366	7.34
275.581	19.63
275.797	-9.05
276.012	23.72
276.228	29.87
276.444	83.11
276.659	48.3
276.875	-47.96
277.09	-15.19
277.306	103.59
277.521	60.59
277.737	48.3
277.952	7.34
278.168	70.83
278.383	97.45
278.599	27.82
278.814	132.26
279.03	3.24
279.245	154.79
279.461	23.72
279.676	1.19
279.892	-11.09
280.107	-41.81
280.322	44.2
280.538	5.29
280.753	3.24
280.969	68.78
281.184	48.3
281.399	117.93
281.615	42.15
281.83	64.68
282.045	27.82
282.26	-0.85
282.476	31.91
282.691	29.87
282.906	15.53
283.122	40.11
283.337	36.01
283.552	58.54
283.767	-9.05
283.983	58.54
284.198	44.2
284.413	64.68
284.628	36.01
284.843	-9.05
285.058	87.21
285.274	48.3
285.489	-52.05
285.704	-9.05
285.919	-76.63
286.134	-0.85
286.349	-2.9
286.564	17.58
286.779	31.91
286.995	56.49
287.21	11.43
287.425	-41.81
287.64	-50
287.855	42.15
288.07	-0.85
288.285	105.64
288.5	60.59
288.715	58.54
288.93	9.39
289.145	33.96
289.36	15.53
289.575	-39.76
289.79	56.49
290.004	56.49
290.219	38.06
290.434	56.49
290.649	11.43
290.864	15.53
291.079	-45.91
291.294	-7
291.509	29.87
291.724	7.34
291.938	-45.91
292.153	40.11
292.368	31.91
292.583	27.82
292.798	21.67
293.012	15.53
293.227	17.58
293.442	1.19
293.657	122.02
293.871	89.26
294.086	48.3
294.301	36.01
294.516	19.63
294.73	58.54
294.945	54.44
295.16	115.88
295.374	36.01
295.589	66.73
295.804	-43.86
296.018	-21.33
296.233	52.39
296.447	72.87
296.662	23.72
296.877	54.44
297.091	52.39
297.306	89.26
297.52	31.91
297.735	33.96
297.949	83.11
298.164	31.91
298.378	-54.1
298.593	25.77
298.807	48.3
299.022	81.07
299.236	31.91
299.451	23.72
299.665	29.87
299.88	85.16
300.094	7.34
300.309	81.07
300.523	76.97
300.737	11.43
300.952	23.72
301.166	56.49
301.381	54.44
301.595	-13.14
301.809	-54.1
302.024	9.39
302.238	-4.95
302.452	62.63
302.667	56.49
302.881	81.07
303.095	23.72
303.309	27.82
303.524	56.49
303.738	-7
303.952	23.72
304.166	29.87
304.381	-23.38
304.595	72.87
304.809	44.2
305.023	44.2
305.237	1.19
305.452	42.15
305.666	42.15
305.88	46.25
306.094	48.3
306.308	130.22
306.522	42.15
306.736	38.06
306.95	68.78
307.164	23.72
307.379	21.67
307.593	93.35
307.807	64.68
308.021	128.17
308.235	9.39
308.449	-66.39
308.663	13.48
308.877	105.64
309.091	56.49
309.305	15.53
309.519	-62.29
309.733	72.87
309.947	31.91
310.161	76.97
310.374	-9.05
310.588	3.24
310.802	-25.43
311.016	-23.38
311.23	99.5
311.444	74.92
311.658	9.39
311.872	40.11
312.085	105.64
312.299	66.73
312.513	-39.76
312.727	101.55
312.941	-37.72
313.154	-37.72
313.368	40.11
313.582	-25.43
313.796	33.96
314.009	60.59
314.223	-0.85
314.437	33.96
314.651	40.11
314.864	33.96
315.078	-27.48
315.292	29.87
315.505	11.43
315.719	-37.72
315.933	-4.95
316.146	-54.1
316.36	-43.86
316.573	68.78
316.787	17.58
317.001	23.72
317.214	-47.96
317.428	48.3
317.641	40.11
317.855	50.35
318.068	72.87
318.282	89.26
318.495	89.26
318.709	64.68
318.922	-33.62
319.136	68.78
319.349	66.73
319.563	36.01
319.776	-19.29
319.99	-15.19
320.203	48.3
320.417	44.2
320.63	11.43
320.843	122.02
321.057	9.39
321.27	36.01
321.483	81.07
321.697	179.37
321.91	89.26
322.124	19.63
322.337	81.07
322.55	81.07
322.763	9.39
322.977	33.96
323.19	-17.24
323.403	50.35
323.617	31.91
323.83	31.91
324.043	7.34
324.256	56.49
324.469	-31.57
324.683	56.49
324.896	21.67
325.109	56.49
325.322	-7
325.535	58.54
325.748	58.54
325.962	107.69
326.175	46.25
326.388	64.68
326.601	76.97
326.814	72.87
327.027	-62.29
327.24	48.3
327.453	-11.09
327.666	62.63
327.879	83.11
328.092	31.91
328.305	-39.76
328.518	40.11
328.731	89.26
328.944	23.72
329.157	9.39
329.37	64.68
329.583	33.96
329.796	42.15
330.009	19.63
330.222	72.87
330.435	64.68
330.648	-21.33
330.861	11.43
331.073	50.35
331.286	31.91
331.499	42.15
331.712	9.39
331.925	9.39
332.138	15.53
332.35	50.35
332.563	42.15
332.776	7.34
332.989	-11.09
333.202	13.48
333.414	56.49
333.627	36.01
333.84	72.87
334.053	93.35
334.265	83.11
334.478	56.49
334.691	40.11
334.903	62.63
335.116	3.24
335.329	25.77
335.541	40.11
335.754	48.3
335.966	76.97
336.179	72.87
336.392	17.58
336.604	64.68
336.817	-4.95
337.029	31.91
337.242	-31.57
337.454	111.78
337.667	93.35
337.88	70.83
338.092	-17.24
338.305	87.21
338.517	48.3
338.729	29.87
338.942	11.43
339.154	60.59
339.367	-13.14
339.579	31.91
339.792	-17.24
340.004	23.72
340.217	83.11
340.429	-17.24
340.641	-25.43
340.854	-23.38
341.066	36.01
341.278	23.72
341.491	60.59
341.703	-17.24
341.915	72.87
342.128	29.87
342.34	83.11
342.552	60.59
342.764	60.59
342.977	17.58
343.189	76.97
343.401	81.07
343.613	50.35
343.826	60.59
344.038	-33.62
344.25	50.35
344.462	31.91
344.674	23.72
344.886	44.2
345.099	72.87
345.311	-25.43
345.523	42.15
345.735	40.11
345.947	81.07
346.159	64.68
346.371	3.24
346.583	66.73
346.795	62.63
347.007	-0.85
347.219	36.01
347.431	19.63
347.643	124.07
347.855	-17.24
348.067	-13.14
348.279	1.19
348.491	15.53
348.703	15.53
348.915	-9.05
349.127	-13.14
349.339	130.22
349.551	-50
349.763	36.01
349.975	23.72
350.187	105.64
350.399	48.3
350.61	72.87
350.822	25.77
351.034	-13.14
351.246	79.02
351.458	25.77
351.669	-9.05
351.881	44.2
352.093	169.13
352.305	58.54
352.517	83.11
352.728	40.11
352.94	19.63
353.152	52.39
353.363	23.72
353.575	97.45
353.787	9.39
353.999	99.5
354.21	68.78
354.422	-9.05
354.633	54.44
354.845	-0.85
355.057	13.48
355.268	17.58
355.48	140.46
355.692	38.06
355.903	36.01
356.115	48.3
356.326	-13.14
356.538	122.02
356.749	95.4
356.961	68.78
357.172	-25.43
357.384	81.07
357.595	113.83
357.807	19.63
358.018	-0.85
358.23	19.63
358.441	81.07
358.653	91.31
358.864	40.11
359.075	74.92
359.287	31.91
359.498	89.26
359.709	72.87
359.921	64.68
360.132	-9.05
360.344	109.74
360.555	64.68
360.766	50.35
360.977	-19.29
361.189	25.77
361.4	-21.33
361.611	72.87
361.823	113.83
362.034	85.16
362.245	-7
362.456	50.35
362.667	130.22
362.879	40.11
363.09	76.97
363.301	44.2
363.512	56.49
363.723	74.92
363.935	5.29
364.146	1.19
364.357	46.25
364.568	54.44
364.779	27.82
364.99	60.59
365.201	29.87
365.412	91.31
365.623	36.01
365.834	42.15
366.045	1.19
366.256	113.83
366.467	25.77
366.678	48.3
366.889	54.44
367.1	11.43
367.311	81.07
367.522	15.53
367.733	81.07
367.944	99.5
368.155	72.87
368.366	54.44
368.577	25.77
368.788	72.87
368.999	40.11
369.209	7.34
369.42	56.49
369.631	83.11
369.842	64.68
370.053	36.01
370.264	44.2
370.474	25.77
370.685	15.53
370.896	27.82
371.107	23.72
371.317	91.31
371.528	1.19
371.739	91.31
371.95	29.87
372.16	56.49
372.371	48.3
372.582	64.68
372.792	74.92
373.003	68.78
373.214	-21.33
373.424	1.19
373.635	-4.95
373.846	97.45
374.056	122.02
374.267	56.49
374.477	105.64
374.688	11.43
374.898	25.77
375.109	93.35
375.319	97.45
375.53	40.11
375.74	60.59
375.951	93.35
376.161	105.64
376.372	81.07
376.582	36.01
376.793	81.07
377.003	19.63
377.214	19.63
377.424	62.63
377.635	33.96
377.845	58.54
378.055	66.73
378.266	-9.05
378.476	25.77
378.686	17.58
378.897	48.3
379.107	68.78
379.317	117.93
379.528	-41.81
379.738	23.72
379.948	72.87
380.158	50.35
380.369	25.77
380.579	74.92
380.789	81.07
380.999	74.92
381.21	89.26
381.42	191.66
381.63	-17.24
381.84	81.07
382.05	21.67
382.261	91.31
382.471	48.3
382.681	-31.57
382.891	179.37
383.101	17.58
383.311	7.34
383.521	-17.24
383.731	130.22
383.941	52.39
384.151	56.49
384.361	58.54
384.571	89.26
384.781	64.68
384.991	56.49
385.201	74.92
385.411	64.68
385.621	126.12
385.831	15.53
386.041	97.45
386.251	93.35
386.461	25.77
386.671	-0.85
386.881	36.01
387.091	23.72
387.301	48.3
387.511	1.19
387.72	40.11
387.93	-17.24
388.14	23.72
388.35	54.44
388.56	36.01
388.769	160.94
388.979	64.68
389.189	36.01
389.399	142.5
389.609	85.16
389.818	130.22
390.028	29.87
390.238	66.73
390.447	70.83
390.657	136.36
390.867	52.39
391.076	-2.9
391.286	42.15
391.496	7.34
391.705	52.39
391.915	89.26
392.125	97.45
392.334	89.26
392.544	85.16
392.753	58.54
392.963	17.58
393.172	31.91
393.382	64.68
393.591	66.73
393.801	40.11
394.01	132.26
394.22	105.64
394.429	76.97
394.639	54.44
394.848	113.83
395.058	130.22
395.267	85.16
395.477	122.02
395.686	138.41
395.895	126.12
396.105	115.88
396.314	113.83
396.524	101.55
396.733	109.74
396.942	91.31
397.152	74.92
397.361	130.22
397.57	38.06
397.78	17.58
397.989	148.65
398.198	148.65
398.407	109.74
398.617	107.69
398.826	187.56
399.035	105.64
399.244	85.16
399.453	107.69
399.663	91.31
399.872	115.88
400.081	130.22
400.29	152.74
400.499	85.16
400.708	130.22
400.917	93.35
401.127	113.83
401.336	23.72
401.545	138.41
401.754	64.68
401.963	146.6
402.172	64.68
402.381	107.69
402.59	101.55
402.799	101.55
403.008	126.12
403.217	132.26
403.426	109.74
403.635	97.45
403.844	173.22
404.053	89.26
404.262	158.89
404.471	132.26
404.68	152.74
404.888	134.31
405.097	97.45
405.306	132.26
405.515	162.98
405.724	173.22
405.933	191.66
406.142	175.27
406.35	191.66
406.559	107.69
406.768	197.8
406.977	222.38
407.185	220.33
407.394	181.42
407.603	150.7
407.812	244.9
408.02	308.39
408.229	253.09
408.438	220.33
408.646	187.56
408.855	261.29
409.064	255.14
409.272	318.63
409.481	275.62
409.69	228.52
409.898	269.48
410.107	328.87
410.315	330.92
410.524	308.39
410.733	384.16
410.941	361.64
411.15	318.63
411.358	441.51
411.567	404.64
411.775	392.36
411.984	386.21
412.192	507.04
412.401	394.4
412.609	429.22
412.818	509.09
413.026	572.58
413.234	476.32
413.443	568.48
413.651	466.08
413.86	548
414.068	517.28
414.276	646.3
414.485	695.46
414.693	705.7
414.901	769.18
415.11	621.73
415.318	689.31
415.526	648.35
415.734	760.99
415.943	720.03
416.151	847.01
416.359	818.33
416.567	814.24
416.776	883.87
416.984	935.07
417.192	937.12
417.4	992.41
417.608	918.68
417.817	1039.51
418.025	1088.67
418.233	1219.74
418.441	1166.49
418.649	1221.78
418.857	1293.46
419.065	1393.81
419.273	1248.41
419.481	1338.52
419.689	1436.82
419.897	1490.07
420.105	1473.68
420.313	1502.36
420.521	1655.95
420.729	1580.18
420.937	1592.47
421.145	1692.82
421.353	1983.63
421.561	1942.67
421.769	1932.43
421.977	2043.02
422.185	1971.34
422.393	2163.85
422.601	2380.93
422.809	2274.44
423.017	2346.12
423.224	2387.08
423.432	2516.1
423.64	2509.96
423.848	2665.6
424.056	2727.04
424.263	2946.17
424.471	2694.27
424.679	2968.7
424.887	3005.56
425.094	3120.25
425.302	3185.79
425.51	3110.01
425.718	3302.52
425.925	3300.47
426.133	3437.69
426.341	3507.32
426.548	3921.01
426.756	3894.38
426.964	3888.24
427.171	4217.96
427.379	4254.83
427.586	4252.78
427.794	4490.34
428.001	4605.03
428.209	4787.3
428.417	4725.86
428.624	5063.77
428.832	5153.88
429.039	4963.42
429.247	5051.49
429.454	5444.7
429.662	5936.21
429.869	5456.98
430.076	5905.49
430.284	5946.45
430.491	5923.92
430.699	6331.47
430.906	6468.68
431.114	6306.89
431.321	6720.58
431.528	6753.35
431.736	7201.85
431.943	7679.03
432.15	7070.78
432.358	7550.01
432.565	7752.76
432.772	7810.1
432.979	8098.86
433.187	8272.94
433.394	8477.74
433.601	8797.22
433.808	9092.13
434.016	8889.38
434.223	9491.48
434.43	9661.46
434.637	9643.03
434.844	10249.23
435.052	10568.71
435.259	10345.48
435.466	10417.16
435.673	10322.96
435.88	11217.92
436.087	11584.51
436.294	11762.68
436.501	11484.16
436.708	11721.72
436.915	11998.2
437.122	12395.5
437.329	12512.24
437.537	12856.29
437.743	13071.33
437.95	12714.98
438.157	13515.74
438.364	13947.86
438.571	13913.05
438.778	14085.08
438.985	15338.43
439.192	14787.53
439.399	15487.93
439.606	14988.23
439.813	15877.05
440.02	16898.98
440.227	16356.27
440.433	16284.59
440.64	16950.18
440.847	16720.81
441.054	17116.07
441.261	18166.68
441.467	17918.87
441.674	18305.94
441.881	19065.74
442.088	18791.31
442.294	18893.71
442.501	19499.91
442.708	19731.33
442.914	20536.18
443.121	21437.28
443.328	20933.48
443.534	22141.78
443.741	21390.18
443.948	21318.5
444.154	22790.99
444.361	22436.69
444.568	22907.73
444.774	22793.04
444.981	23067.47
445.187	23685.95
445.394	24419.13
445.6	24472.37
445.807	26663.7
446.013	25406.25
446.22	26133.28
446.426	26979.09
446.633	27241.23
446.839	28113.66
447.046	27065.1
447.252	28416.76
447.459	28664.57
447.665	28695.28
447.871	29416.17
448.078	30874.32
448.284	29602.53
448.491	30569.18
448.697	31732.42
448.903	32154.3
449.11	31871.68
449.316	31306.44
449.522	32213.7
449.728	32920.24
449.935	33211.06
450.141	33147.57
450.347	33931.94
450.553	32973.49
450.76	33299.12
450.966	34308.77
451.172	34161.31
451.378	35039.89
451.584	34222.75
451.791	35015.32
451.997	34468.51
452.203	35041.94
452.409	35590.8
452.615	35181.2
452.821	34028.2
453.027	33563.31
453.233	35541.64
453.44	34407.07
453.646	34503.32
453.852	34882.2
454.058	34945.69
454.264	34323.1
454.47	35111.57
454.676	34069.15
454.882	35426.96
455.088	31918.79
455.294	32395.96
455.5	33137.33
455.705	33538.73
455.911	32541.37
456.117	31427.28
456.323	31007.44
456.529	29879.01
456.735	30847.7
456.941	30192.35
457.147	29790.95
457.352	28775.16
457.558	28596.98
457.764	28582.65
457.97	27996.93
458.176	27454.22
458.381	27579.14
458.587	25811.74
458.793	25914.14
458.999	24832.82
459.204	26544.92
459.41	25502.5
459.616	24087.36
459.821	24073.02
460.027	23761.73
460.233	23507.78
460.438	22569.81
460.644	22790.99
460.85	21527.39
461.055	21320.55
461.261	21082.98
461.466	19831.68
461.672	19032.97
461.878	20271.99
462.083	19041.16
462.289	18611.09
462.494	18365.33
462.7	17742.75
462.905	17243.04
463.111	18105.24
463.316	17898.39
463.522	17374.11
463.727	17566.62
463.932	17281.95
464.138	17234.85
464.343	17402.79
464.549	16808.87
464.754	17261.48
464.959	17341.35
465.165	17171.36
465.37	16386.99
465.575	15860.66
465.781	16581.55
465.986	16767.91
466.191	16317.36
466.397	15674.3
466.602	14928.84
466.807	15672.25
467.012	15655.87
467.218	15582.14
467.423	15301.57
467.628	15315.9
467.833	16047.03
468.038	15549.37
468.244	14998.47
468.449	15739.83
468.654	14902.22
468.859	14924.74
469.064	14863.3
469.269	14459.85
469.474	14482.38
469.679	14515.15
469.885	14369.74
470.09	14330.83
470.295	14367.7
470.5	14099.41
470.705	14138.32
470.91	13663.19
471.115	13761.5
471.32	13994.97
471.525	13806.55
471.73	13511.64
471.935	13163.49
472.139	13073.38
472.344	13061.09
472.549	13003.75
472.754	12778.47
472.959	12538.86
473.164	12221.42
473.369	12319.73
473.574	12782.57
473.778	12381.17
473.983	12246
474.188	12401.65
474.393	11863.03
474.598	11910.13
474.802	11754.49
475.007	11609.08
475.212	11478.01
475.417	11222.02
475.621	11279.36
475.826	11211.78
476.031	11174.91
476.235	10894.34
476.44	10978.31
476.645	10734.6
476.849	10937.35
477.054	10718.22
477.259	10503.18
477.463	10513.42
477.668	10327.05
477.872	10560.52
478.077	10044.43
478.282	10048.53
478.486	9774.1
478.691	9802.77
478.895	9841.68
479.1	9759.77
479.304	10017.81
479.509	9460.76
479.713	9600.02
479.918	9479.19
480.122	9395.23
480.326	9479.19
480.531	9475.1
480.735	9348.12
480.94	9145.38
481.144	9405.47
481.348	9266.21
481.553	9391.13
481.757	8961.06
481.961	9028.64
482.166	9251.87
482.37	9260.06
482.574	8887.33
482.778	8850.47
482.983	9102.37
483.187	9284.64
483.391	9133.09
483.595	8780.84
483.8	8805.41
484.004	8920.1
484.208	9026.59
484.412	8979.49
484.616	9059.36
484.821	9085.98
485.025	8926.24
485.229	9178.14
485.433	8887.33
485.637	8936.48
485.841	9026.59
486.045	9036.83
486.249	8979.49
486.453	8711.21
486.657	9049.12
486.861	8911.91
487.065	8852.52
487.269	9167.9
487.473	8838.18
487.677	8977.44
487.881	9075.74
488.085	9196.57
488.289	9167.9
488.493	8895.52
488.697	9147.42
488.901	9100.32
489.105	9178.14
489.309	9145.38
489.512	9112.61
489.716	9092.13
489.92	9038.88
490.124	9157.66
490.328	9169.95
490.531	9251.87
490.735	9456.67
490.939	9458.71
491.143	9182.24
491.346	9241.63
491.55	9255.97
491.754	9249.82
491.958	9423.9
492.161	9368.6
492.365	9399.32
492.569	9514.01
492.772	9608.22
492.976	9653.27
493.18	9503.77
493.383	9853.97
493.587	9755.67
493.79	9853.97
493.994	9780.25
494.197	9896.98
494.401	9874.45
494.605	10032.15
494.808	10013.71
495.012	10019.86
495.215	10253.33
495.419	10390.54
495.622	10171.41
495.825	10470.41
496.029	10316.81
496.232	10697.74
496.436	10494.99
496.639	10984.45
496.843	10697.74
497.046	10951.68
497.249	11232.26
497.453	11242.5
497.656	11250.69
497.859	11234.3
498.063	11291.65
498.266	11807.73
498.469	11602.94
498.673	11758.58
498.876	12024.82
499.079	12076.02
499.282	12170.22
499.485	12237.81
499.689	12377.07
499.892	12571.63
500.095	12559.34
500.298	12999.65
500.501	12639.21
500.705	13118.43
500.908	13130.72
501.111	13306.85
501.314	13523.93
501.517	13376.48
501.72	13755.35
501.923	13784.02
502.126	14195.67
502.329	14345.17
502.532	14341.07
502.735	14416.85
502.938	14621.64
503.141	14869.45
503.344	15221.7
503.547	15084.48
503.75	15328.19
503.953	15274.95
504.156	15561.66
504.359	15784.89
504.562	15549.37
504.765	16032.69
504.968	16112.56
505.17	16378.8
505.373	16391.09
505.576	16798.63
505.779	17109.93
505.982	16874.41
506.185	17347.49
506.387	17241
506.59	17628.06
506.793	17986.46
506.996	17744.8
507.198	18379.67
507.401	18453.39
507.604	18256.79
507.807	18662.29
508.009	18889.61
508.212	18824.08
508.415	19110.79
508.617	19506.05
508.82	19495.81
509.022	19274.63
509.225	20022.14
509.428	20167.54
509.63	20415.35
509.833	20446.07
510.035	20648.82
510.238	20689.77
510.44	21125.99
510.643	21285.73
510.845	21404.52
511.048	21306.21
511.25	21662.56
511.453	21896.03
511.655	22698.83
511.858	22735.7
512.06	22524.75
512.262	22928.2
512.465	22862.67
512.667	23325.51
512.87	23446.34
513.072	23563.08
513.274	23726.91
513.477	24126.27
513.679	24236.86
513.881	24501.04
514.084	24769.33
514.286	24664.88
514.488	24822.58
514.69	25770.79
514.893	25463.59
515.095	25729.83
515.297	26231.58
515.499	26164
515.701	26438.42
515.904	26839.83
516.106	27101.97
516.308	27198.22
516.51	27355.91
516.712	27396.87
516.914	27816.71
517.116	28138.24
517.318	28250.88
517.52	28519.16
517.722	28609.27
517.925	29082.35
518.127	29307.63
518.329	29373.16
518.531	29004.53
518.733	30200.54
518.935	29934.31
519.136	30073.57
519.338	30984.91
519.54	30653.14
519.742	30964.43
519.944	30800.6
520.146	31541.96
520.348	31865.54
520.55	31840.96
520.752	31912.64
520.954	32492.22
521.155	32023.23
521.357	32946.87
521.559	32971.44
521.761	33409.71
521.963	33512.11
522.164	33512.11
522.366	33780.39
522.568	33890.98
522.77	34101.92
522.971	34988.69
523.173	34290.34
523.375	35078.8
523.576	34673.31
523.778	35107.47
523.98	35543.69
524.181	35621.52
524.383	35383.95
524.584	36065.92
524.786	35957.38
524.988	35820.17
525.189	36563.58
525.391	36412.03
525.592	36668.03
525.794	36719.23
525.995	36788.86
526.197	36977.27
526.398	37053.05
526.6	37384.82
526.801	37323.38
527.003	37683.82
527.204	37423.73
527.406	38011.49
527.607	37728.87
527.808	38138.47
528.01	37255.79
528.211	37888.62
528.412	38214.24
528.614	38437.47
528.815	38425.18
529.016	38679.13
529.218	38070.89
529.419	38566.49
529.62	38574.69
529.822	39041.62
530.023	39103.06
530.224	38728.28
530.425	39109.21
530.626	38793.82
530.828	38597.21
531.029	39766.6
531.23	38863.45
531.431	39111.25
531.632	39445.07
531.833	39430.74
532.035	39221.84
532.236	39105.11
532.437	39457.36
532.638	39045.72
532.839	39570
533.04	39645.77
533.241	39551.57
533.442	40198.73
533.643	39858.76
533.844	39393.87
534.045	39688.78
534.246	39371.35
534.447	39246.42
534.648	39440.98
534.849	39443.02
535.05	39739.98
535.251	39582.29
535.451	39236.18
535.652	39707.21
535.853	39303.76
536.054	39748.17
536.255	39754.32
536.456	39461.46
536.657	39916.11
536.857	39400.02
537.058	39365.2
537.259	39305.81
537.46	39758.41
537.66	39146.07
537.861	39613.01
538.062	39461.46
538.263	39475.79
538.463	39686.73
538.664	39526.99
538.865	39613.01
539.065	39545.42
539.266	39322.19
539.466	39551.57
539.667	39170.64
539.868	39610.96
540.068	39328.34
540.269	39383.63
540.469	39481.94
540.67	39332.43
540.87	39244.37
541.071	39322.19
541.271	39420.5
541.472	39453.26
541.672	39172.69
541.873	39041.62
542.073	39283.28
542.274	39291.48
542.474	38986.33
542.675	39205.46
542.875	39582.29
543.075	38933.08
543.276	38826.59
543.476	39279.19
543.676	38849.11
543.877	39162.45
544.077	39127.64
544.277	39002.71
544.478	38994.52
544.678	39103.06
544.878	39015
545.078	38976.09
545.279	38664.8
545.479	39121.49
545.679	38978.14
545.879	38971.99
546.079	39086.68
546.28	38738.52
546.48	38941.27
546.68	39080.53
546.88	38718.04
547.08	38879.83
547.28	38716
547.48	38627.93
547.68	39111.25
547.88	39150.17
548.081	38734.43
548.281	38861.4
548.481	38523.49
548.681	39076.44
548.881	38496.86
549.081	38916.7
549.28	38652.51
549.48	38736.48
549.68	38873.69
549.88	39307.86
550.08	38441.57
550.28	38756.96
550.48	38431.33
550.68	38703.71
550.88	38261.35
551.08	38576.73
551.279	38918.74
551.479	38318.69
551.679	38406.75
551.879	38376.03
552.079	38963.8
552.278	38662.75
552.478	38519.39
552.678	38582.88
552.878	38949.46
553.077	38290.02
553.277	38505.06
553.477	38865.5
553.676	38591.07
553.876	38431.33
554.076	38167.14
554.275	38335.07
554.475	38021.73
554.674	38308.45
554.874	38355.55
555.074	38337.12
555.273	38482.53
555.473	38363.75
555.672	37993.06
555.872	38310.5
556.071	38265.44
556.271	38517.34
556.47	38285.92
556.67	37358.19
556.869	38019.69
557.068	37948.01
557.268	37765.74
557.467	37917.29
557.667	37716.59
557.866	37941.86
558.065	37673.58
558.265	37331.57
558.464	37325.43
558.663	37773.93
558.863	37278.32
559.062	37864.04
559.261	37001.85
559.461	37794.41
559.66	37376.62
559.859	37433.97
560.058	37126.77
560.258	37421.68
560.457	37180.02
560.656	37350
560.855	37046.9
561.054	37415.54
561.253	36924.02
561.453	37235.31
561.652	37436.02
561.851	37214.83
562.05	36698.75
562.249	36866.68
562.448	37253.75
562.647	36979.32
562.846	36760.19
563.045	36903.54
563.244	36278.91
563.443	37044.85
563.642	36369.02
563.841	36438.65
564.04	36391.55
564.239	36700.79
564.438	36209.28
564.637	36645.5
564.836	36508.29
565.035	36084.36
565.234	36436.61
565.432	35955.33
565.631	36074.12
565.83	36020.87
566.029	36055.68
566.228	36031.11
566.427	35693.19
566.625	35564.17
566.824	35336.85
567.023	35791.5
567.222	35353.23
567.42	35545.74
567.619	35402.38
567.818	35084.95
568.016	35539.6
568.215	35451.53
568.414	35043.99
568.612	35719.82
568.811	35416.72
569.01	35175.06
569.208	34935.45
569.407	35000.98
569.605	34843.29
569.804	35091.09
570.002	34380.45
570.201	34929.3
570.4	34749.08
570.598	34349.73
570.797	34259.62
570.995	34300.58
571.193	33737.38
571.392	34063.01
571.59	34149.03
571.789	33835.69
571.987	34101.92
572.186	33739.43
572.384	33921.7
572.582	33983.14
572.781	34157.22
572.979	33624.75
573.177	33731.24
573.376	33614.51
573.574	33518.25
573.772	33657.51
573.971	33213.1
574.169	33286.83
574.367	33125.04
574.565	33438.38
574.763	32991.92
574.962	32549.56
575.16	32445.12
575.358	32953.01
575.556	32533.18
575.754	33098.42
575.952	32725.69
576.151	32580.28
576.349	31890.12
576.547	32463.55
576.745	32479.93
576.943	31994.56
577.141	32078.53
577.339	32336.57
577.537	32115.39
577.735	31785.67
577.933	31699.65
578.131	32068.29
578.329	31802.05
578.527	31613.64
578.725	31720.13
578.923	31834.82
579.121	31505.1
579.319	31292.11
579.516	31392.46
579.714	31691.46
579.912	31265.49
580.11	31369.93
580.308	31040.21
580.506	30825.17
580.704	30587.61
580.901	31120.08
581.099	31062.74
581.297	30696.15
581.495	30325.47
581.692	31154.9
581.89	30431.96
582.088	30479.07
582.285	30405.34
582.483	30651.09
582.681	30083.81
582.878	30544.6
583.076	29657.83
583.274	30407.39
583.471	29655.78
583.669	30012.13
583.866	29379.31
584.064	29889.25
584.262	29375.21
584.459	29866.72
584.657	29291.24
584.854	29588.2
585.052	28984.05
585.249	29381.35
585.447	29426.41
585.644	28818.16
585.841	29244.14
586.039	29332.2
586.236	28619.51
586.434	28564.21
586.631	28467.96
586.828	28601.08
587.026	28576.5
587.223	28519.16
587.42	28642.04
587.618	28367.61
587.815	28191.48
588.012	28316.41
588.21	28420.86
588.407	28418.81
588.604	28078.85
588.801	27747.08
588.999	27835.14
589.196	27759.36
589.393	27824.9
589.59	27566.85
589.787	27505.41
589.984	27337.48
590.182	27044.62
590.379	27482.89
590.576	27167.5
590.773	27523.85
590.97	27368.2
591.167	27099.92
591.364	26563.35
591.561	27114.25
591.758	26723.09
591.955	26596.12
592.152	27095.82
592.349	26725.14
592.546	26575.64
592.743	26256.15
592.94	25953.05
593.137	26463
593.334	26362.65
593.531	26010.4
593.727	26155.8
593.924	25871.14
594.121	26155.8
594.318	25955.1
594.515	25504.55
594.712	25840.42
594.908	25307.94
595.105	25563.94
595.302	25400.1
595.499	25406.25
595.696	25402.15
595.892	25584.42
596.089	25092.91
596.286	25576.23
596.482	25174.83
596.679	24914.73
596.876	25193.26
597.072	24818.48
597.269	24998.7
597.466	24640.31
597.662	24470.33
597.859	24527.67
598.055	24408.89
598.252	24527.67
598.448	24527.67
598.645	24240.95
598.841	23929.66
599.038	24163.13
599.234	24234.81
599.431	24015.68
599.627	23694.15
599.824	24101.69
600.02	23987
600.217	24068.92
600.413	23432.01
600.609	23812.93
600.806	23735.1
601.002	23708.48
601.198	23483.2
601.395	23532.36
601.591	23343.94
601.787	23401.29
601.984	23186.25
602.18	23288.65
602.376	22864.72
602.572	23100.23
602.769	23266.12
602.965	22651.73
603.161	22842.19
603.357	22639.44
603.553	22713.17
603.75	22809.42
603.946	22467.41
604.142	22494.04
604.338	22258.52
604.534	22393.68
604.73	22059.87
604.926	22070.11
605.122	22594.39
605.318	22149.98
605.514	22086.49
605.71	21838.69
605.906	21924.7
606.102	21889.88
606.298	21908.32
606.494	21654.37
606.69	21713.76
606.886	21637.98
607.082	21109.61
607.278	21678.94
607.474	21220.2
607.67	21527.39
607.866	21134.18
608.062	21476.19
608.257	21474.15
608.453	21275.49
608.649	21386.08
608.845	21203.82
609.041	21013.35
609.236	21158.76
609.432	21093.22
609.628	20851.56
609.824	21039.98
610.019	20886.38
610.215	20824.94
610.411	20988.78
610.606	20728.69
610.802	20620.14
610.998	20642.67
611.193	20771.69
611.389	20503.41
611.584	20644.72
611.78	20427.63
611.976	20564.85
612.171	20540.27
612.367	20425.59
612.562	20497.27
612.758	20286.33
612.953	20069.24
613.149	20478.83
613.344	20034.42
613.539	20364.15
613.735	20226.93
613.93	20114.3
614.126	20149.11
614.321	20558.7
614.517	20218.74
614.712	20085.62
614.907	20001.66
615.103	19729.28
615.298	19737.47
615.493	19940.22
615.688	19393.41
615.884	20212.6
616.079	19387.27
616.274	19571.58
616.47	19727.23
616.665	19760
616.86	19579.78
617.055	19598.21
617.25	19319.68
617.445	19536.77
617.641	19084.17
617.836	19495.81
618.031	18758.54
618.226	19311.49
618.421	19051.4
618.616	19348.36
618.811	18834.32
619.006	19137.41
619.201	18654.09
619.396	18959.24
619.591	18344.85
619.786	18826.12
619.981	18437.01
620.176	18396.05
620.371	18602.89
620.566	18262.93
620.761	18162.58
620.956	18437.01
621.151	17996.7
621.346	18152.34
621.541	17941.4
621.735	18164.63
621.93	17890.2
622.125	17664.93
622.32	17470.37
622.515	17671.07
622.709	17384.35
622.904	17566.62
623.099	17269.67
623.294	17271.72
623.488	17064.87
623.683	17138.6
623.878	16909.22
624.072	16952.23
624.267	16870.31
624.462	16544.69
624.656	16374.7
624.851	16831.4
625.046	16362.42
625.24	16419.76
625.435	16071.61
625.629	16024.5
625.824	16106.42
626.018	16348.08
626.213	15678.4
626.407	16026.55
626.602	15629.24
626.796	15846.33
626.991	15453.12
627.185	15514.56
627.38	15481.79
627.574	15436.74
627.768	15309.76
627.963	15252.42
628.157	15117.25
628.352	14965.7
628.546	14810.06
628.74	15096.77
628.935	14943.17
629.129	15039.43
629.323	14724.04
629.517	14584.78
629.712	14797.77
629.906	14369.74
630.1	14250.96
630.294	14334.93
630.489	14392.27
630.683	14218.19
630.877	13972.44
631.071	13878.23
631.265	14246.87
631.459	13802.46
631.653	13855.7
631.848	13708.25
632.042	13624.28
632.236	13833.18
632.43	13419.49
632.624	13454.3
632.818	13450.21
633.012	13241.31
633.206	13231.07
633.4	13319.14
633.594	13040.61
633.788	13042.66
633.982	12897.25
634.176	13048.8
634.369	12852.2
634.563	12610.54
634.757	12776.42
634.951	12739.56
635.145	12985.32
635.339	12594.15
635.533	12354.54
635.726	12522.48
635.92	12397.55
636.114	12219.38
636.308	11957.24
636.501	12225.52
636.695	12231.66
636.889	12270.58
637.083	11828.21
637.276	11852.79
637.47	11822.07
637.664	11742.2
637.857	11893.75
638.051	11645.94
638.244	11664.38
638.438	11555.83
638.632	11535.35
638.825	11308.03
639.019	11578.36
639.212	11361.28
639.406	11355.13
639.599	11246.59
639.793	11373.57
639.986	10978.31
640.18	11101.19
640.373	10935.3
640.567	10857.48
640.76	10943.49
640.954	10931.2
641.147	10773.51
641.34	10613.77
641.534	10750.98
641.727	10581
641.92	10615.82
642.114	10394.64
642.307	10376.2
642.5	10423.31
642.694	10097.68
642.887	10189.84
643.08	10347.53
643.273	10083.34
643.467	10263.57
643.66	10107.92
643.853	9925.65
644.046	9866.26
644.239	9878.55
644.432	10003.47
644.626	9706.52
644.819	9698.33
645.012	9683.99
645.205	9813.01
645.398	9640.98
645.591	9559.06
645.784	9505.82
645.977	9233.44
646.17	9630.74
646.363	9313.31
646.556	9217.05
646.749	9190.43
646.942	9301.02
647.135	9174.05
647.328	9143.33
647.521	9350.17
647.714	8918.05
647.907	9085.98
648.099	8868.9
648.292	8829.99
648.485	8834.08
648.678	8748.07
648.871	8682.53
649.064	8582.18
649.256	8789.03
649.449	8567.85
649.642	8475.69
649.835	8281.13
650.027	8485.93
650.22	8434.73
650.413	8516.65
650.605	8471.59
650.798	8264.75
650.991	8234.03
651.183	8248.36
651.376	7932.98
651.568	8291.37
651.761	8143.92
651.954	8068.14
652.146	8199.21
652.339	7879.73
652.531	7863.35
652.724	7851.06
652.916	7676.98
653.109	7806
653.301	7810.1
653.494	7785.52
653.686	7607.35
653.879	7537.72
654.071	7707.7
654.263	7617.59
654.456	7568.44
654.648	7500.86
654.84	7504.95
655.033	7355.45
655.225	7398.46
655.417	7476.28
655.61	7412.79
655.802	7355.45
655.994	7257.15
656.186	7201.85
656.379	7087.17
656.571	7216.19
656.763	6937.66
656.955	7054.4
657.148	6964.29
657.34	6929.47
657.532	6888.51
657.724	6966.34
657.916	6839.36
658.108	6884.42
658.3	6849.6
658.492	6794.31
658.684	6655.05
658.876	6544.45
659.068	6757.44
659.26	6448.2
659.452	6640.71
659.644	6577.22
659.836	6470.73
660.028	6454.34
660.22	6304.84
660.412	6335.56
660.604	6290.51
660.796	6536.26
660.988	6239.31
661.18	6278.22
661.372	6128.72
661.563	6165.58
661.755	6224.97
661.947	6208.59
662.139	6188.11
662.331	5991.5
662.522	5977.17
662.714	6016.08
662.906	5925.97
663.097	6118.48
663.289	5950.54
663.481	5848.15
663.673	6024.27
663.864	5805.14
664.056	5942.35
664.247	5854.29
664.439	5710.93
664.631	5833.81
664.822	5555.29
665.014	5817.43
665.205	5624.92
665.397	5631.06
665.588	5661.78
665.78	5506.13
665.971	5692.5
666.163	5317.72
666.354	5594.2
666.546	5518.42
666.737	5626.96
666.929	5440.6
667.12	5446.74
667.311	5526.61
667.503	5358.68
667.694	5160.03
667.885	5262.43
668.077	5307.48
668.268	5209.18
668.459	5227.61
668.651	5160.03
668.842	5080.16
669.033	5102.68
669.224	5104.73
669.416	5301.34
669.607	4990.05
669.798	5035.1
669.989	5088.35
670.18	5059.68
670.371	5112.92
670.563	5110.88
670.754	5004.38
670.945	4990.05
671.136	4936.8
671.327	4955.23
671.518	4850.78
671.709	4901.98
671.9	4940.9
672.091	4922.46
672.282	4844.64
672.473	4858.98
672.664	4809.83
672.855	4758.63
673.046	4758.63
673.237	4758.63
673.428	4734.05
673.619	4635.75
673.809	4680.8
674	4768.87
674.191	4654.18
674.382	4584.55
674.573	4596.84
674.764	4566.12
674.954	4588.64
675.145	4455.53
675.336	4525.16
675.527	4670.56
675.717	4588.64
675.908	4471.91
676.099	4455.53
676.289	4570.21
676.48	4424.81
676.671	4310.12
676.861	4406.38
677.052	4371.56
677.243	4324.46
677.433	4344.94
677.624	4430.95
677.814	4426.86
678.005	4433
678.195	4439.14
678.386	4385.9
678.576	4332.65
678.767	4238.44
678.957	4326.5
679.148	4406.38
679.338	4318.31
679.529	4340.84
679.719	4275.31
679.909	4357.22
680.1	4267.11
680.29	4144.24
680.481	4088.94
680.671	4209.77
680.861	4039.79
681.052	4152.43
681.242	4154.48
681.432	4363.37
681.622	4121.71
681.813	4144.24
682.003	4068.46
682.193	4080.75
682.383	4078.7
682.573	4123.76
682.764	4146.28
682.954	4045.93
683.144	4144.24
683.334	4004.97
683.524	4031.6
683.714	4080.75
683.904	4129.9
684.094	4078.7
684.284	4004.97
684.474	3964.01
684.664	4029.55
684.854	4111.47
685.044	4146.28
685.234	3837.04
685.424	3918.96
685.614	3783.79
685.804	3839.09
685.994	3849.33
686.184	3882.1
686.374	3822.7
686.564	3757.17
686.753	3804.27
686.943	3802.22
687.133	3771.51
687.323	3882.1
687.513	3966.06
687.702	3800.18
687.892	3843.18
688.082	3720.31
688.272	3722.35
688.461	3699.83
688.651	3730.55
688.841	3701.87
689.03	3767.41
689.22	3562.61
689.41	3611.76
689.599	3558.52
689.789	3507.32
689.979	3603.57
690.168	3511.41
690.358	3421.3
690.547	3433.59
690.737	3540.08
690.926	3374.2
691.116	3234.94
691.305	3558.52
691.495	3415.16
691.684	3445.88
691.874	3345.53
692.063	3421.3
692.252	3300.47
692.442	3298.42
692.631	3366.01
692.82	3456.12
693.01	3222.65
693.199	3273.85
693.388	3263.61
693.578	3300.47
693.767	3263.61
693.956	3261.56
694.146	3193.98
694.335	3173.5
694.524	3236.99
694.713	3128.44
694.902	3175.55
695.092	3148.92
695.281	3103.87
695.47	3126.39
695.659	3030.14
695.848	3069.05
696.037	3095.68
696.226	3093.63
696.415	3091.58
696.604	3243.13
696.793	3073.15
696.982	2935.93
697.171	3136.63
697.36	2950.27
697.549	3062.91
697.738	3114.11
697.927	3046.52
698.116	3052.67
698.305	3024
698.494	2899.07
698.683	2974.85
698.872	3120.25
699.061	3038.33
699.25	3009.66
699.438	3011.71
699.627	3048.57
699.816	3005.56
700.005	2917.5
700.193	2960.51
700.382	3038.33
700.571	3017.85
700.76	2917.5
700.948	2950.27
701.137	2944.13
701.326	2917.5
701.514	2903.17
701.703	2849.92
701.892	2946.17
702.08	2894.97
702.269	2907.26
702.457	2778.24
702.646	2845.82
702.834	2780.29
703.023	2843.78
703.212	2856.06
703.4	2843.78
703.589	2849.92
703.777	2872.45
703.965	2808.96
704.154	2811.01
704.342	2886.78
704.531	2792.58
704.719	2782.34
704.907	2888.83
705.096	2847.87
705.284	2776.19
705.472	2835.58
705.661	2786.43
705.849	2851.97
706.037	2786.43
706.226	2778.24
706.414	2870.4
706.602	2632.83
706.79	2761.86
706.979	2655.36
707.167	2720.9
707.355	2612.35
707.543	2907.26
707.731	2874.49
707.919	2630.79
708.107	2614.4
708.296	2688.13
708.484	2702.47
708.672	2768
708.86	2702.47
709.048	2698.37
709.236	2694.27
709.424	2770.05
709.612	2770.05
709.8	2688.13
709.988	2718.85
710.176	2708.61
710.364	2770.05
710.551	2526.34
710.739	2688.13
710.927	2638.98
711.115	2663.55
711.303	2653.31
711.491	2487.43
711.679	2540.68
711.866	2696.32
712.054	2700.42
712.242	2630.79
712.43	2720.9
712.617	2552.96
712.805	2653.31
712.993	2626.69
713.181	2681.99
713.368	2663.55
713.556	2622.59
713.744	2464.9
713.931	2727.04
714.119	2622.59
714.306	2583.68
714.494	2649.22
714.682	2585.73
714.869	2522.24
715.057	2630.79
715.244	2509.96
715.432	2567.3
715.619	2483.33
715.807	2647.17
715.994	2616.45
716.182	2489.48
716.369	2548.87
716.556	2784.38
716.744	2647.17
716.931	2569.35
717.119	2475.14
717.306	2501.76
717.493	2534.53
717.681	2530.44
717.868	2591.88
718.055	2540.68
718.242	2544.77
718.43	2501.76
718.617	2497.67
718.804	2514.05
718.991	2473.09
719.179	2475.14
719.366	2450.57
719.553	2520.2
719.74	2491.52
719.927	2589.83
720.114	2548.87
720.301	2333.83
720.488	2464.9
720.676	2569.35
720.863	2501.76
721.05	2647.17
721.237	2423.94
721.424	2534.53
721.611	2546.82
721.798	2366.6
721.985	2528.39
722.172	2428.04
722.358	2507.91
722.545	2452.61
722.732	2352.26
722.919	2464.9
723.106	2507.91
723.293	2444.42
723.48	2532.48
723.667	2415.75
723.853	2362.5
724.04	2440.33
724.227	2460.81
724.414	2430.09
724.6	2360.45
724.787	2391.17
724.974	2417.8
725.161	2391.17
725.347	2505.86
725.534	2409.61
725.72	2489.48
725.907	2522.24
726.094	2417.8
726.28	2319.5
726.467	2387.08
726.653	2368.65
726.84	2473.09
727.027	2436.23
727.213	2385.03
727.4	2403.46
727.586	2280.58
727.773	2405.51
727.959	2354.31
728.145	2376.84
728.332	2450.57
728.518	2374.79
728.705	2460.81
728.891	2516.1
729.077	2407.56
729.264	2364.55
729.45	2403.46
729.636	2354.31
729.823	2387.08
730.009	2264.2
730.195	2514.05
730.382	2425.99
730.568	2237.58
730.754	2458.76
730.94	2389.13
731.126	2382.98
731.313	2358.41
731.499	2335.88
731.685	2421.89
731.871	2442.37
732.057	2317.45
732.243	2356.36
732.429	2471.04
732.615	2391.17
732.801	2288.78
732.987	2403.46
733.173	2419.85
733.359	2237.58
733.545	2311.3
733.731	2360.45
733.917	2327.69
734.103	2284.68
734.289	2374.79
734.475	2286.73
734.661	2288.78
734.847	2382.98
735.033	2243.72
735.219	2268.3
735.404	2348.17
735.59	2239.62
735.776	2262.15
735.962	2348.17
736.148	2374.79
736.333	2311.3
736.519	2266.25
736.705	2235.53
736.89	2368.65
737.076	2317.45
737.262	2200.71
737.447	2303.11
737.633	2147.47
737.819	2235.53
738.004	2385.03
738.19	2292.87
738.375	2219.14
738.561	2272.39
738.747	2299.02
738.932	2178.19
739.118	2307.21
739.303	2247.82
739.489	2243.72
739.674	2266.25
739.859	2221.19
740.045	2274.44
740.23	2108.55
740.416	2180.23
740.601	2258.06
740.786	2172.04
740.972	2079.88
741.157	2174.09
741.342	2106.51
741.528	2120.84
741.713	2182.28
741.898	2186.38
742.084	2151.56
742.269	2034.83
742.454	2014.35
742.639	2219.14
742.824	2071.69
743.01	2145.42
743.195	2227.34
743.38	1993.87
743.565	2006.16
743.75	2090.12
743.935	2065.55
744.12	2018.44
744.305	1981.58
744.49	1997.96
744.675	1993.87
744.86	1948.81
745.045	2010.25
745.23	2059.4
745.415	1981.58
745.6	2038.92
745.785	1895.57
745.97	1989.77
746.155	1932.43
746.34	1916.05
746.525	1891.47
746.71	1959.05
746.895	1891.47
747.079	1928.33
747.264	1870.99
747.449	1842.32
747.634	1899.66
747.819	1948.81
748.003	1776.78
748.188	1821.84
748.373	1809.55
748.557	1795.22
748.742	1868.94
748.927	1827.98
749.111	1889.42
749.296	1670.29
749.481	1758.35
749.665	1772.69
749.85	1715.34
750.034	1803.41
750.219	1703.06
750.404	1737.87
750.588	1645.71
750.773	1631.38
750.957	1744.02
751.141	1629.33
751.326	1653.91
751.51	1631.38
751.695	1658
751.879	1563.79
752.064	1500.31
752.248	1555.6
752.432	1604.75
752.617	1502.36
752.801	1547.41
752.985	1588.37
753.17	1645.71
753.354	1504.4
753.538	1410.2
753.722	1502.36
753.907	1383.57
754.091	1543.32
754.275	1477.78
754.459	1473.68
754.643	1373.33
754.828	1451.16
755.012	1451.16
755.196	1418.39
755.38	1492.12
755.564	1330.33
755.748	1350.81
755.932	1379.48
756.116	1440.92
756.3	1359
756.484	1328.28
756.668	1244.31
756.852	1387.67
757.036	1277.08
757.22	1256.6
757.404	1289.37
757.588	1221.78
757.772	1229.98
757.956	1260.7
758.14	1309.85
758.323	1266.84
758.507	1297.56
758.691	1279.13
758.875	1223.83
759.059	1189.02
759.242	1141.91
759.426	1154.2
759.61	1223.83
759.794	1148.06
759.977	1129.63
760.161	1238.17
760.345	1205.4
760.528	1072.28
760.712	1057.95
760.895	1141.91
761.079	1135.77
761.263	1137.82
761.446	1158.3
761.63	1041.56
761.813	1043.61
761.997	1006.75
762.18	1029.27
762.364	1031.32
762.547	1045.66
762.731	1150.11
762.914	1049.75
763.098	1049.75
763.281	1031.32
763.464	1084.57
763.648	1080.47
763.831	924.83
764.015	986.27
764.198	1047.71
764.381	1019.04
764.564	1064.09
764.748	947.36
764.931	937.12
765.114	926.88
765.297	875.68
765.481	1014.94
765.664	1045.66
765.847	965.79
766.03	1064.09
766.213	1002.65
766.397	1029.27
766.58	955.55
766.763	935.07
766.946	890.01
767.129	949.4
767.312	994.46
767.495	851.1
767.678	892.06
767.861	941.21
768.044	933.02
768.227	875.68
768.41	941.21
768.593	949.4
768.776	924.83
768.959	900.25
769.142	990.36
769.324	965.79
769.507	885.92
769.69	830.62
769.873	926.88
770.056	887.97
770.239	906.4
770.421	894.11
770.604	883.87
770.787	828.57
770.97	830.62
771.152	818.33
771.335	861.34
771.518	785.57
771.7	855.2
771.883	806.05
772.066	838.81
772.248	838.81
772.431	851.1
772.613	838.81
772.796	724.13
772.978	787.61
773.161	851.1
773.343	793.76
773.526	799.9
773.708	818.33
773.891	793.76
774.073	746.66
774.256	793.76
774.438	738.46
774.621	699.55
774.803	834.72
774.985	767.13
775.168	734.37
775.35	765.09
775.532	699.55
775.715	687.26
775.897	748.7
776.079	674.98
776.261	668.83
776.444	679.07
776.626	615.59
776.808	693.41
776.99	705.7
777.173	674.98
777.355	646.3
777.537	658.59
777.719	681.12
777.901	691.36
778.083	631.97
778.265	609.44
778.447	629.92
778.629	650.4
778.811	588.96
778.993	566.43
779.175	599.2
779.357	654.5
779.539	588.96
779.721	636.06
779.903	591.01
780.085	580.77
780.267	539.81
780.449	539.81
780.631	582.82
780.812	539.81
780.994	591.01
781.176	593.06
781.358	621.73
781.54	507.04
781.721	588.96
781.903	601.25
782.085	507.04
782.267	535.71
782.448	558.24
782.63	511.14
782.812	511.14
782.993	472.23
783.175	515.23
783.357	459.94
783.538	494.76
783.72	523.43
783.901	509.09
784.083	414.88
784.264	572.58
784.446	384.16
784.627	502.95
784.809	451.75
784.99	461.99
785.172	492.71
785.353	482.47
785.535	427.17
785.716	449.7
785.897	423.08
786.079	484.52
786.26	416.93
786.441	490.66
786.623	429.22
786.804	380.07
786.985	425.12
787.167	480.42
787.348	337.06
787.529	480.42
787.71	459.94
787.891	441.51
788.073	302.25
788.254	433.32
788.435	396.45
788.616	371.88
788.797	390.31
788.978	343.21
789.159	355.49
789.34	433.32
789.522	435.36
789.703	357.54
789.884	326.82
790.065	384.16
790.246	361.64
790.427	402.6
790.607	324.77
790.788	373.92
790.969	345.25
791.15	343.21
791.331	335.01
791.512	402.6
791.693	349.35
791.874	312.49
792.054	414.88
792.235	349.35
792.416	310.44
792.597	294.05
792.778	298.15
792.958	302.25
793.139	316.58
793.32	294.05
793.5	304.29
793.681	359.59
793.862	267.43
794.042	355.49
794.223	222.38
794.404	314.53
794.584	289.96
794.765	314.53
794.945	244.9
795.126	263.33
795.306	212.14
795.487	355.49
795.667	275.62
795.848	400.55
796.028	271.53
796.209	294.05
796.389	269.48
796.57	269.48
796.75	269.48
796.93	314.53
797.111	199.85
797.291	275.62
797.471	314.53
797.652	216.23
797.832	222.38
798.012	312.49
798.192	304.29
798.373	253.09
798.553	234.66
798.733	285.86
798.913	224.42
799.093	283.81
799.274	249
799.454	244.9
799.634	187.56
799.814	330.92
799.994	261.29
800.174	238.76
800.354	236.71
800.534	144.55
800.714	261.29
800.894	199.85
801.074	232.62
801.254	281.77
801.434	312.49
801.614	228.52
801.794	126.12
801.974	834.72
802.154	167.08
802.334	267.43
802.514	261.29
802.693	218.28
802.873	162.98
803.053	271.53
803.233	197.8
803.413	214.18
803.592	124.07
803.772	177.32
803.952	191.66
804.131	232.62
804.311	199.85
804.491	212.14
804.67	150.7
804.85	150.7
805.03	177.32
805.209	216.23
805.389	150.7
805.568	148.65
805.748	128.17
805.928	246.95
806.107	148.65
806.287	189.61
806.466	187.56
806.646	208.04
806.825	292.01
807.004	199.85
807.184	105.64
807.363	181.42
807.543	187.56
807.722	169.13
807.901	189.61
808.081	183.46
808.26	158.89
808.439	199.85
808.619	150.7
808.798	191.66
808.977	234.66
809.156	195.75
809.336	113.83
809.515	173.22
809.694	97.45
809.873	81.07
810.052	203.94
810.231	171.18
810.411	122.02
810.59	148.65
810.769	175.27
810.948	191.66
811.127	54.44
811.306	113.83
811.485	165.03
811.664	175.27
811.843	191.66
812.022	97.45
812.201	156.84
812.38	191.66
812.559	117.93
812.737	171.18
812.916	208.04
813.095	162.98
813.274	113.83
813.453	138.41
813.632	148.65
813.811	265.38
813.989	115.88
814.168	173.22
814.347	101.55
814.526	197.8
814.704	132.26
814.883	195.75
815.062	171.18
815.24	224.42
815.419	148.65
815.598	130.22
815.776	113.83
815.955	171.18
816.133	101.55
816.312	177.32
816.49	160.94
816.669	117.93
816.847	158.89
817.026	105.64
817.204	187.56
817.383	89.26
817.561	89.26
817.74	117.93
817.918	87.21
818.097	107.69
818.275	68.78
818.453	146.6
818.632	76.97
818.81	154.79
818.988	122.02
819.167	93.35
819.345	185.51
819.523	64.68
819.701	138.41
819.879	171.18
820.058	48.3
820.236	122.02
820.414	160.94
820.592	64.68
820.77	152.74
820.948	154.79
821.127	93.35
821.305	136.36
821.483	119.98
821.661	150.7
821.839	89.26
822.017	148.65
822.195	167.08
822.373	165.03
822.551	115.88
822.729	134.31
822.907	99.5
823.085	156.84
823.262	130.22
823.44	87.21
823.618	124.07
823.796	154.79
823.974	64.68
824.152	91.31
824.329	136.36
824.507	74.92
824.685	64.68
824.863	-0.85
825.04	74.92
825.218	81.07
825.396	25.77
825.574	72.87
825.751	25.77
825.929	171.18
826.107	52.39
826.284	103.59
826.462	76.97
826.639	117.93
826.817	31.91
826.994	74.92
827.172	117.93
827.349	179.37
827.527	70.83
827.704	103.59
827.882	109.74
828.059	60.59
828.237	50.35
828.414	42.15
828.591	115.88
828.769	134.31
828.946	79.02
829.124	122.02
829.301	81.07
829.478	54.44
829.655	81.07
829.833	72.87
830.01	31.91
830.187	105.64
830.364	99.5
830.542	126.12
830.719	101.55
830.896	132.26
831.073	85.16
831.25	89.26
831.427	97.45
831.604	72.87
831.782	25.77
831.959	93.35
832.136	83.11
832.313	109.74
832.49	85.16
832.667	81.07
832.844	105.64
833.021	134.31
833.198	99.5
833.374	66.73
833.551	81.07
833.728	31.91
833.905	91.31
834.082	-0.85
834.259	111.78
834.436	126.12
834.612	68.78
834.789	87.21
834.966	74.92
835.143	62.63
835.319	7.34
835.496	23.72
835.673	1.19
835.85	60.59
836.026	97.45
836.203	60.59
836.38	103.59
836.556	111.78
836.733	36.01
836.909	109.74
837.086	50.35
837.262	1.19
837.439	-11.09
837.616	56.49
837.792	7.34
837.968	89.26
838.145	42.15
838.321	36.01
838.498	95.4
838.674	-31.57
838.851	40.11
839.027	85.16
839.203	109.74
839.38	83.11
839.556	19.63
839.732	66.73
839.909	19.63
840.085	46.25
840.261	48.3
840.437	79.02
840.614	81.07
840.79	56.49
840.966	107.69
841.142	101.55
841.318	64.68
841.494	42.15
841.671	62.63
841.847	56.49
842.023	99.5
842.199	48.3
842.375	48.3
842.551	97.45
842.727	-47.96
842.903	-17.24
843.079	-9.05
843.255	136.36
843.431	27.82
843.607	-0.85
843.783	-68.44
843.959	107.69
844.134	154.79
844.31	56.49
844.486	72.87
844.662	46.25
844.838	56.49
845.013	-29.52
845.189	40.11
845.365	79.02
845.541	52.39
845.716	60.59
845.892	56.49
846.068	-27.48
846.244	-9.05
846.419	56.49
846.595	9.39
846.77	13.48
846.946	38.06
847.122	72.87
847.297	3.24
847.473	40.11
847.648	42.15
847.824	58.54
847.999	-17.24
848.175	66.73
848.35	9.39
848.526	140.46
848.701	40.11
848.876	48.3
849.052	60.59
849.227	-4.95
849.403	11.43
849.578	72.87
849.753	87.21
849.929	52.39
850.104	56.49
850.279	54.44
850.454	-17.24
850.63	23.72
850.805	-33.62
850.98	40.11
851.155	81.07
851.33	42.15
851.505	-58.2
851.681	74.92
851.856	-9.05
852.031	85.16
852.206	50.35
852.381	25.77
852.556	1.19
852.731	66.73
852.906	54.44
853.081	23.72
853.256	-25.43
853.431	66.73
853.606	-0.85
853.781	-15.19
853.956	25.77
854.131	97.45
854.305	-58.2
854.48	9.39
854.655	3.24
854.83	-17.24
855.005	-80.72
855.18	-4.95
855.354	-27.48
855.529	38.06
855.704	13.48
855.879	64.68
856.053	-33.62
856.228	23.72
856.403	-56.15
856.577	23.72
856.752	3.24
856.926	56.49
857.101	44.2
857.276	68.78
857.45	23.72
857.625	113.83
857.799	79.02
857.974	15.53
858.148	7.34
858.323	56.49
858.497	-21.33
858.672	42.15
858.846	-58.2
859.02	38.06
859.195	-15.19
859.369	52.39
859.543	21.67
859.718	42.15
859.892	25.77
860.066	-0.85
860.241	44.2
860.415	74.92
860.589	13.48
860.763	9.39
860.938	-11.09
861.112	87.21
861.286	-13.14
861.46	23.72
861.634	-7
861.808	40.11
861.982	64.68
862.157	-0.85
862.331	3.24
862.505	40.11
862.679	3.24
862.853	40.11
863.027	48.3
863.201	48.3
863.375	-31.57
863.549	23.72
863.722	64.68
863.896	25.77
864.07	70.83
864.244	89.26
864.418	46.25
864.592	81.07
864.766	-4.95
864.939	66.73
865.113	44.2
865.287	64.68
865.461	31.91
865.634	1.19
865.808	-9.05
865.982	64.68
866.156	23.72
866.329	15.53
866.503	107.69
866.676	-29.52
866.85	17.58
867.024	-39.76
867.197	72.87
867.371	48.3
867.544	-7
867.718	-45.91
867.891	25.77
868.065	50.35
868.238	-25.43
868.412	113.83
868.585	27.82
868.759	-25.43
868.932	-25.43
869.105	11.43
869.279	60.59
869.452	-25.43
869.625	1.19
869.799	5.29
869.972	56.49
870.145	1.19
870.319	21.67
870.492	27.82
870.665	31.91
870.838	-50
871.011	-17.24
871.185	-29.52
871.358	-25.43
871.531	1.19
871.704	1.19
871.877	-19.29
872.05	-29.52
872.223	48.3
872.396	-11.09
872.569	-21.33
872.742	15.53
872.915	50.35
873.088	52.39
873.261	-54.1
873.434	40.11
873.607	74.92
873.78	52.39
873.953	23.72
874.126	58.54
874.299	85.16
874.471	56.49
874.644	15.53
874.817	23.72
874.99	91.31
875.163	33.96
875.335	76.97
875.508	50.35
875.681	64.68
875.853	-21.33
876.026	31.91
876.199	27.82
876.371	31.91
876.544	5.29
876.717	-41.81
876.889	19.63
877.062	23.72
877.234	-7
877.407	23.72
877.579	-29.52
877.752	54.44
877.924	-7
878.097	52.39
878.269	5.29
878.442	64.68
878.614	1.19
878.786	7.34
878.959	7.34
879.131	-21.33
879.303	-50
879.476	27.82
879.648	25.77
879.82	25.77
879.993	-25.43
880.165	42.15
880.337	58.54
880.509	15.53
880.681	-66.39
880.854	7.34
881.026	13.48
881.198	54.44
881.37	-45.91
881.542	-7
881.714	-0.85
881.886	83.11
882.058	42.15
882.23	-4.95
882.402	23.72
882.574	31.91
882.746	56.49
882.918	38.06
883.09	44.2
883.262	58.54
883.434	-7
883.606	-41.81
883.778	-41.81
883.95	25.77
884.122	-17.24
884.293	83.11
884.465	-13.14
884.637	44.2
884.809	-35.67
884.98	64.68
885.152	23.72
885.324	36.01
885.496	-115.54
885.667	23.72
885.839	-99.16
886.011	25.77
886.182	13.48
886.354	29.87
886.525	-56.15
886.697	27.82
886.869	56.49
887.04	-7
887.212	31.91
887.383	48.3
887.555	40.11
887.726	-19.29
887.897	64.68
888.069	-70.48
888.24	-13.14
888.412	-7
888.583	13.48
888.754	17.58
888.926	-17.24
889.097	-31.57
889.268	-33.62
889.44	-19.29
889.611	-70.48
889.782	-17.24
889.953	-33.62
890.125	11.43
890.296	-17.24
890.467	5.29
890.638	33.96
890.809	33.96
890.98	-11.09
891.151	-90.96
891.323	40.11
891.494	7.34
891.665	-33.62
891.836	-93.01
892.007	-17.24
892.178	-17.24
892.349	-9.05
892.52	-13.14
892.691	25.77
892.862	-39.76
893.032	79.02
893.203	-45.91
893.374	-7
893.545	31.91
893.716	-29.52
893.887	52.39
894.057	1.19
894.228	-11.09
894.399	52.39
894.57	7.34
894.74	21.67
894.911	-25.43
895.082	-33.62
895.253	17.58
895.423	36.01
895.594	7.34
895.764	36.01
895.935	-19.29
896.106	56.49
896.276	11.43
896.447	-64.34
896.617	-23.38
896.788	-66.39
896.958	-17.24
897.129	36.01
897.299	58.54
897.47	-2.9
897.64	-9.05
897.81	46.25
897.981	-31.57
898.151	5.29
898.322	25.77
898.492	-127.83
898.662	-4.95
898.832	-2.9
899.003	74.92
899.173	105.64
899.343	-15.19
899.513	7.34
