Data from USB4F104151__26__14-16-26-473.txt Node

Date: Thu Mar 13 14:16:26 EDT 2025
User: louis
Spectrometer: USB4F10415
Trigger mode: 4
Integration Time (sec): 2.000000E-2
Scans to average: 1
Electric dark correction enabled: true
Nonlinearity correction enabled: false
Boxcar width: 0
XAxis mode: Wavelengths
Number of Pixels in Spectrum: 3648
>>>>>Begin Spectral Data<<<<<
178.204	-87.55
178.424	-87.55
178.644	-87.55
178.864	-103.93
179.084	-120.32
179.304	-44.54
179.524	18.94
179.744	4.61
179.964	-19.97
180.184	-38.4
180.404	37.38
180.624	47.62
180.844	-28.16
181.064	-1.54
181.283	31.23
181.503	-1.54
181.723	-5.63
181.943	2.56
182.163	76.29
182.383	59.9
182.602	84.48
182.822	82.43
183.042	96.77
183.262	68.09
183.482	86.53
183.701	45.57
183.921	59.9
184.141	10.75
184.361	35.33
184.58	70.14
184.8	61.95
185.02	0.51
185.239	131.58
185.459	-13.82
185.679	64
185.898	-9.73
186.118	23.04
186.338	53.76
186.557	133.63
186.777	-11.78
186.997	68.09
187.216	39.42
187.436	123.39
187.655	45.57
187.875	-1.54
188.095	-1.54
188.314	76.29
188.534	96.77
188.753	-30.21
188.973	92.67
189.192	-19.97
189.412	102.91
189.631	35.33
189.851	43.52
190.07	59.9
190.29	-46.59
190.509	59.9
190.729	80.38
190.948	35.33
191.168	92.67
191.387	92.67
191.607	10.75
191.826	68.09
192.045	35.33
192.265	16.9
192.484	39.42
192.704	55.81
192.923	29.18
193.142	66.05
193.362	94.72
193.581	125.44
193.8	2.56
194.02	59.9
194.239	53.76
194.458	55.81
194.678	82.43
194.897	59.9
195.116	2.56
195.335	16.9
195.555	84.48
195.774	39.42
195.993	51.71
196.212	64
196.432	-22.02
196.651	68.09
196.87	2.56
197.089	43.52
197.308	70.14
197.528	35.33
197.747	14.85
197.966	47.62
198.185	133.63
198.404	-38.4
198.623	64
198.842	18.94
199.062	61.95
199.281	84.48
199.5	129.53
199.719	10.75
199.938	76.29
200.157	68.09
200.376	45.57
200.595	20.99
200.814	47.62
201.033	18.94
201.252	64
201.471	35.33
201.69	74.24
201.909	12.8
202.128	68.09
202.347	74.24
202.566	27.14
202.785	-19.97
203.004	84.48
203.223	117.25
203.442	92.67
203.661	35.33
203.879	2.56
204.098	86.53
204.317	94.72
204.536	51.71
204.755	20.99
204.974	29.18
205.193	80.38
205.411	109.05
205.63	-9.73
205.849	68.09
206.068	4.61
206.287	-13.82
206.505	102.91
206.724	61.95
206.943	-3.58
207.162	41.47
207.381	125.44
207.599	35.33
207.818	86.53
208.037	59.9
208.255	-1.54
208.474	37.38
208.693	20.99
208.911	41.47
209.13	133.63
209.349	184.83
209.567	100.86
209.786	84.48
210.005	33.28
210.223	80.38
210.442	59.9
210.661	39.42
210.879	43.52
211.098	66.05
211.316	59.9
211.535	78.33
211.753	43.52
211.972	92.67
212.191	-24.06
212.409	86.53
212.628	94.72
212.846	45.57
213.065	31.23
213.283	135.68
213.502	2.56
213.72	125.44
213.938	51.71
214.157	-5.63
214.375	53.76
214.594	94.72
214.812	27.14
215.031	10.75
215.249	20.99
215.467	6.66
215.686	43.52
215.904	107.01
216.122	23.04
216.341	-1.54
216.559	100.86
216.778	-13.82
216.996	35.33
217.214	51.71
217.432	150.01
217.651	-19.97
217.869	64
218.087	0.51
218.306	-9.73
218.524	35.33
218.742	-101.89
218.96	90.62
219.179	78.33
219.397	68.09
219.615	141.82
219.833	23.04
220.051	16.9
220.27	51.71
220.488	29.18
220.706	43.52
220.924	115.2
221.142	-42.5
221.36	18.94
221.578	111.1
221.796	51.71
222.015	57.86
222.233	68.09
222.451	94.72
222.669	-13.82
222.887	55.81
223.105	39.42
223.323	70.14
223.541	-34.3
223.759	18.94
223.977	45.57
224.195	23.04
224.413	80.38
224.631	80.38
224.849	45.57
225.067	104.96
225.285	43.52
225.503	43.52
225.721	29.18
225.939	76.29
226.157	31.23
226.375	92.67
226.592	61.95
226.81	18.94
227.028	37.38
227.246	133.63
227.464	51.71
227.682	84.48
227.9	68.09
228.117	35.33
228.335	68.09
228.553	43.52
228.771	98.81
228.989	57.86
229.206	47.62
229.424	51.71
229.642	8.7
229.86	6.66
230.077	160.25
230.295	-54.78
230.513	53.76
230.731	139.77
230.948	39.42
231.166	100.86
231.384	61.95
231.601	35.33
231.819	166.4
232.037	68.09
232.254	76.29
232.472	20.99
232.689	-79.36
232.907	16.9
233.125	51.71
233.342	-3.58
233.56	20.99
233.777	143.87
233.995	64
234.213	86.53
234.43	154.11
234.648	51.71
234.865	68.09
235.083	98.81
235.3	20.99
235.518	49.66
235.735	27.14
235.953	117.25
236.17	64
236.388	4.61
236.605	10.75
236.822	6.66
237.04	68.09
237.257	43.52
237.475	68.09
237.692	80.38
237.909	31.23
238.127	10.75
238.344	20.99
238.562	104.96
238.779	37.38
238.996	18.94
239.214	33.28
239.431	88.57
239.648	37.38
239.865	51.71
240.083	45.57
240.3	12.8
240.517	-5.63
240.735	68.09
240.952	20.99
241.169	102.91
241.386	55.81
241.603	25.09
241.821	49.66
242.038	59.9
242.255	10.75
242.472	55.81
242.689	37.38
242.907	119.29
243.124	64
243.341	102.91
243.558	49.66
243.775	94.72
243.992	10.75
244.209	102.91
244.426	145.92
244.643	100.86
244.86	18.94
245.078	129.53
245.295	86.53
245.512	68.09
245.729	20.99
245.946	51.71
246.163	14.85
246.38	76.29
246.597	49.66
246.814	33.28
247.031	51.71
247.248	90.62
247.464	4.61
247.681	51.71
247.898	86.53
248.115	18.94
248.332	45.57
248.549	20.99
248.766	107.01
248.983	-9.73
249.2	68.09
249.417	80.38
249.633	18.94
249.85	68.09
250.067	55.81
250.284	6.66
250.501	18.94
250.717	6.66
250.934	12.8
251.151	4.61
251.368	76.29
251.585	70.14
251.801	53.76
252.018	72.19
252.235	31.23
252.451	72.19
252.668	12.8
252.885	43.52
253.102	78.33
253.318	37.38
253.535	35.33
253.752	59.9
253.968	18.94
254.185	86.53
254.401	27.14
254.618	18.94
254.835	92.67
255.051	64
255.268	43.52
255.484	57.86
255.701	35.33
255.917	47.62
256.134	12.8
256.351	102.91
256.567	2.56
256.784	49.66
257	-9.73
257.217	51.71
257.433	-13.82
257.65	78.33
257.866	94.72
258.082	53.76
258.299	-22.02
258.515	43.52
258.732	39.42
258.948	-1.54
259.165	111.1
259.381	-1.54
259.597	59.9
259.814	57.86
260.03	-11.78
260.246	39.42
260.463	12.8
260.679	41.47
260.895	109.05
261.112	94.72
261.328	59.9
261.544	6.66
261.761	51.71
261.977	109.05
262.193	27.14
262.409	61.95
262.626	121.34
262.842	20.99
263.058	18.94
263.274	102.91
263.49	33.28
263.707	92.67
263.923	-11.78
264.139	31.23
264.355	76.29
264.571	102.91
264.787	8.7
265.004	84.48
265.22	68.09
265.436	86.53
265.652	27.14
265.868	53.76
266.084	35.33
266.3	92.67
266.516	-3.58
266.732	66.05
266.948	111.1
267.164	57.86
267.38	61.95
267.596	123.39
267.812	117.25
268.028	133.63
268.244	-38.4
268.46	8.7
268.676	2.56
268.892	100.86
269.108	49.66
269.324	27.14
269.54	-3.58
269.756	61.95
269.972	51.71
270.188	66.05
270.403	20.99
270.619	43.52
270.835	0.51
271.051	94.72
271.267	51.71
271.483	43.52
271.698	86.53
271.914	39.42
272.13	76.29
272.346	45.57
272.562	27.14
272.777	129.53
272.993	92.67
273.209	29.18
273.425	78.33
273.64	-3.58
273.856	78.33
274.072	68.09
274.287	-1.54
274.503	76.29
274.719	53.76
274.934	64
275.15	33.28
275.366	135.68
275.581	64
275.797	68.09
276.012	82.43
276.228	43.52
276.444	37.38
276.659	121.34
276.875	39.42
277.09	37.38
277.306	23.04
277.521	20.99
277.737	27.14
277.952	152.06
278.168	29.18
278.383	102.91
278.599	-1.54
278.814	49.66
279.03	86.53
279.245	39.42
279.461	104.96
279.676	80.38
279.892	10.75
280.107	43.52
280.322	-5.63
280.538	-9.73
280.753	12.8
280.969	59.9
281.184	61.95
281.399	33.28
281.615	43.52
281.83	80.38
282.045	29.18
282.26	82.43
282.476	10.75
282.691	35.33
282.906	64
283.122	20.99
283.337	-42.5
283.552	53.76
283.767	61.95
283.983	72.19
284.198	43.52
284.413	35.33
284.628	27.14
284.843	78.33
285.058	51.71
285.274	43.52
285.489	10.75
285.704	25.09
285.919	117.25
286.134	20.99
286.349	6.66
286.564	49.66
286.779	49.66
286.995	37.38
287.21	45.57
287.425	117.25
287.64	27.14
287.855	64
288.07	29.18
288.285	78.33
288.5	86.53
288.715	123.39
288.93	29.18
289.145	6.66
289.36	96.77
289.575	45.57
289.79	47.62
290.004	64
290.219	35.33
290.434	68.09
290.649	68.09
290.864	111.1
291.079	10.75
291.294	27.14
291.509	-9.73
291.724	102.91
291.938	59.9
292.153	14.85
292.368	55.81
292.583	55.81
292.798	23.04
293.012	31.23
293.227	43.52
293.442	123.39
293.657	84.48
293.871	43.52
294.086	37.38
294.301	53.76
294.516	47.62
294.73	109.05
294.945	51.71
295.16	27.14
295.374	92.67
295.589	37.38
295.804	41.47
296.018	-13.82
296.233	117.25
296.447	51.71
296.662	-3.58
296.877	86.53
297.091	51.71
297.306	68.09
297.52	57.86
297.735	92.67
297.949	51.71
298.164	37.38
298.378	72.19
298.593	29.18
298.807	2.56
299.022	64
299.236	86.53
299.451	43.52
299.665	29.18
299.88	82.43
300.094	57.86
300.309	59.9
300.523	100.86
300.737	78.33
300.952	51.71
301.166	125.44
301.381	92.67
301.595	64
301.809	-28.16
302.024	35.33
302.238	23.04
302.452	45.57
302.667	49.66
302.881	45.57
303.095	115.2
303.309	27.14
303.524	-7.68
303.738	115.2
303.952	-50.69
304.166	29.18
304.381	-28.16
304.595	68.09
304.809	61.95
305.023	96.77
305.237	20.99
305.452	51.71
305.666	31.23
305.88	18.94
306.094	55.81
306.308	59.9
306.522	43.52
306.736	59.9
306.95	96.77
307.164	96.77
307.379	-52.74
307.593	61.95
307.807	2.56
308.021	61.95
308.235	117.25
308.449	41.47
308.663	66.05
308.877	100.86
309.091	72.19
309.305	29.18
309.519	35.33
309.733	39.42
309.947	82.43
310.161	45.57
310.374	37.38
310.588	86.53
310.802	59.9
311.016	-52.74
311.23	53.76
311.444	39.42
311.658	88.57
311.872	102.91
312.085	23.04
312.299	43.52
312.513	57.86
312.727	45.57
312.941	84.48
313.154	86.53
313.368	78.33
313.582	90.62
313.796	68.09
314.009	55.81
314.223	86.53
314.437	68.09
314.651	80.38
314.864	37.38
315.078	68.09
315.292	41.47
315.505	84.48
315.719	55.81
315.933	-32.26
316.146	88.57
316.36	20.99
316.573	78.33
316.787	51.71
317.001	84.48
317.214	12.8
317.428	72.19
317.641	-26.11
317.855	49.66
318.068	14.85
318.282	102.91
318.495	117.25
318.709	78.33
318.922	68.09
319.136	61.95
319.349	68.09
319.563	4.61
319.776	64
319.99	70.14
320.203	107.01
320.417	74.24
320.63	55.81
320.843	135.68
321.057	29.18
321.27	31.23
321.483	20.99
321.697	137.73
321.91	88.57
322.124	102.91
322.337	33.28
322.55	88.57
322.763	94.72
322.977	109.05
323.19	68.09
323.403	31.23
323.617	37.38
323.83	10.75
324.043	102.91
324.256	72.19
324.469	70.14
324.683	61.95
324.896	104.96
325.109	160.25
325.322	8.7
325.535	96.77
325.748	102.91
325.962	43.52
326.175	45.57
326.388	59.9
326.601	43.52
326.814	88.57
327.027	76.29
327.24	61.95
327.453	70.14
327.666	137.73
327.879	68.09
328.092	102.91
328.305	68.09
328.518	72.19
328.731	41.47
328.944	109.05
329.157	78.33
329.37	113.15
329.583	78.33
329.796	125.44
330.009	12.8
330.222	35.33
330.435	94.72
330.648	-26.11
330.861	98.81
331.073	27.14
331.286	92.67
331.499	100.86
331.712	27.14
331.925	-22.02
332.138	80.38
332.35	59.9
332.563	41.47
332.776	98.81
332.989	2.56
333.202	27.14
333.414	117.25
333.627	31.23
333.84	20.99
334.053	35.33
334.265	66.05
334.478	23.04
334.691	70.14
334.903	158.21
335.116	125.44
335.329	137.73
335.541	16.9
335.754	78.33
335.966	78.33
336.179	45.57
336.392	51.71
336.604	29.18
336.817	55.81
337.029	33.28
337.242	20.99
337.454	55.81
337.667	20.99
337.88	170.49
338.092	57.86
338.305	102.91
338.517	-3.58
338.729	55.81
338.942	55.81
339.154	53.76
339.367	45.57
339.579	25.09
339.792	51.71
340.004	92.67
340.217	-22.02
340.429	111.1
340.641	70.14
340.854	-30.21
341.066	64
341.278	59.9
341.491	76.29
341.703	59.9
341.915	76.29
342.128	94.72
342.34	61.95
342.552	27.14
342.764	84.48
342.977	84.48
343.189	39.42
343.401	84.48
343.613	102.91
343.826	78.33
344.038	76.29
344.25	78.33
344.462	51.71
344.674	23.04
344.886	104.96
345.099	64
345.311	43.52
345.523	53.76
345.735	0.51
345.947	154.11
346.159	51.71
346.371	78.33
346.583	12.8
346.795	35.33
347.007	53.76
347.219	74.24
347.431	27.14
347.643	78.33
347.855	51.71
348.067	94.72
348.279	43.52
348.491	76.29
348.703	16.9
348.915	-3.58
349.127	61.95
349.339	68.09
349.551	6.66
349.763	125.44
349.975	80.38
350.187	109.05
350.399	37.38
350.61	45.57
350.822	84.48
351.034	47.62
351.246	35.33
351.458	43.52
351.669	160.25
351.881	127.49
352.093	137.73
352.305	84.48
352.517	96.77
352.728	59.9
352.94	86.53
353.152	20.99
353.363	35.33
353.575	78.33
353.787	27.14
353.999	61.95
354.21	111.1
354.422	49.66
354.633	92.67
354.845	51.71
355.057	92.67
355.268	100.86
355.48	33.28
355.692	18.94
355.903	35.33
356.115	84.48
356.326	70.14
356.538	51.71
356.749	70.14
356.961	129.53
357.172	6.66
357.384	25.09
357.595	70.14
357.807	25.09
358.018	96.77
358.23	45.57
358.441	133.63
358.653	84.48
358.864	45.57
359.075	14.85
359.287	59.9
359.498	88.57
359.709	133.63
359.921	12.8
360.132	51.71
360.344	92.67
360.555	76.29
360.766	72.19
360.977	100.86
361.189	76.29
361.4	109.05
361.611	162.3
361.823	86.53
362.034	111.1
362.245	76.29
362.456	23.04
362.667	94.72
362.879	20.99
363.09	4.61
363.301	29.18
363.512	37.38
363.723	-3.58
363.935	84.48
364.146	88.57
364.357	123.39
364.568	100.86
364.779	47.62
364.99	125.44
365.201	76.29
365.412	92.67
365.623	29.18
365.834	35.33
366.045	12.8
366.256	150.01
366.467	102.91
366.678	121.34
366.889	61.95
367.1	76.29
367.311	59.9
367.522	35.33
367.733	14.85
367.944	20.99
368.155	20.99
368.366	61.95
368.577	158.21
368.788	137.73
368.999	31.23
369.209	90.62
369.42	113.15
369.631	160.25
369.842	43.52
370.053	59.9
370.264	51.71
370.474	20.99
370.685	125.44
370.896	111.1
371.107	61.95
371.317	76.29
371.528	49.66
371.739	176.64
371.95	76.29
372.16	133.63
372.371	27.14
372.582	84.48
372.792	61.95
373.003	76.29
373.214	39.42
373.424	117.25
373.635	33.28
373.846	166.4
374.056	147.97
374.267	35.33
374.477	61.95
374.688	35.33
374.898	100.86
375.109	51.71
375.319	37.38
375.53	86.53
375.74	53.76
375.951	2.56
376.161	94.72
376.372	76.29
376.582	76.29
376.793	72.19
377.003	100.86
377.214	59.9
377.424	119.29
377.635	131.58
377.845	-7.68
378.055	152.06
378.266	18.94
378.476	68.09
378.686	102.91
378.897	72.19
379.107	-30.21
379.317	94.72
379.528	117.25
379.738	29.18
379.948	29.18
380.158	72.19
380.369	88.57
380.579	86.53
380.789	86.53
380.999	53.76
381.21	104.96
381.42	111.1
381.63	23.04
381.84	47.62
382.05	121.34
382.261	27.14
382.471	55.81
382.681	61.95
382.891	33.28
383.101	84.48
383.311	10.75
383.521	117.25
383.731	78.33
383.941	45.57
384.151	4.61
384.361	61.95
384.571	100.86
384.781	6.66
384.991	139.77
385.201	111.1
385.411	84.48
385.621	86.53
385.831	127.49
386.041	64
386.251	156.16
386.461	141.82
386.671	61.95
386.881	160.25
387.091	107.01
387.301	100.86
387.511	74.24
387.72	88.57
387.93	78.33
388.14	33.28
388.35	43.52
388.56	100.86
388.769	84.48
388.979	119.29
389.189	43.52
389.399	100.86
389.609	115.2
389.818	64
390.028	90.62
390.238	125.44
390.447	33.28
390.657	111.1
390.867	166.4
391.076	57.86
391.286	143.87
391.496	51.71
391.705	88.57
391.915	92.67
392.125	141.82
392.334	137.73
392.544	47.62
392.753	68.09
392.963	133.63
393.172	88.57
393.382	51.71
393.591	121.34
393.801	82.43
394.01	188.93
394.22	92.67
394.429	-7.68
394.639	43.52
394.848	78.33
395.058	84.48
395.267	174.59
395.477	94.72
395.686	76.29
395.895	92.67
396.105	113.15
396.314	76.29
396.524	150.01
396.733	27.14
396.942	158.21
397.152	104.96
397.361	139.77
397.57	51.71
397.78	129.53
397.989	141.82
398.198	225.79
398.407	70.14
398.617	166.4
398.826	31.23
399.035	150.01
399.244	68.09
399.453	150.01
399.663	121.34
399.872	90.62
400.081	117.25
400.29	141.82
400.499	74.24
400.708	125.44
400.917	119.29
401.127	147.97
401.336	139.77
401.545	174.59
401.754	195.07
401.963	184.83
402.172	90.62
402.381	174.59
402.59	166.4
402.799	152.06
403.008	182.78
403.217	76.29
403.426	219.64
403.635	109.05
403.844	100.86
404.053	188.93
404.262	121.34
404.471	182.78
404.68	90.62
404.888	188.93
405.097	102.91
405.306	215.55
405.515	205.31
405.724	152.06
405.933	176.64
406.142	219.64
406.35	256.51
406.559	283.13
406.768	154.11
406.977	215.55
407.185	170.49
407.394	217.6
407.603	203.26
407.812	197.12
408.02	264.7
408.229	233.98
408.438	205.31
408.646	227.84
408.855	307.71
409.064	240.12
409.272	322.04
409.481	250.36
409.69	248.32
409.898	289.28
410.107	332.28
410.315	317.95
410.524	403.96
410.733	367.1
410.941	342.52
411.15	326.14
411.358	350.71
411.567	326.14
411.775	412.15
411.984	438.78
412.192	395.77
412.401	387.58
412.609	469.5
412.818	526.84
413.026	461.3
413.234	524.79
413.443	543.22
413.651	510.46
413.86	547.32
414.068	633.33
414.276	635.38
414.485	592.37
414.693	702.97
414.901	668.15
415.11	690.68
415.318	690.68
415.526	707.06
415.734	782.84
415.943	797.17
416.151	864.75
416.359	795.12
416.567	829.94
416.776	936.43
416.984	993.78
417.192	1010.16
417.4	987.63
417.608	1014.26
417.817	1028.59
418.025	1100.27
418.233	1020.4
418.441	1137.13
418.649	1137.13
418.857	1214.96
419.065	1280.49
419.273	1307.12
419.481	1272.3
419.689	1413.61
419.897	1405.42
420.105	1520.1
420.313	1438.19
420.521	1468.91
420.729	1698.28
420.937	1739.24
421.145	1692.13
421.353	1853.92
421.561	1706.47
421.769	1903.07
421.977	1921.51
422.185	2017.76
422.393	2017.76
422.601	2081.25
422.809	2140.64
423.017	2175.45
423.224	2347.48
423.432	2353.63
423.64	2435.55
423.848	2705.88
424.056	2599.38
424.263	2773.46
424.471	2828.76
424.679	2773.46
424.887	3047.89
425.094	3058.13
425.302	3049.94
425.51	3133.9
425.718	3242.45
425.925	3295.69
426.133	3426.76
426.341	3588.55
426.548	3684.81
426.756	3856.84
426.964	3770.82
427.171	4028.87
427.379	4102.59
427.586	4147.65
427.794	4360.64
428.001	4563.39
428.209	4723.13
428.417	4647.35
428.624	4919.73
428.832	5110.19
429.039	4889.01
429.247	4880.82
429.454	5419.44
429.662	5667.24
429.869	5366.19
430.076	5822.89
430.284	5607.85
430.491	5861.8
430.699	6238.62
430.906	6281.63
431.114	6146.47
431.321	6304.16
431.528	6666.65
431.736	6908.31
431.943	7205.27
432.15	6990.23
432.358	7334.29
432.565	7502.22
432.772	7473.55
432.979	7942.53
433.187	8063.36
433.394	8008.07
433.601	8653.18
433.808	8692.09
434.016	8591.74
434.223	9040.25
434.43	9449.84
434.637	9316.72
434.844	10070.37
435.052	10213.73
435.259	9724.27
435.466	10142.05
435.673	10021.22
435.88	10598.75
436.087	11243.86
436.294	11039.06
436.501	10977.62
436.708	11172.18
436.915	11417.94
437.122	11995.46
437.329	12069.19
437.537	12415.3
437.743	12400.96
437.95	12364.1
438.157	12923.19
438.364	13756.72
438.571	13715.76
438.778	13865.26
438.985	15038.75
439.192	14194.98
439.399	14577.95
439.606	14502.18
439.813	15364.37
440.02	16144.65
440.227	15653.14
440.433	15753.49
440.64	16345.35
440.847	16101.64
441.054	16548.1
441.261	17680.63
441.467	17445.11
441.674	17484.02
441.881	18413.8
442.088	18428.13
442.294	18145.52
442.501	18821.34
442.708	19040.48
442.914	19488.98
443.121	20814.02
443.328	20168.91
443.534	21309.63
443.741	20908.22
443.948	20555.97
444.154	22151.34
444.361	22206.64
444.568	22155.44
444.774	21770.42
444.981	22247.6
445.187	23228.57
445.394	23900.31
445.6	23865.49
445.807	25935.99
446.013	24782.98
446.22	25534.59
446.426	26359.92
446.633	26560.62
446.839	27291.74
447.046	26349.68
447.252	27682.91
447.459	27402.33
447.665	27463.77
447.871	29356.1
448.078	29747.26
448.284	28651.59
448.491	29468.73
448.697	30392.37
448.903	31275.04
449.11	31070.25
449.316	30427.18
449.522	31033.38
449.728	32024.6
449.935	32008.22
450.141	32059.41
450.347	32937.99
450.553	32065.56
450.76	32464.91
450.966	33734.65
451.172	33153.03
451.378	34275.32
451.584	33257.48
451.791	34031.61
451.997	33576.96
452.203	34482.16
452.409	34453.49
452.615	34256.89
452.821	33124.36
453.027	32765.96
453.233	34045.94
453.44	33101.83
453.646	33511.42
453.852	33558.53
454.058	33992.7
454.264	32933.9
454.47	33841.15
454.676	32778.25
454.882	33990.65
455.088	30748.71
455.294	31545.37
455.5	32120.85
455.705	32391.19
455.911	31197.22
456.117	30535.73
456.323	30136.37
456.529	28389.45
456.735	30009.4
456.941	28858.44
457.147	28643.4
457.352	27672.67
457.558	27490.4
457.764	27533.4
457.97	27084.9
458.176	26243.18
458.381	26556.52
458.587	25036.93
458.793	25073.79
458.999	23715.99
459.204	25426.04
459.41	24723.59
459.616	23134.37
459.821	23292.06
460.027	22954.15
460.233	22646.95
460.438	21577.91
460.644	21899.44
460.85	20697.28
461.055	20324.55
461.261	20711.62
461.466	18634.98
461.672	18131.18
461.878	19538.13
462.083	18200.81
462.289	18000.11
462.494	17805.55
462.7	17383.67
462.905	16707.84
463.111	17142.01
463.316	17230.07
463.522	16871.68
463.727	16838.91
463.932	16824.58
464.138	16570.63
464.343	16883.97
464.549	16361.73
464.754	16861.44
464.959	16670.98
465.165	16462.08
465.37	15827.21
465.575	15454.48
465.781	15857.93
465.986	16167.18
466.191	15391
466.397	15157.53
466.602	14448.93
466.807	15141.14
467.012	15137.05
467.218	14838.05
467.423	14881.05
467.628	14987.55
467.833	15436.05
468.038	14567.71
468.244	14569.76
468.449	15229.21
468.654	14620.96
468.859	14547.23
469.064	14356.77
469.269	13916.46
469.474	14029.1
469.679	14299.43
469.885	13687.09
470.09	13922.6
470.295	13945.13
470.5	13648.18
470.705	13703.47
470.91	13580.59
471.115	13121.85
471.32	13422.9
471.525	13445.43
471.73	12890.43
471.935	12814.65
472.139	12392.77
472.344	12941.63
472.549	12667.2
472.754	12562.75
472.959	12136.77
473.164	11850.06
473.369	11725.13
473.574	12251.46
473.778	11960.65
473.983	12091.72
474.188	11946.31
474.393	11508.05
474.598	11333.97
474.802	11309.4
475.007	11336.02
475.212	11317.59
475.417	10959.19
475.621	10785.12
475.826	11000.15
476.031	10867.03
476.235	10416.48
476.44	10936.67
476.645	10510.69
476.849	10439.01
477.054	10365.28
477.259	10023.27
477.463	10457.44
477.668	9900.39
477.872	10248.55
478.077	9916.78
478.282	9677.16
478.486	9660.78
478.691	9496.94
478.895	9503.09
479.1	9451.89
479.304	9333.11
479.509	9111.92
479.713	9369.97
479.918	9320.82
480.122	9087.35
480.326	9070.97
480.531	9023.86
480.735	9005.43
480.94	8982.9
481.144	9187.7
481.348	9030.01
481.553	8935.8
481.757	8718.71
481.961	8819.07
482.166	8993.14
482.37	8767.87
482.574	8800.63
482.778	8688
482.983	8931.7
483.187	8966.52
483.391	8857.98
483.595	8943.99
483.8	8739.19
484.004	8855.93
484.208	8837.5
484.412	8653.18
484.616	8774.01
484.821	8776.06
485.025	8776.06
485.229	8866.17
485.433	8638.84
485.637	8728.95
485.841	8677.76
486.045	8894.84
486.249	8765.82
486.453	8622.46
486.657	8794.49
486.861	8833.4
487.065	8341.89
487.269	8839.55
487.473	8759.67
487.677	8821.11
487.881	9062.77
488.085	8954.23
488.289	8868.22
488.493	8974.71
488.697	8960.38
488.901	8884.6
489.105	8753.53
489.309	8579.45
489.512	8989.05
489.716	8853.88
489.92	8802.68
490.124	9013.62
490.328	9222.52
490.531	8898.94
490.735	9202.04
490.939	9359.73
491.143	8917.37
491.346	9081.21
491.55	9245.04
491.754	9034.1
491.958	9326.96
492.161	9242.99
492.365	9122.16
492.569	9169.27
492.772	9429.36
492.976	9269.62
493.18	9406.83
493.383	9517.42
493.587	9597.29
493.79	9566.57
493.994	9509.23
494.197	9570.67
494.401	9910.63
494.605	9775.47
494.808	9996.65
495.012	9970.02
495.215	9843.05
495.419	10266.98
495.622	10234.21
495.825	10226.02
496.029	10152.29
496.232	10297.7
496.436	10211.68
496.639	10592.61
496.843	10504.54
497.046	10817.88
497.249	10907.99
497.453	10944.86
497.656	11278.68
497.859	11245.91
498.063	11284.82
498.266	11565.39
498.469	11348.31
498.673	11659.6
498.876	11884.87
499.079	11833.68
499.282	11897.16
499.485	12022.09
499.689	12169.54
499.892	12355.91
500.095	12280.13
500.298	12761.41
500.501	12493.12
500.705	13066.55
500.908	12984.63
501.111	13265.21
501.314	13173.05
501.517	13388.08
501.72	13568.3
501.923	13637.94
502.126	13922.6
502.329	14215.46
502.532	14190.89
502.735	14213.42
502.938	14575.91
503.141	14534.95
503.344	15046.94
503.547	14952.73
503.75	15192.34
503.953	15315.22
504.156	15460.63
504.359	15421.72
504.562	15753.49
504.765	15929.61
504.968	16302.34
505.17	16570.63
505.373	16503.04
505.576	16658.69
505.779	16902.4
505.982	16761.09
506.185	17230.07
506.387	17191.16
506.59	17484.02
506.793	17887.47
506.996	17557.75
507.198	18317.54
507.401	17856.75
507.604	18200.81
507.807	18723.04
508.009	18778.34
508.212	18915.55
508.415	19032.29
508.617	19411.16
508.82	19501.27
509.022	19144.92
509.225	19902.67
509.428	19992.78
509.63	20297.93
509.833	20236.49
510.035	20988.1
510.238	20603.08
510.44	21080.25
510.643	21344.44
510.845	21422.27
511.048	21369.02
511.25	21534.9
511.453	21926.07
511.655	22562.98
511.858	22306.99
512.06	22575.27
512.262	22847.65
512.465	22794.4
512.667	23230.62
512.87	23453.85
513.072	23263.39
513.274	23951.51
513.477	24150.16
513.679	24088.72
513.881	24555.66
514.084	24883.33
514.286	24854.66
514.488	25065.6
514.69	25809.01
514.893	25446.52
515.095	25733.24
515.297	26417.26
515.499	26474.6
515.701	26439.79
515.904	26634.35
516.106	27080.8
516.308	27443.29
516.51	27533.4
516.712	27545.69
516.914	28059.73
517.116	28745.8
517.318	28584.01
517.52	28278.86
517.722	28710.99
517.925	29218.88
518.127	29505.6
518.329	29904.95
518.531	29612.09
518.733	30132.28
518.935	30720.04
519.136	30867.5
519.338	30951.46
519.54	31096.87
519.742	31561.76
519.944	31434.78
520.146	31918.1
520.348	32061.46
520.55	32112.66
520.752	32434.19
520.954	32944.14
521.155	32630.8
521.357	33171.46
521.559	33515.52
521.761	33978.36
521.963	33722.37
522.164	33884.15
522.366	34234.36
522.568	34471.92
522.77	34881.52
522.971	34916.33
523.173	35094.5
523.375	35430.37
523.576	35317.73
523.778	35581.92
523.98	35807.2
524.181	36145.11
524.383	36112.34
524.584	36687.82
524.786	37035.98
524.988	36415.44
525.189	36816.85
525.391	37046.22
525.592	37244.87
525.794	37646.27
525.995	37668.8
526.197	37664.71
526.398	38000.57
526.6	37924.8
526.801	38483.89
527.003	38449.08
527.204	38604.72
527.406	38698.93
527.607	38684.59
527.808	38901.68
528.01	38221.75
528.211	38561.72
528.412	39389.09
528.614	39458.73
528.815	39485.35
529.016	39858.08
529.218	39329.7
529.419	39520.16
529.62	39866.27
529.822	39503.78
530.023	39720.87
530.224	39761.83
530.425	39710.63
530.626	39491.49
530.828	39708.58
531.029	40736.66
531.23	39786.4
531.431	40265.63
531.632	39954.33
531.833	40585.11
532.035	40292.25
532.236	40462.23
532.437	40408.98
532.638	40075.16
532.839	40656.79
533.04	40755.09
533.241	40136.6
533.442	40968.08
533.643	40816.53
533.844	40918.93
534.045	40916.88
534.246	40515.48
534.447	40697.75
534.648	40597.4
534.849	40951.7
535.05	40392.6
535.251	40601.49
535.451	40460.18
535.652	40988.56
535.853	40474.52
536.054	40963.98
536.255	41078.67
536.456	40372.12
536.657	40894.35
536.857	40542.1
537.058	40327.06
537.259	41068.43
537.46	40908.69
537.66	40855.44
537.861	40804.24
538.062	40566.68
538.263	40814.48
538.463	40832.91
538.664	40753.04
538.865	40658.84
539.065	40800.15
539.266	40406.94
539.466	40886.16
539.667	40322.97
539.868	41064.33
540.068	40898.45
540.269	40331.16
540.469	40781.71
540.67	40243.1
540.87	40931.22
541.071	40386.46
541.271	40869.78
541.472	40583.06
541.672	40509.33
541.873	40605.59
542.073	39993.25
542.274	40744.85
542.474	40349.59
542.675	40097.69
542.875	40638.36
543.075	40593.3
543.276	39829.41
543.476	40683.41
543.676	40077.21
543.877	40564.63
544.077	40734.61
544.277	40351.64
544.478	40429.46
544.678	40300.44
544.878	40286.11
545.078	40441.75
545.279	39952.29
545.479	40122.27
545.679	40728.47
545.879	39661.47
546.079	40304.54
546.28	40128.41
546.48	39569.32
546.68	40234.91
546.88	40456.09
547.08	40185.75
547.28	39919.52
547.48	39772.07
547.68	39866.27
547.88	40134.56
548.081	40015.77
548.281	39890.85
548.481	40083.36
548.681	40488.85
548.881	40085.4
549.081	39794.59
549.28	39833.5
549.48	40052.64
549.68	39673.76
549.88	40597.4
550.08	39661.47
550.28	40083.36
550.48	40060.83
550.68	40402.84
550.88	39862.18
551.08	39886.75
551.279	40069.02
551.479	39495.59
551.679	39937.95
551.879	39694.24
552.079	39763.87
552.278	39575.46
552.478	39933.85
552.678	40028.06
552.878	40048.54
553.077	39784.35
553.277	39362.47
553.477	40269.72
553.676	39843.74
553.876	39419.81
554.076	39385
554.275	39487.4
554.475	39172.01
554.674	39526.31
554.874	39589.8
555.074	39235.5
555.273	39358.38
555.473	39501.73
555.672	38930.35
555.872	39157.67
556.071	39387.05
556.271	39575.46
556.47	39100.33
556.67	39069.61
556.869	39452.58
557.068	39518.12
557.268	39145.39
557.467	39151.53
557.667	39264.17
557.866	39221.16
558.065	39327.66
558.265	38686.64
558.464	38688.69
558.663	39034.8
558.863	38152.12
559.062	39387.05
559.261	38907.82
559.461	38985.65
559.66	38490.04
559.859	38582.2
560.058	38131.64
560.258	38332.34
560.457	38457.27
560.656	38432.69
560.855	38289.34
561.054	38385.59
561.253	38330.3
561.453	38330.3
561.652	38133.69
561.851	38621.11
562.05	38207.42
562.249	37726.14
562.448	38428.6
562.647	38176.7
562.846	38096.83
563.045	37853.12
563.244	37332.93
563.443	38051.77
563.642	37550.02
563.841	37689.28
564.04	37324.74
564.239	37801.92
564.438	37441.48
564.637	37224.39
564.836	37894.08
565.035	37119.95
565.234	37435.33
565.432	37181.38
565.631	37056.46
565.83	37025.74
566.029	37107.66
566.228	36769.74
566.427	36798.41
566.625	37300.17
566.824	36294.61
567.023	36919.24
567.222	35866.59
567.42	36519.89
567.619	36386.77
567.818	36247.51
568.016	36311
568.215	36417.49
568.414	36106.2
568.612	36446.16
568.811	36194.26
569.01	36067.29
569.208	35327.97
569.407	36151.26
569.605	35307.49
569.804	35823.58
570.002	35297.25
570.201	35559.39
570.4	35362.79
570.598	35121.13
570.797	35053.55
570.995	35303.4
571.193	34822.12
571.392	35084.26
571.59	34750.45
571.789	34998.25
571.987	34951.15
572.186	34537.46
572.384	34371.57
572.582	34711.53
572.781	34791.41
572.979	34404.34
573.177	34267.13
573.376	34555.89
573.574	34437.11
573.772	34379.76
573.971	33957.88
574.169	33619.97
574.367	33847.29
574.565	33761.28
574.763	33609.73
574.962	33769.47
575.16	33320.96
575.358	33503.23
575.556	33243.14
575.754	33828.86
575.952	33196.04
576.151	33648.64
576.349	33032.2
576.547	32915.47
576.745	33486.85
576.943	33099.78
577.141	32862.22
577.339	32862.22
577.537	32792.59
577.735	32768.01
577.933	32430.1
578.131	32907.27
578.329	32421.91
578.527	31735.84
578.725	32190.48
578.923	32067.61
579.121	31827.99
579.319	32202.77
579.516	32231.44
579.714	32102.42
579.912	31666.2
580.11	31719.45
580.308	31334.43
580.506	31373.35
580.704	30916.65
580.901	31307.81
581.099	31418.4
581.297	31010.85
581.495	30670.89
581.692	30681.13
581.89	30812.2
582.088	31092.77
582.285	30541.87
582.483	30793.77
582.681	31019.05
582.878	30371.89
583.076	30570.54
583.274	30472.24
583.471	30140.47
583.669	30441.52
583.866	30128.18
584.064	30142.52
584.262	29638.72
584.459	30124.08
584.657	29896.76
584.854	30099.51
585.052	29401.15
585.249	29513.79
585.447	29528.13
585.644	29390.91
585.841	29425.73
586.039	29739.07
586.236	29296.7
586.434	29007.94
586.631	28860.49
586.828	29130.82
587.026	29044.8
587.223	28684.36
587.42	28966.98
587.618	29225.03
587.815	28495.95
588.012	28426.32
588.21	28520.52
588.407	28553.29
588.604	28072.02
588.801	28414.03
588.999	28289.1
589.196	28092.5
589.393	28125.27
589.59	27979.86
589.787	27711.58
589.984	27717.72
590.182	27670.62
590.379	27813.98
590.576	27615.32
590.773	27693.15
590.97	27420.77
591.167	27627.61
591.364	27000.93
591.561	27400.29
591.758	27125.86
591.955	27025.51
592.152	27234.4
592.349	26843.24
592.546	27043.94
592.743	26892.39
592.94	26384.49
593.137	26634.35
593.334	26734.7
593.531	26591.34
593.727	26161.26
593.924	26712.17
594.121	26495.08
594.318	26550.38
594.515	26095.73
594.712	26212.46
594.908	25849.97
595.105	26124.4
595.302	25802.87
595.499	25917.56
595.696	25618.55
595.892	25391.23
596.089	25800.82
596.286	25847.93
596.482	25206.91
596.679	25503.87
596.876	25426.04
597.072	25176.19
597.269	25020.55
597.466	25204.86
597.662	25063.55
597.859	24912
598.055	25049.22
598.252	24825.99
598.448	24926.34
598.645	24316.04
598.841	24500.36
599.038	24148.11
599.234	24576.14
599.431	24244.37
599.627	24250.51
599.824	24426.64
600.02	24182.93
600.217	24080.53
600.413	24023.19
600.609	24098.96
600.806	23697.56
601.002	23812.24
601.198	23670.93
601.395	23488.67
601.591	23546.01
601.787	23447.71
601.984	23464.09
602.18	23353.5
602.376	23204
602.572	23380.12
602.769	23359.64
602.965	23054.5
603.161	22999.2
603.357	23263.39
603.553	22902.95
603.75	23025.82
603.946	22937.76
604.142	22749.35
604.338	22352.04
604.534	22808.74
604.73	22542.5
604.926	22360.23
605.122	22653.09
605.318	22339.76
605.514	22337.71
605.71	22337.71
605.906	22079.66
606.102	22173.87
606.298	22010.03
606.494	22155.44
606.69	21999.79
606.886	22147.25
607.082	21647.54
607.278	21854.39
607.474	21362.87
607.67	21823.67
607.866	21260.48
608.062	21747.89
608.257	21635.25
608.453	21397.69
608.649	21616.82
608.845	21096.64
609.041	21495.99
609.236	21688.5
609.432	21315.77
609.628	21162.17
609.824	21045.44
610.019	21256.38
610.215	20910.27
610.411	21328.06
610.606	20822.21
610.802	21035.2
610.998	20934.85
611.193	20897.99
611.389	20306.12
611.584	20801.73
611.78	20564.17
611.976	20771.01
612.171	20525.25
612.367	20510.92
612.562	20357.32
612.758	20275.4
612.953	20228.3
613.149	20607.17
613.344	20189.39
613.539	20832.45
613.735	20465.86
613.93	20478.15
614.126	20027.6
614.321	20588.74
614.517	20340.94
614.712	20297.93
614.907	19990.73
615.103	20007.12
615.298	19933.39
615.493	20025.55
615.688	19712.21
615.884	20185.29
616.079	19710.16
616.274	20175.05
616.47	19785.94
616.665	20031.69
616.86	19710.16
617.055	19497.17
617.25	19450.07
617.445	19826.9
617.641	19253.47
617.836	19566.81
618.031	19202.27
618.226	19593.43
618.421	19034.33
618.616	19517.65
618.811	19083.48
619.006	19228.89
619.201	18737.38
619.396	19022.05
619.591	18911.46
619.786	19011.81
619.981	18440.42
620.176	18829.54
620.371	18528.49
620.566	18667.75
620.761	18229.48
620.956	18819.3
621.151	18391.27
621.346	18469.09
621.541	18053.36
621.735	18163.95
621.93	17776.88
622.125	17934.57
622.32	17797.36
622.515	17922.29
622.709	17555.7
622.904	17508.6
623.099	17303.8
623.294	17574.13
623.488	17182.97
623.683	17240.31
623.878	16941.31
624.072	17008.89
624.267	17148.15
624.462	16922.88
624.656	16861.44
624.851	16589.06
625.046	16699.65
625.24	16636.16
625.435	16400.65
625.629	16257.29
625.824	16273.67
626.018	15931.66
626.213	15706.38
626.407	15733.01
626.602	15841.55
626.796	15857.93
626.991	16011.53
627.185	15612.18
627.38	15505.68
627.574	15517.97
627.768	15292.69
627.963	15395.09
628.157	15489.3
628.352	15309.08
628.546	14856.48
628.74	15071.51
628.935	14883.1
629.129	14965.02
629.323	14907.68
629.517	14428.45
629.712	14836
629.906	14596.39
630.1	14295.33
630.294	14428.45
630.489	14225.7
630.683	14354.72
630.877	14123.3
631.071	13979.95
631.265	14104.87
631.459	13842.73
631.653	14031.15
631.848	13773.1
632.042	13650.22
632.236	13752.62
632.43	13584.69
632.624	13609.26
632.818	13494.58
633.012	13437.23
633.206	13334.84
633.4	13422.9
633.594	13166.9
633.788	13076.79
633.982	12962.11
634.176	13175.09
634.369	12892.48
634.563	12808.51
634.757	12732.73
634.951	12941.63
635.145	12595.52
635.339	12693.82
635.533	12446.02
635.726	12593.47
635.92	12261.7
636.114	12413.25
636.308	12288.32
636.501	12366.15
636.695	12087.62
636.889	12009.8
637.083	12009.8
637.276	12110.15
637.47	11940.17
637.664	11835.72
637.857	11841.87
638.051	11710.8
638.244	11680.08
638.438	11794.76
638.632	11497.81
638.825	11458.9
639.019	11446.61
639.212	11651.41
639.406	11284.82
639.599	11276.63
639.793	11336.02
639.986	11026.78
640.18	11147.61
640.373	11108.69
640.567	11112.79
640.76	10961.24
640.954	10738.01
641.147	10862.94
641.34	10703.2
641.534	10686.81
641.727	10754.4
641.92	10559.84
642.114	10709.34
642.307	10522.98
642.5	10539.36
642.694	10326.37
642.887	10144.1
643.08	10260.84
643.273	10346.85
643.467	9920.87
643.66	10029.41
643.853	9777.51
644.046	10070.37
644.239	10000.74
644.432	9699.69
644.626	9873.77
644.819	9800.04
645.012	9951.59
645.205	9910.63
645.398	9826.67
645.591	9564.53
645.784	9476.46
645.977	9406.83
646.17	9490.8
646.363	9408.88
646.556	9120.12
646.749	9449.84
646.942	9251.19
647.135	9230.71
647.328	9187.7
647.521	9204.08
647.714	8892.79
647.907	8941.94
648.099	9066.87
648.292	8982.9
648.485	8888.7
648.678	8825.21
648.871	8612.22
649.064	8829.31
649.256	8649.08
649.449	8417.66
649.642	8696.19
649.835	8571.26
650.027	8483.2
650.22	8528.25
650.413	8462.72
650.605	8388.99
650.798	8440.19
650.991	8235.39
651.183	8333.7
651.376	8169.86
651.568	8247.68
651.761	8077.7
651.954	8194.43
652.146	8022.41
652.339	8028.55
652.531	7942.53
652.724	7895.43
652.916	7891.34
653.109	7887.24
653.301	7793.03
653.494	7709.07
653.686	7631.24
653.879	7729.55
654.071	7592.33
654.263	7653.77
654.456	7725.45
654.648	7588.24
654.84	7453.07
655.033	7463.31
655.225	7494.03
655.417	7274.9
655.61	7367.06
655.802	7256.47
655.994	7215.51
656.186	7309.71
656.379	7295.38
656.571	7256.47
656.763	7066
656.955	7168.4
657.148	7135.64
657.34	7025.04
657.532	6812.06
657.724	6924.69
657.916	6883.73
658.108	6879.64
658.3	6705.56
658.492	6891.93
658.684	6758.81
658.876	6672.79
659.068	6654.36
659.26	6586.78
659.452	6730.14
659.644	6597.02
659.836	6482.33
660.028	6517.15
660.22	6345.12
660.412	6371.74
660.604	6500.76
660.796	6609.31
660.988	6435.23
661.18	6416.8
661.372	6310.3
661.563	6443.42
661.755	6115.75
661.947	6132.13
662.139	6066.6
662.331	6162.85
662.522	5970.34
662.714	6107.55
662.906	6089.12
663.097	6027.68
663.289	6021.54
663.481	5732.78
663.673	6154.66
663.864	5845.41
664.056	5970.34
664.247	5704.1
664.439	5654.95
664.631	5732.78
664.822	5708.2
665.014	5568.94
665.205	5749.16
665.397	5611.95
665.588	5697.96
665.78	5632.43
665.971	5521.84
666.163	5523.88
666.354	5409.2
666.546	5448.11
666.737	5517.74
666.929	5550.51
667.12	5294.51
667.311	5429.68
667.503	5409.2
667.694	5282.22
667.885	5454.25
668.077	5288.37
668.268	5314.99
668.459	5269.94
668.651	5341.61
668.842	5099.95
669.033	5110.19
669.224	5142.96
669.416	5159.35
669.607	5048.75
669.798	5114.29
669.989	5183.92
670.18	4995.51
670.371	4952.5
670.563	4958.64
670.754	5032.37
670.945	4993.46
671.136	4991.41
671.327	4805.05
671.518	4927.92
671.709	4913.59
671.9	5161.39
672.091	4975.03
672.282	4737.46
672.473	4905.4
672.664	4764.09
672.855	4835.77
673.046	4796.85
673.237	4809.14
673.428	4895.16
673.619	4776.38
673.809	4688.31
674	4776.38
674.191	4817.33
674.382	4590.01
674.573	4663.74
674.764	4624.83
674.954	4553.15
675.145	4630.97
675.336	4551.1
675.527	4518.33
675.717	4581.82
675.908	4430.27
676.099	4516.28
676.289	4506.04
676.48	4524.47
676.671	4450.75
676.861	4387.26
677.052	4317.63
677.243	4493.76
677.433	4360.64
677.624	4442.56
677.814	4508.09
678.005	4364.73
678.195	4450.75
678.386	4364.73
678.576	4297.15
678.767	4338.11
678.957	4368.83
679.148	4389.31
679.338	4434.36
679.529	4248
679.719	4327.87
679.909	4415.93
680.1	4241.86
680.29	4360.64
680.481	4213.18
680.671	4424.12
680.861	4327.87
681.052	4262.33
681.242	4184.51
681.432	4360.64
681.622	4186.56
681.813	4286.91
682.003	4221.38
682.193	4194.75
682.383	4188.61
682.573	4182.46
682.764	4198.85
682.954	4067.78
683.144	4065.73
683.334	4180.42
683.524	4178.37
683.714	3983.81
683.904	4053.44
684.094	4145.6
684.284	4032.96
684.474	4104.64
684.664	4073.92
684.854	4084.16
685.044	4000.19
685.234	3967.43
685.424	4155.84
685.614	3918.28
685.804	4028.87
685.994	3983.81
686.184	3998.15
686.374	4082.11
686.564	3987.91
686.753	3879.36
686.943	3957.19
687.133	3918.28
687.323	3949
687.513	3748.29
687.702	3787.21
687.892	3844.55
688.082	3811.78
688.272	3871.17
688.461	3733.96
688.651	3824.07
688.841	3844.55
689.03	3803.59
689.22	3649.99
689.41	3869.12
689.599	3606.98
689.789	3713.48
689.979	3631.56
690.168	3666.38
690.358	3666.38
690.547	3576.27
690.737	3574.22
690.926	3662.28
691.116	3424.72
691.305	3623.37
691.495	3469.77
691.684	3525.07
691.874	3445.2
692.063	3475.91
692.252	3516.87
692.442	3553.74
692.631	3500.49
692.82	3541.45
693.01	3439.05
693.199	3551.69
693.388	3324.37
693.578	3389.9
693.767	3508.68
693.956	3344.84
694.146	3355.08
694.335	3385.8
694.524	3369.42
694.713	3330.51
694.902	3336.65
695.092	3357.13
695.281	3215.82
695.47	3412.43
695.659	3353.04
695.848	3189.2
696.037	3234.25
696.226	3269.07
696.415	3353.04
696.604	3258.83
696.793	3295.69
696.982	3307.98
697.171	3101.14
697.36	3258.83
697.549	3105.23
697.738	3295.69
697.927	3189.2
698.116	3140.05
698.305	3219.92
698.494	3213.77
698.683	3221.97
698.872	3402.19
699.061	3129.81
699.25	3115.47
699.438	3205.58
699.627	3181.01
699.816	3154.38
700.005	3131.86
700.193	3109.33
700.382	3172.82
700.571	3195.34
700.76	3111.38
700.948	3197.39
701.137	3144.14
701.326	3138
701.514	3049.94
701.703	3121.62
701.892	3148.24
702.08	3033.55
702.269	3080.66
702.457	3013.07
702.646	3021.27
702.834	3078.61
703.023	3101.14
703.212	3090.9
703.4	2939.35
703.589	2951.63
703.777	3000.79
703.965	2996.69
704.154	3023.31
704.342	3023.31
704.531	2933.2
704.719	3076.56
704.907	2988.5
705.096	3066.32
705.284	2902.48
705.472	2976.21
705.661	3099.09
705.849	2959.83
706.037	2920.92
706.226	2986.45
706.414	3019.22
706.602	3051.99
706.79	2976.21
706.979	2914.77
707.167	2935.25
707.355	2927.06
707.543	2988.5
707.731	3017.17
707.919	2945.49
708.107	2879.96
708.296	2892.24
708.484	2779.61
708.672	2927.06
708.86	2935.25
709.048	2873.81
709.236	2824.66
709.424	2898.39
709.612	2927.06
709.8	2709.97
709.988	2757.08
710.176	2785.75
710.364	2779.61
710.551	2892.24
710.739	2939.35
710.927	2834.9
711.115	2814.42
711.303	2875.86
711.491	2822.61
711.679	2789.85
711.866	2816.47
712.054	2789.85
712.242	2888.15
712.43	2828.76
712.617	2660.82
712.805	2781.65
712.993	2890.2
713.181	2775.51
713.368	2855.38
713.556	2843.09
713.744	2781.65
713.931	2869.72
714.119	2808.28
714.306	2726.36
714.494	2677.21
714.682	2755.03
714.869	2628.06
715.057	2724.31
715.244	2611.67
715.432	2656.73
715.619	2601.43
715.807	2726.36
715.994	2648.54
716.182	2752.98
716.369	2716.12
716.556	2798.04
716.744	2675.16
716.931	2630.1
717.119	2781.65
717.306	2847.19
717.493	2650.58
717.681	2738.65
717.868	2718.17
718.055	2677.21
718.242	2714.07
718.43	2599.38
718.617	2681.3
718.804	2824.66
718.991	2697.69
719.179	2699.73
719.366	2572.76
719.553	2783.7
719.74	2689.49
719.927	2568.66
720.114	2583
720.301	2597.34
720.488	2617.82
720.676	2527.71
720.863	2628.06
721.05	2580.95
721.237	2585.05
721.424	2552.28
721.611	2587.1
721.798	2570.71
721.985	2599.38
722.172	2556.38
722.358	2615.77
722.545	2509.27
722.732	2601.43
722.919	2572.76
723.106	2527.71
723.293	2445.79
723.48	2494.94
723.667	2525.66
723.853	2576.86
724.04	2556.38
724.227	2542.04
724.414	2484.7
724.6	2388.44
724.787	2542.04
724.974	2533.85
725.161	2519.51
725.347	2339.29
725.534	2632.15
725.72	2470.36
725.907	2482.65
726.094	2548.19
726.28	2419.16
726.467	2542.04
726.653	2494.94
726.84	2488.79
727.027	2421.21
727.213	2415.07
727.4	2533.85
727.586	2499.03
727.773	2482.65
727.959	2410.97
728.145	2546.14
728.332	2435.55
728.518	2427.35
728.705	2363.87
728.891	2447.83
729.077	2439.64
729.264	2447.83
729.45	2427.35
729.636	2363.87
729.823	2396.64
730.009	2437.59
730.195	2406.88
730.382	2404.83
730.568	2437.59
730.754	2443.74
730.94	2533.85
731.126	2451.93
731.313	2417.12
731.499	2345.44
731.685	2531.8
731.871	2394.59
732.057	2378.2
732.243	2396.64
732.429	2355.68
732.615	2419.16
732.801	2460.12
732.987	2439.64
733.173	2451.93
733.359	2238.94
733.545	2359.77
733.731	2402.78
733.917	2273.76
734.103	2329.05
734.289	2294.24
734.475	2355.68
734.661	2429.4
734.847	2345.44
735.033	2255.33
735.219	2331.1
735.404	2240.99
735.59	2281.95
735.776	2374.11
735.962	2374.11
736.148	2367.96
736.333	2232.8
736.519	2341.34
736.705	2265.57
736.89	2322.91
737.076	2312.67
737.262	2251.23
737.447	2300.38
737.633	2138.59
737.819	2273.76
738.004	2173.41
738.19	2302.43
738.375	2181.6
738.561	2331.1
738.747	2296.28
738.932	2163.17
739.118	2210.27
739.303	2380.25
739.489	2206.17
739.674	2114.02
739.859	2099.68
740.045	2271.71
740.23	2050.53
740.416	2062.82
740.601	2200.03
740.786	2040.29
740.972	2136.54
741.157	2021.86
741.342	2103.78
741.528	2034.14
741.713	2109.92
741.898	2075.1
742.084	2058.72
742.269	2116.06
742.454	2132.45
742.639	2052.58
742.824	2097.63
743.01	2075.1
743.195	2028
743.38	1989.09
743.565	2091.49
743.75	2021.86
743.935	1974.75
744.12	2050.53
744.305	1833.44
744.49	1886.69
744.675	2023.91
744.86	1991.14
745.045	1878.5
745.23	1901.03
745.415	1944.03
745.6	2019.81
745.785	1894.88
745.97	1919.46
746.155	1903.07
746.34	1868.26
746.525	1870.31
746.71	1837.54
746.895	1864.16
747.079	1733.09
747.264	1796.58
747.449	1817.06
747.634	1790.44
747.819	1800.68
748.003	1853.92
748.188	1706.47
748.373	1804.77
748.557	1837.54
748.742	1747.43
748.927	1735.14
749.111	1690.09
749.296	1640.93
749.481	1673.7
749.665	1733.09
749.85	1710.57
750.034	1579.5
750.219	1614.31
750.404	1485.29
750.588	1546.73
750.773	1575.4
750.957	1591.78
751.141	1714.66
751.326	1659.37
751.51	1642.98
751.695	1567.21
751.879	1599.98
752.064	1677.8
752.248	1528.3
752.432	1520.1
752.617	1483.24
752.801	1544.68
752.985	1542.63
753.17	1563.11
753.354	1448.43
753.538	1429.99
753.722	1407.47
753.907	1401.32
754.091	1350.12
754.275	1399.27
754.459	1350.12
754.643	1501.67
754.828	1423.85
755.012	1309.16
755.196	1327.6
755.38	1223.15
755.564	1346.03
755.748	1376.75
755.932	1376.75
756.116	1272.3
756.3	1417.71
756.484	1395.18
756.668	1286.64
756.852	1290.73
757.036	1288.68
757.22	1235.44
757.404	1137.13
757.588	1294.83
757.772	1249.77
757.956	1126.89
758.14	1176.05
758.323	1231.34
758.507	1210.86
758.691	1151.47
758.875	1233.39
759.059	1262.06
759.242	1202.67
759.426	1174
759.61	1157.61
759.794	1133.04
759.977	1087.98
760.161	1274.35
760.345	1122.8
760.528	1081.84
760.712	1085.94
760.895	1202.67
761.079	1100.27
761.263	1034.74
761.446	1026.54
761.63	1051.12
761.813	1110.51
761.997	1069.55
762.18	1075.7
762.364	1034.74
762.547	963.06
762.731	1059.31
762.914	1044.98
763.098	1036.78
763.281	911.86
763.464	989.68
763.648	1010.16
763.831	1034.74
764.015	961.01
764.198	993.78
764.381	993.78
764.564	952.82
764.748	975.35
764.931	973.3
765.114	956.91
765.297	1010.16
765.481	872.95
765.664	1042.93
765.847	973.3
766.03	936.43
766.213	870.9
766.397	946.67
766.58	883.19
766.763	969.2
766.946	946.67
767.129	936.43
767.312	920.05
767.495	913.91
767.678	952.82
767.861	868.85
768.044	913.91
768.227	969.2
768.41	924.15
768.593	846.32
768.776	915.95
768.959	924.15
769.142	895.47
769.324	801.27
769.507	895.47
769.69	854.51
769.873	829.94
770.056	971.25
770.239	829.94
770.421	831.99
770.604	903.67
770.787	1012.21
770.97	862.71
771.152	840.18
771.335	823.8
771.518	848.37
771.7	807.41
771.883	840.18
772.066	774.64
772.248	768.5
772.431	877.04
772.613	895.47
772.796	762.36
772.978	791.03
773.161	838.13
773.343	737.78
773.526	758.26
773.708	786.93
773.891	715.25
774.073	748.02
774.256	731.64
774.438	803.32
774.621	694.77
774.803	666.1
774.985	668.15
775.168	733.68
775.35	682.49
775.532	686.58
775.715	641.53
775.897	707.06
776.079	680.44
776.261	723.44
776.444	684.53
776.626	676.34
776.808	662.01
776.99	631.29
777.173	664.05
777.355	682.49
777.537	659.96
777.719	662.01
777.901	598.52
778.083	653.81
778.265	580.09
778.447	600.57
778.629	670.2
778.811	641.53
778.993	707.06
779.175	635.38
779.357	571.9
779.539	571.9
779.721	616.95
779.903	561.66
780.085	582.14
780.267	551.42
780.449	619
780.631	612.85
780.812	545.27
780.994	635.38
781.176	461.3
781.358	592.37
781.54	537.08
781.721	571.9
781.903	528.89
782.085	580.09
782.267	555.51
782.448	461.3
782.63	518.65
782.812	530.94
782.993	526.84
783.175	522.74
783.357	496.12
783.538	496.12
783.72	582.14
783.901	582.14
784.083	485.88
784.264	553.46
784.446	455.16
784.627	446.97
784.809	522.74
784.99	494.07
785.172	580.09
785.353	416.25
785.535	557.56
785.716	479.74
785.897	473.59
786.079	426.49
786.26	385.53
786.441	453.11
786.623	385.53
786.804	424.44
786.985	422.39
787.167	440.83
787.348	510.46
787.529	426.49
787.71	440.83
787.891	547.32
788.073	360.95
788.254	381.43
788.435	416.25
788.616	446.97
788.797	371.19
788.978	356.86
789.159	379.39
789.34	471.54
789.522	383.48
789.703	453.11
789.884	340.47
790.065	334.33
790.246	399.87
790.427	358.91
790.607	459.26
790.788	391.67
790.969	317.95
791.15	354.81
791.331	334.33
791.512	373.24
791.693	260.6
791.874	403.96
792.054	322.04
792.235	469.5
792.416	381.43
792.597	291.32
792.778	313.85
792.958	326.14
793.139	340.47
793.32	360.95
793.5	272.89
793.681	342.52
793.862	301.56
794.042	397.82
794.223	291.32
794.404	281.08
794.584	344.57
794.765	317.95
794.945	295.42
795.126	272.89
795.306	389.63
795.487	395.77
795.667	291.32
795.848	301.56
796.028	223.74
796.209	289.28
796.389	242.17
796.57	307.71
796.75	266.75
796.93	236.03
797.111	291.32
797.291	315.9
797.471	268.8
797.652	264.7
797.832	289.28
798.012	330.23
798.192	266.75
798.373	225.79
798.553	270.84
798.733	295.42
798.913	250.36
799.093	199.16
799.274	223.74
799.454	215.55
799.634	250.36
799.814	223.74
799.994	260.6
800.174	250.36
800.354	283.13
800.534	178.69
800.714	285.18
800.894	311.8
801.074	281.08
801.254	242.17
801.434	274.94
801.614	272.89
801.794	211.45
801.974	748.02
802.154	178.69
802.334	211.45
802.514	195.07
802.693	254.46
802.873	258.56
803.053	297.47
803.233	219.64
803.413	215.55
803.592	213.5
803.772	231.93
803.952	266.75
804.131	233.98
804.311	317.95
804.491	188.93
804.67	156.16
804.85	184.83
805.03	313.85
805.209	229.88
805.389	209.4
805.568	225.79
805.748	242.17
805.928	160.25
806.107	223.74
806.287	248.32
806.466	158.21
806.646	184.83
806.825	168.45
807.004	172.54
807.184	221.69
807.363	180.73
807.543	264.7
807.722	162.3
807.901	172.54
808.081	176.64
808.26	127.49
808.439	199.16
808.619	201.21
808.798	137.73
808.977	141.82
809.156	164.35
809.336	141.82
809.515	231.93
809.694	150.01
809.873	217.6
810.052	182.78
810.231	193.02
810.411	207.36
810.59	219.64
810.769	174.59
810.948	141.82
811.127	162.3
811.306	229.88
811.485	156.16
811.664	190.97
811.843	184.83
812.022	209.4
812.201	150.01
812.38	172.54
812.559	158.21
812.737	223.74
812.916	64
813.095	160.25
813.274	137.73
813.453	203.26
813.632	141.82
813.811	205.31
813.989	176.64
814.168	190.97
814.347	127.49
814.526	137.73
814.704	190.97
814.883	272.89
815.062	125.44
815.24	205.31
815.419	78.33
815.598	152.06
815.776	166.4
815.955	109.05
816.133	119.29
816.312	145.92
816.49	195.07
816.669	133.63
816.847	188.93
817.026	137.73
817.204	84.48
817.383	141.82
817.561	86.53
817.74	129.53
817.918	147.97
818.097	199.16
818.275	176.64
818.453	86.53
818.632	160.25
818.81	199.16
818.988	133.63
819.167	107.01
819.345	152.06
819.523	150.01
819.701	166.4
819.879	156.16
820.058	68.09
820.236	141.82
820.414	137.73
820.592	133.63
820.77	76.29
820.948	184.83
821.127	82.43
821.305	92.67
821.483	61.95
821.661	150.01
821.839	113.15
822.017	182.78
822.195	100.86
822.373	160.25
822.551	143.87
822.729	160.25
822.907	-1.54
823.085	199.16
823.262	135.68
823.44	84.48
823.618	35.33
823.796	162.3
823.974	141.82
824.152	143.87
824.329	129.53
824.507	141.82
824.685	111.1
824.863	68.09
825.04	201.21
825.218	143.87
825.396	102.91
825.574	141.82
825.751	121.34
825.929	137.73
826.107	150.01
826.284	94.72
826.462	182.78
826.639	88.57
826.817	133.63
826.994	82.43
827.172	80.38
827.349	135.68
827.527	100.86
827.704	137.73
827.882	154.11
828.059	78.33
828.237	111.1
828.414	68.09
828.591	88.57
828.769	78.33
828.946	84.48
829.124	96.77
829.301	139.77
829.478	111.1
829.655	74.24
829.833	137.73
830.01	37.38
830.187	125.44
830.364	104.96
830.542	72.19
830.719	147.97
830.896	129.53
831.073	121.34
831.25	84.48
831.427	88.57
831.604	131.58
831.782	143.87
831.959	55.81
832.136	96.77
832.313	133.63
832.49	41.47
832.667	70.14
832.844	68.09
833.021	156.16
833.198	55.81
833.374	23.04
833.551	125.44
833.728	68.09
833.905	125.44
834.082	41.47
834.259	137.73
834.436	76.29
834.612	43.52
834.789	133.63
834.966	59.9
835.143	109.05
835.319	84.48
835.496	80.38
835.673	94.72
835.85	86.53
836.026	78.33
836.203	68.09
836.38	4.61
836.556	135.68
836.733	150.01
836.909	119.29
837.086	31.23
837.262	96.77
837.439	66.05
837.616	117.25
837.792	84.48
837.968	111.1
838.145	70.14
838.321	102.91
838.498	117.25
838.674	109.05
838.851	64
839.027	111.1
839.203	104.96
839.38	109.05
839.556	115.2
839.732	84.48
839.909	119.29
840.085	92.67
840.261	80.38
840.437	37.38
840.614	88.57
840.79	166.4
840.966	111.1
841.142	43.52
841.318	72.19
841.494	125.44
841.671	133.63
841.847	53.76
842.023	49.66
842.199	35.33
842.375	133.63
842.551	57.86
842.727	2.56
842.903	102.91
843.079	20.99
843.255	102.91
843.431	-5.63
843.607	117.25
843.783	12.8
843.959	72.19
844.134	115.2
844.31	111.1
844.486	68.09
844.662	51.71
844.838	53.76
845.013	178.69
845.189	78.33
845.365	39.42
845.541	80.38
845.716	92.67
845.892	51.71
846.068	80.38
846.244	10.75
846.419	84.48
846.595	47.62
846.77	45.57
846.946	53.76
847.122	-17.92
847.297	125.44
847.473	94.72
847.648	-22.02
847.824	92.67
847.999	43.52
848.175	27.14
848.35	119.29
848.526	109.05
848.701	18.94
848.876	90.62
849.052	104.96
849.227	31.23
849.403	109.05
849.578	66.05
849.753	115.2
849.929	74.24
850.104	-13.82
850.279	53.76
850.454	80.38
850.63	61.95
850.805	104.96
850.98	119.29
851.155	-7.68
851.33	16.9
851.505	47.62
851.681	59.9
851.856	31.23
852.031	78.33
852.206	117.25
852.381	18.94
852.556	113.15
852.731	102.91
852.906	100.86
853.081	18.94
853.256	109.05
853.431	-1.54
853.606	31.23
853.781	-5.63
853.956	43.52
854.131	57.86
854.305	10.75
854.48	49.66
854.655	-15.87
854.83	-7.68
855.005	23.04
855.18	70.14
855.354	80.38
855.529	61.95
855.704	74.24
855.879	78.33
856.053	27.14
856.228	59.9
856.403	-36.35
856.577	94.72
856.752	-9.73
856.926	27.14
857.101	27.14
857.276	-7.68
857.45	37.38
857.625	78.33
857.799	-11.78
857.974	86.53
858.148	8.7
858.323	94.72
858.497	31.23
858.672	74.24
858.846	57.86
859.02	27.14
859.195	78.33
859.369	92.67
859.543	68.09
859.718	68.09
859.892	78.33
860.066	2.56
860.241	51.71
860.415	51.71
860.589	92.67
860.763	35.33
860.938	39.42
861.112	10.75
861.286	0.51
861.46	88.57
861.634	2.56
861.808	72.19
861.982	72.19
862.157	80.38
862.331	94.72
862.505	49.66
862.679	6.66
862.853	4.61
863.027	33.28
863.201	35.33
863.375	55.81
863.549	55.81
863.722	88.57
863.896	92.67
864.07	35.33
864.244	72.19
864.418	-19.97
864.592	61.95
864.766	74.24
864.939	4.61
865.113	10.75
865.287	27.14
865.461	4.61
865.634	59.9
865.808	45.57
865.982	-11.78
866.156	78.33
866.329	4.61
866.503	53.76
866.676	-19.97
866.85	88.57
867.024	78.33
867.197	92.67
867.371	76.29
867.544	14.85
867.718	-50.69
867.891	80.38
868.065	43.52
868.238	47.62
868.412	47.62
868.585	39.42
868.759	-3.58
868.932	57.86
869.105	51.71
869.279	25.09
869.452	6.66
869.625	4.61
869.799	-5.63
869.972	51.71
870.145	117.25
870.319	59.9
870.492	14.85
870.665	43.52
870.838	-17.92
871.011	-5.63
871.185	10.75
871.358	59.9
871.531	41.47
871.704	25.09
871.877	35.33
872.05	51.71
872.223	-5.63
872.396	31.23
872.569	47.62
872.742	31.23
872.915	2.56
873.088	2.56
873.261	-11.78
873.434	-9.73
873.607	113.15
873.78	43.52
873.953	45.57
874.126	6.66
874.299	84.48
874.471	-32.26
874.644	80.38
874.817	45.57
874.99	117.25
875.163	45.57
875.335	12.8
875.508	53.76
875.681	64
875.853	39.42
876.026	-3.58
876.199	29.18
876.371	80.38
876.544	39.42
876.717	37.38
876.889	64
877.062	39.42
877.234	4.61
877.407	104.96
877.579	20.99
877.752	20.99
877.924	35.33
878.097	25.09
878.269	90.62
878.442	102.91
878.614	109.05
878.786	109.05
878.959	76.29
879.131	20.99
879.303	4.61
879.476	49.66
879.648	59.9
879.82	109.05
879.993	-22.02
880.165	51.71
880.337	-46.59
880.509	-13.82
880.681	2.56
880.854	25.09
881.026	10.75
881.198	47.62
881.37	35.33
881.542	47.62
881.714	12.8
881.886	27.14
882.058	51.71
882.23	2.56
882.402	-46.59
882.574	47.62
882.746	4.61
882.918	37.38
883.09	31.23
883.262	-17.92
883.434	51.71
883.606	2.56
883.778	51.71
883.95	57.86
884.122	-5.63
884.293	80.38
884.465	45.57
884.637	125.44
884.809	-1.54
884.98	43.52
885.152	76.29
885.324	55.81
885.496	-19.97
885.667	43.52
885.839	-7.68
886.011	88.57
886.182	70.14
886.354	84.48
886.525	25.09
886.697	51.71
886.869	49.66
887.04	-13.82
887.212	109.05
887.383	82.43
887.555	-3.58
887.726	39.42
887.897	43.52
888.069	78.33
888.24	72.19
888.412	-40.45
888.583	-46.59
888.754	53.76
888.926	-24.06
889.097	37.38
889.268	16.9
889.44	45.57
889.611	-11.78
889.782	37.38
889.953	14.85
890.125	45.57
890.296	-73.21
890.467	-13.82
890.638	53.76
890.809	4.61
890.98	-3.58
891.151	94.72
891.323	23.04
891.494	18.94
891.665	109.05
891.836	59.9
892.007	2.56
892.178	10.75
892.349	29.18
892.52	-5.63
892.691	12.8
892.862	2.56
893.032	12.8
893.203	-58.88
893.374	8.7
893.545	64
893.716	94.72
893.887	109.05
894.057	35.33
894.228	31.23
894.399	8.7
894.57	70.14
894.74	-17.92
894.911	51.71
895.082	12.8
895.253	39.42
895.423	-19.97
895.594	84.48
895.764	70.14
895.935	35.33
896.106	45.57
896.276	-22.02
896.447	43.52
896.617	8.7
896.788	35.33
896.958	37.38
897.129	-44.54
897.299	74.24
897.47	68.09
897.64	143.87
897.81	35.33
897.981	43.52
898.151	29.18
898.322	107.01
898.492	59.9
898.662	4.61
898.832	-28.16
899.003	64
899.173	-54.78
899.343	8.7
899.513	8.7
