Data from USB4F104151__127__14-19-00-698.txt Node

Date: Thu Mar 13 14:19:00 EDT 2025
User: louis
Spectrometer: USB4F10415
Trigger mode: 4
Integration Time (sec): 2.000000E-2
Scans to average: 1
Electric dark correction enabled: true
Nonlinearity correction enabled: false
Boxcar width: 0
XAxis mode: Wavelengths
Number of Pixels in Spectrum: 3648
>>>>>Begin Spectral Data<<<<<
178.204	-105.3
178.424	-105.3
178.644	-105.3
178.864	-74.58
179.084	-50
179.304	-15.19
179.524	-54.1
179.744	-4.95
179.964	19.63
180.184	62.63
180.404	9.39
180.624	9.39
180.844	-50
181.064	7.34
181.283	23.72
181.503	-21.33
181.723	13.48
181.943	-41.81
182.163	130.22
182.383	103.59
182.602	83.11
182.822	9.39
183.042	-45.91
183.262	25.77
183.482	40.11
183.701	-17.24
183.921	25.77
184.141	-72.53
184.361	17.58
184.58	36.01
184.8	-9.05
185.02	-58.2
185.239	76.97
185.459	7.34
185.679	-0.85
185.898	-84.82
186.118	25.77
186.338	81.07
186.557	-50
186.777	-25.43
186.997	44.2
187.216	-86.87
187.436	91.31
187.655	42.15
187.875	7.34
188.095	64.68
188.314	17.58
188.534	109.74
188.753	-37.72
188.973	29.87
189.192	7.34
189.412	-11.09
189.631	-39.76
189.851	31.91
190.07	23.72
190.29	-15.19
190.509	46.25
190.729	-41.81
190.948	-4.95
191.168	74.92
191.387	105.64
191.607	13.48
191.826	40.11
192.045	9.39
192.265	52.39
192.484	52.39
192.704	-45.91
192.923	-4.95
193.142	122.02
193.362	9.39
193.581	66.73
193.8	36.01
194.02	95.4
194.239	46.25
194.458	-27.48
194.678	-0.85
194.897	15.53
195.116	-7
195.335	15.53
195.555	15.53
195.774	-23.38
195.993	-13.14
196.212	46.25
196.432	-17.24
196.651	3.24
196.87	19.63
197.089	66.73
197.308	52.39
197.528	19.63
197.747	-17.24
197.966	33.96
198.185	72.87
198.404	15.53
198.623	27.82
198.842	66.73
199.062	42.15
199.281	15.53
199.5	3.24
199.719	-23.38
199.938	7.34
200.157	76.97
200.376	15.53
200.595	130.22
200.814	27.82
201.033	40.11
201.252	44.2
201.471	54.44
201.69	29.87
201.909	-23.38
202.128	5.29
202.347	87.21
202.566	40.11
202.785	-41.81
203.004	-21.33
203.223	72.87
203.442	-29.52
203.661	-60.24
203.879	1.19
204.098	25.77
204.317	33.96
204.536	19.63
204.755	74.92
204.974	40.11
205.193	44.2
205.411	64.68
205.63	44.2
205.849	40.11
206.068	5.29
206.287	44.2
206.505	-13.14
206.724	15.53
206.943	5.29
207.162	-23.38
207.381	21.67
207.599	-39.76
207.818	58.54
208.037	23.72
208.255	5.29
208.474	36.01
208.693	99.5
208.911	15.53
209.13	134.31
209.349	-29.52
209.567	54.44
209.786	48.3
210.005	72.87
210.223	-21.33
210.442	33.96
210.661	-39.76
210.879	60.59
211.098	5.29
211.316	-0.85
211.535	89.26
211.753	44.2
211.972	23.72
212.191	19.63
212.409	48.3
212.628	23.72
212.846	-27.48
213.065	85.16
213.283	64.68
213.502	3.24
213.72	-13.14
213.938	9.39
214.157	-93.01
214.375	50.35
214.594	31.91
214.812	72.87
215.031	-25.43
215.249	19.63
215.467	76.97
215.686	68.78
215.904	103.59
216.122	31.91
216.341	-19.29
216.559	1.19
216.778	89.26
216.996	27.82
217.214	-52.05
217.432	-58.2
217.651	7.34
217.869	-9.05
218.087	-17.24
218.306	-7
218.524	93.35
218.742	-70.48
218.96	62.63
219.179	52.39
219.397	17.58
219.615	113.83
219.833	-2.9
220.051	1.19
220.27	31.91
220.488	7.34
220.706	-54.1
220.924	-15.19
221.142	-9.05
221.36	27.82
221.578	50.35
221.796	-0.85
222.015	-0.85
222.233	19.63
222.451	5.29
222.669	-54.1
222.887	40.11
223.105	56.49
223.323	-17.24
223.541	-0.85
223.759	85.16
223.977	3.24
224.195	76.97
224.413	-0.85
224.631	56.49
224.849	72.87
225.067	103.59
225.285	40.11
225.503	-23.38
225.721	-125.78
225.939	-2.9
226.157	21.67
226.375	74.92
226.592	3.24
226.81	-64.34
227.028	81.07
227.246	60.59
227.464	23.72
227.682	52.39
227.9	66.73
228.117	-23.38
228.335	-13.14
228.553	3.24
228.771	101.55
228.989	64.68
229.206	-17.24
229.424	-33.62
229.642	27.82
229.86	-9.05
230.077	27.82
230.295	38.06
230.513	21.67
230.731	1.19
230.948	50.35
231.166	7.34
231.384	19.63
231.601	-41.81
231.819	48.3
232.037	-17.24
232.254	-29.52
232.472	-7
232.689	-39.76
232.907	101.55
233.125	-50
233.342	-52.05
233.56	3.24
233.777	15.53
233.995	56.49
234.213	138.41
234.43	40.11
234.648	44.2
234.865	7.34
235.083	72.87
235.3	66.73
235.518	48.3
235.735	9.39
235.953	72.87
236.17	21.67
236.388	7.34
236.605	81.07
236.822	81.07
237.04	25.77
237.257	19.63
237.475	-17.24
237.692	40.11
237.909	-27.48
238.127	31.91
238.344	1.19
238.562	21.67
238.779	38.06
238.996	1.19
239.214	60.59
239.431	33.96
239.648	31.91
239.865	107.69
240.083	-25.43
240.3	27.82
240.517	-56.15
240.735	1.19
240.952	-0.85
241.169	60.59
241.386	62.63
241.603	31.91
241.821	17.58
242.038	79.02
242.255	99.5
242.472	7.34
242.689	72.87
242.907	66.73
243.124	11.43
243.341	-19.29
243.558	-58.2
243.775	-23.38
243.992	-31.57
244.209	15.53
244.426	58.54
244.643	31.91
244.86	7.34
245.078	46.25
245.295	64.68
245.512	97.45
245.729	64.68
245.946	-17.24
246.163	9.39
246.38	40.11
246.597	40.11
246.814	89.26
247.031	40.11
247.248	76.97
247.464	-23.38
247.681	11.43
247.898	11.43
248.115	66.73
248.332	-23.38
248.549	42.15
248.766	79.02
248.983	31.91
249.2	9.39
249.417	-9.05
249.633	64.68
249.85	68.78
250.067	50.35
250.284	-19.29
250.501	48.3
250.717	33.96
250.934	-37.72
251.151	25.77
251.368	40.11
251.585	93.35
251.801	52.39
252.018	-29.52
252.235	50.35
252.451	-29.52
252.668	72.87
252.885	31.91
253.102	9.39
253.318	-29.52
253.535	-33.62
253.752	17.58
253.968	-0.85
254.185	-2.9
254.401	-41.81
254.618	-11.09
254.835	-4.95
255.051	31.91
255.268	15.53
255.484	83.11
255.701	-4.95
255.917	3.24
256.134	25.77
256.351	40.11
256.567	-62.29
256.784	85.16
257	-17.24
257.217	48.3
257.433	42.15
257.65	44.2
257.866	-31.57
258.082	-25.43
258.299	1.19
258.515	25.77
258.732	31.91
258.948	31.91
259.165	89.26
259.381	23.72
259.597	44.2
259.814	-17.24
260.03	-35.67
260.246	48.3
260.463	17.58
260.679	23.72
260.895	9.39
261.112	-21.33
261.328	9.39
261.544	23.72
261.761	48.3
261.977	-0.85
262.193	21.67
262.409	15.53
262.626	107.69
262.842	-25.43
263.058	83.11
263.274	122.02
263.49	15.53
263.707	31.91
263.923	-33.62
264.139	9.39
264.355	25.77
264.571	44.2
264.787	58.54
265.004	60.59
265.22	60.59
265.436	-9.05
265.652	81.07
265.868	-27.48
266.084	-27.48
266.3	3.24
266.516	-17.24
266.732	52.39
266.948	48.3
267.164	29.87
267.38	70.83
267.596	5.29
267.812	60.59
268.028	23.72
268.244	-31.57
268.46	36.01
268.676	-9.05
268.892	-13.14
269.108	-54.1
269.324	-19.29
269.54	-15.19
269.756	122.02
269.972	42.15
270.188	-9.05
270.403	-9.05
270.619	-0.85
270.835	-0.85
271.051	50.35
271.267	31.91
271.483	11.43
271.698	27.82
271.914	44.2
272.13	21.67
272.346	15.53
272.562	9.39
272.777	-45.91
272.993	-56.15
273.209	15.53
273.425	23.72
273.64	48.3
273.856	-50
274.072	15.53
274.287	81.07
274.503	15.53
274.719	42.15
274.934	31.91
275.15	-41.81
275.366	-45.91
275.581	-9.05
275.797	-74.58
276.012	17.58
276.228	7.34
276.444	-35.67
276.659	-9.05
276.875	-31.57
277.09	48.3
277.306	-37.72
277.521	48.3
277.737	9.39
277.952	91.31
278.168	66.73
278.383	-25.43
278.599	-47.96
278.814	7.34
279.03	52.39
279.245	17.58
279.461	-33.62
279.676	52.39
279.892	-15.19
280.107	-19.29
280.322	-13.14
280.538	-33.62
280.753	-15.19
280.969	-9.05
281.184	33.96
281.399	3.24
281.615	21.67
281.83	-15.19
282.045	-9.05
282.26	50.35
282.476	44.2
282.691	15.53
282.906	54.44
283.122	-60.24
283.337	31.91
283.552	89.26
283.767	9.39
283.983	31.91
284.198	42.15
284.413	15.53
284.628	-41.81
284.843	-15.19
285.058	42.15
285.274	72.87
285.489	44.2
285.704	23.72
285.919	21.67
286.134	48.3
286.349	-43.86
286.564	-11.09
286.779	25.77
286.995	38.06
287.21	52.39
287.425	48.3
287.64	33.96
287.855	91.31
288.07	-7
288.285	38.06
288.5	119.98
288.715	50.35
288.93	87.21
289.145	91.31
289.36	-35.67
289.575	27.82
289.79	64.68
290.004	21.67
290.219	-2.9
290.434	-2.9
290.649	5.29
290.864	-25.43
291.079	48.3
291.294	-7
291.509	-39.76
291.724	54.44
291.938	-33.62
292.153	7.34
292.368	23.72
292.583	-21.33
292.798	122.02
293.012	15.53
293.227	15.53
293.442	1.19
293.657	29.87
293.871	66.73
294.086	95.4
294.301	58.54
294.516	58.54
294.73	42.15
294.945	68.78
295.16	27.82
295.374	99.5
295.589	97.45
295.804	29.87
296.018	64.68
296.233	-9.05
296.447	40.11
296.662	-37.72
296.877	15.53
297.091	11.43
297.306	31.91
297.52	-33.62
297.735	21.67
297.949	89.26
298.164	72.87
298.378	23.72
298.593	23.72
298.807	68.78
299.022	93.35
299.236	74.92
299.451	36.01
299.665	74.92
299.88	-23.38
300.094	48.3
300.309	56.49
300.523	50.35
300.737	19.63
300.952	83.11
301.166	58.54
301.381	-11.09
301.595	-13.14
301.809	21.67
302.024	56.49
302.238	11.43
302.452	101.55
302.667	-17.24
302.881	48.3
303.095	31.91
303.309	56.49
303.524	-4.95
303.738	-4.95
303.952	42.15
304.166	21.67
304.381	-82.77
304.595	1.19
304.809	-11.09
305.023	-11.09
305.237	50.35
305.452	7.34
305.666	66.73
305.88	31.91
306.094	9.39
306.308	58.54
306.522	9.39
306.736	99.5
306.95	79.02
307.164	50.35
307.379	23.72
307.593	15.53
307.807	36.01
308.021	79.02
308.235	-4.95
308.449	-9.05
308.663	11.43
308.877	117.93
309.091	42.15
309.305	-2.9
309.519	15.53
309.733	48.3
309.947	27.82
310.161	9.39
310.374	7.34
310.588	52.39
310.802	15.53
311.016	42.15
311.23	52.39
311.444	-39.76
311.658	40.11
311.872	40.11
312.085	31.91
312.299	85.16
312.513	-54.1
312.727	44.2
312.941	3.24
313.154	17.58
313.368	93.35
313.582	40.11
313.796	3.24
314.009	-0.85
314.223	-21.33
314.437	7.34
314.651	-0.85
314.864	48.3
315.078	17.58
315.292	-0.85
315.505	-0.85
315.719	52.39
315.933	68.78
316.146	-4.95
316.36	-0.85
316.573	72.87
316.787	-27.48
317.001	19.63
317.214	23.72
317.428	97.45
317.641	-45.91
317.855	25.77
318.068	-35.67
318.282	-25.43
318.495	74.92
318.709	72.87
318.922	62.63
319.136	115.88
319.349	56.49
319.563	11.43
319.776	62.63
319.99	-17.24
320.203	40.11
320.417	7.34
320.63	-82.77
320.843	105.64
321.057	-29.52
321.27	81.07
321.483	48.3
321.697	122.02
321.91	23.72
322.124	-13.14
322.337	109.74
322.55	-47.96
322.763	13.48
322.977	38.06
323.19	-25.43
323.403	-60.24
323.617	33.96
323.83	17.58
324.043	-0.85
324.256	15.53
324.469	31.91
324.683	25.77
324.896	109.74
325.109	-17.24
325.322	-17.24
325.535	46.25
325.748	50.35
325.962	31.91
326.175	-33.62
326.388	64.68
326.601	-13.14
326.814	23.72
327.027	38.06
327.24	122.02
327.453	-23.38
327.666	91.31
327.879	99.5
328.092	-0.85
328.305	19.63
328.518	27.82
328.731	17.58
328.944	40.11
329.157	3.24
329.37	99.5
329.583	42.15
329.796	130.22
330.009	25.77
330.222	29.87
330.435	105.64
330.648	33.96
330.861	97.45
331.073	40.11
331.286	58.54
331.499	89.26
331.712	7.34
331.925	-4.95
332.138	-13.14
332.35	27.82
332.563	40.11
332.776	66.73
332.989	9.39
333.202	-25.43
333.414	-33.62
333.627	-23.38
333.84	-56.15
334.053	74.92
334.265	-37.72
334.478	60.59
334.691	15.53
334.903	-13.14
335.116	-21.33
335.329	31.91
335.541	-0.85
335.754	23.72
335.966	-4.95
336.179	105.64
336.392	7.34
336.604	15.53
336.817	50.35
337.029	52.39
337.242	91.31
337.454	25.77
337.667	66.73
337.88	66.73
338.092	-17.24
338.305	48.3
338.517	79.02
338.729	89.26
338.942	36.01
339.154	33.96
339.367	-0.85
339.579	56.49
339.792	-45.91
340.004	-0.85
340.217	36.01
340.429	97.45
340.641	40.11
340.854	23.72
341.066	-0.85
341.278	74.92
341.491	64.68
341.703	74.92
341.915	-7
342.128	85.16
342.34	15.53
342.552	52.39
342.764	23.72
342.977	23.72
343.189	17.58
343.401	44.2
343.613	-33.62
343.826	79.02
344.038	23.72
344.25	17.58
344.462	-23.38
344.674	54.44
344.886	56.49
345.099	72.87
345.311	46.25
345.523	-0.85
345.735	19.63
345.947	60.59
346.159	50.35
346.371	128.17
346.583	44.2
346.795	99.5
347.007	33.96
347.219	5.29
347.431	-27.48
347.643	74.92
347.855	56.49
348.067	-0.85
348.279	-72.53
348.491	15.53
348.703	31.91
348.915	31.91
349.127	66.73
349.339	60.59
349.551	25.77
349.763	27.82
349.975	23.72
350.187	56.49
350.399	50.35
350.61	40.11
350.822	15.53
351.034	68.78
351.246	72.87
351.458	89.26
351.669	52.39
351.881	52.39
352.093	46.25
352.305	64.68
352.517	-9.05
352.728	-15.19
352.94	74.92
353.152	85.16
353.363	-45.91
353.575	9.39
353.787	48.3
353.999	40.11
354.21	29.87
354.422	7.34
354.633	7.34
354.845	97.45
355.057	9.39
355.268	15.53
355.48	107.69
355.692	-9.05
355.903	27.82
356.115	33.96
356.326	23.72
356.538	56.49
356.749	79.02
356.961	64.68
357.172	140.46
357.384	9.39
357.595	72.87
357.807	7.34
358.018	-11.09
358.23	60.59
358.441	-15.19
358.653	64.68
358.864	58.54
359.075	-0.85
359.287	62.63
359.498	103.59
359.709	68.78
359.921	38.06
360.132	23.72
360.344	29.87
360.555	-0.85
360.766	-4.95
360.977	-13.14
361.189	66.73
361.4	-21.33
361.611	76.97
361.823	3.24
362.034	19.63
362.245	27.82
362.456	64.68
362.667	87.21
362.879	44.2
363.09	68.78
363.301	81.07
363.512	38.06
363.723	44.2
363.935	-0.85
364.146	74.92
364.357	66.73
364.568	36.01
364.779	56.49
364.99	72.87
365.201	25.77
365.412	3.24
365.623	-25.43
365.834	81.07
366.045	54.44
366.256	11.43
366.467	44.2
366.678	17.58
366.889	48.3
367.1	101.55
367.311	11.43
367.522	7.34
367.733	7.34
367.944	17.58
368.155	-41.81
368.366	19.63
368.577	48.3
368.788	-7
368.999	91.31
369.209	44.2
369.42	132.26
369.631	154.79
369.842	68.78
370.053	42.15
370.264	33.96
370.474	-37.72
370.685	48.3
370.896	5.29
371.107	48.3
371.317	105.64
371.528	54.44
371.739	48.3
371.95	11.43
372.16	15.53
372.371	23.72
372.582	-2.9
372.792	85.16
373.003	-7
373.214	-13.14
373.424	140.46
373.635	5.29
373.846	54.44
374.056	46.25
374.267	9.39
374.477	93.35
374.688	72.87
374.898	-47.96
375.109	31.91
375.319	-29.52
375.53	83.11
375.74	105.64
375.951	31.91
376.161	111.78
376.372	105.64
376.582	17.58
376.793	64.68
377.003	9.39
377.214	-56.15
377.424	58.54
377.635	52.39
377.845	56.49
378.055	68.78
378.266	33.96
378.476	9.39
378.686	9.39
378.897	25.77
379.107	50.35
379.317	36.01
379.528	42.15
379.738	81.07
379.948	23.72
380.158	36.01
380.369	48.3
380.579	42.15
380.789	62.63
380.999	113.83
381.21	68.78
381.42	72.87
381.63	-21.33
381.84	7.34
382.05	85.16
382.261	48.3
382.471	68.78
382.681	81.07
382.891	89.26
383.101	91.31
383.311	19.63
383.521	74.92
383.731	83.11
383.941	101.55
384.151	72.87
384.361	-9.05
384.571	7.34
384.781	50.35
384.991	115.88
385.201	107.69
385.411	83.11
385.621	72.87
385.831	11.43
386.041	99.5
386.251	3.24
386.461	40.11
386.671	162.98
386.881	-0.85
387.091	76.97
387.301	46.25
387.511	31.91
387.72	64.68
387.93	3.24
388.14	23.72
388.35	27.82
388.56	70.83
388.769	97.45
388.979	89.26
389.189	-0.85
389.399	81.07
389.609	31.91
389.818	60.59
390.028	-29.52
390.238	89.26
390.447	15.53
390.657	-4.95
390.867	50.35
391.076	13.48
391.286	9.39
391.496	109.74
391.705	60.59
391.915	74.92
392.125	89.26
392.334	21.67
392.544	76.97
392.753	54.44
392.963	79.02
393.172	109.74
393.382	64.68
393.591	103.59
393.801	48.3
394.01	97.45
394.22	56.49
394.429	36.01
394.639	58.54
394.848	66.73
395.058	101.55
395.267	89.26
395.477	122.02
395.686	171.18
395.895	56.49
396.105	140.46
396.314	31.91
396.524	81.07
396.733	74.92
396.942	99.5
397.152	115.88
397.361	105.64
397.57	27.82
397.78	205.99
397.989	113.83
398.198	128.17
398.407	50.35
398.617	7.34
398.826	60.59
399.035	105.64
399.244	52.39
399.453	148.65
399.663	122.02
399.872	56.49
400.081	72.87
400.29	48.3
400.499	72.87
400.708	126.12
400.917	68.78
401.127	58.54
401.336	70.83
401.545	138.41
401.754	83.11
401.963	113.83
402.172	21.67
402.381	81.07
402.59	97.45
402.799	109.74
403.008	115.88
403.217	95.4
403.426	56.49
403.635	101.55
403.844	89.26
404.053	122.02
404.262	210.09
404.471	140.46
404.68	122.02
404.888	154.79
405.097	113.83
405.306	140.46
405.515	251.05
405.724	156.84
405.933	162.98
406.142	167.08
406.35	177.32
406.559	285.86
406.768	117.93
406.977	191.66
407.185	195.75
407.394	187.56
407.603	136.36
407.812	212.14
408.02	179.37
408.229	195.75
408.438	162.98
408.646	156.84
408.855	154.79
409.064	371.88
409.272	226.47
409.481	261.29
409.69	246.95
409.898	242.85
410.107	267.43
410.315	261.29
410.524	255.14
410.733	314.53
410.941	265.38
411.15	359.59
411.358	382.12
411.567	449.7
411.775	353.45
411.984	455.84
412.192	445.6
412.401	369.83
412.609	437.41
412.818	437.41
413.026	539.81
413.234	416.93
413.443	457.89
413.651	466.08
413.86	517.28
414.068	552.1
414.276	576.67
414.485	580.77
414.693	599.2
414.901	703.65
415.11	709.79
415.318	591.01
415.526	687.26
415.734	726.18
415.943	756.9
416.151	763.04
416.359	795.81
416.567	785.57
416.776	857.25
416.984	861.34
417.192	847.01
417.4	945.31
417.608	906.4
417.817	928.92
418.025	1068.19
418.233	1047.71
418.441	1051.8
418.649	986.27
418.857	1117.34
419.065	1260.7
419.273	1166.49
419.481	1279.13
419.689	1313.94
419.897	1420.44
420.105	1375.38
420.313	1404.05
420.521	1571.99
420.729	1436.82
420.937	1621.14
421.145	1664.15
421.353	1621.14
421.561	1813.65
421.769	1811.6
421.977	1817.74
422.185	1883.28
422.393	1932.43
422.601	2139.27
422.809	2200.71
423.017	2096.27
423.224	2116.75
423.432	2337.93
423.64	2116.75
423.848	2559.11
424.056	2477.19
424.263	2665.6
424.471	2712.71
424.679	2655.36
424.887	2915.45
425.094	2866.3
425.302	2858.11
425.51	3048.57
425.718	3155.07
425.925	3107.96
426.133	3267.7
426.341	3544.18
426.548	3603.57
426.756	3587.19
426.964	3708.02
427.171	3980.4
427.379	3957.87
427.586	4031.6
427.794	4099.18
428.001	4381.8
428.209	4533.35
428.417	4402.28
428.624	4850.78
428.832	4891.74
429.039	4705.38
429.247	4805.73
429.454	5260.38
429.662	5506.13
429.869	5174.36
430.076	5610.58
430.284	5456.98
430.491	5588.05
430.699	6003.79
430.906	5925.97
431.114	6030.41
431.321	6249.55
431.528	6345.8
431.736	6650.95
431.943	7091.26
432.15	6892.61
432.358	6872.13
432.565	7408.7
432.772	7273.53
432.979	7662.65
433.187	7765.04
433.394	7892.02
433.601	8401.96
433.808	8354.86
434.016	8062
434.223	8789.03
434.43	9176.09
434.637	8856.61
434.844	9727
435.052	9868.31
435.259	9718.81
435.466	9874.45
435.673	9868.31
435.88	10363.92
436.087	10841.09
436.294	10966.02
436.501	10693.64
436.708	11019.27
436.915	11224.06
437.122	11723.77
437.329	11658.23
437.537	11920.37
437.743	12200.94
437.95	12016.63
438.157	12970.98
438.364	13155.3
438.571	13147.11
438.778	13247.46
438.985	14607.31
439.192	14248.91
439.399	14347.22
439.606	14220.24
439.813	14853.06
440.02	15793.08
440.227	15459.26
440.433	15270.85
440.64	15823.8
440.847	15702.97
441.054	16087.99
441.261	17087.4
441.467	17007.53
441.674	17318.82
441.881	18049.94
442.088	17963.93
442.294	17767.32
442.501	18162.58
442.708	18703.25
442.914	19043.21
443.121	19927.93
443.328	19426.18
443.534	20659.06
443.741	20358
443.948	20013.95
444.154	21230.44
444.361	21336.93
444.568	21437.28
444.774	21580.64
444.981	21412.71
445.187	22268.76
445.394	23253.83
445.6	23059.27
445.807	25326.38
446.013	23804.74
446.22	24853.3
446.426	25574.18
446.633	25598.76
446.839	26430.23
447.046	25197.35
447.252	26753.81
447.459	26987.28
447.665	26733.33
447.871	27857.67
448.078	29192.94
448.284	27777.79
448.491	28392.19
448.697	29616.87
448.903	30229.21
449.11	30290.65
449.316	29747.94
449.522	30278.36
449.728	31367.88
449.935	31101.65
450.141	31425.23
450.347	31924.93
450.553	30771.93
450.76	31382.22
450.966	32643.77
451.172	31961.79
451.378	32959.16
451.584	32334.53
451.791	33024.69
451.997	33114.8
452.203	33663.66
452.409	33258.16
452.615	33340.08
452.821	32025.28
453.027	31656.65
453.233	33714.86
453.44	32008.9
453.646	32262.85
453.852	32815.8
454.058	33731.24
454.264	32223.93
454.47	32983.73
454.676	32215.74
454.882	33372.85
455.088	30673.62
455.294	31120.08
455.5	31308.49
455.705	32217.79
455.911	30687.96
456.117	30233.31
456.323	29324.01
456.529	28250.88
456.735	29151.98
456.941	28613.37
457.147	28273.4
457.352	27585.29
457.558	27151.12
457.764	26882.83
457.97	26528.53
458.176	25957.15
458.381	25910.05
458.587	24730.42
458.793	24841.01
458.999	23657.28
459.204	25064.24
459.41	24603.44
459.616	22784.85
459.821	22856.53
460.027	22817.61
460.233	22217.56
460.438	21212.01
460.644	21504.87
460.85	20478.83
461.055	20335.48
461.261	19970.94
461.466	18617.23
461.672	18074.52
461.878	19671.93
462.083	18043.8
462.289	17865.63
462.494	17519.52
462.7	16847.79
462.905	16233.39
463.111	16997.29
463.316	17179.56
463.522	16804.78
463.727	16554.93
463.932	16389.04
464.138	16452.53
464.343	16677.8
464.549	15944.63
464.754	16427.95
464.959	16491.44
465.165	16196.53
465.37	15715.26
465.575	15145.92
465.781	15799.23
465.986	15666.11
466.191	15238.08
466.397	14920.65
466.602	14253.01
466.807	14986.18
467.012	14775.24
467.218	14908.36
467.423	14533.58
467.628	14447.57
467.833	15180.74
468.038	14699.47
468.244	14195.67
468.449	14816.2
468.654	14521.29
468.859	14291.92
469.064	14326.74
469.269	13568.99
469.474	13638.62
469.679	14001.11
469.885	13650.91
470.09	13657.05
470.295	13745.11
470.5	13257.7
470.705	13464.54
470.91	13239.26
471.115	12831.72
471.32	13229.02
471.525	13057
471.73	12757.99
471.935	12776.42
472.139	12344.3
472.344	12475.37
472.549	12329.97
472.754	12213.23
472.959	12016.63
473.164	11609.08
473.369	11863.03
473.574	12067.83
473.778	11936.76
473.983	11869.17
474.188	11639.8
474.393	11273.21
474.598	11328.51
474.802	11109.38
475.007	10957.83
475.212	11035.65
475.417	10826.76
475.621	10781.7
475.826	10955.78
476.031	10599.43
476.235	10255.37
476.44	10445.84
476.645	10216.46
476.849	10370.06
477.054	10292.24
477.259	9939.99
477.463	9950.23
477.668	9765.91
477.872	9948.18
478.077	9800.73
478.282	9362.46
478.486	9528.35
478.691	9397.28
478.895	9380.89
479.1	9108.51
479.304	9366.56
479.509	8727.59
479.713	9051.17
479.918	8928.29
480.122	8766.5
480.326	8887.33
480.531	8899.62
480.735	8766.5
480.94	8768.55
481.144	9010.21
481.348	8983.59
481.553	8815.65
481.757	8481.83
481.961	8627.24
482.166	8619.05
482.37	8776.74
482.574	8565.8
482.778	8645.67
482.983	8979.49
483.187	8690.73
483.391	8649.77
483.595	8760.36
483.8	8416.3
484.004	8545.32
484.208	8621.1
484.412	8410.15
484.616	8578.09
484.821	8676.39
485.025	8395.82
485.229	8692.77
485.433	8461.35
485.637	8518.7
485.841	8492.07
486.045	8727.59
486.249	8700.97
486.453	8291.37
486.657	8682.53
486.861	8555.56
487.065	8414.25
487.269	8553.51
487.473	8481.83
487.677	8707.11
487.881	8590.38
488.085	8559.66
488.289	8485.93
488.493	8672.29
488.697	8584.23
488.901	8608.81
489.105	8795.17
489.309	8612.9
489.512	8586.28
489.716	8879.14
489.92	8875.04
490.124	8617
490.328	8922.15
490.531	8674.34
490.735	8854.56
490.939	8782.88
491.143	8805.41
491.346	8827.94
491.55	9053.22
491.754	8909.86
491.958	9004.07
492.161	8797.22
492.365	9036.83
492.569	9055.26
492.772	9040.93
492.976	9040.93
493.18	9149.47
493.383	9053.22
493.587	9245.73
493.79	9667.61
493.994	9167.9
494.197	9387.04
494.401	9550.87
494.605	9540.63
494.808	9716.76
495.012	9616.41
495.215	9683.99
495.419	9767.96
495.622	9747.48
495.825	9690.13
496.029	10005.52
496.232	10263.57
496.436	10066.96
496.639	10247.18
496.843	10214.41
497.046	10523.66
497.249	10570.76
497.453	10699.78
497.656	10587.15
497.859	10787.85
498.063	10986.5
498.266	11285.5
498.469	11133.95
498.673	11435
498.876	11297.79
499.079	11381.76
499.282	11537.4
499.485	11863.03
499.689	11899.89
499.892	12088.31
500.095	11969.52
500.298	12465.13
500.501	11846.65
500.705	12321.77
500.908	12456.94
501.111	12706.79
501.314	12745.7
501.517	12823.53
501.72	12987.36
501.923	13001.7
502.126	13290.46
502.329	13689.82
502.532	13831.13
502.735	13650.91
502.938	13925.33
503.141	13939.67
503.344	14298.06
503.547	14298.06
503.75	14638.03
503.953	14545.87
504.156	14728.14
504.359	14998.47
504.562	15123.4
504.765	15393.73
504.968	15451.07
505.17	15668.16
505.373	15524.8
505.576	15811.51
505.779	16221.11
505.982	16274.35
506.185	16585.65
506.387	16511.92
506.59	16589.74
506.793	16913.32
506.996	16980.9
507.198	17570.72
507.401	17365.92
507.604	17707.93
507.807	17802.14
508.009	18086.81
508.212	17900.44
508.415	18584.46
508.617	18246.55
508.82	18596.75
509.022	18705.29
509.225	19010.44
509.428	19157.89
509.63	19200.9
509.833	19403.65
510.035	19903.35
510.238	19850.11
510.44	20255.61
510.643	20517.75
510.845	20308.85
511.048	20407.16
511.25	21048.17
511.453	20996.97
511.655	21625.7
511.858	21480.29
512.06	21574.5
512.262	21758.81
512.465	21443.43
512.667	22266.71
512.87	22199.13
513.072	22426.45
513.274	22862.67
513.477	23061.32
513.679	23057.23
513.881	23333.7
514.084	23956.29
514.286	23831.36
514.488	23868.22
514.69	24642.35
514.893	24427.32
515.095	24662.83
515.297	24982.32
515.499	24984.37
515.701	25533.22
515.904	25586.47
516.106	25922.34
516.308	25762.59
516.51	26370.84
516.712	26313.5
516.914	26506.01
517.116	27009.81
517.318	26979.09
517.52	27302.67
517.722	27259.66
517.925	27591.43
518.127	28087.04
518.329	28295.93
518.531	28209.92
518.733	28744.44
518.935	28850.93
519.136	28857.07
519.338	29043.44
519.54	29387.5
519.742	29848.29
519.944	29737.7
520.146	30511.83
520.348	30069.47
520.55	30630.62
520.752	30520.02
520.954	31171.28
521.155	30651.09
521.357	31492.81
521.559	31689.42
521.761	31838.92
521.963	31931.08
522.164	32051.91
522.366	32346.81
522.568	32780.98
522.77	32776.89
522.971	33327.79
523.173	33010.35
523.375	33415.85
523.576	33196.72
523.778	33532.59
523.98	33782.44
524.181	33817.25
524.383	34130.59
524.584	34259.62
524.786	34493.08
524.988	34175.65
525.189	34646.68
525.391	34986.64
525.592	35048.08
525.794	35191.44
525.995	35355.28
526.197	35193.49
526.398	35439.25
526.6	35611.28
526.801	35732.11
527.003	35703.43
527.204	35984.01
527.406	36532.86
527.607	36082.31
527.808	36663.93
528.01	36237.95
528.211	36653.69
528.412	37321.33
528.614	37108.34
528.815	36713.08
529.016	37124.72
529.218	36653.69
529.419	37505.65
529.62	37139.06
529.822	36901.5
530.023	37460.59
530.224	37239.41
530.425	37630.57
530.626	37036.66
530.828	37517.93
531.029	38244.96
531.23	37134.96
531.431	37730.92
531.632	37677.68
531.833	37712.49
532.035	37833.32
532.236	38163.04
532.437	38023.78
532.638	37665.39
532.839	37847.66
533.04	38259.3
533.241	37569.13
533.442	38302.31
533.643	37816.94
533.844	38054.5
534.045	38146.66
534.246	37761.64
534.447	37943.91
534.648	37792.36
534.849	38130.28
535.05	37853.8
535.251	38201.96
535.451	37950.06
535.652	38011.49
535.853	38019.69
536.054	37806.7
536.255	38115.94
536.456	37800.55
536.657	38443.62
536.857	38150.76
537.058	37710.44
537.259	38480.48
537.46	38519.39
537.66	38267.49
537.861	38220.39
538.062	37741.16
538.263	38087.27
538.463	38007.4
538.664	37945.96
538.865	37956.2
539.065	38300.26
539.266	37956.2
539.466	38363.75
539.667	38058.6
539.868	38380.13
540.068	38154.85
540.269	38005.35
540.469	38611.55
540.67	37622.38
540.87	38187.62
541.071	38058.6
541.271	38285.92
541.472	37941.86
541.672	37735.02
541.873	37882.47
542.073	37747.31
542.274	37939.82
542.474	37902.95
542.675	37778.03
542.875	38027.88
543.075	38040.17
543.276	37933.67
543.476	38242.92
543.676	37659.24
543.877	38445.66
544.077	37958.25
544.277	37878.38
544.478	37534.32
544.678	38031.97
544.878	37958.25
545.078	38068.84
545.279	37692.01
545.479	37823.08
545.679	37739.11
545.879	37470.83
546.079	37501.55
546.28	37487.21
546.48	37204.59
546.68	37511.79
546.88	37929.58
547.08	37763.69
547.28	37505.65
547.48	37481.07
547.68	37632.62
547.88	37263.99
548.081	37702.25
548.281	37446.26
548.481	37618.28
548.681	37700.2
548.881	37415.54
549.081	37540.46
549.28	37749.35
549.48	37550.7
549.68	37155.44
549.88	37790.31
550.08	37327.47
550.28	37704.3
550.48	37524.08
550.68	37515.89
550.88	37368.43
551.08	37341.81
551.279	37571.18
551.479	37167.73
551.679	37247.6
551.879	37288.56
552.079	37249.65
552.278	37067.38
552.478	37229.17
552.678	37304.95
552.878	37450.35
553.077	37051
553.277	36827.77
553.477	37481.07
553.676	37268.08
553.876	37020.28
554.076	36930.17
554.275	36956.79
554.475	36641.4
554.674	37028.47
554.874	37126.77
555.074	36668.03
555.273	37134.96
555.473	36911.74
555.672	36678.27
555.872	36723.32
556.071	37098.1
556.271	37145.2
556.47	36768.38
556.67	36295.3
556.869	36602.49
557.068	36850.3
557.268	36579.96
557.467	36604.54
557.667	36346.5
557.866	36627.07
558.065	36479.61
558.265	36018.82
558.464	36047.49
558.663	37012.09
558.863	36172.42
559.062	36983.41
559.261	36313.73
559.461	36352.64
559.66	36258.43
559.859	36575.87
560.058	36147.84
560.258	35844.74
560.457	35646.09
560.656	36258.43
560.855	35883.66
561.054	36133.51
561.253	35723.91
561.453	36072.07
561.652	35656.33
561.851	35932.81
562.05	35662.47
562.249	35312.27
562.448	35904.13
562.647	35603.08
562.846	35730.06
563.045	35709.58
563.244	35207.83
563.443	35590.8
563.642	34964.12
563.841	35492.49
564.04	35156.63
564.239	35353.23
564.438	35019.41
564.637	35269.26
564.836	35326.61
565.035	34867.86
565.234	34894.49
565.432	35050.13
565.631	34755.22
565.83	34787.99
566.029	34532
566.228	34460.32
566.427	34910.87
566.625	34253.47
566.824	34257.57
567.023	34605.72
567.222	33938.08
567.42	34413.21
567.619	34189.98
567.818	34296.48
568.016	33921.7
568.215	34443.93
568.414	33768.1
568.612	34132.64
568.811	33940.13
569.01	33692.33
569.208	33458.86
569.407	33839.78
569.605	33462.96
569.804	33835.69
570.002	33493.68
570.201	33440.43
570.4	33333.93
570.598	33045.17
570.797	32946.87
570.995	33114.8
571.193	32750.26
571.392	33258.16
571.59	32795.32
571.789	32993.97
571.987	32709.3
572.186	32836.28
572.384	32617.14
572.582	32729.78
572.781	33067.7
572.979	32027.33
573.177	32701.11
573.376	32389.82
573.574	31957.7
573.772	32518.84
573.971	32463.55
574.169	32225.98
574.367	31908.55
574.565	31859.4
574.763	31750.85
574.962	31724.23
575.16	31703.75
575.358	32025.28
575.556	31099.6
575.754	31709.89
575.952	31279.82
576.151	31464.14
576.349	30819.03
576.547	31183.57
576.745	31216.33
576.943	31101.65
577.141	31105.74
577.339	31216.33
577.537	30986.96
577.735	31048.4
577.933	30653.14
578.131	31005.39
578.329	30335.71
578.527	30335.71
578.725	30366.43
578.923	30268.12
579.121	30194.4
579.319	30188.25
579.516	30620.38
579.714	29962.98
579.912	30317.28
580.11	30360.28
580.308	30165.73
580.506	30202.59
580.704	29246.19
580.901	29831.91
581.099	29876.96
581.297	29526.76
581.495	29551.34
581.692	29514.47
581.89	29534.95
582.088	29672.17
582.285	29309.68
582.483	29305.58
582.681	29215.47
582.878	28902.13
583.076	28916.47
583.274	29176.56
583.471	28635.89
583.669	28934.9
583.866	28713.72
584.064	28578.55
584.262	28416.76
584.459	28467.96
584.657	28228.35
584.854	28730.1
585.052	28320.51
585.249	28205.82
585.447	28158.72
585.644	27953.92
585.841	28111.61
586.039	28365.56
586.236	27400.97
586.434	27798.27
586.631	27765.51
586.828	27788.03
587.026	27818.75
587.223	27904.77
587.42	27503.37
587.618	27456.26
587.815	27433.74
588.012	27329.29
588.21	27405.06
588.407	27437.83
588.604	27112.2
588.801	26784.53
588.999	26686.23
589.196	26925.84
589.393	26753.81
589.59	26395.42
589.787	26661.65
589.984	26278.68
590.182	26524.44
590.379	26403.61
590.576	26467.09
590.773	26575.64
590.97	26182.43
591.167	26252.06
591.364	25754.4
591.561	26125.08
591.758	25846.56
591.955	25938.72
592.152	25879.33
592.349	25574.18
592.546	25877.28
592.743	25803.55
592.94	25283.37
593.137	25572.13
593.334	25568.04
593.531	24924.97
593.727	25467.69
593.924	25193.26
594.121	24652.59
594.318	25142.06
594.515	24965.93
594.712	24881.97
594.908	24720.18
595.105	24931.12
595.302	24496.95
595.499	24632.11
595.696	24447.8
595.892	24687.41
596.089	24578.87
596.286	24515.38
596.482	24281.91
596.679	24122.17
596.876	24083.26
597.072	23774.02
597.269	24148.79
597.466	23710.53
597.662	23761.73
597.859	23683.91
598.055	23774.02
598.252	23585.6
598.448	23481.16
598.645	23366.47
598.841	23405.38
599.038	23542.6
599.234	23380.81
599.431	23429.96
599.627	23110.47
599.824	23399.24
600.02	22928.2
600.217	22991.69
600.413	23141.19
600.609	22973.26
600.806	23061.32
601.002	22856.53
601.198	22815.57
601.395	22549.33
601.591	22596.43
601.787	22451.03
601.984	22293.33
602.18	22453.08
602.376	22416.21
602.572	22164.31
602.769	22272.85
602.965	22074.2
603.161	22338.39
603.357	21973.85
603.553	21615.46
603.75	21883.74
603.946	21666.66
604.142	21896.03
604.338	21625.7
604.534	21842.78
604.73	21412.71
604.926	21554.02
605.122	21375.84
605.318	21314.41
605.514	20988.78
605.71	21175.14
605.906	21146.47
606.102	21076.84
606.298	21240.68
606.494	21046.12
606.69	20929.39
606.886	21089.13
607.082	20515.7
607.278	21134.18
607.474	20767.6
607.67	20824.94
607.866	20224.89
608.062	20786.03
608.257	20423.54
608.453	20405.11
608.649	20640.62
608.845	20427.63
609.041	20484.98
609.236	20413.3
609.432	20337.52
609.628	20538.23
609.824	20470.64
610.019	20228.98
610.215	19995.51
610.411	20501.36
610.606	20114.3
610.802	20104.06
610.998	19952.51
611.193	19962.75
611.389	19901.31
611.584	20114.3
611.78	19729.28
611.976	19936.12
612.171	19819.39
612.367	19909.5
612.562	19708.8
612.758	19438.47
612.953	19604.35
613.149	19811.2
613.344	19102.6
613.539	19479.43
613.735	19553.15
613.93	19454.85
614.126	19307.4
614.321	19348.36
614.517	19514.24
614.712	19260.29
614.907	19297.16
615.103	19471.23
615.298	19209.09
615.493	19004.3
615.688	18836.36
615.884	19151.75
616.079	18848.65
616.274	19225.48
616.47	18865.03
616.665	18949
616.86	19002.25
617.055	18865.03
617.25	18701.2
617.445	18936.71
617.641	18619.28
617.836	18518.93
618.031	18514.83
618.226	18426.77
618.421	18594.7
618.616	18480.02
618.811	18238.36
619.006	18768.78
619.201	18045.85
619.396	18355.09
619.591	18084.76
619.786	18002.84
619.981	17851.29
620.176	17808.28
620.371	17742.75
620.566	17759.13
620.761	17861.53
620.956	17695.64
621.151	17286.05
621.346	17570.72
621.541	17152.93
621.735	17613.73
621.93	16987.05
622.125	17099.69
622.32	17025.96
622.515	17019.81
622.709	17085.35
622.904	16790.44
623.099	16430
623.294	16696.24
623.488	16432.05
623.683	16573.36
623.878	16210.87
624.072	16491.44
624.267	16255.92
624.462	15948.73
624.656	16114.61
624.851	16024.5
625.046	16079.8
625.24	15745.98
625.435	15481.79
625.629	15641.53
625.824	15678.4
626.018	15883.19
626.213	15072.2
626.407	15451.07
626.602	15184.83
626.796	15326.14
626.991	15154.12
627.185	15180.74
627.38	14908.36
627.574	14891.98
627.768	14703.56
627.963	14517.2
628.157	14474.19
628.352	14900.17
628.546	14633.93
628.74	14711.75
628.935	14287.82
629.129	14199.76
629.323	13994.97
629.517	14066.64
629.712	14048.21
629.906	13994.97
630.1	13747.16
630.294	13786.07
630.489	13855.7
630.683	13992.92
630.877	13786.07
631.071	13505.5
631.265	13229.02
631.459	13145.06
631.653	13308.9
631.848	13126.63
632.042	13196.26
632.236	12997.6
632.43	13065.19
632.624	13018.08
632.818	12844.01
633.012	13018.08
633.206	12803.05
633.4	12641.26
633.594	12483.56
633.788	12731.37
633.982	12569.58
634.176	12434.41
634.369	12352.49
634.563	12387.31
634.757	12274.67
634.951	12254.19
635.145	12215.28
635.339	12147.7
635.533	11951.09
635.726	12067.83
635.92	11748.34
636.114	11856.89
636.308	11813.88
636.501	11885.56
636.695	11742.2
636.889	11674.62
637.083	11676.66
637.276	11553.79
637.47	11410.43
637.664	11265.02
637.857	11484.16
638.051	11158.53
638.244	11172.86
638.438	11205.63
638.632	11293.69
638.825	10947.59
639.019	11009.03
639.212	11119.62
639.406	10873.86
639.599	10933.25
639.793	10732.55
639.986	10624.01
640.18	10507.27
640.373	10730.5
640.567	10413.07
640.76	10621.96
640.954	10550.28
641.147	10316.81
641.34	10009.62
641.534	10253.33
641.727	10253.33
641.92	10259.47
642.114	10195.98
642.307	10109.97
642.5	9939.99
642.694	9856.02
642.887	9892.88
643.08	9870.36
643.273	9780.25
643.467	9602.07
643.66	9718.81
643.853	9612.31
644.046	9393.18
644.239	9600.02
644.432	9608.22
644.626	9255.97
644.819	9421.85
645.012	9530.39
645.205	9438.23
645.398	9423.9
645.591	9069.6
645.784	9057.31
645.977	8961.06
646.17	9069.6
646.363	8961.06
646.556	8784.93
646.749	9008.16
646.942	8989.73
647.135	8909.86
647.328	8852.52
647.521	9034.78
647.714	8508.46
647.907	8526.89
648.099	8690.73
648.292	8600.62
648.485	8604.71
648.678	8270.89
648.871	8379.43
649.064	8289.32
649.256	8358.96
649.449	8229.93
649.642	8111.15
649.835	8301.61
650.027	8051.76
650.22	8053.81
650.413	8043.57
650.605	8037.42
650.798	7937.07
650.991	7887.92
651.183	7928.88
651.376	7830.58
651.568	7816.24
651.761	7859.25
651.954	7830.58
652.146	7709.75
652.339	7617.59
652.531	7541.82
652.724	7646.26
652.916	7390.27
653.109	7509.05
653.301	7586.87
653.494	7642.17
653.686	7291.96
653.879	7388.22
654.071	7498.81
654.263	7453.75
654.456	7306.3
654.648	7267.39
654.84	7152.7
655.033	7177.28
655.225	7089.21
655.417	7072.83
655.61	6988.86
655.802	7085.12
655.994	6837.31
656.186	6960.19
656.379	6771.78
656.571	6843.46
656.763	6765.64
656.955	6628.42
657.148	6792.26
657.34	6771.78
657.532	6564.93
657.724	6575.17
657.916	6663.24
658.108	6679.62
658.3	6442.06
658.492	6595.65
658.684	6366.28
658.876	6394.95
659.068	6364.23
659.26	6464.58
659.452	6397
659.644	6280.27
659.836	6368.33
660.028	6310.99
660.22	6134.86
660.412	6270.03
660.604	6061.13
660.796	6118.48
660.988	6104.14
661.18	5987.41
661.372	5971.02
661.563	6143.05
661.755	6007.89
661.947	5950.54
662.139	5782.61
662.331	5700.69
662.522	5837.91
662.714	5846.1
662.906	5778.51
663.097	5698.64
663.289	5784.66
663.481	5583.96
663.673	5665.88
663.864	5504.09
664.056	5502.04
664.247	5543
664.439	5301.34
664.631	5561.43
664.822	5413.98
665.014	5467.22
665.205	5426.26
665.397	5344.35
665.588	5409.88
665.78	5309.53
665.971	5209.18
666.163	5430.36
666.354	5319.77
666.546	5319.77
666.737	5282.91
666.929	5098.59
667.12	5356.63
667.311	5280.86
667.503	5162.08
667.694	5258.33
667.885	5127.26
668.077	5045.34
668.268	4971.61
668.459	5053.53
668.651	5004.38
668.842	4914.27
669.033	4944.99
669.224	4867.17
669.416	5049.44
669.607	4793.44
669.798	4766.82
669.989	4842.59
670.18	4922.46
670.371	4912.22
670.563	4590.69
670.754	4758.63
670.945	4820.07
671.136	4775.01
671.327	4709.47
671.518	4654.18
671.709	4689
671.9	4619.36
672.091	4734.05
672.282	4611.17
672.473	4562.02
672.664	4559.97
672.855	4531.3
673.046	4473.96
673.237	4512.87
673.428	4521.06
673.619	4580.45
673.809	4318.31
674	4271.21
674.191	4406.38
674.382	4379.75
674.573	4463.72
674.764	4215.91
674.954	4373.61
675.145	4408.42
675.336	4328.55
675.527	4355.18
675.717	4359.27
675.908	4193.39
676.099	4328.55
676.289	4308.07
676.48	4207.72
676.671	4156.52
676.861	4267.11
677.052	4312.17
677.243	4244.59
677.433	4301.93
677.624	4258.92
677.814	4113.52
678.005	4152.43
678.195	4146.28
678.386	4131.95
678.576	4047.98
678.767	3982.45
678.957	4144.24
679.148	4039.79
679.338	4054.12
679.529	3904.62
679.719	4205.67
679.909	4037.74
680.1	3925.1
680.29	4047.98
680.481	3925.1
680.671	3890.29
680.861	3873.9
681.052	3904.62
681.242	3855.47
681.432	3947.63
681.622	3841.14
681.813	3824.75
682.003	3935.34
682.193	4025.45
682.383	3867.76
682.573	3812.46
682.764	3918.96
682.954	3882.1
683.144	3865.71
683.334	3906.67
683.524	3849.33
683.714	3818.61
683.904	3742.83
684.094	3710.07
684.284	3769.46
684.474	3808.37
684.664	3662.96
684.854	3673.2
685.044	3689.59
685.234	3669.11
685.424	3562.61
685.614	3736.69
685.804	3583.09
685.994	3677.3
686.184	3443.83
686.374	3615.86
686.564	3525.75
686.753	3462.26
686.943	3507.32
687.133	3538.04
687.323	3515.51
687.513	3550.32
687.702	3456.12
687.892	3480.69
688.082	3382.39
688.272	3368.06
688.461	3376.25
688.651	3662.96
688.841	3503.22
689.03	3253.37
689.22	3349.62
689.41	3286.14
689.599	3306.62
689.789	3353.72
689.979	3421.3
690.168	3312.76
690.358	3355.77
690.547	3259.51
690.737	3347.58
690.926	3263.61
691.116	3161.21
691.305	3241.08
691.495	3259.51
691.684	3110.01
691.874	3187.83
692.063	3112.06
692.252	3146.87
692.442	3327.1
692.631	3146.87
692.82	3128.44
693.01	2956.41
693.199	3079.29
693.388	2960.51
693.578	3017.85
693.767	3144.83
693.956	2892.93
694.146	3015.8
694.335	2935.93
694.524	3083.39
694.713	2964.61
694.902	2915.45
695.092	2948.22
695.281	2913.41
695.47	2923.65
695.659	2862.21
695.848	2884.73
696.037	2901.12
696.226	2952.32
696.415	2903.17
696.604	2890.88
696.793	2827.39
696.982	2862.21
697.171	2872.45
697.36	2722.95
697.549	2745.47
697.738	2772.1
697.927	2776.19
698.116	2813.06
698.305	2739.33
698.494	2702.47
698.683	2802.82
698.872	2743.42
699.061	2819.2
699.25	2679.94
699.438	2686.08
699.627	2694.27
699.816	2727.04
700.005	2675.84
700.193	2653.31
700.382	2673.79
700.571	2569.35
700.76	2770.05
700.948	2698.37
701.137	2606.21
701.326	2702.47
701.514	2624.64
701.703	2606.21
701.892	2497.67
702.08	2763.9
702.269	2538.63
702.457	2636.93
702.646	2661.51
702.834	2636.93
703.023	2532.48
703.212	2587.78
703.4	2546.82
703.589	2573.44
703.777	2540.68
703.965	2520.2
704.154	2591.88
704.342	2466.95
704.531	2550.92
704.719	2501.76
704.907	2469
705.096	2604.16
705.284	2434.18
705.472	2563.2
705.661	2477.19
705.849	2571.4
706.037	2571.4
706.226	2583.68
706.414	2444.42
706.602	2432.13
706.79	2415.75
706.979	2524.29
707.167	2532.48
707.355	2434.18
707.543	2571.4
707.731	2485.38
707.919	2309.26
708.107	2520.2
708.296	2358.41
708.484	2448.52
708.672	2374.79
708.86	2403.46
709.048	2450.57
709.236	2399.37
709.424	2481.28
709.612	2456.71
709.8	2460.81
709.988	2389.13
710.176	2321.54
710.364	2430.09
710.551	2469
710.739	2444.42
710.927	2333.83
711.115	2452.61
711.303	2401.41
711.491	2450.57
711.679	2514.05
711.866	2350.21
712.054	2475.14
712.242	2321.54
712.43	2405.51
712.617	2356.36
712.805	2462.85
712.993	2358.41
713.181	2368.65
713.368	2444.42
713.556	2483.33
713.744	2251.91
713.931	2397.32
714.119	2432.13
714.306	2370.69
714.494	2337.93
714.682	2399.37
714.869	2286.73
715.057	2440.33
715.244	2241.67
715.432	2391.17
715.619	2344.07
715.807	2303.11
715.994	2292.87
716.182	2370.69
716.369	2317.45
716.556	2344.07
716.744	2450.57
716.931	2260.1
717.119	2292.87
717.306	2374.79
717.493	2288.78
717.681	2399.37
717.868	2227.34
718.055	2346.12
718.242	2303.11
718.43	2303.11
718.617	2251.91
718.804	2247.82
718.991	2352.26
719.179	2288.78
719.366	2227.34
719.553	2385.03
719.74	2313.35
719.927	2339.97
720.114	2385.03
720.301	2264.2
720.488	2167.95
720.676	2251.91
720.863	2278.54
721.05	2247.82
721.237	2278.54
721.424	2305.16
721.611	2280.58
721.798	2221.19
721.985	2243.72
722.172	2219.14
722.358	2274.44
722.545	2309.26
722.732	2239.62
722.919	2249.86
723.106	2231.43
723.293	2301.06
723.48	2133.13
723.667	2294.92
723.853	2280.58
724.04	2303.11
724.227	2276.49
724.414	2186.38
724.6	2088.07
724.787	2202.76
724.974	2272.39
725.161	2264.2
725.347	2217.1
725.534	2147.47
725.72	2276.49
725.907	2147.47
726.094	2251.91
726.28	2268.3
726.467	2145.42
726.653	2086.03
726.84	2276.49
727.027	2327.69
727.213	2198.67
727.4	2276.49
727.586	2178.19
727.773	2251.91
727.959	2045.07
728.145	2169.99
728.332	2174.09
728.518	2200.71
728.705	2161.8
728.891	2206.86
729.077	2260.1
729.264	2135.18
729.45	2169.99
729.636	2213
729.823	2116.75
730.009	2129.03
730.195	2147.47
730.382	2241.67
730.568	2118.79
730.754	2169.99
730.94	2188.43
731.126	2165.9
731.313	2186.38
731.499	2167.95
731.685	2229.38
731.871	2223.24
732.057	2188.43
732.243	2395.27
732.429	2178.19
732.615	2116.75
732.801	2182.28
732.987	2040.97
733.173	2098.31
733.359	2141.32
733.545	2106.51
733.731	2151.56
733.917	2151.56
734.103	2157.71
734.289	2190.47
734.475	2210.95
734.661	2131.08
734.847	2131.08
735.033	2053.26
735.219	2196.62
735.404	2151.56
735.59	2024.59
735.776	2034.83
735.962	2169.99
736.148	2053.26
736.333	2120.84
736.519	2045.07
736.705	2114.7
736.89	2036.88
737.076	2210.95
737.262	2051.21
737.447	2024.59
737.633	1975.44
737.819	2088.07
738.004	1957
738.19	2104.46
738.375	2047.12
738.561	2002.06
738.747	2096.27
738.932	2088.07
739.118	2100.36
739.303	2096.27
739.489	2120.84
739.674	2137.23
739.859	1957
740.045	1944.72
740.23	2000.01
740.416	1965.2
740.601	1973.39
740.786	1914
740.972	2043.02
741.157	1981.58
741.342	1952.91
741.528	2032.78
741.713	2016.4
741.898	1973.39
742.084	1989.77
742.269	1961.1
742.454	1936.53
742.639	2024.59
742.824	1891.47
743.01	1870.99
743.195	2055.31
743.38	1846.41
743.565	1938.57
743.75	1852.56
743.935	1776.78
744.12	1854.61
744.305	1827.98
744.49	1803.41
744.675	1780.88
744.86	1817.74
745.045	1858.7
745.23	1782.93
745.415	1799.31
745.6	1723.54
745.785	1803.41
745.97	1813.65
746.155	1809.55
746.34	1838.22
746.525	1762.45
746.71	1834.13
746.895	1746.06
747.079	1629.33
747.264	1784.98
747.449	1737.87
747.634	1617.04
747.819	1739.92
748.003	1694.86
748.188	1461.4
748.373	1662.1
748.557	1660.05
748.742	1701.01
748.927	1649.81
749.111	1588.37
749.296	1576.08
749.481	1705.1
749.665	1465.49
749.85	1510.55
750.034	1584.27
750.219	1526.93
750.404	1621.14
750.588	1528.98
750.773	1483.92
750.957	1508.5
751.141	1580.18
751.326	1555.6
751.51	1363.09
751.695	1449.11
751.879	1449.11
752.064	1504.4
752.248	1389.72
752.432	1459.35
752.617	1451.16
752.801	1375.38
752.985	1359
753.17	1340.57
753.354	1350.81
753.538	1434.77
753.722	1383.57
753.907	1322.13
754.091	1320.09
754.275	1272.98
754.459	1334.42
754.643	1301.65
754.828	1285.27
755.012	1268.89
755.196	1240.22
755.38	1322.13
755.564	1318.04
755.748	1361.05
755.932	1295.51
756.116	1229.98
756.3	1244.31
756.484	1162.39
756.668	1258.65
756.852	1262.74
757.036	1186.97
757.22	1215.64
757.404	1125.53
757.588	1160.34
757.772	1090.71
757.956	1191.06
758.14	1150.11
758.323	1092.76
758.507	1176.73
758.691	1123.48
758.875	1064.09
759.059	1121.43
759.242	994.46
759.426	1049.75
759.61	1062.04
759.794	1092.76
759.977	1082.52
760.161	1139.87
760.345	1068.19
760.528	1066.14
760.712	1008.8
760.895	1014.94
761.079	982.17
761.263	1008.8
761.446	945.31
761.63	1027.23
761.813	1057.95
761.997	957.6
762.18	1010.84
762.364	1010.84
762.547	1031.32
762.731	1068.19
762.914	969.88
763.098	935.07
763.281	949.4
763.464	912.54
763.648	918.68
763.831	982.17
764.015	916.64
764.198	1049.75
764.381	1014.94
764.564	1016.99
764.748	900.25
764.931	928.92
765.114	949.4
765.297	1041.56
765.481	836.77
765.664	871.58
765.847	885.92
766.03	926.88
766.213	900.25
766.397	939.16
766.58	890.01
766.763	920.73
766.946	869.53
767.129	883.87
767.312	799.9
767.495	847.01
767.678	818.33
767.861	859.29
768.044	855.2
768.227	855.2
768.41	826.53
768.593	918.68
768.776	842.91
768.959	793.76
769.142	789.66
769.324	777.37
769.507	847.01
769.69	742.56
769.873	763.04
770.056	808.09
770.239	810.14
770.421	885.92
770.604	820.38
770.787	801.95
770.97	844.96
771.152	752.8
771.335	806.05
771.518	746.66
771.7	793.76
771.883	851.1
772.066	720.03
772.248	828.57
772.431	806.05
772.613	763.04
772.796	658.59
772.978	814.24
773.161	742.56
773.343	640.16
773.526	662.69
773.708	625.83
773.891	685.22
774.073	752.8
774.256	767.13
774.438	740.51
774.621	699.55
774.803	662.69
774.985	783.52
775.168	697.5
775.35	738.46
775.532	687.26
775.715	642.21
775.897	679.07
776.079	683.17
776.261	703.65
776.444	650.4
776.626	687.26
776.808	670.88
776.99	584.87
777.173	609.44
777.355	640.16
777.537	634.02
777.719	554.15
777.901	517.28
778.083	515.23
778.265	564.39
778.447	613.54
778.629	609.44
778.811	605.35
778.993	582.82
779.175	562.34
779.357	504.99
779.539	634.02
779.721	537.76
779.903	502.95
780.085	629.92
780.267	500.9
780.449	543.91
780.631	529.57
780.812	652.45
780.994	507.04
781.176	425.12
781.358	523.43
781.54	531.62
781.721	459.94
781.903	486.56
782.085	515.23
782.267	478.37
782.448	425.12
782.63	517.28
782.812	517.28
782.993	484.52
783.175	429.22
783.357	416.93
783.538	457.89
783.72	433.32
783.901	509.09
784.083	502.95
784.264	527.52
784.446	435.36
784.627	416.93
784.809	476.32
784.99	449.7
785.172	396.45
785.353	449.7
785.535	416.93
785.716	384.16
785.897	335.01
786.079	408.74
786.26	351.4
786.441	400.55
786.623	369.83
786.804	388.26
786.985	435.36
787.167	302.25
787.348	339.11
787.529	445.6
787.71	457.89
787.891	418.98
788.073	337.06
788.254	365.73
788.435	412.84
788.616	392.36
788.797	343.21
788.978	335.01
789.159	353.45
789.34	339.11
789.522	261.29
789.703	316.58
789.884	388.26
790.065	437.41
790.246	349.35
790.427	281.77
790.607	404.64
790.788	410.79
790.969	339.11
791.15	312.49
791.331	328.87
791.512	298.15
791.693	306.34
791.874	310.44
792.054	363.69
792.235	296.1
792.416	259.24
792.597	326.82
792.778	330.92
792.958	341.16
793.139	306.34
793.32	347.3
793.5	208.04
793.681	314.53
793.862	304.29
794.042	318.63
794.223	267.43
794.404	294.05
794.584	224.42
794.765	269.48
794.945	257.19
795.126	165.03
795.306	259.24
795.487	232.62
795.667	302.25
795.848	249
796.028	226.47
796.209	289.96
796.389	228.52
796.57	230.57
796.75	214.18
796.93	304.29
797.111	269.48
797.291	230.57
797.471	257.19
797.652	220.33
797.832	224.42
798.012	337.06
798.192	162.98
798.373	185.51
798.553	294.05
798.733	199.85
798.913	294.05
799.093	244.9
799.274	183.46
799.454	244.9
799.634	244.9
799.814	314.53
799.994	177.32
800.174	261.29
800.354	179.37
800.534	189.61
800.714	222.38
800.894	195.75
801.074	171.18
801.254	142.5
801.434	249
801.614	128.17
801.794	191.66
801.974	804
802.154	240.81
802.334	242.85
802.514	212.14
802.693	244.9
802.873	132.26
803.053	183.46
803.233	173.22
803.413	210.09
803.592	158.89
803.772	238.76
803.952	205.99
804.131	119.98
804.311	197.8
804.491	187.56
804.67	203.94
804.85	154.79
805.03	210.09
805.209	189.61
805.389	175.27
805.568	261.29
805.748	205.99
805.928	122.02
806.107	255.14
806.287	173.22
806.466	183.46
806.646	148.65
806.825	132.26
807.004	154.79
807.184	177.32
807.363	105.64
807.543	150.7
807.722	136.36
807.901	154.79
808.081	203.94
808.26	117.93
808.439	167.08
808.619	179.37
808.798	142.5
808.977	115.88
809.156	167.08
809.336	150.7
809.515	193.7
809.694	99.5
809.873	130.22
810.052	156.84
810.231	134.31
810.411	167.08
810.59	162.98
810.769	122.02
810.948	183.46
811.127	177.32
811.306	103.59
811.485	175.27
811.664	218.28
811.843	158.89
812.022	173.22
812.201	81.07
812.38	97.45
812.559	40.11
812.737	89.26
812.916	50.35
813.095	134.31
813.274	162.98
813.453	99.5
813.632	201.9
813.811	208.04
813.989	97.45
814.168	31.91
814.347	101.55
814.526	103.59
814.704	115.88
814.883	197.8
815.062	148.65
815.24	83.11
815.419	74.92
815.598	173.22
815.776	117.93
815.955	185.51
816.133	79.02
816.312	140.46
816.49	99.5
816.669	177.32
816.847	23.72
817.026	134.31
817.204	64.68
817.383	187.56
817.561	126.12
817.74	179.37
817.918	103.59
818.097	113.83
818.275	89.26
818.453	126.12
818.632	134.31
818.81	181.42
818.988	89.26
819.167	107.69
819.345	113.83
819.523	52.39
819.701	50.35
819.879	158.89
820.058	107.69
820.236	156.84
820.414	142.5
820.592	162.98
820.77	52.39
820.948	56.49
821.127	111.78
821.305	97.45
821.483	91.31
821.661	93.35
821.839	156.84
822.017	134.31
822.195	58.54
822.373	113.83
822.551	62.63
822.729	66.73
822.907	27.82
823.085	142.5
823.262	113.83
823.44	107.69
823.618	148.65
823.796	76.97
823.974	62.63
824.152	19.63
824.329	58.54
824.507	48.3
824.685	103.59
824.863	72.87
825.04	103.59
825.218	48.3
825.396	68.78
825.574	150.7
825.751	81.07
825.929	64.68
826.107	25.77
826.284	21.67
826.462	119.98
826.639	70.83
826.817	132.26
826.994	52.39
827.172	38.06
827.349	122.02
827.527	87.21
827.704	93.35
827.882	48.3
828.059	3.24
828.237	81.07
828.414	85.16
828.591	68.78
828.769	89.26
828.946	83.11
829.124	44.2
829.301	36.01
829.478	44.2
829.655	50.35
829.833	56.49
830.01	9.39
830.187	122.02
830.364	17.58
830.542	85.16
830.719	138.41
830.896	81.07
831.073	72.87
831.25	74.92
831.427	66.73
831.604	58.54
831.782	29.87
831.959	124.07
832.136	-23.38
832.313	91.31
832.49	52.39
832.667	23.72
832.844	48.3
833.021	56.49
833.198	64.68
833.374	109.74
833.551	56.49
833.728	93.35
833.905	62.63
834.082	-41.81
834.259	113.83
834.436	97.45
834.612	31.91
834.789	89.26
834.966	89.26
835.143	122.02
835.319	29.87
835.496	7.34
835.673	54.44
835.85	119.98
836.026	52.39
836.203	33.96
836.38	89.26
836.556	48.3
836.733	-11.09
836.909	48.3
837.086	-25.43
837.262	19.63
837.439	13.48
837.616	60.59
837.792	52.39
837.968	87.21
838.145	23.72
838.321	50.35
838.498	56.49
838.674	138.41
838.851	81.07
839.027	33.96
839.203	17.58
839.38	111.78
839.556	23.72
839.732	134.31
839.909	60.59
840.085	15.53
840.261	36.01
840.437	-0.85
840.614	33.96
840.79	42.15
840.966	101.55
841.142	68.78
841.318	31.91
841.494	58.54
841.671	52.39
841.847	46.25
842.023	-19.29
842.199	52.39
842.375	97.45
842.551	38.06
842.727	-9.05
842.903	101.55
843.079	56.49
843.255	15.53
843.431	48.3
843.607	25.77
843.783	-0.85
843.959	-13.14
844.134	-33.62
844.31	42.15
844.486	-0.85
844.662	-7
844.838	11.43
845.013	113.83
845.189	31.91
845.365	38.06
845.541	44.2
845.716	58.54
845.892	13.48
846.068	58.54
846.244	11.43
846.419	-9.05
846.595	-7
846.77	3.24
846.946	68.78
847.122	66.73
847.297	15.53
847.473	56.49
847.648	19.63
847.824	-27.48
847.999	21.67
848.175	-15.19
848.35	-17.24
848.526	93.35
848.701	68.78
848.876	-0.85
849.052	9.39
849.227	44.2
849.403	23.72
849.578	42.15
849.753	36.01
849.929	81.07
850.104	-9.05
850.279	7.34
850.454	15.53
850.63	25.77
850.805	42.15
850.98	68.78
851.155	74.92
851.33	-23.38
851.505	-66.39
851.681	-33.62
851.856	25.77
852.031	5.29
852.206	36.01
852.381	17.58
852.556	-23.38
852.731	-25.43
852.906	-17.24
853.081	-31.57
853.256	40.11
853.431	-17.24
853.606	-11.09
853.781	3.24
853.956	3.24
854.131	15.53
854.305	19.63
854.48	48.3
854.655	9.39
854.83	-9.05
855.005	48.3
855.18	42.15
855.354	68.78
855.529	15.53
855.704	-7
855.879	-35.67
856.053	17.58
856.228	36.01
856.403	25.77
856.577	5.29
856.752	89.26
856.926	-17.24
857.101	50.35
857.276	-21.33
857.45	-13.14
857.625	27.82
857.799	23.72
857.974	66.73
858.148	5.29
858.323	81.07
858.497	52.39
858.672	40.11
858.846	-70.48
859.02	-41.81
859.195	-23.38
859.369	-9.05
859.543	3.24
859.718	48.3
859.892	1.19
860.066	-23.38
860.241	-21.33
860.415	-7
860.589	48.3
860.763	-39.76
860.938	36.01
861.112	40.11
861.286	-9.05
861.46	-7
861.634	-37.72
861.808	74.92
861.982	-25.43
862.157	1.19
862.331	-15.19
862.505	-4.95
862.679	-7
862.853	11.43
863.027	-9.05
863.201	11.43
863.375	-9.05
863.549	13.48
863.722	15.53
863.896	56.49
864.07	83.11
864.244	36.01
864.418	29.87
864.592	89.26
864.766	-0.85
864.939	15.53
865.113	-50
865.287	-17.24
865.461	27.82
865.634	56.49
865.808	-0.85
865.982	3.24
866.156	-33.62
866.329	17.58
866.503	19.63
866.676	-23.38
866.85	89.26
867.024	-25.43
867.197	19.63
867.371	31.91
867.544	91.31
867.718	-29.52
867.891	3.24
868.065	-29.52
868.238	15.53
868.412	58.54
868.585	17.58
868.759	-29.52
868.932	29.87
869.105	-97.11
869.279	-25.43
869.452	23.72
869.625	-15.19
869.799	42.15
869.972	5.29
870.145	17.58
870.319	-7
870.492	23.72
870.665	7.34
870.838	19.63
871.011	-62.29
871.185	1.19
871.358	-56.15
871.531	-33.62
871.704	17.58
871.877	9.39
872.05	-50
872.223	-9.05
872.396	-9.05
872.569	-11.09
872.742	7.34
872.915	29.87
873.088	-9.05
873.261	-0.85
873.434	85.16
873.607	-50
873.78	25.77
873.953	-13.14
874.126	3.24
874.299	-45.91
874.471	-19.29
874.644	-4.95
874.817	-0.85
874.99	15.53
875.163	-99.16
875.335	1.19
875.508	7.34
875.681	36.01
875.853	-33.62
876.026	1.19
876.199	21.67
876.371	-74.58
876.544	-4.95
876.717	-21.33
876.889	-13.14
877.062	-7
877.234	44.2
877.407	-9.05
877.579	11.43
877.752	3.24
877.924	19.63
878.097	-13.14
878.269	62.63
878.442	-17.24
878.614	-31.57
878.786	-39.76
878.959	-19.29
879.131	-2.9
879.303	-25.43
879.476	-0.85
879.648	48.3
879.82	36.01
879.993	-58.2
880.165	-95.06
880.337	25.77
880.509	-11.09
880.681	42.15
880.854	-9.05
881.026	1.19
881.198	-0.85
881.37	-25.43
881.542	-4.95
881.714	-4.95
881.886	3.24
882.058	52.39
882.23	11.43
882.402	72.87
882.574	-21.33
882.746	-31.57
882.918	27.82
883.09	5.29
883.262	70.83
883.434	66.73
883.606	-9.05
883.778	44.2
883.95	85.16
884.122	66.73
884.293	66.73
884.465	58.54
884.637	38.06
884.809	-15.19
884.98	-11.09
885.152	-74.58
885.324	36.01
885.496	3.24
885.667	7.34
885.839	-37.72
886.011	40.11
886.182	-29.52
886.354	19.63
886.525	-9.05
886.697	-23.38
886.869	-25.43
887.04	-7
887.212	7.34
887.383	105.64
887.555	9.39
887.726	-99.16
887.897	-15.19
888.069	31.91
888.24	-4.95
888.412	-45.91
888.583	17.58
888.754	-13.14
888.926	-15.19
889.097	42.15
889.268	-90.96
889.44	56.49
889.611	-74.58
889.782	-15.19
889.953	-39.76
890.125	36.01
890.296	-33.62
890.467	-25.43
890.638	48.3
890.809	-17.24
890.98	-33.62
891.151	62.63
891.323	36.01
891.494	9.39
891.665	29.87
891.836	9.39
892.007	-88.92
892.178	31.91
892.349	7.34
892.52	7.34
892.691	19.63
892.862	-13.14
893.032	-4.95
893.203	-25.43
893.374	1.19
893.545	25.77
893.716	44.2
893.887	-17.24
894.057	-47.96
894.228	17.58
894.399	15.53
894.57	-9.05
894.74	-0.85
894.911	5.29
895.082	9.39
895.253	-29.52
895.423	-25.43
895.594	-0.85
895.764	-43.86
895.935	9.39
896.106	-13.14
896.276	-41.81
896.447	15.53
896.617	23.72
896.788	5.29
896.958	9.39
897.129	-17.24
897.299	15.53
897.47	3.24
897.64	-2.9
897.81	-9.05
897.981	-9.05
898.151	-39.76
898.322	33.96
898.492	-25.43
898.662	-17.24
898.832	7.34
899.003	-7
899.173	-23.38
899.343	-7
899.513	-68.44
