Data from USB4F104151__145__14-19-19-751.txt Node

Date: Thu Mar 13 14:19:19 EDT 2025
User: louis
Spectrometer: USB4F10415
Trigger mode: 4
Integration Time (sec): 2.000000E-2
Scans to average: 1
Electric dark correction enabled: true
Nonlinearity correction enabled: false
Boxcar width: 0
XAxis mode: Wavelengths
Number of Pixels in Spectrum: 3648
>>>>>Begin Spectral Data<<<<<
178.204	-97.79
178.424	-97.79
178.644	-97.79
178.864	-67.07
179.084	-99.84
179.304	-36.35
179.524	-58.88
179.744	51.71
179.964	16.9
180.184	31.23
180.404	-1.54
180.624	-26.11
180.844	2.56
181.064	-46.59
181.283	2.56
181.503	-24.06
181.723	88.57
181.943	-67.07
182.163	66.05
182.383	-17.92
182.602	-7.68
182.822	14.85
183.042	64
183.262	43.52
183.482	33.28
183.701	-28.16
183.921	-50.69
184.141	-7.68
184.361	35.33
184.58	-44.54
184.8	64
185.02	68.09
185.239	80.38
185.459	51.71
185.679	51.71
185.898	27.14
186.118	18.94
186.338	-17.92
186.557	14.85
186.777	-1.54
186.997	31.23
187.216	10.75
187.436	6.66
187.655	6.66
187.875	61.95
188.095	10.75
188.314	47.62
188.534	84.48
188.753	-11.78
188.973	0.51
189.192	64
189.412	16.9
189.631	-34.3
189.851	41.47
190.07	23.04
190.29	-34.3
190.509	37.38
190.729	-1.54
190.948	115.2
191.168	109.05
191.387	25.09
191.607	6.66
191.826	72.19
192.045	-34.3
192.265	55.81
192.484	-22.02
192.704	-34.3
192.923	-52.74
193.142	125.44
193.362	14.85
193.581	59.9
193.8	55.81
194.02	104.96
194.239	37.38
194.458	43.52
194.678	76.29
194.897	-24.06
195.116	33.28
195.335	-1.54
195.555	-15.87
195.774	-13.82
195.993	-1.54
196.212	14.85
196.432	-13.82
196.651	-46.59
196.87	25.09
197.089	55.81
197.308	27.14
197.528	23.04
197.747	-9.73
197.966	35.33
198.185	80.38
198.404	-5.63
198.623	61.95
198.842	59.9
199.062	102.91
199.281	123.39
199.5	-3.58
199.719	76.29
199.938	59.9
200.157	8.7
200.376	-9.73
200.595	64
200.814	2.56
201.033	-32.26
201.252	-5.63
201.471	35.33
201.69	-1.54
201.909	35.33
202.128	31.23
202.347	55.81
202.566	-26.11
202.785	39.42
203.004	47.62
203.223	80.38
203.442	51.71
203.661	-32.26
203.879	6.66
204.098	2.56
204.317	23.04
204.536	23.04
204.755	37.38
204.974	37.38
205.193	64
205.411	129.53
205.63	4.61
205.849	47.62
206.068	33.28
206.287	18.94
206.505	-46.59
206.724	14.85
206.943	39.42
207.162	55.81
207.381	10.75
207.599	-9.73
207.818	8.7
208.037	-1.54
208.255	-7.68
208.474	-1.54
208.693	4.61
208.911	4.61
209.13	29.18
209.349	80.38
209.567	8.7
209.786	90.62
210.005	59.9
210.223	25.09
210.442	-3.58
210.661	72.19
210.879	-15.87
211.098	-22.02
211.316	8.7
211.535	94.72
211.753	-38.4
211.972	-7.68
212.191	25.09
212.409	8.7
212.628	18.94
212.846	16.9
213.065	-9.73
213.283	117.25
213.502	-26.11
213.72	2.56
213.938	23.04
214.157	-32.26
214.375	90.62
214.594	39.42
214.812	33.28
215.031	41.47
215.249	6.66
215.467	-17.92
215.686	-1.54
215.904	55.81
216.122	-71.17
216.341	-1.54
216.559	2.56
216.778	-28.16
216.996	25.09
217.214	-24.06
217.432	-17.92
217.651	-38.4
217.869	23.04
218.087	43.52
218.306	55.81
218.524	61.95
218.742	-9.73
218.96	16.9
219.179	-5.63
219.397	109.05
219.615	-5.63
219.833	10.75
220.051	43.52
220.27	68.09
220.488	47.62
220.706	-17.92
220.924	-15.87
221.142	55.81
221.36	39.42
221.578	76.29
221.796	39.42
222.015	47.62
222.233	12.8
222.451	43.52
222.669	2.56
222.887	18.94
223.105	-26.11
223.323	-9.73
223.541	10.75
223.759	39.42
223.977	6.66
224.195	31.23
224.413	55.81
224.631	-7.68
224.849	31.23
225.067	-15.87
225.285	-50.69
225.503	-7.68
225.721	-15.87
225.939	8.7
226.157	-9.73
226.375	129.53
226.592	72.19
226.81	59.9
227.028	-28.16
227.246	90.62
227.464	51.71
227.682	49.66
227.9	16.9
228.117	33.28
228.335	35.33
228.553	27.14
228.771	31.23
228.989	-1.54
229.206	64
229.424	-42.5
229.642	27.14
229.86	23.04
230.077	84.48
230.295	55.81
230.513	-24.06
230.731	-30.21
230.948	80.38
231.166	31.23
231.384	-30.21
231.601	14.85
231.819	31.23
232.037	-24.06
232.254	-40.45
232.472	115.2
232.689	-15.87
232.907	31.23
233.125	14.85
233.342	31.23
233.56	-26.11
233.777	-9.73
233.995	14.85
234.213	2.56
234.43	31.23
234.648	47.62
234.865	-17.92
235.083	2.56
235.3	27.14
235.518	43.52
235.735	113.15
235.953	66.05
236.17	-65.02
236.388	6.66
236.605	49.66
236.822	33.28
237.04	-17.92
237.257	37.38
237.475	6.66
237.692	47.62
237.909	35.33
238.127	78.33
238.344	2.56
238.562	-7.68
238.779	53.76
238.996	25.09
239.214	31.23
239.431	68.09
239.648	23.04
239.865	25.09
240.083	6.66
240.3	-13.82
240.517	-5.63
240.735	-9.73
240.952	-28.16
241.169	121.34
241.386	70.14
241.603	31.23
241.821	-17.92
242.038	14.85
242.255	76.29
242.472	10.75
242.689	31.23
242.907	47.62
243.124	-44.54
243.341	2.56
243.558	14.85
243.775	-34.3
243.992	-50.69
244.209	-11.78
244.426	8.7
244.643	43.52
244.86	49.66
245.078	80.38
245.295	41.47
245.512	14.85
245.729	-69.12
245.946	10.75
246.163	-22.02
246.38	-40.45
246.597	-17.92
246.814	6.66
247.031	43.52
247.248	10.75
247.464	-3.58
247.681	0.51
247.898	-17.92
248.115	6.66
248.332	-1.54
248.549	43.52
248.766	64
248.983	23.04
249.2	6.66
249.417	-9.73
249.633	64
249.85	-1.54
250.067	-44.54
250.284	-34.3
250.501	29.18
250.717	104.96
250.934	-17.92
251.151	-32.26
251.368	-40.45
251.585	70.14
251.801	-32.26
252.018	-56.83
252.235	59.9
252.451	-17.92
252.668	-1.54
252.885	111.1
253.102	23.04
253.318	14.85
253.535	-40.45
253.752	47.62
253.968	6.66
254.185	-7.68
254.401	-26.11
254.618	39.42
254.835	-7.68
255.051	14.85
255.268	-1.54
255.484	18.94
255.701	-11.78
255.917	14.85
256.134	14.85
256.351	2.56
256.567	-1.54
256.784	68.09
257	6.66
257.217	18.94
257.433	66.05
257.65	39.42
257.866	59.9
258.082	33.28
258.299	35.33
258.515	-38.4
258.732	-5.63
258.948	-46.59
259.165	33.28
259.381	25.09
259.597	35.33
259.814	23.04
260.03	-5.63
260.246	39.42
260.463	-9.73
260.679	41.47
260.895	72.19
261.112	80.38
261.328	-17.92
261.544	41.47
261.761	68.09
261.977	-26.11
262.193	18.94
262.409	47.62
262.626	41.47
262.842	80.38
263.058	-58.88
263.274	-40.45
263.49	-46.59
263.707	-1.54
263.923	10.75
264.139	-42.5
264.355	33.28
264.571	41.47
264.787	-5.63
265.004	-9.73
265.22	20.99
265.436	41.47
265.652	82.43
265.868	-42.5
266.084	-17.92
266.3	104.96
266.516	51.71
266.732	31.23
266.948	20.99
267.164	27.14
267.38	41.47
267.596	-36.35
267.812	39.42
268.028	70.14
268.244	-50.69
268.46	16.9
268.676	-56.83
268.892	25.09
269.108	-1.54
269.324	14.85
269.54	47.62
269.756	49.66
269.972	-22.02
270.188	35.33
270.403	23.04
270.619	74.24
270.835	16.9
271.051	39.42
271.267	51.71
271.483	-54.78
271.698	90.62
271.914	-1.54
272.13	33.28
272.346	-87.55
272.562	-7.68
272.777	-7.68
272.993	8.7
273.209	-32.26
273.425	-11.78
273.64	76.29
273.856	-7.68
274.072	-17.92
274.287	-26.11
274.503	8.7
274.719	104.96
274.934	31.23
275.15	18.94
275.366	4.61
275.581	29.18
275.797	41.47
276.012	39.42
276.228	-9.73
276.444	27.14
276.659	27.14
276.875	25.09
277.09	14.85
277.306	-28.16
277.521	51.71
277.737	6.66
277.952	72.19
278.168	64
278.383	80.38
278.599	-30.21
278.814	47.62
279.03	23.04
279.245	141.82
279.461	-22.02
279.676	-34.3
279.892	-22.02
280.107	55.81
280.322	20.99
280.538	33.28
280.753	-19.97
280.969	-17.92
281.184	8.7
281.399	-17.92
281.615	23.04
281.83	-34.3
282.045	-22.02
282.26	-1.54
282.476	-9.73
282.691	23.04
282.906	14.85
283.122	-26.11
283.337	-34.3
283.552	-3.58
283.767	74.24
283.983	35.33
284.198	64
284.413	-40.45
284.628	-1.54
284.843	-32.26
285.058	-5.63
285.274	6.66
285.489	-48.64
285.704	25.09
285.919	-34.3
286.134	37.38
286.349	49.66
286.564	6.66
286.779	39.42
286.995	-1.54
287.21	37.38
287.425	25.09
287.64	-34.3
287.855	31.23
288.07	16.9
288.285	55.81
288.5	-1.54
288.715	39.42
288.93	59.9
289.145	-28.16
289.36	84.48
289.575	2.56
289.79	23.04
290.004	12.8
290.219	-15.87
290.434	41.47
290.649	2.56
290.864	6.66
291.079	-11.78
291.294	57.86
291.509	29.18
291.724	-9.73
291.938	16.9
292.153	0.51
292.368	35.33
292.583	49.66
292.798	35.33
293.012	76.29
293.227	27.14
293.442	-1.54
293.657	135.68
293.871	55.81
294.086	25.09
294.301	84.48
294.516	31.23
294.73	39.42
294.945	14.85
295.16	64
295.374	14.85
295.589	41.47
295.804	-26.11
296.018	43.52
296.233	43.52
296.447	2.56
296.662	0.51
296.877	47.62
297.091	16.9
297.306	76.29
297.52	-24.06
297.735	31.23
297.949	25.09
298.164	68.09
298.378	-42.5
298.593	-40.45
298.807	61.95
299.022	47.62
299.236	74.24
299.451	-24.06
299.665	-1.54
299.88	78.33
300.094	-11.78
300.309	-28.16
300.523	41.47
300.737	-50.69
300.952	31.23
301.166	61.95
301.381	18.94
301.595	41.47
301.809	68.09
302.024	-9.73
302.238	-9.73
302.452	57.86
302.667	-15.87
302.881	25.09
303.095	-11.78
303.309	18.94
303.524	14.85
303.738	-58.88
303.952	37.38
304.166	-1.54
304.381	-1.54
304.595	41.47
304.809	-3.58
305.023	72.19
305.237	25.09
305.452	-17.92
305.666	-42.5
305.88	74.24
306.094	74.24
306.308	29.18
306.522	57.86
306.736	-32.26
306.95	90.62
307.164	-9.73
307.379	84.48
307.593	64
307.807	25.09
308.021	-5.63
308.235	-9.73
308.449	6.66
308.663	-69.12
308.877	16.9
309.091	14.85
309.305	55.81
309.519	2.56
309.733	113.15
309.947	-22.02
310.161	-7.68
310.374	137.73
310.588	8.7
310.802	-7.68
311.016	25.09
311.23	16.9
311.444	109.05
311.658	33.28
311.872	25.09
312.085	14.85
312.299	33.28
312.513	-11.78
312.727	88.57
312.941	-15.87
313.154	16.9
313.368	107.01
313.582	90.62
313.796	-7.68
314.009	18.94
314.223	29.18
314.437	74.24
314.651	18.94
314.864	4.61
315.078	59.9
315.292	25.09
315.505	-32.26
315.719	6.66
315.933	-7.68
316.146	-1.54
316.36	47.62
316.573	88.57
316.787	59.9
317.001	39.42
317.214	33.28
317.428	25.09
317.641	-9.73
317.855	-67.07
318.068	68.09
318.282	45.57
318.495	90.62
318.709	23.04
318.922	96.77
319.136	27.14
319.349	113.15
319.563	59.9
319.776	-34.3
319.99	-24.06
320.203	55.81
320.417	39.42
320.63	18.94
320.843	29.18
321.057	6.66
321.27	-3.58
321.483	-9.73
321.697	113.15
321.91	31.23
322.124	-9.73
322.337	-46.59
322.55	-5.63
322.763	25.09
322.977	18.94
323.19	-52.74
323.403	-60.93
323.617	0.51
323.83	39.42
324.043	-13.82
324.256	37.38
324.469	-32.26
324.683	86.53
324.896	31.23
325.109	-9.73
325.322	25.09
325.535	2.56
325.748	115.2
325.962	47.62
326.175	51.71
326.388	-28.16
326.601	18.94
326.814	43.52
327.027	-5.63
327.24	35.33
327.453	18.94
327.666	59.9
327.879	31.23
328.092	31.23
328.305	64
328.518	41.47
328.731	53.76
328.944	39.42
329.157	55.81
329.37	74.24
329.583	41.47
329.796	10.75
330.009	-40.45
330.222	-19.97
330.435	18.94
330.648	14.85
330.861	57.86
331.073	80.38
331.286	25.09
331.499	-5.63
331.712	18.94
331.925	41.47
332.138	74.24
332.35	66.05
332.563	-38.4
332.776	8.7
332.989	-15.87
333.202	-1.54
333.414	-26.11
333.627	80.38
333.84	-26.11
334.053	16.9
334.265	64
334.478	-24.06
334.691	-46.59
334.903	6.66
335.116	-67.07
335.329	4.61
335.541	121.34
335.754	49.66
335.966	-62.98
336.179	6.66
336.392	10.75
336.604	-13.82
336.817	37.38
337.029	59.9
337.242	59.9
337.454	31.23
337.667	-54.78
337.88	59.9
338.092	4.61
338.305	80.38
338.517	39.42
338.729	-3.58
338.942	88.57
339.154	18.94
339.367	-11.78
339.579	43.52
339.792	51.71
340.004	76.29
340.217	25.09
340.429	72.19
340.641	-87.55
340.854	16.9
341.066	117.25
341.278	119.29
341.491	107.01
341.703	55.81
341.915	-13.82
342.128	-11.78
342.34	0.51
342.552	86.53
342.764	23.04
342.977	41.47
343.189	27.14
343.401	31.23
343.613	0.51
343.826	2.56
344.038	72.19
344.25	51.71
344.462	16.9
344.674	117.25
344.886	14.85
345.099	53.76
345.311	90.62
345.523	-5.63
345.735	-42.5
345.947	2.56
346.159	29.18
346.371	33.28
346.583	6.66
346.795	55.81
347.007	-36.35
347.219	18.94
347.431	8.7
347.643	64
347.855	6.66
348.067	66.05
348.279	-34.3
348.491	74.24
348.703	10.75
348.915	43.52
349.127	68.09
349.339	51.71
349.551	-5.63
349.763	35.33
349.975	18.94
350.187	-9.73
350.399	18.94
350.61	-15.87
350.822	-3.58
351.034	59.9
351.246	92.67
351.458	8.7
351.669	72.19
351.881	31.23
352.093	20.99
352.305	39.42
352.517	25.09
352.728	55.81
352.94	33.28
353.152	-26.11
353.363	55.81
353.575	-17.92
353.787	100.86
353.999	-3.58
354.21	64
354.422	-1.54
354.633	-15.87
354.845	-17.92
355.057	-26.11
355.268	-1.54
355.48	14.85
355.692	41.47
355.903	64
356.115	23.04
356.326	31.23
356.538	16.9
356.749	98.81
356.961	49.66
357.172	14.85
357.384	64
357.595	82.43
357.807	92.67
358.018	-1.54
358.23	18.94
358.441	84.48
358.653	39.42
358.864	-5.63
359.075	0.51
359.287	39.42
359.498	78.33
359.709	8.7
359.921	33.28
360.132	-58.88
360.344	39.42
360.555	-1.54
360.766	-56.83
360.977	29.18
361.189	72.19
361.4	43.52
361.611	33.28
361.823	88.57
362.034	27.14
362.245	16.9
362.456	33.28
362.667	47.62
362.879	0.51
363.09	4.61
363.301	125.44
363.512	14.85
363.723	-30.21
363.935	64
364.146	10.75
364.357	74.24
364.568	8.7
364.779	-15.87
364.99	82.43
365.201	33.28
365.412	41.47
365.623	-13.82
365.834	98.81
366.045	74.24
366.256	-9.73
366.467	61.95
366.678	31.23
366.889	41.47
367.1	4.61
367.311	76.29
367.522	47.62
367.733	-40.45
367.944	25.09
368.155	33.28
368.366	55.81
368.577	29.18
368.788	2.56
368.999	47.62
369.209	23.04
369.42	88.57
369.631	115.2
369.842	59.9
370.053	-26.11
370.264	23.04
370.474	14.85
370.685	35.33
370.896	39.42
371.107	23.04
371.317	6.66
371.528	55.81
371.739	88.57
371.95	-48.64
372.16	-26.11
372.371	6.66
372.582	57.86
372.792	35.33
373.003	23.04
373.214	51.71
373.424	47.62
373.635	-24.06
373.846	8.7
374.056	-13.82
374.267	68.09
374.477	14.85
374.688	47.62
374.898	-17.92
375.109	41.47
375.319	41.47
375.53	-7.68
375.74	20.99
375.951	39.42
376.161	-13.82
376.372	59.9
376.582	6.66
376.793	14.85
377.003	78.33
377.214	51.71
377.424	27.14
377.635	66.05
377.845	18.94
378.055	72.19
378.266	-5.63
378.476	12.8
378.686	141.82
378.897	47.62
379.107	6.66
379.317	6.66
379.528	61.95
379.738	41.47
379.948	10.75
380.158	18.94
380.369	-26.11
380.579	-19.97
380.789	0.51
380.999	43.52
381.21	23.04
381.42	137.73
381.63	-42.5
381.84	74.24
382.05	55.81
382.261	25.09
382.471	18.94
382.681	6.66
382.891	49.66
383.101	43.52
383.311	23.04
383.521	-83.45
383.731	-1.54
383.941	55.81
384.151	53.76
384.361	33.28
384.571	72.19
384.781	27.14
384.991	41.47
385.201	41.47
385.411	33.28
385.621	16.9
385.831	41.47
386.041	90.62
386.251	41.47
386.461	70.14
386.671	14.85
386.881	88.57
387.091	-1.54
387.301	31.23
387.511	35.33
387.72	33.28
387.93	6.66
388.14	66.05
388.35	-50.69
388.56	25.09
388.769	-34.3
388.979	55.81
389.189	47.62
389.399	23.04
389.609	57.86
389.818	43.52
390.028	51.71
390.238	14.85
390.447	-5.63
390.657	98.81
390.867	72.19
391.076	-22.02
391.286	66.05
391.496	55.81
391.705	70.14
391.915	37.38
392.125	14.85
392.334	72.19
392.544	90.62
392.753	39.42
392.963	12.8
393.172	14.85
393.382	41.47
393.591	41.47
393.801	6.66
394.01	14.85
394.22	55.81
394.429	100.86
394.639	74.24
394.848	96.77
395.058	31.23
395.267	47.62
395.477	90.62
395.686	109.05
395.895	51.71
396.105	68.09
396.314	-32.26
396.524	64
396.733	23.04
396.942	55.81
397.152	47.62
397.361	98.81
397.57	23.04
397.78	107.01
397.989	74.24
398.198	92.67
398.407	55.81
398.617	35.33
398.826	39.42
399.035	45.57
399.244	82.43
399.453	41.47
399.663	12.8
399.872	72.19
400.081	6.66
400.29	88.57
400.499	45.57
400.708	68.09
400.917	145.92
401.127	113.15
401.336	61.95
401.545	43.52
401.754	72.19
401.963	109.05
402.172	86.53
402.381	31.23
402.59	72.19
402.799	170.49
403.008	88.57
403.217	150.01
403.426	104.96
403.635	64
403.844	57.86
404.053	107.01
404.262	90.62
404.471	98.81
404.68	100.86
404.888	131.58
405.097	121.34
405.306	74.24
405.515	201.21
405.724	123.39
405.933	96.77
406.142	80.38
406.35	131.58
406.559	129.53
406.768	66.05
406.977	96.77
407.185	164.35
407.394	205.31
407.603	135.68
407.812	211.45
408.02	203.26
408.229	135.68
408.438	180.73
408.646	164.35
408.855	145.92
409.064	190.97
409.272	117.25
409.481	268.8
409.69	240.12
409.898	213.5
410.107	236.03
410.315	172.54
410.524	207.36
410.733	225.79
410.941	209.4
411.15	195.07
411.358	229.88
411.567	342.52
411.775	289.28
411.984	266.75
412.192	301.56
412.401	317.95
412.609	311.8
412.818	410.11
413.026	334.33
413.234	451.07
413.443	334.33
413.651	375.29
413.86	440.83
414.068	492.02
414.276	449.02
414.485	416.25
414.693	502.26
414.901	475.64
415.11	571.9
415.318	514.55
415.526	489.98
415.734	571.9
415.943	586.23
416.151	619
416.359	571.9
416.567	641.53
416.776	688.63
416.984	719.35
417.192	768.5
417.4	643.57
417.608	707.06
417.817	721.4
418.025	848.37
418.233	885.23
418.441	846.32
418.649	897.52
418.857	975.35
419.065	907.76
419.273	1001.97
419.481	967.15
419.689	1110.51
419.897	1145.33
420.105	1092.08
420.313	1178.09
420.521	1174
420.729	1262.06
420.937	1268.2
421.145	1278.44
421.353	1368.56
421.561	1573.35
421.769	1563.11
421.977	1458.67
422.185	1489.39
422.393	1571.3
422.601	1651.17
422.809	1604.07
423.017	1690.09
423.224	1853.92
423.432	1866.21
423.64	1821.16
423.848	1980.9
424.056	1907.17
424.263	2152.93
424.471	2046.43
424.679	2107.87
424.887	2275.81
425.094	2345.44
425.302	2337.24
425.51	2413.02
425.718	2537.95
425.925	2433.5
426.133	2607.58
426.341	2789.85
426.548	2914.77
426.756	2783.7
426.964	2900.44
427.171	3015.12
427.379	3197.39
427.586	3267.02
427.794	3348.94
428.001	3496.39
428.209	3529.16
428.417	3561.93
428.624	3760.58
428.832	3774.92
429.039	3750.34
429.247	3717.58
429.454	4127.17
429.662	4235.71
429.869	4161.98
430.076	4446.65
430.284	4301.25
430.491	4512.19
430.699	4721.08
430.906	4757.94
431.114	4712.89
431.321	4864.44
431.528	4995.51
431.736	5362.09
431.943	5634.47
432.15	5562.8
432.358	5570.99
432.565	5849.51
432.772	5677.48
432.979	6109.6
433.187	6285.73
433.394	6216.1
433.601	6375.84
433.808	6707.61
434.016	6662.55
434.223	6871.45
434.43	7530.89
434.637	7027.09
434.844	7616.91
435.052	7817.61
435.259	7809.42
435.466	7801.22
435.673	7735.69
435.88	8200.58
436.087	8718.71
436.294	8628.6
436.501	8225.15
436.708	8616.32
436.915	8780.15
437.122	9251.19
437.329	9281.91
437.537	9361.78
437.743	9705.84
437.95	9599.34
438.157	10119.53
438.364	10420.58
438.571	10643.81
438.778	10363.23
438.985	11608.4
439.192	11049.3
439.399	11190.61
439.606	11184.47
439.813	11762
440.02	12407.11
440.227	12132.68
440.433	12288.32
440.64	12675.39
440.847	12312.9
441.054	12577.09
441.261	13623.6
441.467	13289.78
441.674	13822.25
441.881	14207.27
442.088	14080.3
442.294	13875.5
442.501	14428.45
442.708	14524.71
442.914	15196.44
443.121	15847.69
443.328	15030.55
443.534	16414.98
443.741	16056.59
443.948	15794.45
444.154	16984.32
444.361	16634.11
444.568	16828.67
444.774	17135.87
444.981	17217.79
445.187	17885.42
445.394	18137.32
445.6	18252.01
445.807	20068.56
446.013	19009.76
446.22	19005.66
446.426	19853.52
446.633	20222.16
446.839	21086.4
447.046	20050.13
447.252	21047.49
447.459	21256.38
447.665	21268.67
447.871	21991.6
448.078	23232.67
448.284	21668.02
448.491	22407.34
448.697	23169.18
448.903	23890.07
449.11	24105.1
449.316	23425.18
449.522	23894.16
449.728	25057.41
449.935	24604.81
450.141	24830.09
450.347	25575.55
450.553	24895.62
450.76	24914.05
450.966	25802.87
451.172	25251.97
451.378	26275.95
451.584	25639.03
451.791	26054.77
451.997	26085.49
452.203	26644.59
452.409	26380.4
452.615	26542.19
452.821	25221.25
453.027	25501.82
453.233	26681.45
453.44	25411.71
453.646	26108.02
453.852	26286.19
454.058	26302.57
454.264	25798.77
454.47	26562.67
454.676	25811.06
454.882	26585.19
455.088	24080.53
455.294	24602.76
455.5	25030.79
455.705	25395.32
455.911	24393.87
456.117	24066.19
456.323	23468.19
456.529	22239.4
456.735	23328.92
456.941	22780.07
457.147	22470.83
457.352	21362.87
457.558	21577.91
457.764	21336.25
457.97	21147.84
458.176	20379.85
458.381	20656.32
458.587	19683.54
458.793	19761.36
458.999	18905.31
459.204	20080.85
459.41	19325.15
459.616	18231.53
459.821	18227.43
460.027	17742.07
460.233	17686.77
460.438	16750.85
460.644	17322.23
460.85	16089.35
461.055	16118.03
461.261	16023.82
461.466	14850.33
461.672	14391.59
461.878	15507.73
462.083	14422.31
462.289	14274.85
462.494	13812.01
462.7	13361.46
462.905	12853.56
463.111	13547.83
463.316	13445.43
463.522	13418.8
463.727	13242.68
463.932	13261.11
464.138	13269.3
464.343	13052.22
464.549	12527.94
464.754	13121.85
464.959	13115.7
465.165	12783.93
465.37	12360
465.575	11858.25
465.781	12374.34
465.986	12699.97
466.191	11936.07
466.397	11901.26
466.602	11239.76
466.807	11755.85
467.012	11565.39
467.218	11581.78
467.423	11430.23
467.628	11489.62
467.833	12040.52
468.038	11725.13
468.244	11350.35
468.449	11551.06
468.654	11370.83
468.859	11211.09
469.064	11258.2
469.269	10764.64
469.474	10731.87
469.679	10951
469.885	10703.2
470.09	10877.27
470.295	10729.82
470.5	10565.98
470.705	10426.72
470.91	10230.12
471.115	10383.71
471.32	10428.77
471.525	10357.09
471.73	10140.01
471.935	10041.7
472.139	9689.45
472.344	9937.26
472.549	9957.74
472.754	9615.73
472.959	9324.91
473.164	9197.94
473.369	9124.21
473.574	9697.64
473.778	9521.52
473.983	9288.05
474.188	9335.15
474.393	8866.17
474.598	8837.5
474.802	8890.74
475.007	8878.46
475.212	8688
475.417	8296.83
475.621	8509.82
475.826	8462.72
476.031	8542.59
476.235	8298.88
476.44	8391.04
476.645	8151.43
476.849	8219.01
477.054	8042.89
477.259	7858.57
477.463	7686.54
477.668	7811.46
477.872	7745.93
478.077	7461.26
478.282	7397.78
478.486	7356.82
478.691	7379.34
478.895	7506.32
479.1	7365.01
479.304	7315.86
479.509	7031.19
479.713	7383.44
479.918	7045.52
480.122	6996.37
480.326	7063.96
480.531	7129.49
480.735	6896.02
480.94	6723.99
481.144	7207.31
481.348	6787.48
481.553	7031.19
481.757	6726.04
481.961	6996.37
482.166	6932.89
482.37	6947.22
482.574	6691.23
482.778	6654.36
482.983	7068.05
483.187	6916.5
483.391	6789.53
483.595	6709.66
483.8	6676.89
484.004	6838.68
484.208	6871.45
484.412	6767
484.616	6824.34
484.821	6957.46
485.025	6701.47
485.229	6842.78
485.433	6807.96
485.637	6791.58
485.841	6580.64
486.045	6621.59
486.249	6760.86
486.453	6762.9
486.657	6756.76
486.861	6855.06
487.065	6472.09
487.269	6785.43
487.473	6695.32
487.677	6822.3
487.881	6701.47
488.085	6701.47
488.289	6842.78
488.493	6805.91
488.697	6783.38
488.901	6818.2
489.105	6566.3
489.309	6742.43
489.512	6844.82
489.716	6930.84
489.92	6883.73
490.124	6959.51
490.328	6887.83
490.531	6812.06
490.735	6887.83
490.939	6789.53
491.143	6828.44
491.346	6873.5
491.55	6914.45
491.754	6990.23
491.958	7135.64
492.161	7010.71
492.365	7152.02
492.569	7100.82
492.772	7209.36
492.976	7143.83
493.18	7149.97
493.383	7416.21
493.587	7309.71
493.79	7309.71
493.994	7164.31
494.197	7268.75
494.401	7408.01
494.605	7467.41
494.808	7520.65
495.012	7522.7
495.215	7668.11
495.419	7694.73
495.622	7741.83
495.825	7840.14
496.029	7690.63
496.232	7917.96
496.436	7936.39
496.639	8022.41
496.843	8067.46
497.046	8264.07
497.249	8378.75
497.453	8356.22
497.656	8366.46
497.859	8561.02
498.063	8774.01
498.266	8655.23
498.469	8542.59
498.673	8765.82
498.876	8776.06
499.079	8866.17
499.282	8911.22
499.485	9183.6
499.689	9253.23
499.892	9318.77
500.095	9435.5
500.298	9603.44
500.501	9490.8
500.705	9884.01
500.908	9759.08
501.111	9738.6
501.314	10053.99
501.517	10350.95
501.72	10223.97
501.923	10097
502.126	10574.17
502.329	10606.94
502.532	10893.66
502.735	10568.03
502.938	10914.14
503.141	11034.97
503.344	11073.88
503.547	11245.91
503.75	11387.22
503.953	11481.42
504.156	11587.92
504.359	11741.52
504.562	11727.18
504.765	11997.51
504.968	12302.66
505.17	12515.65
505.373	12263.75
505.576	12323.14
505.779	12620.1
505.982	12599.62
506.185	13115.7
506.387	12867.9
506.59	13039.93
506.793	12949.82
506.996	13101.37
507.198	13603.12
507.401	13695.28
507.604	13746.48
507.807	14137.64
508.009	14080.3
508.212	14242.09
508.415	14489.89
508.617	14407.97
508.82	14641.44
509.022	14412.07
509.225	14940.44
509.428	15139.1
509.63	14965.02
509.833	15391
510.035	15720.72
510.238	15456.53
510.44	15849.74
510.643	15950.09
510.845	16187.66
511.048	16201.99
511.25	16537.86
511.453	16537.86
511.655	16840.96
511.858	16859.39
512.06	17008.89
512.262	16906.49
512.465	17168.63
512.667	17422.58
512.87	17473.78
513.072	17715.44
513.274	18163.95
513.477	18307.3
513.679	18534.63
513.881	18643.17
514.084	18825.44
514.286	18702.56
514.488	18944.22
514.69	19413.21
514.893	19402.97
515.095	19407.06
515.297	19728.59
515.499	19785.94
515.701	19964.11
515.904	20295.88
516.106	20615.37
516.308	20635.85
516.51	20873.41
516.712	20631.75
516.914	20668.61
517.116	21233.85
517.318	21213.37
517.52	21690.55
517.722	21907.63
517.925	21881.01
518.127	22132.91
518.329	22337.71
518.531	22153.39
518.733	22554.79
518.935	23204
519.136	22986.91
519.338	23464.09
519.54	23453.85
519.742	23726.23
519.944	23767.19
520.146	23955.6
520.348	24144.02
520.55	24268.94
520.752	24385.68
520.954	24807.56
521.155	24856.71
521.357	24932.48
521.559	25411.71
521.761	25544.83
521.963	25888.88
522.164	25782.39
522.366	25786.49
522.568	26253.42
522.77	26341.49
522.971	26513.52
523.173	26581.1
523.375	26959.97
523.576	26542.19
523.778	26669.16
523.98	27332.7
524.181	27453.53
524.383	27433.05
524.584	27476.06
524.786	27797.59
524.988	27652.19
525.189	28000.34
525.391	28217.43
525.592	28373.07
525.794	28137.55
525.995	28411.98
526.197	28498
526.398	28688.46
526.6	28606.54
526.801	28958.79
527.003	28817.48
527.204	29122.63
527.406	29145.16
527.607	29546.56
527.808	29800.51
528.01	29071.43
528.211	29743.16
528.412	29851.7
528.614	30021.69
528.815	29947.96
529.016	30322.74
529.218	29669.44
529.419	30021.69
529.62	30005.3
529.822	29935.67
530.023	30044.21
530.224	30083.12
530.425	30382.13
530.626	30232.63
530.828	29691.96
531.029	30746.67
531.23	30550.06
531.431	30021.69
531.632	30611.5
531.833	30761
532.035	30697.52
532.236	30763.05
532.437	30986.28
532.638	30468.14
532.839	31025.19
533.04	30816.3
533.241	30576.69
533.442	31127.59
533.643	31074.34
533.844	31000.61
534.045	31066.15
534.246	30734.38
534.447	30904.36
534.648	30847.02
534.849	30935.08
535.05	30588.97
535.251	30844.97
535.451	30769.19
535.652	31053.86
535.853	30922.79
536.054	31180.84
536.255	30982.18
536.456	30896.17
536.657	31285.28
536.857	30973.99
537.058	30842.92
537.259	31094.82
537.46	31129.64
537.66	30820.39
537.861	31254.56
538.062	30666.8
538.263	30885.93
538.463	30879.78
538.664	30754.86
538.865	31000.61
539.065	31111.21
539.266	30695.47
539.466	30844.97
539.667	30668.84
539.868	31121.45
540.068	30963.75
540.269	30695.47
540.469	30980.14
540.67	31076.39
540.87	30949.42
541.071	30656.56
541.271	30603.31
541.472	30707.76
541.672	30574.64
541.873	30941.22
542.073	30541.87
542.274	30707.76
542.474	30613.55
542.675	30203.96
542.875	30998.57
543.075	30380.08
543.276	30765.1
543.476	31008.81
543.676	30521.39
543.877	30720.04
544.077	30433.33
544.277	30718
544.478	30615.6
544.678	30611.5
544.878	30490.67
545.078	30572.59
545.279	30406.7
545.479	30560.3
545.679	30513.2
545.879	30502.96
546.079	30840.87
546.28	30484.53
546.48	30439.47
546.68	30658.6
546.88	30384.18
547.08	30613.55
547.28	30257.2
547.48	30310.45
547.68	30496.81
547.88	30320.69
548.081	30570.54
548.281	30646.32
548.481	30339.12
548.681	30543.92
548.881	30597.17
549.081	30244.91
549.28	30351.41
549.48	30347.31
549.68	30216.24
549.88	30887.98
550.08	30236.72
550.28	30572.59
550.48	29808.7
550.68	30453.81
550.88	30365.74
551.08	30230.58
551.279	30576.69
551.479	30191.67
551.679	30396.46
551.879	30142.52
552.079	30212.15
552.278	29990.97
552.478	30175.28
552.678	30318.64
552.878	29749.31
553.077	30222.39
553.277	30300.21
553.477	30357.55
553.676	29900.86
553.876	29771.83
554.076	29995.06
554.275	29851.7
554.475	29370.43
554.674	29945.91
554.874	29990.97
555.074	29714.49
555.273	29782.07
555.473	29665.34
555.672	29784.12
555.872	29829.18
556.071	29847.61
556.271	30009.4
556.47	29368.38
556.67	29347.9
556.869	29648.96
557.068	29624.38
557.268	29263.94
557.467	29526.08
557.667	29067.33
557.866	29657.15
558.065	29407.3
558.265	29192.26
558.464	29222.98
558.663	29515.84
558.863	29057.09
559.062	29605.95
559.261	28770.38
559.461	29280.32
559.66	29120.58
559.859	29235.27
560.058	28997.7
560.258	28919.88
560.457	28862.54
560.656	29110.34
560.855	28739.66
561.054	28837.96
561.253	28667.98
561.453	28622.92
561.652	28885.06
561.851	28725.32
562.05	28790.86
562.249	28631.12
562.448	28753.99
562.647	28770.38
562.846	28428.37
563.045	28704.84
563.244	28235.86
563.443	28983.37
563.642	27992.15
563.841	28184.66
564.04	28424.27
564.239	28473.42
564.438	28129.36
564.637	28467.28
564.836	28248.14
565.035	27883.61
565.234	28004.44
565.432	27738.2
565.631	27783.26
565.83	27885.65
566.029	27615.32
566.228	27482.2
566.427	27293.79
566.625	27308.13
566.824	27371.61
567.023	27584.6
567.222	26865.77
567.42	27541.6
567.619	26886.25
567.818	27273.31
568.016	26896.49
568.215	27398.24
568.414	27310.18
568.612	27195.49
568.811	26876.01
569.01	27066.47
569.208	26566.76
569.407	26558.57
569.605	26589.29
569.804	26869.86
570.002	26353.77
570.201	26818.66
570.4	26128.5
570.598	26450.03
570.797	26460.27
570.995	26421.36
571.193	26325.1
571.392	26316.91
571.59	26089.59
571.789	25907.32
571.987	25780.34
572.186	26278
572.384	26022
572.582	25884.79
572.781	26007.67
572.979	25385.08
573.177	25604.22
573.376	25606.27
573.574	25741.43
573.772	25714.81
573.971	25526.39
574.169	25055.36
574.367	25448.57
574.565	25141.38
574.763	25200.77
574.962	24834.18
575.16	24660.1
575.358	24660.1
575.556	24547.47
575.754	25071.75
575.952	24506.51
576.151	24662.15
576.349	24443.02
576.547	24414.35
576.745	24647.82
576.943	24594.57
577.141	24162.45
577.339	24283.28
577.537	24416.4
577.735	24158.35
577.933	23947.41
578.131	24107.15
578.329	24019.09
578.527	23976.08
578.725	24006.8
578.923	24082.58
579.121	23824.53
579.319	23670.93
579.516	23695.51
579.714	23644.31
579.912	23734.42
580.11	23519.39
580.308	23498.91
580.506	23453.85
580.704	22988.96
580.901	23117.98
581.099	23404.7
581.297	22937.76
581.495	22884.51
581.692	23359.64
581.89	22823.08
582.088	22722.73
582.285	22927.52
582.483	23064.74
582.681	22747.3
582.878	22732.97
583.076	22495.4
583.274	22800.55
583.471	22466.73
583.669	22565.03
583.866	22223.02
584.064	22104.24
584.262	22030.51
584.459	22237.36
584.657	22337.71
584.854	22102.19
585.052	21919.92
585.249	21774.52
585.447	21997.74
585.644	21526.71
585.841	21602.49
586.039	21797.04
586.236	21500.09
586.434	21409.98
586.631	21225.66
586.828	21524.66
587.026	21174.46
587.223	21485.75
587.42	21211.32
587.618	21313.72
587.815	20869.31
588.012	20871.36
588.21	20877.51
588.407	21092.54
588.604	20875.46
588.801	20611.27
588.999	20719.81
589.196	20611.27
589.393	20619.46
589.59	20695.24
589.787	20549.83
589.984	20598.98
590.182	20162.76
590.379	20369.61
590.576	20420.81
590.773	20314.31
590.97	20158.67
591.167	20320.46
591.364	20181.2
591.561	20093.13
591.758	20078.8
591.955	19818.71
592.152	19839.19
592.349	19769.55
592.546	19980.5
592.743	19605.72
592.94	19585.24
593.137	19986.64
593.334	19716.31
593.531	19378.39
593.727	19429.59
593.924	19503.32
594.121	18921.7
594.318	19327.19
594.515	19013.85
594.712	19071.2
594.908	18966.75
595.105	19069.15
595.302	18690.27
595.499	19114.2
595.696	18692.32
595.892	18964.7
596.089	18784.48
596.286	18739.43
596.482	18651.36
596.679	18669.8
596.876	18680.03
597.072	18252.01
597.269	18522.34
597.466	18350.31
597.662	18335.98
597.859	18229.48
598.055	18192.62
598.252	18092.27
598.448	18120.94
598.645	17846.51
598.841	17942.77
599.038	17830.13
599.234	17705.2
599.431	17846.51
599.627	17537.27
599.824	17490.17
600.02	17694.96
600.217	17668.34
600.413	17522.93
600.609	17488.12
600.806	17457.4
601.002	17500.4
601.198	17250.55
601.395	17150.2
601.591	17182.97
601.787	17125.63
601.984	17168.63
602.18	17256.7
602.376	17004.8
602.572	16963.84
602.769	16902.4
602.965	16855.29
603.161	16851.2
603.357	16611.59
603.553	16496.9
603.75	16523.52
603.946	16494.85
604.142	16533.76
604.338	16466.18
604.534	16288.01
604.73	16146.7
604.926	16257.29
605.122	16335.11
605.318	16138.51
605.514	16175.37
605.71	16396.55
605.906	15976.72
606.102	16181.51
606.298	15954.19
606.494	15991.05
606.69	16120.07
606.886	16109.83
607.082	15792.4
607.278	15753.49
607.474	15505.68
607.67	15708.43
607.866	15636.75
608.062	15993.1
608.257	15679.76
608.453	15540.5
608.649	15507.73
608.845	15448.34
609.041	15440.15
609.236	15411.48
609.432	15280.41
609.628	15415.57
609.824	15610.13
610.019	15270.17
610.215	15397.14
610.411	15372.57
610.606	15407.38
610.802	15423.76
610.998	15227.16
611.193	15085.85
611.389	15046.94
611.584	15386.9
611.78	14993.69
611.976	15073.56
612.171	15081.75
612.367	15196.44
612.562	14874.91
612.758	14559.52
612.953	14870.81
613.149	14952.73
613.344	14653.73
613.539	15032.6
613.735	14850.33
613.93	14635.3
614.126	14635.3
614.321	14809.37
614.517	14598.43
614.712	14803.23
614.907	14510.37
615.103	14428.45
615.298	14743.84
615.493	14807.33
615.688	14285.09
615.884	14387.49
616.079	14240.04
616.274	14235.94
616.47	14383.4
616.665	14299.43
616.86	14215.46
617.055	14190.89
617.25	14207.27
617.445	14096.68
617.641	13859.12
617.836	14106.92
618.031	14039.34
618.226	14082.35
618.421	13961.51
618.616	13979.95
618.811	13887.79
619.006	13861.16
619.201	13547.83
619.396	13891.88
619.591	13637.94
619.786	13719.85
619.981	13451.57
620.176	13439.28
620.371	13257.01
620.566	13279.54
620.761	13367.6
620.956	13465.91
621.151	13265.21
621.346	13308.21
621.541	13093.18
621.735	13144.38
621.93	12835.13
622.125	13023.55
622.32	12671.29
622.515	12607.81
622.709	12747.07
622.904	12425.54
623.099	12583.23
623.294	12607.81
623.488	12333.38
623.683	12439.87
623.878	12130.63
624.072	12228.93
624.267	12392.77
624.462	12183.88
624.656	12069.19
624.851	11942.22
625.046	11974.99
625.24	11925.83
625.435	11786.57
625.629	11606.35
625.824	11680.08
626.018	11936.07
626.213	11360.59
626.407	11614.54
626.602	11411.79
626.796	11338.07
626.991	11327.83
627.185	11393.36
627.38	11237.72
627.574	11149.65
627.768	11106.65
627.963	10987.86
628.157	10821.98
628.352	10903.9
628.546	10844.51
628.74	10733.92
628.935	10828.12
629.129	10641.76
629.323	10531.17
629.517	10518.88
629.712	10518.88
629.906	10236.26
630.1	10277.22
630.294	10531.17
630.489	10338.66
630.683	10463.58
630.877	10217.83
631.071	10103.14
631.265	9978.22
631.459	10164.58
631.653	10099.05
631.848	9865.58
632.042	9664.88
632.236	9910.63
632.43	9742.7
632.624	9873.77
632.818	9683.31
633.012	9408.88
633.206	9599.34
633.4	9404.78
633.594	9480.56
633.788	9263.47
633.982	9355.63
634.176	9419.12
634.369	9175.41
634.563	9369.97
634.757	9105.78
634.951	9109.88
635.145	8933.75
635.339	9060.73
635.533	8923.51
635.726	8952.18
635.92	8911.22
636.114	8831.35
636.308	8638.84
636.501	8665.47
636.695	8761.72
636.889	8649.08
637.083	8481.15
637.276	8731
637.47	8501.63
637.664	8321.41
637.857	8528.25
638.051	8450.43
638.244	8192.39
638.438	8200.58
638.632	8110.47
638.825	8253.83
639.019	8231.3
639.212	8112.52
639.406	8053.13
639.599	8061.32
639.793	7971.21
639.986	7944.58
640.18	8034.69
640.373	7831.94
640.567	7840.14
640.76	7715.21
640.954	7692.68
641.147	7686.54
641.34	7586.19
641.534	7770.51
641.727	7534.99
641.92	7459.21
642.114	7336.34
642.307	7461.26
642.5	7262.61
642.694	7250.32
642.887	7397.78
643.08	7385.49
643.273	7219.6
643.467	7307.66
643.66	7143.83
643.853	7137.68
644.046	7072.15
644.239	7135.64
644.432	7078.29
644.626	6986.13
644.819	6945.17
645.012	6971.8
645.205	6896.02
645.398	6744.47
645.591	6705.56
645.784	6740.38
645.977	6769.05
646.17	6568.35
646.363	6637.98
646.556	6517.15
646.749	6588.83
646.942	6619.55
647.135	6511
647.328	6474.14
647.521	6484.38
647.714	6449.57
647.907	6248.86
648.099	6238.62
648.292	6332.83
648.485	6244.77
648.678	6183.33
648.871	6257.06
649.064	6097.31
649.256	6095.27
649.449	6150.56
649.642	6062.5
649.835	6007.2
650.027	6001.06
650.22	5904.81
650.413	5956.01
650.605	5976.48
650.798	5904.81
650.991	5898.66
651.183	5726.63
651.376	5953.96
651.568	5708.2
651.761	5765.54
651.954	5650.86
652.146	5716.39
652.339	5745.06
652.531	5636.52
652.724	5540.27
652.916	5546.41
653.109	5341.61
653.301	5478.83
653.494	5566.89
653.686	5460.4
653.879	5441.96
654.071	5411.25
654.263	5325.23
654.456	5464.49
654.648	5274.03
654.84	5413.29
655.033	5208.5
655.225	5255.6
655.417	5173.68
655.61	5216.69
655.802	5259.7
655.994	5192.11
656.186	5044.66
656.379	5026.23
656.571	5022.13
656.763	4919.73
656.955	4774.33
657.148	4880.82
657.34	4954.55
657.532	4905.4
657.724	4891.06
657.916	4932.02
658.108	4700.6
658.3	4716.98
658.492	4741.56
658.684	4737.46
658.876	4794.81
659.068	4676.02
659.26	4577.72
659.452	4536.76
659.644	4841.91
659.836	4645.31
660.028	4540.86
660.22	4557.24
660.412	4596.15
660.604	4528.57
660.796	4460.99
660.988	4463.04
661.18	4463.04
661.372	4317.63
661.563	4444.6
661.755	4309.44
661.947	4372.93
662.139	4293.05
662.331	4344.25
662.522	4186.56
662.714	4188.61
662.906	4233.66
663.097	4170.18
663.289	4182.46
663.481	4233.66
663.673	4045.25
663.864	4147.65
664.056	4051.39
664.247	4041.15
664.439	3940.8
664.631	4043.2
664.822	4129.22
665.014	4041.15
665.205	4000.19
665.397	3901.89
665.588	4020.67
665.78	3811.78
665.971	3887.56
666.163	3848.65
666.354	4037.06
666.546	3809.73
666.737	3750.34
666.929	3881.41
667.12	3824.07
667.311	3774.92
667.503	3717.58
667.694	3688.9
667.885	3654.09
668.077	3758.53
668.268	3697.1
668.459	3645.9
668.651	3545.55
668.842	3647.94
669.033	3619.27
669.224	3529.16
669.416	3545.55
669.607	3520.97
669.798	3537.35
669.989	3717.58
670.18	3713.48
670.371	3525.07
670.563	3498.44
670.754	3496.39
670.945	3463.63
671.136	3486.15
671.327	3357.13
671.518	3336.65
671.709	3531.21
671.9	3357.13
672.091	3467.72
672.282	3340.75
672.473	3203.54
672.664	3324.37
672.855	3332.56
673.046	3307.98
673.237	3367.37
673.428	3381.71
673.619	3369.42
673.809	3168.72
674	3226.06
674.191	3350.99
674.382	3133.9
674.573	3269.07
674.764	3219.92
674.954	3138
675.145	3117.52
675.336	3168.72
675.527	3176.91
675.717	3258.83
675.908	3080.66
676.099	3088.85
676.289	3062.23
676.48	3213.77
676.671	3056.08
676.861	3066.32
677.052	3109.33
677.243	2982.35
677.433	3111.38
677.624	3060.18
677.814	3021.27
678.005	3006.93
678.195	3103.18
678.386	3105.23
678.576	3031.51
678.767	3047.89
678.957	3037.65
679.148	2965.97
679.338	3045.84
679.529	2937.3
679.719	2996.69
679.909	2933.2
680.1	2933.2
680.29	2810.33
680.481	2990.55
680.671	2998.74
680.861	2884.05
681.052	2828.76
681.242	2867.67
681.432	2937.3
681.622	3013.07
681.813	2939.35
682.003	2882
682.193	2834.9
682.383	2925.01
682.573	2974.16
682.764	2914.77
682.954	2947.54
683.144	2925.01
683.334	2927.06
683.524	2972.11
683.714	2843.09
683.904	2769.37
684.094	2867.67
684.284	2826.71
684.474	2867.67
684.664	2818.52
684.854	2839
685.044	2732.5
685.234	2709.97
685.424	2730.45
685.614	2763.22
685.804	2636.25
685.994	2808.28
686.184	2660.82
686.374	2701.78
686.564	2828.76
686.753	2732.5
686.943	2632.15
687.133	2709.97
687.323	2693.59
687.513	2652.63
687.702	2687.45
687.892	2652.63
688.082	2589.14
688.272	2613.72
688.461	2611.67
688.651	2574.81
688.841	2640.34
689.03	2636.25
689.22	2589.14
689.41	2605.53
689.599	2560.47
689.789	2554.33
689.979	2503.13
690.168	2683.35
690.358	2611.67
690.547	2464.22
690.737	2484.7
690.926	2501.08
691.116	2505.18
691.305	2580.95
691.495	2419.16
691.684	2472.41
691.874	2550.23
692.063	2374.11
692.252	2505.18
692.442	2496.99
692.631	2374.11
692.82	2431.45
693.01	2312.67
693.199	2255.33
693.388	2327
693.578	2302.43
693.767	2294.24
693.956	2314.72
694.146	2308.57
694.335	2382.3
694.524	2267.61
694.713	2388.44
694.902	2343.39
695.092	2226.65
695.281	2339.29
695.47	2349.53
695.659	2302.43
695.848	2251.23
696.037	2169.31
696.226	2324.96
696.415	2322.91
696.604	2320.86
696.793	2230.75
696.982	2222.56
697.171	2261.47
697.36	2189.79
697.549	2120.16
697.738	2128.35
697.927	2296.28
698.116	2226.65
698.305	2163.17
698.494	2062.82
698.683	2013.67
698.872	2222.56
699.061	2064.86
699.25	2116.06
699.438	2128.35
699.627	2144.74
699.816	2240.99
700.005	2107.87
700.193	2226.65
700.382	2245.09
700.571	2163.17
700.76	2087.39
700.948	2087.39
701.137	2228.7
701.326	2138.59
701.514	2068.96
701.703	2089.44
701.892	2034.14
702.08	2152.93
702.269	2083.3
702.457	2087.39
702.646	2042.34
702.834	2128.35
703.023	2083.3
703.212	2066.91
703.4	2193.89
703.589	2021.86
703.777	2169.31
703.965	2062.82
704.154	2148.83
704.342	2023.91
704.531	2183.65
704.719	2071.01
704.907	2175.45
705.096	2120.16
705.284	2181.6
705.472	2103.78
705.661	2060.77
705.849	2161.12
706.037	2081.25
706.226	1999.33
706.414	1984.99
706.602	2007.52
706.79	2048.48
706.979	2048.48
707.167	2089.44
707.355	1999.33
707.543	2001.38
707.731	2095.58
707.919	2083.3
708.107	2034.14
708.296	2040.29
708.484	1917.41
708.672	2005.47
708.86	2023.91
709.048	2089.44
709.236	2009.57
709.424	1946.08
709.612	2073.06
709.8	1958.37
709.988	1960.42
710.176	1982.95
710.364	1974.75
710.551	1974.75
710.739	1898.98
710.927	1966.56
711.115	2128.35
711.303	1989.09
711.491	1931.75
711.679	1937.89
711.866	1876.45
712.054	1972.71
712.242	1972.71
712.43	2013.67
712.617	2032.1
712.805	2001.38
712.993	1966.56
713.181	1868.26
713.368	2054.62
713.556	1903.07
713.744	1853.92
713.931	1987.04
714.119	1939.94
714.306	1939.94
714.494	1894.88
714.682	2054.62
714.869	1966.56
715.057	1999.33
715.244	1995.23
715.432	1896.93
715.619	1991.14
715.807	1833.44
715.994	2001.38
716.182	1950.18
716.369	1923.55
716.556	1923.55
716.744	1907.17
716.931	1890.79
717.119	1997.28
717.306	1823.2
717.493	1925.6
717.681	1862.12
717.868	1888.74
718.055	1960.42
718.242	1884.64
718.43	1915.36
718.617	2007.52
718.804	1903.07
718.991	1923.55
719.179	1948.13
719.366	1991.14
719.553	1980.9
719.74	1835.49
719.927	1817.06
720.114	2007.52
720.301	1907.17
720.488	1731.05
720.676	1841.64
720.863	1915.36
721.05	1896.93
721.237	1909.22
721.424	1898.98
721.611	1911.27
721.798	1812.96
721.985	1821.16
722.172	1829.35
722.358	1866.21
722.545	1950.18
722.732	1839.59
722.919	1898.98
723.106	1808.87
723.293	1749.48
723.48	1798.63
723.667	1909.22
723.853	1829.35
724.04	1776.1
724.227	1862.12
724.414	1884.64
724.6	1855.97
724.787	1829.35
724.974	1882.6
725.161	1806.82
725.347	1802.72
725.534	1915.36
725.72	1753.57
725.907	1907.17
726.094	1733.09
726.28	1851.88
726.467	1825.25
726.653	1806.82
726.84	1915.36
727.027	1839.59
727.213	1769.96
727.4	1858.02
727.586	1720.81
727.773	1696.23
727.959	1849.83
728.145	1751.53
728.332	1825.25
728.518	1884.64
728.705	1860.07
728.891	1808.87
729.077	1759.72
729.264	1720.81
729.45	1839.59
729.636	1829.35
729.823	1743.33
730.009	1874.4
730.195	1755.62
730.382	1718.76
730.568	1628.65
730.754	1923.55
730.94	1731.05
731.126	1808.87
731.313	1812.96
731.499	1776.1
731.685	1673.7
731.871	1692.13
732.057	1735.14
732.243	1817.06
732.429	1739.24
732.615	1833.44
732.801	1739.24
732.987	1745.38
733.173	1737.19
733.359	1804.77
733.545	1800.68
733.731	1776.1
733.917	1761.77
734.103	1751.53
734.289	1745.38
734.475	1729
734.661	1911.27
734.847	1808.87
735.033	1782.24
735.219	1663.46
735.404	1819.11
735.59	1790.44
735.776	1724.9
735.962	1720.81
736.148	1817.06
736.333	1810.92
736.519	1749.48
736.705	1817.06
736.89	1661.41
737.076	1718.76
737.262	1653.22
737.447	1810.92
737.633	1685.99
737.819	1696.23
738.004	1712.61
738.19	1753.57
738.375	1677.8
738.561	1778.15
738.747	1729
738.932	1657.32
739.118	1716.71
739.303	1628.65
739.489	1765.86
739.674	1702.37
739.859	1700.33
740.045	1708.52
740.23	1657.32
740.416	1624.55
740.601	1647.08
740.786	1630.7
740.972	1663.46
741.157	1591.78
741.342	1685.99
741.528	1632.74
741.713	1655.27
741.898	1530.34
742.084	1720.81
742.269	1583.59
742.454	1716.71
742.639	1604.07
742.824	1653.22
743.01	1587.69
743.195	1645.03
743.38	1516.01
743.565	1602.02
743.75	1520.1
743.935	1505.77
744.12	1538.54
744.305	1509.86
744.49	1489.39
744.675	1518.06
744.86	1513.96
745.045	1462.76
745.23	1475.05
745.415	1548.78
745.6	1448.43
745.785	1540.58
745.97	1497.58
746.155	1481.19
746.34	1513.96
746.525	1559.02
746.71	1511.91
746.895	1450.47
747.079	1397.23
747.264	1417.71
747.449	1440.23
747.634	1464.81
747.819	1495.53
748.003	1413.61
748.188	1389.03
748.373	1333.74
748.557	1354.22
748.742	1352.17
748.927	1427.95
749.111	1292.78
749.296	1260.01
749.481	1280.49
749.665	1253.87
749.85	1280.49
750.034	1257.96
750.219	1303.02
750.404	1266.16
750.588	1255.92
750.773	1294.83
750.957	1309.16
751.141	1245.68
751.326	1204.72
751.51	1276.4
751.695	1178.09
751.879	1229.29
752.064	1235.44
752.248	1219.05
752.432	1227.25
752.617	1186.29
752.801	1147.37
752.985	1145.33
753.17	1249.77
753.354	1133.04
753.538	1155.57
753.722	1026.54
753.907	1090.03
754.091	948.72
754.275	1120.75
754.459	1167.85
754.643	1126.89
754.828	1022.45
755.012	1098.22
755.196	1114.61
755.38	1143.28
755.564	999.92
755.748	1100.27
755.932	936.43
756.116	1038.83
756.3	985.58
756.484	1051.12
756.668	1030.64
756.852	967.15
757.036	969.2
757.22	1057.26
757.404	932.34
757.588	967.15
757.772	942.58
757.956	956.91
758.14	961.01
758.323	924.15
758.507	936.43
758.691	877.04
758.875	946.67
759.059	1055.22
759.242	836.08
759.426	989.68
759.61	924.15
759.794	897.52
759.977	891.38
760.161	1006.06
760.345	803.32
760.528	868.85
760.712	907.76
760.895	834.04
761.079	739.83
761.263	776.69
761.446	819.7
761.63	905.71
761.813	821.75
761.997	805.36
762.18	811.51
762.364	805.36
762.547	784.88
762.731	737.78
762.914	793.08
763.098	829.94
763.281	770.55
763.464	737.78
763.648	733.68
763.831	750.07
764.015	793.08
764.198	825.84
764.381	743.92
764.564	805.36
764.748	791.03
764.931	756.21
765.114	711.16
765.297	760.31
765.481	729.59
765.664	596.47
765.847	698.87
766.03	768.5
766.213	623.09
766.397	762.36
766.58	727.54
766.763	696.82
766.946	612.85
767.129	612.85
767.312	688.63
767.495	760.31
767.678	735.73
767.861	739.83
768.044	707.06
768.227	678.39
768.41	717.3
768.593	705.01
768.776	657.91
768.959	690.68
769.142	688.63
769.324	688.63
769.507	604.66
769.69	649.72
769.873	696.82
770.056	739.83
770.239	598.52
770.421	705.01
770.604	694.77
770.787	666.1
770.97	614.9
771.152	592.37
771.335	569.85
771.518	584.18
771.7	688.63
771.883	584.18
772.066	582.14
772.248	647.67
772.431	565.75
772.613	545.27
772.796	629.24
772.978	635.38
773.161	674.29
773.343	567.8
773.526	549.37
773.708	532.98
773.891	510.46
774.073	514.55
774.256	492.02
774.438	600.57
774.621	563.7
774.803	516.6
774.985	508.41
775.168	561.66
775.35	567.8
775.532	588.28
775.715	530.94
775.897	649.72
776.079	496.12
776.261	612.85
776.444	500.22
776.626	596.47
776.808	504.31
776.99	522.74
777.173	449.02
777.355	485.88
777.537	500.22
777.719	504.31
777.901	449.02
778.083	381.43
778.265	481.78
778.447	528.89
778.629	432.63
778.811	424.44
778.993	465.4
779.175	449.02
779.357	432.63
779.539	453.11
779.721	475.64
779.903	412.15
780.085	444.92
780.267	416.25
780.449	442.87
780.631	506.36
780.812	432.63
780.994	383.48
781.176	498.17
781.358	367.1
781.54	379.39
781.721	293.37
781.903	412.15
782.085	408.06
782.267	412.15
782.448	424.44
782.63	412.15
782.812	381.43
782.993	373.24
783.175	465.4
783.357	311.8
783.538	457.21
783.72	408.06
783.901	301.56
784.083	324.09
784.264	395.77
784.446	320
784.627	279.04
784.809	352.76
784.99	381.43
785.172	391.67
785.353	344.57
785.535	274.94
785.716	305.66
785.897	291.32
786.079	418.3
786.26	451.07
786.441	334.33
786.623	289.28
786.804	358.91
786.985	317.95
787.167	268.8
787.348	242.17
787.529	293.37
787.71	354.81
787.891	326.14
788.073	334.33
788.254	301.56
788.435	256.51
788.616	350.71
788.797	301.56
788.978	281.08
789.159	240.12
789.34	334.33
789.522	360.95
789.703	270.84
789.884	244.22
790.065	295.42
790.246	342.52
790.427	203.26
790.607	301.56
790.788	289.28
790.969	211.45
791.15	299.52
791.331	217.6
791.512	205.31
791.693	203.26
791.874	236.03
792.054	363
792.235	195.07
792.416	164.35
792.597	238.08
792.778	258.56
792.958	244.22
793.139	254.46
793.32	195.07
793.5	223.74
793.681	276.99
793.862	180.73
794.042	258.56
794.223	178.69
794.404	248.32
794.584	180.73
794.765	227.84
794.945	270.84
795.126	215.55
795.306	317.95
795.487	219.64
795.667	178.69
795.848	207.36
796.028	162.3
796.209	244.22
796.389	274.94
796.57	121.34
796.75	203.26
796.93	188.93
797.111	227.84
797.291	182.78
797.471	203.26
797.652	145.92
797.832	229.88
798.012	186.88
798.192	96.77
798.373	186.88
798.553	240.12
798.733	166.4
798.913	147.97
799.093	162.3
799.274	199.16
799.454	184.83
799.634	244.22
799.814	197.12
799.994	195.07
800.174	176.64
800.354	258.56
800.534	164.35
800.714	164.35
800.894	180.73
801.074	211.45
801.254	195.07
801.434	137.73
801.614	145.92
801.794	170.49
801.974	678.39
802.154	158.21
802.334	115.2
802.514	137.73
802.693	137.73
802.873	160.25
803.053	180.73
803.233	111.1
803.413	119.29
803.592	119.29
803.772	160.25
803.952	156.16
804.131	166.4
804.311	170.49
804.491	162.3
804.67	152.06
804.85	174.59
805.03	190.97
805.209	121.34
805.389	92.67
805.568	141.82
805.748	129.53
805.928	164.35
806.107	154.11
806.287	236.03
806.466	119.29
806.646	131.58
806.825	68.09
807.004	133.63
807.184	166.4
807.363	115.2
807.543	129.53
807.722	35.33
807.901	115.2
808.081	180.73
808.26	88.57
808.439	115.2
808.619	82.43
808.798	150.01
808.977	129.53
809.156	143.87
809.336	168.45
809.515	221.69
809.694	100.86
809.873	147.97
810.052	154.11
810.231	152.06
810.411	139.77
810.59	125.44
810.769	80.38
810.948	55.81
811.127	107.01
811.306	129.53
811.485	98.81
811.664	156.16
811.843	125.44
812.022	70.14
812.201	117.25
812.38	170.49
812.559	66.05
812.737	115.2
812.916	141.82
813.095	53.76
813.274	104.96
813.453	115.2
813.632	145.92
813.811	137.73
813.989	39.42
814.168	96.77
814.347	115.2
814.526	121.34
814.704	139.77
814.883	184.83
815.062	123.39
815.24	137.73
815.419	121.34
815.598	145.92
815.776	14.85
815.955	41.47
816.133	121.34
816.312	84.48
816.49	80.38
816.669	107.01
816.847	72.19
817.026	129.53
817.204	100.86
817.383	55.81
817.561	96.77
817.74	64
817.918	104.96
818.097	145.92
818.275	41.47
818.453	49.66
818.632	182.78
818.81	90.62
818.988	104.96
819.167	176.64
819.345	47.62
819.523	96.77
819.701	92.67
819.879	68.09
820.058	47.62
820.236	115.2
820.414	23.04
820.592	125.44
820.77	35.33
820.948	64
821.127	14.85
821.305	92.67
821.483	113.15
821.661	80.38
821.839	64
822.017	121.34
822.195	31.23
822.373	109.05
822.551	80.38
822.729	141.82
822.907	43.52
823.085	92.67
823.262	57.86
823.44	23.04
823.618	66.05
823.796	74.24
823.974	145.92
824.152	57.86
824.329	80.38
824.507	88.57
824.685	39.42
824.863	115.2
825.04	98.81
825.218	66.05
825.396	74.24
825.574	88.57
825.751	35.33
825.929	156.16
826.107	4.61
826.284	-1.54
826.462	107.01
826.639	72.19
826.817	-7.68
826.994	64
827.172	80.38
827.349	98.81
827.527	100.86
827.704	109.05
827.882	88.57
828.059	53.76
828.237	6.66
828.414	80.38
828.591	-1.54
828.769	23.04
828.946	2.56
829.124	-15.87
829.301	51.71
829.478	66.05
829.655	47.62
829.833	82.43
830.01	8.7
830.187	102.91
830.364	35.33
830.542	-9.73
830.719	121.34
830.896	51.71
831.073	35.33
831.25	57.86
831.427	39.42
831.604	90.62
831.782	121.34
831.959	23.04
832.136	43.52
832.313	90.62
832.49	-22.02
832.667	61.95
832.844	72.19
833.021	98.81
833.198	64
833.374	39.42
833.551	4.61
833.728	16.9
833.905	51.71
834.082	68.09
834.259	18.94
834.436	94.72
834.612	25.09
834.789	104.96
834.966	8.7
835.143	18.94
835.319	37.38
835.496	64
835.673	74.24
835.85	96.77
836.026	31.23
836.203	100.86
836.38	41.47
836.556	59.9
836.733	31.23
836.909	31.23
837.086	-9.73
837.262	47.62
837.439	20.99
837.616	12.8
837.792	2.56
837.968	59.9
838.145	18.94
838.321	55.81
838.498	64
838.674	49.66
838.851	61.95
839.027	31.23
839.203	35.33
839.38	123.39
839.556	-1.54
839.732	64
839.909	-13.82
840.085	23.04
840.261	55.81
840.437	96.77
840.614	0.51
840.79	82.43
840.966	-7.68
841.142	129.53
841.318	-34.3
841.494	55.81
841.671	53.76
841.847	18.94
842.023	-1.54
842.199	64
842.375	61.95
842.551	49.66
842.727	25.09
842.903	80.38
843.079	-58.88
843.255	29.18
843.431	33.28
843.607	49.66
843.783	14.85
843.959	61.95
844.134	-30.21
844.31	35.33
844.486	76.29
844.662	29.18
844.838	72.19
845.013	18.94
845.189	27.14
845.365	88.57
845.541	39.42
845.716	49.66
845.892	0.51
846.068	-5.63
846.244	98.81
846.419	123.39
846.595	10.75
846.77	-17.92
846.946	6.66
847.122	39.42
847.297	-17.92
847.473	72.19
847.648	29.18
847.824	16.9
847.999	-50.69
848.175	82.43
848.35	-19.97
848.526	23.04
848.701	-7.68
848.876	33.28
849.052	47.62
849.227	72.19
849.403	20.99
849.578	31.23
849.753	6.66
849.929	84.48
850.104	86.53
850.279	27.14
850.454	14.85
850.63	18.94
850.805	29.18
850.98	57.86
851.155	33.28
851.33	18.94
851.505	14.85
851.681	23.04
851.856	-19.97
852.031	90.62
852.206	76.29
852.381	2.56
852.556	-9.73
852.731	55.81
852.906	-1.54
853.081	35.33
853.256	45.57
853.431	47.62
853.606	23.04
853.781	31.23
853.956	-75.26
854.131	68.09
854.305	-36.35
854.48	-3.58
854.655	-1.54
854.83	31.23
855.005	49.66
855.18	-9.73
855.354	31.23
855.529	6.66
855.704	8.7
855.879	29.18
856.053	-26.11
856.228	-1.54
856.403	4.61
856.577	66.05
856.752	-62.98
856.926	8.7
857.101	-5.63
857.276	-1.54
857.45	-11.78
857.625	16.9
857.799	10.75
857.974	25.09
858.148	-112.13
858.323	25.09
858.497	-38.4
858.672	-13.82
858.846	20.99
859.02	61.95
859.195	-22.02
859.369	-7.68
859.543	51.71
859.718	-15.87
859.892	27.14
860.066	39.42
860.241	25.09
860.415	-36.35
860.589	-42.5
860.763	-24.06
860.938	14.85
861.112	80.38
861.286	59.9
861.46	84.48
861.634	55.81
861.808	51.71
861.982	-30.21
862.157	-11.78
862.331	8.7
862.505	-26.11
862.679	-40.45
862.853	-15.87
863.027	-50.69
863.201	23.04
863.375	-1.54
863.549	47.62
863.722	72.19
863.896	-67.07
864.07	20.99
864.244	20.99
864.418	16.9
864.592	-5.63
864.766	31.23
864.939	-9.73
865.113	-17.92
865.287	-15.87
865.461	-24.06
865.634	57.86
865.808	-15.87
865.982	74.24
866.156	-26.11
866.329	-30.21
866.503	-79.36
866.676	64
866.85	-34.3
867.024	-1.54
867.197	-24.06
867.371	25.09
867.544	14.85
867.718	-34.3
867.891	2.56
868.065	-3.58
868.238	47.62
868.412	64
868.585	-26.11
868.759	-40.45
868.932	25.09
869.105	-24.06
869.279	-26.11
869.452	14.85
869.625	14.85
869.799	20.99
869.972	10.75
870.145	16.9
870.319	31.23
870.492	39.42
870.665	23.04
870.838	-9.73
871.011	-42.5
871.185	-5.63
871.358	37.38
871.531	8.7
871.704	-50.69
871.877	68.09
872.05	-28.16
872.223	37.38
872.396	72.19
872.569	80.38
872.742	-34.3
872.915	-40.45
873.088	-26.11
873.261	41.47
873.434	33.28
873.607	-15.87
873.78	14.85
873.953	-30.21
874.126	23.04
874.299	49.66
874.471	64
874.644	-7.68
874.817	10.75
874.99	59.9
875.163	-22.02
875.335	6.66
875.508	-60.93
875.681	27.14
875.853	-34.3
876.026	47.62
876.199	-1.54
876.371	4.61
876.544	-1.54
876.717	10.75
876.889	27.14
877.062	76.29
877.234	-9.73
877.407	-11.78
877.579	-34.3
877.752	-17.92
877.924	49.66
878.097	23.04
878.269	-26.11
878.442	2.56
878.614	-7.68
878.786	18.94
878.959	-7.68
879.131	-26.11
879.303	-77.31
879.476	-46.59
879.648	55.81
879.82	41.47
879.993	25.09
880.165	-1.54
880.337	23.04
880.509	-42.5
880.681	29.18
880.854	-3.58
881.026	88.57
881.198	80.38
881.37	31.23
881.542	51.71
881.714	14.85
881.886	20.99
882.058	-15.87
882.23	-19.97
882.402	64
882.574	16.9
882.746	31.23
882.918	-13.82
883.09	2.56
883.262	-32.26
883.434	25.09
883.606	-28.16
883.778	37.38
883.95	43.52
884.122	-34.3
884.293	8.7
884.465	-87.55
884.637	45.57
884.809	-26.11
884.98	33.28
885.152	6.66
885.324	18.94
885.496	16.9
885.667	-32.26
885.839	27.14
886.011	31.23
886.182	12.8
886.354	35.33
886.525	-1.54
886.697	27.14
886.869	16.9
887.04	10.75
887.212	72.19
887.383	41.47
887.555	-28.16
887.726	45.57
887.897	-65.02
888.069	-7.68
888.24	4.61
888.412	-5.63
888.583	-7.68
888.754	66.05
888.926	25.09
889.097	-11.78
889.268	-7.68
889.44	80.38
889.611	41.47
889.782	41.47
889.953	-32.26
890.125	53.76
890.296	-7.68
890.467	-22.02
890.638	14.85
890.809	-13.82
890.98	-24.06
891.151	10.75
891.323	-95.74
891.494	6.66
891.665	-17.92
891.836	-75.26
892.007	29.18
892.178	14.85
892.349	37.38
892.52	-24.06
892.691	27.14
892.862	-56.83
893.032	-40.45
893.203	-26.11
893.374	6.66
893.545	82.43
893.716	-24.06
893.887	-15.87
894.057	23.04
894.228	2.56
894.399	20.99
894.57	-17.92
894.74	-19.97
894.911	-1.54
895.082	-5.63
895.253	41.47
895.423	31.23
895.594	0.51
895.764	-11.78
895.935	-79.36
896.106	23.04
896.276	31.23
896.447	39.42
896.617	-30.21
896.788	-19.97
896.958	23.04
897.129	-79.36
897.299	-7.68
897.47	4.61
897.64	25.09
897.81	78.33
897.981	31.23
898.151	4.61
898.322	-28.16
898.492	43.52
898.662	-42.5
898.832	-30.21
899.003	-40.45
899.173	55.81
899.343	-58.88
899.513	-15.87
