Data from USB4F104151__77__14-17-31-330.txt Node

Date: Thu Mar 13 14:17:31 EDT 2025
User: louis
Spectrometer: USB4F10415
Trigger mode: 4
Integration Time (sec): 2.000000E-2
Scans to average: 1
Electric dark correction enabled: true
Nonlinearity correction enabled: false
Boxcar width: 0
XAxis mode: Wavelengths
Number of Pixels in Spectrum: 3648
>>>>>Begin Spectral Data<<<<<
178.204	-90.11
178.424	-90.11
178.644	-90.11
178.864	-126.97
179.084	-126.97
179.304	49.15
179.524	-20.48
179.744	-4.1
179.964	6.14
180.184	-73.73
180.404	104.45
180.624	4.1
180.844	49.15
181.064	-26.62
181.283	0
181.503	-79.87
181.723	-8.19
181.943	-45.06
182.163	65.53
182.383	16.38
182.602	34.82
182.822	-12.29
183.042	14.34
183.262	-38.91
183.482	-4.1
183.701	-32.77
183.921	20.48
184.141	-8.19
184.361	6.14
184.58	18.43
184.8	32.77
185.02	16.38
185.239	92.16
185.459	34.82
185.679	-14.34
185.898	-61.44
186.118	57.34
186.338	45.06
186.557	77.82
186.777	24.58
186.997	32.77
187.216	32.77
187.436	98.3
187.655	-20.48
187.875	0
188.095	-53.25
188.314	36.86
188.534	61.44
188.753	49.15
188.973	36.86
189.192	51.2
189.412	20.48
189.631	26.62
189.851	71.68
190.07	83.97
190.29	45.06
190.509	88.06
190.729	-8.19
190.948	81.92
191.168	176.13
191.387	28.67
191.607	18.43
191.826	57.34
192.045	49.15
192.265	-4.1
192.484	43.01
192.704	16.38
192.923	-24.58
193.142	83.97
193.362	14.34
193.581	51.2
193.8	24.58
194.02	26.62
194.239	63.49
194.458	57.34
194.678	59.39
194.897	16.38
195.116	20.48
195.335	51.2
195.555	14.34
195.774	18.43
195.993	94.21
196.212	90.11
196.432	4.1
196.651	22.53
196.87	-8.19
197.089	4.1
197.308	57.34
197.528	98.3
197.747	-2.05
197.966	49.15
198.185	51.2
198.404	28.67
198.623	59.39
198.842	77.82
199.062	49.15
199.281	30.72
199.5	12.29
199.719	49.15
199.938	-26.62
200.157	18.43
200.376	-12.29
200.595	67.58
200.814	20.48
201.033	26.62
201.252	110.59
201.471	-6.14
201.69	36.86
201.909	59.39
202.128	65.53
202.347	20.48
202.566	10.24
202.785	75.77
203.004	14.34
203.223	110.59
203.442	38.91
203.661	108.54
203.879	-30.72
204.098	49.15
204.317	-30.72
204.536	53.25
204.755	-2.05
204.974	73.73
205.193	32.77
205.411	126.97
205.63	20.48
205.849	45.06
206.068	-4.1
206.287	14.34
206.505	116.73
206.724	34.82
206.943	49.15
207.162	34.82
207.381	4.1
207.599	22.53
207.818	-40.96
208.037	38.91
208.255	22.53
208.474	-16.38
208.693	26.62
208.911	67.58
209.13	57.34
209.349	94.21
209.567	18.43
209.786	77.82
210.005	20.48
210.223	10.24
210.442	49.15
210.661	90.11
210.879	51.2
211.098	81.92
211.316	4.1
211.535	65.53
211.753	36.86
211.972	49.15
212.191	75.77
212.409	-8.19
212.628	38.91
212.846	-8.19
213.065	16.38
213.283	73.73
213.502	10.24
213.72	59.39
213.938	90.11
214.157	28.67
214.375	65.53
214.594	10.24
214.812	45.06
215.031	26.62
215.249	8.19
215.467	-12.29
215.686	-8.19
215.904	122.88
216.122	30.72
216.341	73.73
216.559	73.73
216.778	106.49
216.996	86.01
217.214	108.54
217.432	6.14
217.651	73.73
217.869	16.38
218.087	8.19
218.306	8.19
218.524	114.69
218.742	-26.62
218.96	110.59
219.179	61.44
219.397	18.43
219.615	131.07
219.833	122.88
220.051	40.96
220.27	69.63
220.488	49.15
220.706	0
220.924	2.05
221.142	12.29
221.36	94.21
221.578	0
221.796	-16.38
222.015	81.92
222.233	40.96
222.451	90.11
222.669	-28.67
222.887	92.16
223.105	26.62
223.323	24.58
223.541	-32.77
223.759	131.07
223.977	69.63
224.195	43.01
224.413	43.01
224.631	10.24
224.849	26.62
225.067	63.49
225.285	43.01
225.503	-6.14
225.721	-75.77
225.939	38.91
226.157	20.48
226.375	34.82
226.592	59.39
226.81	53.25
227.028	137.21
227.246	4.1
227.464	-22.53
227.682	75.77
227.9	86.01
228.117	18.43
228.335	77.82
228.553	96.25
228.771	40.96
228.989	94.21
229.206	61.44
229.424	26.62
229.642	75.77
229.86	10.24
230.077	92.16
230.295	55.3
230.513	65.53
230.731	-12.29
230.948	65.53
231.166	24.58
231.384	26.62
231.601	49.15
231.819	24.58
232.037	6.14
232.254	-49.15
232.472	34.82
232.689	-24.58
232.907	75.77
233.125	69.63
233.342	-69.63
233.56	49.15
233.777	61.44
233.995	81.92
234.213	32.77
234.43	65.53
234.648	69.63
234.865	88.06
235.083	83.97
235.3	-16.38
235.518	59.39
235.735	153.6
235.953	55.3
236.17	47.1
236.388	26.62
236.605	10.24
236.822	49.15
237.04	88.06
237.257	36.86
237.475	16.38
237.692	137.21
237.909	16.38
238.127	43.01
238.344	65.53
238.562	75.77
238.779	26.62
238.996	16.38
239.214	16.38
239.431	122.88
239.648	34.82
239.865	90.11
240.083	30.72
240.3	-8.19
240.517	-24.58
240.735	8.19
240.952	67.58
241.169	-12.29
241.386	65.53
241.603	-28.67
241.821	-12.29
242.038	-24.58
242.255	38.91
242.472	24.58
242.689	100.35
242.907	-40.96
243.124	30.72
243.341	73.73
243.558	45.06
243.775	47.1
243.992	40.96
244.209	86.01
244.426	94.21
244.643	90.11
244.86	0
245.078	32.77
245.295	14.34
245.512	2.05
245.729	10.24
245.946	22.53
246.163	-8.19
246.38	75.77
246.597	43.01
246.814	94.21
247.031	61.44
247.248	61.44
247.464	24.58
247.681	-47.1
247.898	40.96
248.115	45.06
248.332	28.67
248.549	100.35
248.766	116.73
248.983	114.69
249.2	0
249.417	90.11
249.633	59.39
249.85	73.73
250.067	40.96
250.284	-40.96
250.501	-47.1
250.717	98.3
250.934	-8.19
251.151	-22.53
251.368	51.2
251.585	16.38
251.801	118.78
252.018	-30.72
252.235	32.77
252.451	8.19
252.668	20.48
252.885	86.01
253.102	59.39
253.318	16.38
253.535	65.53
253.752	-22.53
253.968	26.62
254.185	10.24
254.401	69.63
254.618	-28.67
254.835	0
255.051	40.96
255.268	57.34
255.484	71.68
255.701	18.43
255.917	0
256.134	73.73
256.351	12.29
256.567	6.14
256.784	26.62
257	-14.34
257.217	55.3
257.433	-43.01
257.65	90.11
257.866	43.01
258.082	18.43
258.299	20.48
258.515	102.4
258.732	38.91
258.948	36.86
259.165	40.96
259.381	-22.53
259.597	12.29
259.814	53.25
260.03	22.53
260.246	43.01
260.463	0
260.679	57.34
260.895	-32.77
261.112	43.01
261.328	83.97
261.544	-12.29
261.761	73.73
261.977	57.34
262.193	-32.77
262.409	124.93
262.626	32.77
262.842	73.73
263.058	43.01
263.274	57.34
263.49	63.49
263.707	92.16
263.923	32.77
264.139	45.06
264.355	75.77
264.571	124.93
264.787	32.77
265.004	88.06
265.22	20.48
265.436	-32.77
265.652	10.24
265.868	18.43
266.084	0
266.3	106.49
266.516	43.01
266.732	-12.29
266.948	65.53
267.164	-16.38
267.38	92.16
267.596	73.73
267.812	67.58
268.028	135.17
268.244	8.19
268.46	4.1
268.676	8.19
268.892	-18.43
269.108	32.77
269.324	-20.48
269.54	26.62
269.756	26.62
269.972	-8.19
270.188	2.05
270.403	-57.34
270.619	47.1
270.835	120.83
271.051	57.34
271.267	69.63
271.483	24.58
271.698	28.67
271.914	57.34
272.13	47.1
272.346	-59.39
272.562	43.01
272.777	24.58
272.993	75.77
273.209	83.97
273.425	55.3
273.64	10.24
273.856	57.34
274.072	43.01
274.287	75.77
274.503	98.3
274.719	49.15
274.934	59.39
275.15	28.67
275.366	96.25
275.581	69.63
275.797	18.43
276.012	6.14
276.228	20.48
276.444	26.62
276.659	102.4
276.875	100.35
277.09	49.15
277.306	57.34
277.521	57.34
277.737	36.86
277.952	53.25
278.168	61.44
278.383	65.53
278.599	45.06
278.814	10.24
279.03	81.92
279.245	45.06
279.461	51.2
279.676	86.01
279.892	28.67
280.107	-8.19
280.322	49.15
280.538	45.06
280.753	45.06
280.969	-6.14
281.184	38.91
281.399	124.93
281.615	53.25
281.83	34.82
282.045	-24.58
282.26	86.01
282.476	12.29
282.691	104.45
282.906	8.19
283.122	67.58
283.337	10.24
283.552	57.34
283.767	57.34
283.983	65.53
284.198	0
284.413	22.53
284.628	-47.1
284.843	69.63
285.058	38.91
285.274	24.58
285.489	53.25
285.704	118.78
285.919	61.44
286.134	2.05
286.349	-18.43
286.564	-8.19
286.779	81.92
286.995	40.96
287.21	-8.19
287.425	100.35
287.64	32.77
287.855	32.77
288.07	34.82
288.285	92.16
288.5	10.24
288.715	6.14
288.93	18.43
289.145	34.82
289.36	73.73
289.575	51.2
289.79	20.48
290.004	73.73
290.219	26.62
290.434	8.19
290.649	45.06
290.864	4.1
291.079	-36.86
291.294	-8.19
291.509	-36.86
291.724	59.39
291.938	0
292.153	53.25
292.368	49.15
292.583	67.58
292.798	75.77
293.012	53.25
293.227	32.77
293.442	40.96
293.657	40.96
293.871	32.77
294.086	4.1
294.301	65.53
294.516	49.15
294.73	102.4
294.945	24.58
295.16	16.38
295.374	81.92
295.589	73.73
295.804	-28.67
296.018	61.44
296.233	86.01
296.447	-6.14
296.662	34.82
296.877	43.01
297.091	81.92
297.306	96.25
297.52	38.91
297.735	51.2
297.949	73.73
298.164	4.1
298.378	57.34
298.593	67.58
298.807	26.62
299.022	51.2
299.236	122.88
299.451	49.15
299.665	90.11
299.88	73.73
300.094	45.06
300.309	73.73
300.523	81.92
300.737	40.96
300.952	61.44
301.166	65.53
301.381	-16.38
301.595	40.96
301.809	38.91
302.024	47.1
302.238	98.3
302.452	34.82
302.667	53.25
302.881	57.34
303.095	75.77
303.309	51.2
303.524	12.29
303.738	-14.34
303.952	51.2
304.166	98.3
304.381	20.48
304.595	143.36
304.809	8.19
305.023	49.15
305.237	32.77
305.452	67.58
305.666	4.1
305.88	108.54
306.094	106.49
306.308	67.58
306.522	110.59
306.736	65.53
306.95	-40.96
307.164	51.2
307.379	16.38
307.593	32.77
307.807	-28.67
308.021	34.82
308.235	43.01
308.449	-30.72
308.663	-16.38
308.877	40.96
309.091	-28.67
309.305	12.29
309.519	30.72
309.733	75.77
309.947	-12.29
310.161	34.82
310.374	79.87
310.588	133.12
310.802	30.72
311.016	-10.24
311.23	0
311.444	0
311.658	18.43
311.872	57.34
312.085	110.59
312.299	92.16
312.513	83.97
312.727	88.06
312.941	47.1
313.154	26.62
313.368	-36.86
313.582	45.06
313.796	90.11
314.009	83.97
314.223	92.16
314.437	49.15
314.651	36.86
314.864	77.82
315.078	34.82
315.292	10.24
315.505	34.82
315.719	114.69
315.933	4.1
316.146	83.97
316.36	69.63
316.573	32.77
316.787	75.77
317.001	90.11
317.214	71.68
317.428	79.87
317.641	18.43
317.855	32.77
318.068	-24.58
318.282	40.96
318.495	92.16
318.709	129.02
318.922	57.34
319.136	77.82
319.349	45.06
319.563	49.15
319.776	20.48
319.99	65.53
320.203	-2.05
320.417	63.49
320.63	126.97
320.843	90.11
321.057	65.53
321.27	34.82
321.483	-24.58
321.697	0
321.91	36.86
322.124	106.49
322.337	-38.91
322.55	59.39
322.763	124.93
322.977	28.67
323.19	10.24
323.403	110.59
323.617	100.35
323.83	141.31
324.043	18.43
324.256	92.16
324.469	40.96
324.683	32.77
324.896	49.15
325.109	55.3
325.322	69.63
325.535	61.44
325.748	26.62
325.962	36.86
326.175	18.43
326.388	81.92
326.601	67.58
326.814	18.43
327.027	43.01
327.24	86.01
327.453	-24.58
327.666	-40.96
327.879	69.63
328.092	108.54
328.305	43.01
328.518	-12.29
328.731	49.15
328.944	63.49
329.157	61.44
329.37	49.15
329.583	106.49
329.796	153.6
330.009	-45.06
330.222	124.93
330.435	12.29
330.648	131.07
330.861	51.2
331.073	-6.14
331.286	139.26
331.499	-2.05
331.712	4.1
331.925	55.3
332.138	86.01
332.35	61.44
332.563	-6.14
332.776	86.01
332.989	-16.38
333.202	75.77
333.414	49.15
333.627	73.73
333.84	45.06
334.053	8.19
334.265	-22.53
334.478	-71.68
334.691	86.01
334.903	61.44
335.116	131.07
335.329	-16.38
335.541	100.35
335.754	90.11
335.966	65.53
336.179	24.58
336.392	112.64
336.604	81.92
336.817	73.73
337.029	73.73
337.242	14.34
337.454	114.69
337.667	43.01
337.88	0
338.092	47.1
338.305	92.16
338.517	67.58
338.729	69.63
338.942	71.68
339.154	86.01
339.367	28.67
339.579	71.68
339.792	16.38
340.004	106.49
340.217	49.15
340.429	73.73
340.641	63.49
340.854	57.34
341.066	43.01
341.278	116.73
341.491	81.92
341.703	57.34
341.915	57.34
342.128	106.49
342.34	65.53
342.552	34.82
342.764	18.43
342.977	75.77
343.189	49.15
343.401	43.01
343.613	12.29
343.826	8.19
344.038	36.86
344.25	100.35
344.462	49.15
344.674	118.78
344.886	20.48
345.099	83.97
345.311	73.73
345.523	110.59
345.735	-30.72
345.947	0
346.159	-20.48
346.371	40.96
346.583	98.3
346.795	47.1
347.007	47.1
347.219	59.39
347.431	139.26
347.643	69.63
347.855	57.34
348.067	92.16
348.279	45.06
348.491	-6.14
348.703	-2.05
348.915	67.58
349.127	53.25
349.339	75.77
349.551	0
349.763	116.73
349.975	43.01
350.187	59.39
350.399	96.25
350.61	2.05
350.822	26.62
351.034	16.38
351.246	53.25
351.458	43.01
351.669	32.77
351.881	86.01
352.093	75.77
352.305	40.96
352.517	-16.38
352.728	14.34
352.94	61.44
353.152	83.97
353.363	8.19
353.575	106.49
353.787	32.77
353.999	114.69
354.21	90.11
354.422	10.24
354.633	-30.72
354.845	32.77
355.057	73.73
355.268	51.2
355.48	40.96
355.692	32.77
355.903	69.63
356.115	63.49
356.326	65.53
356.538	67.58
356.749	104.45
356.961	59.39
357.172	59.39
357.384	55.3
357.595	55.3
357.807	116.73
358.018	43.01
358.23	51.2
358.441	120.83
358.653	155.65
358.864	-12.29
359.075	83.97
359.287	61.44
359.498	92.16
359.709	86.01
359.921	51.2
360.132	110.59
360.344	57.34
360.555	86.01
360.766	57.34
360.977	55.3
361.189	69.63
361.4	22.53
361.611	131.07
361.823	45.06
362.034	-22.53
362.245	12.29
362.456	26.62
362.667	63.49
362.879	53.25
363.09	-8.19
363.301	53.25
363.512	104.45
363.723	14.34
363.935	0
364.146	24.58
364.357	79.87
364.568	126.97
364.779	65.53
364.99	100.35
365.201	-8.19
365.412	65.53
365.623	28.67
365.834	59.39
366.045	20.48
366.256	143.36
366.467	36.86
366.678	102.4
366.889	38.91
367.1	28.67
367.311	40.96
367.522	92.16
367.733	67.58
367.944	90.11
368.155	67.58
368.366	157.69
368.577	57.34
368.788	120.83
368.999	40.96
369.209	65.53
369.42	106.49
369.631	106.49
369.842	126.97
370.053	26.62
370.264	147.45
370.474	20.48
370.685	118.78
370.896	51.2
371.107	61.44
371.317	45.06
371.528	69.63
371.739	77.82
371.95	69.63
372.16	61.44
372.371	94.21
372.582	45.06
372.792	98.3
373.003	32.77
373.214	57.34
373.424	55.3
373.635	16.38
373.846	40.96
374.056	16.38
374.267	77.82
374.477	63.49
374.688	65.53
374.898	71.68
375.109	98.3
375.319	108.54
375.53	65.53
375.74	40.96
375.951	65.53
376.161	0
376.372	24.58
376.582	28.67
376.793	98.3
377.003	45.06
377.214	57.34
377.424	81.92
377.635	77.82
377.845	59.39
378.055	77.82
378.266	61.44
378.476	-8.19
378.686	83.97
378.897	49.15
379.107	94.21
379.317	149.5
379.528	90.11
379.738	86.01
379.948	8.19
380.158	77.82
380.369	40.96
380.579	49.15
380.789	92.16
380.999	24.58
381.21	43.01
381.42	106.49
381.63	-36.86
381.84	36.86
382.05	67.58
382.261	163.84
382.471	73.73
382.681	-16.38
382.891	102.4
383.101	90.11
383.311	-2.05
383.521	81.92
383.731	118.78
383.941	118.78
384.151	26.62
384.361	51.2
384.571	86.01
384.781	36.86
384.991	88.06
385.201	36.86
385.411	57.34
385.621	124.93
385.831	34.82
386.041	75.77
386.251	45.06
386.461	94.21
386.671	12.29
386.881	67.58
387.091	49.15
387.301	40.96
387.511	59.39
387.72	116.73
387.93	180.22
388.14	63.49
388.35	112.64
388.56	73.73
388.769	110.59
388.979	55.3
389.189	38.91
389.399	92.16
389.609	24.58
389.818	184.32
390.028	36.86
390.238	129.02
390.447	36.86
390.657	131.07
390.867	102.4
391.076	51.2
391.286	-2.05
391.496	112.64
391.705	83.97
391.915	57.34
392.125	71.68
392.334	69.63
392.544	40.96
392.753	73.73
392.963	43.01
393.172	86.01
393.382	133.12
393.591	98.3
393.801	86.01
394.01	118.78
394.22	59.39
394.429	57.34
394.639	122.88
394.848	129.02
395.058	151.55
395.267	108.54
395.477	149.5
395.686	122.88
395.895	182.27
396.105	69.63
396.314	83.97
396.524	147.45
396.733	133.12
396.942	126.97
397.152	98.3
397.361	139.26
397.57	122.88
397.78	75.77
397.989	71.68
398.198	151.55
398.407	112.64
398.617	92.16
398.826	92.16
399.035	45.06
399.244	151.55
399.453	147.45
399.663	172.03
399.872	155.65
400.081	51.2
400.29	184.32
400.499	67.58
400.708	141.31
400.917	212.99
401.127	94.21
401.336	114.69
401.545	114.69
401.754	135.17
401.963	202.75
402.172	108.54
402.381	133.12
402.59	161.79
402.799	221.18
403.008	178.17
403.217	106.49
403.426	188.41
403.635	129.02
403.844	151.55
404.053	116.73
404.262	108.54
404.471	253.95
404.68	149.5
404.888	221.18
405.097	221.18
405.306	180.22
405.515	237.56
405.724	237.56
405.933	88.06
406.142	256
406.35	229.37
406.559	206.84
406.768	217.08
406.977	196.61
407.185	200.7
407.394	163.84
407.603	239.61
407.812	268.28
408.02	262.14
408.229	249.85
408.438	278.52
408.646	172.03
408.855	321.53
409.064	299
409.272	313.34
409.481	323.58
409.69	348.15
409.898	352.25
410.107	331.77
410.315	395.26
410.524	327.67
410.733	401.4
410.941	450.55
411.15	428.03
411.358	417.79
411.567	454.65
411.775	550.9
411.984	475.13
412.192	567.29
412.401	493.56
412.609	626.68
412.818	620.53
413.026	704.5
413.234	638.97
413.443	686.07
413.651	704.5
413.86	720.88
414.068	724.98
414.276	780.28
414.485	661.49
414.693	745.46
414.901	837.62
415.11	831.48
415.318	782.32
415.526	901.11
415.734	925.68
415.943	987.12
416.151	1023.98
416.359	991.22
416.567	1023.98
416.776	993.26
416.984	1161.2
417.192	1216.49
417.4	1163.25
417.608	1230.83
417.817	1193.97
418.025	1296.36
418.233	1273.84
418.441	1400.81
418.649	1429.48
418.857	1540.07
419.065	1556.46
419.273	1513.45
419.481	1703.91
419.689	1757.16
419.897	1853.41
420.105	1863.65
420.313	1888.23
420.521	1916.9
420.729	2019.3
420.937	2123.74
421.145	2093.02
421.353	2170.85
421.561	2369.5
421.769	2437.08
421.977	2519
422.185	2553.82
422.393	2613.21
422.601	2863.06
422.809	2760.66
423.017	2760.66
423.224	2779.09
423.432	2981.84
423.64	3026.9
423.848	3456.97
424.056	3164.11
424.263	3377.1
424.471	3538.89
424.679	3477.45
424.887	3755.97
425.094	3741.64
425.302	3710.92
425.51	3950.53
425.718	4091.84
425.925	4106.18
426.133	4186.05
426.341	4440
426.548	4775.86
426.756	4595.64
426.964	4745.14
427.171	5009.33
427.379	5152.69
427.586	5275.57
427.794	5279.66
428.001	5771.18
428.209	5777.32
428.417	5818.28
428.624	6264.74
428.832	6348.7
429.039	6154.15
429.247	6256.54
429.454	6791.06
429.662	7176.08
429.869	6721.43
430.076	7176.08
430.284	7161.75
430.491	7296.91
430.699	7724.94
430.906	7628.68
431.114	7753.61
431.321	8058.76
431.528	8378.24
431.736	8851.32
431.943	9097.08
432.15	8929.14
432.358	8875.9
432.565	9543.53
432.772	9398.13
432.979	10065.77
433.187	10078.05
433.394	10209.12
433.601	10878.81
433.808	10897.24
434.016	11003.74
434.223	11310.93
434.43	11951.95
434.637	11716.43
434.844	12388.16
435.052	12666.69
435.259	12488.51
435.466	12726.08
435.673	12529.47
435.88	13483.83
436.087	14262.05
436.294	14284.58
436.501	13752.11
436.708	14112.55
436.915	14630.69
437.122	15181.59
437.329	15308.57
437.537	15761.17
437.743	15650.58
437.95	15847.18
438.157	16469.76
438.364	17096.44
438.571	16987.9
438.778	17387.25
438.985	18595.56
439.192	17731.31
439.399	18530.02
439.606	18083.56
439.813	19064.54
440.02	20494.02
440.227	19941.07
440.433	19701.46
440.64	20643.53
440.847	20453.06
441.054	20823.75
441.261	22267.56
441.467	21849.78
441.674	22544.04
441.881	23103.14
442.088	23312.03
442.294	23015.07
442.501	23539.35
442.708	23873.17
442.914	24649.35
443.121	25923.19
443.328	25153.15
443.534	27260.51
443.741	26328.69
443.948	25939.57
444.154	27688.54
444.361	27629.15
444.568	27723.35
444.774	27602.52
444.981	27958.87
445.187	28759.63
445.394	29984.31
445.6	29869.62
445.807	32298.52
446.013	31075.88
446.22	31751.71
446.426	32939.53
446.633	33162.76
446.839	34004.47
447.046	32704.01
447.252	33949.18
447.459	34555.38
447.665	34295.28
447.871	35888.6
448.078	37502.4
448.284	35622.37
448.491	36955.6
448.697	37983.68
448.903	38780.34
449.11	39097.77
449.316	38211
449.522	38884.78
449.728	39947.68
449.935	40154.52
450.141	39871.9
450.347	40940.94
450.553	39751.07
450.76	40324.5
450.966	41260.43
451.172	41178.51
451.378	42349.95
451.584	41252.23
451.791	42390.91
451.997	42155.39
452.203	42829.17
452.409	42743.16
452.615	42597.75
452.821	40668.56
453.027	40856.98
453.233	42825.07
453.44	40813.97
453.646	41598.34
453.852	41573.77
454.058	42456.44
454.264	40637.84
454.47	42114.43
454.676	40854.93
454.882	42151.29
455.088	38569.4
455.294	39226.79
455.5	39724.45
455.705	40246.68
455.911	38368.69
456.117	37862.85
456.323	37344.71
456.529	35118.57
456.735	37236.17
456.941	36271.57
457.147	35245.54
457.352	34698.73
457.558	34473.46
457.764	34233.85
457.97	33564.16
458.176	32687.63
458.381	32701.97
458.587	31376.93
458.793	31157.8
458.999	29681.21
459.204	31616.54
459.41	30934.57
459.616	28755.53
459.821	28671.56
460.027	28823.11
460.233	28065.36
460.438	27039.33
460.644	27268.7
460.85	25847.41
461.055	25816.69
461.261	25304.7
461.466	23531.16
461.672	22701.73
461.878	24368.78
462.083	22961.83
462.289	22326.96
462.494	22001.33
462.7	21139.13
462.905	20690.63
463.111	21495.48
463.316	21325.5
463.522	21186.24
463.727	20858.56
463.932	20827.84
464.138	20778.69
464.343	20719.3
464.549	20369.1
464.754	20874.95
464.959	20956.86
465.165	20756.16
465.37	19603.16
465.575	19255
465.781	19900.11
465.986	20045.52
466.191	19357.4
466.397	19031.77
466.602	18032.36
466.807	18767.59
467.012	18704.1
467.218	18616.04
467.423	18212.59
467.628	18566.88
467.833	19328.73
468.038	18507.49
468.244	18058.99
468.449	18577.12
468.654	18276.07
468.859	18200.3
469.064	17841.9
469.269	17176.31
469.474	17452.79
469.679	17899.25
469.885	17155.83
470.09	17592.05
470.295	17239.8
470.5	16838.4
470.705	16951.04
470.91	16629.51
471.115	16559.88
471.32	16899.84
471.525	16672.51
471.73	16193.29
471.935	16375.56
472.139	15646.48
472.344	15773.46
472.549	15470.36
472.754	15490.84
472.959	15249.18
473.164	14835.49
473.369	14681.89
473.574	15261.46
473.778	14935.84
473.983	14753.57
474.188	14831.39
474.393	14288.68
474.598	14178.09
474.802	14165.8
475.007	14110.5
475.212	13934.38
475.417	13379.38
475.621	13406
475.826	13721.39
476.031	13100.86
476.235	12836.67
476.44	13328.18
476.645	12918.59
476.849	13168.44
477.054	12980.03
477.259	12566.34
477.463	12615.49
477.668	12461.89
477.872	12660.54
478.077	12285.76
478.282	12203.85
478.486	11962.19
478.691	11837.26
478.895	11839.31
479.1	11818.83
479.304	11886.41
479.509	11454.29
479.713	11747.15
479.918	11355.99
480.122	11200.34
480.326	11384.66
480.531	11331.41
480.735	11394.9
480.94	11175.77
481.144	11360.08
481.348	10993.5
481.553	10997.59
481.757	11081.56
481.961	11132.76
482.166	11173.72
482.37	11173.72
482.574	10958.68
482.778	10899.29
482.983	11288.4
483.187	11044.7
483.391	11149.14
483.595	10975.06
483.8	10737.5
484.004	10874.71
484.208	10989.4
484.412	10954.58
484.616	10979.16
484.821	10921.82
485.025	10657.63
485.229	10968.92
485.433	10862.43
485.637	10850.14
485.841	10739.55
486.045	10688.35
486.249	11018.07
486.453	10827.61
486.657	10819.42
486.861	10923.87
487.065	10678.11
487.269	11003.74
487.473	10760.03
487.677	11009.88
487.881	10796.89
488.085	10960.73
488.289	11108.18
488.493	10909.53
488.697	11112.28
488.901	10946.39
489.105	11067.22
489.309	10954.58
489.512	10887
489.716	11044.7
489.92	11042.65
490.124	11022.17
490.328	11038.55
490.531	11059.03
490.735	11173.72
490.939	11059.03
491.143	11165.53
491.346	11050.84
491.55	11353.94
491.754	11251.54
491.958	11388.75
492.161	11245.4
492.365	11548.5
492.569	11493.2
492.772	11525.97
492.976	11665.23
493.18	11568.98
493.383	11652.94
493.587	11788.11
493.79	12181.32
493.994	11755.34
494.197	11855.69
494.401	11964.23
494.605	12152.65
494.808	12281.67
495.012	12246.85
495.215	12351.3
495.419	12511.04
495.622	12087.11
495.825	12576.58
496.029	12619.58
496.232	12816.19
496.436	12635.97
496.639	13080.38
496.843	13119.29
497.046	13113.14
497.249	13555.51
497.453	13459.25
497.656	13494.07
497.859	13766.45
498.063	13618.99
498.266	14126.89
498.469	13913.9
498.673	14124.84
498.876	14446.37
499.079	14630.69
499.282	14534.43
499.485	14872.35
499.689	14880.54
499.892	15232.79
500.095	15218.46
500.298	15689.49
500.501	15460.12
500.705	16011.02
500.908	16228.1
501.111	16103.18
501.314	16105.23
501.517	16699.14
501.72	16701.19
501.923	16408.33
502.126	16969.47
502.329	17485.56
502.532	17241.85
502.735	17379.06
502.938	17815.28
503.141	17694.45
503.344	18181.87
503.547	18202.35
503.75	18499.3
503.953	18497.25
504.156	18671.33
504.359	19179.23
504.562	18896.61
504.765	19160.8
504.968	19818.19
505.17	20068.05
505.373	19945.17
505.576	20006.61
505.779	20477.64
505.982	20670.15
506.185	20848.32
506.387	21157.57
506.59	21372.6
506.793	21847.73
506.996	21569.21
507.198	22105.77
507.401	22152.88
507.604	22443.69
507.807	22935.2
508.009	22838.95
508.212	22890.15
508.415	23215.77
508.617	23754.39
508.82	23971.47
509.022	23545.5
509.225	24245.9
509.428	24282.77
509.63	24786.57
509.833	24848
510.035	25298.56
510.238	25333.37
510.44	25837.17
510.643	26027.63
510.845	26302.06
511.048	26228.34
511.25	26662.51
511.453	26818.15
511.655	27723.35
511.858	27217.5
512.06	27436.64
512.262	27717.21
512.465	27862.61
512.667	28354.13
512.87	28722.76
513.072	28507.72
513.274	29312.58
513.477	29279.81
513.679	29761.08
513.881	29945.4
514.084	29951.54
514.286	30451.25
514.488	30533.17
514.69	31352.35
514.893	31256.1
515.095	31551.01
515.297	31903.26
515.499	31858.2
515.701	32286.23
515.904	32640.53
516.106	32618
516.308	33046.02
516.51	33336.84
516.712	33793.53
516.914	33848.83
517.116	34158.07
517.318	34330.1
517.52	34801.13
517.722	34536.94
517.925	35407.33
518.127	35890.65
518.329	35804.64
518.531	36001.24
518.733	36629.97
518.935	37055.95
519.136	36820.43
519.338	37428.68
519.54	37481.92
519.742	37955
519.944	37952.96
520.146	38753.71
520.348	39022
520.55	38671.79
520.752	39116.2
520.954	39609.76
521.155	39450.02
521.357	39974.3
521.559	40025.5
521.761	40684.95
521.963	40623.51
522.164	40744.34
522.366	41209.23
522.568	41364.87
522.77	42036.61
522.971	42622.33
523.173	41723.27
523.375	42370.43
523.576	42503.54
523.778	42587.51
523.98	42755.44
524.181	43173.23
524.383	43543.91
524.584	43500.9
524.786	43593.06
524.988	43214.19
525.189	44309.85
525.391	44221.79
525.592	44774.74
525.794	44928.34
525.995	44840.28
526.197	44799.32
526.398	44934.48
526.6	45651.27
526.801	45606.22
527.003	45708.61
527.204	45827.4
527.406	45927.75
527.607	46212.41
527.808	46867.76
528.01	45552.97
528.211	46540.09
528.412	47199.54
528.614	46751.03
528.815	46648.63
529.016	47043.89
529.218	46691.64
529.419	46878
529.62	47121.71
529.822	47181.1
530.023	47275.31
530.224	47566.12
530.425	47170.86
530.626	46787.89
530.828	46853.43
531.029	48094.5
531.23	47598.89
531.431	47922.47
531.632	47705.38
531.833	48059.68
532.035	47832.36
532.236	48000.29
532.437	47934.76
532.638	47568.17
532.839	47904.04
533.04	48094.5
533.241	47586.6
533.442	48581.91
533.643	48239.9
533.844	48162.08
534.045	48731.42
534.246	48096.55
534.447	48516.38
534.648	48045.35
534.849	48299.29
535.05	48303.39
535.251	48366.88
535.451	48289.06
535.652	48764.18
535.853	48215.33
536.054	48356.64
536.255	48729.37
536.456	47953.19
536.657	49018.13
536.857	48422.17
537.058	47781.16
537.259	48749.85
537.46	48141.6
537.66	48633.11
537.861	48258.34
538.062	48264.48
538.263	48393.5
538.463	48284.96
538.664	48237.86
538.865	48166.18
539.065	48452.89
539.266	47912.23
539.466	48569.63
539.667	47955.24
539.868	49022.23
540.068	48436.51
540.269	48063.78
540.469	48502.04
540.67	47947.04
540.87	48706.84
541.071	48102.69
541.271	48538.91
541.472	48024.87
541.672	47838.5
541.873	47975.72
542.073	47617.32
542.274	48319.77
542.474	48074.02
542.675	47871.27
542.875	48571.67
543.075	48440.6
543.276	47689
543.476	48491.8
543.676	48188.7
543.877	48481.56
544.077	47764.78
544.277	47750.44
544.478	48078.11
544.678	48129.31
544.878	47791.4
545.078	48348.45
545.279	47949.09
545.479	47899.94
545.679	48223.52
545.879	47996.2
546.079	48221.47
546.28	47901.99
546.48	47625.51
546.68	47803.69
546.88	47883.56
547.08	48221.47
547.28	47895.85
547.48	47414.57
547.68	47621.42
547.88	47676.71
548.081	48063.78
548.281	47934.76
548.481	47881.51
548.681	48117.03
548.881	47760.68
549.081	47951.14
549.28	47746.34
549.48	47756.58
549.68	47588.65
549.88	48135.46
550.08	47346.99
550.28	48026.92
550.48	47537.45
550.68	47736.1
550.88	47662.38
551.08	47785.25
551.279	47977.76
551.479	47363.37
551.679	47807.78
551.879	47250.73
552.079	47828.26
552.278	47555.88
552.478	47584.55
552.678	47815.97
552.878	47908.13
553.077	47476.01
553.277	47322.41
553.477	47746.34
553.676	47236.4
553.876	47246.64
554.076	47248.69
554.275	47105.33
554.475	46691.64
554.674	47312.17
554.874	47564.07
555.074	47129.9
555.273	47553.83
555.473	47148.34
555.672	47129.9
555.872	47072.56
556.071	47103.28
556.271	47351.09
556.47	47017.27
556.67	46640.44
556.869	46587.19
557.068	47248.69
557.268	46581.05
557.467	46841.14
557.667	46935.35
557.866	46769.46
558.065	46845.24
558.265	46239.04
558.464	46564.67
558.663	46691.64
558.863	46099.78
559.062	46671.16
559.261	46054.72
559.461	46900.53
559.66	45765.96
559.859	45903.17
560.058	46064.96
560.258	46136.64
560.457	45931.84
560.656	46673.21
560.855	45794.63
561.054	45921.6
561.253	45755.72
561.453	45827.4
561.652	45917.51
561.851	46222.65
562.05	45636.94
562.249	45137.23
562.448	45647.18
562.647	45933.89
562.846	45116.75
563.045	45227.34
563.244	45032.78
563.443	45223.25
563.642	45135.18
563.841	45411.66
564.04	45296.97
564.239	45272.4
564.438	44606.81
564.637	44735.83
564.836	44946.77
565.035	44600.66
565.234	44717.4
565.432	44338.52
565.631	44555.61
565.83	44520.79
566.029	44260.7
566.228	44291.42
566.427	44340.57
566.625	43879.78
566.824	43461.99
567.023	44526.94
567.222	43451.75
567.42	44006.75
567.619	43898.21
567.818	43605.35
568.016	43640.17
568.215	44234.08
568.414	43277.68
568.612	43844.96
568.811	43302.25
569.01	43582.82
569.208	42978.67
569.407	43306.35
569.605	42390.91
569.804	43351.4
570.002	42456.44
570.201	42663.28
570.4	42450.3
570.598	42351.99
570.797	42409.34
570.995	42589.56
571.193	41964.93
571.392	42462.58
571.59	41633.16
571.789	41887.1
571.987	42136.96
572.186	41735.56
572.384	41463.18
572.582	42081.66
572.781	41710.98
572.979	41098.64
573.177	41416.07
573.376	41672.07
573.574	41233.8
573.772	41205.13
573.971	41022.86
574.169	40990.09
574.367	40766.87
574.565	41176.46
574.763	40506.77
574.962	40621.46
575.16	40287.64
575.358	40387.99
575.556	39931.29
575.754	40490.39
575.952	40123.8
576.151	40250.78
576.349	39595.43
576.547	39706.02
576.745	39673.25
576.943	40101.28
577.141	39613.86
577.339	40066.46
577.537	39566.76
577.735	39341.48
577.933	39255.46
578.131	39335.34
578.329	39296.42
578.527	39034.28
578.725	38774.19
578.923	38958.51
579.121	38587.83
579.319	38501.81
579.516	38841.78
579.714	38559.16
579.912	38157.75
580.11	38315.45
580.308	38288.82
580.506	38196.67
580.704	37789.12
580.901	38143.42
581.099	38079.93
581.297	37582.27
581.495	37658.05
581.692	38043.07
581.89	37160.39
582.088	37641.67
582.285	37074.38
582.483	37674.43
582.681	37096.91
582.878	36750.8
583.076	36550.1
583.274	37057.99
583.471	36533.71
583.669	37006.8
583.866	36402.64
584.064	36845.01
584.262	36236.76
584.459	36478.42
584.657	36433.36
584.854	36693.46
585.052	35575.27
585.249	35999.19
585.447	35855.84
585.644	35761.63
585.841	35724.77
586.039	36048.35
586.236	35347.94
586.434	35683.81
586.631	35309.03
586.828	35431.91
587.026	35014.12
587.223	35274.21
587.42	35026.41
587.618	35415.52
587.815	34952.68
588.012	34842.09
588.21	34416.11
588.407	34954.73
588.604	34612.72
588.801	34121.21
588.999	34174.45
589.196	34633.2
589.393	34178.55
589.59	34227.7
589.787	34098.68
589.984	33719.81
590.182	33824.25
590.379	33826.3
590.576	33455.62
590.773	33795.58
590.97	33238.53
591.167	33453.57
591.364	32880.14
591.561	33525.25
591.758	33297.92
591.955	32996.87
592.152	33056.26
592.349	33242.63
592.546	32894.47
592.743	32935.43
592.94	32316.95
593.137	32814.6
593.334	32867.85
593.531	32243.22
593.727	32298.52
593.924	32288.28
594.121	31786.52
594.318	32134.68
594.515	31731.23
594.712	32110.1
594.908	31862.3
595.105	31790.62
595.302	31114.79
595.499	31616.54
595.696	31069.73
595.892	31065.64
596.089	31421.98
596.286	31467.04
596.482	31028.77
596.679	31082.02
596.876	30981.67
597.072	31010.34
597.269	30909.99
597.466	30518.83
597.662	30715.44
597.859	30438.96
598.055	30461.49
598.252	30094.9
598.448	30494.25
598.645	30094.9
598.841	30225.97
599.038	30033.46
599.234	30142
599.431	29797.95
599.627	29447.74
599.824	30021.17
600.02	29185.6
600.217	29597.24
600.413	29355.58
600.609	29163.08
600.806	29427.26
601.002	29197.89
601.198	28945.99
601.395	28663.37
601.591	28980.81
601.787	28855.88
601.984	28563.02
602.18	28882.5
602.376	28483.15
602.572	28599.88
602.769	28491.34
602.965	28016.21
603.161	28202.58
603.357	28358.22
603.553	28096.08
603.75	28378.7
603.946	27901.53
604.142	28046.93
604.338	27666.01
604.534	27659.87
604.73	27379.29
604.926	27635.29
605.122	27569.76
605.318	27315.81
605.514	27377.25
605.71	26887.78
605.906	27260.51
606.102	26941.03
606.298	27448.93
606.494	27172.45
606.69	27037.28
606.886	27027.04
607.082	26535.53
607.278	26719.85
607.474	26644.07
607.67	26857.06
607.866	26410.6
608.062	26961.51
608.257	26658.41
608.453	26584.68
608.649	26302.06
608.845	26089.07
609.041	26046.07
609.236	26214
609.432	26324.59
609.628	25804.41
609.824	25714.3
610.019	26052.21
610.215	25775.73
610.411	26261.1
610.606	25613.95
610.802	25951.86
610.998	25716.34
611.193	25863.8
611.389	25478.78
611.584	25581.18
611.78	25489.02
611.976	25366.14
612.171	26009.2
612.367	25767.54
612.562	25353.85
612.758	25161.34
612.953	24880.77
613.149	25497.21
613.344	24938.12
613.539	25329.28
613.735	24915.59
613.93	25007.75
614.126	24712.84
614.321	25089.67
614.517	25120.38
614.712	24702.6
614.907	24436.36
615.103	24958.6
615.298	24575.62
615.493	24774.28
615.688	24530.57
615.884	24960.64
616.079	24323.72
616.274	24780.42
616.47	24188.56
616.665	24432.27
616.86	24276.62
617.055	23963.28
617.25	24204.94
617.445	24452.75
617.641	23766.68
617.836	24309.39
618.031	23826.07
618.226	24217.23
618.421	23991.95
618.616	23740.05
618.811	23647.9
619.006	23981.71
619.201	23387.8
619.396	23586.46
619.591	22947.49
619.786	23467.67
619.981	23035.55
620.176	23285.4
620.371	22918.82
620.566	22605.48
620.761	22970.02
620.956	22775.46
621.151	22429.35
621.346	22611.62
621.541	22298.28
621.735	22329
621.93	21964.46
622.125	22046.38
622.32	21692.08
622.515	21769.91
622.709	21784.24
622.904	22007.47
623.099	21714.61
623.294	21757.62
623.488	21407.42
623.683	21450.42
623.878	21055.17
624.072	21028.54
624.267	21003.97
624.462	20680.39
624.656	20885.19
624.851	20690.63
625.046	20391.62
625.24	20485.83
625.435	20287.18
625.629	20199.12
625.824	20006.61
626.018	20008.65
626.213	19603.16
626.407	19846.87
626.602	19746.51
626.796	19525.33
626.991	19300.06
627.185	19271.39
627.38	19119.84
627.574	19113.69
627.768	18912.99
627.963	18953.95
628.157	18603.75
628.352	18654.95
628.546	18507.49
628.74	18605.8
628.935	18372.33
629.129	18466.53
629.323	18118.38
629.517	18302.7
629.712	18087.66
629.906	18175.72
630.1	17624.82
630.294	17942.25
630.489	17882.86
630.683	17661.68
630.877	17366.78
631.071	17413.88
631.265	17518.32
631.459	17270.52
631.653	17239.8
631.848	16985.85
632.042	16910.08
632.236	16852.73
632.43	16879.36
632.624	16774.91
632.818	16707.33
633.012	16342.79
633.206	16244.49
633.4	16455.43
633.594	16099.08
633.788	16375.56
633.982	16314.12
634.176	16137.99
634.369	15937.29
634.563	15781.65
634.757	15619.86
634.951	15746.83
635.145	15709.97
635.339	15503.12
635.533	15554.32
635.726	15478.55
635.92	15286.04
636.114	15462.16
636.308	15339.29
636.501	15339.29
636.695	14978.84
636.889	15042.33
637.083	14917.4
637.276	14718.75
637.47	14516
637.664	14403.36
637.857	14520.1
638.051	14561.06
638.244	14280.49
638.438	14346.02
638.632	14223.14
638.825	13977.39
639.019	14073.64
639.212	14034.73
639.406	14186.28
639.599	13942.57
639.793	14001.96
639.986	13782.83
640.18	13766.45
640.373	13594.42
640.567	13528.88
640.76	13647.66
640.954	13133.62
641.147	13328.18
641.34	13139.77
641.534	12992.31
641.727	13182.77
641.92	13119.29
642.114	12894.01
642.307	13254.45
642.5	13029.18
642.694	12572.48
642.887	12592.96
643.08	12715.84
643.273	12533.57
643.467	12326.72
643.66	12492.61
643.853	12144.45
644.046	12357.44
644.239	12384.07
644.432	12197.7
644.626	12091.21
644.819	11956.04
645.012	12244.81
645.205	11958.09
645.398	12042.06
645.591	11833.16
645.784	11788.11
645.977	11480.91
646.17	11872.07
646.363	11364.18
646.556	11319.12
646.749	11425.62
646.942	11470.67
647.135	11415.38
647.328	11439.95
647.521	11192.15
647.714	10897.24
647.907	11280.21
648.099	11079.51
648.292	10997.59
648.485	11132.76
648.678	10590.05
648.871	10733.4
649.064	10614.62
649.256	10772.32
649.449	10837.85
649.642	10628.96
649.835	10436.45
650.027	10360.67
650.22	10411.87
650.413	10356.58
650.605	10346.34
650.798	10262.37
650.991	10045.29
651.183	10278.76
651.376	10248.04
651.568	10065.77
651.761	9967.46
651.954	10078.05
652.146	9912.17
652.339	9848.68
652.531	9791.34
652.724	9881.45
652.916	9690.99
653.109	9328.5
653.301	9330.55
653.494	9439.09
653.686	9582.45
653.879	9617.26
654.071	9330.55
654.263	9426.8
654.456	9275.25
654.648	9338.74
654.84	8961.91
655.033	8933.24
655.225	9021.3
655.417	8978.3
655.61	8992.63
655.802	8910.71
655.994	9035.64
656.186	8939.38
656.379	8830.84
656.571	8765.31
656.763	8474.49
656.955	8609.66
657.148	8740.73
657.34	8714.11
657.532	8361.86
657.724	8519.55
657.916	8626.04
658.108	8564.61
658.3	8363.9
658.492	8314.75
658.684	8363.9
658.876	8071.04
659.068	8167.3
659.26	7995.27
659.452	8048.52
659.644	8232.83
659.836	7976.84
660.028	8030.09
660.22	7819.14
660.412	7915.4
660.604	7722.89
660.796	7729.03
660.988	7765.9
661.18	7673.74
661.372	7628.68
661.563	7909.26
661.755	7532.43
661.947	7597.96
662.139	7403.41
662.331	7542.67
662.522	7382.93
662.714	7370.64
662.906	7184.27
663.097	7341.97
663.289	7262.1
663.481	7249.81
663.673	7258
663.864	7182.23
664.056	7002.01
664.247	7036.82
664.439	7047.06
664.631	7079.83
664.822	7069.59
665.014	7026.58
665.205	7020.44
665.397	7034.77
665.588	6897.56
665.78	6746.01
665.971	6924.18
666.163	6793.11
666.354	6807.45
666.546	6700.95
666.737	6596.51
666.929	6741.91
667.12	6649.75
667.311	6524.83
667.503	6586.27
667.694	6455.2
667.885	6375.33
668.077	6483.87
668.268	6463.39
668.459	6295.46
668.651	6471.58
668.842	6295.46
669.033	6334.37
669.224	6289.31
669.416	6360.99
669.607	6227.87
669.798	5994.4
669.989	6111.14
670.18	6156.19
670.371	6072.23
670.563	6131.62
670.754	6170.53
670.945	6154.15
671.136	6094.75
671.327	5943.21
671.518	5926.82
671.709	5910.44
671.9	5961.64
672.091	6006.69
672.282	5853.09
672.473	5836.71
672.664	5832.61
672.855	5767.08
673.046	5697.45
673.237	5859.24
673.428	5642.15
673.619	5805.99
673.809	5619.63
674	5644.2
674.191	5756.84
674.382	5578.67
674.573	5701.54
674.764	5619.63
674.954	5722.02
675.145	5435.31
675.336	5480.36
675.527	5447.6
675.717	5541.8
675.908	5533.61
676.099	5390.25
676.289	5377.97
676.48	5384.11
676.671	5351.34
676.861	5414.83
677.052	5369.77
677.243	5193.65
677.433	5232.56
677.624	5488.56
677.814	5156.79
678.005	5359.53
678.195	5130.16
678.386	5081.01
678.576	5169.07
678.767	5042.1
678.957	5189.55
679.148	5081.01
679.338	5056.43
679.529	5017.52
679.719	4933.56
679.909	5070.77
680.1	5081.01
680.29	5130.16
680.481	5095.35
680.671	5070.77
680.861	4884.41
681.052	5031.86
681.242	4943.8
681.432	4984.76
681.622	5054.39
681.813	4890.55
682.003	4859.83
682.193	4878.26
682.383	4845.49
682.573	4849.59
682.764	4908.98
682.954	4773.82
683.144	4865.97
683.334	4812.73
683.524	4863.93
683.714	4575.16
683.904	4681.66
684.094	4722.62
684.284	4599.74
684.474	4716.47
684.664	4710.33
684.854	4659.13
685.044	4593.59
685.234	4597.69
685.424	4597.69
685.614	4462.52
685.804	4472.76
685.994	4540.35
686.184	4483
686.374	4710.33
686.564	4587.45
686.753	4444.09
686.943	4538.3
687.133	4380.61
687.323	4515.77
687.513	4480.96
687.702	4413.37
687.892	4464.57
688.082	4358.08
688.272	4284.35
688.461	4392.89
688.651	4249.54
688.841	4196.29
689.03	4427.71
689.22	4360.13
689.41	4290.49
689.599	4220.86
689.789	4206.53
689.979	4245.44
690.168	4143.04
690.358	4106.18
690.547	4151.23
690.737	3954.63
690.926	4243.39
691.116	3995.59
691.305	4212.67
691.495	4052.93
691.684	3999.68
691.874	4054.98
692.063	4128.7
692.252	3936.2
692.442	4026.31
692.631	3854.28
692.82	4118.47
693.01	3848.13
693.199	3827.65
693.388	3788.74
693.578	3850.18
693.767	3817.41
693.956	3778.5
694.146	3768.26
694.335	3829.7
694.524	3852.23
694.713	3882.95
694.902	3850.18
695.092	3708.87
695.281	3710.92
695.47	3669.96
695.659	3743.69
695.848	3829.7
696.037	3696.58
696.226	3749.83
696.415	3639.24
696.604	3768.26
696.793	3573.71
696.982	3723.21
697.171	3661.77
697.36	3577.8
697.549	3604.42
697.738	3424.2
697.927	3579.85
698.116	3579.85
698.305	3522.51
698.494	3665.86
698.683	3596.23
698.872	3663.82
699.061	3663.82
699.25	3653.58
699.438	3524.55
699.627	3456.97
699.816	3612.62
700.005	3639.24
700.193	3461.07
700.382	3497.93
700.571	3592.14
700.76	3508.17
700.948	3493.83
701.137	3438.54
701.326	3442.64
701.514	3444.68
701.703	3385.29
701.892	3557.32
702.08	3418.06
702.269	3334.09
702.457	3465.16
702.646	3246.03
702.834	3418.06
703.023	3373
703.212	3430.35
703.4	3289.04
703.589	3178.45
703.777	3448.78
703.965	3407.82
704.154	3186.64
704.342	3276.75
704.531	3313.61
704.719	3268.56
704.907	3280.85
705.096	3241.93
705.284	3336.14
705.472	3262.41
705.661	3078.1
705.849	3336.14
706.037	3309.52
706.226	3370.96
706.414	3250.13
706.602	3092.43
706.79	3123.15
706.979	3260.37
707.167	3229.65
707.355	3125.2
707.543	3147.73
707.731	3256.27
707.919	3160.02
708.107	3121.1
708.296	3104.72
708.484	3133.39
708.672	3211.21
708.86	3184.59
709.048	3141.58
709.236	3012.56
709.424	3188.69
709.612	3137.49
709.8	3035.09
709.988	3153.87
710.176	3143.63
710.364	3080.14
710.551	3119.06
710.739	3018.71
710.927	3041.23
711.115	2949.07
711.303	3098.58
711.491	2875.35
711.679	3080.14
711.866	2928.6
712.054	3012.56
712.242	2899.92
712.43	2975.7
712.617	2895.83
712.805	2992.08
712.993	2957.27
713.181	2973.65
713.368	2836.44
713.556	3006.42
713.744	2805.72
713.931	2895.83
714.119	2944.98
714.306	3039.19
714.494	3004.37
714.682	2891.73
714.869	2830.29
715.057	2881.49
715.244	2723.8
715.432	2951.12
715.619	2744.28
715.807	2904.02
715.994	2836.44
716.182	2865.11
716.369	2727.89
716.556	2822.1
716.744	2746.33
716.931	2818
717.119	2871.25
717.306	2779.09
717.493	2779.09
717.681	2770.9
717.868	2809.81
718.055	2713.56
718.242	2772.95
718.43	2674.65
718.617	2762.71
718.804	2701.27
718.991	2598.87
719.179	2844.63
719.366	2674.65
719.553	2744.28
719.74	2813.91
719.927	2582.49
720.114	2744.28
720.301	2631.64
720.488	2793.43
720.676	2658.26
720.863	2656.22
721.05	2676.7
721.237	2594.78
721.424	2598.87
721.611	2705.37
721.798	2645.98
721.985	2645.98
722.172	2637.78
722.358	2648.02
722.545	2650.07
722.732	2582.49
722.919	2531.29
723.106	2525.15
723.293	2650.07
723.48	2605.02
723.667	2523.1
723.853	2539.48
724.04	2547.67
724.227	2629.59
724.414	2478.04
724.6	2508.76
724.787	2527.19
724.974	2564.06
725.161	2482.14
725.347	2457.56
725.534	2506.71
725.72	2473.95
725.907	2469.85
726.094	2547.67
726.28	2490.33
726.467	2488.28
726.653	2478.04
726.84	2459.61
727.027	2564.06
727.213	2437.08
727.4	2469.85
727.586	2525.15
727.773	2430.94
727.959	2312.16
728.145	2439.13
728.332	2457.56
728.518	2529.24
728.705	2449.37
728.891	2373.6
729.077	2412.51
729.264	2449.37
729.45	2432.99
729.636	2482.14
729.823	2287.58
730.009	2346.97
730.195	2301.92
730.382	2394.08
730.568	2375.64
730.754	2287.58
730.94	2260.96
731.126	2338.78
731.313	2416.6
731.499	2430.94
731.685	2359.26
731.871	2244.57
732.057	2367.45
732.243	2310.11
732.429	2289.63
732.615	2322.4
732.801	2432.99
732.987	2424.8
733.173	2342.88
733.359	2265.05
733.545	2205.66
733.731	2203.61
733.917	2293.72
734.103	2336.73
734.289	2238.43
734.475	2318.3
734.661	2291.68
734.847	2168.8
735.033	2342.88
735.219	2115.55
735.404	2271.2
735.59	2125.79
735.776	2179.04
735.962	2207.71
736.148	2191.33
736.333	2176.99
736.519	2133.98
736.705	2228.19
736.89	2170.85
737.076	2232.29
737.262	2154.46
737.447	2174.94
737.633	2215.9
737.819	2105.31
738.004	2127.84
738.19	2080.74
738.375	2187.23
738.561	2197.47
738.747	2068.45
738.932	2090.98
739.118	2088.93
739.303	2179.04
739.489	2093.02
739.674	2045.92
739.859	1974.24
740.045	2080.74
740.23	2017.25
740.416	2088.93
740.601	2111.46
740.786	1986.53
740.972	1968.1
741.157	2025.44
741.342	1884.13
741.528	1933.28
741.713	1970.15
741.898	1980.39
742.084	1970.15
742.269	1970.15
742.454	2023.39
742.639	1953.76
742.824	1877.99
743.01	1966.05
743.195	1957.86
743.38	2025.44
743.565	1900.51
743.75	1927.14
743.935	1867.75
744.12	1988.58
744.305	1861.6
744.49	1822.69
744.675	1863.65
744.86	1802.21
745.045	1880.04
745.23	1787.88
745.415	1808.36
745.6	1841.12
745.785	1867.75
745.97	1847.27
746.155	1769.44
746.34	1773.54
746.525	1841.12
746.71	1861.6
746.895	1714.15
747.079	1716.2
747.264	1734.63
747.449	1736.68
747.634	1763.3
747.819	1765.35
748.003	1662.95
748.188	1720.29
748.373	1585.13
748.557	1730.53
748.742	1753.06
748.927	1597.42
749.111	1636.33
749.296	1507.31
749.481	1511.4
749.665	1656.81
749.85	1542.12
750.034	1583.08
750.219	1533.93
750.404	1607.66
750.588	1583.08
750.773	1503.21
750.957	1445.87
751.141	1462.25
751.326	1433.58
751.51	1499.11
751.695	1443.82
751.879	1392.62
752.064	1546.22
752.248	1478.63
752.432	1400.81
752.617	1320.94
752.801	1298.41
752.985	1370.09
753.17	1435.63
753.354	1417.19
753.538	1425.39
753.722	1349.61
753.907	1370.09
754.091	1277.93
754.275	1376.23
754.459	1310.7
754.643	1308.65
754.828	1320.94
755.012	1302.51
755.196	1224.69
755.38	1294.32
755.564	1210.35
755.748	1314.8
755.932	1226.73
756.116	1376.23
756.3	1286.12
756.484	1179.63
756.668	1173.49
756.852	1138.67
757.036	1245.16
757.22	1142.77
757.404	1140.72
757.588	1171.44
757.772	1150.96
757.956	1130.48
758.14	1234.93
758.323	1081.33
758.507	1079.28
758.691	1116.14
758.875	1101.81
759.059	1130.48
759.242	1097.71
759.426	1171.44
759.61	1087.47
759.794	1122.29
759.977	1134.57
760.161	1101.81
760.345	1091.57
760.528	1060.85
760.712	1081.33
760.895	1036.27
761.079	987.12
761.263	1105.9
761.446	974.83
761.63	1021.94
761.813	1019.89
761.997	911.35
762.18	1038.32
762.364	989.17
762.547	864.24
762.731	985.07
762.914	974.83
763.098	974.83
763.281	940.02
763.464	999.41
763.648	974.83
763.831	942.07
764.015	841.72
764.198	962.55
764.381	907.25
764.564	995.31
764.748	929.78
764.931	933.87
765.114	892.91
765.297	942.07
765.481	944.11
765.664	966.64
765.847	937.97
766.03	974.83
766.213	874.48
766.397	868.34
766.58	897.01
766.763	837.62
766.946	964.59
767.129	899.06
767.312	798.71
767.495	880.63
767.678	739.32
767.861	921.59
768.044	954.35
768.227	903.15
768.41	886.77
768.593	827.38
768.776	811
768.959	835.57
769.142	851.95
769.324	860.15
769.507	851.95
769.69	808.95
769.873	790.52
770.056	841.72
770.239	862.19
770.421	763.89
770.604	923.63
770.787	808.95
770.97	788.47
771.152	835.57
771.335	794.61
771.518	829.43
771.7	745.46
771.883	763.89
772.066	763.89
772.248	767.99
772.431	862.19
772.613	788.47
772.796	770.04
772.978	804.85
773.161	737.27
773.343	794.61
773.526	667.64
773.708	739.32
773.891	745.46
774.073	720.88
774.256	778.23
774.438	729.08
774.621	698.36
774.803	770.04
774.985	667.64
775.168	696.31
775.35	655.35
775.532	714.74
775.715	731.12
775.897	675.83
776.079	632.82
776.261	561.14
776.444	610.29
776.626	704.5
776.808	706.55
776.99	684.02
777.173	638.97
777.355	667.64
777.537	567.29
777.719	634.87
777.901	614.39
778.083	567.29
778.265	598.01
778.447	641.01
778.629	610.29
778.811	616.44
778.993	557.05
779.175	544.76
779.357	643.06
779.539	511.99
779.721	550.9
779.903	561.14
780.085	573.43
780.267	581.62
780.449	569.34
780.631	616.44
780.812	516.09
780.994	577.53
781.176	583.67
781.358	608.25
781.54	557.05
781.721	534.52
781.903	557.05
782.085	516.09
782.267	552.95
782.448	567.29
782.63	409.59
782.812	468.98
782.993	483.32
783.175	544.76
783.357	483.32
783.538	503.8
783.72	507.9
783.901	481.27
784.083	460.79
784.264	468.98
784.446	411.64
784.627	516.09
784.809	499.7
784.99	511.99
785.172	444.41
785.353	440.31
785.535	421.88
785.716	380.92
785.897	403.45
786.079	370.68
786.26	444.41
786.441	499.7
786.623	387.07
786.804	370.68
786.985	415.74
787.167	454.65
787.348	450.55
787.529	344.06
787.71	397.31
787.891	434.17
788.073	425.98
788.254	419.83
788.435	389.11
788.616	370.68
788.797	307.2
788.978	354.3
789.159	374.78
789.34	368.63
789.522	385.02
789.703	344.06
789.884	389.11
790.065	368.63
790.246	387.07
790.427	327.67
790.607	438.27
790.788	305.15
790.969	393.21
791.15	358.39
791.331	395.26
791.512	348.15
791.693	321.53
791.874	378.87
792.054	458.75
792.235	434.17
792.416	290.81
792.597	278.52
792.778	319.48
792.958	288.76
793.139	346.11
793.32	319.48
793.5	335.87
793.681	344.06
793.862	245.76
794.042	276.48
794.223	286.72
794.404	280.57
794.584	276.48
794.765	368.63
794.945	303.1
795.126	387.07
795.306	352.25
795.487	317.44
795.667	251.9
795.848	270.33
796.028	227.32
796.209	339.96
796.389	256
796.57	266.24
796.75	286.72
796.93	301.05
797.111	253.95
797.291	268.28
797.471	278.52
797.652	235.52
797.832	184.32
798.012	352.25
798.192	253.95
798.373	264.19
798.553	217.08
798.733	307.2
798.913	227.32
799.093	256
799.274	172.03
799.454	208.89
799.634	227.32
799.814	296.96
799.994	235.52
800.174	311.29
800.354	223.23
800.534	165.89
800.714	290.81
800.894	215.04
801.074	141.31
801.254	225.28
801.434	235.52
801.614	258.04
801.794	217.08
801.974	772.08
802.154	217.08
802.334	212.99
802.514	262.14
802.693	315.39
802.873	157.69
803.053	233.47
803.233	212.99
803.413	208.89
803.592	206.84
803.772	196.61
803.952	208.89
804.131	225.28
804.311	196.61
804.491	262.14
804.67	196.61
804.85	190.46
805.03	196.61
805.209	190.46
805.389	243.71
805.568	165.89
805.748	204.8
805.928	206.84
806.107	176.13
806.287	145.41
806.466	225.28
806.646	180.22
806.825	217.08
807.004	188.41
807.184	280.57
807.363	165.89
807.543	178.17
807.722	217.08
807.901	184.32
808.081	245.76
808.26	221.18
808.439	155.65
808.619	165.89
808.798	196.61
808.977	194.56
809.156	204.8
809.336	217.08
809.515	225.28
809.694	172.03
809.873	143.36
810.052	223.23
810.231	188.41
810.411	155.65
810.59	208.89
810.769	159.74
810.948	180.22
811.127	131.07
811.306	43.01
811.485	155.65
811.664	190.46
811.843	204.8
812.022	212.99
812.201	126.97
812.38	163.84
812.559	114.69
812.737	157.69
812.916	202.75
813.095	169.98
813.274	163.84
813.453	165.89
813.632	229.37
813.811	155.65
813.989	180.22
814.168	108.54
814.347	212.99
814.526	215.04
814.704	147.45
814.883	143.36
815.062	159.74
815.24	81.92
815.419	122.88
815.598	169.98
815.776	100.35
815.955	180.22
816.133	182.27
816.312	212.99
816.49	149.5
816.669	147.45
816.847	196.61
817.026	137.21
817.204	118.78
817.383	180.22
817.561	104.45
817.74	180.22
817.918	147.45
818.097	180.22
818.275	92.16
818.453	151.55
818.632	165.89
818.81	96.25
818.988	108.54
819.167	75.77
819.345	149.5
819.523	141.31
819.701	96.25
819.879	149.5
820.058	69.63
820.236	110.59
820.414	114.69
820.592	90.11
820.77	137.21
820.948	114.69
821.127	-10.24
821.305	135.17
821.483	102.4
821.661	114.69
821.839	104.45
822.017	75.77
822.195	65.53
822.373	219.13
822.551	108.54
822.729	184.32
822.907	106.49
823.085	206.84
823.262	129.02
823.44	57.34
823.618	163.84
823.796	98.3
823.974	90.11
824.152	139.26
824.329	98.3
824.507	120.83
824.685	114.69
824.863	112.64
825.04	114.69
825.218	155.65
825.396	90.11
825.574	116.73
825.751	69.63
825.929	159.74
826.107	77.82
826.284	83.97
826.462	118.78
826.639	98.3
826.817	81.92
826.994	88.06
827.172	2.05
827.349	98.3
827.527	38.91
827.704	81.92
827.882	163.84
828.059	116.73
828.237	110.59
828.414	49.15
828.591	63.49
828.769	124.93
828.946	98.3
829.124	116.73
829.301	106.49
829.478	126.97
829.655	143.36
829.833	86.01
830.01	20.48
830.187	110.59
830.364	22.53
830.542	126.97
830.719	133.12
830.896	73.73
831.073	106.49
831.25	98.3
831.427	108.54
831.604	59.39
831.782	51.2
831.959	47.1
832.136	49.15
832.313	83.97
832.49	65.53
832.667	157.69
832.844	4.1
833.021	206.84
833.198	65.53
833.374	114.69
833.551	79.87
833.728	96.25
833.905	133.12
834.082	100.35
834.259	110.59
834.436	65.53
834.612	43.01
834.789	67.58
834.966	57.34
835.143	98.3
835.319	-18.43
835.496	65.53
835.673	163.84
835.85	32.77
836.026	79.87
836.203	176.13
836.38	63.49
836.556	8.19
836.733	71.68
836.909	108.54
837.086	112.64
837.262	-57.34
837.439	67.58
837.616	114.69
837.792	57.34
837.968	86.01
838.145	86.01
838.321	28.67
838.498	86.01
838.674	94.21
838.851	53.25
839.027	104.45
839.203	102.4
839.38	71.68
839.556	-4.1
839.732	98.3
839.909	102.4
840.085	73.73
840.261	94.21
840.437	90.11
840.614	4.1
840.79	145.41
840.966	34.82
841.142	24.58
841.318	43.01
841.494	53.25
841.671	20.48
841.847	83.97
842.023	28.67
842.199	90.11
842.375	83.97
842.551	131.07
842.727	6.14
842.903	165.89
843.079	69.63
843.255	81.92
843.431	-4.1
843.607	40.96
843.783	-38.91
843.959	75.77
844.134	24.58
844.31	83.97
844.486	61.44
844.662	-22.53
844.838	98.3
845.013	86.01
845.189	172.03
845.365	112.64
845.541	129.02
845.716	10.24
845.892	90.11
846.068	22.53
846.244	34.82
846.419	34.82
846.595	90.11
846.77	43.01
846.946	180.22
847.122	65.53
847.297	43.01
847.473	36.86
847.648	36.86
847.824	81.92
847.999	38.91
848.175	36.86
848.35	59.39
848.526	77.82
848.701	55.3
848.876	86.01
849.052	51.2
849.227	57.34
849.403	92.16
849.578	28.67
849.753	45.06
849.929	92.16
850.104	28.67
850.279	79.87
850.454	26.62
850.63	108.54
850.805	-22.53
850.98	38.91
851.155	67.58
851.33	65.53
851.505	-63.49
851.681	59.39
851.856	12.29
852.031	45.06
852.206	18.43
852.381	81.92
852.556	36.86
852.731	53.25
852.906	36.86
853.081	114.69
853.256	88.06
853.431	22.53
853.606	-8.19
853.781	49.15
853.956	69.63
854.131	55.3
854.305	2.05
854.48	-26.62
854.655	-81.92
854.83	26.62
855.005	36.86
855.18	-14.34
855.354	83.97
855.529	73.73
855.704	43.01
855.879	122.88
856.053	12.29
856.228	2.05
856.403	12.29
856.577	88.06
856.752	61.44
856.926	67.58
857.101	20.48
857.276	67.58
857.45	36.86
857.625	6.14
857.799	34.82
857.974	18.43
858.148	-6.14
858.323	59.39
858.497	40.96
858.672	-24.58
858.846	49.15
859.02	172.03
859.195	-6.14
859.369	59.39
859.543	-32.77
859.718	16.38
859.892	40.96
860.066	43.01
860.241	-28.67
860.415	40.96
860.589	0
860.763	36.86
860.938	-8.19
861.112	98.3
861.286	88.06
861.46	77.82
861.634	49.15
861.808	75.77
861.982	45.06
862.157	18.43
862.331	20.48
862.505	-20.48
862.679	-53.25
862.853	18.43
863.027	-67.58
863.201	57.34
863.375	65.53
863.549	69.63
863.722	36.86
863.896	28.67
864.07	32.77
864.244	86.01
864.418	102.4
864.592	32.77
864.766	-8.19
864.939	-40.96
865.113	24.58
865.287	49.15
865.461	4.1
865.634	16.38
865.808	83.97
865.982	4.1
866.156	-8.19
866.329	-14.34
866.503	86.01
866.676	81.92
866.85	4.1
867.024	22.53
867.197	4.1
867.371	24.58
867.544	-22.53
867.718	-32.77
867.891	16.38
868.065	49.15
868.238	14.34
868.412	40.96
868.585	71.68
868.759	-6.14
868.932	26.62
869.105	-10.24
869.279	14.34
869.452	-6.14
869.625	14.34
869.799	22.53
869.972	-12.29
870.145	53.25
870.319	73.73
870.492	10.24
870.665	55.3
870.838	10.24
871.011	-81.92
871.185	-45.06
871.358	59.39
871.531	83.97
871.704	36.86
871.877	28.67
872.05	47.1
872.223	63.49
872.396	45.06
872.569	24.58
872.742	-10.24
872.915	32.77
873.088	26.62
873.261	34.82
873.434	28.67
873.607	94.21
873.78	43.01
873.953	-22.53
874.126	8.19
874.299	100.35
874.471	28.67
874.644	12.29
874.817	100.35
874.99	112.64
875.163	24.58
875.335	53.25
875.508	-8.19
875.681	-12.29
875.853	-55.3
876.026	20.48
876.199	-45.06
876.371	96.25
876.544	73.73
876.717	67.58
876.889	24.58
877.062	83.97
877.234	24.58
877.407	75.77
877.579	40.96
877.752	49.15
877.924	79.87
878.097	40.96
878.269	94.21
878.442	47.1
878.614	-34.82
878.786	4.1
878.959	4.1
879.131	49.15
879.303	-49.15
879.476	0
879.648	-14.34
879.82	61.44
879.993	-2.05
880.165	-16.38
880.337	12.29
880.509	2.05
880.681	10.24
880.854	65.53
881.026	-28.67
881.198	67.58
881.37	-20.48
881.542	38.91
881.714	-8.19
881.886	-24.58
882.058	57.34
882.23	10.24
882.402	59.39
882.574	2.05
882.746	55.3
882.918	16.38
883.09	-26.62
883.262	-49.15
883.434	10.24
883.606	77.82
883.778	-20.48
883.95	-51.2
884.122	61.44
884.293	47.1
884.465	-20.48
884.637	55.3
884.809	-16.38
884.98	45.06
885.152	86.01
885.324	67.58
885.496	38.91
885.667	-24.58
885.839	59.39
886.011	92.16
886.182	16.38
886.354	65.53
886.525	14.34
886.697	57.34
886.869	34.82
887.04	-40.96
887.212	32.77
887.383	-24.58
887.555	43.01
887.726	16.38
887.897	24.58
888.069	2.05
888.24	8.19
888.412	-36.86
888.583	20.48
888.754	55.3
888.926	-43.01
889.097	26.62
889.268	8.19
889.44	40.96
889.611	-16.38
889.782	4.1
889.953	-14.34
890.125	114.69
890.296	-55.3
890.467	4.1
890.638	24.58
890.809	16.38
890.98	-14.34
891.151	18.43
891.323	65.53
891.494	59.39
891.665	14.34
891.836	34.82
892.007	36.86
892.178	-36.86
892.349	51.2
892.52	-12.29
892.691	-2.05
892.862	4.1
893.032	-38.91
893.203	51.2
893.374	51.2
893.545	16.38
893.716	-90.11
893.887	18.43
894.057	-38.91
894.228	4.1
894.399	22.53
894.57	24.58
894.74	-12.29
894.911	-57.34
895.082	36.86
895.253	51.2
895.423	-69.63
895.594	-53.25
895.764	26.62
895.935	8.19
896.106	30.72
896.276	36.86
896.447	8.19
896.617	-24.58
896.788	-73.73
896.958	36.86
897.129	28.67
897.299	16.38
897.47	34.82
897.64	47.1
897.81	16.38
897.981	12.29
898.151	49.15
898.322	34.82
898.492	18.43
898.662	2.05
898.832	-51.2
899.003	-22.53
899.173	-24.58
899.343	-53.25
899.513	34.82
