Data from USB4F104151__123__14-18-54-460.txt Node

Date: Thu Mar 13 14:18:54 EDT 2025
User: louis
Spectrometer: USB4F10415
Trigger mode: 4
Integration Time (sec): 2.000000E-2
Scans to average: 1
Electric dark correction enabled: true
Nonlinearity correction enabled: false
Boxcar width: 0
XAxis mode: Wavelengths
Number of Pixels in Spectrum: 3648
>>>>>Begin Spectral Data<<<<<
178.204	-109.91
178.424	-109.91
178.644	-109.91
178.864	-124.24
179.084	-77.14
179.304	-19.8
179.524	127.66
179.744	-25.94
179.964	4.78
180.184	-11.61
180.404	-52.56
180.624	-1.37
180.844	4.78
181.064	-23.89
181.283	66.22
181.503	-9.56
181.723	-58.71
181.943	35.5
182.163	-11.61
182.383	-32.08
182.602	64.17
182.822	17.07
183.042	80.55
183.262	-15.7
183.482	41.64
183.701	-97.62
183.921	78.51
184.141	-27.99
184.361	-19.8
184.58	66.22
184.8	21.16
185.02	0.68
185.239	21.16
185.459	53.93
185.679	35.5
185.898	-11.61
186.118	84.65
186.338	19.11
186.557	15.02
186.777	0.68
186.997	15.02
187.216	58.03
187.436	55.98
187.655	-19.8
187.875	103.08
188.095	-15.7
188.314	64.17
188.534	101.03
188.753	62.12
188.973	-1.37
189.192	25.26
189.412	27.31
189.631	49.83
189.851	-23.89
190.07	51.88
190.29	-27.99
190.509	6.83
190.729	55.98
190.948	-3.41
191.168	135.85
191.387	55.98
191.607	119.46
191.826	-19.8
192.045	47.79
192.265	76.46
192.484	-11.61
192.704	31.4
192.923	29.35
193.142	47.79
193.362	19.11
193.581	-44.37
193.8	29.35
194.02	62.12
194.239	15.02
194.458	23.21
194.678	-25.94
194.897	-1.37
195.116	21.16
195.335	37.55
195.555	33.45
195.774	4.78
195.993	55.98
196.212	4.78
196.432	0.68
196.651	39.59
196.87	-44.37
197.089	31.4
197.308	-11.61
197.528	35.5
197.747	8.87
197.966	0.68
198.185	66.22
198.404	-9.56
198.623	4.78
198.842	49.83
199.062	-1.37
199.281	121.51
199.5	27.31
199.719	17.07
199.938	25.26
200.157	127.66
200.376	17.07
200.595	47.79
200.814	-17.75
201.033	-27.99
201.252	60.07
201.471	37.55
201.69	152.23
201.909	74.41
202.128	-34.13
202.347	-15.7
202.566	37.55
202.785	23.21
203.004	-27.99
203.223	76.46
203.442	-5.46
203.661	-34.13
203.879	31.4
204.098	-3.41
204.317	0.68
204.536	12.97
204.755	29.35
204.974	58.03
205.193	78.51
205.411	70.31
205.63	-7.51
205.849	27.31
206.068	-81.24
206.287	64.17
206.505	62.12
206.724	-5.46
206.943	17.07
207.162	-52.56
207.381	37.55
207.599	43.69
207.818	23.21
208.037	-1.37
208.255	2.73
208.474	-9.56
208.693	33.45
208.911	33.45
209.13	27.31
209.349	8.87
209.567	29.35
209.786	88.75
210.005	53.93
210.223	55.98
210.442	-19.8
210.661	-21.85
210.879	6.83
211.098	23.21
211.316	-1.37
211.535	17.07
211.753	8.87
211.972	4.78
212.191	0.68
212.409	-48.47
212.628	-23.89
212.846	70.31
213.065	23.21
213.283	4.78
213.502	51.88
213.72	15.02
213.938	0.68
214.157	-54.61
214.375	-30.04
214.594	12.97
214.812	33.45
215.031	-11.61
215.249	23.21
215.467	39.59
215.686	21.16
215.904	72.36
216.122	10.92
216.341	33.45
216.559	-15.7
216.778	70.31
216.996	58.03
217.214	-9.56
217.432	47.79
217.651	4.78
217.869	-1.37
218.087	43.69
218.306	29.35
218.524	31.4
218.742	-11.61
218.96	29.35
219.179	-19.8
219.397	78.51
219.615	43.69
219.833	29.35
220.051	66.22
220.27	37.55
220.488	19.11
220.706	90.79
220.924	21.16
221.142	0.68
221.36	51.88
221.578	25.26
221.796	45.74
222.015	47.79
222.233	23.21
222.451	58.03
222.669	41.64
222.887	45.74
223.105	-17.75
223.323	-3.41
223.541	-11.61
223.759	58.03
223.977	-25.94
224.195	101.03
224.413	70.31
224.631	-17.75
224.849	-87.38
225.067	21.16
225.285	39.59
225.503	49.83
225.721	47.79
225.939	21.16
226.157	27.31
226.375	49.83
226.592	-50.52
226.81	-15.7
227.028	86.7
227.246	66.22
227.464	-25.94
227.682	17.07
227.9	29.35
228.117	31.4
228.335	62.12
228.553	45.74
228.771	19.11
228.989	4.78
229.206	-17.75
229.424	-3.41
229.642	31.4
229.86	72.36
230.077	33.45
230.295	17.07
230.513	72.36
230.731	49.83
230.948	10.92
231.166	70.31
231.384	41.64
231.601	-7.51
231.819	10.92
232.037	-15.7
232.254	-36.18
232.472	23.21
232.689	-81.24
232.907	23.21
233.125	111.27
233.342	82.6
233.56	0.68
233.777	4.78
233.995	78.51
234.213	92.84
234.43	62.12
234.648	35.5
234.865	-7.51
235.083	-3.41
235.3	58.03
235.518	21.16
235.735	21.16
235.953	29.35
236.17	27.31
236.388	80.55
236.605	-58.71
236.822	80.55
237.04	72.36
237.257	-52.56
237.475	-27.99
237.692	-1.37
237.909	37.55
238.127	-9.56
238.344	17.07
238.562	-11.61
238.779	-48.47
238.996	-38.23
239.214	58.03
239.431	82.6
239.648	-23.89
239.865	21.16
240.083	37.55
240.3	72.36
240.517	8.87
240.735	23.21
240.952	33.45
241.169	66.22
241.386	41.64
241.603	-52.56
241.821	-73.04
242.038	72.36
242.255	31.4
242.472	12.97
242.689	21.16
242.907	12.97
243.124	64.17
243.341	4.78
243.558	53.93
243.775	31.4
243.992	12.97
244.209	76.46
244.426	4.78
244.643	43.69
244.86	27.31
245.078	39.59
245.295	92.84
245.512	6.83
245.729	-60.76
245.946	45.74
246.163	2.73
246.38	31.4
246.597	-7.51
246.814	58.03
247.031	-40.28
247.248	0.68
247.464	23.21
247.681	96.94
247.898	21.16
248.115	55.98
248.332	21.16
248.549	12.97
248.766	21.16
248.983	37.55
249.2	29.35
249.417	31.4
249.633	-3.41
249.85	2.73
250.067	41.64
250.284	25.26
250.501	49.83
250.717	47.79
250.934	-32.08
251.151	12.97
251.368	23.21
251.585	92.84
251.801	53.93
252.018	-50.52
252.235	47.79
252.451	62.12
252.668	-23.89
252.885	49.83
253.102	47.79
253.318	12.97
253.535	17.07
253.752	25.26
253.968	0.68
254.185	-15.7
254.401	8.87
254.618	15.02
254.835	8.87
255.051	43.69
255.268	4.78
255.484	6.83
255.701	29.35
255.917	60.07
256.134	-17.75
256.351	70.31
256.567	-34.13
256.784	19.11
257	15.02
257.217	92.84
257.433	4.78
257.65	41.64
257.866	2.73
258.082	-21.85
258.299	27.31
258.515	45.74
258.732	39.59
258.948	58.03
259.165	62.12
259.381	25.26
259.597	33.45
259.814	25.26
260.03	-1.37
260.246	-17.75
260.463	-17.75
260.679	84.65
260.895	-19.8
261.112	12.97
261.328	-44.37
261.544	86.7
261.761	35.5
261.977	-1.37
262.193	-11.61
262.409	23.21
262.626	74.41
262.842	12.97
263.058	-73.04
263.274	-27.99
263.49	72.36
263.707	37.55
263.923	90.79
264.139	-42.32
264.355	-58.71
264.571	41.64
264.787	21.16
265.004	0.68
265.22	2.73
265.436	-21.85
265.652	0.68
265.868	-21.85
266.084	-5.46
266.3	29.35
266.516	-15.7
266.732	62.12
266.948	31.4
267.164	66.22
267.38	86.7
267.596	-36.18
267.812	47.79
268.028	62.12
268.244	29.35
268.46	33.45
268.676	37.55
268.892	45.74
269.108	25.26
269.324	-56.66
269.54	35.5
269.756	64.17
269.972	27.31
270.188	43.69
270.403	-42.32
270.619	-36.18
270.835	58.03
271.051	10.92
271.267	8.87
271.483	-21.85
271.698	45.74
271.914	29.35
272.13	-34.13
272.346	6.83
272.562	-11.61
272.777	53.93
272.993	-3.41
273.209	39.59
273.425	31.4
273.64	-19.8
273.856	55.98
274.072	-17.75
274.287	23.21
274.503	55.98
274.719	96.94
274.934	45.74
275.15	17.07
275.366	0.68
275.581	86.7
275.797	-3.41
276.012	-1.37
276.228	-11.61
276.444	51.88
276.659	33.45
276.875	-3.41
277.09	-36.18
277.306	23.21
277.521	33.45
277.737	72.36
277.952	53.93
278.168	4.78
278.383	4.78
278.599	-7.51
278.814	33.45
279.03	-1.37
279.245	58.03
279.461	45.74
279.676	86.7
279.892	-11.61
280.107	8.87
280.322	4.78
280.538	21.16
280.753	0.68
280.969	55.98
281.184	2.73
281.399	72.36
281.615	10.92
281.83	4.78
282.045	37.55
282.26	0.68
282.476	45.74
282.691	47.79
282.906	72.36
283.122	8.87
283.337	-36.18
283.552	-5.46
283.767	51.88
283.983	-9.56
284.198	-60.76
284.413	37.55
284.628	8.87
284.843	0.68
285.058	55.98
285.274	-21.85
285.489	0.68
285.704	-73.04
285.919	41.64
286.134	-7.51
286.349	53.93
286.564	64.17
286.779	78.51
286.995	41.64
287.21	72.36
287.425	-23.89
287.64	0.68
287.855	25.26
288.07	-11.61
288.285	33.45
288.5	35.5
288.715	78.51
288.93	-19.8
289.145	55.98
289.36	-30.04
289.575	19.11
289.79	15.02
290.004	47.79
290.219	39.59
290.434	23.21
290.649	29.35
290.864	-19.8
291.079	78.51
291.294	41.64
291.509	58.03
291.724	49.83
291.938	0.68
292.153	6.83
292.368	8.87
292.583	74.41
292.798	21.16
293.012	21.16
293.227	4.78
293.442	51.88
293.657	90.79
293.871	41.64
294.086	78.51
294.301	84.65
294.516	-11.61
294.73	82.6
294.945	-7.51
295.16	-11.61
295.374	119.46
295.589	45.74
295.804	-64.85
296.018	-42.32
296.233	58.03
296.447	-27.99
296.662	-19.8
296.877	35.5
297.091	70.31
297.306	62.12
297.52	6.83
297.735	119.46
297.949	53.93
298.164	45.74
298.378	62.12
298.593	29.35
298.807	55.98
299.022	98.99
299.236	58.03
299.451	43.69
299.665	-3.41
299.88	35.5
300.094	4.78
300.309	-17.75
300.523	17.07
300.737	-85.33
300.952	68.27
301.166	72.36
301.381	39.59
301.595	64.17
301.809	-30.04
302.024	47.79
302.238	0.68
302.452	25.26
302.667	17.07
302.881	64.17
303.095	60.07
303.309	-38.23
303.524	53.93
303.738	-1.37
303.952	-40.28
304.166	23.21
304.381	-42.32
304.595	23.21
304.809	12.97
305.023	33.45
305.237	4.78
305.452	74.41
305.666	6.83
305.88	45.74
306.094	103.08
306.308	86.7
306.522	29.35
306.736	23.21
306.95	129.7
307.164	4.78
307.379	31.4
307.593	90.79
307.807	45.74
308.021	25.26
308.235	-3.41
308.449	-11.61
308.663	-9.56
308.877	17.07
309.091	103.08
309.305	-19.8
309.519	0.68
309.733	49.83
309.947	12.97
310.161	37.55
310.374	29.35
310.588	8.87
310.802	49.83
311.016	-1.37
311.23	62.12
311.444	62.12
311.658	37.55
311.872	86.7
312.085	70.31
312.299	12.97
312.513	49.83
312.727	-19.8
312.941	-48.47
313.154	94.89
313.368	62.12
313.582	33.45
313.796	47.79
314.009	96.94
314.223	27.31
314.437	6.83
314.651	23.21
314.864	49.83
315.078	45.74
315.292	15.02
315.505	43.69
315.719	31.4
315.933	12.97
316.146	47.79
316.36	-50.52
316.573	103.08
316.787	45.74
317.001	84.65
317.214	15.02
317.428	27.31
317.641	15.02
317.855	33.45
318.068	12.97
318.282	53.93
318.495	94.89
318.709	62.12
318.922	53.93
319.136	111.27
319.349	55.98
319.563	-34.13
319.776	-19.8
319.99	-23.89
320.203	58.03
320.417	37.55
320.63	39.59
320.843	90.79
321.057	37.55
321.27	96.94
321.483	88.75
321.697	64.17
321.91	-9.56
322.124	37.55
322.337	45.74
322.55	-9.56
322.763	62.12
322.977	-23.89
323.19	25.26
323.403	45.74
323.617	86.7
323.83	84.65
324.043	-66.9
324.256	76.46
324.469	39.59
324.683	4.78
324.896	33.45
325.109	-17.75
325.322	-5.46
325.535	55.98
325.748	80.55
325.962	-9.56
326.175	107.18
326.388	47.79
326.601	37.55
326.814	-11.61
327.027	8.87
327.24	37.55
327.453	58.03
327.666	29.35
327.879	51.88
328.092	45.74
328.305	-13.65
328.518	12.97
328.731	-13.65
328.944	53.93
329.157	58.03
329.37	86.7
329.583	86.7
329.796	109.22
330.009	12.97
330.222	10.92
330.435	78.51
330.648	47.79
330.861	66.22
331.073	49.83
331.286	62.12
331.499	47.79
331.712	12.97
331.925	-36.18
332.138	-3.41
332.35	80.55
332.563	15.02
332.776	8.87
332.989	-25.94
333.202	82.6
333.414	23.21
333.627	-1.37
333.84	-68.95
334.053	58.03
334.265	43.69
334.478	-17.75
334.691	4.78
334.903	17.07
335.116	0.68
335.329	27.31
335.541	72.36
335.754	37.55
335.966	-40.28
336.179	84.65
336.392	29.35
336.604	12.97
336.817	23.21
337.029	78.51
337.242	35.5
337.454	64.17
337.667	-3.41
337.88	37.55
338.092	58.03
338.305	41.64
338.517	31.4
338.729	55.98
338.942	60.07
339.154	53.93
339.367	-3.41
339.579	55.98
339.792	33.45
340.004	58.03
340.217	19.11
340.429	76.46
340.641	45.74
340.854	27.31
341.066	39.59
341.278	-11.61
341.491	78.51
341.703	35.5
341.915	-77.14
342.128	4.78
342.34	70.31
342.552	92.84
342.764	33.45
342.977	123.56
343.189	94.89
343.401	19.11
343.613	12.97
343.826	146.09
344.038	-40.28
344.25	47.79
344.462	-19.8
344.674	-7.51
344.886	4.78
345.099	74.41
345.311	53.93
345.523	98.99
345.735	-25.94
345.947	58.03
346.159	49.83
346.371	62.12
346.583	80.55
346.795	33.45
347.007	45.74
347.219	-17.75
347.431	-3.41
347.643	62.12
347.855	53.93
348.067	148.14
348.279	0.68
348.491	29.35
348.703	82.6
348.915	41.64
349.127	0.68
349.339	-9.56
349.551	-3.41
349.763	37.55
349.975	2.73
350.187	115.37
350.399	37.55
350.61	125.61
350.822	62.12
351.034	64.17
351.246	66.22
351.458	78.51
351.669	-3.41
351.881	129.7
352.093	25.26
352.305	37.55
352.517	64.17
352.728	164.52
352.94	6.83
353.152	51.88
353.363	6.83
353.575	64.17
353.787	35.5
353.999	6.83
354.21	37.55
354.422	74.41
354.633	-56.66
354.845	-40.28
355.057	76.46
355.268	58.03
355.48	17.07
355.692	66.22
355.903	43.69
356.115	-1.37
356.326	-48.47
356.538	88.75
356.749	105.13
356.961	115.37
357.172	19.11
357.384	-58.71
357.595	86.7
357.807	35.5
358.018	25.26
358.23	70.31
358.441	33.45
358.653	21.16
358.864	29.35
359.075	111.27
359.287	53.93
359.498	70.31
359.709	29.35
359.921	2.73
360.132	39.59
360.344	-1.37
360.555	78.51
360.766	78.51
360.977	49.83
361.189	37.55
361.4	2.73
361.611	21.16
361.823	8.87
362.034	39.59
362.245	37.55
362.456	60.07
362.667	55.98
362.879	-19.8
363.09	33.45
363.301	58.03
363.512	12.97
363.723	15.02
363.935	31.4
364.146	23.21
364.357	4.78
364.568	58.03
364.779	8.87
364.99	31.4
365.201	8.87
365.412	107.18
365.623	-105.81
365.834	70.31
366.045	15.02
366.256	4.78
366.467	6.83
366.678	-32.08
366.889	66.22
367.1	70.31
367.311	82.6
367.522	25.26
367.733	-1.37
367.944	15.02
368.155	-9.56
368.366	90.79
368.577	111.27
368.788	15.02
368.999	-44.37
369.209	-25.94
369.42	78.51
369.631	37.55
369.842	76.46
370.053	21.16
370.264	70.31
370.474	45.74
370.685	62.12
370.896	47.79
371.107	31.4
371.317	25.26
371.528	29.35
371.739	58.03
371.95	29.35
372.16	37.55
372.371	6.83
372.582	37.55
372.792	17.07
373.003	6.83
373.214	45.74
373.424	107.18
373.635	31.4
373.846	25.26
374.056	12.97
374.267	82.6
374.477	-17.75
374.688	-3.41
374.898	137.9
375.109	62.12
375.319	64.17
375.53	103.08
375.74	101.03
375.951	86.7
376.161	-52.56
376.372	62.12
376.582	17.07
376.793	-3.41
377.003	27.31
377.214	12.97
377.424	47.79
377.635	98.99
377.845	15.02
378.055	0.68
378.266	-7.51
378.476	-7.51
378.686	31.4
378.897	62.12
379.107	12.97
379.317	90.79
379.528	25.26
379.738	58.03
379.948	49.83
380.158	25.26
380.369	41.64
380.579	31.4
380.789	-11.61
380.999	82.6
381.21	8.87
381.42	55.98
381.63	33.45
381.84	62.12
382.05	15.02
382.261	105.13
382.471	70.31
382.681	8.87
382.891	74.41
383.101	94.89
383.311	37.55
383.521	43.69
383.731	94.89
383.941	25.26
384.151	23.21
384.361	-62.8
384.571	-25.94
384.781	72.36
384.991	113.32
385.201	78.51
385.411	55.98
385.621	39.59
385.831	-25.94
386.041	119.46
386.251	29.35
386.461	94.89
386.671	21.16
386.881	47.79
387.091	37.55
387.301	37.55
387.511	64.17
387.72	33.45
387.93	72.36
388.14	51.88
388.35	70.31
388.56	129.7
388.769	74.41
388.979	72.36
389.189	19.11
389.399	62.12
389.609	94.89
389.818	68.27
390.028	43.69
390.238	70.31
390.447	19.11
390.657	58.03
390.867	78.51
391.076	-58.71
391.286	53.93
391.496	37.55
391.705	21.16
391.915	41.64
392.125	37.55
392.334	31.4
392.544	72.36
392.753	76.46
392.963	17.07
393.172	127.66
393.382	105.13
393.591	129.7
393.801	33.45
394.01	70.31
394.22	53.93
394.429	129.7
394.639	58.03
394.848	107.18
395.058	76.46
395.267	76.46
395.477	146.09
395.686	96.94
395.895	55.98
396.105	90.79
396.314	49.83
396.524	105.13
396.733	37.55
396.942	111.27
397.152	55.98
397.361	80.55
397.57	47.79
397.78	49.83
397.989	66.22
398.198	123.56
398.407	19.11
398.617	94.89
398.826	45.74
399.035	96.94
399.244	17.07
399.453	70.31
399.663	31.4
399.872	84.65
400.081	12.97
400.29	168.62
400.499	41.64
400.708	137.9
400.917	96.94
401.127	107.18
401.336	84.65
401.545	113.32
401.754	144.04
401.963	74.41
402.172	127.66
402.381	33.45
402.59	82.6
402.799	90.79
403.008	123.56
403.217	127.66
403.426	193.19
403.635	31.4
403.844	154.28
404.053	103.08
404.262	64.17
404.471	144.04
404.68	123.56
404.888	70.31
405.097	37.55
405.306	152.23
405.515	107.18
405.724	98.99
405.933	176.81
406.142	84.65
406.35	156.33
406.559	123.56
406.768	185
406.977	131.75
407.185	53.93
407.394	139.94
407.603	185
407.812	195.24
408.02	131.75
408.229	197.29
408.438	127.66
408.646	180.9
408.855	144.04
409.064	197.29
409.272	197.29
409.481	266.92
409.69	107.18
409.898	193.19
410.107	213.67
410.315	166.57
410.524	260.77
410.733	307.88
410.941	217.77
411.15	293.54
411.358	246.44
411.567	387.75
411.775	320.17
411.984	381.6
412.192	332.45
412.401	318.12
412.609	350.89
412.818	400.04
413.026	441
413.234	379.56
413.443	354.98
413.651	354.98
413.86	438.95
414.068	432.8
414.276	467.62
414.485	496.29
414.693	428.71
414.901	547.49
415.11	506.53
415.318	527.01
415.526	514.72
415.734	553.63
415.943	539.3
416.151	592.55
416.359	574.11
416.567	559.78
416.776	570.02
416.984	744.1
417.192	668.32
417.4	701.09
417.608	754.34
417.817	770.72
418.025	842.4
418.233	969.37
418.441	819.87
418.649	897.69
418.857	1041.05
419.065	967.32
419.273	981.66
419.481	983.71
419.689	1045.15
419.897	1053.34
420.105	1129.11
420.313	1153.69
420.521	1219.22
420.729	1184.41
420.937	1282.71
421.145	1350.29
421.353	1360.53
421.561	1516.18
421.769	1446.55
421.977	1573.52
422.185	1507.99
422.393	1589.91
422.601	1659.54
422.809	1690.26
423.017	1725.07
423.224	1774.22
423.432	1880.72
423.64	1993.36
423.848	2069.13
424.056	1956.49
424.263	2120.33
424.471	2085.51
424.679	2183.82
424.887	2282.12
425.094	2351.75
425.302	2396.81
425.51	2554.5
425.718	2515.59
425.925	2441.86
426.133	2660.99
426.341	2773.63
426.548	2890.37
426.756	2888.32
426.964	2990.72
427.171	3086.97
427.379	3144.31
427.586	3310.2
427.794	3306.1
428.001	3609.2
428.209	3652.21
428.417	3590.77
428.624	3863.15
428.832	3854.96
429.039	3742.32
429.247	3883.63
429.454	4211.31
429.662	4522.6
429.869	4194.92
430.076	4500.07
430.284	4422.25
430.491	4606.56
430.699	4856.42
430.906	4903.52
431.114	4864.61
431.321	5005.92
431.528	5227.1
431.736	5421.66
431.943	5804.63
432.15	5577.3
432.358	5556.82
432.565	5857.87
432.772	5886.54
432.979	6326.86
433.187	6263.37
433.394	6312.52
433.601	6924.86
433.808	6679.11
434.016	6599.24
434.223	6877.76
434.43	7176.77
434.637	7354.94
434.844	7715.38
435.052	8038.96
435.259	7797.3
435.466	7805.49
435.673	7815.73
435.88	8421.93
436.087	8796.71
436.294	8794.66
436.501	8497.7
436.708	8657.45
436.915	8993.31
437.122	9409.05
437.329	9296.41
437.537	9486.87
437.743	9720.34
437.95	9681.43
438.157	10172.94
438.364	10562.06
438.571	10418.7
438.778	10580.49
438.985	11596.28
439.192	11127.3
439.399	11231.74
439.606	11297.28
439.813	11956.72
440.02	12634.6
440.227	12325.36
440.433	12087.79
440.64	12763.62
440.847	12442.09
441.054	12823.01
441.261	13830.62
441.467	13717.98
441.674	13869.53
441.881	14346.7
442.088	14363.09
442.294	14191.06
442.501	14545.36
442.708	14528.97
442.914	15446.46
443.121	16069.05
443.328	15577.53
443.534	16851.37
443.741	16294.32
443.948	16093.62
444.154	17103.27
444.361	17027.49
444.568	17060.26
444.774	17387.94
444.981	17383.84
445.187	17748.38
445.394	18768.27
445.6	18061.72
445.807	20017.53
446.013	18909.58
446.22	19485.06
446.426	20435.31
446.633	20337.01
446.839	21328.23
447.046	20410.74
447.252	21578.08
447.459	21449.06
447.665	21381.48
447.871	22421.84
448.078	23413.06
448.284	22311.25
448.491	22708.56
448.697	23613.76
448.903	24277.3
449.11	24496.44
449.316	23687.49
449.522	24430.9
449.728	24764.72
449.935	25090.35
450.141	25252.14
450.347	25825.57
450.553	25049.39
450.76	25272.62
450.966	26032.41
451.172	25778.47
451.378	26155.29
451.584	25809.18
451.791	26499.35
451.997	26210.59
452.203	26655
452.409	26976.53
452.615	26587.41
452.821	25674.02
453.027	25575.72
453.233	27341.07
453.44	26126.62
453.646	26333.46
453.852	26749.2
454.058	26945.81
454.264	26122.52
454.47	26407.19
454.676	25874.72
454.882	26798.35
455.088	24490.29
455.294	24807.73
455.5	25348.39
455.705	25880.86
455.911	24643.89
456.117	24246.58
456.323	23456.07
456.529	22624.59
456.735	23742.78
456.941	23052.62
457.147	22645.07
457.352	21991.77
457.558	21438.82
457.764	21870.94
457.97	21420.39
458.176	20834.67
458.381	20857.2
458.587	19773.82
458.793	19802.49
458.999	18852.24
459.204	20224.37
459.41	19777.92
459.616	18397.59
459.821	18336.15
460.027	18383.25
460.233	18078.1
460.438	17322.4
460.644	17308.07
460.85	16378.29
461.055	16359.86
461.261	16032.18
461.466	14787.02
461.672	14475.73
461.878	15784.38
462.083	14537.16
462.289	14158.29
462.494	14240.21
462.7	13554.14
462.905	13183.46
463.111	13793.75
463.316	13853.14
463.522	13318.62
463.727	13423.07
463.932	13232.61
464.138	13279.71
464.343	13302.24
464.549	12868.07
464.754	13441.5
464.959	13210.08
465.165	13103.59
465.37	12562.92
465.575	12225.01
465.781	12773.86
465.986	12851.69
466.191	12325.36
466.397	12034.55
466.602	11344.38
466.807	11819.51
467.012	11977.2
467.218	11688.44
467.423	11891.19
467.628	11608.57
467.833	12231.15
468.038	11647.48
468.244	11475.45
468.449	11866.61
468.654	11328
468.859	11565.56
469.064	11284.99
469.269	10867.2
469.474	10967.56
469.679	11088.39
469.885	10885.64
470.09	10924.55
470.295	10959.36
470.5	10680.84
470.705	10842.63
470.91	10428.94
471.115	10496.52
471.32	10637.83
471.525	10664.46
471.73	10234.38
471.935	10281.49
472.139	9769.49
472.344	10011.15
472.549	9927.19
472.754	10134.03
472.959	9646.62
473.164	9630.23
473.369	9509.4
473.574	9714.2
473.778	9495.07
473.983	9531.93
474.188	9521.69
474.393	8970.79
474.598	9054.75
474.802	8999.46
475.007	9087.52
475.212	8944.16
475.417	8682.02
475.621	8399.4
475.826	8888.87
476.031	8346.16
476.235	8395.31
476.44	8499.75
476.645	8208.94
476.849	8331.82
477.054	8352.3
477.259	8118.83
477.463	8208.94
477.668	7658.04
477.872	8016.43
478.077	7752.24
478.282	7772.72
478.486	7590.45
478.691	7551.54
478.895	7494.2
479.1	7422.52
479.304	7629.37
479.509	7146.05
479.713	7254.59
479.918	7074.37
480.122	7070.27
480.326	7119.42
480.531	7039.55
480.735	7113.28
480.94	7055.93
481.144	7311.93
481.348	6941.25
481.553	7039.55
481.757	6965.82
481.961	7012.93
482.166	7043.65
482.37	7074.37
482.574	6726.21
482.778	6812.23
482.983	7082.56
483.187	6986.3
483.391	6873.67
483.595	6885.95
483.8	6863.43
484.004	6912.58
484.208	6855.23
484.412	6767.17
484.616	6797.89
484.821	7004.74
485.025	6828.61
485.229	6990.4
485.433	6773.32
485.637	6793.8
485.841	6916.67
486.045	6818.37
486.249	6980.16
486.453	6842.95
486.657	6773.32
486.861	6812.23
487.065	6705.73
487.269	6771.27
487.473	6793.8
487.677	6834.75
487.881	6881.86
488.085	6754.88
488.289	6844.99
488.493	6787.65
488.697	6967.87
488.901	6888
489.105	6820.42
489.309	6957.63
489.512	7148.09
489.716	6965.82
489.92	7031.36
490.124	7105.09
490.328	7148.09
490.531	6844.99
490.735	6906.43
490.939	7205.44
491.143	7115.33
491.346	6888
491.55	7125.57
491.754	7051.84
491.958	7273.02
492.161	7240.25
492.365	7246.4
492.569	7160.38
492.772	7193.15
492.976	7406.14
493.18	7346.75
493.383	7338.55
493.587	7533.11
493.79	7666.23
493.994	7338.55
494.197	7557.69
494.401	7471.67
494.605	7643.7
494.808	7721.52
495.012	7690.81
495.215	7690.81
495.419	7860.79
495.622	7551.54
495.825	8000.05
496.029	7989.81
496.232	8174.13
496.436	8086.06
496.639	8180.27
496.843	8286.76
497.046	8360.49
497.249	8610.34
497.453	8487.47
497.656	8665.64
497.859	8720.93
498.063	8466.99
498.266	8903.2
498.469	8909.35
498.673	8960.55
498.876	9163.29
499.079	9075.23
499.282	9187.87
499.485	9237.02
499.689	9368.09
499.892	9622.04
500.095	9613.85
500.298	9663
500.501	9671.19
500.705	9804.31
500.908	10013.2
501.111	10082.83
501.314	10310.16
501.517	10244.62
501.72	10459.66
501.923	10461.71
502.126	10967.56
502.329	10902.02
502.532	10744.33
502.735	11121.15
502.938	11196.93
503.141	11223.55
503.344	11391.48
503.547	11559.42
503.75	11565.56
503.953	11883
504.156	11776.5
504.359	12091.89
504.562	12202.48
504.765	12290.54
504.968	12325.36
505.17	12607.98
505.373	12325.36
505.576	12759.53
505.779	12835.3
505.982	12878.31
506.185	13212.13
506.387	13134.31
506.59	13230.56
506.793	13548
506.996	13515.23
507.198	13760.98
507.401	13736.41
507.604	14184.91
507.807	14313.94
508.009	14129.62
508.212	14526.92
508.415	14723.53
508.617	14830.02
508.82	14733.77
509.022	14612.94
509.225	15487.42
509.428	14963.14
509.63	15317.44
509.833	15460.8
510.035	15874.49
510.238	15806.91
510.44	16099.76
510.643	16370.1
510.845	16460.21
511.048	16601.52
511.25	16671.15
511.453	16777.64
511.655	17412.51
511.858	17189.28
512.06	17394.08
512.262	17699.23
512.465	17588.64
512.667	17705.37
512.87	17893.79
513.072	17938.84
513.274	18203.03
513.477	18276.76
513.679	18542.99
513.881	18807.18
514.084	19065.22
514.286	19161.48
514.488	19116.42
514.69	19448.19
514.893	19829.12
515.095	19626.37
515.297	20130.17
515.499	19962.23
515.701	20472.18
515.904	20384.12
516.106	20762.99
516.308	21105
516.51	20869.48
516.712	21035.37
516.914	21471.59
517.116	21862.75
517.318	21549.41
517.52	21920.09
517.722	21971.29
517.925	22272.34
518.127	22657.36
518.329	22745.42
518.531	22620.5
518.733	23077.19
518.935	23175.5
519.136	23116.11
519.338	23476.55
519.54	23572.8
519.742	23947.58
519.944	23957.82
520.146	24461.62
520.348	24451.38
520.55	24723.76
520.752	24842.54
520.954	25440.55
521.155	24832.3
521.357	25592.1
521.559	25512.23
521.761	25938.21
521.963	25891.1
522.164	25839.9
522.366	26327.32
522.568	26284.31
522.77	26554.65
522.971	26736.91
523.173	26427.67
523.375	26777.87
523.576	27017.49
523.778	27279.63
523.98	27457.8
524.181	27486.47
524.383	27980.03
524.584	27873.54
524.786	27975.94
524.988	27953.41
525.189	28455.16
525.391	28350.71
525.592	28578.04
525.794	28967.15
525.995	28670.2
526.197	28754.16
526.398	29067.5
526.6	28883.19
526.801	28920.05
527.003	29559.02
527.204	29450.47
527.406	29501.67
527.607	29395.18
527.808	29855.97
528.01	29399.27
528.211	29821.16
528.412	30222.56
528.614	29911.27
528.815	30462.17
529.016	30533.85
529.218	30042.34
529.419	30456.03
529.62	30453.98
529.822	30464.22
530.023	30632.15
530.224	30460.12
530.425	30603.48
530.626	30345.44
530.828	30308.57
531.029	31027.41
531.23	30550.23
531.431	30462.17
531.632	31021.27
531.833	31119.57
532.035	31289.55
532.236	30949.59
532.437	31207.63
532.638	30703.83
532.839	31269.07
533.04	31627.46
533.241	30804.18
533.442	31559.88
533.643	31350.99
533.844	31291.6
534.045	31213.77
534.246	30963.92
534.447	31441.1
534.648	31252.69
534.849	31203.53
535.05	31240.4
535.251	31299.79
535.451	30902.48
535.652	31336.65
535.853	30898.39
536.054	31656.14
536.255	31301.84
536.456	31097.04
536.657	31525.07
536.857	31062.22
537.058	31334.6
537.259	31647.94
537.46	31498.44
537.66	31303.88
537.861	31240.4
538.062	31281.36
538.263	31514.83
538.463	31146.19
538.664	31371.47
538.865	31070.42
539.065	31422.67
539.266	31023.31
539.466	31594.7
539.667	30972.11
539.868	31267.02
540.068	30994.64
540.269	31119.57
540.469	31287.5
540.67	30914.77
540.87	31305.93
541.071	31164.62
541.271	31600.84
541.472	30871.76
541.672	31019.22
541.873	31025.36
542.073	30769.37
542.274	31357.13
542.474	31340.75
542.675	30767.32
542.875	31140.05
543.075	31000.79
543.276	30720.21
543.476	30970.07
543.676	31097.04
543.877	31285.45
544.077	31006.93
544.277	31101.14
544.478	31236.3
544.678	31029.46
544.878	30908.63
545.078	31326.41
545.279	31101.14
545.479	30765.27
545.679	30671.06
545.879	30984.4
546.079	31021.27
546.28	30841.04
546.48	30791.89
546.68	30918.87
546.88	31140.05
547.08	30904.53
547.28	30832.85
547.48	30521.56
547.68	30820.56
547.88	30613.72
548.081	30978.26
548.281	30955.73
548.481	30867.67
548.681	31166.67
548.881	30976.21
549.081	30918.87
549.28	30720.21
549.48	31023.31
549.68	30339.29
549.88	30861.52
550.08	30642.39
550.28	30703.83
550.48	30781.65
550.68	30992.59
550.88	30580.95
551.08	31002.83
551.279	30777.56
551.479	30529.75
551.679	30843.09
551.879	30302.43
552.079	30525.66
552.278	30761.17
552.478	30578.9
552.678	30892.24
552.878	30636.25
553.077	30021.86
553.277	29898.98
553.477	30994.64
553.676	30511.32
553.876	30189.79
554.076	30490.84
554.275	30349.53
554.475	29913.31
554.674	30451.93
554.874	30734.55
555.074	30439.64
555.273	30257.37
555.473	30648.53
555.672	30044.38
555.872	30265.56
556.071	30099.68
556.271	30218.46
556.47	30400.73
556.67	29941.99
556.869	30396.63
557.068	30023.9
557.268	29692.13
557.467	30136.54
557.667	30081.25
557.866	30517.46
558.065	29772
558.265	29720.81
558.464	29593.83
558.663	30028
558.863	29825.25
559.062	30152.93
559.261	29448.43
559.461	29886.69
559.66	29589.74
559.859	29935.84
560.058	29591.78
560.258	29440.23
560.457	29190.38
560.656	29827.3
560.855	29380.84
561.054	29419.75
561.253	29137.13
561.453	29292.78
561.652	29184.24
561.851	29290.73
562.05	29055.22
562.249	28963.06
562.448	29362.41
562.647	29079.79
562.846	28852.47
563.045	29280.49
563.244	28897.52
563.443	29010.16
563.642	28641.53
563.841	28838.13
564.04	28532.98
564.239	29114.61
564.438	28319.99
564.637	28756.21
564.836	28696.82
565.035	28412.15
565.234	28758.26
565.432	28238.08
565.631	28649.72
565.83	28426.49
566.029	28199.16
566.228	28123.39
566.427	28102.91
566.625	28170.49
566.824	27676.93
567.023	28207.36
567.222	27502.85
567.42	28109.05
567.619	27814.15
567.818	27668.74
568.016	27646.21
568.215	27963.65
568.414	27672.84
568.612	27635.97
568.811	27576.58
569.01	27597.06
569.208	27175.18
569.407	27562.25
569.605	26876.18
569.804	27386.12
570.002	27318.54
570.201	26964.24
570.4	27148.56
570.598	27123.98
570.797	26857.74
570.995	27175.18
571.193	26679.57
571.392	27355.4
571.59	26534.17
571.789	26614.04
571.987	26806.55
572.186	26480.92
572.384	26476.82
572.582	26466.58
572.781	26671.38
572.979	26226.97
573.177	26474.77
573.376	26548.5
573.574	26337.56
573.772	26474.77
573.971	26083.61
574.169	25848.1
574.367	25948.45
574.565	25856.29
574.763	25827.62
574.962	25532.71
575.16	25577.76
575.358	25723.17
575.556	25391.4
575.754	26138.91
575.952	25346.34
576.151	25389.35
576.349	25235.75
576.547	25116.97
576.745	25221.42
576.943	25264.43
577.141	25159.98
577.339	25153.83
577.537	24760.62
577.735	24858.93
577.933	24711.47
578.131	24875.31
578.329	24760.62
578.527	24451.38
578.725	24588.6
578.923	24709.43
579.121	24676.66
579.319	24541.49
579.516	24676.66
579.714	24502.58
579.912	23978.3
580.11	24176.95
580.308	24471.86
580.506	24543.54
580.704	23757.12
580.901	24088.89
581.099	24101.18
581.297	23664.96
581.495	23869.76
581.692	23988.54
581.89	23755.07
582.088	23841.09
582.285	23750.98
582.483	23814.46
582.681	23400.77
582.878	23542.08
583.076	23327.05
583.274	23595.33
583.471	23083.34
583.669	23116.11
583.866	23163.21
584.064	23157.07
584.262	23046.47
584.459	23408.97
584.657	23144.78
584.854	23155.02
585.052	22770
585.249	22888.78
585.447	22946.12
585.644	22536.53
585.841	22526.29
586.039	22585.68
586.236	22413.65
586.434	22288.73
586.631	22278.49
586.828	22468.95
587.026	22434.13
587.223	22454.61
587.42	22245.72
587.618	22151.51
587.815	21922.14
588.012	21985.63
588.21	21918.04
588.407	22012.25
588.604	21809.5
588.801	21672.29
588.999	21680.48
589.196	21780.83
589.393	21600.61
589.59	21545.31
589.787	21162.34
589.984	21313.89
590.182	21205.35
590.379	21307.75
590.576	21098.86
590.773	21199.21
590.97	21072.23
591.167	21430.63
591.364	20801.9
591.561	20871.53
591.758	20916.59
591.955	20732.27
592.152	20916.59
592.349	20410.74
592.546	20863.34
592.743	20640.11
592.94	20251
593.137	20367.73
593.334	20611.44
593.531	20175.22
593.727	20390.26
593.924	20369.78
594.121	20124.02
594.318	20244.85
594.515	19868.03
594.712	19984.76
594.908	19657.09
595.105	20050.3
595.302	19765.63
595.499	20158.84
595.696	19671.42
595.892	19681.66
596.089	19777.92
596.286	19579.26
596.482	19564.93
596.679	19405.19
596.876	19507.58
597.072	19485.06
597.269	19544.45
597.466	19206.53
597.662	19265.92
597.859	19337.6
598.055	19364.23
598.252	18901.39
598.448	19052.94
598.645	18932.11
598.841	18878.86
599.038	18614.67
599.234	18823.56
599.431	18753.93
599.627	18524.56
599.824	18696.59
600.02	18649.49
600.217	18448.79
600.413	18436.5
600.609	18428.31
600.806	18346.39
601.002	18719.12
601.198	18235.8
601.395	18055.58
601.591	18110.87
601.787	18067.86
601.984	18063.77
602.18	18149.78
602.376	17965.46
602.572	17772.96
602.769	17596.83
602.965	17535.39
603.161	17766.81
603.357	17715.61
603.553	17504.67
603.75	17611.17
603.946	17566.11
604.142	17627.55
604.338	17166.76
604.534	17422.75
604.73	16980.39
604.926	16943.53
605.122	17387.94
605.318	17414.56
605.514	16980.39
605.71	17045.93
605.906	16728.49
606.102	17068.45
606.298	16994.73
606.494	17019.3
606.69	16691.63
606.886	16898.47
607.082	16509.36
607.278	16894.38
607.474	16515.5
607.67	16591.28
607.866	16531.89
608.062	16611.76
608.257	16546.22
608.453	16628.14
608.649	16581.04
608.845	16161.2
609.041	16294.32
609.236	16583.09
609.432	16257.46
609.628	16343.47
609.824	16198.07
610.019	16013.75
610.215	16073.14
610.411	15987.13
610.606	15993.27
610.802	16189.88
610.998	15847.86
611.193	15974.84
611.389	15995.32
611.584	15980.98
611.78	15587.77
611.976	15835.58
612.171	15958.46
612.367	15831.48
612.562	15665.6
612.758	15585.72
612.953	15567.29
613.149	15987.13
613.344	15444.41
613.539	15888.82
613.735	15802.81
613.93	15546.81
614.126	15552.96
614.321	15614.4
614.517	15563.2
614.712	15581.63
614.907	15464.89
615.103	15331.78
615.298	15301.06
615.493	15512
615.688	15481.28
615.884	15385.02
616.079	15299.01
616.274	15421.89
616.47	15262.15
616.665	15329.73
616.86	15159.75
617.055	15198.66
617.25	15057.35
617.445	15190.47
617.641	14637.52
617.836	15055.3
618.031	14985.67
618.226	14963.14
618.421	14756.3
618.616	14797.26
618.811	14535.12
619.006	14916.04
619.201	14391.76
619.396	14717.39
619.591	14348.75
619.786	14567.88
619.981	14303.7
620.176	14746.06
620.371	14559.69
620.566	14252.5
620.761	14250.45
620.956	14195.15
621.151	14328.27
621.346	14320.08
621.541	13732.31
621.735	13933.01
621.93	13750.74
622.125	13826.52
622.32	13699.55
622.515	13644.25
622.709	13562.33
622.904	13679.07
623.099	13134.31
623.294	13402.59
623.488	13259.23
623.683	13357.53
623.878	13097.44
624.072	13185.51
624.267	13083.11
624.462	13052.39
624.656	12585.45
624.851	12884.45
625.046	12743.14
625.24	12825.06
625.435	12665.32
625.629	12507.63
625.824	12464.62
626.018	12374.51
626.213	12243.44
626.407	12263.92
626.602	12208.62
626.796	12399.09
626.991	12130.8
627.185	12210.67
627.38	11872.76
627.574	11819.51
627.768	11782.65
627.963	11803.13
628.157	11784.69
628.352	11745.78
628.546	11465.21
628.74	11555.32
628.935	11334.14
629.129	11432.44
629.323	11338.24
629.517	11295.23
629.712	11399.68
629.906	11278.85
630.1	10992.13
630.294	11047.43
630.489	11252.22
630.683	11186.69
630.877	10789.38
631.071	10609.16
631.265	10885.64
631.459	10830.34
631.653	10736.13
631.848	10756.61
632.042	10484.23
632.236	10658.31
632.43	10418.7
632.624	10555.91
632.818	10416.65
633.012	10342.92
633.206	10252.81
633.4	10191.38
633.594	10021.39
633.788	10095.12
633.982	10056.21
634.176	9839.12
634.369	10056.21
634.563	9828.88
634.757	9787.93
634.951	9919
635.145	9663
635.339	9669.14
635.533	9671.19
635.726	9630.23
635.92	9628.18
636.114	9589.27
636.308	9585.18
636.501	9593.37
636.695	9245.21
636.889	9331.23
637.083	9310.75
637.276	9302.56
637.47	9204.25
637.664	9230.88
637.857	9218.59
638.051	9095.71
638.244	8919.59
638.438	8811.04
638.632	8948.26
638.825	8704.55
639.019	8858.15
639.212	8786.47
639.406	8688.17
639.599	8802.85
639.793	8819.24
639.986	8722.98
640.18	8526.38
640.373	8606.25
640.567	8380.97
640.76	8284.72
640.954	8458.79
641.147	8499.75
641.34	8254
641.534	8190.51
641.727	8237.61
641.92	8131.12
642.114	8028.72
642.307	8278.57
642.5	8163.89
642.694	7938.61
642.887	7819.83
643.08	8079.92
643.273	7852.59
643.467	7954.99
643.66	7897.65
643.853	7791.16
644.046	7715.38
644.239	7684.66
644.432	7619.13
644.626	7526.97
644.819	7486.01
645.012	7635.51
645.205	7592.5
645.398	7496.25
645.591	7301.69
645.784	7275.07
645.977	7320.12
646.17	7346.75
646.363	7230.01
646.556	7139.9
646.749	7156.29
646.942	7234.11
647.135	7297.6
647.328	7053.89
647.521	6953.54
647.714	7049.79
647.907	6978.11
648.099	6986.3
648.292	6926.91
648.485	6877.76
648.678	6736.45
648.871	6869.57
649.064	6623.81
649.256	6742.6
649.449	6705.73
649.642	6728.26
649.835	6517.32
650.027	6640.2
650.22	6521.42
650.413	6279.75
650.605	6505.03
650.798	6568.52
650.991	6408.78
651.183	6443.59
651.376	6355.53
651.568	6388.3
651.761	6210.12
651.954	6150.73
652.146	6181.45
652.339	6152.78
652.531	6120.01
652.724	6230.6
652.916	6081.1
653.109	5986.9
653.301	6046.29
653.494	6062.67
653.686	5915.22
653.879	6165.07
654.071	5937.74
654.263	5788.24
654.456	5902.93
654.648	5775.95
654.84	5804.63
655.033	5665.36
655.225	5712.47
655.417	5726.8
655.61	5655.12
655.802	5603.93
655.994	5634.64
656.186	5640.79
656.379	5708.37
656.571	5587.54
656.763	5485.14
656.955	5542.49
657.148	5349.98
657.34	5485.14
657.532	5403.22
657.724	5345.88
657.916	5192.28
658.108	5255.77
658.3	5235.29
658.492	5266.01
658.684	5134.94
658.876	5075.55
659.068	5288.54
659.26	5116.51
659.452	5120.6
659.644	5110.36
659.836	5126.75
660.028	5141.08
660.22	4831.84
660.412	5053.02
660.604	4952.67
660.796	4915.81
660.988	5038.69
661.18	4928.1
661.372	4993.63
661.563	4866.66
661.755	4715.11
661.947	4799.07
662.139	4711.01
662.331	4698.72
662.522	4598.37
662.714	4641.38
662.906	4690.53
663.097	4772.45
663.289	4674.15
663.481	4627.04
663.673	4645.48
663.864	4459.11
664.056	4493.93
664.247	4559.46
664.439	4428.39
664.631	4430.44
664.822	4461.16
665.014	4526.69
665.205	4424.3
665.397	4399.72
665.588	4387.43
665.78	4315.75
665.971	4305.51
666.163	4364.9
666.354	4242.03
666.546	4205.16
666.737	4293.23
666.929	4248.17
667.12	4211.31
667.311	4203.11
667.503	3988.08
667.694	4196.97
667.885	4063.85
668.077	4125.29
668.268	4059.76
668.459	4010.61
668.651	4100.72
668.842	3973.74
669.033	3889.78
669.224	3975.79
669.416	4074.09
669.607	3945.07
669.798	4018.8
669.989	4002.41
670.18	4037.23
670.371	3932.78
670.563	3713.65
670.754	3824.24
670.945	3832.43
671.136	3889.78
671.327	3713.65
671.518	3859.06
671.709	3760.75
671.9	3789.42
672.091	3678.83
672.282	3748.47
672.473	3641.97
672.664	3641.97
672.855	3494.52
673.046	3510.9
673.237	3705.46
673.428	3676.79
673.619	3580.53
673.809	3674.74
674	3684.98
674.191	3603.06
674.382	3418.74
674.573	3549.81
674.764	3480.18
674.954	3545.72
675.145	3476.09
675.336	3420.79
675.527	3455.61
675.717	3424.89
675.908	3306.1
676.099	3357.3
676.289	3422.84
676.48	3388.02
676.671	3277.43
676.861	3256.95
677.052	3330.68
677.243	3326.58
677.433	3388.02
677.624	3330.68
677.814	3175.03
678.005	3261.05
678.195	3367.54
678.386	3170.94
678.576	3318.39
678.767	3015.29
678.957	3195.51
679.148	3177.08
679.338	3306.1
679.529	3148.41
679.719	3242.62
679.909	3228.28
680.1	3287.67
680.29	3138.17
680.481	3011.2
680.671	3279.48
680.861	3175.03
681.052	3177.08
681.242	2994.81
681.432	2982.53
681.622	3103.36
681.813	2937.47
682.003	3007.1
682.193	2919.04
682.383	3052.16
682.573	2988.67
682.764	2925.18
682.954	3175.03
683.144	2968.19
683.334	3035.77
683.524	2921.09
683.714	2970.24
683.904	2937.47
684.094	2890.37
684.284	2798.21
684.474	2898.56
684.664	2941.57
684.854	2882.17
685.044	2861.69
685.234	2814.59
685.424	2886.27
685.614	2781.82
685.804	2816.64
685.994	2886.27
686.184	2896.51
686.374	2865.79
686.564	2726.53
686.753	2759.3
686.943	2785.92
687.133	2691.71
687.323	2667.14
687.513	2767.49
687.702	2732.67
687.892	2671.23
688.082	2648.71
688.272	2679.43
688.461	2728.58
688.651	2751.1
688.841	2830.98
689.03	2607.75
689.22	2568.84
689.41	2693.76
689.599	2601.6
689.789	2663.04
689.979	2613.89
690.168	2634.37
690.358	2544.26
690.547	2536.07
690.737	2597.51
690.926	2622.08
691.116	2548.36
691.305	2546.31
691.495	2587.27
691.684	2497.16
691.874	2421.38
692.063	2570.88
692.252	2544.26
692.442	2400.9
692.631	2380.42
692.82	2441.86
693.01	2529.92
693.199	2405
693.388	2337.41
693.578	2378.37
693.767	2333.32
693.956	2333.32
694.146	2347.65
694.335	2421.38
694.524	2259.59
694.713	2388.61
694.902	2275.98
695.092	2445.96
695.281	2265.74
695.47	2265.74
695.659	2189.96
695.848	2284.17
696.037	2282.12
696.226	2243.21
696.415	2241.16
696.604	2224.78
696.793	2157.19
696.982	2300.55
697.171	2218.63
697.36	2239.11
697.549	2292.36
697.738	2235.02
697.927	2314.89
698.116	2155.15
698.305	2241.16
698.494	2163.34
698.683	2138.76
698.872	2200.2
699.061	2155.15
699.25	2171.53
699.438	2093.71
699.627	2220.68
699.816	2273.93
700.005	2165.39
700.193	2099.85
700.382	2187.91
700.571	2099.85
700.76	2187.91
700.948	2157.19
701.137	2103.95
701.326	2056.84
701.514	2071.18
701.703	2200.2
701.892	2044.56
702.08	2298.5
702.269	2132.62
702.457	2077.32
702.646	2134.67
702.834	2062.99
703.023	2142.86
703.212	2060.94
703.4	2110.09
703.589	2032.27
703.777	2097.8
703.965	2003.6
704.154	2085.51
704.342	2077.32
704.531	2089.61
704.719	2046.6
704.907	2130.57
705.096	2048.65
705.284	2065.04
705.472	2046.6
705.661	2128.52
705.849	2050.7
706.037	2110.09
706.226	1985.16
706.414	1995.4
706.602	1960.59
706.79	2146.95
706.979	1979.02
707.167	2030.22
707.355	1974.92
707.543	2024.08
707.731	2101.9
707.919	1999.5
708.107	1958.54
708.296	2034.32
708.484	1995.4
708.672	2036.36
708.86	1962.64
709.048	1995.4
709.236	2011.79
709.424	2204.3
709.612	2001.55
709.8	1940.11
709.988	1890.96
710.176	1991.31
710.364	2013.84
710.551	2030.22
710.739	1985.16
710.927	1979.02
711.115	1911.44
711.303	1905.29
711.491	1966.73
711.679	1985.16
711.866	1983.12
712.054	1917.58
712.242	1938.06
712.43	1888.91
712.617	1866.38
712.805	1925.77
712.993	1995.4
713.181	1858.19
713.368	1921.68
713.556	1944.2
713.744	1917.58
713.931	1972.88
714.119	1954.44
714.306	1893.01
714.494	1827.47
714.682	1968.78
714.869	1901.2
715.057	1862.29
715.244	1950.35
715.432	1936.01
715.619	1895.05
715.807	1960.59
715.994	1823.37
716.182	1897.1
716.369	1741.46
716.556	2069.13
716.744	1823.37
716.931	1919.63
717.119	1925.77
717.306	1897.1
717.493	1915.53
717.681	1970.83
717.868	1942.16
718.055	1884.81
718.242	1933.97
718.43	1946.25
718.617	1942.16
718.804	1929.87
718.991	1915.53
719.179	1893.01
719.366	1946.25
719.553	1856.14
719.74	1909.39
719.927	1821.33
720.114	1815.18
720.301	1749.65
720.488	1870.48
720.676	1919.63
720.863	1847.95
721.05	1809.04
721.237	1868.43
721.424	1909.39
721.611	1890.96
721.798	1841.81
721.985	1856.14
722.172	1837.71
722.358	1872.53
722.545	1835.66
722.732	1823.37
722.919	1870.48
723.106	1788.56
723.293	1796.75
723.48	1876.62
723.667	1874.57
723.853	1893.01
724.04	1847.95
724.227	1847.95
724.414	1714.83
724.6	1880.72
724.787	1729.17
724.974	1893.01
725.161	1696.4
725.347	1802.9
725.534	1780.37
725.72	1729.17
725.907	1839.76
726.094	1786.51
726.28	1696.4
726.467	1772.18
726.653	1749.65
726.84	1886.86
727.027	1876.62
727.213	1696.4
727.4	1776.27
727.586	1802.9
727.773	1778.32
727.959	1876.62
728.145	1745.55
728.332	1702.54
728.518	1753.74
728.705	1929.87
728.891	1772.18
729.077	1782.42
729.264	1860.24
729.45	1753.74
729.636	1897.1
729.823	1749.65
730.009	1847.95
730.195	1669.78
730.382	1809.04
730.568	1696.4
730.754	1733.26
730.94	1751.7
731.126	1731.22
731.313	1776.27
731.499	1731.22
731.685	1751.7
731.871	1794.7
732.057	1786.51
732.243	1852.05
732.429	1741.46
732.615	1792.66
732.801	1798.8
732.987	1731.22
733.173	1798.8
733.359	1725.07
733.545	1661.59
733.731	1690.26
733.917	1626.77
734.103	1743.5
734.289	1694.35
734.475	1757.84
734.661	1792.66
734.847	1798.8
735.033	1692.3
735.219	1852.05
735.404	1702.54
735.59	1763.98
735.776	1673.87
735.962	1743.5
736.148	1675.92
736.333	1661.59
736.519	1725.07
736.705	1731.22
736.89	1708.69
737.076	1667.73
737.262	1659.54
737.447	1675.92
737.633	1579.67
737.819	1729.17
738.004	1647.25
738.19	1637.01
738.375	1675.92
738.561	1727.12
738.747	1651.35
738.932	1495.7
739.118	1686.16
739.303	1583.76
739.489	1729.17
739.674	1622.67
739.859	1653.39
740.045	1587.86
740.23	1561.23
740.416	1608.34
740.601	1585.81
740.786	1639.06
740.972	1612.43
741.157	1645.2
741.342	1585.81
741.528	1499.8
741.713	1667.73
741.898	1680.02
742.084	1606.29
742.269	1497.75
742.454	1606.29
742.639	1663.63
742.824	1501.84
743.01	1536.66
743.195	1639.06
743.38	1544.85
743.565	1544.85
743.75	1522.32
743.935	1442.45
744.12	1473.17
744.305	1440.4
744.49	1481.36
744.675	1530.52
744.86	1495.7
745.045	1495.7
745.23	1438.36
745.415	1434.26
745.6	1421.97
745.785	1397.4
745.97	1479.32
746.155	1364.63
746.34	1366.68
746.525	1311.38
746.71	1438.36
746.895	1399.45
747.079	1405.59
747.264	1309.33
747.449	1323.67
747.634	1421.97
747.819	1307.29
748.003	1319.57
748.188	1284.76
748.373	1323.67
748.557	1385.11
748.742	1297.05
748.927	1165.98
749.111	1311.38
749.296	1225.37
749.481	1338.01
749.665	1295
749.85	1225.37
750.034	1315.48
750.219	1227.42
750.404	1196.7
750.588	1333.91
750.773	1245.85
750.957	1215.13
751.141	1172.12
751.326	1235.61
751.51	1159.83
751.695	1122.97
751.879	1241.75
752.064	1176.22
752.248	1143.45
752.432	1178.26
752.617	1112.73
752.801	1131.16
752.985	1118.87
753.17	1082.01
753.354	1094.3
753.538	1102.49
753.722	1104.54
753.907	1096.35
754.091	1069.72
754.275	1151.64
754.459	1008.28
754.643	1094.3
754.828	998.04
755.012	1073.82
755.196	977.56
755.38	942.75
755.564	1059.48
755.748	996
755.932	1045.15
756.116	1110.68
756.3	1041.05
756.484	965.28
756.668	1028.76
756.852	975.52
757.036	971.42
757.22	928.41
757.404	836.25
757.588	928.41
757.772	885.41
757.956	869.02
758.14	1028.76
758.323	893.6
758.507	989.85
758.691	909.98
758.875	928.41
759.059	971.42
759.242	838.3
759.426	854.69
759.61	891.55
759.794	848.54
759.977	897.69
760.161	889.5
760.345	850.59
760.528	918.17
760.712	832.16
760.895	813.73
761.079	891.55
761.263	834.21
761.446	776.86
761.63	799.39
761.813	815.77
761.997	785.05
762.18	813.73
762.364	893.6
762.547	793.25
762.731	811.68
762.914	817.82
763.098	758.43
763.281	881.31
763.464	799.39
763.648	791.2
763.831	801.44
764.015	742.05
764.198	840.35
764.381	807.58
764.564	780.96
764.748	823.97
764.931	742.05
765.114	699.04
765.297	737.95
765.481	793.25
765.664	776.86
765.847	770.72
766.03	803.49
766.213	631.46
766.397	721.57
766.58	694.94
766.763	705.18
766.946	694.94
767.129	684.7
767.312	729.76
767.495	744.1
767.678	662.18
767.861	783.01
768.044	787.1
768.227	627.36
768.41	694.94
768.593	742.05
768.776	703.14
768.959	713.38
769.142	780.96
769.324	643.74
769.507	631.46
769.69	768.67
769.873	617.12
770.056	801.44
770.239	635.55
770.421	643.74
770.604	668.32
770.787	621.22
770.97	539.3
771.152	613.03
771.335	623.27
771.518	553.63
771.7	723.62
771.883	656.03
772.066	594.59
772.248	676.51
772.431	729.76
772.613	670.37
772.796	561.83
772.978	637.6
773.161	660.13
773.343	510.63
773.526	578.21
773.708	576.16
773.891	545.44
774.073	570.02
774.256	631.46
774.438	639.65
774.621	580.26
774.803	578.21
774.985	512.67
775.168	615.07
775.35	596.64
775.532	557.73
775.715	529.06
775.897	606.88
776.079	508.58
776.261	590.5
776.444	588.45
776.626	615.07
776.808	479.91
776.99	559.78
777.173	531.11
777.355	504.48
777.537	496.29
777.719	481.96
777.901	537.25
778.083	479.91
778.265	531.11
778.447	520.87
778.629	490.15
778.811	455.33
778.993	602.79
779.175	522.91
779.357	373.41
779.539	367.27
779.721	451.24
779.903	500.39
780.085	447.14
780.267	479.91
780.449	535.2
780.631	524.96
780.812	512.67
780.994	479.91
781.176	451.24
781.358	457.38
781.54	393.89
781.721	441
781.903	438.95
782.085	426.66
782.267	438.95
782.448	488.1
782.63	424.61
782.812	447.14
782.993	397.99
783.175	352.93
783.357	391.84
783.538	389.8
783.72	352.93
783.901	324.26
784.083	365.22
784.264	387.75
784.446	354.98
784.627	367.27
784.809	385.7
784.99	393.89
785.172	354.98
785.353	307.88
785.535	348.84
785.716	383.65
785.897	301.73
786.079	408.23
786.26	383.65
786.441	377.51
786.623	324.26
786.804	357.03
786.985	258.73
787.167	350.89
787.348	318.12
787.529	307.88
787.71	400.04
787.891	389.8
788.073	211.62
788.254	260.77
788.435	303.78
788.616	311.97
788.797	260.77
788.978	385.7
789.159	342.69
789.34	342.69
789.522	348.84
789.703	334.5
789.884	309.93
790.065	322.21
790.246	293.54
790.427	328.36
790.607	330.41
790.788	271.01
790.969	234.15
791.15	350.89
791.331	283.3
791.512	225.96
791.693	258.73
791.874	258.73
792.054	369.32
792.235	234.15
792.416	219.82
792.597	254.63
792.778	258.73
792.958	205.48
793.139	221.86
793.32	238.25
793.5	148.14
793.681	266.92
793.862	189.1
794.042	266.92
794.223	185
794.404	260.77
794.584	187.05
794.765	225.96
794.945	275.11
795.126	283.3
795.306	309.93
795.487	215.72
795.667	156.33
795.848	273.06
796.028	266.92
796.209	258.73
796.389	197.29
796.57	238.25
796.75	176.81
796.93	199.34
797.111	262.82
797.291	213.67
797.471	201.38
797.652	160.42
797.832	203.43
798.012	201.38
798.192	144.04
798.373	152.23
798.553	164.52
798.733	185
798.913	244.39
799.093	201.38
799.274	121.51
799.454	180.9
799.634	221.86
799.814	268.97
799.994	168.62
800.174	217.77
800.354	174.76
800.534	185
800.714	228.01
800.894	141.99
801.074	156.33
801.254	172.71
801.434	191.14
801.614	162.47
801.794	156.33
801.974	631.46
802.154	129.7
802.334	266.92
802.514	107.18
802.693	207.53
802.873	232.1
803.053	156.33
803.233	242.34
803.413	168.62
803.592	238.25
803.772	66.22
803.952	154.28
804.131	154.28
804.311	156.33
804.491	201.38
804.67	111.27
804.85	90.79
805.03	158.38
805.209	133.8
805.389	150.18
805.568	152.23
805.748	156.33
805.928	139.94
806.107	137.9
806.287	141.99
806.466	193.19
806.646	119.46
806.825	66.22
807.004	119.46
807.184	113.32
807.363	211.62
807.543	121.51
807.722	78.51
807.901	250.53
808.081	213.67
808.26	137.9
808.439	144.04
808.619	113.32
808.798	103.08
808.977	203.43
809.156	205.48
809.336	125.61
809.515	105.13
809.694	185
809.873	125.61
810.052	125.61
810.231	105.13
810.411	119.46
810.59	115.37
810.769	144.04
810.948	152.23
811.127	201.38
811.306	187.05
811.485	94.89
811.664	166.57
811.843	70.31
812.022	185
812.201	150.18
812.38	152.23
812.559	141.99
812.737	135.85
812.916	62.12
813.095	176.81
813.274	121.51
813.453	94.89
813.632	113.32
813.811	101.03
813.989	82.6
814.168	119.46
814.347	113.32
814.526	96.94
814.704	207.53
814.883	80.55
815.062	137.9
815.24	146.09
815.419	70.31
815.598	78.51
815.776	80.55
815.955	135.85
816.133	70.31
816.312	162.47
816.49	88.75
816.669	88.75
816.847	94.89
817.026	168.62
817.204	90.79
817.383	176.81
817.561	88.75
817.74	127.66
817.918	119.46
818.097	53.93
818.275	58.03
818.453	101.03
818.632	29.35
818.81	103.08
818.988	107.18
819.167	70.31
819.345	80.55
819.523	135.85
819.701	103.08
819.879	152.23
820.058	86.7
820.236	105.13
820.414	45.74
820.592	80.55
820.77	72.36
820.948	92.84
821.127	58.03
821.305	62.12
821.483	78.51
821.661	74.41
821.839	62.12
822.017	139.94
822.195	189.1
822.373	86.7
822.551	4.78
822.729	111.27
822.907	129.7
823.085	127.66
823.262	19.11
823.44	88.75
823.618	111.27
823.796	86.7
823.974	51.88
824.152	53.93
824.329	64.17
824.507	90.79
824.685	105.13
824.863	162.47
825.04	43.69
825.218	70.31
825.396	37.55
825.574	111.27
825.751	84.65
825.929	111.27
826.107	-7.51
826.284	164.52
826.462	103.08
826.639	29.35
826.817	29.35
826.994	78.51
827.172	49.83
827.349	82.6
827.527	84.65
827.704	76.46
827.882	37.55
828.059	53.93
828.237	45.74
828.414	76.46
828.591	55.98
828.769	78.51
828.946	55.98
829.124	62.12
829.301	182.95
829.478	33.45
829.655	58.03
829.833	90.79
830.01	53.93
830.187	74.41
830.364	55.98
830.542	103.08
830.719	70.31
830.896	53.93
831.073	8.87
831.25	80.55
831.427	64.17
831.604	72.36
831.782	27.31
831.959	43.69
832.136	66.22
832.313	105.13
832.49	-25.94
832.667	127.66
832.844	37.55
833.021	78.51
833.198	62.12
833.374	29.35
833.551	41.64
833.728	29.35
833.905	98.99
834.082	-27.99
834.259	78.51
834.436	135.85
834.612	35.5
834.789	58.03
834.966	53.93
835.143	76.46
835.319	37.55
835.496	103.08
835.673	141.99
835.85	31.4
836.026	86.7
836.203	4.78
836.38	-19.8
836.556	-19.8
836.733	58.03
836.909	72.36
837.086	55.98
837.262	17.07
837.439	70.31
837.616	0.68
837.792	33.45
837.968	29.35
838.145	39.59
838.321	55.98
838.498	31.4
838.674	129.7
838.851	51.88
839.027	19.11
839.203	55.98
839.38	-38.23
839.556	6.83
839.732	94.89
839.909	68.27
840.085	23.21
840.261	58.03
840.437	39.59
840.614	64.17
840.79	78.51
840.966	-42.32
841.142	119.46
841.318	-7.51
841.494	-42.32
841.671	6.83
841.847	25.26
842.023	-19.8
842.199	51.88
842.375	74.41
842.551	-1.37
842.727	-3.41
842.903	62.12
843.079	80.55
843.255	-5.46
843.431	103.08
843.607	6.83
843.783	-25.94
843.959	37.55
844.134	12.97
844.31	47.79
844.486	25.26
844.662	74.41
844.838	33.45
845.013	41.64
845.189	49.83
845.365	21.16
845.541	2.73
845.716	4.78
845.892	10.92
846.068	4.78
846.244	-42.32
846.419	29.35
846.595	-25.94
846.77	25.26
846.946	39.59
847.122	33.45
847.297	-36.18
847.473	86.7
847.648	55.98
847.824	-1.37
847.999	41.64
848.175	-9.56
848.35	-5.46
848.526	-17.75
848.701	45.74
848.876	62.12
849.052	35.5
849.227	25.26
849.403	15.02
849.578	-9.56
849.753	90.79
849.929	35.5
850.104	29.35
850.279	33.45
850.454	96.94
850.63	-3.41
850.805	103.08
850.98	37.55
851.155	-42.32
851.33	49.83
851.505	-3.41
851.681	62.12
851.856	31.4
852.031	58.03
852.206	6.83
852.381	49.83
852.556	4.78
852.731	45.74
852.906	45.74
853.081	41.64
853.256	-34.13
853.431	35.5
853.606	-5.46
853.781	37.55
853.956	39.59
854.131	29.35
854.305	29.35
854.48	6.83
854.655	-19.8
854.83	-30.04
855.005	-27.99
855.18	-38.23
855.354	-1.37
855.529	47.79
855.704	37.55
855.879	19.11
856.053	-27.99
856.228	96.94
856.403	74.41
856.577	47.79
856.752	41.64
856.926	4.78
857.101	0.68
857.276	86.7
857.45	-7.51
857.625	37.55
857.799	82.6
857.974	21.16
858.148	25.26
858.323	21.16
858.497	41.64
858.672	-1.37
858.846	-11.61
859.02	94.89
859.195	58.03
859.369	39.59
859.543	39.59
859.718	78.51
859.892	39.59
860.066	-40.28
860.241	41.64
860.415	23.21
860.589	-60.76
860.763	43.69
860.938	31.4
861.112	78.51
861.286	45.74
861.46	51.88
861.634	-46.42
861.808	64.17
861.982	-13.65
862.157	-3.41
862.331	41.64
862.505	86.7
862.679	12.97
862.853	35.5
863.027	4.78
863.201	72.36
863.375	-27.99
863.549	-34.13
863.722	4.78
863.896	49.83
864.07	-3.41
864.244	-23.89
864.418	-1.37
864.592	35.5
864.766	-11.61
864.939	27.31
865.113	12.97
865.287	62.12
865.461	-9.56
865.634	39.59
865.808	12.97
865.982	12.97
866.156	37.55
866.329	-23.89
866.503	-19.8
866.676	25.26
866.85	-9.56
867.024	70.31
867.197	33.45
867.371	-40.28
867.544	25.26
867.718	-9.56
867.891	64.17
868.065	-25.94
868.238	4.78
868.412	66.22
868.585	4.78
868.759	17.07
868.932	-48.47
869.105	-5.46
869.279	37.55
869.452	-50.52
869.625	4.78
869.799	35.5
869.972	49.83
870.145	37.55
870.319	-11.61
870.492	-50.52
870.665	88.75
870.838	58.03
871.011	-9.56
871.185	-7.51
871.358	-83.28
871.531	17.07
871.704	64.17
871.877	12.97
872.05	-27.99
872.223	4.78
872.396	27.31
872.569	45.74
872.742	19.11
872.915	27.31
873.088	12.97
873.261	-64.85
873.434	17.07
873.607	-3.41
873.78	62.12
873.953	49.83
874.126	-17.75
874.299	-13.65
874.471	25.26
874.644	-36.18
874.817	43.69
874.99	47.79
875.163	8.87
875.335	23.21
875.508	-36.18
875.681	-17.75
875.853	-48.47
876.026	29.35
876.199	33.45
876.371	31.4
876.544	25.26
876.717	4.78
876.889	64.17
877.062	21.16
877.234	4.78
877.407	-34.13
877.579	23.21
877.752	-34.13
877.924	8.87
878.097	8.87
878.269	41.64
878.442	72.36
878.614	58.03
878.786	119.46
878.959	-58.71
879.131	-23.89
879.303	-21.85
879.476	-27.99
879.648	-19.8
879.82	0.68
879.993	-52.56
880.165	-42.32
880.337	-32.08
880.509	-3.41
880.681	-19.8
880.854	-11.61
881.026	17.07
881.198	-15.7
881.37	-19.8
881.542	-3.41
881.714	-44.37
881.886	41.64
882.058	-1.37
882.23	8.87
882.402	-34.13
882.574	-42.32
882.746	4.78
882.918	74.41
883.09	53.93
883.262	-9.56
883.434	-7.51
883.606	-15.7
883.778	58.03
883.95	-3.41
884.122	-36.18
884.293	-17.75
884.465	-75.09
884.637	8.87
884.809	-71
884.98	-5.46
885.152	4.78
885.324	53.93
885.496	-52.56
885.667	-3.41
885.839	-79.19
886.011	70.31
886.182	21.16
886.354	-19.8
886.525	-1.37
886.697	45.74
886.869	-48.47
887.04	-17.75
887.212	51.88
887.383	55.98
887.555	33.45
887.726	-40.28
887.897	-3.41
888.069	4.78
888.24	55.98
888.412	-27.99
888.583	-3.41
888.754	-66.9
888.926	-9.56
889.097	-42.32
889.268	-34.13
889.44	43.69
889.611	-21.85
889.782	17.07
889.953	8.87
890.125	2.73
890.296	-138.58
890.467	25.26
890.638	10.92
890.809	41.64
890.98	-36.18
891.151	31.4
891.323	0.68
891.494	10.92
891.665	21.16
891.836	45.74
892.007	8.87
892.178	-1.37
892.349	2.73
892.52	-97.62
892.691	23.21
892.862	21.16
893.032	-40.28
893.203	-34.13
893.374	-1.37
893.545	62.12
893.716	-64.85
893.887	17.07
894.057	-36.18
894.228	-25.94
894.399	-11.61
894.57	19.11
894.74	-15.7
894.911	-40.28
895.082	-73.04
895.253	-38.23
895.423	-27.99
895.594	25.26
895.764	29.35
895.935	-101.72
896.106	-34.13
896.276	-44.37
896.447	51.88
896.617	-56.66
896.788	80.55
896.958	-48.47
897.129	-38.23
897.299	-56.66
897.47	47.79
897.64	29.35
897.81	6.83
897.981	23.21
898.151	17.07
898.322	-23.89
898.492	80.55
898.662	-27.99
898.832	-15.7
899.003	-54.61
899.173	12.97
899.343	-3.41
899.513	-15.7
