Data from USB4F104151__90__14-17-56-941.txt Node

Date: Thu Mar 13 14:17:56 EDT 2025
User: louis
Spectrometer: USB4F10415
Trigger mode: 4
Integration Time (sec): 2.000000E-2
Scans to average: 1
Electric dark correction enabled: true
Nonlinearity correction enabled: false
Boxcar width: 0
XAxis mode: Wavelengths
Number of Pixels in Spectrum: 3648
>>>>>Begin Spectral Data<<<<<
178.204	-76.29
178.424	-76.29
178.644	-76.29
178.864	-113.15
179.084	-53.76
179.304	-29.18
179.524	19.97
179.744	-47.62
179.964	1.54
180.184	-6.66
180.404	22.02
180.624	-4.61
180.844	28.16
181.064	50.69
181.283	-23.04
181.503	-55.81
181.723	44.54
181.943	-35.33
182.163	13.82
182.383	1.54
182.602	75.26
182.822	-45.57
183.042	36.35
183.262	28.16
183.482	19.97
183.701	58.88
183.921	-27.14
184.141	9.73
184.361	17.92
184.58	22.02
184.8	7.68
185.02	-35.33
185.239	44.54
185.459	28.16
185.679	42.5
185.898	-33.28
186.118	69.12
186.338	79.36
186.557	87.55
186.777	54.78
186.997	30.21
187.216	28.16
187.436	101.89
187.655	89.6
187.875	50.69
188.095	19.97
188.314	122.37
188.534	112.13
188.753	42.5
188.973	7.68
189.192	54.78
189.412	7.68
189.631	-10.75
189.851	-20.99
190.07	69.12
190.29	17.92
190.509	13.82
190.729	19.97
190.948	9.73
191.168	77.31
191.387	101.89
191.607	22.02
191.826	46.59
192.045	17.92
192.265	-18.94
192.484	5.63
192.704	22.02
192.923	1.54
193.142	60.93
193.362	87.55
193.581	67.07
193.8	34.3
194.02	97.79
194.239	-23.04
194.458	79.36
194.678	17.92
194.897	42.5
195.116	-31.23
195.335	19.97
195.555	13.82
195.774	50.69
195.993	26.11
196.212	-14.85
196.432	26.11
196.651	48.64
196.87	24.06
197.089	73.21
197.308	83.45
197.528	19.97
197.747	-20.99
197.966	7.68
198.185	118.27
198.404	-31.23
198.623	28.16
198.842	50.69
199.062	112.13
199.281	1.54
199.5	71.17
199.719	34.3
199.938	-2.56
200.157	99.84
200.376	62.98
200.595	118.27
200.814	11.78
201.033	1.54
201.252	30.21
201.471	50.69
201.69	28.16
201.909	67.07
202.128	60.93
202.347	118.27
202.566	30.21
202.785	42.5
203.004	26.11
203.223	67.07
203.442	28.16
203.661	11.78
203.879	17.92
204.098	93.69
204.317	-6.66
204.536	42.5
204.755	58.88
204.974	83.45
205.193	69.12
205.411	134.65
205.63	9.73
205.849	15.87
206.068	34.3
206.287	50.69
206.505	44.54
206.724	91.65
206.943	75.26
207.162	65.02
207.381	34.3
207.599	52.74
207.818	67.07
208.037	-27.14
208.255	62.98
208.474	-6.66
208.693	-0.51
208.911	1.54
209.13	42.5
209.349	34.3
209.567	79.36
209.786	42.5
210.005	28.16
210.223	-12.8
210.442	112.13
210.661	42.5
210.879	34.3
211.098	87.55
211.316	5.63
211.535	54.78
211.753	32.26
211.972	-12.8
212.191	38.4
212.409	75.26
212.628	67.07
212.846	22.02
213.065	46.59
213.283	62.98
213.502	26.11
213.72	26.11
213.938	-61.95
214.157	30.21
214.375	-4.61
214.594	-6.66
214.812	69.12
215.031	17.92
215.249	50.69
215.467	38.4
215.686	5.63
215.904	95.74
216.122	87.55
216.341	87.55
216.559	-6.66
216.778	85.5
216.996	87.55
217.214	44.54
217.432	15.87
217.651	-23.04
217.869	26.11
218.087	24.06
218.306	-33.28
218.524	58.88
218.742	54.78
218.96	40.45
219.179	83.45
219.397	-33.28
219.615	120.32
219.833	108.03
220.051	15.87
220.27	5.63
220.488	71.17
220.706	71.17
220.924	11.78
221.142	69.12
221.36	-12.8
221.578	50.69
221.796	11.78
222.015	24.06
222.233	-23.04
222.451	42.5
222.669	13.82
222.887	116.22
223.105	26.11
223.323	-20.99
223.541	-10.75
223.759	-18.94
223.977	26.11
224.195	85.5
224.413	60.93
224.631	148.99
224.849	50.69
225.067	93.69
225.285	19.97
225.503	-4.61
225.721	42.5
225.939	24.06
226.157	44.54
226.375	75.26
226.592	17.92
226.81	17.92
227.028	75.26
227.246	-14.85
227.464	26.11
227.682	60.93
227.9	71.17
228.117	30.21
228.335	50.69
228.553	69.12
228.771	60.93
228.989	87.55
229.206	1.54
229.424	89.6
229.642	108.03
229.86	17.92
230.077	157.18
230.295	17.92
230.513	17.92
230.731	103.93
230.948	71.17
231.166	17.92
231.384	36.35
231.601	-4.61
231.819	85.5
232.037	-16.9
232.254	-4.61
232.472	-12.8
232.689	-45.57
232.907	3.58
233.125	50.69
233.342	34.3
233.56	-23.04
233.777	30.21
233.995	3.58
234.213	101.89
234.43	50.69
234.648	91.65
234.865	-39.42
235.083	42.5
235.3	79.36
235.518	42.5
235.735	175.61
235.953	58.88
236.17	15.87
236.388	11.78
236.605	42.5
236.822	60.93
237.04	9.73
237.257	62.98
237.475	-23.04
237.692	17.92
237.909	-35.33
238.127	9.73
238.344	79.36
238.562	48.64
238.779	-31.23
238.996	-12.8
239.214	42.5
239.431	-2.56
239.648	-31.23
239.865	7.68
240.083	19.97
240.3	-14.85
240.517	1.54
240.735	26.11
240.952	99.84
241.169	91.65
241.386	44.54
241.603	48.64
241.821	-18.94
242.038	42.5
242.255	26.11
242.472	-14.85
242.689	108.03
242.907	44.54
243.124	60.93
243.341	110.08
243.558	87.55
243.775	36.35
243.992	5.63
244.209	46.59
244.426	75.26
244.643	89.6
244.86	91.65
245.078	110.08
245.295	34.3
245.512	1.54
245.729	19.97
245.946	140.8
246.163	15.87
246.38	58.88
246.597	-39.42
246.814	28.16
247.031	-29.18
247.248	116.22
247.464	89.6
247.681	52.74
247.898	58.88
248.115	34.3
248.332	9.73
248.549	-20.99
248.766	62.98
248.983	44.54
249.2	38.4
249.417	118.27
249.633	17.92
249.85	71.17
250.067	71.17
250.284	1.54
250.501	83.45
250.717	97.79
250.934	9.73
251.151	93.69
251.368	26.11
251.585	42.5
251.801	62.98
252.018	-14.85
252.235	50.69
252.451	-39.42
252.668	-35.33
252.885	34.3
253.102	5.63
253.318	60.93
253.535	11.78
253.752	79.36
253.968	60.93
254.185	-39.42
254.401	46.59
254.618	112.13
254.835	22.02
255.051	108.03
255.268	75.26
255.484	38.4
255.701	44.54
255.917	17.92
256.134	26.11
256.351	54.78
256.567	34.3
256.784	44.54
257	-14.85
257.217	77.31
257.433	36.35
257.65	87.55
257.866	87.55
258.082	-14.85
258.299	15.87
258.515	67.07
258.732	-27.14
258.948	50.69
259.165	103.93
259.381	32.26
259.597	-43.52
259.814	62.98
260.03	11.78
260.246	22.02
260.463	13.82
260.679	60.93
260.895	-29.18
261.112	19.97
261.328	110.08
261.544	67.07
261.761	56.83
261.977	17.92
262.193	24.06
262.409	71.17
262.626	-0.51
262.842	-6.66
263.058	-39.42
263.274	67.07
263.49	67.07
263.707	159.23
263.923	46.59
264.139	5.63
264.355	71.17
264.571	36.35
264.787	-4.61
265.004	136.7
265.22	19.97
265.436	-6.66
265.652	30.21
265.868	71.17
266.084	5.63
266.3	67.07
266.516	13.82
266.732	38.4
266.948	58.88
267.164	52.74
267.38	11.78
267.596	56.83
267.812	46.59
268.028	87.55
268.244	79.36
268.46	93.69
268.676	30.21
268.892	67.07
269.108	1.54
269.324	-55.81
269.54	38.4
269.756	71.17
269.972	67.07
270.188	-6.66
270.403	32.26
270.619	52.74
270.835	24.06
271.051	132.61
271.267	87.55
271.483	-14.85
271.698	5.63
271.914	-14.85
272.13	36.35
272.346	-39.42
272.562	46.59
272.777	110.08
272.993	42.5
273.209	-31.23
273.425	-41.47
273.64	103.93
273.856	71.17
274.072	-23.04
274.287	9.73
274.503	44.54
274.719	-57.86
274.934	15.87
275.15	7.68
275.366	65.02
275.581	-57.86
275.797	36.35
276.012	9.73
276.228	89.6
276.444	60.93
276.659	173.57
276.875	50.69
277.09	87.55
277.306	36.35
277.521	26.11
277.737	52.74
277.952	91.65
278.168	17.92
278.383	-10.75
278.599	19.97
278.814	83.45
279.03	-64
279.245	13.82
279.461	38.4
279.676	5.63
279.892	77.31
280.107	50.69
280.322	1.54
280.538	-2.56
280.753	1.54
280.969	44.54
281.184	34.3
281.399	3.58
281.615	65.02
281.83	67.07
282.045	58.88
282.26	26.11
282.476	26.11
282.691	-4.61
282.906	52.74
283.122	44.54
283.337	60.93
283.552	50.69
283.767	-12.8
283.983	11.78
284.198	38.4
284.413	81.41
284.628	-10.75
284.843	83.45
285.058	-0.51
285.274	46.59
285.489	42.5
285.704	-70.14
285.919	-4.61
286.134	30.21
286.349	58.88
286.564	17.92
286.779	67.07
286.995	-39.42
287.21	-35.33
287.425	-0.51
287.64	-20.99
287.855	69.12
288.07	38.4
288.285	93.69
288.5	58.88
288.715	52.74
288.93	60.93
289.145	50.69
289.36	87.55
289.575	60.93
289.79	60.93
290.004	15.87
290.219	11.78
290.434	38.4
290.649	52.74
290.864	17.92
291.079	40.45
291.294	83.45
291.509	-35.33
291.724	62.98
291.938	-8.7
292.153	9.73
292.368	11.78
292.583	1.54
292.798	67.07
293.012	67.07
293.227	58.88
293.442	19.97
293.657	-6.66
293.871	5.63
294.086	11.78
294.301	120.32
294.516	-23.04
294.73	69.12
294.945	58.88
295.16	58.88
295.374	54.78
295.589	42.5
295.804	95.74
296.018	-10.75
296.233	17.92
296.447	19.97
296.662	-6.66
296.877	65.02
297.091	56.83
297.306	-39.42
297.52	22.02
297.735	17.92
297.949	34.3
298.164	99.84
298.378	30.21
298.593	17.92
298.807	38.4
299.022	99.84
299.236	99.84
299.451	67.07
299.665	-31.23
299.88	81.41
300.094	44.54
300.309	77.31
300.523	71.17
300.737	36.35
300.952	17.92
301.166	30.21
301.381	58.88
301.595	54.78
301.809	50.69
302.024	85.5
302.238	79.36
302.452	28.16
302.667	60.93
302.881	19.97
303.095	52.74
303.309	54.78
303.524	-31.23
303.738	60.93
303.952	7.68
304.166	93.69
304.381	-145.92
304.595	58.88
304.809	44.54
305.023	69.12
305.237	-18.94
305.452	28.16
305.666	91.65
305.88	83.45
306.094	24.06
306.308	75.26
306.522	134.65
306.736	-10.75
306.95	79.36
307.164	54.78
307.379	79.36
307.593	9.73
307.807	30.21
308.021	28.16
308.235	15.87
308.449	11.78
308.663	17.92
308.877	83.45
309.091	19.97
309.305	79.36
309.519	36.35
309.733	54.78
309.947	-2.56
310.161	1.54
310.374	110.08
310.588	151.04
310.802	26.11
311.016	19.97
311.23	167.42
311.444	3.58
311.658	44.54
311.872	30.21
312.085	-12.8
312.299	95.74
312.513	42.5
312.727	65.02
312.941	-37.38
313.154	34.3
313.368	1.54
313.582	126.46
313.796	56.83
314.009	13.82
314.223	67.07
314.437	13.82
314.651	108.03
314.864	26.11
315.078	34.3
315.292	60.93
315.505	1.54
315.719	26.11
315.933	77.31
316.146	9.73
316.36	52.74
316.573	67.07
316.787	46.59
317.001	-14.85
317.214	26.11
317.428	28.16
317.641	36.35
317.855	40.45
318.068	-6.66
318.282	85.5
318.495	99.84
318.709	40.45
318.922	52.74
319.136	58.88
319.349	99.84
319.563	13.82
319.776	83.45
319.99	77.31
320.203	103.93
320.417	42.5
320.63	42.5
320.843	83.45
321.057	36.35
321.27	54.78
321.483	58.88
321.697	1.54
321.91	50.69
322.124	58.88
322.337	71.17
322.55	11.78
322.763	-14.85
322.977	67.07
323.19	32.26
323.403	48.64
323.617	48.64
323.83	30.21
324.043	58.88
324.256	50.69
324.469	7.68
324.683	77.31
324.896	54.78
325.109	44.54
325.322	58.88
325.535	110.08
325.748	62.98
325.962	11.78
326.175	-2.56
326.388	75.26
326.601	28.16
326.814	22.02
327.027	42.5
327.24	108.03
327.453	-64
327.666	75.26
327.879	148.99
328.092	87.55
328.305	-51.71
328.518	28.16
328.731	52.74
328.944	7.68
329.157	-23.04
329.37	46.59
329.583	36.35
329.796	71.17
330.009	75.26
330.222	5.63
330.435	83.45
330.648	69.12
330.861	40.45
331.073	103.93
331.286	1.54
331.499	28.16
331.712	48.64
331.925	-14.85
332.138	19.97
332.35	99.84
332.563	-41.47
332.776	26.11
332.989	-6.66
333.202	112.13
333.414	65.02
333.627	58.88
333.84	58.88
334.053	58.88
334.265	34.3
334.478	34.3
334.691	36.35
334.903	22.02
335.116	17.92
335.329	91.65
335.541	73.21
335.754	62.98
335.966	54.78
336.179	71.17
336.392	50.69
336.604	99.84
336.817	93.69
337.029	93.69
337.242	30.21
337.454	91.65
337.667	26.11
337.88	54.78
338.092	17.92
338.305	140.8
338.517	9.73
338.729	17.92
338.942	91.65
339.154	34.3
339.367	48.64
339.579	38.4
339.792	69.12
340.004	62.98
340.217	-6.66
340.429	9.73
340.641	65.02
340.854	28.16
341.066	75.26
341.278	58.88
341.491	67.07
341.703	91.65
341.915	15.87
342.128	50.69
342.34	32.26
342.552	32.26
342.764	17.92
342.977	97.79
343.189	52.74
343.401	32.26
343.613	-6.66
343.826	112.13
344.038	40.45
344.25	38.4
344.462	77.31
344.674	48.64
344.886	77.31
345.099	67.07
345.311	28.16
345.523	-6.66
345.735	46.59
345.947	13.82
346.159	99.84
346.371	79.36
346.583	-12.8
346.795	122.37
347.007	46.59
347.219	17.92
347.431	-0.51
347.643	91.65
347.855	5.63
348.067	95.74
348.279	28.16
348.491	-23.04
348.703	79.36
348.915	122.37
349.127	26.11
349.339	52.74
349.551	40.45
349.763	58.88
349.975	67.07
350.187	118.27
350.399	116.22
350.61	83.45
350.822	79.36
351.034	-47.62
351.246	-2.56
351.458	118.27
351.669	93.69
351.881	60.93
352.093	91.65
352.305	101.89
352.517	97.79
352.728	75.26
352.94	-0.51
353.152	-6.66
353.363	24.06
353.575	67.07
353.787	116.22
353.999	22.02
354.21	30.21
354.422	28.16
354.633	46.59
354.845	101.89
355.057	44.54
355.268	5.63
355.48	-39.42
355.692	26.11
355.903	11.78
356.115	15.87
356.326	56.83
356.538	58.88
356.749	42.5
356.961	124.41
357.172	83.45
357.384	50.69
357.595	60.93
357.807	-14.85
358.018	5.63
358.23	54.78
358.441	77.31
358.653	93.69
358.864	75.26
359.075	56.83
359.287	75.26
359.498	75.26
359.709	79.36
359.921	44.54
360.132	26.11
360.344	120.32
360.555	34.3
360.766	108.03
360.977	85.5
361.189	103.93
361.4	28.16
361.611	44.54
361.823	58.88
362.034	56.83
362.245	36.35
362.456	17.92
362.667	99.84
362.879	-14.85
363.09	9.73
363.301	50.69
363.512	46.59
363.723	11.78
363.935	11.78
364.146	91.65
364.357	-0.51
364.568	58.88
364.779	-47.62
364.99	58.88
365.201	17.92
365.412	69.12
365.623	-37.38
365.834	71.17
366.045	69.12
366.256	50.69
366.467	46.59
366.678	-12.8
366.889	67.07
367.1	67.07
367.311	-4.61
367.522	75.26
367.733	136.7
367.944	26.11
368.155	91.65
368.366	112.13
368.577	116.22
368.788	50.69
368.999	-4.61
369.209	9.73
369.42	97.79
369.631	124.41
369.842	124.41
370.053	19.97
370.264	50.69
370.474	11.78
370.685	58.88
370.896	11.78
371.107	7.68
371.317	19.97
371.528	52.74
371.739	46.59
371.95	11.78
372.16	58.88
372.371	19.97
372.582	62.98
372.792	140.8
373.003	142.85
373.214	48.64
373.424	46.59
373.635	46.59
373.846	54.78
374.056	-43.52
374.267	67.07
374.477	34.3
374.688	36.35
374.898	24.06
375.109	28.16
375.319	58.88
375.53	99.84
375.74	75.26
375.951	15.87
376.161	-61.95
376.372	50.69
376.582	77.31
376.793	118.27
377.003	105.98
377.214	50.69
377.424	17.92
377.635	65.02
377.845	46.59
378.055	97.79
378.266	67.07
378.476	50.69
378.686	75.26
378.897	54.78
379.107	122.37
379.317	91.65
379.528	79.36
379.738	50.69
379.948	26.11
380.158	22.02
380.369	65.02
380.579	87.55
380.789	34.3
380.999	34.3
381.21	38.4
381.42	124.41
381.63	11.78
381.84	83.45
382.05	46.59
382.261	71.17
382.471	134.65
382.681	77.31
382.891	122.37
383.101	52.74
383.311	71.17
383.521	50.69
383.731	73.21
383.941	75.26
384.151	36.35
384.361	28.16
384.571	38.4
384.781	1.54
384.991	50.69
385.201	46.59
385.411	91.65
385.621	42.5
385.831	75.26
386.041	99.84
386.251	22.02
386.461	44.54
386.671	44.54
386.881	32.26
387.091	91.65
387.301	60.93
387.511	26.11
387.72	142.85
387.93	120.32
388.14	75.26
388.35	83.45
388.56	62.98
388.769	28.16
388.979	19.97
389.189	38.4
389.399	58.88
389.609	71.17
389.818	60.93
390.028	52.74
390.238	75.26
390.447	56.83
390.657	34.3
390.867	93.69
391.076	38.4
391.286	65.02
391.496	103.93
391.705	26.11
391.915	130.56
392.125	58.88
392.334	36.35
392.544	60.93
392.753	58.88
392.963	26.11
393.172	75.26
393.382	110.08
393.591	101.89
393.801	144.89
394.01	83.45
394.22	124.41
394.429	26.11
394.639	22.02
394.848	93.69
395.058	75.26
395.267	124.41
395.477	19.97
395.686	58.88
395.895	89.6
396.105	177.66
396.314	91.65
396.524	71.17
396.733	62.98
396.942	140.8
397.152	148.99
397.361	134.65
397.57	91.65
397.78	87.55
397.989	110.08
398.198	157.18
398.407	171.52
398.617	81.41
398.826	24.06
399.035	85.5
399.244	85.5
399.453	126.46
399.663	99.84
399.872	155.13
400.081	148.99
400.29	132.61
400.499	122.37
400.708	148.99
400.917	99.84
401.127	65.02
401.336	99.84
401.545	200.19
401.754	140.8
401.963	155.13
402.172	144.89
402.381	99.84
402.59	79.36
402.799	75.26
403.008	155.13
403.217	132.61
403.426	153.09
403.635	116.22
403.844	75.26
404.053	177.66
404.262	134.65
404.471	185.85
404.68	189.95
404.888	132.61
405.097	153.09
405.306	132.61
405.515	169.47
405.724	101.89
405.933	142.85
406.142	136.7
406.35	185.85
406.559	99.84
406.768	69.12
406.977	175.61
407.185	148.99
407.394	224.76
407.603	138.75
407.812	192
408.02	173.57
408.229	159.23
408.438	226.81
408.646	163.33
408.855	280.06
409.064	235
409.272	214.52
409.481	278.01
409.69	237.05
409.898	206.33
410.107	296.44
410.315	271.87
410.524	218.62
410.733	331.26
410.941	353.79
411.15	280.06
411.358	273.92
411.567	413.18
411.775	372.22
411.984	349.69
412.192	480.76
412.401	353.79
412.609	374.27
412.818	447.99
413.026	452.09
413.234	450.04
413.443	433.66
413.651	441.85
413.86	480.76
414.068	531.96
414.276	521.72
414.485	544.25
414.693	523.77
414.901	589.3
415.11	595.45
415.318	611.83
415.526	562.68
415.734	642.55
415.943	683.51
416.151	749.04
416.359	701.94
416.567	730.61
416.776	804.34
416.984	853.49
417.192	773.62
417.4	732.66
417.608	822.77
417.817	898.55
418.025	828.92
418.233	1035.76
418.441	853.49
418.649	976.37
418.857	1048.05
419.065	1091.06
419.273	1119.73
419.481	1093.1
419.689	1248.75
419.897	1283.56
420.105	1197.55
420.313	1359.34
420.521	1304.04
420.729	1357.29
420.937	1435.11
421.145	1412.59
421.353	1517.03
421.561	1680.87
421.769	1617.38
421.977	1781.22
422.185	1738.21
422.393	1680.87
422.601	1787.36
422.809	1908.19
423.017	1994.21
423.224	1967.59
423.432	2012.64
423.64	2123.23
423.848	2287.07
424.056	2254.3
424.263	2272.73
424.471	2412
424.679	2569.69
424.887	2524.63
425.094	2647.51
425.302	2643.42
425.51	2756.05
425.718	2805.21
425.925	2864.6
426.133	2960.85
426.341	3204.56
426.548	3220.94
426.756	3237.33
426.964	3188.18
427.171	3487.18
427.379	3648.97
427.586	3534.28
427.794	3749.32
428.001	3882.44
428.209	4146.62
428.417	4031.94
428.624	4410.81
428.832	4330.94
429.039	4206.02
429.247	4214.21
429.454	4732.34
429.662	4851.13
429.869	4552.12
430.076	5039.54
430.284	4683.19
430.491	4974
430.699	5246.38
430.906	5342.64
431.114	5193.14
431.321	5723.56
431.528	5705.13
431.736	6002.08
431.943	6296.99
432.15	6157.73
432.358	6133.15
432.565	6579.61
432.772	6456.73
432.979	6870.42
433.187	6948.25
433.394	7046.55
433.601	7476.62
433.808	7609.74
434.016	7554.44
434.223	7701.9
434.43	8281.47
434.637	8195.46
434.844	8533.37
435.052	8740.22
435.259	8815.99
435.466	8660.35
435.673	8705.4
435.88	9348.47
436.087	9571.69
436.294	9622.89
436.501	9565.55
436.708	9774.44
436.915	9966.95
437.122	10413.41
437.329	10399.07
437.537	10952.02
437.743	10792.28
437.95	10952.02
438.157	11242.84
438.364	11787.6
438.571	11760.97
438.778	11873.61
438.985	13065.53
439.192	12533.06
439.399	12922.17
439.606	12401.99
439.813	13331.76
440.02	14015.79
440.227	13886.76
440.433	13413.68
440.64	14021.93
440.847	14159.14
441.054	14304.55
441.261	15271.19
441.467	15099.16
441.674	15539.47
441.881	15967.5
442.088	15969.55
442.294	15703.31
442.501	16096.52
442.708	16442.63
442.914	17196.28
443.121	17853.68
443.328	17323.26
443.534	18842.85
443.741	18207.98
443.948	17761.52
444.154	19311.83
444.361	19088.6
444.568	19219.67
444.774	19127.52
444.981	19545.3
445.187	19872.98
445.394	20769.99
445.6	20696.26
445.807	22584.49
446.013	21419.19
446.22	21998.77
446.426	22541.48
446.633	23329.95
446.839	23614.62
447.046	22355.11
447.252	23803.03
447.459	24284.3
447.665	24056.98
447.871	24886.4
448.078	26154.1
448.284	24913.03
448.491	25623.67
448.697	26741.86
448.903	27092.07
449.11	27286.62
449.316	26342.51
449.522	27108.45
449.728	28085.33
449.935	27972.69
450.141	28122.19
450.347	28757.07
450.553	27933.78
450.76	27927.64
450.966	28822.6
451.172	29328.45
451.378	29617.21
451.584	28818.5
451.791	29662.27
451.997	29512.77
452.203	30049.33
452.409	30293.04
452.615	30028.85
452.821	28810.31
453.027	28345.42
453.233	30346.29
453.44	28630.09
453.646	29310.02
453.852	29484.09
454.058	29625.4
454.264	29127.75
454.47	29514.81
454.676	28605.52
454.882	29803.58
455.088	27567.2
455.294	27667.55
455.5	28294.22
455.705	28212.31
455.911	26913.89
456.117	26856.55
456.323	26715.24
456.529	24867.97
456.735	25932.92
456.941	25371.77
457.147	25109.63
457.352	24267.92
457.558	23946.39
457.764	24239.25
457.97	23547.03
458.176	23286.94
458.381	23385.24
458.587	21800.12
458.793	22195.37
458.999	20780.23
459.204	22400.17
459.41	21845.17
459.616	20397.26
459.821	20178.12
460.027	20432.07
460.233	19961.04
460.438	18912.48
460.644	19266.78
460.85	18326.76
461.055	17906.93
461.261	18029.8
461.466	16655.62
461.672	16162.06
461.878	17360.12
462.083	16104.71
462.289	15983.88
462.494	15652.11
462.7	15260.95
462.905	14789.92
463.111	15176.98
463.316	15213.85
463.522	14927.13
463.727	14996.76
463.932	14720.29
464.138	14890.27
464.343	14939.42
464.549	14255.4
464.754	14783.77
464.959	14492.96
465.165	14710.05
465.37	13886.76
465.575	13434.16
465.781	13862.19
465.986	14245.16
466.191	13829.42
466.397	13489.46
466.602	12608.83
466.807	13344.05
467.012	13280.57
467.218	13317.43
467.423	13174.07
467.628	12956.99
467.833	13741.36
468.038	13184.31
468.244	12913.98
468.449	13321.52
468.654	12975.42
468.859	12911.93
469.064	12854.59
469.269	12225.86
469.474	12334.4
469.679	12561.73
469.885	12285.25
470.09	12379.46
470.295	12242.25
470.5	11924.81
470.705	12178.76
470.91	12170.57
471.115	11773.26
471.32	11752.78
471.525	11928.91
471.73	11693.39
471.935	11535.7
472.139	11216.21
472.344	11355.47
472.549	10868.06
472.754	11117.91
472.959	10847.58
473.164	10591.58
473.369	10554.72
473.574	10870.11
473.778	10841.43
473.983	10650.97
474.188	10657.12
474.393	10220.9
474.598	10143.08
474.802	10040.68
475.007	9848.17
475.212	10128.74
475.417	9577.84
475.621	9713
475.826	9708.91
476.031	9696.62
476.235	9477.49
476.44	9719.15
476.645	9295.22
476.849	9436.53
477.054	9215.35
477.259	9055.61
477.463	9106.81
477.668	8928.63
477.872	9227.64
478.077	8873.34
478.282	8553.85
478.486	8467.84
478.691	8555.9
478.895	8629.63
479.1	8506.75
479.304	8611.2
479.509	8420.74
479.713	8304
479.918	8414.59
480.122	8160.64
480.326	8220.03
480.531	8111.49
480.735	8074.63
480.94	8148.36
481.144	8326.53
481.348	7810.44
481.553	8005
481.757	7832.97
481.961	7988.61
482.166	8199.55
482.37	7837.06
482.574	7837.06
482.778	7941.51
482.983	7890.31
483.187	7845.26
483.391	7865.74
483.595	7777.67
483.8	7785.87
484.004	7867.78
484.208	8113.54
484.412	7777.67
484.616	7816.58
484.821	8060.29
485.025	7687.56
485.229	7767.43
485.433	7898.5
485.637	7964.04
485.841	7652.75
486.045	7927.18
486.249	7884.17
486.453	7718.28
486.657	7918.98
486.861	7990.66
487.065	7628.17
487.269	7798.15
487.473	7669.13
487.677	8015.24
487.881	7974.28
488.085	7785.87
488.289	7939.46
488.493	7886.22
488.697	7896.46
488.901	7914.89
489.105	7736.71
489.309	7957.89
489.512	8101.25
489.716	8111.49
489.92	7964.04
490.124	7835.02
490.328	8086.92
490.531	8140.16
490.735	8144.26
490.939	8172.93
491.143	8054.15
491.346	8215.94
491.55	8224.13
491.754	8060.29
491.958	8326.53
492.161	8230.27
492.365	8285.57
492.569	8351.1
492.772	8467.84
492.976	8260.99
493.18	8570.24
493.383	8695.16
493.587	8791.42
493.79	8600.96
493.994	8811.9
494.197	8734.07
494.401	8662.4
494.605	8766.84
494.808	8856.95
495.012	9041.27
495.215	9147.76
495.419	9321.84
495.622	8973.69
495.825	9250.16
496.029	9252.21
496.232	9547.12
496.436	9340.27
496.639	9545.07
496.843	9549.17
497.046	9741.68
497.249	9917.8
497.453	9969
497.656	10001.77
497.859	9969
498.063	10020.2
498.266	10276.2
498.469	10302.82
498.673	10511.71
498.876	10626.4
499.079	10614.11
499.282	10573.15
499.485	11060.57
499.689	11091.29
499.892	11097.43
500.095	11033.94
500.298	11375.95
500.501	11427.15
500.705	11715.92
500.908	11855.18
501.111	11912.52
501.314	11947.34
501.517	12084.55
501.72	12160.33
501.923	12268.87
502.126	12586.3
502.329	12617.02
502.532	12815.68
502.735	13008.19
502.938	13124.92
503.141	13102.39
503.344	13372.72
503.547	13387.06
503.75	13780.27
503.953	13602.1
504.156	14159.14
504.359	13931.82
504.562	14251.3
504.765	14349.61
504.968	14597.41
505.17	14705.95
505.373	14828.83
505.576	14984.48
505.779	15160.6
505.982	15238.42
506.185	15410.45
506.387	15494.42
506.59	15451.41
506.793	15928.59
506.996	15861.01
507.198	16540.93
507.401	16567.56
507.604	16540.93
507.807	17061.12
508.009	17112.31
508.212	16858.37
508.415	17270.01
508.617	17427.7
508.82	17585.4
509.022	17485.05
509.225	18062.57
509.428	18062.57
509.63	18476.26
509.833	18287.85
510.035	18957.53
510.238	18646.24
510.44	19010.78
510.643	19139.8
510.845	19490.01
511.048	19330.27
511.25	19651.8
511.453	19854.55
511.655	20448.46
511.858	20452.55
512.06	20432.07
512.262	20731.08
512.465	20686.02
512.667	20944.06
512.87	21566.65
513.072	21445.82
513.274	21441.72
513.477	21933.23
513.679	22039.73
513.881	22064.3
514.084	22416.55
514.286	22414.51
514.488	22893.73
514.69	23606.42
514.893	23438.49
515.095	23723.16
515.297	23786.65
515.499	23692.44
515.701	24188.05
515.904	24315.02
516.106	24523.91
516.308	24763.53
516.51	25113.73
516.712	25080.96
516.914	25298.05
517.116	25801.85
517.318	25877.62
517.52	26262.64
517.722	26184.82
517.925	26473.58
518.127	26961
518.329	26905.7
518.531	26958.95
518.733	27300.96
518.935	27626.59
519.136	27739.22
519.338	28036.18
519.54	28329.04
519.742	28458.06
519.944	28511.31
520.146	28922.95
520.348	29144.13
520.55	29189.19
520.752	29428.8
520.954	29660.22
521.155	29783.1
521.357	30207.03
521.559	30446.64
521.761	30567.47
521.963	30581.81
522.164	30938.15
522.366	31142.95
522.568	31681.56
522.77	31536.16
522.971	31904.79
523.173	31693.85
523.375	32062.49
523.576	31939.61
523.778	32250.9
523.98	32537.62
524.181	32664.59
524.383	32715.79
524.584	33383.43
524.786	33317.89
524.988	33078.28
525.189	33565.7
525.391	33766.4
525.592	33784.83
525.794	34022.39
525.995	34182.13
526.197	34345.97
526.398	34124.79
526.6	34659.31
526.801	34755.57
527.003	34774
527.204	34575.34
527.406	35234.79
527.607	35140.58
527.808	35372
528.01	34898.92
528.211	35181.54
528.412	35916.76
528.614	35509.22
528.815	35574.75
529.016	35873.76
529.218	35773.41
529.419	35763.17
529.62	36008.92
529.822	36142.04
530.023	36183
530.224	36168.66
530.425	35970.01
530.626	36027.35
530.828	36066.27
531.029	36568.02
531.23	36342.74
531.431	36281.3
531.632	36598.74
531.833	36731.86
532.035	36606.93
532.236	36340.69
532.437	36957.13
532.638	36244.44
532.839	36873.17
533.04	36846.54
533.241	36281.3
533.442	37206.98
533.643	36725.71
533.844	36811.73
534.045	36834.25
534.246	36748.24
534.447	36772.81
534.648	36840.4
534.849	37245.9
535.05	36619.22
535.251	37002.19
535.451	37108.68
535.652	36750.29
535.853	37358.53
536.054	37059.53
536.255	37198.79
536.456	37002.19
536.657	37295.05
536.857	36987.85
537.058	36821.97
537.259	37297.09
537.46	37131.21
537.66	36944.84
537.861	37295.05
538.062	36979.66
538.263	37168.07
538.463	36871.12
538.664	36649.94
538.865	36983.76
539.065	37329.86
539.266	36826.06
539.466	37053.39
539.667	36420.56
539.868	37852.09
540.068	36631.51
540.269	37090.25
540.469	37184.46
540.67	37061.58
540.87	36971.47
541.071	36729.81
541.271	36969.42
541.472	37319.62
541.672	36735.95
541.873	36848.59
542.073	36510.67
542.274	37151.69
542.474	36973.52
542.675	36522.96
542.875	37305.29
543.075	36926.41
543.276	36666.32
543.476	36975.56
543.676	36774.86
543.877	36811.73
544.077	36746.19
544.277	36662.22
544.478	36643.79
544.678	36641.74
544.878	37297.09
545.078	37024.72
545.279	36692.94
545.479	36398.04
545.679	36518.87
545.879	36783.05
546.079	36754.38
546.28	36635.6
546.48	36576.21
546.68	36772.81
546.88	36664.27
547.08	36731.86
547.28	36897.74
547.48	36420.56
547.68	36672.46
547.88	36637.65
548.081	36860.88
548.281	36588.5
548.481	36477.91
548.681	36846.54
548.881	36762.58
549.081	36688.85
549.28	36834.25
549.48	36889.55
549.68	36723.66
549.88	37020.62
550.08	36512.72
550.28	36785.1
550.48	36914.12
550.68	37053.39
550.88	36619.22
551.08	36633.55
551.279	36344.79
551.479	36486.1
551.679	36645.84
551.879	36580.31
552.079	36742.1
552.278	36332.5
552.478	36537.3
552.678	36129.75
552.878	36809.68
553.077	36631.51
553.277	36426.71
553.477	36858.83
553.676	36490.2
553.876	36391.89
554.076	36352.98
554.275	36398.04
554.475	36080.6
554.674	36871.12
554.874	36371.41
555.074	36316.12
555.273	36664.27
555.473	36670.42
555.672	35937.24
555.872	36258.77
556.071	36076.51
556.271	36561.87
556.47	35961.82
556.67	35912.67
556.869	36250.58
557.068	36350.93
557.268	35785.69
557.467	35689.44
557.667	36076.51
557.866	36027.35
558.065	36076.51
558.265	35668.96
558.464	35855.32
558.663	36086.75
558.863	35804.13
559.062	36275.16
559.261	35785.69
559.461	36322.26
559.66	35283.94
559.859	36226.01
560.058	35439.59
560.258	35722.21
560.457	35277.8
560.656	35935.2
560.855	35716.06
561.054	35611.62
561.253	35238.89
561.453	35513.31
561.652	35376.1
561.851	35347.43
562.05	35429.35
562.249	35142.63
562.448	35331.04
562.647	35283.94
562.846	35152.87
563.045	35652.58
563.244	34612.21
563.443	35214.31
563.642	34647.02
563.841	34528.24
564.04	34857.96
564.239	35034.09
564.438	34776.05
564.637	34647.02
564.836	34989.03
565.035	34345.97
565.234	34821.1
565.432	34595.82
565.631	34391.03
565.83	34755.57
566.029	34282.48
566.228	34190.33
566.427	34128.89
566.625	34241.53
566.824	33917.95
567.023	34419.7
567.222	33760.25
567.42	34317.3
567.619	34350.07
567.818	33987.58
568.016	33690.62
568.215	34065.4
568.414	33821.69
568.612	33817.6
568.811	33817.6
569.01	33723.39
569.208	33371.14
569.407	33719.29
569.605	33344.52
569.804	33694.72
570.002	33201.16
570.201	33111.05
570.4	32924.68
570.598	33119.24
570.797	32693.26
570.995	32853
571.193	32699.41
571.392	33176.58
571.59	32623.63
571.789	32709.64
571.987	32654.35
572.186	32363.54
572.384	32408.59
572.582	32836.62
572.781	32769.04
572.979	32130.07
573.177	32535.57
573.376	32211.99
573.574	31904.79
573.772	32216.08
573.971	32207.89
574.169	31839.26
574.367	31804.44
574.565	32164.89
574.763	31826.97
574.962	31667.23
575.16	31583.26
575.358	31921.18
575.556	31409.18
575.754	31417.38
575.952	31349.79
576.151	31259.68
576.349	31108.13
576.547	31013.93
576.745	31091.75
576.943	31153.19
577.141	30845.99
577.339	31130.66
577.537	30553.13
577.735	30796.84
577.933	30436.4
578.131	30719.02
578.329	30534.7
578.527	30247.99
578.725	29977.65
578.923	30465.07
579.121	29846.58
579.319	29840.44
579.516	30116.92
579.714	30235.7
579.912	29682.75
580.11	29705.27
580.308	29703.23
580.506	29514.81
580.704	29361.22
580.901	29641.79
581.099	29776.95
581.297	29455.42
581.495	29338.69
581.692	29510.72
581.89	29015.11
582.088	29234.24
582.285	29013.06
582.483	29252.67
582.681	29084.74
582.878	29029.45
583.076	28916.81
583.274	28914.76
583.471	28582.99
583.669	28572.75
583.866	28539.98
584.064	29023.3
584.262	28193.87
584.459	28589.13
584.657	28243.03
584.854	28376.14
585.052	28058.71
585.249	28357.71
585.447	28288.08
585.644	28257.36
585.841	27853.91
586.039	27976.79
586.236	28011.6
586.434	27530.33
586.631	27475.04
586.828	27683.93
587.026	27493.47
587.223	27288.67
587.42	27429.98
587.618	27454.56
587.815	27247.71
588.012	26877.03
588.21	26975.33
588.407	27530.33
588.604	26940.52
588.801	26948.71
588.999	26754.15
589.196	26754.15
589.393	26711.14
589.59	26670.19
589.787	26571.88
589.984	26309.74
590.182	26221.68
590.379	26498.16
590.576	26215.54
590.773	26330.22
590.97	26094.71
591.167	26223.73
591.364	25695.35
591.561	25875.57
591.758	25484.41
591.955	25932.92
592.152	25984.12
592.349	25779.32
592.546	25980.02
592.743	25721.98
592.94	25095.3
593.137	25361.53
593.334	25574.52
593.531	25060.48
593.727	25451.64
593.924	25443.45
594.121	25029.76
594.318	24882.31
594.515	24462.47
594.712	25261.18
594.908	25132.16
595.105	24951.94
595.302	24460.43
595.499	24831.11
595.696	24657.03
595.892	24540.3
596.089	24521.87
596.286	24528.01
596.482	24095.89
596.679	24431.76
596.876	24200.33
597.072	23823.51
597.269	24063.12
597.466	23930
597.662	23696.53
597.859	23780.5
598.055	23843.99
598.252	23536.79
598.448	23741.59
598.645	23690.39
598.841	23284.89
599.038	23542.94
599.234	23571.61
599.431	23073.95
599.627	23268.51
599.824	23536.79
600.02	23139.49
600.217	23323.8
600.413	22711.46
600.609	23010.46
600.806	23022.75
601.002	22822.05
601.198	22828.2
601.395	22576.3
601.591	22607.02
601.787	22418.6
601.984	22580.39
602.18	22527.14
602.376	22103.21
602.572	22201.52
602.769	22254.76
602.965	22230.19
603.161	22402.22
603.357	22111.41
603.553	22193.33
603.75	22256.81
603.946	22019.25
604.142	22121.65
604.338	21695.67
604.534	21824.69
604.73	21394.62
604.926	21515.45
605.122	21654.71
605.318	21339.32
605.514	21155.01
605.71	21402.81
605.906	21392.57
606.102	21220.54
606.298	21372.09
606.494	21329.08
606.69	21411
606.886	21198.01
607.082	20841.67
607.278	21202.11
607.474	20681.92
607.67	21034.18
607.866	20610.25
608.062	21054.65
608.257	20782.27
608.453	20970.69
608.649	20788.42
608.845	20585.67
609.041	20573.38
609.236	20757.7
609.432	20434.12
609.628	20501.7
609.824	20397.26
610.019	20366.54
610.215	20393.16
610.411	20569.29
610.606	20190.41
610.802	20686.02
610.998	20210.89
611.193	20495.56
611.389	20163.79
611.584	20120.78
611.78	19928.27
611.976	20204.75
612.171	20002
612.367	19805.39
612.562	19768.53
612.758	19619.03
612.953	19633.36
613.149	19991.76
613.344	19670.23
613.539	20120.78
613.735	19899.6
613.93	19809.49
614.126	19623.12
614.321	19739.86
614.517	19573.97
614.712	19373.27
614.907	19428.57
615.103	19721.43
615.298	19207.39
615.493	19547.35
615.688	18920.67
615.884	19389.66
616.079	19127.52
616.274	19289.31
616.47	19285.21
616.665	19406.04
616.86	19109.08
617.055	18965.73
617.25	19203.29
617.445	19248.35
617.641	18822.37
617.836	19129.56
618.031	18314.47
618.226	18613.48
618.421	18556.13
618.616	19090.65
618.811	18685.15
619.006	18500.84
619.201	18533.61
619.396	18263.27
619.591	17976.56
619.786	18388.2
619.981	18230.51
620.176	18470.12
620.371	18046.19
620.566	18040.04
620.761	17753.33
620.956	17970.41
621.151	17560.82
621.346	17771.76
621.541	17695.99
621.735	17642.74
621.93	17245.43
622.125	17499.38
622.32	17149.18
622.515	17247.48
622.709	17192.19
622.904	17460.47
623.099	17054.97
623.294	17110.27
623.488	16622.85
623.683	16772.35
623.878	16258.31
624.072	16676.1
624.267	16606.47
624.462	16418.05
624.656	16389.38
624.851	16293.13
625.046	16389.38
625.24	16229.64
625.435	16106.76
625.629	16010.51
625.824	15895.82
626.018	15996.17
626.213	15559.95
626.407	15566.1
626.602	15338.77
626.796	15545.62
626.991	15254.81
627.185	15346.97
627.38	15207.7
627.574	15131.93
627.768	14988.57
627.963	14898.46
628.157	14740.77
628.352	14679.33
628.546	14564.64
628.74	14681.38
628.935	14495.01
629.129	14544.16
629.323	14566.69
629.517	14310.69
629.712	14337.32
629.906	14226.73
630.1	14026.03
630.294	13948.2
630.489	14091.56
630.683	14214.44
630.877	13727.02
631.071	13911.34
631.265	13733.17
631.459	13593.9
631.653	13688.11
631.848	13446.45
632.042	13395.25
632.236	13432.12
632.43	13219.13
632.624	13143.35
632.818	13145.4
633.012	13260.09
633.206	13118.78
633.4	13020.47
633.594	12997.95
633.788	12877.12
633.982	12967.23
634.176	12868.92
634.369	12641.6
634.563	12825.92
634.757	12512.58
634.951	12567.87
635.145	12692.8
635.339	12246.34
635.533	12207.43
635.726	12330.31
635.92	12277.06
636.114	12172.61
636.308	12174.66
636.501	11939.15
636.695	11939.15
636.889	11769.16
637.083	11881.8
637.276	11777.36
637.47	11740.49
637.664	11382.1
637.857	11461.97
638.051	11576.66
638.244	11523.41
638.438	11273.56
638.632	11543.89
638.825	11378
639.019	11269.46
639.212	11074.9
639.406	11085.14
639.599	10825.05
639.793	10935.64
639.986	10804.57
640.18	10904.92
640.373	10954.07
640.567	10605.92
640.76	10702.17
640.954	10610.01
641.147	10573.15
641.34	10335.59
641.534	10823
641.727	10476.9
641.92	10507.62
642.114	10245.48
642.307	10196.32
642.5	10102.12
642.694	10200.42
642.887	10073.45
643.08	10237.28
643.273	9909.61
643.467	10071.4
643.66	9749.87
643.853	9735.53
644.046	9639.28
644.239	9827.69
644.432	9512.3
644.626	9559.41
644.819	9426.29
645.012	9538.93
645.205	9487.73
645.398	9463.15
645.591	9364.85
645.784	9327.99
645.977	9526.64
646.17	9233.78
646.363	9080.18
646.556	8975.74
646.749	9121.14
646.942	9112.95
647.135	9041.27
647.328	9012.6
647.521	8938.87
647.714	8803.71
647.907	8842.62
648.099	8619.39
648.292	8719.74
648.485	8678.78
648.678	8365.44
648.871	8721.79
649.064	8541.57
649.256	8527.23
649.449	8381.82
649.642	8238.47
649.835	8316.29
650.027	8228.23
650.22	8347.01
650.413	8111.49
650.605	8066.44
650.798	8060.29
650.991	7869.83
651.183	8066.44
651.376	7998.85
651.568	8070.53
651.761	7863.69
651.954	7695.75
652.146	7968.13
652.339	7898.5
652.531	7714.19
652.724	7609.74
652.916	7646.6
653.109	7638.41
653.301	7626.12
653.494	7472.53
653.686	7429.52
653.879	7566.73
654.071	7320.98
654.263	7130.52
654.456	7296.4
654.648	7439.76
654.84	7030.16
655.033	7220.63
655.225	7191.95
655.417	7210.39
655.61	7155.09
655.802	7009.69
655.994	6796.7
656.186	7116.18
656.379	6948.25
656.571	6933.91
656.763	6874.52
656.955	6874.52
657.148	6985.11
657.34	6776.22
657.532	6788.5
657.724	6571.42
657.916	6671.77
658.108	6772.12
658.3	6587.8
658.492	6526.36
658.684	6493.6
658.876	6557.08
659.068	6444.45
659.26	6385.05
659.452	6364.57
659.644	6206.88
659.836	6436.25
660.028	6495.64
660.22	6137.25
660.412	6292.9
660.604	6112.67
660.796	6208.93
660.988	6139.3
661.18	6075.81
661.372	6098.34
661.563	6204.83
661.755	5938.6
661.947	6018.47
662.139	5924.26
662.331	5819.82
662.522	6018.47
662.714	5782.95
662.906	5772.71
663.097	5735.85
663.289	5885.35
663.481	5637.55
663.673	5686.7
663.864	5502.38
664.056	5447.08
664.247	5563.82
664.439	5555.63
664.631	5580.2
664.822	5551.53
665.014	5455.28
665.205	5436.85
665.397	5600.68
665.588	5617.07
665.78	5359.02
665.971	5391.79
666.163	5549.48
666.354	5297.58
666.546	5170.61
666.737	5379.5
666.929	5195.18
667.12	5164.47
667.311	5320.11
667.503	5154.23
667.694	5236.14
667.885	5150.13
668.077	5100.98
668.268	5129.65
668.459	5066.16
668.651	4965.81
668.842	4779.45
669.033	4963.76
669.224	4844.98
669.416	5062.07
669.607	4896.18
669.798	4931
669.989	4877.75
670.18	4726.2
670.371	4806.07
670.563	4754.87
670.754	4853.17
670.945	4828.6
671.136	4808.12
671.327	4668.86
671.518	4523.45
671.709	4697.53
671.9	4607.42
672.091	4652.47
672.282	4660.66
672.473	4580.79
672.664	4462.01
672.855	4484.54
673.046	4535.74
673.237	4464.06
673.428	4535.74
673.619	4408.76
673.809	4371.9
674	4359.61
674.191	4433.34
674.382	4341.18
674.573	4404.67
674.764	4357.57
674.954	4502.97
675.145	4367.81
675.336	4304.32
675.527	4349.37
675.717	4289.98
675.908	4126.15
676.099	4197.82
676.289	4138.43
676.48	4195.78
676.671	4199.87
676.861	4212.16
677.052	4228.54
677.243	4017.6
677.433	4140.48
677.624	4154.82
677.814	4048.32
678.005	4066.75
678.195	4156.86
678.386	4060.61
678.576	3941.83
678.767	3984.84
678.957	3950.02
679.148	4019.65
679.338	3902.92
679.529	3904.96
679.719	3902.92
679.909	3839.43
680.1	3898.82
680.29	4005.31
680.481	3814.85
680.671	3892.68
680.861	3947.97
681.052	3845.57
681.242	3859.91
681.432	3818.95
681.622	3866.05
681.813	3894.72
682.003	3855.81
682.193	3829.19
682.383	3872.2
682.573	3810.76
682.764	3636.68
682.954	3935.68
683.144	3714.5
683.334	3757.51
683.524	3720.65
683.714	3827.14
683.904	3747.27
684.094	3866.05
684.284	3696.07
684.474	3626.44
684.664	3745.22
684.854	3687.88
685.044	3687.88
685.234	3630.54
685.424	3616.2
685.614	3657.16
685.804	3556.81
685.994	3558.86
686.184	3577.29
686.374	3532.23
686.564	3507.66
686.753	3407.31
686.943	3472.84
687.133	3634.63
687.323	3454.41
687.513	3452.36
687.702	3573.19
687.892	3513.8
688.082	3503.56
688.272	3493.32
688.461	3294.67
688.651	3417.55
688.841	3395.02
689.03	3358.16
689.22	3372.49
689.41	3397.07
689.599	3249.61
689.789	3147.22
689.979	3237.33
690.168	3134.93
690.358	3263.95
690.547	3159.5
690.737	3278.29
690.926	3247.57
691.116	3204.56
691.305	3352.01
691.495	3036.63
691.684	3149.26
691.874	3114.45
692.063	3204.56
692.252	3134.93
692.442	3114.45
692.631	3053.01
692.82	3196.37
693.01	3184.08
693.199	3042.77
693.388	3106.26
693.578	3065.3
693.767	3061.2
693.956	2981.33
694.146	3003.86
694.335	3048.91
694.524	2893.27
694.713	2934.23
694.902	2973.14
695.092	2880.98
695.281	2846.16
695.47	3005.91
695.659	3003.86
695.848	2786.77
696.037	2926.04
696.226	2993.62
696.415	2825.68
696.604	2993.62
696.793	2809.3
696.982	2862.55
697.171	2893.27
697.36	2846.16
697.549	2803.16
697.738	2893.27
697.927	2917.84
698.116	2801.11
698.305	2737.62
698.494	2852.31
698.683	2803.16
698.872	2745.81
699.061	2737.62
699.25	2754.01
699.438	2823.64
699.627	2872.79
699.816	2731.48
700.005	2774.49
700.193	2788.82
700.382	2727.38
700.571	2758.1
700.76	2819.54
700.948	2819.54
701.137	2647.51
701.326	2731.48
701.514	2758.1
701.703	2860.5
701.892	2729.43
702.08	2835.92
702.269	2639.32
702.457	2561.5
702.646	2672.09
702.834	2696.66
703.023	2596.31
703.212	2616.79
703.4	2633.18
703.589	2604.5
703.777	2674.14
703.965	2622.94
704.154	2649.56
704.342	2663.9
704.531	2581.98
704.719	2590.17
704.907	2608.6
705.096	2557.4
705.284	2559.45
705.472	2557.4
705.661	2561.5
705.849	2581.98
706.037	2573.78
706.226	2452.95
706.414	2471.39
706.602	2483.67
706.79	2551.26
706.979	2428.38
707.167	2622.94
707.355	2395.61
707.543	2557.4
707.731	2493.91
707.919	2491.87
708.107	2461.15
708.296	2524.63
708.484	2340.32
708.672	2506.2
708.86	2379.23
709.048	2418.14
709.236	2412
709.424	2489.82
709.612	2385.37
709.8	2418.14
709.988	2291.17
710.176	2379.23
710.364	2403.8
710.551	2434.52
710.739	2266.59
710.927	2446.81
711.115	2459.1
711.303	2348.51
711.491	2389.47
711.679	2313.69
711.866	2289.12
712.054	2309.6
712.242	2299.36
712.43	2495.96
712.617	2205.15
712.805	2346.46
712.993	2379.23
713.181	2223.58
713.368	2272.73
713.556	2379.23
713.744	2223.58
713.931	2262.49
714.119	2315.74
714.306	2299.36
714.494	2172.38
714.682	2233.82
714.869	2299.36
715.057	2213.34
715.244	2131.42
715.432	2244.06
715.619	2239.97
715.807	2235.87
715.994	2090.46
716.182	2110.94
716.369	2280.93
716.556	2192.86
716.744	2231.77
716.931	2096.61
717.119	2133.47
717.306	2166.24
717.493	2145.76
717.681	2065.89
717.868	2082.27
718.055	2135.52
718.242	2037.22
718.43	2156
718.617	2180.57
718.804	1983.97
718.991	2176.48
719.179	2078.18
719.366	2049.5
719.553	2045.41
719.74	1932.77
719.927	2127.33
720.114	2057.7
720.301	2051.55
720.488	2074.08
720.676	2047.46
720.863	2016.74
721.05	1943.01
721.237	1893.86
721.424	2002.4
721.611	2067.94
721.798	2112.99
721.985	2016.74
722.172	2049.5
722.358	1967.59
722.545	1943.01
722.732	1906.15
722.919	2000.35
723.106	2026.98
723.293	1947.11
723.48	1879.52
723.667	1998.31
723.853	1897.96
724.04	1945.06
724.227	1809.89
724.414	1848.8
724.6	2024.93
724.787	1902.05
724.974	1897.96
725.161	1840.61
725.347	1951.2
725.534	1781.22
725.72	1945.06
725.907	1844.71
726.094	1885.67
726.28	1928.67
726.467	1664.49
726.653	1834.47
726.84	1969.63
727.027	1877.48
727.213	1809.89
727.4	1687.01
727.586	1820.13
727.773	1818.08
727.959	1836.52
728.145	1865.19
728.332	1807.84
728.518	1805.8
728.705	1955.3
728.891	1730.02
729.077	1758.69
729.264	1742.31
729.45	1766.89
729.636	1793.51
729.823	1705.45
730.009	1807.84
730.195	1750.5
730.382	1779.17
730.568	1758.69
730.754	1742.31
730.94	1721.83
731.126	1746.41
731.313	1844.71
731.499	1752.55
731.685	1693.16
731.871	1807.84
732.057	1709.54
732.243	1664.49
732.429	1725.93
732.615	1707.49
732.801	1668.58
732.987	1625.58
733.173	1746.41
733.359	1682.92
733.545	1701.35
733.731	1672.68
733.917	1705.45
734.103	1672.68
734.289	1623.53
734.475	1660.39
734.661	1664.49
734.847	1615.34
735.033	1682.92
735.219	1732.07
735.404	1664.49
735.59	1652.2
735.776	1623.53
735.962	1576.42
736.148	1635.82
736.333	1562.09
736.519	1654.25
736.705	1603.05
736.89	1607.14
737.076	1576.42
737.262	1619.43
737.447	1611.24
737.633	1576.42
737.819	1592.81
738.004	1596.9
738.19	1584.62
738.375	1537.51
738.561	1603.05
738.747	1574.38
738.932	1512.94
739.118	1625.58
739.303	1492.46
739.489	1455.59
739.674	1601
739.859	1463.79
740.045	1453.55
740.23	1531.37
740.416	1465.83
740.601	1576.42
740.786	1508.84
740.972	1373.68
741.157	1396.2
741.342	1437.16
741.528	1412.59
741.713	1484.27
741.898	1371.63
742.084	1465.83
742.269	1388.01
742.454	1443.31
742.639	1406.44
742.824	1537.51
743.01	1377.77
743.195	1394.15
743.38	1408.49
743.565	1426.92
743.75	1467.88
743.935	1377.77
744.12	1377.77
744.305	1304.04
744.49	1406.44
744.675	1336.81
744.86	1396.2
745.045	1289.71
745.23	1334.76
745.415	1246.7
745.6	1306.09
745.785	1332.72
745.97	1299.95
746.155	1367.53
746.34	1269.23
746.525	1199.6
746.71	1250.8
746.895	1228.27
747.079	1189.36
747.264	1240.56
747.449	1295.85
747.634	1228.27
747.819	1152.49
748.003	1209.84
748.188	1195.5
748.373	1256.94
748.557	1093.1
748.742	1109.49
748.927	1123.82
749.111	1148.4
749.296	1091.06
749.481	1230.32
749.665	1103.34
749.85	1179.12
750.034	1172.97
750.219	1107.44
750.404	1121.77
750.588	1144.3
750.773	1226.22
750.957	1172.97
751.141	1134.06
751.326	1103.34
751.51	994.8
751.695	1134.06
751.879	1103.34
752.064	1107.44
752.248	1013.23
752.432	1037.81
752.617	1095.15
752.801	1050.1
752.985	994.8
753.17	1078.77
753.354	968.18
753.538	1033.71
753.722	968.18
753.907	978.42
754.091	861.68
754.275	1009.14
754.459	970.23
754.643	955.89
754.828	964.08
755.012	939.51
755.196	851.44
755.38	865.78
755.564	873.97
755.748	912.88
755.932	931.31
756.116	863.73
756.3	902.64
756.484	896.5
756.668	853.49
756.852	939.51
757.036	837.11
757.22	763.38
757.404	949.75
757.588	804.34
757.772	876.02
757.956	876.02
758.14	873.97
758.323	818.68
758.507	828.92
758.691	808.44
758.875	824.82
759.059	773.62
759.242	833.01
759.426	749.04
759.61	886.26
759.794	732.66
759.977	751.09
760.161	857.59
760.345	808.44
760.528	761.33
760.712	773.62
760.895	790
761.079	656.89
761.263	681.46
761.446	775.67
761.63	736.76
761.813	828.92
761.997	757.24
762.18	675.32
762.364	714.23
762.547	701.94
762.731	740.85
762.914	744.95
763.098	771.57
763.281	763.38
763.464	747
763.648	740.85
763.831	679.41
764.015	755.19
764.198	693.75
764.381	720.37
764.564	683.51
764.748	710.13
764.931	781.81
765.114	638.45
765.297	722.42
765.481	634.36
765.664	749.04
765.847	732.66
766.03	747
766.213	749.04
766.397	609.78
766.58	640.5
766.763	642.55
766.946	617.97
767.129	673.27
767.312	579.06
767.495	599.54
767.678	611.83
767.861	652.79
768.044	685.56
768.227	687.61
768.41	595.45
768.593	675.32
768.776	624.12
768.959	607.73
769.142	720.37
769.324	630.26
769.507	687.61
769.69	642.55
769.873	587.26
770.056	656.89
770.239	562.68
770.421	689.65
770.604	679.41
770.787	660.98
770.97	556.54
771.152	531.96
771.335	579.06
771.518	538.1
771.7	599.54
771.883	648.69
772.066	699.89
772.248	615.93
772.431	681.46
772.613	699.89
772.796	554.49
772.978	603.64
773.161	544.25
773.343	552.44
773.526	568.82
773.708	550.39
773.891	536.06
774.073	599.54
774.256	507.38
774.438	566.78
774.621	462.33
774.803	534.01
774.985	513.53
775.168	554.49
775.35	556.54
775.532	591.35
775.715	445.95
775.897	509.43
776.079	511.48
776.261	519.67
776.444	560.63
776.626	486.9
776.808	452.09
776.99	472.57
777.173	544.25
777.355	460.28
777.537	464.38
777.719	454.14
777.901	431.61
778.083	470.52
778.265	407.03
778.447	517.62
778.629	484.86
778.811	419.32
778.993	464.38
779.175	501.24
779.357	398.84
779.539	529.91
779.721	394.75
779.903	411.13
780.085	501.24
780.267	402.94
780.449	407.03
780.631	370.17
780.812	497.14
780.994	445.95
781.176	429.56
781.358	509.43
781.54	323.07
781.721	472.57
781.903	316.92
782.085	419.32
782.267	501.24
782.448	413.18
782.63	390.65
782.812	372.22
782.993	316.92
783.175	456.19
783.357	392.7
783.538	335.35
783.72	321.02
783.901	378.36
784.083	368.12
784.264	353.79
784.446	404.99
784.627	364.03
784.809	404.99
784.99	298.49
785.172	321.02
785.353	343.55
785.535	388.6
785.716	357.88
785.897	361.98
786.079	316.92
786.26	380.41
786.441	378.36
786.623	257.53
786.804	304.64
786.985	333.31
787.167	314.88
787.348	341.5
787.529	327.16
787.71	364.03
787.891	316.92
788.073	282.11
788.254	329.21
788.435	378.36
788.616	312.83
788.797	249.34
788.978	232.96
789.159	255.48
789.34	339.45
789.522	247.29
789.703	310.78
789.884	337.4
790.065	271.87
790.246	255.48
790.427	271.87
790.607	333.31
790.788	249.34
790.969	343.55
791.15	245.24
791.331	282.11
791.512	282.11
791.693	230.91
791.874	271.87
792.054	349.69
792.235	318.97
792.416	206.33
792.597	263.68
792.778	269.82
792.958	310.78
793.139	321.02
793.32	239.1
793.5	267.77
793.681	282.11
793.862	280.06
794.042	175.61
794.223	194.05
794.404	241.15
794.584	196.09
794.765	216.57
794.945	202.24
795.126	247.29
795.306	235
795.487	140.8
795.667	239.1
795.848	200.19
796.028	280.06
796.209	146.94
796.389	216.57
796.57	222.72
796.75	230.91
796.93	210.43
797.111	194.05
797.291	187.9
797.471	218.62
797.652	202.24
797.832	243.2
798.012	208.38
798.192	183.81
798.373	140.8
798.553	142.85
798.733	206.33
798.913	151.04
799.093	192
799.274	159.23
799.454	177.66
799.634	235
799.814	280.06
799.994	183.81
800.174	142.85
800.354	187.9
800.534	142.85
800.714	124.41
800.894	132.61
801.074	40.45
801.254	212.48
801.434	132.61
801.614	241.15
801.794	142.85
801.974	714.23
802.154	181.76
802.334	173.57
802.514	167.42
802.693	194.05
802.873	200.19
803.053	196.09
803.233	251.39
803.413	157.18
803.592	142.85
803.772	146.94
803.952	200.19
804.131	206.33
804.311	237.05
804.491	110.08
804.67	241.15
804.85	192
805.03	169.47
805.209	239.1
805.389	232.96
805.568	194.05
805.748	173.57
805.928	136.7
806.107	157.18
806.287	165.37
806.466	153.09
806.646	206.33
806.825	65.02
807.004	87.55
807.184	126.46
807.363	140.8
807.543	167.42
807.722	134.65
807.901	165.37
808.081	148.99
808.26	126.46
808.439	228.86
808.619	130.56
808.798	128.51
808.977	93.69
809.156	177.66
809.336	155.13
809.515	155.13
809.694	62.98
809.873	124.41
810.052	151.04
810.231	194.05
810.411	153.09
810.59	183.81
810.769	85.5
810.948	189.95
811.127	198.14
811.306	99.84
811.485	204.28
811.664	181.76
811.843	159.23
812.022	124.41
812.201	132.61
812.38	179.71
812.559	126.46
812.737	91.65
812.916	97.79
813.095	140.8
813.274	136.7
813.453	148.99
813.632	110.08
813.811	105.98
813.989	136.7
814.168	175.61
814.347	136.7
814.526	181.76
814.704	110.08
814.883	42.5
815.062	58.88
815.24	183.81
815.419	48.64
815.598	173.57
815.776	153.09
815.955	97.79
816.133	69.12
816.312	132.61
816.49	95.74
816.669	50.69
816.847	124.41
817.026	142.85
817.204	89.6
817.383	93.69
817.561	34.3
817.74	105.98
817.918	62.98
818.097	110.08
818.275	116.22
818.453	122.37
818.632	95.74
818.81	120.32
818.988	79.36
819.167	83.45
819.345	60.93
819.523	116.22
819.701	77.31
819.879	101.89
820.058	132.61
820.236	99.84
820.414	148.99
820.592	118.27
820.77	58.88
820.948	67.07
821.127	67.07
821.305	116.22
821.483	110.08
821.661	77.31
821.839	48.64
822.017	67.07
822.195	151.04
822.373	138.75
822.551	77.31
822.729	67.07
822.907	17.92
823.085	13.82
823.262	136.7
823.44	95.74
823.618	140.8
823.796	132.61
823.974	77.31
824.152	58.88
824.329	44.54
824.507	77.31
824.685	91.65
824.863	101.89
825.04	83.45
825.218	71.17
825.396	36.35
825.574	54.78
825.751	128.51
825.929	56.83
826.107	85.5
826.284	42.5
826.462	79.36
826.639	83.45
826.817	34.3
826.994	142.85
827.172	95.74
827.349	95.74
827.527	75.26
827.704	22.02
827.882	67.07
828.059	56.83
828.237	99.84
828.414	124.41
828.591	-51.71
828.769	56.83
828.946	9.73
829.124	112.13
829.301	91.65
829.478	108.03
829.655	85.5
829.833	97.79
830.01	60.93
830.187	99.84
830.364	54.78
830.542	108.03
830.719	101.89
830.896	120.32
831.073	60.93
831.25	99.84
831.427	110.08
831.604	22.02
831.782	91.65
831.959	83.45
832.136	42.5
832.313	75.26
832.49	177.66
832.667	126.46
832.844	26.11
833.021	126.46
833.198	42.5
833.374	32.26
833.551	89.6
833.728	83.45
833.905	79.36
834.082	38.4
834.259	65.02
834.436	62.98
834.612	11.78
834.789	42.5
834.966	38.4
835.143	83.45
835.319	95.74
835.496	30.21
835.673	26.11
835.85	118.27
836.026	79.36
836.203	83.45
836.38	13.82
836.556	50.69
836.733	44.54
836.909	11.78
837.086	134.65
837.262	-4.61
837.439	50.69
837.616	120.32
837.792	3.58
837.968	103.93
838.145	17.92
838.321	26.11
838.498	9.73
838.674	126.46
838.851	17.92
839.027	50.69
839.203	130.56
839.38	83.45
839.556	-12.8
839.732	93.69
839.909	42.5
840.085	60.93
840.261	71.17
840.437	46.59
840.614	3.58
840.79	46.59
840.966	42.5
841.142	67.07
841.318	67.07
841.494	54.78
841.671	44.54
841.847	3.58
842.023	13.82
842.199	34.3
842.375	83.45
842.551	58.88
842.727	42.5
842.903	52.74
843.079	-6.66
843.255	52.74
843.431	9.73
843.607	67.07
843.783	42.5
843.959	54.78
844.134	28.16
844.31	19.97
844.486	75.26
844.662	89.6
844.838	95.74
845.013	75.26
845.189	34.3
845.365	83.45
845.541	75.26
845.716	34.3
845.892	77.31
846.068	67.07
846.244	22.02
846.419	32.26
846.595	108.03
846.77	38.4
846.946	99.84
847.122	34.3
847.297	9.73
847.473	112.13
847.648	5.63
847.824	-2.56
847.999	-2.56
848.175	99.84
848.35	58.88
848.526	38.4
848.701	42.5
848.876	32.26
849.052	46.59
849.227	95.74
849.403	13.82
849.578	140.8
849.753	54.78
849.929	83.45
850.104	15.87
850.279	67.07
850.454	52.74
850.63	67.07
850.805	11.78
850.98	62.98
851.155	42.5
851.33	110.08
851.505	-2.56
851.681	99.84
851.856	60.93
852.031	19.97
852.206	105.98
852.381	26.11
852.556	36.35
852.731	11.78
852.906	-23.04
853.081	3.58
853.256	38.4
853.431	-2.56
853.606	26.11
853.781	44.54
853.956	19.97
854.131	30.21
854.305	91.65
854.48	-14.85
854.655	32.26
854.83	44.54
855.005	-23.04
855.18	42.5
855.354	85.5
855.529	28.16
855.704	50.69
855.879	132.61
856.053	30.21
856.228	34.3
856.403	-12.8
856.577	-6.66
856.752	-20.99
856.926	-2.56
857.101	42.5
857.276	52.74
857.45	42.5
857.625	1.54
857.799	34.3
857.974	108.03
858.148	19.97
858.323	79.36
858.497	44.54
858.672	-31.23
858.846	54.78
859.02	67.07
859.195	-39.42
859.369	9.73
859.543	34.3
859.718	91.65
859.892	124.41
860.066	-43.52
860.241	-10.75
860.415	-4.61
860.589	26.11
860.763	120.32
860.938	15.87
861.112	122.37
861.286	-6.66
861.46	9.73
861.634	13.82
861.808	93.69
861.982	11.78
862.157	-39.42
862.331	-27.14
862.505	-51.71
862.679	13.82
862.853	11.78
863.027	-10.75
863.201	99.84
863.375	1.54
863.549	-14.85
863.722	69.12
863.896	52.74
864.07	28.16
864.244	-14.85
864.418	42.5
864.592	36.35
864.766	67.07
864.939	87.55
865.113	24.06
865.287	9.73
865.461	-14.85
865.634	44.54
865.808	38.4
865.982	-20.99
866.156	17.92
866.329	38.4
866.503	19.97
866.676	91.65
866.85	44.54
867.024	69.12
867.197	54.78
867.371	38.4
867.544	9.73
867.718	-6.66
867.891	42.5
868.065	-6.66
868.238	81.41
868.412	65.02
868.585	17.92
868.759	-16.9
868.932	28.16
869.105	36.35
869.279	42.5
869.452	34.3
869.625	-14.85
869.799	-20.99
869.972	-45.57
870.145	40.45
870.319	-6.66
870.492	1.54
870.665	-0.51
870.838	-6.66
871.011	-12.8
871.185	11.78
871.358	54.78
871.531	-20.99
871.704	48.64
871.877	54.78
872.05	-14.85
872.223	-55.81
872.396	22.02
872.569	65.02
872.742	-4.61
872.915	17.92
873.088	-55.81
873.261	-8.7
873.434	58.88
873.607	83.45
873.78	-53.76
873.953	-20.99
874.126	9.73
874.299	17.92
874.471	-41.47
874.644	34.3
874.817	34.3
874.99	40.45
875.163	54.78
875.335	19.97
875.508	26.11
875.681	9.73
875.853	11.78
876.026	13.82
876.199	73.21
876.371	-29.18
876.544	46.59
876.717	-39.42
876.889	-43.52
877.062	-23.04
877.234	-12.8
877.407	-18.94
877.579	52.74
877.752	48.64
877.924	-23.04
878.097	67.07
878.269	87.55
878.442	36.35
878.614	50.69
878.786	58.88
878.959	-23.04
879.131	93.69
879.303	-18.94
879.476	38.4
879.648	79.36
879.82	-4.61
879.993	-121.34
880.165	-51.71
880.337	-64
880.509	58.88
880.681	-45.57
880.854	-55.81
881.026	77.31
881.198	93.69
881.37	3.58
881.542	26.11
881.714	17.92
881.886	-4.61
882.058	26.11
882.23	38.4
882.402	38.4
882.574	40.45
882.746	67.07
882.918	69.12
883.09	3.58
883.262	11.78
883.434	-12.8
883.606	28.16
883.778	19.97
883.95	34.3
884.122	28.16
884.293	52.74
884.465	28.16
884.637	3.58
884.809	-16.9
884.98	95.74
885.152	-23.04
885.324	73.21
885.496	44.54
885.667	1.54
885.839	19.97
886.011	40.45
886.182	22.02
886.354	5.63
886.525	-20.99
886.697	40.45
886.869	9.73
887.04	-29.18
887.212	-45.57
887.383	69.12
887.555	3.58
887.726	17.92
887.897	67.07
888.069	17.92
888.24	81.41
888.412	3.58
888.583	-18.94
888.754	56.83
888.926	-18.94
889.097	-43.52
889.268	69.12
889.44	-39.42
889.611	58.88
889.782	-20.99
889.953	3.58
890.125	28.16
890.296	54.78
890.467	7.68
890.638	-33.28
890.809	134.65
890.98	-14.85
891.151	-64
891.323	75.26
891.494	95.74
891.665	46.59
891.836	-20.99
892.007	15.87
892.178	54.78
892.349	-88.57
892.52	-14.85
892.691	54.78
892.862	48.64
893.032	13.82
893.203	-23.04
893.374	42.5
893.545	36.35
893.716	7.68
893.887	56.83
894.057	-10.75
894.228	24.06
894.399	-27.14
894.57	3.58
894.74	34.3
894.911	19.97
895.082	22.02
895.253	19.97
895.423	50.69
895.594	60.93
895.764	24.06
895.935	105.98
896.106	-31.23
896.276	-31.23
896.447	-0.51
896.617	-2.56
896.788	22.02
896.958	-53.76
897.129	-2.56
897.299	34.3
897.47	-25.09
897.64	36.35
897.81	77.31
897.981	48.64
898.151	-20.99
898.322	9.73
898.492	22.02
898.662	-6.66
898.832	105.98
899.003	36.35
899.173	62.98
899.343	-33.28
899.513	-8.7
