Data from USB4F104151__47__14-16-49-125.txt Node

Date: Thu Mar 13 14:16:49 EDT 2025
User: louis
Spectrometer: USB4F10415
Trigger mode: 4
Integration Time (sec): 2.000000E-2
Scans to average: 1
Electric dark correction enabled: true
Nonlinearity correction enabled: false
Boxcar width: 0
XAxis mode: Wavelengths
Number of Pixels in Spectrum: 3648
>>>>>Begin Spectral Data<<<<<
178.204	-82.77
178.424	-82.77
178.644	-82.77
178.864	-103.25
179.084	-101.2
179.304	36.01
179.524	9.39
179.744	31.91
179.964	68.78
180.184	-70.48
180.404	11.43
180.624	-43.86
180.844	40.11
181.064	-31.57
181.283	-43.86
181.503	-43.86
181.723	36.01
181.943	15.53
182.163	76.97
182.383	40.11
182.602	38.06
182.822	48.3
183.042	40.11
183.262	-17.24
183.482	87.21
183.701	76.97
183.921	60.59
184.141	7.34
184.361	103.59
184.58	27.82
184.8	56.49
185.02	-19.29
185.239	46.25
185.459	74.92
185.679	119.98
185.898	-33.62
186.118	99.5
186.338	76.97
186.557	150.7
186.777	-27.48
186.997	68.78
187.216	-37.72
187.436	83.11
187.655	25.77
187.875	56.49
188.095	27.82
188.314	70.83
188.534	93.35
188.753	76.97
188.973	3.24
189.192	-35.67
189.412	46.25
189.631	44.2
189.851	60.59
190.07	19.63
190.29	85.16
190.509	11.43
190.729	60.59
190.948	81.07
191.168	105.64
191.387	64.68
191.607	23.72
191.826	81.07
192.045	-2.9
192.265	62.63
192.484	60.59
192.704	-17.24
192.923	-2.9
193.142	97.45
193.362	19.63
193.581	64.68
193.8	115.88
194.02	60.59
194.239	126.12
194.458	42.15
194.678	46.25
194.897	58.54
195.116	44.2
195.335	9.39
195.555	81.07
195.774	68.78
195.993	79.02
196.212	21.67
196.432	11.43
196.651	36.01
196.87	-11.09
197.089	117.93
197.308	99.5
197.528	91.31
197.747	21.67
197.966	27.82
198.185	93.35
198.404	-9.05
198.623	5.29
198.842	152.74
199.062	48.3
199.281	11.43
199.5	-9.05
199.719	85.16
199.938	38.06
200.157	117.93
200.376	40.11
200.595	76.97
200.814	60.59
201.033	76.97
201.252	-11.09
201.471	36.01
201.69	81.07
201.909	-0.85
202.128	44.2
202.347	38.06
202.566	-47.96
202.785	48.3
203.004	93.35
203.223	40.11
203.442	64.68
203.661	23.72
203.879	27.82
204.098	76.97
204.317	68.78
204.536	33.96
204.755	44.2
204.974	52.39
205.193	27.82
205.411	119.98
205.63	66.73
205.849	83.11
206.068	27.82
206.287	-13.14
206.505	83.11
206.724	60.59
206.943	29.87
207.162	42.15
207.381	72.87
207.599	27.82
207.818	44.2
208.037	85.16
208.255	19.63
208.474	76.97
208.693	44.2
208.911	44.2
209.13	27.82
209.349	56.49
209.567	93.35
209.786	101.55
210.005	95.4
210.223	50.35
210.442	40.11
210.661	9.39
210.879	113.83
211.098	21.67
211.316	46.25
211.535	89.26
211.753	-0.85
211.972	27.82
212.191	60.59
212.409	-9.05
212.628	81.07
212.846	19.63
213.065	9.39
213.283	93.35
213.502	17.58
213.72	99.5
213.938	54.44
214.157	27.82
214.375	93.35
214.594	-21.33
214.812	40.11
215.031	33.96
215.249	62.63
215.467	93.35
215.686	44.2
215.904	27.82
216.122	97.45
216.341	85.16
216.559	44.2
216.778	126.12
216.996	60.59
217.214	38.06
217.432	-70.48
217.651	11.43
217.869	-13.14
218.087	70.83
218.306	91.31
218.524	31.91
218.742	101.55
218.96	101.55
219.179	64.68
219.397	7.34
219.615	74.92
219.833	33.96
220.051	36.01
220.27	38.06
220.488	52.39
220.706	15.53
220.924	9.39
221.142	105.64
221.36	-0.85
221.578	87.21
221.796	62.63
222.015	5.29
222.233	13.48
222.451	27.82
222.669	-15.19
222.887	87.21
223.105	46.25
223.323	93.35
223.541	13.48
223.759	27.82
223.977	5.29
224.195	136.36
224.413	79.02
224.631	103.59
224.849	46.25
225.067	105.64
225.285	46.25
225.503	44.2
225.721	54.44
225.939	76.97
226.157	76.97
226.375	64.68
226.592	11.43
226.81	62.63
227.028	52.39
227.246	62.63
227.464	52.39
227.682	52.39
227.9	23.72
228.117	3.24
228.335	72.87
228.553	44.2
228.771	27.82
228.989	85.16
229.206	79.02
229.424	62.63
229.642	33.96
229.86	66.73
230.077	95.4
230.295	85.16
230.513	95.4
230.731	60.59
230.948	126.12
231.166	111.78
231.384	11.43
231.601	93.35
231.819	144.55
232.037	70.83
232.254	93.35
232.472	21.67
232.689	70.83
232.907	72.87
233.125	76.97
233.342	15.53
233.56	36.01
233.777	36.01
233.995	76.97
234.213	91.31
234.43	58.54
234.648	58.54
234.865	58.54
235.083	52.39
235.3	72.87
235.518	44.2
235.735	64.68
235.953	44.2
236.17	-23.38
236.388	19.63
236.605	68.78
236.822	23.72
237.04	105.64
237.257	36.01
237.475	64.68
237.692	5.29
237.909	76.97
238.127	31.91
238.344	81.07
238.562	126.12
238.779	-45.91
238.996	38.06
239.214	9.39
239.431	42.15
239.648	29.87
239.865	136.36
240.083	93.35
240.3	76.97
240.517	101.55
240.735	66.73
240.952	68.78
241.169	31.91
241.386	87.21
241.603	64.68
241.821	19.63
242.038	117.93
242.255	23.72
242.472	-0.85
242.689	85.16
242.907	87.21
243.124	101.55
243.341	15.53
243.558	60.59
243.775	-17.24
243.992	21.67
244.209	5.29
244.426	150.7
244.643	79.02
244.86	36.01
245.078	134.31
245.295	122.02
245.512	68.78
245.729	-7
245.946	52.39
246.163	105.64
246.38	5.29
246.597	11.43
246.814	29.87
247.031	56.49
247.248	85.16
247.464	105.64
247.681	134.31
247.898	11.43
248.115	70.83
248.332	68.78
248.549	107.69
248.766	122.02
248.983	62.63
249.2	44.2
249.417	-2.9
249.633	9.39
249.85	-13.14
250.067	60.59
250.284	72.87
250.501	7.34
250.717	126.12
250.934	-33.62
251.151	79.02
251.368	11.43
251.585	-13.14
251.801	33.96
252.018	36.01
252.235	93.35
252.451	23.72
252.668	81.07
252.885	48.3
253.102	36.01
253.318	7.34
253.535	15.53
253.752	-23.38
253.968	7.34
254.185	3.24
254.401	62.63
254.618	27.82
254.835	-2.9
255.051	40.11
255.268	11.43
255.484	101.55
255.701	-0.85
255.917	68.78
256.134	-19.29
256.351	62.63
256.567	-0.85
256.784	52.39
257	-39.76
257.217	85.16
257.433	68.78
257.65	46.25
257.866	-21.33
258.082	52.39
258.299	-62.29
258.515	138.41
258.732	25.77
258.948	36.01
259.165	7.34
259.381	13.48
259.597	38.06
259.814	70.83
260.03	48.3
260.246	44.2
260.463	138.41
260.679	70.83
260.895	31.91
261.112	27.82
261.328	38.06
261.544	60.59
261.761	56.49
261.977	70.83
262.193	7.34
262.409	19.63
262.626	70.83
262.842	103.59
263.058	-21.33
263.274	56.49
263.49	62.63
263.707	54.44
263.923	93.35
264.139	-31.57
264.355	21.67
264.571	76.97
264.787	3.24
265.004	140.46
265.22	66.73
265.436	64.68
265.652	15.53
265.868	81.07
266.084	-13.14
266.3	13.48
266.516	29.87
266.732	46.25
266.948	46.25
267.164	50.35
267.38	52.39
267.596	60.59
267.812	117.93
268.028	150.7
268.244	27.82
268.46	68.78
268.676	38.06
268.892	119.98
269.108	3.24
269.324	36.01
269.54	31.91
269.756	60.59
269.972	27.82
270.188	79.02
270.403	-45.91
270.619	54.44
270.835	128.17
271.051	109.74
271.267	76.97
271.483	15.53
271.698	-17.24
271.914	7.34
272.13	72.87
272.346	76.97
272.562	50.35
272.777	31.91
272.993	19.63
273.209	68.78
273.425	29.87
273.64	19.63
273.856	91.31
274.072	11.43
274.287	113.83
274.503	3.24
274.719	-31.57
274.934	79.02
275.15	7.34
275.366	38.06
275.581	111.78
275.797	-60.24
276.012	-52.05
276.228	93.35
276.444	13.48
276.659	81.07
276.875	-25.43
277.09	122.02
277.306	85.16
277.521	89.26
277.737	52.39
277.952	150.7
278.168	46.25
278.383	36.01
278.599	68.78
278.814	3.24
279.03	33.96
279.245	136.36
279.461	64.68
279.676	97.45
279.892	15.53
280.107	13.48
280.322	-54.1
280.538	122.02
280.753	130.22
280.969	93.35
281.184	48.3
281.399	33.96
281.615	64.68
281.83	134.31
282.045	17.58
282.26	11.43
282.476	87.21
282.691	101.55
282.906	19.63
283.122	27.82
283.337	-11.09
283.552	19.63
283.767	27.82
283.983	79.02
284.198	87.21
284.413	36.01
284.628	-19.29
284.843	70.83
285.058	152.74
285.274	-33.62
285.489	11.43
285.704	52.39
285.919	36.01
286.134	99.5
286.349	56.49
286.564	85.16
286.779	19.63
286.995	70.83
287.21	21.67
287.425	52.39
287.64	-43.86
287.855	81.07
288.07	46.25
288.285	68.78
288.5	33.96
288.715	142.5
288.93	126.12
289.145	19.63
289.36	60.59
289.575	-7
289.79	111.78
290.004	19.63
290.219	19.63
290.434	66.73
290.649	60.59
290.864	66.73
291.079	-35.67
291.294	70.83
291.509	46.25
291.724	3.24
291.938	36.01
292.153	76.97
292.368	5.29
292.583	36.01
292.798	54.44
293.012	76.97
293.227	60.59
293.442	15.53
293.657	58.54
293.871	60.59
294.086	31.91
294.301	68.78
294.516	62.63
294.73	36.01
294.945	40.11
295.16	-4.95
295.374	119.98
295.589	95.4
295.804	33.96
296.018	3.24
296.233	66.73
296.447	-4.95
296.662	91.31
296.877	99.5
297.091	87.21
297.306	107.69
297.52	5.29
297.735	52.39
297.949	54.44
298.164	15.53
298.378	52.39
298.593	42.15
298.807	19.63
299.022	79.02
299.236	66.73
299.451	64.68
299.665	5.29
299.88	11.43
300.094	87.21
300.309	36.01
300.523	68.78
300.737	21.67
300.952	79.02
301.166	72.87
301.381	85.16
301.595	-0.85
301.809	-21.33
302.024	36.01
302.238	64.68
302.452	87.21
302.667	101.55
302.881	60.59
303.095	83.11
303.309	60.59
303.524	68.78
303.738	79.02
303.952	-11.09
304.166	44.2
304.381	13.48
304.595	60.59
304.809	31.91
305.023	60.59
305.237	27.82
305.452	124.07
305.666	158.89
305.88	79.02
306.094	50.35
306.308	62.63
306.522	29.87
306.736	36.01
306.95	46.25
307.164	74.92
307.379	11.43
307.593	150.7
307.807	101.55
308.021	33.96
308.235	46.25
308.449	25.77
308.663	93.35
308.877	111.78
309.091	52.39
309.305	31.91
309.519	38.06
309.733	62.63
309.947	58.54
310.161	85.16
310.374	19.63
310.588	3.24
310.802	74.92
311.016	81.07
311.23	74.92
311.444	40.11
311.658	72.87
311.872	74.92
312.085	33.96
312.299	132.26
312.513	162.98
312.727	48.3
312.941	36.01
313.154	97.45
313.368	29.87
313.582	11.43
313.796	36.01
314.009	44.2
314.223	74.92
314.437	36.01
314.651	19.63
314.864	29.87
315.078	36.01
315.292	76.97
315.505	50.35
315.719	44.2
315.933	68.78
316.146	38.06
316.36	19.63
316.573	115.88
316.787	44.2
317.001	-7
317.214	40.11
317.428	-27.48
317.641	117.93
317.855	64.68
318.068	76.97
318.282	21.67
318.495	85.16
318.709	97.45
318.922	-27.48
319.136	83.11
319.349	113.83
319.563	64.68
319.776	93.35
319.99	76.97
320.203	21.67
320.417	38.06
320.63	21.67
320.843	70.83
321.057	83.11
321.27	103.59
321.483	54.44
321.697	54.44
321.91	21.67
322.124	91.31
322.337	48.3
322.55	36.01
322.763	5.29
322.977	46.25
323.19	68.78
323.403	74.92
323.617	113.83
323.83	103.59
324.043	27.82
324.256	36.01
324.469	97.45
324.683	158.89
324.896	27.82
325.109	76.97
325.322	-9.05
325.535	99.5
325.748	76.97
325.962	29.87
326.175	17.58
326.388	101.55
326.601	72.87
326.814	5.29
327.027	31.91
327.24	97.45
327.453	-21.33
327.666	122.02
327.879	56.49
328.092	62.63
328.305	83.11
328.518	9.39
328.731	36.01
328.944	44.2
329.157	38.06
329.37	17.58
329.583	56.49
329.796	85.16
330.009	109.74
330.222	124.07
330.435	99.5
330.648	93.35
330.861	48.3
331.073	25.77
331.286	25.77
331.499	156.84
331.712	93.35
331.925	29.87
332.138	36.01
332.35	136.36
332.563	56.49
332.776	60.59
332.989	54.44
333.202	117.93
333.414	36.01
333.627	68.78
333.84	-15.19
334.053	38.06
334.265	99.5
334.478	64.68
334.691	52.39
334.903	85.16
335.116	60.59
335.329	21.67
335.541	42.15
335.754	83.11
335.966	52.39
336.179	3.24
336.392	76.97
336.604	64.68
336.817	68.78
337.029	119.98
337.242	66.73
337.454	72.87
337.667	60.59
337.88	122.02
338.092	140.46
338.305	79.02
338.517	62.63
338.729	81.07
338.942	72.87
339.154	79.02
339.367	36.01
339.579	130.22
339.792	101.55
340.004	115.88
340.217	33.96
340.429	44.2
340.641	27.82
340.854	27.82
341.066	85.16
341.278	5.29
341.491	142.5
341.703	68.78
341.915	44.2
342.128	89.26
342.34	31.91
342.552	107.69
342.764	68.78
342.977	62.63
343.189	152.74
343.401	27.82
343.613	42.15
343.826	74.92
344.038	3.24
344.25	52.39
344.462	72.87
344.674	27.82
344.886	130.22
345.099	117.93
345.311	68.78
345.523	52.39
345.735	60.59
345.947	132.26
346.159	13.48
346.371	-7
346.583	66.73
346.795	83.11
347.007	48.3
347.219	68.78
347.431	33.96
347.643	64.68
347.855	74.92
348.067	95.4
348.279	113.83
348.491	66.73
348.703	70.83
348.915	5.29
349.127	42.15
349.339	76.97
349.551	40.11
349.763	126.12
349.975	56.49
350.187	105.64
350.399	87.21
350.61	21.67
350.822	70.83
351.034	64.68
351.246	36.01
351.458	-4.95
351.669	115.88
351.881	95.4
352.093	128.17
352.305	83.11
352.517	38.06
352.728	83.11
352.94	23.72
353.152	105.64
353.363	27.82
353.575	38.06
353.787	117.93
353.999	122.02
354.21	68.78
354.422	38.06
354.633	70.83
354.845	70.83
355.057	64.68
355.268	56.49
355.48	-19.29
355.692	85.16
355.903	11.43
356.115	54.44
356.326	83.11
356.538	111.78
356.749	83.11
356.961	99.5
357.172	36.01
357.384	-37.72
357.595	44.2
357.807	5.29
358.018	29.87
358.23	83.11
358.441	87.21
358.653	160.94
358.864	97.45
359.075	27.82
359.287	62.63
359.498	85.16
359.709	109.74
359.921	38.06
360.132	-15.19
360.344	93.35
360.555	1.19
360.766	36.01
360.977	54.44
361.189	142.5
361.4	-29.52
361.611	87.21
361.823	56.49
362.034	134.31
362.245	68.78
362.456	119.98
362.667	62.63
362.879	119.98
363.09	76.97
363.301	48.3
363.512	17.58
363.723	81.07
363.935	70.83
364.146	93.35
364.357	81.07
364.568	52.39
364.779	72.87
364.99	99.5
365.201	38.06
365.412	64.68
365.623	68.78
365.834	107.69
366.045	23.72
366.256	111.78
366.467	31.91
366.678	136.36
366.889	60.59
367.1	89.26
367.311	54.44
367.522	50.35
367.733	144.55
367.944	122.02
368.155	134.31
368.366	101.55
368.577	138.41
368.788	148.65
368.999	74.92
369.209	138.41
369.42	156.84
369.631	85.16
369.842	58.54
370.053	60.59
370.264	48.3
370.474	44.2
370.685	-7
370.896	85.16
371.107	50.35
371.317	134.31
371.528	36.01
371.739	109.74
371.95	64.68
372.16	81.07
372.371	27.82
372.582	44.2
372.792	68.78
373.003	62.63
373.214	87.21
373.424	95.4
373.635	56.49
373.846	111.78
374.056	60.59
374.267	70.83
374.477	142.5
374.688	124.07
374.898	50.35
375.109	85.16
375.319	56.49
375.53	146.6
375.74	79.02
375.951	31.91
376.161	95.4
376.372	93.35
376.582	17.58
376.793	134.31
377.003	85.16
377.214	117.93
377.424	3.24
377.635	68.78
377.845	76.97
378.055	85.16
378.266	1.19
378.476	109.74
378.686	64.68
378.897	105.64
379.107	58.54
379.317	21.67
379.528	101.55
379.738	136.36
379.948	-7
380.158	101.55
380.369	15.53
380.579	79.02
380.789	44.2
380.999	187.56
381.21	93.35
381.42	76.97
381.63	19.63
381.84	91.31
382.05	81.07
382.261	85.16
382.471	64.68
382.681	44.2
382.891	109.74
383.101	99.5
383.311	29.87
383.521	113.83
383.731	156.84
383.941	97.45
384.151	89.26
384.361	27.82
384.571	74.92
384.781	115.88
384.991	93.35
385.201	160.94
385.411	48.3
385.621	105.64
385.831	109.74
386.041	101.55
386.251	79.02
386.461	109.74
386.671	138.41
386.881	146.6
387.091	85.16
387.301	142.5
387.511	44.2
387.72	60.59
387.93	70.83
388.14	126.12
388.35	7.34
388.56	150.7
388.769	136.36
388.979	101.55
389.189	56.49
389.399	72.87
389.609	85.16
389.818	132.26
390.028	81.07
390.238	134.31
390.447	85.16
390.657	103.59
390.867	56.49
391.076	44.2
391.286	56.49
391.496	124.07
391.705	85.16
391.915	152.74
392.125	150.7
392.334	119.98
392.544	93.35
392.753	68.78
392.963	52.39
393.172	81.07
393.382	109.74
393.591	142.5
393.801	72.87
394.01	93.35
394.22	105.64
394.429	134.31
394.639	119.98
394.848	132.26
395.058	162.98
395.267	150.7
395.477	146.6
395.686	109.74
395.895	162.98
396.105	185.51
396.314	144.55
396.524	117.93
396.733	126.12
396.942	119.98
397.152	109.74
397.361	113.83
397.57	85.16
397.78	191.66
397.989	54.44
398.198	109.74
398.407	169.13
398.617	109.74
398.826	113.83
399.035	199.85
399.244	126.12
399.453	187.56
399.663	152.74
399.872	146.6
400.081	175.27
400.29	160.94
400.499	183.46
400.708	54.44
400.917	93.35
401.127	119.98
401.336	113.83
401.545	169.13
401.754	115.88
401.963	171.18
402.172	197.8
402.381	191.66
402.59	175.27
402.799	175.27
403.008	167.08
403.217	113.83
403.426	134.31
403.635	150.7
403.844	205.99
404.053	134.31
404.262	191.66
404.471	216.23
404.68	242.85
404.888	122.02
405.097	201.9
405.306	208.04
405.515	191.66
405.724	193.7
405.933	167.08
406.142	203.94
406.35	257.19
406.559	285.86
406.768	292.01
406.977	208.04
407.185	175.27
407.394	322.73
407.603	314.53
407.812	220.33
408.02	236.71
408.229	302.25
408.438	330.92
408.646	330.92
408.855	326.82
409.064	281.77
409.272	300.2
409.481	427.17
409.69	410.79
409.898	404.64
410.107	445.6
410.315	382.12
410.524	285.86
410.733	486.56
410.941	421.03
411.15	472.23
411.358	504.99
411.567	443.56
411.775	556.19
411.984	527.52
412.192	535.71
412.401	521.38
412.609	576.67
412.818	668.83
413.026	580.77
413.234	597.15
413.443	646.3
413.651	642.21
413.86	674.98
414.068	760.99
414.276	806.05
414.485	760.99
414.693	885.92
414.901	857.25
415.11	867.49
415.318	830.62
415.526	949.4
415.734	865.44
415.943	1000.6
416.151	1051.8
416.359	1000.6
416.567	1055.9
416.776	1127.58
416.984	1229.98
417.192	1117.34
417.4	1207.45
417.608	1195.16
417.817	1303.7
418.025	1322.13
418.233	1414.29
418.441	1457.3
418.649	1445.01
418.857	1545.36
419.065	1565.84
419.273	1553.55
419.481	1588.37
419.689	1823.89
419.897	1879.18
420.105	1830.03
420.313	1848.46
420.521	1991.82
420.729	1946.76
420.937	2004.11
421.145	2165.9
421.353	2315.4
421.561	2370.69
421.769	2374.79
421.977	2428.04
422.185	2534.53
422.393	2655.36
422.601	2718.85
422.809	2784.38
423.017	2847.87
423.224	2960.51
423.432	3118.2
423.64	3146.87
423.848	3366.01
424.056	3185.79
424.263	3411.06
424.471	3476.6
424.679	3560.56
424.887	3667.06
425.094	3851.38
425.302	3837.04
425.51	3861.62
425.718	4160.62
425.925	4277.35
426.133	4371.56
426.341	4508.77
426.548	4787.3
426.756	4783.2
426.964	4844.64
427.171	5094.49
427.379	5170.27
427.586	5428.31
427.794	5420.12
428.001	5719.12
428.209	5909.58
428.417	5844.05
428.624	6343.75
428.832	6167.63
429.039	6210.64
429.247	6243.4
429.454	6829.12
429.662	7255.1
429.869	6753.35
430.076	7187.52
430.284	6827.07
430.491	7457.85
430.699	7791.67
430.906	7787.57
431.114	8070.19
431.321	8041.52
431.528	8285.23
431.736	8961.06
431.943	9147.42
432.15	8981.54
432.358	9040.93
432.565	9667.61
432.772	9571.35
432.979	10130.45
433.187	10226.7
433.394	10284.05
433.601	10998.79
433.808	10886.15
434.016	11013.12
434.223	11383.8
434.43	11987.96
434.637	11840.5
434.844	12504.04
435.052	12899.3
435.259	12733.42
435.466	12747.75
435.673	12815.34
435.88	13794.26
436.087	14365.65
436.294	14164.95
436.501	14060.5
436.708	14166.99
436.915	14691.27
437.122	15285.19
437.329	15455.17
437.537	15674.3
437.743	15799.23
437.95	15858.62
438.157	16741.29
438.364	17152.93
438.571	17292.19
438.778	17486.75
438.985	19131.27
439.192	18369.43
439.399	18779.02
439.606	18357.14
439.813	19508.1
440.02	20683.63
440.227	20042.62
440.433	20061.05
440.64	20599.66
440.847	20624.24
441.054	21154.66
441.261	22188.89
441.467	22137.69
441.674	22444.88
441.881	23493.44
442.088	23016.27
442.294	23110.47
442.501	23716.67
442.708	24298.3
442.914	25117.48
443.121	25932.57
443.328	25639.72
443.534	27267.85
443.741	26346.26
443.948	25987.87
444.154	27929.34
444.361	27839.23
444.568	28134.14
444.774	28130.05
444.981	28062.46
445.187	29137.65
445.394	30087.9
445.6	29926.11
445.807	32496.31
446.013	31040.21
446.22	32096.96
446.426	33313.45
446.633	33673.9
446.839	34251.42
447.046	33213.1
447.252	34689.69
447.459	34992.79
447.665	34665.11
447.871	36358.78
448.078	37896.81
448.284	36100.74
448.491	36885.11
448.697	38328.93
448.903	39363.15
449.11	39422.55
449.316	38455.9
449.522	39101.01
449.728	40170.05
449.935	40657.47
450.141	40577.6
450.347	41581.1
450.553	40157.77
450.76	40589.89
450.966	42406.44
451.172	41554.48
451.378	42322.47
451.584	41916.97
451.791	42762.78
451.997	42586.66
452.203	43434.52
452.409	43411.99
452.615	42930.72
452.821	41472.56
453.027	40985.15
453.233	43233.81
453.44	41497.14
453.646	42072.62
453.852	42293.8
454.058	42856.99
454.264	41878.06
454.47	42457.63
454.676	41323.06
454.882	42541.6
455.088	38988.38
455.294	39830.09
455.5	40598.08
455.705	40759.87
455.911	38746.72
456.117	38842.97
456.323	37896.81
456.529	36094.6
456.735	37642.86
456.941	36663.93
457.147	36184.71
457.352	34794.14
457.558	34470.56
457.764	34736.79
457.97	33954.47
458.176	33231.54
458.381	32944.82
458.587	31552.2
458.793	31689.42
458.999	29909.73
459.204	32201.41
459.41	31075.02
459.616	29108.97
459.821	29446.89
460.027	29270.76
460.233	28715.76
460.438	27374.34
460.644	27685.64
460.85	26090.27
461.055	25760.55
461.261	25824.03
461.466	23798.59
461.672	23202.63
461.878	24728.37
462.083	23268.17
462.289	22723.41
462.494	22440.79
462.7	21414.76
462.905	21181.29
463.111	21777.25
463.316	21627.74
463.522	21080.94
463.727	21244.77
463.932	21177.19
464.138	21175.14
464.343	21093.22
464.549	20683.63
464.754	20796.27
464.959	21056.36
465.165	20757.36
465.37	20067.19
465.575	19358.6
465.781	20388.72
465.986	20212.6
466.191	19639.17
466.397	18877.32
466.602	18279.32
466.807	18676.62
467.012	18928.52
467.218	18799.5
467.423	18459.54
467.628	18604.94
467.833	19702.65
468.038	18588.56
468.244	18383.76
468.449	18910.09
468.654	18353.04
468.859	18156.44
469.064	18041.75
469.269	17339.3
469.474	17419.17
469.679	17890.2
469.885	17427.36
470.09	17785.76
470.295	17476.51
470.5	17071.01
470.705	17111.97
470.91	16683.95
471.115	16454.58
471.32	16802.73
471.525	16800.68
471.73	16475.06
471.935	16180.15
472.139	15834.04
472.344	16018.36
472.549	15858.62
472.754	15557.57
472.959	15602.62
473.164	15014.85
473.369	14906.31
473.574	15555.52
473.778	15322.05
473.983	15111.11
474.188	15076.29
474.393	14365.65
474.598	14590.92
474.802	14355.41
475.007	14224.34
475.212	14310.35
475.417	13655
475.621	13718.49
475.826	13765.59
476.031	13489.12
476.235	13274.08
476.44	13419.49
476.645	12989.41
476.849	13370.33
477.054	12979.17
477.259	12831.72
477.463	12837.86
477.668	12741.61
477.872	12573.67
478.077	12448.75
478.282	12307.44
478.486	12133.36
478.691	12028.92
478.895	12045.3
479.1	11811.83
479.304	11961.33
479.509	11734.01
479.713	11777.01
479.918	11490.3
480.122	11377.66
480.326	11578.36
480.531	11447.29
480.735	11138.05
480.94	11103.23
481.144	11676.66
481.348	11070.47
481.553	11164.67
481.757	10857.48
481.961	11043.84
482.166	11369.47
482.37	11166.72
482.574	10791.94
482.778	11049.99
482.983	11291.65
483.187	11224.06
483.391	11228.16
483.595	10935.3
483.8	10791.94
484.004	10957.83
484.208	11029.51
484.412	11054.08
484.616	11179.01
484.821	11031.55
485.025	10847.24
485.229	11006.98
485.433	10980.36
485.637	11011.07
485.841	10644.49
486.045	10750.98
486.249	11015.17
486.453	10773.51
486.657	10984.45
486.861	11015.17
487.065	10955.78
487.269	11090.95
487.473	10671.11
487.677	11023.36
487.881	11047.94
488.085	10851.33
488.289	10949.64
488.493	10951.68
488.697	11080.71
488.901	10898.44
489.105	11058.18
489.309	10957.83
489.512	11361.28
489.716	11066.37
489.92	11037.7
490.124	10992.64
490.328	11441.15
490.531	11136
490.735	11308.03
490.939	11101.19
491.143	11310.08
491.346	11125.76
491.55	11480.06
491.754	11545.59
491.958	11557.88
492.161	11418.62
492.365	11521.02
492.569	11525.11
492.772	11361.28
492.976	11758.58
493.18	11680.76
493.383	11838.45
493.587	11766.78
493.79	11979.76
493.994	12041.2
494.197	12102.64
494.401	11965.43
494.605	12049.39
494.808	12452.84
495.012	12370.93
495.215	12397.55
495.419	12370.93
495.622	12377.07
495.825	12676.07
496.029	12618.73
496.232	12872.68
496.436	12811.24
496.639	13239.26
496.843	13378.53
497.046	13265.89
497.249	13706.2
497.453	13435.87
497.656	13638.62
497.859	13720.54
498.063	13863.9
498.266	14158.8
498.469	14449.61
498.673	14492.62
498.876	14496.72
499.079	14621.64
499.282	14805.96
499.485	14826.44
499.689	15043.53
499.892	15301.57
500.095	15248.32
500.298	15768.51
500.501	15344.58
500.705	15940.54
500.908	16141.24
501.111	16542.64
501.314	16380.85
501.517	16473.01
501.72	16884.65
501.923	16546.73
502.126	17093.54
502.329	17365.92
502.532	17464.22
502.735	17597.34
502.938	17968.02
503.141	17675.16
503.344	18408.34
503.547	18396.05
503.75	18377.62
503.953	18682.77
504.156	19082.12
504.359	19155.85
504.562	19430.27
504.765	20097.91
504.968	19944.31
505.17	20302.71
505.373	19956.6
505.576	20583.28
505.779	20706.16
505.982	20759.41
506.185	21207.91
506.387	21398.37
506.59	21603.17
506.793	21812.06
506.996	21769.05
507.198	22336.34
507.401	22190.94
507.604	22534.99
507.807	23046.99
508.009	23198.54
508.212	23180.1
508.415	23593.79
508.617	23958.33
508.82	23968.57
509.022	24036.16
509.225	24355.64
509.428	24836.91
509.63	24879.92
509.833	25045.8
510.035	25881.38
510.238	25561.89
510.44	26139.42
510.643	26409.75
510.845	26563.35
511.048	26360.6
511.25	26946.32
511.453	26960.66
511.655	28117.76
511.858	27681.54
512.06	28033.79
512.262	27753.22
512.465	28465.91
512.667	28652.28
512.87	28973.81
513.072	29027.06
513.274	29399.79
513.477	30292.7
513.679	30055.14
513.881	30694.1
514.084	30573.27
514.286	30870.23
514.488	31044.3
514.69	32017.09
514.893	31963.84
515.095	32033.47
515.297	32230.08
515.499	32477.88
515.701	32981.68
515.904	33274.54
516.106	33090.23
516.308	33856.17
516.51	34011.81
516.712	34077.35
516.914	34501.28
517.116	35109.52
517.318	34892.44
517.52	35173.01
517.722	35209.87
517.925	35799.69
518.127	36618.88
518.329	36530.81
518.531	36287.1
518.733	37206.64
518.935	37454.45
519.136	37825.13
519.338	37802.6
519.54	38298.21
519.742	38242.92
519.944	38980.18
520.146	39162.45
520.348	39430.74
520.55	39500.37
520.752	39641.68
520.954	40507.97
521.155	40145.48
521.357	40548.93
521.559	41120.31
521.761	41071.16
521.963	41378.36
522.164	41996.84
522.366	42002.99
522.568	41689.65
522.77	42502.69
522.971	43082.27
523.173	42738.21
523.375	43057.69
523.576	43100.7
523.778	43002.39
523.98	43973.13
524.181	43792.91
524.383	43952.65
524.584	44542.47
524.786	44499.46
524.988	44972.54
525.189	45470.2
525.391	45359.61
525.592	45165.05
525.794	45767.15
525.995	45926.89
526.197	46066.16
526.398	45902.32
526.6	45994.48
526.801	46219.75
527.003	46531.04
527.204	46518.76
527.406	46852.58
527.607	46983.65
527.808	47370.71
528.01	46344.68
528.211	47170.01
528.412	47364.57
528.614	47430.1
528.815	47497.69
529.016	47757.78
529.218	47618.52
529.419	47862.22
529.62	48054.73
529.822	47956.43
530.023	47931.86
530.224	48136.65
530.425	48359.88
530.626	47745.49
530.828	47753.68
531.029	48855.49
531.23	47839.7
531.431	48071.12
531.632	48710.08
531.833	48806.34
532.035	48570.82
532.236	48472.52
532.437	48773.57
532.638	48560.58
532.839	48708.04
533.04	48955.84
533.241	48544.2
533.442	48953.79
533.643	48902.59
533.844	48570.82
534.045	48839.11
534.246	48503.24
534.447	49103.29
534.648	48869.82
534.849	48445.9
535.05	48710.08
535.251	48792
535.451	48693.7
535.652	48839.11
535.853	48275.91
536.054	49103.29
536.255	48986.56
536.456	48347.59
536.657	49205.69
536.857	48384.46
537.058	48542.15
537.259	49021.37
537.46	48929.22
537.66	48486.85
537.861	48802.24
538.062	48472.52
538.263	48650.69
538.463	48159.18
538.664	48697.8
538.865	48531.91
539.065	48433.61
539.266	47995.34
539.466	49136.06
539.667	48148.94
539.868	49039.81
540.068	48277.96
540.269	48386.5
540.469	48710.08
540.67	48249.29
540.87	48075.21
541.071	47927.76
541.271	48374.22
541.472	48536.01
541.672	48363.98
541.873	47976.91
542.073	47792.59
542.274	48495.05
542.474	48146.89
542.675	48007.63
542.875	48456.14
543.075	48275.91
543.276	47630.8
543.476	48417.22
543.676	47692.24
543.877	48019.92
544.077	48118.22
544.277	47870.42
544.478	47641.04
544.678	48210.38
544.878	48277.96
545.078	48058.83
545.279	47782.35
545.479	47981.01
545.679	47944.14
545.879	48140.75
546.079	47559.12
546.28	47837.65
546.48	47628.76
546.68	48052.69
546.88	48038.35
547.08	47774.16
547.28	47696.34
547.48	47532.5
547.68	47741.39
547.88	47210.97
548.081	47823.31
548.281	47747.54
548.481	47960.53
548.681	48062.93
548.881	47350.23
549.081	47448.53
549.28	47352.28
549.48	48089.55
549.68	47397.34
549.88	48318.92
550.08	47776.21
550.28	47651.28
550.48	47665.62
550.68	47710.67
550.88	47333.85
551.08	47442.39
551.279	47978.96
551.479	47839.7
551.679	47579.6
551.879	47618.52
552.079	47456.73
552.278	47466.97
552.478	47829.46
552.678	47675.86
552.878	47829.46
553.077	47292.89
553.277	47358.42
553.477	47856.08
553.676	47286.75
553.876	47342.04
554.076	47466.97
554.275	47063.52
554.475	47028.7
554.674	47616.47
554.874	47608.28
555.074	47172.06
555.273	47643.09
555.473	47485.4
555.672	47043.04
555.872	47374.81
556.071	46772.7
556.271	47530.45
556.47	47333.85
556.67	46954.97
556.869	46973.41
557.068	47243.74
557.268	46817.76
557.467	47127
557.667	47094.24
557.866	46717.41
558.065	46612.96
558.265	46457.32
558.464	46242.28
558.663	47219.16
558.863	46477.8
559.062	46973.41
559.261	46191.08
559.461	46778.85
559.66	46412.26
559.859	46791.14
560.058	46178.79
560.258	46737.89
560.457	45810.16
560.656	46367.21
560.855	46305.77
561.054	46860.77
561.253	45820.4
561.453	46014.96
561.652	46295.53
561.851	46113.26
562.05	46014.96
562.249	45515.25
562.448	46371.3
562.647	46258.66
562.846	45642.23
563.045	45830.64
563.244	45531.64
563.443	45863.41
563.642	44962.3
563.841	45283.83
564.04	45031.93
564.239	45875.69
564.438	44904.96
564.637	45416.95
564.836	45777.39
565.035	45111.8
565.234	44890.62
565.432	44626.43
565.631	44784.13
565.83	44876.29
566.029	44399.11
566.228	44749.31
566.427	44407.3
566.625	44323.33
566.824	44071.43
567.023	44737.02
567.222	43864.59
567.42	44677.63
567.619	43833.87
567.818	44179.98
568.016	44331.53
568.215	44628.48
568.414	44132.87
568.612	44222.98
568.811	43702.8
569.01	43979.28
569.208	43328.02
569.407	43844.11
569.605	42859.04
569.804	43745.81
570.002	43194.9
570.201	43493.91
570.4	43158.04
570.598	43072.03
570.797	42496.55
570.995	43131.42
571.193	42422.82
571.392	42568.23
571.59	42693.15
571.789	42488.35
571.987	42172.97
572.186	42443.3
572.384	42367.52
572.582	42168.87
572.781	42365.48
572.979	41337.4
573.177	42054.18
573.376	41947.69
573.574	41552.43
573.772	41751.09
573.971	41685.55
574.169	41347.64
574.367	41163.32
574.565	41638.45
574.763	40540.74
574.962	41210.42
575.16	40895.03
575.358	41249.33
575.556	40475.2
575.754	40985.15
575.952	40356.42
576.151	41253.43
576.349	40151.62
576.547	40211.01
576.745	40622.65
576.943	40577.6
577.141	40344.13
577.339	40213.06
577.537	39592.53
577.735	39756.36
577.933	39395.92
578.131	39846.47
578.329	39543.38
578.527	39096.92
578.725	39443.02
578.923	39371.35
579.121	39232.08
579.319	39029.34
579.516	39590.48
579.714	39035.48
579.912	39070.29
580.11	38769.24
580.308	38578.78
580.506	38685.28
580.704	38173.28
580.901	38232.68
581.099	38765.15
581.297	38287.97
581.495	37917.29
581.692	37925.48
581.89	37677.68
582.088	38310.5
582.285	37702.25
582.483	37911.14
582.681	37413.49
582.878	37642.86
583.076	37241.46
583.274	37608.04
583.471	37130.87
583.669	37380.72
583.866	36577.92
584.064	37266.03
584.262	36491.9
584.459	37085.81
584.657	36612.73
584.854	37243.51
585.052	35867.27
585.249	36706.94
585.447	36352.64
585.644	36086.4
585.841	36020.87
586.039	36379.26
586.236	35936.9
586.434	35486.35
586.631	35461.77
586.828	35535.5
587.026	35412.62
587.223	35715.72
587.42	35199.63
587.618	35134.1
587.815	35226.26
588.012	35039.89
588.21	34921.11
588.407	35342.99
588.604	34927.25
588.801	34632.35
588.999	34593.43
589.196	34321.05
589.393	34319.01
589.59	34325.15
589.787	34095.78
589.984	34220.7
590.182	33862.31
590.379	34175.65
590.576	33960.61
590.773	33870.5
590.97	33628.84
591.167	33645.23
591.364	33432.24
591.561	33514.16
591.758	33295.02
591.955	33405.61
592.152	33360.56
592.349	33567.4
592.546	33536.68
592.743	33084.08
592.94	32447.16
593.137	32799.41
593.334	32729.78
593.531	32201.41
593.727	32567.99
593.924	32504.51
594.121	32277.18
594.318	32561.85
594.515	32215.74
594.712	32115.39
594.908	31890.12
595.105	32154.3
595.302	31582.92
595.499	31935.17
595.696	31562.44
595.892	31558.35
596.089	31619.78
596.286	31486.67
596.482	31281.87
596.679	31183.57
596.876	31255.25
597.072	30864.08
597.269	31089.36
597.466	30761.69
597.662	30647
597.859	30923.47
598.055	30937.81
598.252	30348
598.448	30626.52
598.645	30245.6
598.841	29924.07
599.038	30124.77
599.234	30356.19
599.431	29709.03
599.627	29954.79
599.824	29774.56
600.02	29895.39
600.217	29704.93
600.413	29723.37
600.609	29213.42
600.806	29274.86
601.002	29817.57
601.198	29240.04
601.395	29039.34
601.591	29149.93
601.787	28945.14
601.984	28863.22
602.18	29324.01
602.376	28459.77
602.572	28826.35
602.769	28562.17
602.965	28330.75
603.161	28549.88
603.357	28324.6
603.553	28138.24
603.75	28732.15
603.946	27931.39
604.142	28179.2
604.338	27382.54
604.534	28009.22
604.73	27622.15
604.926	27921.15
605.122	27753.22
605.318	27685.64
605.514	27523.85
605.71	27411.21
605.906	27118.35
606.102	27204.36
606.298	27327.24
606.494	27122.44
606.69	27204.36
606.886	27106.06
607.082	26858.26
607.278	27005.71
607.474	26522.39
607.67	26913.55
607.866	26313.5
608.062	26772.24
608.257	26383.13
608.453	26692.37
608.649	26678.04
608.845	26192.67
609.041	26413.85
609.236	26575.64
609.432	26235.67
609.628	26565.4
609.824	26198.81
610.019	26014.49
610.215	25965.34
610.411	26452.76
610.606	25639.72
610.802	26266.39
610.998	25856.8
611.193	25795.36
611.389	25934.62
611.584	25719.59
611.78	25682.72
611.976	25690.91
612.171	25559.84
612.367	25535.27
612.562	25305.9
612.758	25144.11
612.953	25287.46
613.149	25404.2
613.344	24927.02
613.539	25365.29
613.735	25051.95
613.93	25015.08
614.126	24818.48
614.321	25236.27
614.517	24759.09
614.712	24806.19
614.907	24566.58
615.103	24957.74
615.298	24871.73
615.493	24773.42
615.688	24369.97
615.884	25037.61
616.079	24408.89
616.274	24570.68
616.47	24466.23
616.665	24546.1
616.86	24036.16
617.055	24441.65
617.25	24288.06
617.445	24230.71
617.641	23745.34
617.836	24482.61
618.031	23690.05
618.226	24073.02
618.421	23841.6
618.616	23966.52
618.811	23417.67
619.006	23722.82
619.201	23186.25
619.396	23561.03
619.591	23130.95
619.786	23352.13
619.981	22983.5
620.176	23034.7
620.371	22952.78
620.566	22762.32
620.761	22854.48
620.956	22764.37
621.151	22526.8
621.346	22717.26
621.541	22254.42
621.735	22674.26
621.93	22039.39
622.125	21973.85
622.32	21746.53
622.515	21883.74
622.709	21629.79
622.904	21728.1
623.099	21724
623.294	21646.18
623.488	21267.3
623.683	21330.79
623.878	20759.41
624.072	21195.62
624.267	21255.01
624.462	20667.25
624.656	20757.36
624.851	20470.64
625.046	20478.83
625.24	20425.59
625.435	20433.78
625.629	20351.86
625.824	20028.28
626.018	20167.54
626.213	19831.68
626.407	19932.03
626.602	19510.14
626.796	19600.26
626.991	19432.32
627.185	19446.66
627.38	19510.14
627.574	19385.22
627.768	19059.59
627.963	18762.64
628.157	18856.84
628.352	19028.87
628.546	18627.47
628.74	18719.63
628.935	18518.93
629.129	18383.76
629.323	18217.88
629.517	18156.44
629.712	18131.86
629.906	18217.88
630.1	17453.98
630.294	17898.39
630.489	17658.78
630.683	17505.18
630.877	17353.63
631.071	17476.51
631.265	17392.55
631.459	17464.22
631.653	17054.63
631.848	17329.06
632.042	16903.08
632.236	17093.54
632.43	17060.77
632.624	16782.25
632.818	16724.91
633.012	16630.7
633.206	16456.62
633.4	16546.73
633.594	16163.76
633.788	16526.25
633.982	16198.58
634.176	16184.24
634.369	15889.34
634.563	15862.71
634.757	16026.55
634.951	15838.14
635.145	15817.66
635.339	15680.44
635.533	15438.78
635.726	15539.13
635.92	15307.71
636.114	15307.71
636.308	15371.2
636.501	15195.07
636.695	15133.64
636.889	14971.85
637.083	14934.98
637.276	15066.05
637.47	14814.15
637.664	14765
637.857	14891.98
638.051	14509.01
638.244	14343.12
638.438	14453.71
638.632	14390.22
638.825	14322.64
639.019	14240.72
639.212	14023.64
639.406	14171.09
639.599	13933.53
639.793	14269.39
639.986	13700.06
640.18	13851.61
640.373	13800.41
640.567	13523.93
640.76	13489.12
640.954	13439.97
641.147	13253.6
641.34	13183.97
641.534	13171.68
641.727	13188.07
641.92	13126.63
642.114	13057
642.307	13030.37
642.5	12966.88
642.694	12805.1
642.887	12753.9
643.08	12768.23
643.273	12473.32
643.467	12436.46
643.66	12352.49
643.853	12213.23
644.046	12166.13
644.239	12399.6
644.432	12176.37
644.626	12127.22
644.819	11906.04
645.012	11807.73
645.205	11824.12
645.398	12049.39
645.591	11627.51
645.784	11785.21
645.977	11598.84
646.17	11602.94
646.363	11566.07
646.556	11275.26
646.749	11418.62
646.942	11312.13
647.135	11185.15
647.328	11383.8
647.521	11115.52
647.714	10777.61
647.907	11240.45
648.099	11103.23
648.292	10961.92
648.485	10871.81
648.678	10871.81
648.871	10839.05
649.064	10478.6
649.256	10867.72
649.449	10628.1
649.642	10589.19
649.835	10431.5
650.027	10441.74
650.22	10300.43
650.413	10193.94
650.605	10173.46
650.798	10257.42
650.991	10015.76
651.183	10071.06
651.376	10112.02
651.568	10026
651.761	9927.7
651.954	9894.93
652.146	9886.74
652.339	9763.86
652.531	9853.97
652.724	9456.67
652.916	9548.82
653.109	9458.71
653.301	9583.64
653.494	9483.29
653.686	9274.4
653.879	9272.35
654.071	9239.58
654.263	9235.49
654.456	9165.85
654.648	9262.11
654.84	9092.13
655.033	9325.6
655.225	9055.26
655.417	9006.11
655.61	9036.83
655.802	9006.11
655.994	8735.78
656.186	8768.55
656.379	8825.89
656.571	8729.64
656.763	8672.29
656.955	8584.23
657.148	8612.9
657.34	8539.18
657.532	8518.7
657.724	8524.84
657.916	8371.24
658.108	8338.48
658.3	8309.8
658.492	8236.08
658.684	8090.67
658.876	8172.59
659.068	8262.7
659.26	8031.28
659.452	8203.31
659.644	8107.05
659.836	7959.6
660.028	7896.11
660.22	7828.53
660.412	7918.64
660.604	7580.73
660.796	7519.29
660.988	7875.63
661.18	7683.13
661.372	7599.16
661.563	7650.36
661.755	7414.84
661.947	7593.01
662.139	7347.26
662.331	7507
662.522	7418.94
662.714	7445.56
662.906	7466.04
663.097	7308.35
663.289	7091.26
663.481	7208
663.673	7081.02
663.864	7107.65
664.056	7220.28
664.247	7009.34
664.439	6972.48
664.631	6972.48
664.822	6941.76
665.014	6775.88
665.205	6919.23
665.397	6880.32
665.588	6925.38
665.78	6810.69
665.971	6902.85
666.163	6790.21
666.354	6589.51
666.546	6702.15
666.737	6577.22
666.929	6483.02
667.12	6663.24
667.311	6544.45
667.503	6480.97
667.694	6456.39
667.885	6507.59
668.077	6401.1
668.268	6464.58
668.459	6394.95
668.651	6435.91
668.842	6290.51
669.033	6261.84
669.224	6169.68
669.416	6202.44
669.607	6112.33
669.798	6067.28
669.989	6177.87
670.18	6208.59
670.371	6018.13
670.563	6081.61
670.754	6155.34
670.945	5903.44
671.136	5862.48
671.327	6024.27
671.518	5696.6
671.709	5903.44
671.9	6077.52
672.091	5835.86
672.282	5813.33
672.473	5551.19
672.664	5653.59
672.855	5575.77
673.046	5586.01
673.237	5678.16
673.428	5737.56
673.619	5575.77
673.809	5704.79
674	5626.96
674.191	5680.21
674.382	5428.31
674.573	5592.15
674.764	5657.68
674.954	5452.89
675.145	5422.17
675.336	5403.74
675.527	5436.5
675.717	5395.54
675.908	5287
676.099	5401.69
676.289	5438.55
676.48	5278.81
676.671	5385.3
676.861	5198.94
677.052	5205.08
677.243	5397.59
677.433	5248.09
677.624	5330.01
677.814	5221.47
678.005	5248.09
678.195	5241.95
678.386	5057.63
678.576	5012.57
678.767	5051.49
678.957	5100.64
679.148	5198.94
679.338	5174.36
679.529	5067.87
679.719	5090.4
679.909	5067.87
680.1	5112.92
680.29	5012.57
680.481	5084.25
680.671	4861.02
680.861	4891.74
681.052	4992.09
681.242	5074.01
681.432	4930.66
681.622	4916.32
681.813	4936.8
682.003	4803.68
682.193	4934.75
682.383	4897.89
682.573	4850.78
682.764	4783.2
682.954	4789.35
683.144	4729.95
683.334	4727.91
683.524	4842.59
683.714	4832.35
683.904	4836.45
684.094	4897.89
684.284	4768.87
684.474	4770.91
684.664	4740.19
684.854	4727.91
685.044	4791.39
685.234	4623.46
685.424	4748.39
685.614	4707.43
685.804	4713.57
685.994	4559.97
686.184	4521.06
686.374	4605.03
686.564	4418.66
686.753	4418.66
686.943	4484.2
687.133	4467.81
687.323	4451.43
687.513	4369.51
687.702	4467.81
687.892	4406.38
688.082	4564.07
688.272	4396.14
688.461	4265.07
688.651	4521.06
688.841	4230.25
689.03	4426.86
689.22	4299.88
689.41	4236.39
689.599	4269.16
689.789	4275.31
689.979	4357.22
690.168	4263.02
690.358	4189.29
690.547	4222.06
690.737	4209.77
690.926	4189.29
691.116	4158.57
691.305	4228.2
691.495	4043.88
691.684	4033.65
691.874	4029.55
692.063	4140.14
692.252	4019.31
692.442	4043.88
692.631	4027.5
692.82	4090.99
693.01	3863.66
693.199	4031.6
693.388	3988.59
693.578	3910.77
693.767	3898.48
693.956	3812.46
694.146	3888.24
694.335	3984.49
694.524	3945.58
694.713	3937.39
694.902	3880.05
695.092	3820.66
695.281	3822.7
695.47	3724.4
695.659	3841.14
695.848	3722.35
696.037	3746.93
696.226	3789.94
696.415	3759.22
696.604	3732.59
696.793	3757.17
696.982	3828.85
697.171	3800.18
697.36	3611.76
697.549	3769.46
697.738	3751.03
697.927	3708.02
698.116	3576.95
698.305	3611.76
698.494	3640.44
698.683	3720.31
698.872	3837.04
699.061	3656.82
699.25	3535.99
699.438	3615.86
699.627	3599.48
699.816	3673.2
700.005	3554.42
700.193	3566.71
700.382	3562.61
700.571	3554.42
700.76	3624.05
700.948	3574.9
701.137	3562.61
701.326	3544.18
701.514	3476.6
701.703	3478.65
701.892	3503.22
702.08	3454.07
702.269	3517.56
702.457	3411.06
702.646	3419.25
702.834	3435.64
703.023	3495.03
703.212	3482.74
703.4	3470.45
703.589	3507.32
703.777	3353.72
703.965	3327.1
704.154	3513.46
704.342	3423.35
704.531	3445.88
704.719	3222.65
704.907	3345.53
705.096	3329.14
705.284	3396.73
705.472	3406.97
705.661	3204.22
705.849	3239.03
706.037	3333.24
706.226	3282.04
706.414	3304.57
706.602	3275.9
706.79	3296.38
706.979	3271.8
707.167	3355.77
707.355	3222.65
707.543	3247.23
707.731	3236.99
707.919	3247.23
708.107	3198.07
708.296	3198.07
708.484	3093.63
708.672	3202.17
708.86	3234.94
709.048	3128.44
709.236	3120.25
709.424	3290.23
709.612	3069.05
709.8	3144.83
709.988	2942.08
710.176	3056.76
710.364	3110.01
710.551	3136.63
710.739	3099.77
710.927	3110.01
711.115	3208.31
711.303	3099.77
711.491	3107.96
711.679	3026.04
711.866	2933.89
712.054	3077.24
712.242	2845.82
712.43	3085.44
712.617	3054.72
712.805	3122.3
712.993	2952.32
713.181	2944.13
713.368	2929.79
713.556	2921.6
713.744	3007.61
713.931	3026.04
714.119	2858.11
714.306	2958.46
714.494	2942.08
714.682	2837.63
714.869	2862.21
715.057	2940.03
715.244	2788.48
715.432	2858.11
715.619	2907.26
715.807	2978.94
715.994	2720.9
716.182	2774.14
716.369	2903.17
716.556	2782.34
716.744	2911.36
716.931	2815.1
717.119	2724.99
717.306	2724.99
717.493	2634.88
717.681	2864.25
717.868	2776.19
718.055	2784.38
718.242	2780.29
718.43	2714.75
718.617	2704.51
718.804	2647.17
718.991	2731.14
719.179	2659.46
719.366	2698.37
719.553	2737.28
719.74	2583.68
719.927	2641.03
720.114	2694.27
720.301	2651.27
720.488	2595.97
720.676	2645.12
720.863	2528.39
721.05	2704.51
721.237	2665.6
721.424	2620.55
721.611	2479.24
721.798	2512
721.985	2552.96
722.172	2471.04
722.358	2593.92
722.545	2571.4
722.732	2454.66
722.919	2630.79
723.106	2606.21
723.293	2522.24
723.48	2544.77
723.667	2575.49
723.853	2403.46
724.04	2559.11
724.227	2518.15
724.414	2583.68
724.6	2550.92
724.787	2526.34
724.974	2501.76
725.161	2471.04
725.347	2479.24
725.534	2393.22
725.72	2534.53
725.907	2460.81
726.094	2491.52
726.28	2405.51
726.467	2417.8
726.653	2407.56
726.84	2524.29
727.027	2397.32
727.213	2438.28
727.4	2385.03
727.586	2366.6
727.773	2313.35
727.959	2514.05
728.145	2346.12
728.332	2356.36
728.518	2354.31
728.705	2370.69
728.891	2339.97
729.077	2321.54
729.264	2221.19
729.45	2198.67
729.636	2233.48
729.823	2425.99
730.009	2305.16
730.195	2321.54
730.382	2323.59
730.568	2327.69
730.754	2284.68
730.94	2237.58
731.126	2233.48
731.313	2235.53
731.499	2256.01
731.685	2247.82
731.871	2333.83
732.057	2307.21
732.243	2235.53
732.429	2124.94
732.615	2268.3
732.801	2301.06
732.987	2110.6
733.173	2133.13
733.359	2231.43
733.545	2198.67
733.731	2159.75
733.917	2096.27
734.103	2206.86
734.289	2219.14
734.475	2192.52
734.661	2217.1
734.847	2239.62
735.033	2167.95
735.219	2124.94
735.404	2079.88
735.59	2098.31
735.776	2018.44
735.962	2141.32
736.148	2102.41
736.333	2047.12
736.519	2096.27
736.705	2012.3
736.89	2083.98
737.076	2139.27
737.262	1993.87
737.447	2155.66
737.633	2102.41
737.819	2114.7
738.004	2112.65
738.19	2165.9
738.375	2063.5
738.561	2114.7
738.747	2014.35
738.932	1922.19
739.118	2180.23
739.303	1924.24
739.489	2043.02
739.674	2094.22
739.859	1963.15
740.045	1957
740.23	1989.77
740.416	1911.95
740.601	2014.35
740.786	1895.57
740.972	1911.95
741.157	2026.64
741.342	1885.33
741.528	1848.46
741.713	1930.38
741.898	1797.26
742.084	1864.85
742.269	1989.77
742.454	1916.05
742.639	1866.89
742.824	1830.03
743.01	1954.96
743.195	1862.8
743.38	1827.98
743.565	1840.27
743.75	1797.26
743.935	1848.46
744.12	1889.42
744.305	1739.92
744.49	1713.3
744.675	1772.69
744.86	1832.08
745.045	1756.3
745.23	1666.19
745.415	1655.95
745.6	1617.04
745.785	1645.71
745.97	1633.43
746.155	1672.34
746.34	1672.34
746.525	1690.77
746.71	1676.43
746.895	1608.85
747.079	1664.15
747.264	1645.71
747.449	1598.61
747.634	1508.5
747.819	1617.04
748.003	1600.66
748.188	1547.41
748.373	1580.18
748.557	1502.36
748.742	1528.98
748.927	1551.51
749.111	1518.74
749.296	1537.17
749.481	1479.83
749.665	1502.36
749.85	1414.29
750.034	1426.58
750.219	1393.81
750.404	1322.13
750.588	1455.25
750.773	1510.55
750.957	1436.82
751.141	1436.82
751.326	1385.62
751.51	1334.42
751.695	1402.01
751.879	1309.85
752.064	1426.58
752.248	1346.71
752.432	1379.48
752.617	1322.13
752.801	1320.09
752.985	1395.86
753.17	1363.09
753.354	1365.14
753.538	1285.27
753.722	1307.8
753.907	1176.73
754.091	1315.99
754.275	1324.18
754.459	1264.79
754.643	1299.61
754.828	1227.93
755.012	1272.98
755.196	1139.87
755.38	1240.22
755.564	1111.19
755.748	1170.58
755.932	1135.77
756.116	1238.17
756.3	1150.11
756.484	1150.11
756.668	1199.26
756.852	1135.77
757.036	1148.06
757.22	1000.6
757.404	1100.95
757.588	1070.23
757.772	1133.72
757.956	1150.11
758.14	1121.43
758.323	969.88
758.507	1059.99
758.691	1053.85
758.875	1031.32
759.059	1068.19
759.242	980.12
759.426	1084.57
759.61	1039.51
759.794	1037.47
759.977	1016.99
760.161	1117.34
760.345	982.17
760.528	1047.71
760.712	1021.08
760.895	1002.65
761.079	1021.08
761.263	957.6
761.446	1027.23
761.63	947.36
761.813	994.46
761.997	871.58
762.18	990.36
762.364	908.44
762.547	916.64
762.731	935.07
762.914	945.31
763.098	871.58
763.281	986.27
763.464	881.82
763.648	906.4
763.831	871.58
764.015	920.73
764.198	945.31
764.381	806.05
764.564	896.16
764.748	914.59
764.931	840.86
765.114	830.62
765.297	871.58
765.481	887.97
765.664	812.19
765.847	834.72
766.03	851.1
766.213	836.77
766.397	847.01
766.58	777.37
766.763	885.92
766.946	785.57
767.129	838.81
767.312	822.43
767.495	869.53
767.678	810.14
767.861	783.52
768.044	853.15
768.227	814.24
768.41	816.29
768.593	816.29
768.776	740.51
768.959	748.7
769.142	838.81
769.324	736.42
769.507	674.98
769.69	824.48
769.873	793.76
770.056	863.39
770.239	785.57
770.421	840.86
770.604	728.22
770.787	736.42
770.97	687.26
771.152	804
771.335	654.5
771.518	746.66
771.7	732.32
771.883	775.33
772.066	717.98
772.248	681.12
772.431	666.78
772.613	728.22
772.796	650.4
772.978	785.57
773.161	709.79
773.343	617.63
773.526	748.7
773.708	662.69
773.891	697.5
774.073	715.94
774.256	693.41
774.438	715.94
774.621	732.32
774.803	734.37
774.985	681.12
775.168	634.02
775.35	677.02
775.532	605.35
775.715	668.83
775.897	674.98
776.079	666.78
776.261	650.4
776.444	695.46
776.626	617.63
776.808	568.48
776.99	584.87
777.173	599.2
777.355	621.73
777.537	627.87
777.719	593.06
777.901	541.86
778.083	578.72
778.265	619.68
778.447	724.13
778.629	591.01
778.811	646.3
778.993	644.26
779.175	523.43
779.357	562.34
779.539	539.81
779.721	591.01
779.903	562.34
780.085	490.66
780.267	496.8
780.449	478.37
780.631	570.53
780.812	502.95
780.994	464.04
781.176	472.23
781.358	478.37
781.54	502.95
781.721	543.91
781.903	535.71
782.085	543.91
782.267	455.84
782.448	504.99
782.63	488.61
782.812	541.86
782.993	496.8
783.175	486.56
783.357	496.8
783.538	435.36
783.72	408.74
783.901	521.38
784.083	562.34
784.264	339.11
784.446	464.04
784.627	412.84
784.809	447.65
784.99	466.08
785.172	396.45
785.353	400.55
785.535	425.12
785.716	357.54
785.897	347.3
786.079	414.88
786.26	355.49
786.441	455.84
786.623	404.64
786.804	388.26
786.985	425.12
787.167	416.93
787.348	410.79
787.529	425.12
787.71	453.8
787.891	408.74
788.073	363.69
788.254	388.26
788.435	396.45
788.616	300.2
788.797	392.36
788.978	412.84
789.159	375.97
789.34	461.99
789.522	339.11
789.703	347.3
789.884	431.27
790.065	394.4
790.246	246.95
790.427	298.15
790.607	345.25
790.788	337.06
790.969	353.45
791.15	349.35
791.331	318.63
791.512	298.15
791.693	306.34
791.874	187.56
792.054	367.78
792.235	359.59
792.416	230.57
792.597	359.59
792.778	330.92
792.958	335.01
793.139	390.31
793.32	406.69
793.5	208.04
793.681	345.25
793.862	228.52
794.042	304.29
794.223	302.25
794.404	324.77
794.584	353.45
794.765	253.09
794.945	199.85
795.126	324.77
795.306	322.73
795.487	355.49
795.667	322.73
795.848	257.19
796.028	277.67
796.209	310.44
796.389	304.29
796.57	257.19
796.75	234.66
796.93	316.58
797.111	302.25
797.291	259.24
797.471	310.44
797.652	212.14
797.832	253.09
798.012	273.57
798.192	283.81
798.373	246.95
798.553	224.42
798.733	292.01
798.913	195.75
799.093	273.57
799.274	261.29
799.454	273.57
799.634	230.57
799.814	242.85
799.994	212.14
800.174	275.62
800.354	261.29
800.534	224.42
800.714	218.28
800.894	236.71
801.074	212.14
801.254	294.05
801.434	281.77
801.614	185.51
801.794	99.5
801.974	789.66
802.154	197.8
802.334	259.24
802.514	169.13
802.693	253.09
802.873	158.89
803.053	193.7
803.233	183.46
803.413	259.24
803.592	298.15
803.772	193.7
803.952	193.7
804.131	158.89
804.311	201.9
804.491	335.01
804.67	158.89
804.85	189.61
805.03	220.33
805.209	320.68
805.389	191.66
805.568	210.09
805.748	249
805.928	175.27
806.107	148.65
806.287	218.28
806.466	167.08
806.646	214.18
806.825	199.85
807.004	171.18
807.184	162.98
807.363	201.9
807.543	187.56
807.722	259.24
807.901	216.23
808.081	249
808.26	169.13
808.439	220.33
808.619	122.02
808.798	183.46
808.977	126.12
809.156	146.6
809.336	138.41
809.515	220.33
809.694	144.55
809.873	109.74
810.052	101.55
810.231	128.17
810.411	126.12
810.59	150.7
810.769	216.23
810.948	199.85
811.127	113.83
811.306	117.93
811.485	216.23
811.664	208.04
811.843	126.12
812.022	130.22
812.201	185.51
812.38	232.62
812.559	195.75
812.737	162.98
812.916	142.5
813.095	117.93
813.274	240.81
813.453	124.07
813.632	199.85
813.811	201.9
813.989	134.31
814.168	103.59
814.347	134.31
814.526	214.18
814.704	150.7
814.883	222.38
815.062	150.7
815.24	167.08
815.419	113.83
815.598	87.21
815.776	111.78
815.955	138.41
816.133	36.01
816.312	177.32
816.49	179.37
816.669	171.18
816.847	175.27
817.026	158.89
817.204	85.16
817.383	158.89
817.561	152.74
817.74	142.5
817.918	181.42
818.097	134.31
818.275	136.36
818.453	171.18
818.632	130.22
818.81	183.46
818.988	117.93
819.167	128.17
819.345	142.5
819.523	130.22
819.701	60.59
819.879	203.94
820.058	134.31
820.236	169.13
820.414	136.36
820.592	220.33
820.77	146.6
820.948	117.93
821.127	134.31
821.305	74.92
821.483	95.4
821.661	134.31
821.839	165.03
822.017	111.78
822.195	105.64
822.373	111.78
822.551	162.98
822.729	165.03
822.907	162.98
823.085	156.84
823.262	29.87
823.44	160.94
823.618	109.74
823.796	93.35
823.974	113.83
824.152	160.94
824.329	105.64
824.507	150.7
824.685	150.7
824.863	175.27
825.04	91.31
825.218	136.36
825.396	138.41
825.574	87.21
825.751	91.31
825.929	58.54
826.107	74.92
826.284	150.7
826.462	169.13
826.639	111.78
826.817	85.16
826.994	68.78
827.172	62.63
827.349	44.2
827.527	126.12
827.704	103.59
827.882	109.74
828.059	134.31
828.237	76.97
828.414	60.59
828.591	62.63
828.769	122.02
828.946	119.98
829.124	89.26
829.301	85.16
829.478	70.83
829.655	60.59
829.833	89.26
830.01	79.02
830.187	111.78
830.364	99.5
830.542	103.59
830.719	134.31
830.896	76.97
831.073	165.03
831.25	122.02
831.427	105.64
831.604	95.4
831.782	68.78
831.959	122.02
832.136	62.63
832.313	62.63
832.49	85.16
832.667	99.5
832.844	36.01
833.021	50.35
833.198	79.02
833.374	68.78
833.551	64.68
833.728	111.78
833.905	124.07
834.082	-17.24
834.259	101.55
834.436	13.48
834.612	122.02
834.789	111.78
834.966	64.68
835.143	62.63
835.319	70.83
835.496	68.78
835.673	50.35
835.85	103.59
836.026	103.59
836.203	146.6
836.38	89.26
836.556	13.48
836.733	126.12
836.909	160.94
837.086	93.35
837.262	93.35
837.439	72.87
837.616	54.44
837.792	-25.43
837.968	134.31
838.145	42.15
838.321	76.97
838.498	85.16
838.674	152.74
838.851	95.4
839.027	99.5
839.203	68.78
839.38	171.18
839.556	42.15
839.732	76.97
839.909	101.55
840.085	68.78
840.261	52.39
840.437	-0.85
840.614	93.35
840.79	70.83
840.966	119.98
841.142	111.78
841.318	87.21
841.494	81.07
841.671	150.7
841.847	52.39
842.023	5.29
842.199	130.22
842.375	140.46
842.551	31.91
842.727	31.91
842.903	76.97
843.079	42.15
843.255	117.93
843.431	72.87
843.607	146.6
843.783	111.78
843.959	122.02
844.134	76.97
844.31	97.45
844.486	23.72
844.662	64.68
844.838	27.82
845.013	76.97
845.189	103.59
845.365	93.35
845.541	54.44
845.716	76.97
845.892	58.54
846.068	72.87
846.244	119.98
846.419	27.82
846.595	3.24
846.77	36.01
846.946	31.91
847.122	3.24
847.297	46.25
847.473	60.59
847.648	31.91
847.824	81.07
847.999	38.06
848.175	52.39
848.35	60.59
848.526	87.21
848.701	44.2
848.876	52.39
849.052	93.35
849.227	36.01
849.403	25.77
849.578	103.59
849.753	66.73
849.929	23.72
850.104	76.97
850.279	72.87
850.454	128.17
850.63	101.55
850.805	11.43
850.98	44.2
851.155	52.39
851.33	-27.48
851.505	-54.1
851.681	70.83
851.856	17.58
852.031	79.02
852.206	113.83
852.381	-2.9
852.556	23.72
852.731	-23.38
852.906	87.21
853.081	46.25
853.256	66.73
853.431	36.01
853.606	42.15
853.781	87.21
853.956	-21.33
854.131	21.67
854.305	-27.48
854.48	76.97
854.655	56.49
854.83	-4.95
855.005	19.63
855.18	79.02
855.354	21.67
855.529	74.92
855.704	17.58
855.879	81.07
856.053	9.39
856.228	31.91
856.403	-0.85
856.577	93.35
856.752	17.58
856.926	76.97
857.101	54.44
857.276	-2.9
857.45	89.26
857.625	93.35
857.799	36.01
857.974	101.55
858.148	-7
858.323	-4.95
858.497	42.15
858.672	7.34
858.846	44.2
859.02	54.44
859.195	72.87
859.369	31.91
859.543	62.63
859.718	52.39
859.892	134.31
860.066	-41.81
860.241	1.19
860.415	-0.85
860.589	52.39
860.763	-25.43
860.938	7.34
861.112	85.16
861.286	66.73
861.46	44.2
861.634	56.49
861.808	52.39
861.982	-15.19
862.157	36.01
862.331	85.16
862.505	-13.14
862.679	21.67
862.853	-25.43
863.027	81.07
863.201	54.44
863.375	17.58
863.549	27.82
863.722	56.49
863.896	122.02
864.07	11.43
864.244	15.53
864.418	42.15
864.592	31.91
864.766	70.83
864.939	48.3
865.113	60.59
865.287	62.63
865.461	31.91
865.634	-33.62
865.808	19.63
865.982	46.25
866.156	25.77
866.329	81.07
866.503	48.3
866.676	87.21
866.85	44.2
867.024	13.48
867.197	27.82
867.371	64.68
867.544	21.67
867.718	44.2
867.891	7.34
868.065	31.91
868.238	23.72
868.412	74.92
868.585	29.87
868.759	-43.86
868.932	44.2
869.105	54.44
869.279	54.44
869.452	-25.43
869.625	27.82
869.799	-45.91
869.972	50.35
870.145	15.53
870.319	36.01
870.492	62.63
870.665	11.43
870.838	11.43
871.011	3.24
871.185	-0.85
871.358	-7
871.531	64.68
871.704	93.35
871.877	23.72
872.05	42.15
872.223	25.77
872.396	17.58
872.569	62.63
872.742	38.06
872.915	62.63
873.088	54.44
873.261	-13.14
873.434	64.68
873.607	29.87
873.78	60.59
873.953	29.87
874.126	3.24
874.299	-0.85
874.471	3.24
874.644	11.43
874.817	27.82
874.99	89.26
875.163	85.16
875.335	-33.62
875.508	76.97
875.681	44.2
875.853	9.39
876.026	-15.19
876.199	-4.95
876.371	31.91
876.544	64.68
876.717	21.67
876.889	40.11
877.062	25.77
877.234	-2.9
877.407	27.82
877.579	58.54
877.752	-54.1
877.924	11.43
878.097	56.49
878.269	48.3
878.442	-60.24
878.614	42.15
878.786	81.07
878.959	-2.9
879.131	72.87
879.303	7.34
879.476	38.06
879.648	36.01
879.82	33.96
879.993	15.53
880.165	117.93
880.337	-41.81
880.509	33.96
880.681	-47.96
880.854	-29.52
881.026	13.48
881.198	109.74
881.37	138.41
881.542	27.82
881.714	25.77
881.886	-4.95
882.058	11.43
882.23	64.68
882.402	-17.24
882.574	64.68
882.746	58.54
882.918	60.59
883.09	23.72
883.262	-4.95
883.434	72.87
883.606	-70.48
883.778	109.74
883.95	68.78
884.122	27.82
884.293	79.02
884.465	21.67
884.637	3.24
884.809	101.55
884.98	27.82
885.152	-19.29
885.324	76.97
885.496	-13.14
885.667	21.67
885.839	62.63
886.011	124.07
886.182	25.77
886.354	-4.95
886.525	5.29
886.697	5.29
886.869	31.91
887.04	-25.43
887.212	68.78
887.383	85.16
887.555	13.48
887.726	36.01
887.897	11.43
888.069	23.72
888.24	107.69
888.412	79.02
888.583	21.67
888.754	13.48
888.926	-35.67
889.097	31.91
889.268	-27.48
889.44	44.2
889.611	-2.9
889.782	31.91
889.953	44.2
890.125	74.92
890.296	50.35
890.467	-43.86
890.638	-0.85
890.809	29.87
890.98	-33.62
891.151	-80.72
891.323	85.16
891.494	-4.95
891.665	70.83
891.836	46.25
892.007	-15.19
892.178	56.49
892.349	23.72
892.52	83.11
892.691	-41.81
892.862	11.43
893.032	11.43
893.203	19.63
893.374	19.63
893.545	117.93
893.716	-93.01
893.887	-27.48
894.057	-19.29
894.228	-37.72
894.399	29.87
894.57	38.06
894.74	-2.9
894.911	70.83
895.082	15.53
895.253	54.44
895.423	70.83
895.594	40.11
895.764	23.72
895.935	19.63
896.106	44.2
896.276	23.72
896.447	85.16
896.617	-15.19
896.788	-23.38
896.958	-58.2
897.129	21.67
897.299	38.06
897.47	5.29
897.64	38.06
897.81	44.2
897.981	13.48
898.151	31.91
898.322	89.26
898.492	31.91
898.662	-50
898.832	-43.86
899.003	40.11
899.173	64.68
899.343	-13.14
899.513	-11.09
