Data from USB4F104151__75__14-17-30-351.txt Node

Date: Thu Mar 13 14:17:30 EDT 2025
User: louis
Spectrometer: USB4F10415
Trigger mode: 4
Integration Time (sec): 2.000000E-2
Scans to average: 1
Electric dark correction enabled: true
Nonlinearity correction enabled: false
Boxcar width: 0
XAxis mode: Wavelengths
Number of Pixels in Spectrum: 3648
>>>>>Begin Spectral Data<<<<<
178.204	-79.36
178.424	-79.36
178.644	-79.36
178.864	-69.12
179.084	-34.3
179.304	-60.93
179.524	4.61
179.744	0.51
179.964	76.29
180.184	-32.26
180.404	-7.68
180.624	-32.26
180.844	45.57
181.064	-40.45
181.283	-56.83
181.503	33.28
181.723	70.14
181.943	16.9
182.163	117.25
182.383	33.28
182.602	92.67
182.822	80.38
183.042	-7.68
183.262	-5.63
183.482	10.75
183.701	100.86
183.921	-7.68
184.141	-3.58
184.361	16.9
184.58	-48.64
184.8	74.24
185.02	70.14
185.239	41.47
185.459	82.43
185.679	107.01
185.898	31.23
186.118	158.21
186.338	8.7
186.557	76.29
186.777	10.75
186.997	100.86
187.216	41.47
187.436	74.24
187.655	74.24
187.875	102.91
188.095	82.43
188.314	74.24
188.534	94.72
188.753	25.09
188.973	31.23
189.192	39.42
189.412	47.62
189.631	41.47
189.851	16.9
190.07	115.2
190.29	6.66
190.509	35.33
190.729	100.86
190.948	145.92
191.168	143.87
191.387	104.96
191.607	12.8
191.826	33.28
192.045	59.9
192.265	78.33
192.484	61.95
192.704	35.33
192.923	72.19
193.142	94.72
193.362	104.96
193.581	61.95
193.8	0.51
194.02	111.1
194.239	39.42
194.458	59.9
194.678	37.38
194.897	45.57
195.116	43.52
195.335	2.56
195.555	51.71
195.774	86.53
195.993	49.66
196.212	66.05
196.432	74.24
196.651	100.86
196.87	37.38
197.089	131.58
197.308	59.9
197.528	94.72
197.747	55.81
197.966	16.9
198.185	82.43
198.404	59.9
198.623	145.92
198.842	49.66
199.062	70.14
199.281	98.81
199.5	-9.73
199.719	64
199.938	4.61
200.157	82.43
200.376	96.77
200.595	82.43
200.814	-7.68
201.033	20.99
201.252	57.86
201.471	35.33
201.69	70.14
201.909	-17.92
202.128	49.66
202.347	98.81
202.566	-3.58
202.785	68.09
203.004	70.14
203.223	107.01
203.442	31.23
203.661	82.43
203.879	135.68
204.098	107.01
204.317	41.47
204.536	141.82
204.755	88.57
204.974	119.29
205.193	43.52
205.411	123.39
205.63	35.33
205.849	119.29
206.068	29.18
206.287	115.2
206.505	90.62
206.724	76.29
206.943	25.09
207.162	39.42
207.381	98.81
207.599	64
207.818	100.86
208.037	47.62
208.255	-60.93
208.474	41.47
208.693	35.33
208.911	102.91
209.13	61.95
209.349	131.58
209.567	66.05
209.786	-13.82
210.005	92.67
210.223	0.51
210.442	88.57
210.661	45.57
210.879	90.62
211.098	-5.63
211.316	27.14
211.535	115.2
211.753	47.62
211.972	66.05
212.191	14.85
212.409	104.96
212.628	35.33
212.846	90.62
213.065	53.76
213.283	78.33
213.502	33.28
213.72	115.2
213.938	68.09
214.157	68.09
214.375	49.66
214.594	27.14
214.812	49.66
215.031	96.77
215.249	-32.26
215.467	33.28
215.686	53.76
215.904	107.01
216.122	117.25
216.341	102.91
216.559	53.76
216.778	82.43
216.996	76.29
217.214	70.14
217.432	25.09
217.651	-11.78
217.869	0.51
218.087	70.14
218.306	20.99
218.524	29.18
218.742	29.18
218.96	133.63
219.179	53.76
219.397	90.62
219.615	109.05
219.833	59.9
220.051	64
220.27	115.2
220.488	102.91
220.706	18.94
220.924	57.86
221.142	107.01
221.36	100.86
221.578	16.9
221.796	123.39
222.015	66.05
222.233	29.18
222.451	131.58
222.669	16.9
222.887	137.73
223.105	39.42
223.323	107.01
223.541	33.28
223.759	55.81
223.977	53.76
224.195	131.58
224.413	57.86
224.631	92.67
224.849	-19.97
225.067	51.71
225.285	61.95
225.503	70.14
225.721	41.47
225.939	100.86
226.157	37.38
226.375	139.77
226.592	49.66
226.81	72.19
227.028	29.18
227.246	115.2
227.464	61.95
227.682	64
227.9	53.76
228.117	127.49
228.335	35.33
228.553	8.7
228.771	94.72
228.989	68.09
229.206	20.99
229.424	-5.63
229.642	53.76
229.86	41.47
230.077	70.14
230.295	37.38
230.513	119.29
230.731	111.1
230.948	78.33
231.166	57.86
231.384	33.28
231.601	70.14
231.819	12.8
232.037	102.91
232.254	33.28
232.472	4.61
232.689	39.42
232.907	76.29
233.125	102.91
233.342	76.29
233.56	33.28
233.777	0.51
233.995	86.53
234.213	74.24
234.43	4.61
234.648	10.75
234.865	66.05
235.083	57.86
235.3	4.61
235.518	6.66
235.735	117.25
235.953	84.48
236.17	59.9
236.388	25.09
236.605	20.99
236.822	72.19
237.04	117.25
237.257	49.66
237.475	37.38
237.692	41.47
237.909	80.38
238.127	41.47
238.344	84.48
238.562	109.05
238.779	-26.11
238.996	55.81
239.214	-22.02
239.431	90.62
239.648	41.47
239.865	27.14
240.083	107.01
240.3	61.95
240.517	-62.98
240.735	61.95
240.952	109.05
241.169	43.52
241.386	94.72
241.603	25.09
241.821	2.56
242.038	119.29
242.255	86.53
242.472	14.85
242.689	78.33
242.907	125.44
243.124	49.66
243.341	45.57
243.558	31.23
243.775	64
243.992	68.09
244.209	33.28
244.426	78.33
244.643	90.62
244.86	39.42
245.078	-3.58
245.295	66.05
245.512	49.66
245.729	59.9
245.946	66.05
246.163	51.71
246.38	80.38
246.597	37.38
246.814	53.76
247.031	35.33
247.248	43.52
247.464	27.14
247.681	16.9
247.898	37.38
248.115	78.33
248.332	98.81
248.549	51.71
248.766	74.24
248.983	125.44
249.2	33.28
249.417	47.62
249.633	41.47
249.85	84.48
250.067	88.57
250.284	111.1
250.501	41.47
250.717	68.09
250.934	8.7
251.151	41.47
251.368	-65.02
251.585	61.95
251.801	16.9
252.018	-19.97
252.235	0.51
252.451	35.33
252.668	49.66
252.885	76.29
253.102	115.2
253.318	57.86
253.535	10.75
253.752	98.81
253.968	78.33
254.185	12.8
254.401	31.23
254.618	-13.82
254.835	57.86
255.051	90.62
255.268	33.28
255.484	78.33
255.701	14.85
255.917	74.24
256.134	20.99
256.351	27.14
256.567	18.94
256.784	80.38
257	-28.16
257.217	61.95
257.433	88.57
257.65	102.91
257.866	8.7
258.082	20.99
258.299	94.72
258.515	51.71
258.732	-13.82
258.948	92.67
259.165	68.09
259.381	27.14
259.597	121.34
259.814	-36.35
260.03	111.1
260.246	-32.26
260.463	41.47
260.679	70.14
260.895	31.23
261.112	88.57
261.328	78.33
261.544	18.94
261.761	92.67
261.977	16.9
262.193	57.86
262.409	92.67
262.626	66.05
262.842	135.68
263.058	14.85
263.274	82.43
263.49	64
263.707	82.43
263.923	98.81
264.139	86.53
264.355	47.62
264.571	107.01
264.787	123.39
265.004	104.96
265.22	-30.21
265.436	8.7
265.652	37.38
265.868	27.14
266.084	27.14
266.3	117.25
266.516	47.62
266.732	57.86
266.948	84.48
267.164	33.28
267.38	33.28
267.596	27.14
267.812	162.3
268.028	117.25
268.244	57.86
268.46	115.2
268.676	96.77
268.892	82.43
269.108	84.48
269.324	141.82
269.54	78.33
269.756	68.09
269.972	78.33
270.188	-9.73
270.403	25.09
270.619	57.86
270.835	33.28
271.051	84.48
271.267	41.47
271.483	111.1
271.698	74.24
271.914	-24.06
272.13	39.42
272.346	27.14
272.562	76.29
272.777	55.81
272.993	102.91
273.209	51.71
273.425	33.28
273.64	-3.58
273.856	49.66
274.072	10.75
274.287	16.9
274.503	74.24
274.719	123.39
274.934	35.33
275.15	-5.63
275.366	55.81
275.581	92.67
275.797	0.51
276.012	27.14
276.228	80.38
276.444	78.33
276.659	76.29
276.875	49.66
277.09	25.09
277.306	-30.21
277.521	59.9
277.737	78.33
277.952	104.96
278.168	88.57
278.383	0.51
278.599	8.7
278.814	64
279.03	23.04
279.245	109.05
279.461	61.95
279.676	84.48
279.892	53.76
280.107	74.24
280.322	33.28
280.538	33.28
280.753	37.38
280.969	76.29
281.184	72.19
281.399	90.62
281.615	57.86
281.83	51.71
282.045	-48.64
282.26	-36.35
282.476	45.57
282.691	82.43
282.906	98.81
283.122	66.05
283.337	6.66
283.552	84.48
283.767	90.62
283.983	33.28
284.198	107.01
284.413	98.81
284.628	-28.16
284.843	109.05
285.058	137.73
285.274	37.38
285.489	29.18
285.704	51.71
285.919	57.86
286.134	107.01
286.349	78.33
286.564	39.42
286.779	147.97
286.995	139.77
287.21	49.66
287.425	90.62
287.64	-56.83
287.855	47.62
288.07	53.76
288.285	127.49
288.5	59.9
288.715	66.05
288.93	76.29
289.145	109.05
289.36	33.28
289.575	123.39
289.79	51.71
290.004	78.33
290.219	12.8
290.434	57.86
290.649	86.53
290.864	117.25
291.079	82.43
291.294	107.01
291.509	49.66
291.724	49.66
291.938	59.9
292.153	64
292.368	47.62
292.583	137.73
292.798	4.61
293.012	84.48
293.227	94.72
293.442	123.39
293.657	82.43
293.871	78.33
294.086	49.66
294.301	61.95
294.516	-17.92
294.73	25.09
294.945	16.9
295.16	-28.16
295.374	78.33
295.589	66.05
295.804	27.14
296.018	64
296.233	154.11
296.447	113.15
296.662	64
296.877	92.67
297.091	57.86
297.306	74.24
297.52	16.9
297.735	43.52
297.949	107.01
298.164	127.49
298.378	6.66
298.593	-7.68
298.807	8.7
299.022	33.28
299.236	94.72
299.451	-7.68
299.665	37.38
299.88	49.66
300.094	115.2
300.309	64
300.523	78.33
300.737	-7.68
300.952	31.23
301.166	92.67
301.381	92.67
301.595	35.33
301.809	82.43
302.024	66.05
302.238	51.71
302.452	43.52
302.667	29.18
302.881	82.43
303.095	143.87
303.309	115.2
303.524	51.71
303.738	113.15
303.952	82.43
304.166	82.43
304.381	-19.97
304.595	90.62
304.809	90.62
305.023	98.81
305.237	49.66
305.452	27.14
305.666	166.4
305.88	49.66
306.094	78.33
306.308	123.39
306.522	86.53
306.736	74.24
306.95	29.18
307.164	35.33
307.379	25.09
307.593	78.33
307.807	100.86
308.021	20.99
308.235	70.14
308.449	57.86
308.663	66.05
308.877	100.86
309.091	92.67
309.305	109.05
309.519	35.33
309.733	98.81
309.947	72.19
310.161	131.58
310.374	104.96
310.588	107.01
310.802	68.09
311.016	53.76
311.23	27.14
311.444	100.86
311.658	117.25
311.872	90.62
312.085	57.86
312.299	111.1
312.513	82.43
312.727	72.19
312.941	76.29
313.154	55.81
313.368	41.47
313.582	41.47
313.796	43.52
314.009	16.9
314.223	90.62
314.437	10.75
314.651	98.81
314.864	49.66
315.078	35.33
315.292	35.33
315.505	90.62
315.719	78.33
315.933	31.23
316.146	96.77
316.36	41.47
316.573	119.29
316.787	74.24
317.001	100.86
317.214	41.47
317.428	115.2
317.641	-3.58
317.855	64
318.068	66.05
318.282	49.66
318.495	74.24
318.709	37.38
318.922	29.18
319.136	57.86
319.349	20.99
319.563	59.9
319.776	41.47
319.99	-7.68
320.203	158.21
320.417	74.24
320.63	94.72
320.843	119.29
321.057	92.67
321.27	133.63
321.483	29.18
321.697	51.71
321.91	0.51
322.124	170.49
322.337	35.33
322.55	27.14
322.763	86.53
322.977	84.48
323.19	43.52
323.403	68.09
323.617	141.82
323.83	74.24
324.043	31.23
324.256	141.82
324.469	59.9
324.683	147.97
324.896	31.23
325.109	84.48
325.322	80.38
325.535	121.34
325.748	113.15
325.962	57.86
326.175	-19.97
326.388	59.9
326.601	49.66
326.814	57.86
327.027	127.49
327.24	131.58
327.453	25.09
327.666	25.09
327.879	88.57
328.092	113.15
328.305	129.53
328.518	90.62
328.731	51.71
328.944	76.29
329.157	123.39
329.37	84.48
329.583	145.92
329.796	76.29
330.009	70.14
330.222	123.39
330.435	25.09
330.648	82.43
330.861	45.57
331.073	49.66
331.286	49.66
331.499	113.15
331.712	90.62
331.925	129.53
332.138	35.33
332.35	107.01
332.563	-15.87
332.776	66.05
332.989	51.71
333.202	12.8
333.414	66.05
333.627	172.54
333.84	113.15
334.053	82.43
334.265	16.9
334.478	51.71
334.691	70.14
334.903	66.05
335.116	20.99
335.329	31.23
335.541	115.2
335.754	57.86
335.966	135.68
336.179	29.18
336.392	20.99
336.604	61.95
336.817	119.29
337.029	55.81
337.242	94.72
337.454	111.1
337.667	37.38
337.88	141.82
338.092	92.67
338.305	135.68
338.517	49.66
338.729	117.25
338.942	166.4
339.154	82.43
339.367	109.05
339.579	70.14
339.792	94.72
340.004	70.14
340.217	49.66
340.429	51.71
340.641	10.75
340.854	66.05
341.066	39.42
341.278	127.49
341.491	92.67
341.703	82.43
341.915	-7.68
342.128	68.09
342.34	123.39
342.552	4.61
342.764	57.86
342.977	57.86
343.189	51.71
343.401	86.53
343.613	55.81
343.826	98.81
344.038	107.01
344.25	86.53
344.462	43.52
344.674	135.68
344.886	61.95
345.099	82.43
345.311	64
345.523	76.29
345.735	90.62
345.947	66.05
346.159	27.14
346.371	37.38
346.583	76.29
346.795	66.05
347.007	29.18
347.219	115.2
347.431	107.01
347.643	141.82
347.855	98.81
348.067	59.9
348.279	0.51
348.491	82.43
348.703	76.29
348.915	59.9
349.127	61.95
349.339	84.48
349.551	25.09
349.763	107.01
349.975	115.2
350.187	90.62
350.399	107.01
350.61	76.29
350.822	49.66
351.034	29.18
351.246	104.96
351.458	41.47
351.669	90.62
351.881	86.53
352.093	123.39
352.305	156.16
352.517	51.71
352.728	53.76
352.94	41.47
353.152	86.53
353.363	-24.06
353.575	90.62
353.787	82.43
353.999	82.43
354.21	84.48
354.422	76.29
354.633	68.09
354.845	78.33
355.057	102.91
355.268	59.9
355.48	78.33
355.692	31.23
355.903	61.95
356.115	82.43
356.326	27.14
356.538	98.81
356.749	139.77
356.961	64
357.172	27.14
357.384	98.81
357.595	119.29
357.807	74.24
358.018	104.96
358.23	102.91
358.441	61.95
358.653	86.53
358.864	86.53
359.075	41.47
359.287	98.81
359.498	180.73
359.709	66.05
359.921	115.2
360.132	139.77
360.344	49.66
360.555	35.33
360.766	51.71
360.977	61.95
361.189	107.01
361.4	41.47
361.611	98.81
361.823	107.01
362.034	115.2
362.245	49.66
362.456	29.18
362.667	84.48
362.879	111.1
363.09	78.33
363.301	115.2
363.512	107.01
363.723	70.14
363.935	74.24
364.146	45.57
364.357	55.81
364.568	92.67
364.779	72.19
364.99	64
365.201	72.19
365.412	143.87
365.623	-30.21
365.834	68.09
366.045	68.09
366.256	74.24
366.467	53.76
366.678	90.62
366.889	76.29
367.1	109.05
367.311	123.39
367.522	33.28
367.733	70.14
367.944	66.05
368.155	78.33
368.366	94.72
368.577	201.21
368.788	49.66
368.999	104.96
369.209	4.61
369.42	109.05
369.631	170.49
369.842	72.19
370.053	90.62
370.264	82.43
370.474	76.29
370.685	35.33
370.896	20.99
371.107	107.01
371.317	100.86
371.528	100.86
371.739	90.62
371.95	115.2
372.16	172.54
372.371	-19.97
372.582	115.2
372.792	141.82
373.003	49.66
373.214	158.21
373.424	76.29
373.635	23.04
373.846	127.49
374.056	25.09
374.267	61.95
374.477	133.63
374.688	88.57
374.898	53.76
375.109	147.97
375.319	8.7
375.53	145.92
375.74	156.16
375.951	70.14
376.161	20.99
376.372	-38.4
376.582	74.24
376.793	76.29
377.003	35.33
377.214	74.24
377.424	68.09
377.635	117.25
377.845	-1.54
378.055	92.67
378.266	94.72
378.476	59.9
378.686	117.25
378.897	76.29
379.107	115.2
379.317	74.24
379.528	49.66
379.738	82.43
379.948	66.05
380.158	207.36
380.369	49.66
380.579	102.91
380.789	90.62
380.999	61.95
381.21	43.52
381.42	100.86
381.63	27.14
381.84	131.58
382.05	100.86
382.261	188.93
382.471	74.24
382.681	49.66
382.891	88.57
383.101	68.09
383.311	12.8
383.521	25.09
383.731	107.01
383.941	137.73
384.151	115.2
384.361	90.62
384.571	123.39
384.781	25.09
384.991	68.09
385.201	162.3
385.411	86.53
385.621	115.2
385.831	96.77
386.041	96.77
386.251	35.33
386.461	115.2
386.671	168.45
386.881	115.2
387.091	68.09
387.301	98.81
387.511	43.52
387.72	74.24
387.93	109.05
388.14	74.24
388.35	113.15
388.56	115.2
388.769	139.77
388.979	92.67
389.189	80.38
389.399	141.82
389.609	123.39
389.818	125.44
390.028	41.47
390.238	174.59
390.447	57.86
390.657	141.82
390.867	100.86
391.076	160.25
391.286	135.68
391.496	68.09
391.705	27.14
391.915	147.97
392.125	152.06
392.334	115.2
392.544	107.01
392.753	53.76
392.963	115.2
393.172	29.18
393.382	20.99
393.591	180.73
393.801	119.29
394.01	160.25
394.22	219.64
394.429	135.68
394.639	119.29
394.848	115.2
395.058	96.77
395.267	90.62
395.477	174.59
395.686	119.29
395.895	115.2
396.105	160.25
396.314	180.73
396.524	113.15
396.733	70.14
396.942	184.83
397.152	131.58
397.361	141.82
397.57	180.73
397.78	154.11
397.989	117.25
398.198	205.31
398.407	94.72
398.617	139.77
398.826	84.48
399.035	96.77
399.244	180.73
399.453	150.01
399.663	145.92
399.872	199.16
400.081	125.44
400.29	184.83
400.499	141.82
400.708	150.01
400.917	162.3
401.127	92.67
401.336	131.58
401.545	223.74
401.754	207.36
401.963	160.25
402.172	135.68
402.381	152.06
402.59	184.83
402.799	180.73
403.008	156.16
403.217	231.93
403.426	199.16
403.635	188.93
403.844	172.54
404.053	193.02
404.262	180.73
404.471	281.08
404.68	283.13
404.888	229.88
405.097	229.88
405.306	262.65
405.515	240.12
405.724	229.88
405.933	193.02
406.142	307.71
406.35	320
406.559	274.94
406.768	172.54
406.977	195.07
407.185	248.32
407.394	287.23
407.603	217.6
407.812	256.51
408.02	328.19
408.229	270.84
408.438	338.43
408.646	406.01
408.855	352.76
409.064	311.8
409.272	320
409.481	262.65
409.69	297.47
409.898	379.39
410.107	373.24
410.315	401.91
410.524	475.64
410.733	459.26
410.941	397.82
411.15	446.97
411.358	446.97
411.567	481.78
411.775	467.45
411.984	582.14
412.192	573.94
412.401	508.41
412.609	616.95
412.818	645.62
413.026	614.9
413.234	590.33
413.443	735.73
413.651	651.77
413.86	608.76
414.068	788.98
414.276	737.78
414.485	807.41
414.693	776.69
414.901	887.28
415.11	823.8
415.318	797.17
415.526	877.04
415.734	977.39
415.943	860.66
416.151	1077.74
416.359	1014.26
416.567	1053.17
416.776	1090.03
416.984	1065.46
417.192	1180.14
417.4	1315.31
417.608	1165.81
417.817	1298.92
418.025	1329.64
418.233	1516.01
418.441	1356.27
418.649	1395.18
418.857	1565.16
419.065	1688.04
419.273	1434.09
419.481	1647.08
419.689	1618.41
419.897	1929.7
420.105	1808.87
420.313	1823.2
420.521	1962.47
420.729	2009.57
420.937	2009.57
421.145	2189.79
421.353	2134.5
421.561	2400.73
421.769	2284
421.977	2474.46
422.185	2433.5
422.393	2533.85
422.601	2712.02
422.809	2730.45
423.017	2787.8
423.224	2806.23
423.432	3002.83
423.64	2980.31
423.848	3293.65
424.056	3355.08
424.263	3420.62
424.471	3416.52
424.679	3514.83
424.887	3678.66
425.094	3828.17
425.302	3850.69
425.51	4028.87
425.718	4133.31
425.925	3918.28
426.133	4196.8
426.341	4516.28
426.548	4645.31
426.756	4694.46
426.964	4770.23
427.171	4952.5
427.379	5169.59
427.586	5329.33
427.794	5415.34
428.001	5687.72
428.209	5847.46
428.417	5679.53
428.624	6275.49
428.832	6324.64
429.039	6177.19
429.247	6218.15
429.454	6635.93
429.662	6994.33
429.869	6506.91
430.076	7117.2
430.284	6918.55
430.491	7268.75
430.699	7915.91
430.906	7565.71
431.114	7631.24
431.321	8044.93
431.528	8141.19
431.736	8798.59
431.943	9228.66
432.15	8913.27
432.358	8929.66
432.565	9453.94
432.772	9570.67
432.979	9935.21
433.187	10088.81
433.394	10146.15
433.601	10793.31
433.808	10705.24
434.016	10826.07
434.223	11235.67
434.43	11907.4
434.637	11585.87
434.844	12644.67
435.052	12609.86
435.259	12591.42
435.466	12648.77
435.673	12511.55
435.88	13287.73
436.087	13816.11
436.294	14008.62
436.501	13525.3
436.708	14016.81
436.915	14639.39
437.122	15048.99
437.329	14985.5
437.537	15597.84
437.743	15589.65
437.95	15481.11
438.157	16220.42
438.364	16959.74
438.571	17047.8
438.778	16957.69
438.985	18796.77
439.192	17805.55
439.399	18510.05
439.606	17930.48
439.813	19243.23
440.02	20467.91
440.227	19669.2
440.433	19763.41
440.64	20291.79
440.847	19816.66
441.054	20744.39
441.261	22122.67
441.467	21627.06
441.674	21930.16
441.881	22630.57
442.088	22841.51
442.294	22618.28
442.501	23189.66
442.708	23670.93
442.914	24500.36
443.121	25559.16
443.328	24893.57
443.534	26626.15
443.741	25874.55
443.948	25632.89
444.154	27465.82
444.361	27369.57
444.568	27486.3
444.774	27256.93
444.981	27641.95
445.187	28272.72
445.394	29583.42
445.6	29517.89
445.807	32135.19
446.013	30949.42
446.22	31447.07
446.426	32585.74
446.633	32739.34
446.839	34025.46
447.046	32509.97
447.252	34150.39
447.459	34289.65
447.665	34062.33
447.871	35540.96
448.078	37109.71
448.284	35821.53
448.491	36237.27
448.697	37939.13
448.903	38539.19
449.11	38764.46
449.316	38000.57
449.522	38692.79
449.728	39428.01
449.935	39978.91
450.141	39774.11
450.347	40779.67
450.553	39489.45
450.76	39950.24
450.966	41060.24
451.172	40849.3
451.378	41523.08
451.584	41185.16
451.791	41865.09
451.997	41549.7
452.203	42432.38
452.409	42588.02
452.615	42227.58
452.821	40677.27
453.027	40034.21
453.233	42086.27
453.44	40705.94
453.646	41254.79
453.852	41154.44
454.058	41795.46
454.264	40576.92
454.47	41465.74
454.676	40613.78
454.882	42223.48
455.088	38492.08
455.294	38967.21
455.5	39471.01
455.705	40091.55
455.911	38254.52
456.117	37423.04
456.323	37107.66
456.529	35186.66
456.735	36984.78
456.941	35794.91
457.147	35170.28
457.352	34119.67
457.558	33916.92
457.764	34138.1
457.97	33558.53
458.176	32393.23
458.381	32442.38
458.587	30898.22
458.793	30808.11
458.999	29481.02
459.204	31414.3
459.41	30779.43
459.616	28549.2
459.821	28928.07
460.027	28645.45
460.233	28029.01
460.438	26570.86
460.644	26970.21
460.85	25847.93
461.055	25139.33
461.261	25315.45
461.466	23445.66
461.672	22855.84
461.878	24150.16
462.083	22773.92
462.289	22114.48
462.494	22137.01
462.7	21043.39
462.905	20375.75
463.111	21242.04
463.316	21301.43
463.522	20850.88
463.727	20734.15
463.932	20619.46
464.138	20564.17
464.343	20932.8
464.549	20162.76
464.754	20869.31
464.959	20463.82
465.165	20259.02
465.37	19620.05
465.575	19228.89
465.781	19747.03
465.986	19865.81
466.191	19329.24
466.397	18544.87
466.602	17742.07
466.807	18733.28
467.012	19022.05
467.218	18731.23
467.423	18282.73
467.628	18481.38
467.833	19134.68
468.038	18454.76
468.244	17940.72
468.449	18671.84
468.654	18069.74
468.859	17885.42
469.064	17977.58
469.269	17307.9
469.474	17156.35
469.679	17596.66
469.885	17139.96
470.09	17477.88
470.295	17168.63
470.5	16765.18
470.705	16959.74
470.91	16480.52
471.115	16253.19
471.32	16838.91
471.525	16337.16
471.73	16259.34
471.935	16017.68
472.139	15540.5
472.344	15837.45
472.549	15524.12
472.754	15507.73
472.959	15282.45
473.164	14790.94
473.369	14553.38
473.574	15327.51
473.778	14919.96
473.983	15065.37
474.188	14799.13
474.393	14004.52
474.598	14125.35
474.802	14219.56
475.007	14020.91
475.212	13938.99
475.417	13351.22
475.621	13463.86
475.826	13553.97
476.031	13394.23
476.235	12923.19
476.44	13242.68
476.645	12853.56
476.849	12878.14
477.054	12912.95
477.259	12554.56
477.463	12734.78
477.668	12083.53
477.872	12378.44
478.077	11977.03
478.282	11983.18
478.486	11673.93
478.691	11901.26
478.895	11831.63
479.1	11827.53
479.304	11565.39
479.509	11239.76
479.713	11626.83
479.918	11194.71
480.122	11149.65
480.326	11448.66
480.531	11315.54
480.735	11250
480.94	11219.28
481.144	11348.31
481.348	10965.34
481.553	11002.2
481.757	10611.04
481.961	10838.36
482.166	10901.85
482.37	11092.31
482.574	10637.66
482.778	10758.49
482.983	11141.46
483.187	10748.25
483.391	10938.71
483.595	10776.92
483.8	10707.29
484.004	10817.88
484.208	10828.12
484.412	10813.79
484.616	11143.51
484.821	11032.92
485.025	10723.68
485.229	10862.94
485.433	10723.68
485.637	10799.45
485.841	10768.73
486.045	10611.04
486.249	10842.46
486.453	10821.98
486.657	10707.29
486.861	10711.39
487.065	10758.49
487.269	10850.65
487.473	10705.24
487.677	10635.61
487.881	10871.13
488.085	10969.43
488.289	10867.03
488.493	10942.81
488.697	10934.62
488.901	10938.71
489.105	10862.94
489.309	11094.36
489.512	10985.82
489.716	10858.84
489.92	11018.58
490.124	10858.84
490.328	11018.58
490.531	11153.75
490.735	11059.54
490.939	11071.83
491.143	11241.81
491.346	11133.27
491.55	11368.79
491.754	11256.15
491.958	11243.86
492.161	11340.11
492.365	11321.68
492.569	11276.63
492.772	11348.31
492.976	11616.59
493.18	11700.56
493.383	11538.77
493.587	11766.09
493.79	11895.11
493.994	11684.17
494.197	11718.99
494.401	11995.46
494.605	11962.7
494.808	12149.06
495.012	12132.68
495.215	12310.85
495.419	12321.09
495.622	12400.96
495.825	12491.07
496.029	12591.42
496.232	12788.03
496.436	12912.95
496.639	13191.48
496.843	13074.74
497.046	13175.09
497.249	13248.82
497.453	13402.42
497.656	13510.96
497.859	13500.72
498.063	13547.83
498.266	13949.23
498.469	13984.04
498.673	14194.98
498.876	14661.92
499.079	14518.56
499.282	14493.99
499.485	14774.56
499.689	14727.46
499.892	15008.03
500.095	15130.91
500.298	15552.79
500.501	15182.1
500.705	15761.68
500.908	15876.37
501.111	16101.64
501.314	16302.34
501.517	16230.66
501.72	16580.87
501.923	16615.68
502.126	16910.59
502.329	17064.19
502.532	17418.49
502.735	17363.19
502.938	17711.35
503.141	17668.34
503.344	18284.78
503.547	17946.86
503.75	18231.53
503.953	18444.52
504.156	18786.53
504.359	18682.08
504.562	18933.98
504.765	19572.95
504.968	19818.71
505.17	19695.83
505.373	20144.33
505.576	20308.17
505.779	20637.89
505.982	20549.83
506.185	20830.4
506.387	20936.9
506.59	21172.41
506.793	21448.89
506.996	21422.27
507.198	22012.08
507.401	21887.15
507.604	22466.73
507.807	22821.03
508.009	22493.35
508.212	23017.63
508.415	23570.58
508.617	23769.24
508.82	23802
509.022	23400.6
509.225	24182.93
509.428	24619.14
509.63	24455.31
509.833	24623.24
510.035	25219.2
510.238	24995.97
510.44	25155.71
510.643	25798.77
510.845	25987.19
511.048	25882.74
511.25	26421.36
511.453	26454.12
511.655	27123.81
511.858	27132
512.06	27160.67
512.262	27564.12
512.465	27746.39
512.667	28065.88
512.87	28598.35
513.072	28475.47
513.274	28680.27
513.477	29145.16
513.679	29501.5
513.881	29954.1
514.084	29997.11
514.286	29866.04
514.488	30033.97
514.69	31215.65
514.893	30994.47
515.095	31197.22
515.297	31637.53
515.499	31905.82
515.701	31957.02
515.904	32542.74
516.106	32491.54
516.308	32659.47
516.51	33427.46
516.712	33417.22
516.914	33669.12
517.116	34248.69
517.318	34549.74
517.52	34334.71
517.722	34537.46
517.925	34615.28
518.127	35215.33
518.329	35272.68
518.531	34981.87
518.733	35905.5
518.935	36495.32
519.136	36270.04
519.338	36915.15
519.54	36909
519.742	37554.11
519.944	37910.46
520.146	38418.36
520.348	37932.99
520.55	38307.77
520.752	38786.99
520.954	39262.12
521.155	39051.18
521.357	39677.86
521.559	39665.57
521.761	40578.96
521.963	40073.12
522.164	40417.18
522.366	40531.86
522.568	41074.57
522.77	41191.31
522.971	41701.25
523.173	41387.91
523.375	42014.59
523.576	41787.27
523.778	42268.54
523.98	43071.34
524.181	43321.19
524.383	42882.93
524.584	43341.67
524.786	43140.97
524.988	43282.28
525.189	44093.28
525.391	44085.09
525.592	44277.6
525.794	44146.53
525.995	44308.32
526.197	44418.91
526.398	44898.13
526.6	44826.45
526.801	45401.93
527.003	45465.42
527.204	45563.72
527.406	45932.36
527.607	45641.54
527.808	46174.02
528.01	45023.06
528.211	46010.18
528.412	46907.19
528.614	46032.71
528.815	46569.27
529.016	46905.14
529.218	46227.26
529.419	46444.35
529.62	46946.1
529.822	46884.66
530.023	46546.75
530.224	47116.08
530.425	46911.28
530.626	47066.93
530.828	46460.73
531.029	47570.73
531.23	47460.14
531.431	46937.91
531.632	47367.98
531.833	47859.49
532.035	47636.27
532.236	47372.08
532.437	47664.94
532.638	47355.69
532.839	47855.4
533.04	47699.75
533.241	47566.63
533.442	48328.48
533.643	48064.29
533.844	48078.63
534.045	48025.38
534.246	47658.79
534.447	48281.38
534.648	47849.25
534.849	48158.5
535.05	47662.89
535.251	48125.73
535.451	47822.63
535.652	48391.97
535.853	47841.06
536.054	48023.33
536.255	48322.33
536.456	47636.27
536.657	48664.35
536.857	48078.63
537.058	47605.55
537.259	48070.43
537.46	48109.35
537.66	47855.4
537.861	48205.6
538.062	47709.99
538.263	48111.39
538.463	48115.49
538.664	47890.21
538.865	48101.15
539.065	48582.43
539.266	47574.83
539.466	48387.87
539.667	47482.67
539.868	48353.05
540.068	47773.48
540.269	47685.42
540.469	48267.04
540.67	47945.51
540.87	47861.54
541.071	47687.46
541.271	48178.98
541.472	48140.07
541.672	47814.44
541.873	47709.99
542.073	47632.17
542.274	48473.88
542.474	47591.21
542.675	47587.11
542.875	48211.74
543.075	48131.87
543.276	47253.29
543.476	48011.04
543.676	47757.1
543.877	48045.86
544.077	47716.14
544.277	47812.39
544.478	48068.39
544.678	47806.25
544.878	47462.19
545.078	47617.83
545.279	47337.26
545.479	47589.16
545.679	47712.04
545.879	47804.2
546.079	47879.97
546.28	47761.19
546.48	47054.64
546.68	47763.24
546.88	47497
547.08	47681.32
547.28	47310.64
547.48	47646.5
547.68	47861.54
547.88	47380.27
548.081	47607.59
548.281	47560.49
548.481	47431.47
548.681	47554.35
548.881	47587.11
549.081	47091.51
549.28	47257.39
549.48	47689.51
549.68	47511.34
549.88	47925.03
550.08	47198
550.28	47413.04
550.48	47587.11
550.68	47808.29
550.88	47165.23
551.08	46792.5
551.279	47263.53
551.479	46747.45
551.679	47238.96
551.879	47228.72
552.079	47388.46
552.278	47181.62
552.478	47619.88
552.678	47218.48
552.878	47468.33
553.077	47333.17
553.277	46702.39
553.477	47429.42
553.676	46683.96
553.876	47284.01
554.076	46974.77
554.275	47191.86
554.475	46753.59
554.674	47611.69
554.874	46843.7
555.074	46792.5
555.273	46901.04
555.473	46665.53
555.672	46602.04
555.872	46542.65
556.071	47050.55
556.271	46763.83
556.47	46516.03
556.67	46341.95
556.869	46292.8
557.068	46636.86
557.268	46083.9
557.467	46339.9
557.667	46008.13
557.866	46448.44
558.065	46432.06
558.265	45848.39
558.464	46624.57
558.663	46430.01
558.863	45715.27
559.062	46415.68
559.261	45877.06
559.461	46315.33
559.66	45551.43
559.859	46292.8
560.058	45449.03
560.258	46233.41
560.457	45420.36
560.656	45848.39
560.855	45748.04
561.054	45838.15
561.253	45029.2
561.453	45674.31
561.652	45459.27
561.851	45592.39
562.05	45186.89
562.249	44924.75
562.448	45348.68
562.647	45182.8
562.846	45033.3
563.045	45102.93
563.244	44881.75
563.443	45279.05
563.642	44560.22
563.841	44937.04
564.04	44738.39
564.239	45055.82
564.438	44515.16
564.637	44799.83
564.836	44592.98
565.035	44111.71
565.234	44480.35
565.432	44228.45
565.631	43988.83
565.83	44195.68
566.029	43925.35
566.228	44230.49
566.427	43722.6
566.625	44001.12
566.824	43456.36
567.023	43562.86
567.222	42975.09
567.42	43775.84
567.619	43333.48
567.818	43349.87
568.016	43276.14
568.215	43521.9
568.414	43079.53
568.612	43628.39
568.811	43276.14
569.01	43212.65
569.208	42229.63
569.407	42731.38
569.605	42149.76
569.804	42676.08
570.002	42579.83
570.201	42585.97
570.4	41826.18
570.598	41942.91
570.797	42198.91
570.995	41760.64
571.193	41885.57
571.392	42362.75
571.59	41527.17
571.789	41871.23
571.987	41858.95
572.186	41539.46
572.384	41303.95
572.582	41588.61
572.781	41246.6
572.979	40943.5
573.177	41435.02
573.376	41308.04
573.574	40970.13
573.772	40904.59
573.971	40468.37
574.169	40421.27
574.367	40492.95
574.565	40734.61
574.763	40454.04
574.962	40144.8
575.16	39823.26
575.358	40214.43
575.556	39899.04
575.754	40138.65
575.952	39524.26
576.151	40318.87
576.349	39239.59
576.547	39401.38
576.745	39602.08
576.943	39679.91
577.141	39200.68
577.339	39641
577.537	39251.88
577.735	38975.41
577.933	39110.57
578.131	39120.81
578.329	39049.13
578.527	38774.7
578.725	38512.56
578.923	38680.5
579.121	38358.97
579.319	38457.27
579.516	38389.69
579.714	38078.39
579.912	38242.23
580.11	38113.21
580.308	38031.29
580.506	38053.82
580.704	37595.07
580.901	37427.14
581.099	37799.87
581.297	37345.22
581.495	37208.01
581.692	37679.04
581.89	37302.21
582.088	37877.69
582.285	36997.07
582.483	37189.58
582.681	37015.5
582.878	36843.47
583.076	36378.58
583.274	36931.53
583.471	35989.47
583.669	36648.91
583.866	36579.28
584.064	36708.3
584.262	36169.69
584.459	36526.03
584.657	35981.27
584.854	36003.8
585.052	35397.6
585.249	35952.6
585.447	35880.92
585.644	35450.85
585.841	35536.87
586.039	35772.38
586.236	35338.21
586.434	35459.04
586.631	34945
586.828	35198.95
587.026	35270.63
587.223	34672.62
587.42	34775.02
587.618	34863.08
587.815	34537.46
588.012	34107.38
588.21	34752.49
588.407	34752.49
588.604	34215.93
588.801	34033.66
588.999	34361.33
589.196	34050.04
589.393	34177.01
589.59	33855.48
589.787	33918.97
589.984	33398.79
590.182	33507.33
590.379	33353.73
590.576	33224.71
590.773	33429.51
590.97	32897.03
591.167	33329.16
591.364	32561.17
591.561	33206.28
591.758	32507.92
591.955	32862.22
592.152	32964.62
592.349	32421.91
592.546	32995.34
592.743	32514.06
592.94	31916.06
593.137	32356.37
593.334	32595.98
593.531	32032.79
593.727	31985.69
593.924	31993.88
594.121	31455.26
594.318	32251.92
594.515	31668.25
594.712	31883.29
594.908	31516.7
595.105	31719.45
595.302	31174.69
595.499	31399.97
595.696	31342.63
595.892	31049.77
596.089	31049.77
596.286	31326.24
596.482	30869.54
596.679	30488.62
596.876	30875.69
597.072	30713.9
597.269	30257.2
597.466	30210.1
597.662	30410.8
597.859	30296.11
598.055	30541.87
598.252	29884.47
598.448	29751.35
598.645	29863.99
598.841	29636.67
599.038	29677.63
599.234	29745.21
599.431	29370.43
599.627	29786.17
599.824	29710.39
600.02	29601.85
600.217	29519.93
600.413	28954.69
600.609	29089.86
600.806	28776.52
601.002	28778.57
601.198	28612.68
601.395	28584.01
601.591	29005.89
601.787	28743.75
601.984	28485.71
602.18	28620.88
602.376	28321.87
602.572	28278.86
602.769	28170.32
602.965	27908.18
603.161	28192.85
603.357	28026.96
603.553	28250.19
603.75	27943
603.946	27895.89
604.142	27883.61
604.338	27451.49
604.534	27668.57
604.73	27414.62
604.926	27254.88
605.122	27443.29
605.318	27258.98
605.514	26966.12
605.71	26923.11
605.906	27189.35
606.102	27082.85
606.298	27105.38
606.494	26746.98
606.69	26937.44
606.886	26724.46
607.082	26298.48
607.278	26507.37
607.474	26183.79
607.67	26364.01
607.866	25968.76
608.062	26515.56
608.257	26351.73
608.453	26146.93
608.649	26609.77
608.845	25622.65
609.041	25802.87
609.236	25993.33
609.432	25798.77
609.628	25731.19
609.824	25907.32
610.019	25649.27
610.215	25602.17
610.411	25821.3
610.606	25612.41
610.802	25852.02
610.998	25516.15
611.193	25544.83
611.389	25276.54
611.584	25358.46
611.78	25168
611.976	25385.08
612.171	25325.69
612.367	25397.37
612.562	25098.37
612.758	24916.1
612.953	24905.86
613.149	25163.9
613.344	25116.8
613.539	24977.54
613.735	25149.57
613.93	24883.33
614.126	24635.53
614.321	24930.44
614.517	24555.66
614.712	24971.39
614.907	24619.14
615.103	24733.83
615.298	24471.69
615.493	24813.7
615.688	24137.87
615.884	24469.64
616.079	24205.45
616.274	24330.38
616.47	24125.58
616.665	24496.27
616.86	24041.62
617.055	24072.34
617.25	24322.19
617.445	24260.75
617.641	23593.11
617.836	23609.5
618.031	23552.15
618.226	23812.24
618.421	23294.11
618.616	24002.71
618.811	23150.75
619.006	23494.81
619.201	23380.12
619.396	23290.01
619.591	22878.37
619.786	23226.53
619.981	22710.44
620.176	22786.21
620.371	22231.21
620.566	22622.37
620.761	22642.85
620.956	22595.75
621.151	22204.59
621.346	22302.89
621.541	21911.73
621.735	22472.87
621.93	22182.06
622.125	21899.44
622.32	21502.14
622.515	21768.37
622.709	21483.7
622.904	21467.32
623.099	21549.24
623.294	21260.48
623.488	21002.43
623.683	21246.14
623.878	20678.85
624.072	20977.86
624.267	20889.79
624.462	20809.92
624.656	20523.21
624.851	20414.66
625.046	20625.61
625.24	20228.3
625.435	19943.63
625.629	20058.32
625.824	19816.66
626.018	20017.36
626.213	19423.45
626.407	19845.33
626.602	19443.93
626.796	19458.26
626.991	19501.27
627.185	19235.03
627.38	19063.01
627.574	19056.86
627.768	18989.28
627.963	18682.08
628.157	18841.82
628.352	18925.79
628.546	18170.09
628.74	18440.42
628.935	18213.1
629.129	18495.72
629.323	18141.42
629.517	18000.11
629.712	18079.98
629.906	17701.11
630.1	17547.51
630.294	17584.37
630.489	17639.67
630.683	17780.98
630.877	17207.55
631.071	17377.53
631.265	17115.39
631.459	17170.68
631.653	17056
631.848	16967.93
632.042	16871.68
632.236	16705.79
632.43	16689.41
632.624	16654.59
632.818	16578.82
633.012	16480.52
633.206	16361.73
633.4	16675.07
633.594	16156.94
633.788	16066.83
633.982	16052.49
634.176	15831.31
634.369	15843.6
634.563	15868.17
634.757	15687.95
634.951	15749.39
635.145	15442.2
635.339	15700.24
635.533	15130.91
635.726	15663.38
635.92	15225.11
636.114	15057.18
636.308	15067.42
636.501	15048.99
636.695	15061.27
636.889	14850.33
637.083	14790.94
637.276	14645.54
637.47	14395.68
637.664	14510.37
637.857	14410.02
638.051	14395.68
638.244	14293.29
638.438	14272.81
638.632	14297.38
638.825	14188.84
639.019	14057.77
639.212	13846.83
639.406	13928.75
639.599	13769.01
639.793	13658.42
639.986	13539.63
640.18	13734.19
640.373	13775.15
640.567	13240.63
640.76	13365.56
640.954	13388.08
641.147	13216.05
641.34	13371.7
641.534	13171
641.727	13084.98
641.92	12955.96
642.114	12824.89
642.307	12683.58
642.5	12659.01
642.694	12587.33
642.887	12552.51
643.08	12587.33
643.273	12431.68
643.467	12403.01
643.66	12151.11
643.853	12056.9
644.046	12124.49
644.239	12108.1
644.432	12192.07
644.626	11850.06
644.819	11977.03
645.012	11907.4
645.205	11977.03
645.398	11794.76
645.591	11776.33
645.784	11596.11
645.977	11499.86
646.17	11452.75
646.363	11309.4
646.556	11331.92
646.749	11319.64
646.942	11526.48
647.135	11002.2
647.328	11174.23
647.521	11143.51
647.714	10961.24
647.907	11231.57
648.099	11100.5
648.292	10946.9
648.485	11043.16
648.678	10799.45
648.871	10692.96
649.064	10383.71
649.256	10637.66
649.449	10791.26
649.642	10551.65
649.835	10326.37
650.027	10457.44
650.22	10350.95
650.413	10203.49
650.605	10322.27
650.798	10195.3
650.991	10176.87
651.183	9908.58
651.376	9970.02
651.568	10037.61
651.761	9881.96
651.954	9939.3
652.146	9767.27
652.339	9673.07
652.531	9691.5
652.724	9642.35
652.916	9447.79
653.109	9488.75
653.301	9455.98
653.494	9527.66
653.686	9220.47
653.879	9488.75
654.071	9404.78
654.263	9253.23
654.456	9183.6
654.648	9312.63
654.84	9001.33
655.033	9218.42
655.225	9017.72
655.417	9034.1
655.61	8876.41
655.802	8974.71
655.994	8786.3
656.186	8817.02
656.379	8862.07
656.571	8710.52
656.763	8587.64
656.955	8659.32
657.148	8618.36
657.34	8700.28
657.532	8462.72
657.724	8548.73
657.916	8339.84
658.108	8405.38
658.3	8206.72
658.492	8325.5
658.684	8204.67
658.876	8137.09
659.068	8085.89
659.26	8204.67
659.452	8020.36
659.644	8239.49
659.836	7930.25
660.028	7991.69
660.22	7846.28
660.412	7790.99
660.604	7694.73
660.796	7635.34
660.988	7727.5
661.18	7799.18
661.372	7551.37
661.563	7688.59
661.755	7610.76
661.947	7463.31
662.139	7438.73
662.331	7270.8
662.522	7621
662.714	7379.34
662.906	7244.18
663.097	7319.95
663.289	7184.79
663.481	7367.06
663.673	7233.94
663.864	7217.55
664.056	7172.5
664.247	6949.27
664.439	6853.02
664.631	6947.22
664.822	7029.14
665.014	6869.4
665.205	6891.93
665.397	6783.38
665.588	6791.58
665.78	6674.84
665.971	6728.09
666.163	6748.57
666.354	6734.23
666.546	6613.4
666.737	6451.61
666.929	6703.51
667.12	6689.18
667.311	6623.64
667.503	6359.45
667.694	6390.17
667.885	6244.77
668.077	6644.12
668.268	6222.24
668.459	6298.02
668.651	6302.11
668.842	6539.68
669.033	6142.37
669.224	6304.16
669.416	6185.38
669.607	6179.23
669.798	6324.64
669.989	6109.6
670.18	6152.61
670.371	5984.68
670.563	6097.31
670.754	6035.88
670.945	5937.57
671.136	5960.1
671.327	5939.62
671.518	5835.17
671.709	5861.8
671.9	6011.3
672.091	5786.02
672.282	5947.81
672.473	5775.78
672.664	5826.98
672.855	5855.65
673.046	5841.32
673.237	5673.39
673.428	5642.67
673.619	5898.66
673.809	5562.8
674	5689.77
674.191	5648.81
674.382	5613.99
674.573	5622.19
674.764	5527.98
674.954	5564.84
675.145	5566.89
675.336	5513.64
675.527	5538.22
675.717	5546.41
675.908	5493.16
676.099	5456.3
676.289	5304.75
676.48	5339.57
676.671	5321.13
676.861	5378.48
677.052	5341.61
677.243	5251.5
677.433	5319.09
677.624	5276.08
677.814	5171.63
678.005	5235.12
678.195	5214.64
678.386	5212.59
678.576	5161.39
678.767	5253.55
678.957	5013.94
679.148	5122.48
679.338	5009.84
679.529	5075.38
679.719	5138.87
679.909	5132.72
680.1	5171.63
680.29	5001.65
680.481	5022.13
680.671	5009.84
680.861	5130.67
681.052	4942.26
681.242	4817.33
681.432	4803
681.622	4921.78
681.813	4940.21
682.003	4886.97
682.193	4876.73
682.383	4997.56
682.573	4762.04
682.764	4723.13
682.954	4839.86
683.144	4843.96
683.334	4682.17
683.524	4866.49
683.714	4745.66
683.904	4878.77
684.094	4776.38
684.284	4749.75
684.474	4776.38
684.664	4727.22
684.854	4671.93
685.044	4688.31
685.234	4686.26
685.424	4647.35
685.614	4501.95
685.804	4555.19
685.994	4669.88
686.184	4555.19
686.374	4596.15
686.564	4540.86
686.753	4485.56
686.943	4577.72
687.133	4532.67
687.323	4473.28
687.513	4495.8
687.702	4276.67
687.892	4440.51
688.082	4434.36
688.272	4442.56
688.461	4252.1
688.651	4256.19
688.841	4239.81
689.03	4317.63
689.22	4233.66
689.41	4215.23
689.599	4233.66
689.789	4327.87
689.979	4121.03
690.168	4194.75
690.358	4125.12
690.547	3932.61
690.737	4028.87
690.926	4114.88
691.116	3961.28
691.305	4116.93
691.495	4137.41
691.684	4088.26
691.874	3965.38
692.063	4045.25
692.252	3942.85
692.442	3979.72
692.631	3832.26
692.82	3875.27
693.01	3731.91
693.199	3856.84
693.388	3916.23
693.578	3918.28
693.767	3899.84
693.956	3764.68
694.146	3738.05
694.335	3813.83
694.524	3895.75
694.713	3828.17
694.902	3797.45
695.092	3652.04
695.281	3828.17
695.47	3625.42
695.659	3693
695.848	3725.77
696.037	3748.29
696.226	3736.01
696.415	3670.47
696.604	3654.09
696.793	3514.83
696.982	3656.14
697.171	3727.82
697.36	3678.66
697.549	3602.89
697.738	3627.46
697.927	3568.07
698.116	3580.36
698.305	3625.42
698.494	3592.65
698.683	3570.12
698.872	3707.34
699.061	3641.8
699.25	3531.21
699.438	3484.11
699.627	3543.5
699.816	3445.2
700.005	3592.65
700.193	3385.8
700.382	3508.68
700.571	3467.72
700.76	3547.59
700.948	3387.85
701.137	3508.68
701.326	3394
701.514	3467.72
701.703	3428.81
701.892	3383.76
702.08	3482.06
702.269	3492.3
702.457	3457.48
702.646	3350.99
702.834	3426.76
703.023	3211.73
703.212	3416.52
703.4	3242.45
703.589	3244.49
703.777	3394
703.965	3383.76
704.154	3441.1
704.342	3369.42
704.531	3187.15
704.719	3178.96
704.907	3260.88
705.096	3310.03
705.284	3342.8
705.472	3238.35
705.661	3350.99
705.849	3232.21
706.037	3326.41
706.226	3359.18
706.414	3236.3
706.602	3103.18
706.79	3250.64
706.979	3254.73
707.167	3244.49
707.355	3060.18
707.543	3113.42
707.731	3060.18
707.919	3252.69
708.107	3074.51
708.296	3097.04
708.484	3156.43
708.672	3154.38
708.86	3105.23
709.048	3156.43
709.236	3056.08
709.424	3148.24
709.612	3103.18
709.8	3131.86
709.988	3107.28
710.176	3183.06
710.364	3064.27
710.551	3023.31
710.739	3080.66
710.927	3056.08
711.115	3006.93
711.303	3088.85
711.491	3013.07
711.679	2933.2
711.866	3058.13
712.054	2925.01
712.242	3047.89
712.43	3080.66
712.617	2761.17
712.805	2972.11
712.993	3025.36
713.181	2972.11
713.368	2927.06
713.556	2935.25
713.744	2847.19
713.931	2949.59
714.119	2892.24
714.306	3031.51
714.494	2925.01
714.682	2931.16
714.869	2828.76
715.057	2918.87
715.244	2836.95
715.432	2972.11
715.619	2853.33
715.807	2984.4
715.994	2959.83
716.182	2800.09
716.369	2769.37
716.556	2820.56
716.744	2699.73
716.931	2773.46
717.119	2795.99
717.306	2777.56
717.493	2755.03
717.681	2820.56
717.868	2828.76
718.055	2732.5
718.242	2716.12
718.43	2752.98
718.617	2628.06
718.804	2656.73
718.991	2734.55
719.179	2734.55
719.366	2755.03
719.553	2746.84
719.74	2521.56
719.927	2675.16
720.114	2728.41
720.301	2820.56
720.488	2615.77
720.676	2826.71
720.863	2675.16
721.05	2693.59
721.237	2652.63
721.424	2709.97
721.611	2703.83
721.798	2574.81
721.985	2544.09
722.172	2478.55
722.358	2634.2
722.545	2484.7
722.732	2521.56
722.919	2673.11
723.106	2619.86
723.293	2683.35
723.48	2576.86
723.667	2607.58
723.853	2605.53
724.04	2568.66
724.227	2501.08
724.414	2539.99
724.6	2587.1
724.787	2548.19
724.974	2642.39
725.161	2466.27
725.347	2552.28
725.534	2554.33
725.72	2560.47
725.907	2451.93
726.094	2519.51
726.28	2404.83
726.467	2525.66
726.653	2476.51
726.84	2460.12
727.027	2599.38
727.213	2425.31
727.4	2556.38
727.586	2386.4
727.773	2546.14
727.959	2447.83
728.145	2382.3
728.332	2400.73
728.518	2456.03
728.705	2404.83
728.891	2306.52
729.077	2337.24
729.264	2337.24
729.45	2343.39
729.636	2402.78
729.823	2441.69
730.009	2413.02
730.195	2302.43
730.382	2431.45
730.568	2402.78
730.754	2466.27
730.94	2337.24
731.126	2449.88
731.313	2359.77
731.499	2275.81
731.685	2269.66
731.871	2421.21
732.057	2386.4
732.243	2415.07
732.429	2337.24
732.615	2304.48
732.801	2372.06
732.987	2378.2
733.173	2269.66
733.359	2273.76
733.545	2114.02
733.731	2232.8
733.917	2286.05
734.103	2302.43
734.289	2310.62
734.475	2304.48
734.661	2402.78
734.847	2327
735.033	2157.02
735.219	2212.32
735.404	2200.03
735.59	2165.21
735.776	2195.93
735.962	2195.93
736.148	2138.59
736.333	2236.89
736.519	2228.7
736.705	2179.55
736.89	2130.4
737.076	2249.18
737.262	2105.82
737.447	2118.11
737.633	2150.88
737.819	2204.13
738.004	2257.37
738.19	2200.03
738.375	2083.3
738.561	2189.79
738.747	2118.11
738.932	2105.82
739.118	2116.06
739.303	2195.93
739.489	2122.21
739.674	2171.36
739.859	2019.81
740.045	2165.21
740.23	2109.92
740.416	2134.5
740.601	2171.36
740.786	2122.21
740.972	2079.2
741.157	2052.58
741.342	2075.1
741.528	1950.18
741.713	1962.47
741.898	1954.27
742.084	1901.03
742.269	1974.75
742.454	1935.84
742.639	2007.52
742.824	1905.12
743.01	1941.99
743.195	2019.81
743.38	2003.43
743.565	1958.37
743.75	1980.9
743.935	1884.64
744.12	1929.7
744.305	1909.22
744.49	1901.03
744.675	1774.05
744.86	1858.02
745.045	1872.36
745.23	1853.92
745.415	1829.35
745.6	1827.3
745.785	1851.88
745.97	1849.83
746.155	1663.46
746.34	1757.67
746.525	1829.35
746.71	1819.11
746.895	1690.09
747.079	1712.61
747.264	1591.78
747.449	1749.48
747.634	1739.24
747.819	1774.05
748.003	1700.33
748.188	1561.06
748.373	1675.75
748.557	1683.94
748.742	1774.05
748.927	1616.36
749.111	1585.64
749.296	1573.35
749.481	1712.61
749.665	1513.96
749.85	1563.11
750.034	1575.4
750.219	1559.02
750.404	1532.39
750.588	1565.16
750.773	1532.39
750.957	1434.09
751.141	1477.1
751.326	1518.06
751.51	1483.24
751.695	1468.91
751.879	1438.19
752.064	1571.3
752.248	1413.61
752.432	1507.82
752.617	1534.44
752.801	1491.43
752.985	1479.15
753.17	1380.84
753.354	1376.75
753.538	1475.05
753.722	1339.88
753.907	1405.42
754.091	1366.51
754.275	1288.68
754.459	1397.23
754.643	1323.5
754.828	1294.83
755.012	1354.22
755.196	1307.12
755.38	1262.06
755.564	1372.65
755.748	1278.44
755.932	1270.25
756.116	1303.02
756.3	1262.06
756.484	1180.14
756.668	1243.63
756.852	1169.9
757.036	1227.25
757.22	1241.58
757.404	1161.71
757.588	1237.49
757.772	1223.15
757.956	1120.75
758.14	1233.39
758.323	1204.72
758.507	1147.37
758.691	1174
758.875	1116.65
759.059	1149.42
759.242	1139.18
759.426	1200.62
759.61	1040.88
759.794	1130.99
759.977	1098.22
760.161	1032.69
760.345	1114.61
760.528	1028.59
760.712	1106.42
760.895	1042.93
761.079	1087.98
761.263	1034.74
761.446	1094.13
761.63	1044.98
761.813	1075.7
761.997	1065.46
762.18	983.54
762.364	1004.02
762.547	1036.78
762.731	997.87
762.914	1038.83
763.098	944.63
763.281	1006.06
763.464	872.95
763.648	1030.64
763.831	860.66
764.015	909.81
764.198	958.96
764.381	971.25
764.564	946.67
764.748	946.67
764.931	934.39
765.114	901.62
765.297	999.92
765.481	944.63
765.664	903.67
765.847	891.38
766.03	883.19
766.213	899.57
766.397	915.95
766.58	854.51
766.763	901.62
766.946	797.17
767.129	934.39
767.312	901.62
767.495	791.03
767.678	817.65
767.861	926.19
768.044	856.56
768.227	897.52
768.41	930.29
768.593	827.89
768.776	827.89
768.959	774.64
769.142	817.65
769.324	860.66
769.507	801.27
769.69	848.37
769.873	870.9
770.056	838.13
770.239	856.56
770.421	848.37
770.604	850.42
770.787	811.51
770.97	848.37
771.152	756.21
771.335	831.99
771.518	791.03
771.7	764.4
771.883	823.8
772.066	772.6
772.248	762.36
772.431	772.6
772.613	883.19
772.796	659.96
772.978	696.82
773.161	844.28
773.343	776.69
773.526	827.89
773.708	729.59
773.891	739.83
774.073	705.01
774.256	694.77
774.438	844.28
774.621	709.11
774.803	715.25
774.985	664.05
775.168	762.36
775.35	619
775.532	748.02
775.715	725.49
775.897	694.77
776.079	635.38
776.261	754.16
776.444	690.68
776.626	651.77
776.808	616.95
776.99	606.71
777.173	672.25
777.355	666.1
777.537	635.38
777.719	600.57
777.901	571.9
778.083	657.91
778.265	561.66
778.447	672.25
778.629	606.71
778.811	575.99
778.993	610.81
779.175	731.64
779.357	575.99
779.539	512.5
779.721	614.9
779.903	639.48
780.085	549.37
780.267	504.31
780.449	565.75
780.631	528.89
780.812	551.42
780.994	479.74
781.176	467.45
781.358	614.9
781.54	559.61
781.721	512.5
781.903	506.36
782.085	559.61
782.267	575.99
782.448	524.79
782.63	547.32
782.812	496.12
782.993	541.18
783.175	518.65
783.357	469.5
783.538	483.83
783.72	545.27
783.901	442.87
784.083	580.09
784.264	520.7
784.446	446.97
784.627	477.69
784.809	500.22
784.99	483.83
785.172	483.83
785.353	434.68
785.535	539.13
785.716	455.16
785.897	442.87
786.079	518.65
786.26	496.12
786.441	489.98
786.623	399.87
786.804	412.15
786.985	500.22
787.167	367.1
787.348	410.11
787.529	483.83
787.71	434.68
787.891	453.11
788.073	371.19
788.254	352.76
788.435	451.07
788.616	385.53
788.797	295.42
788.978	401.91
789.159	385.53
789.34	403.96
789.522	363
789.703	346.62
789.884	420.35
790.065	387.58
790.246	352.76
790.427	299.52
790.607	350.71
790.788	440.83
790.969	387.58
791.15	369.15
791.331	287.23
791.512	346.62
791.693	395.77
791.874	328.19
792.054	381.43
792.235	344.57
792.416	395.77
792.597	311.8
792.778	414.2
792.958	418.3
793.139	414.2
793.32	328.19
793.5	352.76
793.681	340.47
793.862	393.72
794.042	332.28
794.223	213.5
794.404	317.95
794.584	295.42
794.765	326.14
794.945	287.23
795.126	320
795.306	352.76
795.487	287.23
795.667	369.15
795.848	246.27
796.028	248.32
796.209	336.38
796.389	346.62
796.57	328.19
796.75	272.89
796.93	389.63
797.111	320
797.291	305.66
797.471	330.23
797.652	393.72
797.832	264.7
798.012	299.52
798.192	272.89
798.373	262.65
798.553	281.08
798.733	250.36
798.913	174.59
799.093	190.97
799.274	221.69
799.454	213.5
799.634	313.85
799.814	303.61
799.994	242.17
800.174	279.04
800.354	213.5
800.534	190.97
800.714	262.65
800.894	236.03
801.074	229.88
801.254	276.99
801.434	233.98
801.614	281.08
801.794	221.69
801.974	827.89
802.154	262.65
802.334	276.99
802.514	147.97
802.693	283.13
802.873	197.12
803.053	252.41
803.233	279.04
803.413	190.97
803.592	156.16
803.772	264.7
803.952	307.71
804.131	180.73
804.311	250.36
804.491	268.8
804.67	217.6
804.85	197.12
805.03	221.69
805.209	217.6
805.389	215.55
805.568	162.3
805.748	195.07
805.928	225.79
806.107	236.03
806.287	248.32
806.466	174.59
806.646	221.69
806.825	172.54
807.004	104.96
807.184	174.59
807.363	254.46
807.543	262.65
807.722	90.62
807.901	172.54
808.081	131.58
808.26	203.26
808.439	180.73
808.619	156.16
808.798	203.26
808.977	147.97
809.156	211.45
809.336	164.35
809.515	262.65
809.694	107.01
809.873	199.16
810.052	291.32
810.231	152.06
810.411	240.12
810.59	207.36
810.769	156.16
810.948	180.73
811.127	211.45
811.306	197.12
811.485	174.59
811.664	172.54
811.843	164.35
812.022	248.32
812.201	223.74
812.38	170.49
812.559	207.36
812.737	115.2
812.916	164.35
813.095	213.5
813.274	98.81
813.453	164.35
813.632	201.21
813.811	141.82
813.989	164.35
814.168	188.93
814.347	84.48
814.526	117.25
814.704	166.4
814.883	129.53
815.062	131.58
815.24	170.49
815.419	102.91
815.598	127.49
815.776	88.57
815.955	178.69
816.133	117.25
816.312	205.31
816.49	115.2
816.669	139.77
816.847	180.73
817.026	188.93
817.204	195.07
817.383	223.74
817.561	139.77
817.74	219.64
817.918	84.48
818.097	180.73
818.275	193.02
818.453	139.77
818.632	152.06
818.81	139.77
818.988	152.06
819.167	139.77
819.345	205.31
819.523	160.25
819.701	156.16
819.879	162.3
820.058	268.8
820.236	139.77
820.414	174.59
820.592	207.36
820.77	178.69
820.948	68.09
821.127	82.43
821.305	197.12
821.483	147.97
821.661	188.93
821.839	150.01
822.017	121.34
822.195	119.29
822.373	227.84
822.551	109.05
822.729	127.49
822.907	125.44
823.085	205.31
823.262	188.93
823.44	82.43
823.618	6.66
823.796	170.49
823.974	176.64
824.152	100.86
824.329	107.01
824.507	104.96
824.685	215.55
824.863	96.77
825.04	131.58
825.218	215.55
825.396	123.39
825.574	131.58
825.751	92.67
825.929	164.35
826.107	100.86
826.284	96.77
826.462	135.68
826.639	139.77
826.817	80.38
826.994	158.21
827.172	51.71
827.349	166.4
827.527	96.77
827.704	117.25
827.882	115.2
828.059	82.43
828.237	61.95
828.414	137.73
828.591	88.57
828.769	160.25
828.946	-24.06
829.124	147.97
829.301	104.96
829.478	82.43
829.655	92.67
829.833	111.1
830.01	45.57
830.187	147.97
830.364	39.42
830.542	88.57
830.719	66.05
830.896	94.72
831.073	111.1
831.25	119.29
831.427	29.18
831.604	90.62
831.782	119.29
831.959	29.18
832.136	57.86
832.313	125.44
832.49	72.19
832.667	133.63
832.844	78.33
833.021	137.73
833.198	92.67
833.374	82.43
833.551	121.34
833.728	100.86
833.905	61.95
834.082	82.43
834.259	82.43
834.436	102.91
834.612	96.77
834.789	139.77
834.966	178.69
835.143	123.39
835.319	-7.68
835.496	111.1
835.673	139.77
835.85	121.34
836.026	137.73
836.203	98.81
836.38	123.39
836.556	45.57
836.733	109.05
836.909	98.81
837.086	49.66
837.262	53.76
837.439	86.53
837.616	119.29
837.792	70.14
837.968	74.24
838.145	107.01
838.321	39.42
838.498	51.71
838.674	125.44
838.851	94.72
839.027	135.68
839.203	139.77
839.38	25.09
839.556	29.18
839.732	121.34
839.909	74.24
840.085	61.95
840.261	33.28
840.437	33.28
840.614	68.09
840.79	90.62
840.966	25.09
841.142	96.77
841.318	94.72
841.494	125.44
841.671	66.05
841.847	57.86
842.023	55.81
842.199	123.39
842.375	123.39
842.551	72.19
842.727	33.28
842.903	82.43
843.079	78.33
843.255	27.14
843.431	68.09
843.607	78.33
843.783	68.09
843.959	76.29
844.134	-19.97
844.31	117.25
844.486	115.2
844.662	57.86
844.838	84.48
845.013	23.04
845.189	-7.68
845.365	96.77
845.541	37.38
845.716	72.19
845.892	82.43
846.068	74.24
846.244	82.43
846.419	49.66
846.595	27.14
846.77	61.95
846.946	123.39
847.122	55.81
847.297	49.66
847.473	158.21
847.648	0.51
847.824	90.62
847.999	-5.63
848.175	57.86
848.35	41.47
848.526	76.29
848.701	76.29
848.876	86.53
849.052	98.81
849.227	123.39
849.403	6.66
849.578	59.9
849.753	33.28
849.929	66.05
850.104	59.9
850.279	70.14
850.454	16.9
850.63	66.05
850.805	113.15
850.98	113.15
851.155	113.15
851.33	31.23
851.505	27.14
851.681	162.3
851.856	0.51
852.031	35.33
852.206	66.05
852.381	76.29
852.556	16.9
852.731	70.14
852.906	98.81
853.081	41.47
853.256	76.29
853.431	64
853.606	-50.69
853.781	0.51
853.956	51.71
854.131	59.9
854.305	68.09
854.48	92.67
854.655	94.72
854.83	25.09
855.005	59.9
855.18	2.56
855.354	-22.02
855.529	82.43
855.704	57.86
855.879	115.2
856.053	35.33
856.228	25.09
856.403	0.51
856.577	74.24
856.752	41.47
856.926	4.61
857.101	66.05
857.276	25.09
857.45	49.66
857.625	102.91
857.799	70.14
857.974	33.28
858.148	14.85
858.323	123.39
858.497	66.05
858.672	107.01
858.846	82.43
859.02	18.94
859.195	-62.98
859.369	16.9
859.543	12.8
859.718	23.04
859.892	86.53
860.066	51.71
860.241	82.43
860.415	18.94
860.589	16.9
860.763	53.76
860.938	123.39
861.112	76.29
861.286	-36.35
861.46	35.33
861.634	18.94
861.808	98.81
861.982	-9.73
862.157	16.9
862.331	92.67
862.505	64
862.679	76.29
862.853	-19.97
863.027	16.9
863.201	53.76
863.375	61.95
863.549	20.99
863.722	33.28
863.896	90.62
864.07	39.42
864.244	74.24
864.418	-19.97
864.592	-22.02
864.766	16.9
864.939	57.86
865.113	27.14
865.287	55.81
865.461	-50.69
865.634	-28.16
865.808	47.62
865.982	25.09
866.156	35.33
866.329	55.81
866.503	102.91
866.676	33.28
866.85	80.38
867.024	14.85
867.197	90.62
867.371	102.91
867.544	37.38
867.718	41.47
867.891	0.51
868.065	35.33
868.238	33.28
868.412	135.68
868.585	66.05
868.759	37.38
868.932	-15.87
869.105	18.94
869.279	59.9
869.452	78.33
869.625	78.33
869.799	8.7
869.972	102.91
870.145	31.23
870.319	121.34
870.492	100.86
870.665	66.05
870.838	25.09
871.011	-36.35
871.185	6.66
871.358	100.86
871.531	53.76
871.704	20.99
871.877	72.19
872.05	51.71
872.223	70.14
872.396	68.09
872.569	107.01
872.742	90.62
872.915	20.99
873.088	51.71
873.261	33.28
873.434	127.49
873.607	35.33
873.78	76.29
873.953	31.23
874.126	-24.06
874.299	143.87
874.471	-13.82
874.644	90.62
874.817	35.33
874.99	125.44
875.163	100.86
875.335	51.71
875.508	55.81
875.681	20.99
875.853	35.33
876.026	72.19
876.199	66.05
876.371	8.7
876.544	66.05
876.717	10.75
876.889	37.38
877.062	86.53
877.234	-24.06
877.407	-30.21
877.579	16.9
877.752	115.2
877.924	100.86
878.097	33.28
878.269	41.47
878.442	23.04
878.614	76.29
878.786	10.75
878.959	49.66
879.131	12.8
879.303	45.57
879.476	16.9
879.648	72.19
879.82	2.56
879.993	-24.06
880.165	25.09
880.337	23.04
880.509	0.51
880.681	41.47
880.854	31.23
881.026	47.62
881.198	193.02
881.37	-15.87
881.542	-32.26
881.714	51.71
881.886	98.81
882.058	20.99
882.23	12.8
882.402	23.04
882.574	133.63
882.746	59.9
882.918	102.91
883.09	33.28
883.262	-15.87
883.434	49.66
883.606	25.09
883.778	23.04
883.95	41.47
884.122	49.66
884.293	51.71
884.465	20.99
884.637	115.2
884.809	41.47
884.98	37.38
885.152	94.72
885.324	-11.78
885.496	20.99
885.667	16.9
885.839	100.86
886.011	49.66
886.182	49.66
886.354	100.86
886.525	-30.21
886.697	80.38
886.869	2.56
887.04	0.51
887.212	74.24
887.383	61.95
887.555	18.94
887.726	29.18
887.897	70.14
888.069	-13.82
888.24	20.99
888.412	-44.54
888.583	49.66
888.754	39.42
888.926	23.04
889.097	43.52
889.268	-3.58
889.44	76.29
889.611	-7.68
889.782	23.04
889.953	0.51
890.125	84.48
890.296	35.33
890.467	59.9
890.638	-24.06
890.809	-11.78
890.98	37.38
891.151	-1.54
891.323	98.81
891.494	16.9
891.665	86.53
891.836	72.19
892.007	53.76
892.178	4.61
892.349	86.53
892.52	-24.06
892.691	76.29
892.862	2.56
893.032	66.05
893.203	-32.26
893.374	115.2
893.545	70.14
893.716	82.43
893.887	39.42
894.057	16.9
894.228	74.24
894.399	45.57
894.57	-5.63
894.74	18.94
894.911	-7.68
895.082	25.09
895.253	49.66
895.423	10.75
895.594	59.9
895.764	37.38
895.935	-11.78
896.106	68.09
896.276	57.86
896.447	-3.58
896.617	57.86
896.788	35.33
896.958	-17.92
897.129	90.62
897.299	45.57
897.47	-1.54
897.64	-13.82
897.81	16.9
897.981	53.76
898.151	-19.97
898.322	59.9
898.492	-22.02
898.662	14.85
898.832	-32.26
899.003	70.14
899.173	20.99
899.343	20.99
899.513	12.8
