Data from USB4F104151__247__14-22-30-983.txt Node

Date: Thu Mar 13 14:22:30 EDT 2025
User: louis
Spectrometer: USB4F10415
Trigger mode: 4
Integration Time (sec): 2.000000E-2
Scans to average: 1
Electric dark correction enabled: true
Nonlinearity correction enabled: false
Boxcar width: 0
XAxis mode: Wavelengths
Number of Pixels in Spectrum: 3648
>>>>>Begin Spectral Data<<<<<
178.204	-100.69
178.424	-100.69
178.644	-100.69
178.864	-172.37
179.084	-121.17
179.304	7.85
179.524	22.19
179.744	11.95
179.964	69.29
180.184	-104.79
180.404	77.48
180.624	26.28
180.844	20.14
181.064	-16.73
181.283	-22.87
181.503	-67.92
181.723	-22.87
181.943	-31.06
182.163	44.71
182.383	-41.3
182.602	40.62
182.822	-20.82
183.042	30.38
183.262	-69.97
183.482	50.86
183.701	-16.73
183.921	-24.92
184.141	-10.58
184.361	59.05
184.58	-39.25
184.8	-2.39
185.02	-47.44
185.239	79.53
185.459	5.8
185.679	-43.35
185.898	-51.54
186.118	16.04
186.338	46.76
186.557	48.81
186.777	5.8
186.997	-29.01
187.216	26.28
187.436	69.29
187.655	-24.92
187.875	57
188.095	5.8
188.314	-4.44
188.534	57
188.753	30.38
188.973	-16.73
189.192	54.95
189.412	-8.53
189.631	-31.06
189.851	20.14
190.07	50.86
190.29	-35.16
190.509	16.04
190.729	-16.73
190.948	30.38
191.168	85.67
191.387	-8.53
191.607	26.28
191.826	16.04
192.045	34.47
192.265	22.19
192.484	24.23
192.704	32.43
192.923	-43.35
193.142	81.58
193.362	-2.39
193.581	85.67
193.8	20.14
194.02	22.19
194.239	54.95
194.458	-14.68
194.678	-24.92
194.897	1.71
195.116	5.8
195.335	-26.96
195.555	-18.77
195.774	-18.77
195.993	30.38
196.212	11.95
196.432	32.43
196.651	16.04
196.87	1.71
197.089	106.15
197.308	75.43
197.528	18.09
197.747	-59.73
197.966	48.81
198.185	57
198.404	42.67
198.623	20.14
198.842	30.38
199.062	26.28
199.281	46.76
199.5	-45.4
199.719	24.23
199.938	-16.73
200.157	1.71
200.376	9.9
200.595	32.43
200.814	9.9
201.033	57
201.252	97.96
201.471	-10.58
201.69	-18.77
201.909	54.95
202.128	-51.54
202.347	-57.68
202.566	-18.77
202.785	5.8
203.004	-29.01
203.223	26.28
203.442	-12.63
203.661	-6.49
203.879	77.48
204.098	69.29
204.317	7.85
204.536	59.05
204.755	42.67
204.974	1.71
205.193	87.72
205.411	71.34
205.63	32.43
205.849	93.87
206.068	63.15
206.287	16.04
206.505	-2.39
206.724	-14.68
206.943	-4.44
207.162	-20.82
207.381	32.43
207.599	-16.73
207.818	77.48
208.037	-33.11
208.255	5.8
208.474	104.11
208.693	5.8
208.911	13.99
209.13	128.68
209.349	9.9
209.567	48.81
209.786	69.29
210.005	9.9
210.223	-39.25
210.442	50.86
210.661	73.39
210.879	61.1
211.098	48.81
211.316	-2.39
211.535	50.86
211.753	59.05
211.972	63.15
212.191	18.09
212.409	26.28
212.628	11.95
212.846	18.09
213.065	71.34
213.283	20.14
213.502	-2.39
213.72	-24.92
213.938	116.39
214.157	36.52
214.375	112.3
214.594	54.95
214.812	48.81
215.031	13.99
215.249	1.71
215.467	7.85
215.686	-18.77
215.904	50.86
216.122	-18.77
216.341	59.05
216.559	91.82
216.778	65.19
216.996	71.34
217.214	-10.58
217.432	-6.49
217.651	-2.39
217.869	3.75
218.087	5.8
218.306	-35.16
218.524	65.19
218.742	-2.39
218.96	97.96
219.179	89.77
219.397	-59.73
219.615	79.53
219.833	38.57
220.051	-67.92
220.27	75.43
220.488	-2.39
220.706	95.91
220.924	22.19
221.142	18.09
221.36	-22.87
221.578	13.99
221.796	-8.53
222.015	-8.53
222.233	48.81
222.451	22.19
222.669	-49.49
222.887	-16.73
223.105	-76.12
223.323	30.38
223.541	-14.68
223.759	13.99
223.977	-49.49
224.195	67.24
224.413	26.28
224.631	32.43
224.849	-49.49
225.067	13.99
225.285	-16.73
225.503	-98.64
225.721	-0.34
225.939	9.9
226.157	-24.92
226.375	128.68
226.592	-18.77
226.81	-24.92
227.028	54.95
227.246	-18.77
227.464	11.95
227.682	30.38
227.9	40.62
228.117	26.28
228.335	18.09
228.553	9.9
228.771	32.43
228.989	-2.39
229.206	48.81
229.424	-14.68
229.642	-6.49
229.86	16.04
230.077	52.91
230.295	-24.92
230.513	36.52
230.731	36.52
230.948	-6.49
231.166	83.63
231.384	-35.16
231.601	-18.77
231.819	54.95
232.037	46.76
232.254	-43.35
232.472	9.9
232.689	-16.73
232.907	-35.16
233.125	54.95
233.342	-59.73
233.56	-49.49
233.777	79.53
233.995	-2.39
234.213	22.19
234.43	3.75
234.648	-35.16
234.865	-29.01
235.083	5.8
235.3	13.99
235.518	71.34
235.735	34.47
235.953	-8.53
236.17	26.28
236.388	-29.01
236.605	-4.44
236.822	65.19
237.04	-12.63
237.257	-33.11
237.475	7.85
237.692	52.91
237.909	34.47
238.127	-14.68
238.344	7.85
238.562	-2.39
238.779	-6.49
238.996	-41.3
239.214	34.47
239.431	87.72
239.648	-35.16
239.865	24.23
240.083	18.09
240.3	7.85
240.517	-24.92
240.735	38.57
240.952	32.43
241.169	59.05
241.386	9.9
241.603	-57.68
241.821	22.19
242.038	9.9
242.255	18.09
242.472	-18.77
242.689	22.19
242.907	13.99
243.124	-6.49
243.341	26.28
243.558	-10.58
243.775	13.99
243.992	71.34
244.209	-33.11
244.426	48.81
244.643	-0.34
244.86	18.09
245.078	-33.11
245.295	-43.35
245.512	-0.34
245.729	-10.58
245.946	-12.63
246.163	71.34
246.38	57
246.597	-10.58
246.814	-2.39
247.031	5.8
247.248	-49.49
247.464	32.43
247.681	18.09
247.898	5.8
248.115	32.43
248.332	-14.68
248.549	26.28
248.766	89.77
248.983	-16.73
249.2	59.05
249.417	40.62
249.633	13.99
249.85	-0.34
250.067	13.99
250.284	-10.58
250.501	5.8
250.717	16.04
250.934	5.8
251.151	-0.34
251.368	54.95
251.585	38.57
251.801	30.38
252.018	-10.58
252.235	75.43
252.451	-39.25
252.668	32.43
252.885	-18.77
253.102	65.19
253.318	13.99
253.535	-0.34
253.752	32.43
253.968	30.38
254.185	-41.3
254.401	-10.58
254.618	13.99
254.835	-55.64
255.051	69.29
255.268	38.57
255.484	9.9
255.701	44.71
255.917	16.04
256.134	38.57
256.351	67.24
256.567	32.43
256.784	-24.92
257	13.99
257.217	9.9
257.433	-33.11
257.65	34.47
257.866	-8.53
258.082	-26.96
258.299	36.52
258.515	16.04
258.732	73.39
258.948	87.72
259.165	32.43
259.381	-39.25
259.597	40.62
259.814	54.95
260.03	-12.63
260.246	54.95
260.463	24.23
260.679	13.99
260.895	-4.44
261.112	-2.39
261.328	13.99
261.544	57
261.761	-24.92
261.977	-18.77
262.193	9.9
262.409	30.38
262.626	65.19
262.842	44.71
263.058	-6.49
263.274	100.01
263.49	-18.77
263.707	-8.53
263.923	65.19
264.139	-35.16
264.355	48.81
264.571	122.54
264.787	52.91
265.004	-20.82
265.22	-10.58
265.436	-8.53
265.652	-35.16
265.868	77.48
266.084	-22.87
266.3	-2.39
266.516	-39.25
266.732	5.8
266.948	54.95
267.164	40.62
267.38	22.19
267.596	-74.07
267.812	93.87
268.028	-2.39
268.244	-16.73
268.46	81.58
268.676	16.04
268.892	30.38
269.108	-22.87
269.324	38.57
269.54	-63.83
269.756	67.24
269.972	-47.44
270.188	42.67
270.403	-26.96
270.619	-2.39
270.835	-67.92
271.051	5.8
271.267	34.47
271.483	-41.3
271.698	-59.73
271.914	54.95
272.13	-0.34
272.346	-8.53
272.562	-8.53
272.777	138.92
272.993	36.52
273.209	-49.49
273.425	7.85
273.64	7.85
273.856	42.67
274.072	-26.96
274.287	7.85
274.503	26.28
274.719	26.28
274.934	57
275.15	-22.87
275.366	18.09
275.581	54.95
275.797	1.71
276.012	52.91
276.228	59.05
276.444	44.71
276.659	30.38
276.875	-80.21
277.09	-0.34
277.306	65.19
277.521	48.81
277.737	-8.53
277.952	79.53
278.168	-24.92
278.383	18.09
278.599	42.67
278.814	36.52
279.03	-45.4
279.245	67.24
279.461	42.67
279.676	65.19
279.892	-12.63
280.107	30.38
280.322	-16.73
280.538	-2.39
280.753	65.19
280.969	54.95
281.184	18.09
281.399	34.47
281.615	50.86
281.83	1.71
282.045	9.9
282.26	5.8
282.476	30.38
282.691	54.95
282.906	32.43
283.122	-6.49
283.337	-35.16
283.552	-2.39
283.767	3.75
283.983	120.49
284.198	24.23
284.413	61.1
284.628	-61.78
284.843	38.57
285.058	1.71
285.274	38.57
285.489	-20.82
285.704	97.96
285.919	-45.4
286.134	-47.44
286.349	46.76
286.564	-26.96
286.779	18.09
286.995	50.86
287.21	32.43
287.425	67.24
287.64	38.57
287.855	40.62
288.07	-2.39
288.285	46.76
288.5	-0.34
288.715	46.76
288.93	-2.39
289.145	-10.58
289.36	38.57
289.575	-14.68
289.79	104.11
290.004	-6.49
290.219	40.62
290.434	-18.77
290.649	-16.73
290.864	54.95
291.079	77.48
291.294	83.63
291.509	-2.39
291.724	22.19
291.938	-2.39
292.153	75.43
292.368	-6.49
292.583	65.19
292.798	81.58
293.012	46.76
293.227	-18.77
293.442	34.47
293.657	-43.35
293.871	71.34
294.086	38.57
294.301	120.49
294.516	30.38
294.73	22.19
294.945	-35.16
295.16	11.95
295.374	87.72
295.589	-4.44
295.804	-43.35
296.018	11.95
296.233	-6.49
296.447	-24.92
296.662	-53.59
296.877	44.71
297.091	42.67
297.306	-18.77
297.52	-6.49
297.735	54.95
297.949	57
298.164	52.91
298.378	-8.53
298.593	46.76
298.807	7.85
299.022	59.05
299.236	57
299.451	-18.77
299.665	-20.82
299.88	5.8
300.094	-16.73
300.309	42.67
300.523	36.52
300.737	-20.82
300.952	112.3
301.166	48.81
301.381	-2.39
301.595	-41.3
301.809	9.9
302.024	22.19
302.238	18.09
302.452	-35.16
302.667	50.86
302.881	-41.3
303.095	83.63
303.309	-12.63
303.524	22.19
303.738	5.8
303.952	16.04
304.166	57
304.381	-22.87
304.595	1.71
304.809	-41.3
305.023	40.62
305.237	-69.97
305.452	-43.35
305.666	-2.39
305.88	-6.49
306.094	11.95
306.308	5.8
306.522	-0.34
306.736	42.67
306.95	108.2
307.164	104.11
307.379	-8.53
307.593	46.76
307.807	-20.82
308.021	46.76
308.235	40.62
308.449	-43.35
308.663	28.33
308.877	73.39
309.091	32.43
309.305	22.19
309.519	-8.53
309.733	75.43
309.947	-2.39
310.161	63.15
310.374	-14.68
310.588	38.57
310.802	18.09
311.016	-10.58
311.23	83.63
311.444	-24.92
311.658	11.95
311.872	42.67
312.085	-10.58
312.299	26.28
312.513	24.23
312.727	1.71
312.941	9.9
313.154	-33.11
313.368	-2.39
313.582	38.57
313.796	-33.11
314.009	22.19
314.223	18.09
314.437	65.19
314.651	44.71
314.864	1.71
315.078	100.01
315.292	13.99
315.505	50.86
315.719	22.19
315.933	5.8
316.146	22.19
316.36	32.43
316.573	57
316.787	44.71
317.001	46.76
317.214	-6.49
317.428	38.57
317.641	-14.68
317.855	-8.53
318.068	-10.58
318.282	42.67
318.495	75.43
318.709	63.15
318.922	52.91
319.136	-2.39
319.349	46.76
319.563	-59.73
319.776	13.99
319.99	42.67
320.203	57
320.417	48.81
320.63	67.24
320.843	73.39
321.057	26.28
321.27	24.23
321.483	-22.87
321.697	24.23
321.91	52.91
322.124	106.15
322.337	-16.73
322.55	48.81
322.763	61.1
322.977	-18.77
323.19	9.9
323.403	3.75
323.617	-26.96
323.83	48.81
324.043	18.09
324.256	38.57
324.469	26.28
324.683	100.01
324.896	28.33
325.109	-6.49
325.322	-24.92
325.535	102.06
325.748	24.23
325.962	13.99
326.175	-0.34
326.388	30.38
326.601	-10.58
326.814	24.23
327.027	-22.87
327.24	46.76
327.453	-41.3
327.666	59.05
327.879	61.1
328.092	13.99
328.305	-8.53
328.518	63.15
328.731	-0.34
328.944	36.52
329.157	38.57
329.37	20.14
329.583	106.15
329.796	73.39
330.009	-6.49
330.222	104.11
330.435	24.23
330.648	-10.58
330.861	54.95
331.073	-35.16
331.286	65.19
331.499	26.28
331.712	57
331.925	7.85
332.138	81.58
332.35	79.53
332.563	5.8
332.776	-39.25
332.989	34.47
333.202	46.76
333.414	40.62
333.627	-24.92
333.84	-26.96
334.053	20.14
334.265	-26.96
334.478	71.34
334.691	-16.73
334.903	24.23
335.116	-18.77
335.329	54.95
335.541	13.99
335.754	87.72
335.966	22.19
336.179	-22.87
336.392	20.14
336.604	5.8
336.817	75.43
337.029	50.86
337.242	52.91
337.454	54.95
337.667	-67.92
337.88	75.43
338.092	5.8
338.305	13.99
338.517	20.14
338.729	52.91
338.942	42.67
339.154	16.04
339.367	7.85
339.579	-16.73
339.792	13.99
340.004	-0.34
340.217	-16.73
340.429	30.38
340.641	7.85
340.854	9.9
341.066	-8.53
341.278	54.95
341.491	63.15
341.703	61.1
341.915	-55.64
342.128	-26.96
342.34	42.67
342.552	7.85
342.764	11.95
342.977	54.95
343.189	-10.58
343.401	87.72
343.613	3.75
343.826	-43.35
344.038	-51.54
344.25	1.71
344.462	59.05
344.674	32.43
344.886	16.04
345.099	52.91
345.311	30.38
345.523	-22.87
345.735	-35.16
345.947	18.09
346.159	67.24
346.371	46.76
346.583	-41.3
346.795	38.57
347.007	11.95
347.219	57
347.431	-0.34
347.643	151.21
347.855	-6.49
348.067	89.77
348.279	-24.92
348.491	5.8
348.703	48.81
348.915	-59.73
349.127	34.47
349.339	-49.49
349.551	-0.34
349.763	13.99
349.975	30.38
350.187	7.85
350.399	-26.96
350.61	-10.58
350.822	59.05
351.034	13.99
351.246	54.95
351.458	38.57
351.669	36.52
351.881	22.19
352.093	5.8
352.305	-4.44
352.517	5.8
352.728	46.76
352.94	-10.58
353.152	-6.49
353.363	-33.11
353.575	40.62
353.787	48.81
353.999	26.28
354.21	28.33
354.422	34.47
354.633	-6.49
354.845	46.76
355.057	54.95
355.268	42.67
355.48	-6.49
355.692	-18.77
355.903	48.81
356.115	-2.39
356.326	-65.88
356.538	1.71
356.749	11.95
356.961	24.23
357.172	75.43
357.384	-6.49
357.595	89.77
357.807	-8.53
358.018	-18.77
358.23	48.81
358.441	73.39
358.653	54.95
358.864	71.34
359.075	-2.39
359.287	48.81
359.498	67.24
359.709	89.77
359.921	71.34
360.132	18.09
360.344	71.34
360.555	36.52
360.766	20.14
360.977	5.8
361.189	61.1
361.4	32.43
361.611	122.54
361.823	-10.58
362.034	73.39
362.245	38.57
362.456	38.57
362.667	-0.34
362.879	-0.34
363.09	18.09
363.301	-35.16
363.512	16.04
363.723	24.23
363.935	26.28
364.146	7.85
364.357	13.99
364.568	38.57
364.779	-10.58
364.99	7.85
365.201	48.81
365.412	65.19
365.623	-6.49
365.834	57
366.045	13.99
366.256	26.28
366.467	40.62
366.678	69.29
366.889	16.04
367.1	38.57
367.311	73.39
367.522	75.43
367.733	30.38
367.944	7.85
368.155	24.23
368.366	7.85
368.577	7.85
368.788	13.99
368.999	9.9
369.209	16.04
369.42	116.39
369.631	30.38
369.842	1.71
370.053	-10.58
370.264	22.19
370.474	87.72
370.685	-0.34
370.896	24.23
371.107	38.57
371.317	13.99
371.528	11.95
371.739	59.05
371.95	89.77
372.16	54.95
372.371	-8.53
372.582	-57.68
372.792	-57.68
373.003	44.71
373.214	7.85
373.424	100.01
373.635	-76.12
373.846	46.76
374.056	20.14
374.267	18.09
374.477	61.1
374.688	38.57
374.898	18.09
375.109	20.14
375.319	38.57
375.53	73.39
375.74	48.81
375.951	57
376.161	16.04
376.372	130.73
376.582	-8.53
376.793	108.2
377.003	5.8
377.214	28.33
377.424	28.33
377.635	22.19
377.845	13.99
378.055	48.81
378.266	11.95
378.476	5.8
378.686	5.8
378.897	30.38
379.107	75.43
379.317	28.33
379.528	59.05
379.738	-8.53
379.948	26.28
380.158	30.38
380.369	95.91
380.579	42.67
380.789	-6.49
380.999	30.38
381.21	-24.92
381.42	65.19
381.63	38.57
381.84	63.15
382.05	112.3
382.261	32.43
382.471	57
382.681	34.47
382.891	104.11
383.101	36.52
383.311	28.33
383.521	-0.34
383.731	16.04
383.941	-4.44
384.151	57
384.361	-8.53
384.571	18.09
384.781	26.28
384.991	-2.39
385.201	122.54
385.411	61.1
385.621	-10.58
385.831	-10.58
386.041	30.38
386.251	16.04
386.461	40.62
386.671	-14.68
386.881	-6.49
387.091	18.09
387.301	1.71
387.511	52.91
387.72	24.23
387.93	97.96
388.14	52.91
388.35	63.15
388.56	57
388.769	24.23
388.979	-0.34
389.189	42.67
389.399	81.58
389.609	104.11
389.818	5.8
390.028	38.57
390.238	97.96
390.447	5.8
390.657	13.99
390.867	7.85
391.076	79.53
391.286	120.49
391.496	5.8
391.705	-0.34
391.915	-33.11
392.125	54.95
392.334	54.95
392.544	65.19
392.753	97.96
392.963	-63.83
393.172	61.1
393.382	28.33
393.591	46.76
393.801	-33.11
394.01	20.14
394.22	-0.34
394.429	18.09
394.639	44.71
394.848	83.63
395.058	18.09
395.267	69.29
395.477	-35.16
395.686	50.86
395.895	32.43
396.105	89.77
396.314	52.91
396.524	65.19
396.733	97.96
396.942	13.99
397.152	40.62
397.361	22.19
397.57	114.34
397.78	9.9
397.989	71.34
398.198	181.93
398.407	-18.77
398.617	5.8
398.826	46.76
399.035	7.85
399.244	106.15
399.453	132.78
399.663	85.67
399.872	126.63
400.081	30.38
400.29	67.24
400.499	42.67
400.708	81.58
400.917	-18.77
401.127	108.2
401.336	38.57
401.545	87.72
401.754	116.39
401.963	59.05
402.172	40.62
402.381	67.24
402.59	34.47
402.799	104.11
403.008	22.19
403.217	89.77
403.426	89.77
403.635	63.15
403.844	46.76
404.053	87.72
404.262	46.76
404.471	61.1
404.68	169.64
404.888	71.34
405.097	81.58
405.306	71.34
405.515	120.49
405.724	128.68
405.933	177.83
406.142	163.5
406.35	114.34
406.559	71.34
406.768	69.29
406.977	194.22
407.185	120.49
407.394	159.4
407.603	97.96
407.812	63.15
408.02	163.5
408.229	167.59
408.438	136.87
408.646	136.87
408.855	108.2
409.064	163.5
409.272	136.87
409.481	145.06
409.69	145.06
409.898	186.02
410.107	243.37
410.315	231.08
410.524	206.5
410.733	218.79
410.941	210.6
411.15	204.46
411.358	257.7
411.567	327.33
411.775	229.03
411.984	272.04
412.192	284.33
412.401	261.8
412.609	329.38
412.818	288.42
413.026	343.72
413.234	261.8
413.443	386.72
413.651	300.71
413.86	349.86
414.068	390.82
414.276	439.97
414.485	358.05
414.693	421.54
414.901	458.4
415.11	482.98
415.318	435.88
415.526	433.83
415.734	521.89
415.943	517.79
416.151	509.6
416.359	464.55
416.567	562.85
416.776	612
416.984	538.27
417.192	646.82
417.4	648.86
417.608	603.81
417.817	622.24
418.025	741.02
418.233	751.26
418.441	741.02
418.649	736.93
418.857	777.89
419.065	804.51
419.273	769.69
419.481	841.37
419.689	925.34
419.897	947.87
420.105	917.15
420.313	1035.93
420.521	1076.89
420.729	1064.6
420.937	1103.51
421.145	1128.09
421.353	1146.52
421.561	1181.34
421.769	1130.14
421.977	1308.31
422.185	1289.88
422.393	1431.19
422.601	1490.58
422.809	1418.9
423.017	1455.76
423.224	1480.34
423.432	1539.73
423.64	1574.55
423.848	1769.1
424.056	1566.35
424.263	1722
424.471	1685.14
424.679	1867.41
424.887	1834.64
425.094	1990.28
425.302	2098.83
425.51	2107.02
425.718	2168.46
425.925	2066.06
426.133	2250.38
426.341	2231.94
426.548	2457.22
426.756	2365.06
426.964	2414.21
427.171	2698.88
427.379	2733.7
427.586	2764.42
427.794	2739.84
428.001	2895.49
428.209	3047.04
428.417	3174.01
428.624	3286.65
428.832	3286.65
429.039	3208.83
429.247	3176.06
429.454	3423.86
429.662	3843.7
429.869	3477.11
430.076	3765.87
430.284	3659.38
430.491	3898.99
430.699	4034.16
430.906	4030.06
431.114	4083.31
431.321	4247.15
431.528	4253.29
431.736	4566.63
431.943	4855.39
432.15	4595.3
432.358	4675.17
432.565	5004.89
432.772	4849.25
432.979	5338.71
433.187	5314.14
433.394	5324.38
433.601	5699.16
433.808	5676.63
434.016	5756.5
434.223	5791.31
434.43	6231.63
434.637	6125.13
434.844	6592.07
435.052	6493.77
435.259	6499.91
435.466	6673.99
435.673	6432.33
435.88	6895.17
436.087	7394.87
436.294	7386.68
436.501	7251.52
436.708	7439.93
436.915	7743.03
437.122	7816.76
437.329	7984.69
437.537	8109.61
437.743	8328.75
437.95	8418.86
438.157	8697.38
438.364	8619.56
438.571	8773.16
438.778	8830.5
438.985	9670.17
439.192	9348.64
439.399	9788.95
439.606	9524.76
439.813	9791
440.02	10581.51
440.227	10362.38
440.433	10227.21
440.64	10632.71
440.847	10585.61
441.054	10569.23
441.261	11632.12
441.467	11484.67
441.674	11451.9
441.881	11910.64
442.088	11959.8
442.294	11918.84
442.501	12223.98
442.708	12277.23
442.914	12895.72
443.121	13368.8
443.328	13086.18
443.534	14061.01
443.741	13463.01
443.948	13577.69
444.154	14427.6
444.361	14130.64
444.568	14278.1
444.774	14634.44
444.981	14695.88
445.187	14912.97
445.394	15467.97
445.6	15445.44
445.807	16932.26
446.013	16244.15
446.22	16537.01
446.426	17057.19
446.633	17243.56
446.839	17786.27
447.046	16995.75
447.252	17806.75
447.459	17911.19
447.665	17755.55
447.871	18625.93
448.078	19705.21
448.284	18673.04
448.491	19092.87
448.697	19844.48
448.903	19965.31
449.11	20123
449.316	20098.42
449.522	20135.29
449.728	20850.03
449.935	21233
450.141	20897.13
450.347	21579.11
450.553	20854.12
450.76	21134.7
450.966	22074.71
451.172	21515.62
451.378	22082.91
451.584	21357.92
451.791	22306.13
451.997	22113.63
452.203	22689.1
452.409	22664.53
452.615	22541.65
452.821	21765.47
453.027	21249.38
453.233	22386.01
453.44	21708.13
453.646	21904.73
453.852	21874.01
454.058	22173.02
454.264	21646.69
454.47	22046.04
454.676	21564.77
454.882	22254.94
455.088	20338.04
455.294	20825.45
455.5	21214.57
455.705	21310.82
455.911	20442.48
456.117	19961.21
456.323	19570.05
456.529	18675.09
456.735	19404.16
456.941	19043.72
457.147	18783.63
457.352	18312.6
457.558	18109.85
457.764	18091.41
457.97	17472.93
458.176	17288.61
458.381	17440.16
458.587	16430.51
458.793	16539.05
458.999	15429.06
459.204	16561.58
459.41	16254.39
459.616	15396.29
459.821	15195.59
460.027	15179.2
460.233	14761.42
460.438	14220.75
460.644	14153.17
460.85	13635.03
461.055	13391.33
461.261	13772.25
461.466	12506.6
461.672	12027.38
461.878	12944.87
462.083	12107.25
462.289	11884.02
462.494	11619.83
462.7	11210.24
462.905	10806.79
463.111	11216.38
463.316	11335.17
463.522	11236.86
463.727	11208.19
463.932	11107.84
464.138	10847.75
464.343	11089.41
464.549	10587.66
464.754	11042.31
464.959	10737.16
465.165	10843.65
465.37	10585.61
465.575	9983.51
465.781	10417.68
465.986	10464.78
466.191	10368.52
466.397	9965.07
466.602	9487.9
466.807	9831.96
467.012	9741.85
467.218	9717.27
467.423	9887.25
467.628	9846.29
467.833	10219.02
468.038	9909.78
468.244	9332.25
468.449	9963.03
468.654	9616.92
468.859	9377.31
469.064	9360.92
469.269	9131.55
469.474	9412.12
469.679	9403.93
469.885	8877.6
470.09	9168.41
470.295	9084.45
470.5	8893.99
470.705	8898.08
470.91	8787.49
471.115	8713.77
471.32	8736.29
471.525	8873.51
471.73	8537.64
471.935	8513.06
472.139	8236.59
472.344	8404.52
472.549	8185.39
472.754	8281.64
472.959	7966.26
473.164	7808.56
473.369	7855.67
473.574	8033.84
473.778	7953.97
473.983	7970.35
474.188	7829.04
474.393	7568.95
474.598	7458.36
474.802	7462.46
475.007	7362.11
475.212	7298.62
475.417	7255.61
475.621	7247.42
475.826	7206.46
476.031	7149.12
476.235	7030.34
476.44	7083.58
476.645	6880.83
476.849	6872.64
477.054	6743.62
477.259	6684.23
477.463	6790.72
477.668	6518.34
477.872	6616.65
478.077	6456.9
478.282	6420.04
478.486	6219.34
478.691	6356.55
478.895	6338.12
479.1	6299.21
479.304	6215.24
479.509	6004.3
479.713	6141.52
479.918	6073.93
480.122	5914.19
480.326	6037.07
480.531	5957.2
480.735	5903.95
480.94	5906
481.144	6137.42
481.348	5854.8
481.553	5733.97
481.757	5723.73
481.961	5883.47
482.166	5963.34
482.37	5781.07
482.574	5797.46
482.778	5799.51
482.983	5854.8
483.187	5785.17
483.391	5678.68
483.595	5645.91
483.8	5699.16
484.004	5750.35
484.208	5887.57
484.412	5731.92
484.616	5740.12
484.821	5731.92
485.025	5723.73
485.229	5858.9
485.433	5623.38
485.637	5686.87
485.841	5703.25
486.045	5727.83
486.249	5770.83
486.453	5580.37
486.657	5776.98
486.861	5729.88
487.065	5576.28
487.269	5598.81
487.473	5723.73
487.677	5664.34
487.881	5811.79
488.085	5719.64
488.289	5733.97
488.493	5733.97
488.697	5881.42
488.901	5858.9
489.105	5750.35
489.309	5834.32
489.512	5842.51
489.716	5932.62
489.92	5783.12
490.124	5797.46
490.328	5938.77
490.531	5981.78
490.735	5846.61
490.939	5955.15
491.143	5987.92
491.346	6026.83
491.55	6018.64
491.754	5846.61
491.958	6088.27
492.161	6026.83
492.365	6225.48
492.569	5983.82
492.772	6020.69
492.976	6108.75
493.18	6059.6
493.383	6252.11
493.587	6174.28
493.79	6379.08
493.994	6209.1
494.197	6295.11
494.401	6223.44
494.605	6424.14
494.808	6331.98
495.012	6487.62
495.215	6444.62
495.419	6514.25
495.622	6493.77
495.825	6676.04
496.029	6733.38
496.232	6825.54
496.436	6825.54
496.639	6899.27
496.843	6839.87
497.046	6913.6
497.249	7028.29
497.453	7069.25
497.656	7149.12
497.859	7145.02
498.063	7413.31
498.266	7366.2
498.469	7532.09
498.673	7466.55
498.876	7648.82
499.079	7552.57
499.282	7685.69
499.485	7900.72
499.689	7972.4
499.892	7833.14
500.095	7931.44
500.298	8230.45
500.501	8099.38
500.705	8302.12
500.908	8451.63
501.111	8537.64
501.314	8713.77
501.517	8848.93
501.72	8820.26
501.923	8642.09
502.126	9215.52
502.329	8988.19
502.532	8998.43
502.735	9197.09
502.938	9496.09
503.141	9272.86
503.344	9510.43
503.547	9584.15
503.75	9627.16
503.953	9946.64
504.156	10141.2
504.359	9809.43
504.562	10165.78
504.765	10421.77
504.968	10317.33
505.17	10501.64
505.373	10393.1
505.576	10853.89
505.779	10915.33
505.982	10931.72
506.185	10796.55
506.387	11120.13
506.59	11326.97
506.793	11494.91
506.996	11441.66
507.198	11904.5
507.401	11406.84
507.604	11724.28
507.807	11859.45
508.009	12049.91
508.212	12099.06
508.415	12275.18
508.617	12514.8
508.82	12531.18
509.022	12615.15
509.225	12918.25
509.428	12867.05
509.63	13147.62
509.833	13262.3
510.035	13252.06
510.238	13241.82
510.44	13520.35
510.643	13733.34
510.845	13712.86
511.048	13809.11
511.25	14089.68
511.453	14284.24
511.655	14761.42
511.858	14482.89
512.06	14390.74
512.262	14685.64
512.465	14673.35
512.667	14962.12
512.87	15398.34
513.072	15142.34
513.274	15599.04
513.477	15955.38
513.679	15807.93
513.881	15832.51
514.084	16170.42
514.286	16299.44
514.488	16119.22
514.69	16709.04
514.893	16821.67
515.095	17014.18
515.297	17249.7
515.499	16948.65
515.701	17145.25
515.904	17302.95
516.106	17466.78
516.308	17604
516.51	17919.39
516.712	17976.73
516.914	17915.29
517.116	18253.2
517.318	18464.14
517.52	18634.13
517.722	18625.93
517.925	18941.32
518.127	19019.14
518.329	19496.32
518.531	19111.3
518.733	19664.25
518.935	19623.3
519.136	19613.06
519.338	20039.03
519.54	20049.27
519.742	20243.83
519.944	20260.21
520.146	20960.62
520.348	21200.23
520.55	20895.08
520.752	21032.3
520.954	21507.43
521.155	21460.32
521.357	21761.37
521.559	21904.73
521.761	22050.14
521.963	22119.77
522.164	22238.55
522.366	22297.94
522.568	22558.03
522.77	22598.99
522.971	22904.14
523.173	22836.56
523.375	22766.93
523.576	23283.02
523.778	22830.41
523.98	23348.55
524.181	23508.29
524.383	23659.84
524.584	24161.59
524.786	24200.51
524.988	23874.88
525.189	23989.56
525.391	24263.99
525.592	24470.84
525.794	24460.6
525.995	24821.04
526.197	24958.25
526.398	24925.49
526.6	24620.34
526.801	24943.92
527.003	24954.16
527.204	25320.74
527.406	25279.78
527.607	25214.25
527.808	25386.28
528.01	25179.43
528.211	25605.41
528.412	25836.83
528.614	25650.47
528.815	25730.34
529.016	26139.93
529.218	25720.1
529.419	26078.49
529.62	26223.9
529.822	26111.26
530.023	26133.79
530.224	25994.53
530.425	25931.04
530.626	26189.08
530.828	25777.44
531.029	26682.64
531.23	26010.91
531.431	26453.27
531.632	25990.43
531.833	26359.06
532.035	26615.06
532.236	26555.67
532.437	26619.16
532.638	26328.34
532.839	26610.96
533.04	26696.98
533.241	26234.14
533.442	26969.36
533.643	26494.23
533.844	26510.61
534.045	26793.23
534.246	26354.97
534.447	26836.24
534.648	26453.27
534.849	26928.4
535.05	26588.44
535.251	26496.28
535.451	26803.47
535.652	26602.77
535.853	26330.39
536.054	26359.06
536.255	26762.51
536.456	26709.27
536.657	27106.57
536.857	26582.29
537.058	26359.06
537.259	26842.39
537.46	26549.53
537.66	26557.72
537.861	26627.35
538.062	26539.29
538.263	26899.73
538.463	26656.02
538.664	26629.4
538.865	26754.32
539.065	26694.93
539.266	26176.8
539.466	26932.5
539.667	26430.74
539.868	26875.15
540.068	26434.84
540.269	26418.46
540.469	26989.84
540.67	26289.43
540.87	26932.5
541.071	26615.06
541.271	26727.7
541.472	26776.85
541.672	26449.18
541.873	26389.78
542.073	26436.89
542.274	26668.31
542.474	26791.19
542.675	26369.3
542.875	26819.86
543.075	26588.44
543.276	26289.43
543.476	26440.98
543.676	26293.53
543.877	26289.43
544.077	26289.43
544.277	26502.42
544.478	26463.51
544.678	26744.08
544.878	26164.51
545.078	26260.76
545.279	26103.07
545.479	25922.85
545.679	26311.96
545.879	26209.56
546.079	26146.08
546.28	26254.62
546.48	25986.33
546.68	26518.81
546.88	26418.46
547.08	26225.95
547.28	26256.67
547.48	25914.66
547.68	26510.61
547.88	26174.75
548.081	26244.38
548.281	25863.46
548.481	26144.03
548.681	26395.93
548.881	26098.97
549.081	26227.99
549.28	26256.67
549.48	26346.78
549.68	26184.99
549.88	26461.46
550.08	25963.81
550.28	26457.37
550.48	26371.35
550.68	26164.51
550.88	26193.18
551.08	26049.82
551.279	26336.54
551.479	25857.31
551.679	26451.22
551.879	25996.57
552.079	26434.84
552.278	25955.61
552.478	26121.5
552.678	26215.71
552.878	26410.26
553.077	26287.39
553.277	25873.7
553.477	26209.56
553.676	25820.45
553.876	25990.43
554.076	25951.52
554.275	25822.5
554.475	25857.31
554.674	26170.65
554.874	25849.12
555.074	25836.83
555.273	25982.24
555.473	25947.42
555.672	25589.03
555.872	25855.26
556.071	25974.05
556.271	25689.38
556.47	25720.1
556.67	25447.72
556.869	25799.97
557.068	25812.26
557.268	25427.24
557.467	25476.39
557.667	25503.01
557.866	25664.8
558.065	25564.45
558.265	25218.35
558.464	25158.95
558.663	25601.32
558.863	25435.43
559.062	25765.15
559.261	25195.82
559.461	25730.34
559.66	25244.97
559.859	25230.63
560.058	24993.07
560.258	25185.58
560.457	24968.49
560.656	25320.74
560.855	25144.62
561.054	25294.12
561.253	24923.44
561.453	24941.87
561.652	25263.4
561.851	25136.43
562.05	24745.27
562.249	24790.32
562.448	24905.01
562.647	24767.79
562.846	24823.09
563.045	24710.45
563.244	24655.15
563.443	24759.6
563.642	24384.82
563.841	24782.13
564.04	24274.23
564.239	24487.22
564.438	24329.53
564.637	24331.58
564.836	24315.19
565.035	24374.58
565.234	24321.34
565.432	24307
565.631	24184.12
565.83	24245.56
566.029	24020.28
566.228	24130.87
566.427	23987.52
566.625	23786.82
566.824	23711.04
567.023	23780.67
567.222	23229.77
567.42	24005.95
567.619	23360.84
567.818	23516.48
568.016	23493.96
568.215	23725.38
568.414	23557.44
568.612	23303.5
568.811	23149.9
569.01	23272.78
569.208	23092.55
569.407	23399.75
569.605	22781.26
569.804	23123.27
570.002	22824.27
570.201	22996.3
570.4	22582.61
570.598	22840.65
570.797	22594.9
570.995	23108.94
571.193	22338.9
571.392	22881.61
571.59	22578.51
571.789	22662.48
571.987	22361.43
572.186	22338.9
572.384	22418.77
572.582	22572.37
572.781	22435.16
572.979	21826.91
573.177	22195.54
573.376	22297.94
573.574	22267.22
573.772	22127.96
573.971	21757.28
574.169	21914.97
574.367	21661.02
574.565	21683.55
574.763	21519.71
574.962	21710.18
575.16	21470.56
575.358	21792.09
575.556	21300.58
575.754	21755.23
575.952	21353.83
576.151	21583.2
576.349	21257.57
576.547	21151.08
576.745	21063.02
576.943	21171.56
577.141	21097.83
577.339	20983.15
577.537	20995.43
577.735	20909.42
577.933	20874.6
578.131	20731.25
578.329	20804.97
578.527	20737.39
578.725	20655.47
578.923	20381.04
579.121	20673.9
579.319	20448.63
579.516	20725.1
579.714	20555.12
579.912	20219.25
580.11	20282.74
580.308	20252.02
580.506	20120.95
580.704	20053.37
580.901	20297.08
581.099	20329.84
581.297	20123
581.495	19774.84
581.692	20282.74
581.89	19740.03
582.088	19879.29
582.285	19627.39
582.483	19674.49
582.681	19819.9
582.878	19578.24
583.076	19467.65
583.274	19574.14
583.471	19371.4
583.669	19412.35
583.866	19393.92
584.064	19690.88
584.262	18998.66
584.459	19242.37
584.657	19056.01
584.854	19414.4
585.052	18935.18
585.249	19086.73
585.447	18935.18
585.644	18826.64
585.841	18963.85
586.039	19355.01
586.236	18714
586.434	18623.89
586.631	18791.82
586.828	18849.16
587.026	18589.07
587.223	18453.91
587.42	18464.14
587.618	18326.93
587.815	18099.61
588.012	18388.37
588.21	18079.13
588.407	18197.91
588.604	18083.22
588.801	18173.33
588.999	18118.04
589.196	18036.12
589.393	18056.6
589.59	17898.91
589.787	17661.34
589.984	17849.75
590.182	17765.79
590.379	17548.7
590.576	17573.28
590.773	17767.84
590.97	17647.01
591.167	17669.53
591.364	17296.8
591.561	17393.06
591.758	17395.11
591.955	17253.8
592.152	17255.84
592.349	17143.21
592.546	17194.4
592.743	17175.97
592.94	17032.61
593.137	16942.5
593.334	17229.22
593.531	16958.89
593.727	17120.68
593.924	17057.19
594.121	16496.05
594.318	16864.68
594.515	16504.24
594.712	16559.53
594.908	16430.51
595.105	16840.11
595.302	16362.93
595.499	16598.45
595.696	16342.45
595.892	16483.76
596.089	16375.22
596.286	16610.73
596.482	16446.9
596.679	16311.73
596.876	16223.67
597.072	16367.02
597.269	16133.56
597.466	15859.13
597.662	16082.36
597.859	15990.2
598.055	15924.66
598.252	15803.83
598.448	15867.32
598.645	15775.16
598.841	15726.01
599.038	15820.22
599.234	15840.7
599.431	15513.02
599.627	15392.19
599.824	15533.5
600.02	15500.73
600.217	15347.14
600.413	15230.4
600.609	15406.53
600.806	15318.46
601.002	15308.23
601.198	15189.44
601.395	15005.13
601.591	15064.52
601.787	15138.24
601.984	14765.51
602.18	15033.8
602.376	14718.41
602.572	14808.52
602.769	14886.34
602.965	14622.16
603.161	14941.64
603.357	14527.95
603.553	14568.91
603.75	14538.19
603.946	14544.33
604.142	14579.15
604.338	14360.02
604.534	14413.26
604.73	14480.85
604.926	14144.98
605.122	14421.45
605.318	14181.84
605.514	14298.58
605.71	14081.49
605.906	14218.71
606.102	14267.86
606.298	14005.72
606.494	14034.39
606.69	14054.87
606.886	14224.85
607.082	13813.21
607.278	14065.11
607.474	13747.67
607.67	13921.75
607.866	13612.51
608.062	13749.72
608.257	13792.73
608.453	13710.81
608.649	13776.34
608.845	13719
609.041	13516.25
609.236	13727.19
609.432	13501.92
609.628	13655.51
609.824	13608.41
610.019	13579.74
610.215	13612.51
610.411	13596.12
610.606	13344.22
610.802	13473.25
610.998	13446.62
611.193	13233.63
611.389	13116.9
611.584	13303.26
611.78	12957.16
611.976	13231.58
612.171	13301.22
612.367	13204.96
612.562	13186.53
612.758	13055.46
612.953	12926.44
613.149	13118.95
613.344	12817.9
613.539	13071.84
613.735	13030.88
613.93	12989.92
614.126	12885.48
614.321	13227.49
614.517	12858.85
614.712	13063.65
614.907	12738.02
615.103	12967.4
615.298	12625.39
615.493	12785.13
615.688	12578.28
615.884	12983.78
616.079	12565.99
616.274	12869.09
616.47	12625.39
616.665	12635.63
616.86	12590.57
617.055	12602.86
617.25	12588.52
617.445	12496.36
617.641	12609
617.836	12529.13
618.031	12314.09
618.226	12641.77
618.421	12373.49
618.616	12645.87
618.811	12150.26
619.006	12611.05
619.201	12131.83
619.396	12199.41
619.591	11927.03
619.786	12344.81
619.981	11992.56
620.176	12072.43
620.371	11910.64
620.566	11896.31
620.761	11808.25
620.956	11769.34
621.151	11572.73
621.346	11808.25
621.541	11513.34
621.735	11603.45
621.93	11296.25
622.125	11595.26
622.32	11261.44
622.515	11253.25
622.709	11214.34
622.904	11167.23
623.099	11314.69
623.294	11304.45
623.488	11060.74
623.683	11142.66
623.878	10962.44
624.072	10794.5
624.267	10782.21
624.462	10731.01
624.656	10614.28
624.851	10692.1
625.046	10612.23
625.24	10645
625.435	10585.61
625.629	10515.98
625.824	10229.26
626.018	10475.02
626.213	10180.11
626.407	10372.62
626.602	10081.81
626.796	10194.45
626.991	10151.44
627.185	9971.22
627.38	9829.91
627.574	9733.65
627.768	9682.45
627.963	9793.05
628.157	9717.27
628.352	9821.72
628.546	9530.91
628.74	9774.61
628.935	9670.17
629.129	9393.69
629.323	9319.96
629.517	9262.62
629.712	9203.23
629.906	9463.32
630.1	9270.81
630.294	9254.43
630.489	9082.4
630.683	9272.86
630.877	8836.64
631.071	8977.95
631.265	9111.07
631.459	8957.47
631.653	8893.99
631.848	8717.86
632.042	8869.41
632.236	8795.68
632.43	8599.08
632.624	8631.85
632.818	8410.67
633.012	8506.92
633.206	8422.95
633.4	8418.86
633.594	8478.25
633.788	8551.98
633.982	8283.69
634.176	8224.3
634.369	8410.67
634.563	8250.92
634.757	8148.53
634.951	8117.81
635.145	8058.42
635.339	8156.72
635.533	7976.5
635.726	8042.03
635.92	7755.32
636.114	7822.9
636.308	7831.09
636.501	7865.91
636.695	7710.26
636.889	7495.22
637.083	7722.55
637.276	7525.94
637.47	7650.87
637.664	7714.36
637.857	7382.59
638.051	7511.61
638.244	7571
638.438	7405.11
638.632	7386.68
638.825	7378.49
639.019	7407.16
639.212	7298.62
639.406	7237.18
639.599	7065.15
639.793	7050.82
639.986	6995.52
640.18	7061.05
640.373	7026.24
640.567	6784.58
640.76	6897.22
640.954	6663.75
641.147	6905.41
641.34	6651.46
641.534	6870.59
641.727	6798.91
641.92	6620.74
642.114	6628.93
642.307	6628.93
642.5	6749.76
642.694	6506.06
642.887	6680.13
643.08	6567.49
643.273	6469.19
643.467	6538.82
643.66	6397.51
643.853	6272.59
644.046	6428.23
644.239	6354.51
644.432	6266.44
644.626	6215.24
644.819	6055.5
645.012	6121.04
645.205	6162
645.398	6000.21
645.591	6118.99
645.784	6078.03
645.977	6053.45
646.17	5920.34
646.363	5881.42
646.556	5875.28
646.749	5891.66
646.942	5824.08
647.135	5883.47
647.328	5727.83
647.521	5850.71
647.714	5678.68
647.907	5725.78
648.099	5592.66
648.292	5584.47
648.485	5572.18
648.678	5594.71
648.871	5633.62
649.064	5576.28
649.256	5621.33
649.449	5428.82
649.642	5367.38
649.835	5314.14
650.027	5307.99
650.22	5328.47
650.413	5422.68
650.605	5203.55
650.798	5271.13
650.991	5256.79
651.183	5363.29
651.376	5178.97
651.568	5027.42
651.761	5078.62
651.954	5064.29
652.146	5062.24
652.339	5043.81
652.531	4904.54
652.724	5047.9
652.916	4732.51
653.109	4920.93
653.301	5074.53
653.494	4945.5
653.686	4906.59
653.879	4783.71
654.071	4728.42
654.263	4855.39
654.456	4763.23
654.648	4785.76
654.84	4816.48
655.033	4765.28
655.225	4671.08
655.417	4542.05
655.61	4740.71
655.802	4693.6
655.994	4619.88
656.186	4556.39
656.379	4380.26
656.571	4542.05
656.763	4406.89
656.955	4367.98
657.148	4503.14
657.34	4345.45
657.532	4365.93
657.724	4451.94
657.916	4337.26
658.108	4333.16
658.3	4314.73
658.492	4413.03
658.684	4265.58
658.876	4169.32
659.068	4216.43
659.26	4193.9
659.452	4189.8
659.644	4308.58
659.836	4183.66
660.028	4257.39
660.22	4079.21
660.412	3980.91
660.604	4048.49
660.796	4085.36
660.988	4087.4
661.18	3872.37
661.372	4021.87
661.563	3890.8
661.755	3958.38
661.947	3898.99
662.139	3864.18
662.331	3802.74
662.522	3774.07
662.714	3985.01
662.906	3741.3
663.097	3894.9
663.289	3700.34
663.481	3661.43
663.673	3894.9
663.864	3683.95
664.056	3688.05
664.247	3661.43
664.439	3585.65
664.631	3571.32
664.822	3618.42
665.014	3636.85
665.205	3675.76
665.397	3634.8
665.588	3552.88
665.78	3602.04
665.971	3569.27
666.163	3597.94
666.354	3643
666.546	3602.04
666.737	3554.93
666.929	3509.88
667.12	3614.32
667.311	3532.4
667.503	3415.67
667.694	3491.45
667.885	3382.9
668.077	3395.19
668.268	3384.95
668.459	3276.41
668.651	3491.45
668.842	3421.81
669.033	3415.67
669.224	3239.55
669.416	3497.59
669.607	3284.6
669.798	3210.87
669.989	3348.09
670.18	3309.18
670.371	3208.83
670.563	3270.26
670.754	3282.55
670.945	3208.83
671.136	3298.94
671.327	3186.3
671.518	3196.54
671.709	3237.5
671.9	3239.55
672.091	3249.79
672.282	3145.34
672.473	3145.34
672.664	3182.2
672.855	2979.45
673.046	3194.49
673.237	3135.1
673.428	3106.43
673.619	3102.33
673.809	3096.19
674	3014.27
674.191	3110.52
674.382	3167.87
674.573	3137.15
674.764	3010.17
674.954	3122.81
675.145	3135.1
675.336	3057.28
675.527	3028.6
675.717	2944.64
675.908	3096.19
676.099	3151.48
676.289	3008.12
676.48	3032.7
676.671	3008.12
676.861	2948.73
677.052	3026.56
677.243	2905.73
677.433	2942.59
677.624	2856.58
677.814	2836.1
678.005	2985.6
678.195	3073.66
678.386	2928.25
678.576	2936.45
678.767	2872.96
678.957	2844.29
679.148	2944.64
679.338	2963.07
679.529	2883.2
679.719	2881.15
679.909	2897.53
680.1	2944.64
680.29	2907.77
680.481	2975.36
680.671	2897.53
680.861	3038.84
681.052	2897.53
681.242	2776.7
681.432	2829.95
681.622	2907.77
681.813	2772.61
682.003	2924.16
682.193	2881.15
682.383	2940.54
682.573	2889.34
682.764	2836.1
682.954	2967.17
683.144	2875.01
683.334	2961.02
683.524	2860.67
683.714	2897.53
683.904	2875.01
684.094	2866.81
684.284	2844.29
684.474	2922.11
684.664	2918.01
684.854	2866.81
685.044	2713.22
685.234	2821.76
685.424	2782.85
685.614	2825.86
685.804	2809.47
685.994	2840.19
686.184	2836.1
686.374	2877.05
686.564	2733.7
686.753	2864.77
686.943	2637.44
687.133	2700.93
687.323	2799.23
687.513	2803.33
687.702	2782.85
687.892	2702.98
688.082	2815.62
688.272	2743.94
688.461	2600.58
688.651	2721.41
688.841	2774.66
689.03	2580.1
689.22	2559.62
689.41	2659.97
689.599	2733.7
689.789	2598.53
689.979	2705.03
690.168	2594.44
690.358	2541.19
690.547	2553.48
690.737	2686.59
690.926	2553.48
691.116	2549.38
691.305	2549.38
691.495	2446.98
691.684	2528.9
691.874	2514.56
692.063	2475.65
692.252	2487.94
692.442	2463.37
692.631	2582.15
692.82	2446.98
693.01	2512.52
693.199	2389.64
693.388	2412.17
693.578	2342.53
693.767	2336.39
693.956	2457.22
694.146	2340.49
694.335	2446.98
694.524	2328.2
694.713	2465.41
694.902	2238.09
695.092	2317.96
695.281	2291.34
695.47	2246.28
695.659	2406.02
695.848	2377.35
696.037	2369.16
696.226	2260.62
696.415	2365.06
696.604	2377.35
696.793	2383.49
696.982	2324.1
697.171	2285.19
697.36	2209.42
697.549	2303.62
697.738	2190.99
697.927	2369.16
698.116	2246.28
698.305	2315.91
698.494	2229.9
698.683	2299.53
698.872	2340.49
699.061	2250.38
699.25	2209.42
699.438	2287.24
699.627	2233.99
699.816	2268.81
700.005	2293.38
700.193	2274.95
700.382	2324.1
700.571	2250.38
700.76	2121.35
700.948	2295.43
701.137	2244.23
701.326	2311.82
701.514	2180.75
701.703	2324.1
701.892	2266.76
702.08	2236.04
702.269	2193.03
702.457	2262.66
702.646	2266.76
702.834	2195.08
703.023	2254.47
703.212	2266.76
703.4	2238.09
703.589	2283.14
703.777	2123.4
703.965	2164.36
704.154	2283.14
704.342	2211.46
704.531	2250.38
704.719	2123.4
704.907	2238.09
705.096	2168.46
705.284	2178.7
705.472	2252.42
705.661	2158.22
705.849	2170.51
706.037	2147.98
706.226	2283.14
706.414	2213.51
706.602	2227.85
706.79	2217.61
706.979	2143.88
707.167	2285.19
707.355	2037.39
707.543	2184.84
707.731	2203.27
707.919	2229.9
708.107	2129.55
708.296	2121.35
708.484	2119.31
708.672	2139.79
708.86	2109.07
709.048	2162.31
709.236	2195.08
709.424	2274.95
709.612	2201.23
709.8	2113.16
709.988	2168.46
710.176	2246.28
710.364	2137.74
710.551	2236.04
710.739	2168.46
710.927	2186.89
711.115	2102.92
711.303	2266.76
711.491	2225.8
711.679	2242.18
711.866	2236.04
712.054	2225.8
712.242	2131.59
712.43	2143.88
712.617	2195.08
712.805	2143.88
712.993	2176.65
713.181	2154.12
713.368	2225.8
713.556	2195.08
713.744	2064.01
713.931	2252.42
714.119	2053.77
714.306	2074.25
714.494	2133.64
714.682	2260.62
714.869	2098.83
715.057	2152.07
715.244	2209.42
715.432	2131.59
715.619	2133.64
715.807	2180.75
715.994	2156.17
716.182	2094.73
716.369	2170.51
716.556	2242.18
716.744	2107.02
716.931	2240.14
717.119	2238.09
717.306	2184.84
717.493	2172.55
717.681	2074.25
717.868	2201.23
718.055	2156.17
718.242	2068.11
718.43	2180.75
718.617	2158.22
718.804	2162.31
718.991	2088.59
719.179	2141.83
719.366	2113.16
719.553	1971.85
719.74	2078.35
719.927	2145.93
720.114	2178.7
720.301	2072.2
720.488	2115.21
720.676	2004.62
720.863	2229.9
721.05	2184.84
721.237	2211.46
721.424	2219.66
721.611	2064.01
721.798	2084.49
721.985	2021
722.172	2049.68
722.358	1998.48
722.545	2066.06
722.732	2121.35
722.919	2115.21
723.106	2010.76
723.293	2094.73
723.48	2076.3
723.667	2027.15
723.853	2068.11
724.04	2145.93
724.227	2129.55
724.414	2111.11
724.6	2096.78
724.787	2156.17
724.974	2156.17
725.161	2043.53
725.347	2078.35
725.534	1955.47
725.72	2092.68
725.907	2158.22
726.094	2238.09
726.28	2070.16
726.467	2186.89
726.653	2098.83
726.84	2016.91
727.027	2119.31
727.213	2080.39
727.4	2117.26
727.586	2045.58
727.773	2090.63
727.959	2096.78
728.145	2119.31
728.332	2082.44
728.518	2102.92
728.705	2086.54
728.891	2086.54
729.077	2061.96
729.264	2021
729.45	2104.97
729.636	2184.84
729.823	2039.44
730.009	1994.38
730.195	2203.27
730.382	2135.69
730.568	1982.09
730.754	2059.92
730.94	2094.73
731.126	2184.84
731.313	2141.83
731.499	2049.68
731.685	2053.77
731.871	2203.27
732.057	2113.16
732.243	2111.11
732.429	2135.69
732.615	2037.39
732.801	2006.67
732.987	2000.52
733.173	2088.59
733.359	1971.85
733.545	1990.28
733.731	2061.96
733.917	2096.78
734.103	2061.96
734.289	2119.31
734.475	2029.2
734.661	2064.01
734.847	1947.28
735.033	2047.63
735.219	1996.43
735.404	2053.77
735.59	2041.48
735.776	2078.35
735.962	2111.11
736.148	2053.77
736.333	2006.67
736.519	2115.21
736.705	1973.9
736.89	2068.11
737.076	1967.76
737.262	1920.65
737.447	2061.96
737.633	1998.48
737.819	2049.68
738.004	2131.59
738.19	1920.65
738.375	1900.17
738.561	2016.91
738.747	2029.2
738.932	1982.09
739.118	2029.2
739.303	2012.81
739.489	1980.04
739.674	1861.26
739.859	2012.81
740.045	1965.71
740.23	1988.24
740.416	1963.66
740.601	2037.39
740.786	1885.84
740.972	1955.47
741.157	1965.71
741.342	1828.49
741.528	1832.59
741.713	1955.47
741.898	1873.55
742.084	1998.48
742.269	1982.09
742.454	1836.69
742.639	1963.66
742.824	1861.26
743.01	1900.17
743.195	1855.12
743.38	1875.6
743.565	1873.55
743.75	1834.64
743.935	1947.28
744.12	1732.24
744.305	1740.43
744.49	1762.96
744.675	1812.11
744.86	1840.78
745.045	1758.86
745.23	1877.65
745.415	1717.9
745.6	1834.64
745.785	1701.52
745.97	1738.38
746.155	1709.71
746.34	1697.42
746.525	1674.9
746.71	1603.22
746.895	1588.88
747.079	1681.04
747.264	1695.38
747.449	1685.14
747.634	1576.59
747.819	1623.7
748.003	1635.99
748.188	1570.45
748.373	1678.99
748.557	1648.27
748.742	1709.71
748.927	1595.03
749.111	1539.73
749.296	1572.5
749.481	1558.16
749.665	1496.72
749.85	1408.66
750.034	1623.7
750.219	1652.37
750.404	1463.96
750.588	1517.2
750.773	1429.14
750.957	1423
751.141	1423
751.326	1410.71
751.51	1377.94
751.695	1402.52
751.879	1398.42
752.064	1414.81
752.248	1416.85
752.432	1369.75
752.617	1431.19
752.801	1371.8
752.985	1375.89
753.17	1427.09
753.354	1345.17
753.538	1293.97
753.722	1279.64
753.907	1238.68
754.091	1316.5
754.275	1328.79
754.459	1300.12
754.643	1242.78
754.828	1238.68
755.012	1195.67
755.196	1277.59
755.38	1201.82
755.564	1187.48
755.748	1150.62
755.932	1193.62
756.116	1236.63
756.3	1162.9
756.484	1259.16
756.668	1181.34
756.852	1175.19
757.036	1136.28
757.22	1205.91
757.404	1173.14
757.588	1076.89
757.772	1078.94
757.956	1185.43
758.14	1195.67
758.323	1111.71
758.507	1037.98
758.691	1078.94
758.875	1117.85
759.059	1078.94
759.242	1111.71
759.426	1072.79
759.61	1095.32
759.794	988.83
759.977	1083.03
760.161	1078.94
760.345	1148.57
760.528	1171.1
760.712	1009.31
760.895	980.64
761.079	1005.21
761.263	921.24
761.446	972.44
761.63	990.88
761.813	1007.26
761.997	935.58
762.18	949.92
762.364	954.01
762.547	949.92
762.731	939.68
762.914	1029.79
763.098	925.34
763.281	915.1
763.464	884.38
763.648	939.68
763.831	851.61
764.015	876.19
764.198	943.77
764.381	833.18
764.564	882.33
764.748	933.53
764.931	872.09
765.114	923.29
765.297	896.67
765.481	943.77
765.664	747.17
765.847	824.99
766.03	863.9
766.213	857.76
766.397	878.24
766.58	857.76
766.763	845.47
766.946	851.61
767.129	710.3
767.312	841.37
767.495	849.57
767.678	755.36
767.861	853.66
768.044	820.89
768.227	792.22
768.41	806.56
768.593	743.07
768.776	884.38
768.959	710.3
769.142	841.37
769.324	792.22
769.507	700.06
769.69	745.12
769.873	753.31
770.056	751.26
770.239	757.41
770.421	734.88
770.604	781.98
770.787	753.31
770.97	761.5
771.152	720.54
771.335	753.31
771.518	601.76
771.7	726.69
771.883	751.26
772.066	673.44
772.248	779.93
772.431	714.4
772.613	714.4
772.796	720.54
772.978	710.3
773.161	624.29
773.343	704.16
773.526	679.58
773.708	745.12
773.891	702.11
774.073	667.3
774.256	665.25
774.438	681.63
774.621	634.53
774.803	728.74
774.985	622.24
775.168	587.43
775.35	620.19
775.532	679.58
775.715	595.62
775.897	620.19
776.079	566.95
776.261	659.1
776.444	534.18
776.626	614.05
776.808	620.19
776.99	622.24
777.173	605.86
777.355	560.8
777.537	655.01
777.719	607.91
777.901	513.7
778.083	556.71
778.265	546.47
778.447	655.01
778.629	573.09
778.811	521.89
778.993	511.65
779.175	595.62
779.357	517.79
779.539	587.43
779.721	439.97
779.903	454.31
780.085	603.81
780.267	509.6
780.449	466.6
780.631	487.08
780.812	556.71
780.994	442.02
781.176	521.89
781.358	466.6
781.54	554.66
781.721	532.13
781.903	501.41
782.085	448.16
782.267	489.12
782.448	439.97
782.63	378.53
782.812	431.78
782.993	448.16
783.175	517.79
783.357	407.2
783.538	452.26
783.72	458.4
783.901	401.06
784.083	415.4
784.264	485.03
784.446	353.96
784.627	374.44
784.809	362.15
784.99	439.97
785.172	349.86
785.353	415.4
785.535	450.21
785.716	321.19
785.897	374.44
786.079	376.48
786.26	376.48
786.441	310.95
786.623	382.63
786.804	366.25
786.985	368.29
787.167	399.01
787.348	366.25
787.529	327.33
787.71	435.88
787.891	302.76
788.073	335.53
788.254	331.43
788.435	382.63
788.616	386.72
788.797	349.86
788.978	360.1
789.159	267.94
789.34	335.53
789.522	341.67
789.703	280.23
789.884	317.09
790.065	321.19
790.246	370.34
790.427	267.94
790.607	345.77
790.788	337.57
790.969	304.81
791.15	251.56
791.331	306.85
791.512	247.46
791.693	245.41
791.874	292.52
792.054	300.71
792.235	374.44
792.416	300.71
792.597	280.23
792.778	276.13
792.958	282.28
793.139	196.26
793.32	337.57
793.5	269.99
793.681	294.57
793.862	272.04
794.042	327.33
794.223	210.6
794.404	202.41
794.584	218.79
794.765	333.48
794.945	190.12
795.126	229.03
795.306	231.08
795.487	292.52
795.667	181.93
795.848	280.23
796.028	302.76
796.209	366.25
796.389	272.04
796.57	298.66
796.75	245.41
796.93	245.41
797.111	210.6
797.291	218.79
797.471	261.8
797.652	286.37
797.832	263.85
798.012	229.03
798.192	163.5
798.373	251.56
798.553	224.94
798.733	300.71
798.913	159.4
799.093	120.49
799.274	183.98
799.454	233.13
799.634	229.03
799.814	169.64
799.994	233.13
800.174	259.75
800.354	235.18
800.534	218.79
800.714	237.22
800.894	272.04
801.074	188.07
801.254	120.49
801.434	284.33
801.614	229.03
801.794	237.22
801.974	767.65
802.154	231.08
802.334	245.41
802.514	145.06
802.693	196.26
802.873	132.78
803.053	235.18
803.233	265.89
803.413	214.7
803.592	196.26
803.772	161.45
803.952	173.74
804.131	190.12
804.311	196.26
804.491	210.6
804.67	181.93
804.85	171.69
805.03	190.12
805.209	239.27
805.389	179.88
805.568	106.15
805.748	194.22
805.928	229.03
806.107	104.11
806.287	161.45
806.466	220.84
806.646	138.92
806.825	106.15
807.004	149.16
807.184	192.17
807.363	216.74
807.543	95.91
807.722	132.78
807.901	122.54
808.081	149.16
808.26	177.83
808.439	130.73
808.619	89.77
808.798	112.3
808.977	161.45
809.156	136.87
809.336	110.25
809.515	138.92
809.694	130.73
809.873	149.16
810.052	210.6
810.231	208.55
810.411	198.31
810.59	128.68
810.769	161.45
810.948	167.59
811.127	124.58
811.306	136.87
811.485	73.39
811.664	138.92
811.843	138.92
812.022	112.3
812.201	112.3
812.38	179.88
812.559	132.78
812.737	67.24
812.916	48.81
813.095	128.68
813.274	145.06
813.453	235.18
813.632	153.26
813.811	149.16
813.989	116.39
814.168	83.63
814.347	120.49
814.526	102.06
814.704	112.3
814.883	175.78
815.062	147.11
815.24	138.92
815.419	67.24
815.598	106.15
815.776	91.82
815.955	124.58
816.133	40.62
816.312	95.91
816.49	145.06
816.669	48.81
816.847	104.11
817.026	95.91
817.204	59.05
817.383	114.34
817.561	130.73
817.74	114.34
817.918	77.48
818.097	97.96
818.275	32.43
818.453	114.34
818.632	112.3
818.81	75.43
818.988	30.38
819.167	169.64
819.345	136.87
819.523	95.91
819.701	50.86
819.879	128.68
820.058	87.72
820.236	89.77
820.414	26.28
820.592	104.11
820.77	81.58
820.948	114.34
821.127	106.15
821.305	89.77
821.483	59.05
821.661	145.06
821.839	71.34
822.017	69.29
822.195	143.02
822.373	81.58
822.551	124.58
822.729	177.83
822.907	89.77
823.085	83.63
823.262	87.72
823.44	130.73
823.618	63.15
823.796	100.01
823.974	75.43
824.152	95.91
824.329	71.34
824.507	71.34
824.685	130.73
824.863	44.71
825.04	100.01
825.218	108.2
825.396	40.62
825.574	59.05
825.751	132.78
825.929	69.29
826.107	57
826.284	163.5
826.462	71.34
826.639	108.2
826.817	48.81
826.994	28.33
827.172	48.81
827.349	65.19
827.527	42.67
827.704	114.34
827.882	36.52
828.059	34.47
828.237	63.15
828.414	63.15
828.591	36.52
828.769	83.63
828.946	28.33
829.124	38.57
829.301	87.72
829.478	75.43
829.655	106.15
829.833	-0.34
830.01	91.82
830.187	83.63
830.364	63.15
830.542	153.26
830.719	95.91
830.896	124.58
831.073	97.96
831.25	7.85
831.427	93.87
831.604	71.34
831.782	75.43
831.959	30.38
832.136	-24.92
832.313	136.87
832.49	85.67
832.667	67.24
832.844	30.38
833.021	81.58
833.198	46.76
833.374	52.91
833.551	48.81
833.728	69.29
833.905	22.19
834.082	71.34
834.259	136.87
834.436	71.34
834.612	44.71
834.789	136.87
834.966	26.28
835.143	95.91
835.319	50.86
835.496	30.38
835.673	75.43
835.85	59.05
836.026	34.47
836.203	147.11
836.38	40.62
836.556	52.91
836.733	22.19
836.909	40.62
837.086	59.05
837.262	3.75
837.439	46.76
837.616	65.19
837.792	-6.49
837.968	50.86
838.145	65.19
838.321	32.43
838.498	50.86
838.674	89.77
838.851	38.57
839.027	79.53
839.203	7.85
839.38	38.57
839.556	-0.34
839.732	40.62
839.909	54.95
840.085	48.81
840.261	36.52
840.437	34.47
840.614	87.72
840.79	-8.53
840.966	50.86
841.142	-26.96
841.318	30.38
841.494	95.91
841.671	36.52
841.847	104.11
842.023	1.71
842.199	95.91
842.375	57
842.551	-10.58
842.727	52.91
842.903	-31.06
843.079	1.71
843.255	95.91
843.431	50.86
843.607	83.63
843.783	-69.97
843.959	20.14
844.134	-43.35
844.31	79.53
844.486	11.95
844.662	-14.68
844.838	7.85
845.013	-10.58
845.189	73.39
845.365	69.29
845.541	11.95
845.716	79.53
845.892	91.82
846.068	40.62
846.244	36.52
846.419	16.04
846.595	-10.58
846.77	13.99
846.946	3.75
847.122	65.19
847.297	5.8
847.473	97.96
847.648	-22.87
847.824	75.43
847.999	24.23
848.175	-8.53
848.35	18.09
848.526	30.38
848.701	-18.77
848.876	95.91
849.052	34.47
849.227	57
849.403	13.99
849.578	-59.73
849.753	13.99
849.929	-6.49
850.104	-31.06
850.279	5.8
850.454	91.82
850.63	11.95
850.805	65.19
850.98	54.95
851.155	24.23
851.33	54.95
851.505	69.29
851.681	1.71
851.856	7.85
852.031	-4.44
852.206	26.28
852.381	-24.92
852.556	-29.01
852.731	128.68
852.906	38.57
853.081	69.29
853.256	50.86
853.431	-8.53
853.606	18.09
853.781	63.15
853.956	-26.96
854.131	40.62
854.305	-8.53
854.48	5.8
854.655	54.95
854.83	-65.88
855.005	-16.73
855.18	63.15
855.354	-8.53
855.529	7.85
855.704	46.76
855.879	7.85
856.053	-10.58
856.228	-24.92
856.403	65.19
856.577	-8.53
856.752	13.99
856.926	59.05
857.101	120.49
857.276	32.43
857.45	11.95
857.625	16.04
857.799	50.86
857.974	34.47
858.148	-8.53
858.323	7.85
858.497	-10.58
858.672	30.38
858.846	24.23
859.02	30.38
859.195	30.38
859.369	-41.3
859.543	9.9
859.718	-6.49
859.892	26.28
860.066	50.86
860.241	7.85
860.415	-41.3
860.589	-20.82
860.763	13.99
860.938	104.11
861.112	40.62
861.286	-8.53
861.46	30.38
861.634	22.19
861.808	54.95
861.982	1.71
862.157	-33.11
862.331	-26.96
862.505	-22.87
862.679	-16.73
862.853	-26.96
863.027	9.9
863.201	71.34
863.375	-4.44
863.549	-4.44
863.722	44.71
863.896	30.38
864.07	-16.73
864.244	38.57
864.418	30.38
864.592	-0.34
864.766	85.67
864.939	-16.73
865.113	42.67
865.287	46.76
865.461	-31.06
865.634	40.62
865.808	-16.73
865.982	71.34
866.156	-51.54
866.329	36.52
866.503	28.33
866.676	22.19
866.85	-8.53
867.024	26.28
867.197	81.58
867.371	3.75
867.544	16.04
867.718	-24.92
867.891	46.76
868.065	-18.77
868.238	20.14
868.412	61.1
868.585	26.28
868.759	5.8
868.932	46.76
869.105	-26.96
869.279	61.1
869.452	48.81
869.625	26.28
869.799	-24.92
869.972	-20.82
870.145	-8.53
870.319	116.39
870.492	-33.11
870.665	13.99
870.838	-8.53
871.011	-76.12
871.185	-35.16
871.358	-37.2
871.531	65.19
871.704	32.43
871.877	-43.35
872.05	-2.39
872.223	-2.39
872.396	-16.73
872.569	77.48
872.742	-33.11
872.915	54.95
873.088	-0.34
873.261	50.86
873.434	24.23
873.607	-24.92
873.78	-10.58
873.953	-29.01
874.126	-39.25
874.299	-53.59
874.471	-72.02
874.644	-45.4
874.817	9.9
874.99	52.91
875.163	26.28
875.335	5.8
875.508	5.8
875.681	-14.68
875.853	52.91
876.026	-6.49
876.199	-16.73
876.371	-43.35
876.544	11.95
876.717	-14.68
876.889	-2.39
877.062	-2.39
877.234	24.23
877.407	-18.77
877.579	-86.36
877.752	-26.96
877.924	93.87
878.097	-29.01
878.269	-67.92
878.442	22.19
878.614	-16.73
878.786	13.99
878.959	34.47
879.131	132.78
879.303	-125.27
879.476	26.28
879.648	38.57
879.82	-29.01
879.993	9.9
880.165	3.75
880.337	-43.35
880.509	7.85
880.681	-2.39
880.854	-10.58
881.026	57
881.198	-2.39
881.37	28.33
881.542	3.75
881.714	5.8
881.886	-8.53
882.058	34.47
882.23	-69.97
882.402	-26.96
882.574	-24.92
882.746	20.14
882.918	5.8
883.09	-37.2
883.262	-0.34
883.434	16.04
883.606	11.95
883.778	9.9
883.95	114.34
884.122	11.95
884.293	-2.39
884.465	-10.58
884.637	34.47
884.809	-31.06
884.98	7.85
885.152	-26.96
885.324	-10.58
885.496	13.99
885.667	9.9
885.839	-31.06
886.011	-0.34
886.182	-20.82
886.354	-18.77
886.525	-29.01
886.697	79.53
886.869	-18.77
887.04	-26.96
887.212	-41.3
887.383	65.19
887.555	1.71
887.726	-6.49
887.897	-16.73
888.069	22.19
888.24	54.95
888.412	42.67
888.583	-18.77
888.754	1.71
888.926	-57.68
889.097	-67.92
889.268	-61.78
889.44	7.85
889.611	-33.11
889.782	-10.58
889.953	-18.77
890.125	30.38
890.296	5.8
890.467	48.81
890.638	-51.54
890.809	28.33
890.98	-43.35
891.151	3.75
891.323	34.47
891.494	5.8
891.665	5.8
891.836	-49.49
892.007	18.09
892.178	48.81
892.349	-6.49
892.52	42.67
892.691	24.23
892.862	-0.34
893.032	-35.16
893.203	-35.16
893.374	-51.54
893.545	34.47
893.716	-26.96
893.887	-24.92
894.057	13.99
894.228	5.8
894.399	-67.92
894.57	-14.68
894.74	28.33
894.911	9.9
895.082	-12.63
895.253	-8.53
895.423	5.8
895.594	40.62
895.764	-6.49
895.935	42.67
896.106	-2.39
896.276	-8.53
896.447	-47.44
896.617	-69.97
896.788	9.9
896.958	-49.49
897.129	-20.82
897.299	-24.92
897.47	13.99
897.64	79.53
897.81	-12.63
897.981	7.85
898.151	-4.44
898.322	67.24
898.492	-0.34
898.662	-63.83
898.832	24.23
899.003	9.9
899.173	22.19
899.343	-43.35
899.513	5.8
