Data from USB4F104151__53__14-17-00-881.txt Node

Date: Thu Mar 13 14:17:00 EDT 2025
User: louis
Spectrometer: USB4F10415
Trigger mode: 4
Integration Time (sec): 2.000000E-2
Scans to average: 1
Electric dark correction enabled: true
Nonlinearity correction enabled: false
Boxcar width: 0
XAxis mode: Wavelengths
Number of Pixels in Spectrum: 3648
>>>>>Begin Spectral Data<<<<<
178.204	-88.4
178.424	-88.4
178.644	-88.4
178.864	-92.5
179.084	-104.79
179.304	26.28
179.524	-12.63
179.744	-24.92
179.964	13.99
180.184	48.81
180.404	54.95
180.624	42.67
180.844	-33.11
181.064	-47.44
181.283	-18.77
181.503	-10.58
181.723	-39.25
181.943	-10.58
182.163	83.63
182.383	38.57
182.602	50.86
182.822	42.67
183.042	38.57
183.262	-6.49
183.482	89.77
183.701	-18.77
183.921	-10.58
184.141	-24.92
184.361	54.95
184.58	13.99
184.8	46.76
185.02	-14.68
185.239	42.67
185.459	79.53
185.679	40.62
185.898	-86.36
186.118	30.38
186.338	67.24
186.557	57
186.777	-24.92
186.997	54.95
187.216	13.99
187.436	24.23
187.655	16.04
187.875	24.23
188.095	34.47
188.314	52.91
188.534	102.06
188.753	30.38
188.973	26.28
189.192	75.43
189.412	-6.49
189.631	89.77
189.851	32.43
190.07	34.47
190.29	-18.77
190.509	46.76
190.729	30.38
190.948	65.19
191.168	73.39
191.387	95.91
191.607	79.53
191.826	87.72
192.045	3.75
192.265	18.09
192.484	112.3
192.704	71.34
192.923	30.38
193.142	26.28
193.362	50.86
193.581	71.34
193.8	7.85
194.02	85.67
194.239	-6.49
194.458	77.48
194.678	5.8
194.897	13.99
195.116	48.81
195.335	7.85
195.555	-29.01
195.774	32.43
195.993	71.34
196.212	38.57
196.432	42.67
196.651	34.47
196.87	22.19
197.089	65.19
197.308	50.86
197.528	77.48
197.747	95.91
197.966	40.62
198.185	112.3
198.404	38.57
198.623	26.28
198.842	32.43
199.062	124.58
199.281	87.72
199.5	5.8
199.719	118.44
199.938	57
200.157	65.19
200.376	77.48
200.595	124.58
200.814	73.39
201.033	40.62
201.252	67.24
201.471	57
201.69	77.48
201.909	61.1
202.128	38.57
202.347	75.43
202.566	-12.63
202.785	-4.44
203.004	46.76
203.223	89.77
203.442	118.44
203.661	22.19
203.879	54.95
204.098	112.3
204.317	3.75
204.536	83.63
204.755	22.19
204.974	24.23
205.193	83.63
205.411	67.24
205.63	89.77
205.849	120.49
206.068	-0.34
206.287	9.9
206.505	95.91
206.724	3.75
206.943	-2.39
207.162	100.01
207.381	-6.49
207.599	22.19
207.818	91.82
208.037	63.15
208.255	22.19
208.474	38.57
208.693	65.19
208.911	28.33
209.13	89.77
209.349	106.15
209.567	93.87
209.786	65.19
210.005	30.38
210.223	48.81
210.442	1.71
210.661	102.06
210.879	18.09
211.098	9.9
211.316	91.82
211.535	26.28
211.753	65.19
211.972	-0.34
212.191	63.15
212.409	20.14
212.628	30.38
212.846	-14.68
213.065	38.57
213.283	63.15
213.502	-14.68
213.72	24.23
213.938	22.19
214.157	63.15
214.375	7.85
214.594	116.39
214.812	22.19
215.031	145.06
215.249	48.81
215.467	-10.58
215.686	77.48
215.904	18.09
216.122	44.71
216.341	34.47
216.559	100.01
216.778	116.39
216.996	38.57
217.214	-33.11
217.432	61.1
217.651	59.05
217.869	18.09
218.087	116.39
218.306	-20.82
218.524	69.29
218.742	28.33
218.96	30.38
219.179	-49.49
219.397	65.19
219.615	134.82
219.833	48.81
220.051	46.76
220.27	42.67
220.488	9.9
220.706	9.9
220.924	44.71
221.142	-2.39
221.36	110.25
221.578	42.67
221.796	28.33
222.015	32.43
222.233	24.23
222.451	63.15
222.669	40.62
222.887	-12.63
223.105	22.19
223.323	40.62
223.541	46.76
223.759	63.15
223.977	5.8
224.195	91.82
224.413	22.19
224.631	3.75
224.849	61.1
225.067	120.49
225.285	11.95
225.503	30.38
225.721	9.9
225.939	-0.34
226.157	-0.34
226.375	114.34
226.592	30.38
226.81	-14.68
227.028	112.3
227.246	116.39
227.464	1.71
227.682	38.57
227.9	50.86
228.117	83.63
228.335	7.85
228.553	67.24
228.771	63.15
228.989	52.91
229.206	13.99
229.424	34.47
229.642	69.29
229.86	38.57
230.077	50.86
230.295	91.82
230.513	73.39
230.731	73.39
230.948	128.68
231.166	104.11
231.384	16.04
231.601	-4.44
231.819	149.16
232.037	-0.34
232.254	7.85
232.472	44.71
232.689	-14.68
232.907	71.34
233.125	48.81
233.342	13.99
233.56	-26.96
233.777	-2.39
233.995	-10.58
234.213	79.53
234.43	38.57
234.648	13.99
234.865	-39.25
235.083	18.09
235.3	38.57
235.518	22.19
235.735	134.82
235.953	134.82
236.17	24.23
236.388	22.19
236.605	54.95
236.822	26.28
237.04	81.58
237.257	32.43
237.475	-8.53
237.692	18.09
237.909	42.67
238.127	7.85
238.344	30.38
238.562	100.01
238.779	34.47
238.996	5.8
239.214	30.38
239.431	71.34
239.648	104.11
239.865	48.81
240.083	-2.39
240.3	104.11
240.517	34.47
240.735	67.24
240.952	89.77
241.169	120.49
241.386	22.19
241.603	24.23
241.821	-22.87
242.038	79.53
242.255	26.28
242.472	22.19
242.689	95.91
242.907	89.77
243.124	-18.77
243.341	40.62
243.558	57
243.775	16.04
243.992	1.71
244.209	52.91
244.426	95.91
244.643	22.19
244.86	-20.82
245.078	-37.2
245.295	48.81
245.512	38.57
245.729	13.99
245.946	38.57
246.163	20.14
246.38	52.91
246.597	67.24
246.814	-12.63
247.031	65.19
247.248	57
247.464	132.78
247.681	54.95
247.898	52.91
248.115	100.01
248.332	79.53
248.549	104.11
248.766	95.91
248.983	38.57
249.2	50.86
249.417	1.71
249.633	24.23
249.85	136.87
250.067	81.58
250.284	-0.34
250.501	18.09
250.717	5.8
250.934	65.19
251.151	16.04
251.368	63.15
251.585	83.63
251.801	5.8
252.018	9.9
252.235	1.71
252.451	30.38
252.668	30.38
252.885	30.38
253.102	-22.87
253.318	-6.49
253.535	46.76
253.752	50.86
253.968	16.04
254.185	22.19
254.401	63.15
254.618	-43.35
254.835	7.85
255.051	134.82
255.268	100.01
255.484	-41.3
255.701	3.75
255.917	124.58
256.134	-8.53
256.351	67.24
256.567	102.06
256.784	69.29
257	63.15
257.217	79.53
257.433	89.77
257.65	46.76
257.866	30.38
258.082	-65.88
258.299	-14.68
258.515	36.52
258.732	-10.58
258.948	24.23
259.165	102.06
259.381	54.95
259.597	102.06
259.814	79.53
260.03	28.33
260.246	57
260.463	73.39
260.679	93.87
260.895	97.96
261.112	120.49
261.328	-6.49
261.544	1.71
261.761	54.95
261.977	-24.92
262.193	46.76
262.409	100.01
262.626	30.38
262.842	9.9
263.058	5.8
263.274	38.57
263.49	63.15
263.707	59.05
263.923	77.48
264.139	18.09
264.355	-18.77
264.571	30.38
264.787	79.53
265.004	63.15
265.22	87.72
265.436	38.57
265.652	-67.92
265.868	65.19
266.084	-0.34
266.3	138.92
266.516	20.14
266.732	38.57
266.948	106.15
267.164	65.19
267.38	32.43
267.596	102.06
267.812	89.77
268.028	71.34
268.244	16.04
268.46	63.15
268.676	50.86
268.892	46.76
269.108	5.8
269.324	59.05
269.54	95.91
269.756	42.67
269.972	18.09
270.188	38.57
270.403	13.99
270.619	67.24
270.835	102.06
271.051	81.58
271.267	13.99
271.483	63.15
271.698	75.43
271.914	42.67
272.13	83.63
272.346	22.19
272.562	26.28
272.777	57
272.993	93.87
273.209	57
273.425	30.38
273.64	-26.96
273.856	16.04
274.072	59.05
274.287	32.43
274.503	-12.63
274.719	57
274.934	5.8
275.15	-2.39
275.366	9.9
275.581	20.14
275.797	67.24
276.012	91.82
276.228	46.76
276.444	42.67
276.659	54.95
276.875	40.62
277.09	5.8
277.306	18.09
277.521	28.33
277.737	40.62
277.952	116.39
278.168	106.15
278.383	18.09
278.599	87.72
278.814	83.63
279.03	34.47
279.245	97.96
279.461	67.24
279.676	104.11
279.892	-8.53
280.107	5.8
280.322	46.76
280.538	81.58
280.753	22.19
280.969	171.69
281.184	30.38
281.399	48.81
281.615	79.53
281.83	97.96
282.045	-65.88
282.26	83.63
282.476	24.23
282.691	71.34
282.906	108.2
283.122	20.14
283.337	7.85
283.552	5.8
283.767	95.91
283.983	7.85
284.198	-39.25
284.413	75.43
284.628	59.05
284.843	67.24
285.058	30.38
285.274	52.91
285.489	57
285.704	48.81
285.919	13.99
286.134	65.19
286.349	38.57
286.564	26.28
286.779	106.15
286.995	1.71
287.21	52.91
287.425	89.77
287.64	9.9
287.855	50.86
288.07	50.86
288.285	87.72
288.5	59.05
288.715	28.33
288.93	3.75
289.145	48.81
289.36	95.91
289.575	59.05
289.79	145.06
290.004	-2.39
290.219	100.01
290.434	13.99
290.649	128.68
290.864	-8.53
291.079	-0.34
291.294	50.86
291.509	7.85
291.724	7.85
291.938	28.33
292.153	30.38
292.368	30.38
292.583	32.43
292.798	18.09
293.012	67.24
293.227	32.43
293.442	73.39
293.657	126.63
293.871	71.34
294.086	7.85
294.301	128.68
294.516	3.75
294.73	42.67
294.945	46.76
295.16	46.76
295.374	89.77
295.589	50.86
295.804	126.63
296.018	30.38
296.233	149.16
296.447	42.67
296.662	71.34
296.877	38.57
297.091	57
297.306	9.9
297.52	44.71
297.735	46.76
297.949	13.99
298.164	63.15
298.378	11.95
298.593	22.19
298.807	65.19
299.022	38.57
299.236	38.57
299.451	97.96
299.665	65.19
299.88	67.24
300.094	22.19
300.309	61.1
300.523	32.43
300.737	38.57
300.952	63.15
301.166	67.24
301.381	-0.34
301.595	89.77
301.809	104.11
302.024	132.78
302.238	36.52
302.452	54.95
302.667	87.72
302.881	46.76
303.095	52.91
303.309	83.63
303.524	95.91
303.738	77.48
303.952	42.67
304.166	-22.87
304.381	71.34
304.595	50.86
304.809	-59.73
305.023	13.99
305.237	26.28
305.452	42.67
305.666	44.71
305.88	87.72
306.094	69.29
306.308	75.43
306.522	122.54
306.736	40.62
306.95	30.38
307.164	44.71
307.379	97.96
307.593	128.68
307.807	83.63
308.021	34.47
308.235	5.8
308.449	22.19
308.663	36.52
308.877	157.35
309.091	13.99
309.305	42.67
309.519	40.62
309.733	34.47
309.947	24.23
310.161	59.05
310.374	26.28
310.588	110.25
310.802	-22.87
311.016	-14.68
311.23	-8.53
311.444	106.15
311.658	63.15
311.872	18.09
312.085	104.11
312.299	81.58
312.513	75.43
312.727	48.81
312.941	26.28
313.154	87.72
313.368	42.67
313.582	28.33
313.796	13.99
314.009	120.49
314.223	54.95
314.437	95.91
314.651	91.82
314.864	-51.54
315.078	77.48
315.292	67.24
315.505	-10.58
315.719	91.82
315.933	16.04
316.146	57
316.36	46.76
316.573	40.62
316.787	46.76
317.001	104.11
317.214	63.15
317.428	30.38
317.641	46.76
317.855	110.25
318.068	11.95
318.282	79.53
318.495	89.77
318.709	100.01
318.922	81.58
319.136	24.23
319.349	110.25
319.563	26.28
319.776	57
319.99	85.67
320.203	54.95
320.417	50.86
320.63	50.86
320.843	138.92
321.057	38.57
321.27	138.92
321.483	79.53
321.697	48.81
321.91	87.72
322.124	42.67
322.337	112.3
322.55	67.24
322.763	59.05
322.977	116.39
323.19	13.99
323.403	63.15
323.617	145.06
323.83	114.34
324.043	46.76
324.256	32.43
324.469	-2.39
324.683	69.29
324.896	38.57
325.109	1.71
325.322	34.47
325.535	95.91
325.748	67.24
325.962	61.1
326.175	46.76
326.388	100.01
326.601	126.63
326.814	114.34
327.027	36.52
327.24	122.54
327.453	7.85
327.666	-33.11
327.879	71.34
328.092	40.62
328.305	69.29
328.518	97.96
328.731	16.04
328.944	81.58
329.157	18.09
329.37	67.24
329.583	67.24
329.796	87.72
330.009	28.33
330.222	57
330.435	57
330.648	54.95
330.861	38.57
331.073	38.57
331.286	52.91
331.499	73.39
331.712	52.91
331.925	36.52
332.138	30.38
332.35	106.15
332.563	81.58
332.776	87.72
332.989	-0.34
333.202	30.38
333.414	52.91
333.627	38.57
333.84	102.06
334.053	63.15
334.265	1.71
334.478	67.24
334.691	71.34
334.903	28.33
335.116	57
335.329	116.39
335.541	22.19
335.754	145.06
335.966	-8.53
336.179	147.11
336.392	87.72
336.604	52.91
336.817	7.85
337.029	18.09
337.242	24.23
337.454	118.44
337.667	26.28
337.88	22.19
338.092	83.63
338.305	46.76
338.517	50.86
338.729	87.72
338.942	46.76
339.154	52.91
339.367	20.14
339.579	79.53
339.792	93.87
340.004	106.15
340.217	75.43
340.429	46.76
340.641	16.04
340.854	89.77
341.066	3.75
341.278	13.99
341.491	54.95
341.703	67.24
341.915	13.99
342.128	5.8
342.34	63.15
342.552	106.15
342.764	30.38
342.977	73.39
343.189	46.76
343.401	128.68
343.613	32.43
343.826	97.96
344.038	28.33
344.25	48.81
344.462	18.09
344.674	30.38
344.886	87.72
345.099	75.43
345.311	73.39
345.523	44.71
345.735	7.85
345.947	61.1
346.159	24.23
346.371	87.72
346.583	50.86
346.795	75.43
347.007	-4.44
347.219	30.38
347.431	32.43
347.643	18.09
347.855	61.1
348.067	79.53
348.279	81.58
348.491	81.58
348.703	22.19
348.915	67.24
349.127	132.78
349.339	63.15
349.551	71.34
349.763	79.53
349.975	50.86
350.187	67.24
350.399	89.77
350.61	59.05
350.822	30.38
351.034	59.05
351.246	46.76
351.458	22.19
351.669	54.95
351.881	104.11
352.093	52.91
352.305	5.8
352.517	114.34
352.728	89.77
352.94	71.34
353.152	97.96
353.363	5.8
353.575	87.72
353.787	57
353.999	112.3
354.21	71.34
354.422	71.34
354.633	-8.53
354.845	16.04
355.057	67.24
355.268	114.34
355.48	128.68
355.692	83.63
355.903	85.67
356.115	5.8
356.326	-2.39
356.538	114.34
356.749	79.53
356.961	104.11
357.172	52.91
357.384	50.86
357.595	130.73
357.807	75.43
358.018	-2.39
358.23	136.87
358.441	120.49
358.653	18.09
358.864	40.62
359.075	22.19
359.287	136.87
359.498	104.11
359.709	67.24
359.921	89.77
360.132	157.35
360.344	108.2
360.555	7.85
360.766	28.33
360.977	57
361.189	65.19
361.4	57
361.611	116.39
361.823	104.11
362.034	30.38
362.245	-6.49
362.456	32.43
362.667	118.44
362.879	87.72
363.09	46.76
363.301	61.1
363.512	124.58
363.723	69.29
363.935	73.39
364.146	22.19
364.357	112.3
364.568	120.49
364.779	26.28
364.99	120.49
365.201	42.67
365.412	153.26
365.623	71.34
365.834	83.63
366.045	104.11
366.256	54.95
366.467	100.01
366.678	28.33
366.889	67.24
367.1	63.15
367.311	46.76
367.522	57
367.733	110.25
367.944	77.48
368.155	85.67
368.366	128.68
368.577	54.95
368.788	54.95
368.999	59.05
369.209	63.15
369.42	159.4
369.631	138.92
369.842	32.43
370.053	-14.68
370.264	73.39
370.474	30.38
370.685	38.57
370.896	79.53
371.107	112.3
371.317	71.34
371.528	20.14
371.739	71.34
371.95	149.16
372.16	122.54
372.371	46.76
372.582	61.1
372.792	46.76
373.003	24.23
373.214	57
373.424	89.77
373.635	143.02
373.846	63.15
374.056	42.67
374.267	67.24
374.477	124.58
374.688	38.57
374.898	128.68
375.109	95.91
375.319	69.29
375.53	34.47
375.74	26.28
375.951	85.67
376.161	147.11
376.372	85.67
376.582	59.05
376.793	16.04
377.003	46.76
377.214	167.59
377.424	42.67
377.635	1.71
377.845	42.67
378.055	22.19
378.266	54.95
378.476	52.91
378.686	7.85
378.897	89.77
379.107	108.2
379.317	83.63
379.528	81.58
379.738	104.11
379.948	16.04
380.158	20.14
380.369	40.62
380.579	67.24
380.789	48.81
380.999	106.15
381.21	114.34
381.42	-2.39
381.63	87.72
381.84	124.58
382.05	128.68
382.261	75.43
382.471	190.12
382.681	34.47
382.891	61.1
383.101	91.82
383.311	67.24
383.521	106.15
383.731	73.39
383.941	97.96
384.151	134.82
384.361	100.01
384.571	20.14
384.781	75.43
384.991	46.76
385.201	114.34
385.411	114.34
385.621	93.87
385.831	65.19
386.041	16.04
386.251	161.45
386.461	69.29
386.671	81.58
386.881	91.82
387.091	91.82
387.301	65.19
387.511	32.43
387.72	52.91
387.93	50.86
388.14	114.34
388.35	59.05
388.56	104.11
388.769	73.39
388.979	67.24
389.189	30.38
389.399	50.86
389.609	42.67
389.818	95.91
390.028	83.63
390.238	63.15
390.447	46.76
390.657	91.82
390.867	83.63
391.076	18.09
391.286	69.29
391.496	63.15
391.705	46.76
391.915	38.57
392.125	71.34
392.334	46.76
392.544	128.68
392.753	89.77
392.963	97.96
393.172	134.82
393.382	46.76
393.591	171.69
393.801	52.91
394.01	112.3
394.22	120.49
394.429	79.53
394.639	128.68
394.848	122.54
395.058	63.15
395.267	77.48
395.477	59.05
395.686	100.01
395.895	126.63
396.105	128.68
396.314	95.91
396.524	136.87
396.733	110.25
396.942	122.54
397.152	175.78
397.361	100.01
397.57	95.91
397.78	104.11
397.989	57
398.198	233.13
398.407	38.57
398.617	36.52
398.826	163.5
399.035	143.02
399.244	108.2
399.453	145.06
399.663	130.73
399.872	122.54
400.081	48.81
400.29	181.93
400.499	120.49
400.708	89.77
400.917	77.48
401.127	114.34
401.336	87.72
401.545	140.97
401.754	151.21
401.963	204.46
402.172	95.91
402.381	108.2
402.59	153.26
402.799	143.02
403.008	120.49
403.217	204.46
403.426	122.54
403.635	106.15
403.844	112.3
404.053	194.22
404.262	226.98
404.471	198.31
404.68	136.87
404.888	186.02
405.097	65.19
405.306	194.22
405.515	132.78
405.724	196.26
405.933	204.46
406.142	192.17
406.35	255.65
406.559	272.04
406.768	202.41
406.977	210.6
407.185	186.02
407.394	272.04
407.603	210.6
407.812	208.55
408.02	267.94
408.229	245.41
408.438	259.75
408.646	247.46
408.855	229.03
409.064	204.46
409.272	290.47
409.481	394.92
409.69	321.19
409.898	284.33
410.107	345.77
410.315	343.72
410.524	292.52
410.733	278.18
410.941	315.05
411.15	319.14
411.358	448.16
411.567	370.34
411.775	442.02
411.984	446.12
412.192	513.7
412.401	399.01
412.609	550.56
412.818	517.79
413.026	497.32
413.234	450.21
413.443	530.08
413.651	448.16
413.86	560.8
414.068	564.9
414.276	634.53
414.485	587.43
414.693	679.58
414.901	650.91
415.11	663.2
415.318	693.92
415.526	736.93
415.734	769.69
415.943	708.26
416.151	800.41
416.359	863.9
416.567	808.61
416.776	855.71
416.984	943.77
417.192	951.96
417.4	925.34
417.608	870.05
417.817	941.72
418.025	1121.95
418.233	1062.55
418.441	1087.13
418.649	1066.65
418.857	1199.77
419.065	1214.1
419.273	1234.58
419.481	1312.41
419.689	1316.5
419.897	1386.13
420.105	1429.14
420.313	1525.4
420.521	1517.2
420.729	1629.84
420.937	1572.5
421.145	1635.99
421.353	1703.57
421.561	1777.3
421.769	1848.97
421.977	1959.56
422.185	1808.02
422.393	1982.09
422.601	2119.31
422.809	2150.03
423.017	2129.55
423.224	2287.24
423.432	2363.01
423.64	2307.72
423.848	2524.8
424.056	2446.98
424.263	2553.48
424.471	2629.25
424.679	2766.46
424.887	2934.4
425.094	3030.65
425.302	2885.25
425.51	3032.7
425.718	3192.44
425.925	3167.87
426.133	3348.09
426.341	3579.51
426.548	3622.52
426.756	3599.99
426.964	3669.62
427.171	3948.14
427.379	4144.75
427.586	4238.95
427.794	4214.38
428.001	4462.18
428.209	4419.18
428.417	4415.08
428.624	4806.24
428.832	4771.43
429.039	4859.49
429.247	4832.86
429.454	5287.51
429.662	5455.45
429.869	5209.69
430.076	5656.15
430.284	5248.6
430.491	5666.39
430.699	6082.13
430.906	5875.28
431.114	6084.17
431.321	6348.36
431.528	6403.66
431.736	6725.19
431.943	7153.21
432.15	6952.51
432.358	7030.34
432.565	7685.69
432.772	7315
432.979	7818.8
433.187	7800.37
433.394	7870
433.601	8513.06
433.808	8433.19
434.016	8343.08
434.223	8832.55
434.43	9340.44
434.637	9006.63
434.844	9623.06
435.052	9815.57
435.259	9803.29
435.466	9864.72
435.673	9721.37
435.88	10255.89
436.087	10776.07
436.294	10993.15
436.501	10470.92
436.708	10886.66
436.915	11021.83
437.122	11869.69
437.329	11589.11
437.537	12099.06
437.743	12418.54
437.95	12174.83
438.157	12783.08
438.364	13333.98
438.571	13172.19
438.778	13186.53
438.985	14579.15
439.192	13899.22
439.399	14323.15
439.606	13966.81
439.813	14955.97
440.02	15766.97
440.227	15367.62
440.433	15418.82
440.64	15719.87
440.847	15525.31
441.054	16276.91
441.261	17106.34
441.467	16743.85
441.674	17333.67
441.881	17911.19
442.088	17780.12
442.294	17702.3
442.501	18044.31
442.708	18617.74
442.914	19416.45
443.121	19830.14
443.328	19539.33
443.534	20788.59
443.741	20178.29
443.948	19957.11
444.154	21417.32
444.361	21570.91
444.568	21552.48
444.774	21173.61
444.981	21624.16
445.187	21982.56
445.394	23104.84
445.6	22904.14
445.807	24980.78
446.013	24134.97
446.22	24552.76
446.426	26164.51
446.633	25654.56
446.839	26598.68
447.046	25197.87
447.252	26445.08
447.459	27075.85
447.665	26451.22
447.871	28028.16
448.078	28943.6
448.284	27782.4
448.491	28507.38
448.697	29773.03
448.903	30356.7
449.11	30016.74
449.316	29568.23
449.522	30256.35
449.728	31036.63
449.935	30901.46
450.141	31347.92
450.347	31812.81
450.553	30940.37
450.76	31188.17
450.966	32482.49
451.172	32101.57
451.378	32842.93
451.584	32314.56
451.791	33268.91
451.997	32746.68
452.203	33266.86
452.409	33367.21
452.615	33434.8
452.821	31773.89
453.027	31534.28
453.233	33092.79
453.44	31886.53
453.646	32220.35
453.852	32548.03
454.058	33469.61
454.264	32126.14
454.47	32732.34
454.676	31845.57
454.882	33062.07
455.088	30239.97
455.294	30997.71
455.5	31360.2
455.705	31653.06
455.911	30561.5
456.117	29857
456.323	29439.21
456.529	27798.79
456.735	29367.53
456.941	28251.39
457.147	28167.42
457.352	27032.85
457.558	26803.47
457.764	26907.92
457.97	26510.61
458.176	25572.64
458.381	25922.85
458.587	24483.13
458.793	24282.42
458.999	23307.59
459.204	24927.53
459.41	24208.7
459.616	22869.33
459.821	22642
460.027	22525.27
460.233	22289.75
460.438	21112.17
460.644	21280.1
460.85	20309.36
461.055	20116.86
461.261	20012.41
461.466	18470.29
461.672	18144.66
461.878	19432.83
462.083	17931.67
462.289	17835.42
462.494	17663.39
462.7	16776.62
462.905	16117.17
463.111	16733.61
463.316	16743.85
463.522	16364.98
463.727	16487.86
463.932	16438.7
464.138	16352.69
464.343	16623.02
464.549	15873.46
464.754	16338.35
464.959	16356.79
465.165	16047.54
465.37	15322.56
465.575	14906.82
465.781	15521.21
465.986	15517.12
466.191	14947.78
466.397	14808.52
466.602	14104.02
466.807	14714.31
467.012	14829
467.218	14704.07
467.423	14169.55
467.628	14507.47
467.833	15078.85
468.038	14622.16
468.244	13977.05
468.449	14577.1
468.654	14208.47
468.859	13852.12
469.064	14095.83
469.269	13628.89
469.474	13653.47
469.679	13819.35
469.885	13598.17
470.09	13624.79
470.295	13843.93
470.5	13137.38
470.705	13360.61
470.91	12785.13
471.115	13102.56
471.32	13149.67
471.525	13063.65
471.73	12684.78
471.935	12735.98
472.139	12293.62
472.344	12522.99
472.549	12150.26
472.754	12219.89
472.959	12049.91
473.164	11599.35
473.369	11544.06
473.574	11970.04
473.778	11675.13
473.983	11558.39
474.188	11861.49
474.393	11257.34
474.598	11183.62
474.802	11140.61
475.007	11165.18
475.212	11185.66
475.417	10599.94
475.621	10853.89
475.826	10640.9
476.031	10464.78
476.235	10227.21
476.44	10528.27
476.645	10352.14
476.849	10184.21
477.054	10016.27
477.259	9782.81
477.463	9850.39
477.668	9684.5
477.872	9944.59
478.077	9627.16
478.282	9518.62
478.486	9418.27
478.691	9367.07
478.895	9459.23
479.1	9221.66
479.304	9180.7
479.509	8963.62
479.713	9070.11
479.918	8963.62
480.122	8738.34
480.326	8848.93
480.531	8842.79
480.735	8654.37
480.94	8699.43
481.144	9147.94
481.348	8621.61
481.553	8754.73
481.757	8566.31
481.961	8760.87
482.166	8914.47
482.37	8633.89
482.574	8472.11
482.778	8637.99
482.983	8812.07
483.187	8572.46
483.391	8662.57
483.595	8664.61
483.8	8617.51
484.004	8480.3
484.208	8773.16
484.412	8558.12
484.616	8697.38
484.821	8461.87
485.025	8476.2
485.229	8599.08
485.433	8398.38
485.637	8625.7
485.841	8320.56
486.045	8496.68
486.249	8566.31
486.453	8570.41
486.657	8529.45
486.861	8732.2
487.065	8455.72
487.269	8744.49
487.473	8527.4
487.677	8543.78
487.881	8527.4
488.085	8453.67
488.289	8740.39
488.493	8594.98
488.697	8658.47
488.901	8799.78
489.105	8689.19
489.309	8535.59
489.512	8621.61
489.716	8734.25
489.92	8648.23
490.124	8625.7
490.328	8869.41
490.531	8590.89
490.735	8830.5
490.939	8703.53
491.143	8617.51
491.346	8857.12
491.55	8836.64
491.754	9002.53
491.958	9172.51
492.161	9066.02
492.365	9190.94
492.569	8967.71
492.772	9098.78
492.976	9117.22
493.18	9164.32
493.383	9410.08
493.587	9403.93
493.79	9510.43
493.994	9229.85
494.197	9428.51
494.401	9453.08
494.605	9555.48
494.808	9520.67
495.012	9569.82
495.215	9664.02
495.419	9956.88
495.622	9922.07
495.825	9903.64
496.029	9815.57
496.232	10233.36
496.436	10018.32
496.639	10432.01
496.843	10255.89
497.046	10536.46
497.249	10683.91
497.453	10597.9
497.656	10714.63
497.859	10843.65
498.063	11001.35
498.266	11113.99
498.469	11152.9
498.673	11286.01
498.876	11353.6
499.079	11318.78
499.282	11564.54
499.485	11894.26
499.689	11910.64
499.892	11818.49
500.095	11927.03
500.298	12473.84
500.501	12076.53
500.705	12371.44
500.908	12598.76
501.111	12858.85
501.314	12756.46
501.517	12975.59
501.72	13149.67
501.923	12985.83
502.126	13495.77
502.329	13696.47
502.532	13645.27
502.735	13659.61
502.938	13776.34
503.141	13964.76
503.344	14345.68
503.547	14321.1
503.75	14362.06
503.953	14835.14
504.156	14863.82
504.359	14986.69
504.562	15080.9
504.765	15336.9
504.968	15627.71
505.17	15658.43
505.373	15467.97
505.576	16170.42
505.779	16168.37
505.982	16272.82
506.185	16788.91
506.387	16563.63
506.59	16745.9
506.793	16971.18
506.996	16999.85
507.198	17456.54
507.401	17235.36
507.604	17470.88
507.807	17905.05
508.009	17886.62
508.212	18234.77
508.415	18169.24
508.617	18451.86
508.82	18781.58
509.022	18654.61
509.225	18863.5
509.428	19289.48
509.63	19389.83
509.833	19645.82
510.035	20211.06
510.238	19799.42
510.44	20141.43
510.643	20344.18
510.845	20393.33
511.048	20655.47
511.25	20739.44
511.453	21278.05
511.655	21804.38
511.858	21538.15
512.06	21718.37
512.262	21673.31
512.465	21949.79
512.667	22195.54
512.87	22541.65
513.072	22734.16
513.274	22861.13
513.477	23274.82
513.679	23168.33
513.881	23575.87
514.084	24001.85
514.286	24106.3
514.488	24139.07
514.69	24565.04
514.893	24644.91
515.095	24775.98
515.297	25103.66
515.499	25091.37
515.701	25597.22
515.904	25765.15
516.106	25877.79
516.308	25654.56
516.51	26252.57
516.712	26596.63
516.914	26817.81
517.116	27331.85
517.318	27227.4
517.52	27600.13
517.722	27317.51
517.925	27747.59
518.127	27833.6
518.329	28425.46
518.531	28265.72
518.733	29113.58
518.935	28771.57
519.136	29025.52
519.338	29676.77
519.54	30026.98
519.742	30059.74
519.944	30088.42
520.146	30545.11
520.348	30678.23
520.55	30690.52
520.752	30909.65
520.954	31411.4
521.155	30991.57
521.357	32160.96
521.559	32044.23
521.761	32613.56
521.963	32115.9
522.164	32087.23
522.366	32904.37
522.568	32902.32
522.77	33049.78
522.971	33739.94
523.173	33168.56
523.375	33529
523.576	33756.33
523.778	33633.45
523.98	34286.75
524.181	34163.87
524.383	34591.9
524.584	35017.88
524.786	34827.42
524.988	34847.89
525.189	35273.87
525.391	35570.83
525.592	35597.45
525.794	35761.29
525.995	36009.09
526.197	35847.3
526.398	35994.76
526.6	36541.57
526.801	36586.62
527.003	36629.63
527.204	36398.21
527.406	36689.02
527.607	36695.16
527.808	36914.3
528.01	36975.73
528.211	37190.77
528.412	38016.1
528.614	37549.17
528.815	37710.96
529.016	37547.12
529.218	37448.82
529.419	38003.81
529.62	37921.9
529.822	37729.39
530.023	37762.15
530.224	37870.7
530.425	37870.7
530.626	37934.18
530.828	37778.54
531.029	38806.62
531.23	37936.23
531.431	38730.84
531.632	38284.39
531.833	38773.85
532.035	38345.83
532.236	38603.87
532.437	38632.54
532.638	38495.33
532.839	38931.54
533.04	39027.8
533.241	38374.5
533.442	39023.7
533.643	38706.27
533.844	38888.54
534.045	38909.02
534.246	38833.24
534.447	38978.65
534.648	39095.38
534.849	39390.29
535.05	38683.74
535.251	39443.54
535.451	38667.36
535.652	38978.65
535.853	38610.01
536.054	38757.47
536.255	39054.42
536.456	38833.24
536.657	39337.04
536.857	39009.37
537.058	38687.84
537.259	39275.6
537.46	39535.7
537.66	39013.46
537.861	38945.88
538.062	38788.19
538.263	39068.76
538.463	38845.53
538.664	39306.32
538.865	39275.6
539.065	39021.66
539.266	38444.13
539.466	38816.86
539.667	38798.43
539.868	39349.33
540.068	39142.49
540.269	38898.78
540.469	39253.08
540.67	38874.2
540.87	39189.59
541.071	39048.28
541.271	38990.94
541.472	38816.86
541.672	38573.15
541.873	38771.8
542.073	38632.54
542.274	38964.31
542.474	39042.13
542.675	38521.95
542.875	39033.94
543.075	38761.56
543.276	38567.01
543.476	39367.76
543.676	38788.19
543.877	38935.64
544.077	38911.06
544.277	38689.88
544.478	38765.66
544.678	39136.34
544.878	38663.26
545.078	39042.13
545.279	38710.36
545.479	38505.57
545.679	38720.6
545.879	38857.82
546.079	38728.8
546.28	38714.46
546.48	38280.29
546.68	38704.22
546.88	39044.18
547.08	38732.89
547.28	38771.8
547.48	38552.67
547.68	38767.71
547.88	38630.49
548.081	39011.42
548.281	38294.63
548.481	38188.13
548.681	38696.03
548.881	38569.05
549.081	38458.46
549.28	38501.47
549.48	38730.84
549.68	38147.17
549.88	38917.21
550.08	38487.14
550.28	38349.92
550.48	38249.57
550.68	38708.32
550.88	38466.66
551.08	38489.18
551.279	38659.16
551.479	38161.51
551.679	38409.31
551.879	38446.18
552.079	38392.93
552.278	38372.45
552.478	38425.7
552.678	38411.36
552.878	38931.54
553.077	38679.64
553.277	37899.37
553.477	38636.64
553.676	38186.08
553.876	38014.05
554.076	38136.93
554.275	38110.31
554.475	37723.24
554.674	38227.04
554.874	38558.81
555.074	38112.36
555.273	38118.5
555.473	38026.34
555.672	37985.38
555.872	37782.63
556.071	38063.21
556.271	38237.28
556.47	37989.48
556.67	37497.97
556.869	37729.39
557.068	37844.07
557.268	37430.38
557.467	37454.96
557.667	37393.52
557.866	37846.12
558.065	37579.89
558.265	37352.56
558.464	37155.96
558.663	37571.69
558.863	37041.27
559.062	37960.81
559.261	36949.11
559.461	37659.76
559.66	36760.7
559.859	37198.96
560.058	37049.46
560.258	37381.23
560.457	36844.66
560.656	36969.59
560.855	36775.03
561.054	37020.79
561.253	36498.56
561.453	36899.96
561.652	36879.48
561.851	36775.03
562.05	36310.14
562.249	36377.73
562.448	37014.65
562.647	36609.15
562.846	36547.71
563.045	36385.92
563.244	36277.38
563.443	36502.65
563.642	35714.19
563.841	36521.09
564.04	35757.19
564.239	36500.61
564.438	35884.17
564.637	35878.02
564.836	36037.76
565.035	35787.91
565.234	35734.67
565.432	35646.6
565.631	35714.19
565.83	35460.24
566.029	35648.65
566.228	35267.73
566.427	35335.31
566.625	35148.95
566.824	34868.37
567.023	35103.89
567.222	34583.71
567.42	35781.77
567.619	34995.35
567.818	34831.51
568.016	34956.44
568.215	35075.22
568.414	34573.47
568.612	35024.02
568.811	34466.97
569.01	34489.5
569.208	34028.71
569.407	34884.76
569.605	34270.37
569.804	34489.5
570.002	34034.85
570.201	34065.57
570.4	33694.89
570.598	33967.27
570.797	33725.61
570.995	33834.15
571.193	33799.33
571.392	34362.53
571.59	33318.06
571.789	33662.12
571.987	33615.02
572.186	33903.78
572.384	33111.22
572.582	33176.75
572.781	33262.77
572.979	32951.48
573.177	33094.83
573.376	32840.89
573.574	33070.26
573.772	32842.93
573.971	32865.46
574.169	32191.68
574.367	32621.75
574.565	32599.23
574.763	32404.67
574.962	32187.58
575.16	31769.8
575.358	32328.89
575.556	31642.82
575.754	32484.54
575.952	31763.65
576.151	32038.08
576.349	31732.93
576.547	31988.93
576.745	31587.53
576.943	31771.85
577.141	31458.51
577.339	31648.97
577.537	31585.48
577.735	31347.92
577.933	31474.89
578.131	31407.31
578.329	30747.86
578.527	31108.3
578.725	30866.64
578.923	31192.27
579.121	31081.68
579.319	30399.71
579.516	30848.21
579.714	30842.07
579.912	30715.09
580.11	30479.58
580.308	30448.86
580.506	30258.4
580.704	29967.59
580.901	30182.62
581.099	30192.86
581.297	30049.5
581.495	29838.56
581.692	30037.22
581.89	29773.03
582.088	29897.95
582.285	29807.84
582.483	29787.36
582.681	29218.03
582.878	29627.62
583.076	29154.54
583.274	29332.72
583.471	29132.01
583.669	29164.78
583.866	29279.47
584.064	29252.84
584.262	28855.54
584.459	29046
584.657	29095.15
584.854	28708.08
585.052	28204.28
585.249	28726.52
585.447	28677.37
585.644	28351.74
585.841	28468.47
586.039	28677.37
586.236	28101.89
586.434	28230.91
586.631	28001.54
586.828	28257.53
587.026	28333.31
587.223	27684.1
587.42	27673.86
587.618	27751.68
587.815	27510.02
588.012	27766.02
588.21	27411.72
588.407	27481.35
588.604	27364.62
588.801	26995.98
588.999	27188.49
589.196	27079.95
589.393	27170.06
589.59	27129.1
589.787	26950.93
589.984	26961.17
590.182	26721.55
590.379	27057.42
590.576	26473.75
590.773	27002.13
590.97	26522.9
591.167	26744.08
591.364	26125.6
591.561	26455.32
591.758	26379.54
591.955	26297.63
592.152	26199.32
592.349	26023.2
592.546	25851.17
592.743	26123.55
592.94	25472.29
593.137	25720.1
593.334	25640.23
593.531	25548.07
593.727	25894.18
593.924	25541.92
594.121	25226.54
594.318	25576.74
594.515	25236.78
594.712	25771.3
594.908	25154.86
595.105	25070.89
595.302	24847.66
595.499	24970.54
595.696	24931.63
595.892	24599.86
596.089	24692.02
596.286	24761.65
596.482	24487.22
596.679	24407.35
596.876	24534.32
597.072	24585.52
597.269	24247.61
597.466	23858.49
597.662	24053.05
597.859	23983.42
598.055	24309.05
598.252	24059.2
598.448	24208.7
598.645	23919.93
598.841	23450.95
599.038	23776.58
599.234	23571.78
599.431	23438.66
599.627	23618.88
599.824	23594.31
600.02	23229.77
600.217	23211.34
600.413	23358.79
600.609	23223.62
600.806	23110.99
601.002	23020.88
601.198	22707.54
601.395	22697.3
601.591	23123.27
601.787	22697.3
601.984	23057.74
602.18	22754.64
602.376	22598.99
602.572	22656.34
602.769	22506.84
602.965	22318.42
603.161	22283.61
603.357	22297.94
603.553	22353.24
603.75	22340.95
603.946	22037.85
604.142	22252.89
604.338	21816.67
604.534	21865.82
604.73	21755.23
604.926	21747.04
605.122	21814.62
605.318	21368.16
605.514	21542.24
605.71	21683.55
605.906	21425.51
606.102	21628.26
606.298	21386.6
606.494	21519.71
606.69	21394.79
606.886	21155.18
607.082	20876.65
607.278	21306.73
607.474	20938.09
607.67	21056.87
607.866	20847.98
608.062	21132.65
608.257	20931.95
608.453	20886.89
608.649	20774.25
608.845	20649.33
609.041	20569.46
609.236	20727.15
609.432	20602.22
609.628	20739.44
609.824	20540.79
610.019	20465.01
610.215	20553.07
610.411	20526.45
610.606	20299.12
610.802	20675.95
610.998	20338.04
611.193	20233.59
611.389	20065.66
611.584	19887.48
611.78	19977.59
611.976	20227.45
612.171	20008.31
612.367	20241.78
612.562	20004.22
612.758	19574.14
612.953	19764.61
613.149	20116.86
613.344	19789.18
613.539	19756.41
613.735	19758.46
613.93	19774.84
614.126	19733.89
614.321	19586.43
614.517	19398.02
614.712	19465.6
614.907	19201.41
615.103	19518.85
615.298	19285.38
615.493	19434.88
615.688	19033.48
615.884	19717.5
616.079	19096.97
616.274	19375.49
616.47	19164.55
616.665	19355.01
616.86	19090.82
617.055	19209.61
617.25	19027.34
617.445	18988.42
617.641	18605.45
617.836	18994.57
618.031	18619.79
618.226	19041.67
618.421	18623.89
618.616	18867.59
618.811	18431.38
619.006	19031.43
619.201	18404.75
619.396	18464.14
619.591	18163.09
619.786	18398.61
619.981	17974.68
620.176	18171.29
620.371	17943.96
620.566	18140.57
620.761	18081.17
620.956	17995.16
621.151	17675.68
621.346	17821.08
621.541	17444.26
621.735	17647.01
621.93	17462.69
622.125	17210.79
622.32	17333.67
622.515	17444.26
622.709	17012.14
622.904	17073.57
623.099	16930.22
623.294	16905.64
623.488	16901.54
623.683	16635.31
623.878	16733.61
624.072	16737.71
624.267	16684.46
624.462	16649.64
624.656	16420.27
624.851	16367.02
625.046	16233.91
625.24	16113.08
625.435	16020.92
625.629	16002.49
625.824	16045.49
626.018	15807.93
626.213	15457.73
626.407	15556.03
626.602	15361.47
626.796	15455.68
626.991	15345.09
627.185	15349.18
627.38	15130.05
627.574	15085
627.768	15119.81
627.963	15050.18
628.157	14675.4
628.352	14921.16
628.546	14652.88
628.74	14728.65
628.935	14349.78
629.129	14525.9
629.323	14208.47
629.517	14476.75
629.712	14194.13
629.906	14185.94
630.1	13802.97
630.294	14130.64
630.489	13860.31
630.683	14169.55
630.877	13729.24
631.071	13649.37
631.265	13661.66
631.459	13680.09
631.653	13434.33
631.848	13374.94
632.042	13161.95
632.236	13434.33
632.43	12977.64
632.624	13338.08
632.818	13106.66
633.012	12944.87
633.206	12680.68
633.4	13069.8
633.594	12908.01
633.788	13098.47
633.982	12713.45
634.176	12834.28
634.369	12707.3
634.563	12516.84
634.757	12305.9
634.951	12592.62
635.145	12281.33
635.339	12613.1
635.533	12269.04
635.726	12336.62
635.92	12137.97
636.114	12017.14
636.308	11918.84
636.501	12180.98
636.695	11884.02
636.889	11769.34
637.083	11689.46
637.276	11775.48
637.47	11607.55
637.664	11611.64
637.857	11568.63
638.051	11572.73
638.244	11316.73
638.438	11236.86
638.632	11073.03
638.825	11070.98
639.019	11032.07
639.212	11052.55
639.406	11023.87
639.599	10929.67
639.793	10903.04
639.986	10835.46
640.18	10712.58
640.373	10862.08
640.567	10714.63
640.76	10606.09
640.954	10792.45
641.147	10604.04
641.34	10493.45
641.534	10389
641.727	10485.26
641.92	10429.96
642.114	10360.33
642.307	10124.82
642.5	10231.31
642.694	10085.9
642.887	10024.47
643.08	10083.86
643.273	10067.47
643.467	10010.13
643.66	9844.24
643.853	9887.25
644.046	9696.79
644.239	9803.29
644.432	9608.73
644.626	9469.47
644.819	9362.97
645.012	9487.9
645.205	9442.84
645.398	9473.56
645.591	9166.37
645.784	9350.68
645.977	9127.46
646.17	9326.11
646.363	9197.09
646.556	9070.11
646.749	9102.88
646.942	9057.82
647.135	8859.17
647.328	8988.19
647.521	8812.07
647.714	8687.14
647.907	8805.92
648.099	8836.64
648.292	8676.9
648.485	8525.35
648.678	8388.14
648.871	8597.03
649.064	8476.2
649.256	8697.38
649.449	8427.05
649.642	8287.79
649.835	8330.8
650.027	8193.58
650.22	8396.33
650.413	8181.29
650.605	8244.78
650.798	7921.2
650.991	7960.11
651.183	8126
651.376	7919.15
651.568	7992.88
651.761	8066.61
651.954	8146.48
652.146	7872.05
652.339	7829.04
652.531	7814.71
652.724	7716.4
652.916	7415.35
653.109	7693.88
653.301	7571
653.494	7732.79
653.686	7652.92
653.879	7679.54
654.071	7454.26
654.263	7444.03
654.456	7419.45
654.648	7355.96
654.84	7190.08
655.033	7343.67
655.225	7136.83
655.417	7185.98
655.61	7222.84
655.802	7212.6
655.994	6946.37
656.186	7022.14
656.379	7020.1
656.571	7087.68
656.763	6862.4
656.955	6997.57
657.148	6786.63
657.34	6880.83
657.532	6764.1
657.724	6676.04
657.916	6944.32
658.108	6618.69
658.3	6561.35
658.492	6602.31
658.684	6542.92
658.876	6567.49
659.068	6534.73
659.26	6504.01
659.452	6350.41
659.644	6528.58
659.836	6344.27
660.028	6370.89
660.22	6200.91
660.412	6360.65
660.604	6225.48
660.796	6157.9
660.988	6225.48
661.18	5908.05
661.372	6252.11
661.563	6194.76
661.755	6037.07
661.947	6129.23
662.139	6047.31
662.331	6059.6
662.522	5946.96
662.714	5897.81
662.906	5865.04
663.097	5908.05
663.289	5838.42
663.481	5731.92
663.673	5699.16
663.864	5813.84
664.056	5809.75
664.247	5678.68
664.439	5693.01
664.631	5627.48
664.822	5654.1
665.014	5697.11
665.205	5496.41
665.397	5420.63
665.588	5543.51
665.78	5508.69
665.971	5455.45
666.163	5547.61
666.354	5443.16
666.546	5357.14
666.737	5371.48
666.929	5361.24
667.12	5281.37
667.311	5224.03
667.503	5207.64
667.694	5228.12
667.885	5281.37
668.077	5295.71
668.268	5219.93
668.459	5056.09
668.651	5191.26
668.842	5082.72
669.033	5095
669.224	5080.67
669.416	5092.96
669.607	5101.15
669.798	5017.18
669.989	5027.42
670.18	4974.17
670.371	5002.85
670.563	4988.51
670.754	4996.7
670.945	4781.67
671.136	4826.72
671.327	4898.4
671.518	4839.01
671.709	4877.92
671.9	4908.64
672.091	4945.5
672.282	4699.75
672.473	4906.59
672.664	4689.51
672.855	4654.69
673.046	4703.84
673.237	4677.22
673.428	4650.6
673.619	4679.27
673.809	4720.23
674	4632.16
674.191	4556.39
674.382	4562.53
674.573	4580.96
674.764	4683.36
674.954	4599.4
675.145	4570.72
675.336	4437.61
675.527	4554.34
675.717	4552.29
675.908	4527.72
676.099	4578.92
676.289	4421.22
676.48	4562.53
676.671	4570.72
676.861	4468.33
677.052	4351.59
677.243	4388.46
677.433	4443.75
677.624	4437.61
677.814	4310.63
678.005	4431.46
678.195	4300.39
678.386	4351.59
678.576	4394.6
678.767	4318.82
678.957	4404.84
679.148	4376.17
679.338	4324.97
679.529	4245.1
679.719	4138.6
679.909	4347.5
680.1	4234.86
680.29	4249.19
680.481	4365.93
680.671	4253.29
680.861	4195.95
681.052	4279.91
681.242	4234.86
681.432	4290.15
681.622	4216.43
681.813	4185.71
682.003	4339.3
682.193	4249.19
682.383	4253.29
682.573	4191.85
682.764	4142.7
682.954	4081.26
683.144	4234.86
683.334	4114.03
683.524	4075.12
683.714	4116.08
683.904	4140.65
684.094	3954.29
684.284	4120.17
684.474	4140.65
684.664	4097.64
684.854	3989.1
685.044	4169.32
685.234	4028.01
685.424	3987.05
685.614	3962.48
685.804	3968.62
685.994	4011.63
686.184	4013.68
686.374	4073.07
686.564	3923.57
686.753	3942
686.943	3747.44
687.133	3870.32
687.323	4032.11
687.513	3825.26
687.702	3853.94
687.892	3925.61
688.082	3675.76
688.272	3702.39
688.461	3681.91
688.651	3743.35
688.841	3708.53
689.03	3905.14
689.22	3683.95
689.41	3896.94
689.599	3686
689.789	3735.15
689.979	3778.16
690.168	3556.98
690.358	3659.38
690.547	3628.66
690.737	3544.69
690.926	3608.18
691.116	3528.31
691.305	3511.93
691.495	3569.27
691.684	3409.53
691.874	3579.51
692.063	3518.07
692.252	3495.54
692.442	3458.68
692.631	3440.25
692.82	3483.25
693.01	3335.8
693.199	3434.1
693.388	3364.47
693.578	3280.5
693.767	3264.12
693.956	3370.62
694.146	3397.24
694.335	3352.18
694.524	3339.9
694.713	3210.87
694.902	3374.71
695.092	3233.4
695.281	3188.35
695.47	3229.31
695.659	3155.58
695.848	3272.31
696.037	3294.84
696.226	3210.87
696.415	3217.02
696.604	3196.54
696.793	3155.58
696.982	3176.06
697.171	3110.52
697.36	3061.37
697.549	3169.91
697.738	3071.61
697.927	3114.62
698.116	3153.53
698.305	3223.16
698.494	3114.62
698.683	3135.1
698.872	3176.06
699.061	3057.28
699.25	3020.41
699.438	3151.48
699.627	3122.81
699.816	3145.34
700.005	3004.03
700.193	2981.5
700.382	3139.19
700.571	3110.52
700.76	2971.26
700.948	2983.55
701.137	3038.84
701.326	3085.95
701.514	2881.15
701.703	3006.08
701.892	2940.54
702.08	3069.56
702.269	2981.5
702.457	2987.65
702.646	2922.11
702.834	3030.65
703.023	2903.68
703.212	2938.49
703.4	2868.86
703.589	2866.81
703.777	2954.88
703.965	2848.38
704.154	2938.49
704.342	2967.17
704.531	2893.44
704.719	2889.34
704.907	2932.35
705.096	2899.58
705.284	2973.31
705.472	2971.26
705.661	2875.01
705.849	2999.93
706.037	2950.78
706.226	2932.35
706.414	3004.03
706.602	2952.83
706.79	2846.34
706.979	2823.81
707.167	2844.29
707.355	2858.62
707.543	2745.98
707.731	2803.33
707.919	2813.57
708.107	2827.9
708.296	2809.47
708.484	2762.37
708.672	2901.63
708.86	2776.7
709.048	2756.22
709.236	2797.18
709.424	2825.86
709.612	2700.93
709.8	2758.27
709.988	2741.89
710.176	2729.6
710.364	2807.42
710.551	2627.2
710.739	2684.55
710.927	2672.26
711.115	2709.12
711.303	2725.51
711.491	2762.37
711.679	2692.74
711.866	2750.08
712.054	2645.63
712.242	2721.41
712.43	2739.84
712.617	2815.62
712.805	2621.06
712.993	2662.02
713.181	2672.26
713.368	2670.21
713.556	2745.98
713.744	2588.29
713.931	2823.81
714.119	2614.91
714.306	2662.02
714.494	2670.21
714.682	2643.59
714.869	2743.94
715.057	2643.59
715.244	2805.38
715.432	2713.22
715.619	2664.07
715.807	2702.98
715.994	2586.24
716.182	2555.52
716.369	2664.07
716.556	2623.11
716.744	2721.41
716.931	2498.18
717.119	2686.59
717.306	2588.29
717.493	2576
717.681	2571.91
717.868	2547.33
718.055	2692.74
718.242	2530.95
718.43	2514.56
718.617	2565.76
718.804	2573.96
718.991	2580.1
719.179	2463.37
719.366	2541.19
719.553	2639.49
719.74	2619.01
719.927	2524.8
720.114	2596.48
720.301	2555.52
720.488	2580.1
720.676	2598.53
720.863	2614.91
721.05	2635.39
721.237	2551.43
721.424	2399.88
721.611	2485.89
721.798	2410.12
721.985	2524.8
722.172	2489.99
722.358	2492.04
722.545	2522.76
722.732	2455.17
722.919	2500.23
723.106	2436.74
723.293	2453.13
723.48	2516.61
723.667	2465.41
723.853	2324.1
724.04	2571.91
724.227	2424.45
724.414	2393.73
724.6	2483.84
724.787	2512.52
724.974	2514.56
725.161	2496.13
725.347	2373.25
725.534	2520.71
725.72	2397.83
725.907	2446.98
726.094	2371.21
726.28	2434.69
726.467	2385.54
726.653	2375.3
726.84	2580.1
727.027	2416.26
727.213	2516.61
727.4	2457.22
727.586	2516.61
727.773	2451.08
727.959	2391.69
728.145	2330.25
728.332	2424.45
728.518	2410.12
728.705	2487.94
728.891	2414.21
729.077	2449.03
729.264	2455.17
729.45	2389.64
729.636	2442.89
729.823	2299.53
730.009	2496.13
730.195	2446.98
730.382	2381.45
730.568	2438.79
730.754	2455.17
730.94	2285.19
731.126	2449.03
731.313	2438.79
731.499	2442.89
731.685	2504.32
731.871	2403.97
732.057	2344.58
732.243	2383.49
732.429	2346.63
732.615	2463.37
732.801	2256.52
732.987	2334.34
733.173	2344.58
733.359	2299.53
733.545	2397.83
733.731	2303.62
733.917	2438.79
734.103	2375.3
734.289	2397.83
734.475	2363.01
734.661	2430.6
734.847	2389.64
735.033	2260.62
735.219	2311.82
735.404	2393.73
735.59	2444.93
735.776	2385.54
735.962	2233.99
736.148	2344.58
736.333	2350.73
736.519	2266.76
736.705	2291.34
736.89	2211.46
737.076	2279.05
737.262	2258.57
737.447	2360.97
737.633	2233.99
737.819	2268.81
738.004	2158.22
738.19	2215.56
738.375	2172.55
738.561	2238.09
738.747	2250.38
738.932	2262.66
739.118	2248.33
739.303	2182.79
739.489	2285.19
739.674	2180.75
739.859	2254.47
740.045	2213.51
740.23	2127.5
740.416	2193.03
740.601	2156.17
740.786	2135.69
740.972	2102.92
741.157	2180.75
741.342	2160.27
741.528	2135.69
741.713	2160.27
741.898	2160.27
742.084	2049.68
742.269	2143.88
742.454	2070.16
742.639	2188.94
742.824	2029.2
743.01	2045.58
743.195	2086.54
743.38	1965.71
743.565	1998.48
743.75	2016.91
743.935	2070.16
744.12	2143.88
744.305	1943.18
744.49	1990.28
744.675	2029.2
744.86	1906.32
745.045	1996.43
745.23	1971.85
745.415	1826.45
745.6	2023.05
745.785	1920.65
745.97	1988.24
746.155	1934.99
746.34	1953.42
746.525	1943.18
746.71	1894.03
746.895	1871.5
747.079	1848.97
747.264	1908.37
747.449	1898.13
747.634	1787.54
747.819	1808.02
748.003	1859.21
748.188	1836.69
748.373	1873.55
748.557	1730.19
748.742	1777.3
748.927	1828.49
749.111	1732.24
749.296	1787.54
749.481	1795.73
749.665	1728.14
749.85	1650.32
750.034	1683.09
750.219	1726.1
750.404	1678.99
750.588	1625.75
750.773	1621.65
750.957	1722
751.141	1621.65
751.326	1701.52
751.51	1601.17
751.695	1560.21
751.879	1644.18
752.064	1644.18
752.248	1588.88
752.432	1595.03
752.617	1453.72
752.801	1586.83
752.985	1597.07
753.17	1554.07
753.354	1466
753.538	1474.2
753.722	1484.44
753.907	1445.52
754.091	1468.05
754.275	1447.57
754.459	1400.47
754.643	1353.37
754.828	1435.28
755.012	1443.48
755.196	1443.48
755.38	1470.1
755.564	1408.66
755.748	1296.02
755.932	1408.66
756.116	1363.61
756.3	1394.33
756.484	1398.42
756.668	1308.31
756.852	1285.78
757.036	1263.26
757.22	1300.12
757.404	1238.68
757.588	1275.54
757.772	1296.02
757.956	1289.88
758.14	1308.31
758.323	1212.06
758.507	1234.58
758.691	1220.25
758.875	1201.82
759.059	1203.86
759.242	1144.47
759.426	1193.62
759.61	1177.24
759.794	1150.62
759.977	1236.63
760.161	1109.66
760.345	1123.99
760.528	1253.02
760.712	1121.95
760.895	1232.54
761.079	1136.28
761.263	1068.7
761.446	1150.62
761.63	1126.04
761.813	1126.04
761.997	1103.51
762.18	1099.42
762.364	1056.41
762.547	1056.41
762.731	1072.79
762.914	1087.13
763.098	990.88
763.281	1048.22
763.464	1037.98
763.648	1019.55
763.831	1013.4
764.015	1037.98
764.198	1103.51
764.381	1089.18
764.564	1035.93
764.748	1089.18
764.931	958.11
765.114	947.87
765.297	1019.55
765.481	990.88
765.664	968.35
765.847	988.83
766.03	1021.6
766.213	988.83
766.397	1021.6
766.58	980.64
766.763	945.82
766.946	935.58
767.129	956.06
767.312	915.1
767.495	890.53
767.678	859.81
767.861	919.2
768.044	913.05
768.227	949.92
768.41	941.72
768.593	874.14
768.776	974.49
768.959	824.99
769.142	908.96
769.324	890.53
769.507	855.71
769.69	898.72
769.873	792.22
770.056	964.25
770.239	796.32
770.421	915.1
770.604	816.8
770.787	886.43
770.97	845.47
771.152	736.93
771.335	906.91
771.518	833.18
771.7	853.66
771.883	857.76
772.066	808.61
772.248	788.13
772.431	806.56
772.613	775.84
772.796	824.99
772.978	904.86
773.161	839.33
773.343	843.42
773.526	806.56
773.708	726.69
773.891	755.36
774.073	808.61
774.256	822.94
774.438	751.26
774.621	781.98
774.803	784.03
774.985	753.31
775.168	769.69
775.35	730.78
775.532	751.26
775.715	712.35
775.897	700.06
776.079	597.67
776.261	734.88
776.444	677.54
776.626	671.39
776.808	681.63
776.99	698.02
777.173	652.96
777.355	708.26
777.537	597.67
777.719	636.58
777.901	695.97
778.083	667.3
778.265	589.47
778.447	693.92
778.629	652.96
778.811	698.02
778.993	628.39
779.175	595.62
779.357	677.54
779.539	579.23
779.721	558.75
779.903	603.81
780.085	587.43
780.267	663.2
780.449	577.19
780.631	624.29
780.812	546.47
780.994	474.79
781.176	509.6
781.358	554.66
781.54	456.36
781.721	573.09
781.903	616.1
782.085	495.27
782.267	661.15
782.448	554.66
782.63	513.7
782.812	493.22
782.993	558.75
783.175	542.37
783.357	497.32
783.538	456.36
783.72	485.03
783.901	548.51
784.083	525.99
784.264	435.88
784.446	464.55
784.627	485.03
784.809	482.98
784.99	478.88
785.172	466.6
785.353	415.4
785.535	450.21
785.716	431.78
785.897	456.36
786.079	448.16
786.26	425.64
786.441	489.12
786.623	372.39
786.804	382.63
786.985	409.25
787.167	507.55
787.348	458.4
787.529	417.44
787.71	442.02
787.891	366.25
788.073	448.16
788.254	331.43
788.435	482.98
788.616	460.45
788.797	356.01
788.978	388.77
789.159	419.49
789.34	433.83
789.522	417.44
789.703	360.1
789.884	364.2
790.065	415.4
790.246	399.01
790.427	382.63
790.607	392.87
790.788	437.92
790.969	392.87
791.15	396.96
791.331	399.01
791.512	300.71
791.693	325.29
791.874	335.53
792.054	360.1
792.235	386.72
792.416	343.72
792.597	356.01
792.778	360.1
792.958	374.44
793.139	300.71
793.32	317.09
793.5	337.57
793.681	435.88
793.862	310.95
794.042	407.2
794.223	251.56
794.404	294.57
794.584	300.71
794.765	384.68
794.945	261.8
795.126	341.67
795.306	325.29
795.487	284.33
795.667	362.15
795.848	394.92
796.028	294.57
796.209	294.57
796.389	298.66
796.57	237.22
796.75	276.13
796.93	229.03
797.111	302.76
797.291	263.85
797.471	296.61
797.652	278.18
797.832	284.33
798.012	329.38
798.192	229.03
798.373	276.13
798.553	269.99
798.733	243.37
798.913	220.84
799.093	251.56
799.274	161.45
799.454	284.33
799.634	243.37
799.814	278.18
799.994	323.24
800.174	401.06
800.354	206.5
800.534	249.51
800.714	267.94
800.894	269.99
801.074	226.98
801.254	251.56
801.434	280.23
801.614	284.33
801.794	210.6
801.974	835.23
802.154	177.83
802.334	231.08
802.514	212.65
802.693	190.12
802.873	218.79
803.053	231.08
803.233	204.46
803.413	280.23
803.592	284.33
803.772	173.74
803.952	204.46
804.131	206.5
804.311	186.02
804.491	229.03
804.67	202.41
804.85	95.91
805.03	239.27
805.209	186.02
805.389	91.82
805.568	233.13
805.748	226.98
805.928	226.98
806.107	218.79
806.287	155.3
806.466	251.56
806.646	161.45
806.825	237.22
807.004	183.98
807.184	235.18
807.363	239.27
807.543	210.6
807.722	222.89
807.901	128.68
808.081	253.61
808.26	175.78
808.439	194.22
808.619	231.08
808.798	206.5
808.977	165.54
809.156	128.68
809.336	159.4
809.515	179.88
809.694	220.84
809.873	179.88
810.052	161.45
810.231	239.27
810.411	136.87
810.59	251.56
810.769	153.26
810.948	239.27
811.127	100.01
811.306	222.89
811.485	165.54
811.664	140.97
811.843	229.03
812.022	179.88
812.201	151.21
812.38	216.74
812.559	140.97
812.737	245.41
812.916	77.48
813.095	167.59
813.274	188.07
813.453	155.3
813.632	208.55
813.811	239.27
813.989	136.87
814.168	206.5
814.347	194.22
814.526	165.54
814.704	138.92
814.883	147.11
815.062	138.92
815.24	169.64
815.419	145.06
815.598	145.06
815.776	132.78
815.955	161.45
816.133	116.39
816.312	147.11
816.49	59.05
816.669	95.91
816.847	104.11
817.026	163.5
817.204	124.58
817.383	87.72
817.561	120.49
817.74	132.78
817.918	104.11
818.097	161.45
818.275	93.87
818.453	153.26
818.632	151.21
818.81	161.45
818.988	83.63
819.167	112.3
819.345	202.41
819.523	179.88
819.701	169.64
819.879	116.39
820.058	161.45
820.236	100.01
820.414	136.87
820.592	87.72
820.77	200.36
820.948	167.59
821.127	149.16
821.305	136.87
821.483	44.71
821.661	149.16
821.839	222.89
822.017	153.26
822.195	149.16
822.373	161.45
822.551	161.45
822.729	130.73
822.907	63.15
823.085	140.97
823.262	102.06
823.44	120.49
823.618	116.39
823.796	155.3
823.974	132.78
824.152	161.45
824.329	104.11
824.507	73.39
824.685	212.65
824.863	138.92
825.04	120.49
825.218	120.49
825.396	87.72
825.574	112.3
825.751	106.15
825.929	200.36
826.107	112.3
826.284	114.34
826.462	95.91
826.639	95.91
826.817	100.01
826.994	147.11
827.172	87.72
827.349	181.93
827.527	48.81
827.704	155.3
827.882	97.96
828.059	161.45
828.237	122.54
828.414	179.88
828.591	100.01
828.769	89.77
828.946	57
829.124	71.34
829.301	85.67
829.478	136.87
829.655	71.34
829.833	112.3
830.01	143.02
830.187	130.73
830.364	79.53
830.542	110.25
830.719	181.93
830.896	79.53
831.073	120.49
831.25	108.2
831.427	108.2
831.604	128.68
831.782	145.06
831.959	79.53
832.136	20.14
832.313	83.63
832.49	102.06
832.667	73.39
832.844	128.68
833.021	155.3
833.198	59.05
833.374	112.3
833.551	59.05
833.728	108.2
833.905	83.63
834.082	75.43
834.259	95.91
834.436	130.73
834.612	73.39
834.789	149.16
834.966	190.12
835.143	114.34
835.319	79.53
835.496	91.82
835.673	50.86
835.85	46.76
836.026	73.39
836.203	157.35
836.38	79.53
836.556	89.77
836.733	132.78
836.909	226.98
837.086	75.43
837.262	54.95
837.439	-43.35
837.616	46.76
837.792	91.82
837.968	57
838.145	34.47
838.321	77.48
838.498	95.91
838.674	87.72
838.851	75.43
839.027	79.53
839.203	87.72
839.38	100.01
839.556	57
839.732	71.34
839.909	161.45
840.085	93.87
840.261	5.8
840.437	95.91
840.614	79.53
840.79	114.34
840.966	48.81
841.142	153.26
841.318	54.95
841.494	81.58
841.671	50.86
841.847	128.68
842.023	95.91
842.199	63.15
842.375	122.54
842.551	-8.53
842.727	40.62
842.903	102.06
843.079	40.62
843.255	95.91
843.431	104.11
843.607	104.11
843.783	-10.58
843.959	157.35
844.134	95.91
844.31	104.11
844.486	40.62
844.662	95.91
844.838	79.53
845.013	97.96
845.189	65.19
845.365	7.85
845.541	50.86
845.716	95.91
845.892	54.95
846.068	71.34
846.244	-6.49
846.419	104.11
846.595	28.33
846.77	97.96
846.946	97.96
847.122	108.2
847.297	48.81
847.473	112.3
847.648	89.77
847.824	7.85
847.999	67.24
848.175	3.75
848.35	32.43
848.526	120.49
848.701	95.91
848.876	-6.49
849.052	149.16
849.227	89.77
849.403	73.39
849.578	79.53
849.753	149.16
849.929	20.14
850.104	32.43
850.279	87.72
850.454	38.57
850.63	97.96
850.805	67.24
850.98	93.87
851.155	67.24
851.33	71.34
851.505	20.14
851.681	97.96
851.856	57
852.031	59.05
852.206	57
852.381	40.62
852.556	13.99
852.731	50.86
852.906	34.47
853.081	48.81
853.256	87.72
853.431	110.25
853.606	40.62
853.781	30.38
853.956	59.05
854.131	38.57
854.305	1.71
854.48	9.9
854.655	44.71
854.83	38.57
855.005	104.11
855.18	138.92
855.354	5.8
855.529	83.63
855.704	65.19
855.879	79.53
856.053	18.09
856.228	26.28
856.403	-2.39
856.577	73.39
856.752	44.71
856.926	128.68
857.101	46.76
857.276	9.9
857.45	50.86
857.625	24.23
857.799	-10.58
857.974	79.53
858.148	87.72
858.323	13.99
858.497	22.19
858.672	38.57
858.846	95.91
859.02	91.82
859.195	59.05
859.369	32.43
859.543	48.81
859.718	9.9
859.892	54.95
860.066	24.23
860.241	-41.3
860.415	46.76
860.589	42.67
860.763	18.09
860.938	65.19
861.112	28.33
861.286	11.95
861.46	63.15
861.634	16.04
861.808	81.58
861.982	54.95
862.157	32.43
862.331	-18.77
862.505	-12.63
862.679	13.99
862.853	3.75
863.027	116.39
863.201	26.28
863.375	50.86
863.549	79.53
863.722	-16.73
863.896	42.67
864.07	-29.01
864.244	50.86
864.418	16.04
864.592	95.91
864.766	-26.96
864.939	69.29
865.113	36.52
865.287	36.52
865.461	-18.77
865.634	50.86
865.808	18.09
865.982	73.39
866.156	-20.82
866.329	16.04
866.503	-2.39
866.676	63.15
866.85	57
867.024	38.57
867.197	13.99
867.371	89.77
867.544	-6.49
867.718	38.57
867.891	7.85
868.065	24.23
868.238	83.63
868.412	87.72
868.585	9.9
868.759	-35.16
868.932	42.67
869.105	-43.35
869.279	20.14
869.452	89.77
869.625	38.57
869.799	7.85
869.972	-10.58
870.145	67.24
870.319	40.62
870.492	87.72
870.665	9.9
870.838	63.15
871.011	-16.73
871.185	-22.87
871.358	61.1
871.531	93.87
871.704	-41.3
871.877	13.99
872.05	95.91
872.223	11.95
872.396	40.62
872.569	46.76
872.742	11.95
872.915	46.76
873.088	5.8
873.261	5.8
873.434	63.15
873.607	155.3
873.78	61.1
873.953	-2.39
874.126	54.95
874.299	26.28
874.471	-0.34
874.644	7.85
874.817	79.53
874.99	114.34
875.163	5.8
875.335	46.76
875.508	71.34
875.681	-8.53
875.853	24.23
876.026	69.29
876.199	32.43
876.371	-18.77
876.544	75.43
876.717	120.49
876.889	-8.53
877.062	65.19
877.234	-2.39
877.407	40.62
877.579	-55.64
877.752	79.53
877.924	36.52
878.097	40.62
878.269	89.77
878.442	44.71
878.614	65.19
878.786	38.57
878.959	5.8
879.131	-0.34
879.303	-55.64
879.476	-14.68
879.648	30.38
879.82	24.23
879.993	-12.63
880.165	91.82
880.337	-43.35
880.509	87.72
880.681	-10.58
880.854	5.8
881.026	-45.4
881.198	106.15
881.37	-45.4
881.542	5.8
881.714	54.95
881.886	-4.44
882.058	-45.4
882.23	57
882.402	69.29
882.574	40.62
882.746	73.39
882.918	40.62
883.09	75.43
883.262	-22.87
883.434	79.53
883.606	-22.87
883.778	-10.58
883.95	46.76
884.122	1.71
884.293	57
884.465	-65.88
884.637	-16.73
884.809	20.14
884.98	-6.49
885.152	57
885.324	44.71
885.496	54.95
885.667	-88.4
885.839	7.85
886.011	34.47
886.182	30.38
886.354	136.87
886.525	46.76
886.697	54.95
886.869	22.19
887.04	32.43
887.212	42.67
887.383	52.91
887.555	71.34
887.726	16.04
887.897	65.19
888.069	87.72
888.24	-14.68
888.412	26.28
888.583	24.23
888.754	118.44
888.926	1.71
889.097	112.3
889.268	30.38
889.44	-0.34
889.611	57
889.782	30.38
889.953	-0.34
890.125	-0.34
890.296	42.67
890.467	50.86
890.638	18.09
890.809	22.19
890.98	1.71
891.151	136.87
891.323	63.15
891.494	16.04
891.665	48.81
891.836	79.53
892.007	5.8
892.178	13.99
892.349	30.38
892.52	1.71
892.691	-29.01
892.862	-0.34
893.032	-49.49
893.203	-24.92
893.374	34.47
893.545	73.39
893.716	38.57
893.887	13.99
894.057	30.38
894.228	-43.35
894.399	-31.06
894.57	54.95
894.74	13.99
894.911	91.82
895.082	-2.39
895.253	54.95
895.423	112.3
895.594	20.14
895.764	-2.39
895.935	9.9
896.106	9.9
896.276	-20.82
896.447	18.09
896.617	-0.34
896.788	130.73
896.958	-10.58
897.129	-6.49
897.299	7.85
897.47	22.19
897.64	42.67
897.81	3.75
897.981	73.39
898.151	-14.68
898.322	81.58
898.492	22.19
898.662	26.28
898.832	24.23
899.003	-2.39
899.173	38.57
899.343	26.28
899.513	-51.54
