Data from USB4F104151__216__14-21-13-871.txt Node

Date: Thu Mar 13 14:21:13 EDT 2025
User: louis
Spectrometer: USB4F10415
Trigger mode: 4
Integration Time (sec): 2.000000E-2
Scans to average: 1
Electric dark correction enabled: true
Nonlinearity correction enabled: false
Boxcar width: 0
XAxis mode: Wavelengths
Number of Pixels in Spectrum: 3648
>>>>>Begin Spectral Data<<<<<
178.204	-109.05
178.424	-109.05
178.644	-109.05
178.864	-150.01
179.084	-74.24
179.304	48.64
179.524	-41.47
179.744	-10.75
179.964	22.02
180.184	-2.56
180.404	3.58
180.624	5.63
180.844	11.78
181.064	-72.19
181.283	60.93
181.503	-53.76
181.723	28.16
181.943	13.82
182.163	103.93
182.383	11.78
182.602	140.8
182.822	46.59
183.042	-4.61
183.262	44.54
183.482	-16.9
183.701	28.16
183.921	69.12
184.141	22.02
184.361	120.32
184.58	46.59
184.8	5.63
185.02	52.74
185.239	85.5
185.459	30.21
185.679	73.21
185.898	36.35
186.118	22.02
186.338	81.41
186.557	95.74
186.777	-18.94
186.997	28.16
187.216	-4.61
187.436	65.02
187.655	60.93
187.875	60.93
188.095	3.58
188.314	30.21
188.534	40.45
188.753	-0.51
188.973	60.93
189.192	60.93
189.412	-0.51
189.631	103.93
189.851	11.78
190.07	40.45
190.29	36.35
190.509	73.21
190.729	-53.76
190.948	103.93
191.168	177.66
191.387	89.6
191.607	-8.7
191.826	69.12
192.045	-2.56
192.265	62.98
192.484	-16.9
192.704	93.69
192.923	87.55
193.142	134.65
193.362	73.21
193.581	130.56
193.8	50.69
194.02	71.17
194.239	130.56
194.458	56.83
194.678	48.64
194.897	79.36
195.116	-23.04
195.335	15.87
195.555	93.69
195.774	1.54
195.993	69.12
196.212	93.69
196.432	56.83
196.651	52.74
196.87	13.82
197.089	60.93
197.308	105.98
197.528	71.17
197.747	-37.38
197.966	75.26
198.185	126.46
198.404	60.93
198.623	48.64
198.842	60.93
199.062	65.02
199.281	101.89
199.5	-14.85
199.719	48.64
199.938	46.59
200.157	87.55
200.376	65.02
200.595	89.6
200.814	77.31
201.033	120.32
201.252	32.26
201.471	85.5
201.69	62.98
201.909	-25.09
202.128	13.82
202.347	60.93
202.566	118.27
202.785	19.97
203.004	-49.66
203.223	128.51
203.442	-16.9
203.661	44.54
203.879	44.54
204.098	62.98
204.317	-0.51
204.536	85.5
204.755	97.79
204.974	58.88
205.193	87.55
205.411	101.89
205.63	19.97
205.849	58.88
206.068	11.78
206.287	28.16
206.505	97.79
206.724	13.82
206.943	46.59
207.162	40.45
207.381	40.45
207.599	44.54
207.818	52.74
208.037	60.93
208.255	-16.9
208.474	28.16
208.693	32.26
208.911	69.12
209.13	81.41
209.349	28.16
209.567	60.93
209.786	114.17
210.005	56.83
210.223	40.45
210.442	62.98
210.661	28.16
210.879	46.59
211.098	48.64
211.316	85.5
211.535	46.59
211.753	42.5
211.972	60.93
212.191	-33.28
212.409	46.59
212.628	65.02
212.846	83.45
213.065	40.45
213.283	101.89
213.502	42.5
213.72	17.92
213.938	24.06
214.157	19.97
214.375	91.65
214.594	-25.09
214.812	36.35
215.031	44.54
215.249	36.35
215.467	79.36
215.686	50.69
215.904	85.5
216.122	11.78
216.341	-0.51
216.559	3.58
216.778	69.12
216.996	-16.9
217.214	5.63
217.432	-29.18
217.651	32.26
217.869	-18.94
218.087	19.97
218.306	-53.76
218.524	69.12
218.742	71.17
218.96	19.97
219.179	-0.51
219.397	87.55
219.615	-16.9
219.833	77.31
220.051	38.4
220.27	22.02
220.488	81.41
220.706	3.58
220.924	62.98
221.142	-12.8
221.36	50.69
221.578	97.79
221.796	79.36
222.015	44.54
222.233	-16.9
222.451	99.84
222.669	32.26
222.887	7.68
223.105	69.12
223.323	-10.75
223.541	17.92
223.759	24.06
223.977	52.74
224.195	50.69
224.413	54.78
224.631	77.31
224.849	65.02
225.067	118.27
225.285	81.41
225.503	22.02
225.721	-12.8
225.939	60.93
226.157	54.78
226.375	79.36
226.592	-20.99
226.81	19.97
227.028	108.03
227.246	103.93
227.464	28.16
227.682	40.45
227.9	95.74
228.117	93.69
228.335	32.26
228.553	60.93
228.771	58.88
228.989	30.21
229.206	32.26
229.424	19.97
229.642	28.16
229.86	77.31
230.077	69.12
230.295	54.78
230.513	58.88
230.731	52.74
230.948	142.85
231.166	77.31
231.384	34.3
231.601	26.11
231.819	128.51
232.037	-12.8
232.254	3.58
232.472	-16.9
232.689	69.12
232.907	112.13
233.125	95.74
233.342	85.5
233.56	-33.28
233.777	-16.9
233.995	5.63
234.213	65.02
234.43	126.46
234.648	54.78
234.865	36.35
235.083	65.02
235.3	65.02
235.518	134.65
235.735	71.17
235.953	120.32
236.17	28.16
236.388	42.5
236.605	7.68
236.822	62.98
237.04	60.93
237.257	15.87
237.475	-4.61
237.692	60.93
237.909	38.4
238.127	105.98
238.344	36.35
238.562	60.93
238.779	-39.42
238.996	44.54
239.214	79.36
239.431	77.31
239.648	32.26
239.865	-4.61
240.083	79.36
240.3	54.78
240.517	-20.99
240.735	44.54
240.952	79.36
241.169	48.64
241.386	93.69
241.603	13.82
241.821	40.45
242.038	15.87
242.255	97.79
242.472	13.82
242.689	71.17
242.907	75.26
243.124	40.45
243.341	48.64
243.558	30.21
243.775	56.83
243.992	9.73
244.209	30.21
244.426	60.93
244.643	95.74
244.86	62.98
245.078	58.88
245.295	60.93
245.512	83.45
245.729	15.87
245.946	28.16
246.163	44.54
246.38	-20.99
246.597	1.54
246.814	48.64
247.031	3.58
247.248	30.21
247.464	85.5
247.681	56.83
247.898	60.93
248.115	105.98
248.332	-18.94
248.549	81.41
248.766	159.23
248.983	56.83
249.2	95.74
249.417	60.93
249.633	132.61
249.85	95.74
250.067	32.26
250.284	32.26
250.501	73.21
250.717	99.84
250.934	1.54
251.151	34.3
251.368	19.97
251.585	60.93
251.801	103.93
252.018	54.78
252.235	34.3
252.451	36.35
252.668	3.58
252.885	52.74
253.102	9.73
253.318	40.45
253.535	28.16
253.752	32.26
253.968	52.74
254.185	30.21
254.401	13.82
254.618	60.93
254.835	-29.18
255.051	17.92
255.268	22.02
255.484	34.3
255.701	5.63
255.917	77.31
256.134	36.35
256.351	-10.75
256.567	24.06
256.784	28.16
257	11.78
257.217	79.36
257.433	38.4
257.65	101.89
257.866	126.46
258.082	36.35
258.299	34.3
258.515	56.83
258.732	75.26
258.948	-4.61
259.165	85.5
259.381	38.4
259.597	44.54
259.814	62.98
260.03	140.8
260.246	19.97
260.463	50.69
260.679	95.74
260.895	52.74
261.112	26.11
261.328	-10.75
261.544	91.65
261.761	132.61
261.977	30.21
262.193	97.79
262.409	130.56
262.626	69.12
262.842	30.21
263.058	11.78
263.274	13.82
263.49	-6.66
263.707	44.54
263.923	11.78
264.139	30.21
264.355	46.59
264.571	95.74
264.787	60.93
265.004	30.21
265.22	3.58
265.436	32.26
265.652	40.45
265.868	3.58
266.084	54.78
266.3	67.07
266.516	-20.99
266.732	142.85
266.948	60.93
267.164	22.02
267.38	118.27
267.596	1.54
267.812	142.85
268.028	52.74
268.244	11.78
268.46	52.74
268.676	46.59
268.892	146.94
269.108	-37.38
269.324	3.58
269.54	19.97
269.756	69.12
269.972	11.78
270.188	62.98
270.403	-29.18
270.619	126.46
270.835	101.89
271.051	52.74
271.267	54.78
271.483	-20.99
271.698	19.97
271.914	60.93
272.13	1.54
272.346	11.78
272.562	58.88
272.777	155.13
272.993	42.5
273.209	73.21
273.425	48.64
273.64	-12.8
273.856	54.78
274.072	22.02
274.287	40.45
274.503	-12.8
274.719	40.45
274.934	-25.09
275.15	22.02
275.366	103.93
275.581	30.21
275.797	19.97
276.012	79.36
276.228	40.45
276.444	52.74
276.659	101.89
276.875	-18.94
277.09	-4.61
277.306	44.54
277.521	93.69
277.737	24.06
277.952	110.08
278.168	130.56
278.383	52.74
278.599	85.5
278.814	81.41
279.03	-8.7
279.245	22.02
279.461	69.12
279.676	36.35
279.892	11.78
280.107	38.4
280.322	77.31
280.538	3.58
280.753	-12.8
280.969	60.93
281.184	93.69
281.399	38.4
281.615	9.73
281.83	77.31
282.045	28.16
282.26	77.31
282.476	83.45
282.691	110.08
282.906	89.6
283.122	15.87
283.337	40.45
283.552	95.74
283.767	73.21
283.983	32.26
284.198	-4.61
284.413	52.74
284.628	-84.48
284.843	42.5
285.058	40.45
285.274	36.35
285.489	-8.7
285.704	56.83
285.919	11.78
286.134	19.97
286.349	36.35
286.564	93.69
286.779	46.59
286.995	97.79
287.21	38.4
287.425	32.26
287.64	-20.99
287.855	73.21
288.07	-4.61
288.285	69.12
288.5	97.79
288.715	114.17
288.93	60.93
289.145	60.93
289.36	73.21
289.575	-55.81
289.79	7.68
290.004	11.78
290.219	11.78
290.434	67.07
290.649	-53.76
290.864	73.21
291.079	81.41
291.294	52.74
291.509	-16.9
291.724	103.93
291.938	28.16
292.153	15.87
292.368	5.63
292.583	52.74
292.798	81.41
293.012	81.41
293.227	48.64
293.442	48.64
293.657	138.75
293.871	81.41
294.086	-2.56
294.301	97.79
294.516	108.03
294.73	52.74
294.945	36.35
295.16	-37.38
295.374	50.69
295.589	71.17
295.804	13.82
296.018	38.4
296.233	110.08
296.447	71.17
296.662	69.12
296.877	52.74
297.091	69.12
297.306	38.4
297.52	9.73
297.735	73.21
297.949	122.37
298.164	95.74
298.378	65.02
298.593	38.4
298.807	-78.33
299.022	-29.18
299.236	3.58
299.451	22.02
299.665	30.21
299.88	-29.18
300.094	1.54
300.309	46.59
300.523	97.79
300.737	36.35
300.952	22.02
301.166	56.83
301.381	40.45
301.595	65.02
301.809	32.26
302.024	79.36
302.238	22.02
302.452	126.46
302.667	89.6
302.881	95.74
303.095	79.36
303.309	89.6
303.524	3.58
303.738	19.97
303.952	93.69
304.166	44.54
304.381	-35.33
304.595	77.31
304.809	44.54
305.023	140.8
305.237	146.94
305.452	105.98
305.666	46.59
305.88	97.79
306.094	126.46
306.308	-27.14
306.522	79.36
306.736	108.03
306.95	77.31
307.164	91.65
307.379	11.78
307.593	144.89
307.807	65.02
308.021	62.98
308.235	36.35
308.449	7.68
308.663	-4.61
308.877	11.78
309.091	85.5
309.305	22.02
309.519	-84.48
309.733	71.17
309.947	40.45
310.161	114.17
310.374	116.22
310.588	30.21
310.802	22.02
311.016	-41.47
311.23	81.41
311.444	-27.14
311.658	118.27
311.872	97.79
312.085	103.93
312.299	81.41
312.513	52.74
312.727	15.87
312.941	-10.75
313.154	79.36
313.368	114.17
313.582	13.82
313.796	-0.51
314.009	87.55
314.223	26.11
314.437	44.54
314.651	7.68
314.864	56.83
315.078	-10.75
315.292	19.97
315.505	38.4
315.719	69.12
315.933	44.54
316.146	105.98
316.36	42.5
316.573	73.21
316.787	54.78
317.001	-27.14
317.214	56.83
317.428	50.69
317.641	56.83
317.855	93.69
318.068	54.78
318.282	24.06
318.495	101.89
318.709	34.3
318.922	65.02
319.136	118.27
319.349	114.17
319.563	42.5
319.776	65.02
319.99	15.87
320.203	116.22
320.417	83.45
320.63	77.31
320.843	110.08
321.057	75.26
321.27	110.08
321.483	-12.8
321.697	69.12
321.91	52.74
322.124	56.83
322.337	32.26
322.55	22.02
322.763	52.74
322.977	52.74
323.19	54.78
323.403	-18.94
323.617	73.21
323.83	13.82
324.043	54.78
324.256	103.93
324.469	13.82
324.683	95.74
324.896	112.13
325.109	101.89
325.322	-29.18
325.535	110.08
325.748	60.93
325.962	87.55
326.175	87.55
326.388	81.41
326.601	97.79
326.814	95.74
327.027	62.98
327.24	99.84
327.453	26.11
327.666	52.74
327.879	75.26
328.092	54.78
328.305	81.41
328.518	28.16
328.731	44.54
328.944	24.06
329.157	60.93
329.37	50.69
329.583	38.4
329.796	118.27
330.009	34.3
330.222	46.59
330.435	56.83
330.648	52.74
330.861	28.16
331.073	87.55
331.286	95.74
331.499	77.31
331.712	112.13
331.925	95.74
332.138	-45.57
332.35	110.08
332.563	-0.51
332.776	65.02
332.989	44.54
333.202	60.93
333.414	44.54
333.627	-27.14
333.84	48.64
334.053	69.12
334.265	62.98
334.478	13.82
334.691	3.58
334.903	97.79
335.116	52.74
335.329	110.08
335.541	120.32
335.754	83.45
335.966	34.3
336.179	54.78
336.392	93.69
336.604	-12.8
336.817	30.21
337.029	95.74
337.242	77.31
337.454	128.51
337.667	44.54
337.88	206.33
338.092	42.5
338.305	62.98
338.517	-16.9
338.729	73.21
338.942	132.61
339.154	60.93
339.367	69.12
339.579	19.97
339.792	-0.51
340.004	126.46
340.217	-12.8
340.429	26.11
340.641	5.63
340.854	-4.61
341.066	30.21
341.278	52.74
341.491	83.45
341.703	3.58
341.915	50.69
342.128	79.36
342.34	1.54
342.552	83.45
342.764	52.74
342.977	48.64
343.189	62.98
343.401	11.78
343.613	-12.8
343.826	93.69
344.038	32.26
344.25	97.79
344.462	38.4
344.674	38.4
344.886	19.97
345.099	87.55
345.311	-16.9
345.523	77.31
345.735	112.13
345.947	112.13
346.159	58.88
346.371	22.02
346.583	54.78
346.795	159.23
347.007	3.58
347.219	44.54
347.431	99.84
347.643	101.89
347.855	19.97
348.067	118.27
348.279	52.74
348.491	79.36
348.703	97.79
348.915	19.97
349.127	36.35
349.339	40.45
349.551	30.21
349.763	56.83
349.975	28.16
350.187	67.07
350.399	9.73
350.61	46.59
350.822	67.07
351.034	50.69
351.246	46.59
351.458	85.5
351.669	60.93
351.881	3.58
352.093	99.84
352.305	77.31
352.517	11.78
352.728	77.31
352.94	58.88
353.152	105.98
353.363	22.02
353.575	103.93
353.787	75.26
353.999	30.21
354.21	93.69
354.422	19.97
354.633	112.13
354.845	67.07
355.057	81.41
355.268	114.17
355.48	77.31
355.692	50.69
355.903	32.26
356.115	87.55
356.326	-29.18
356.538	91.65
356.749	124.41
356.961	142.85
357.172	60.93
357.384	22.02
357.595	67.07
357.807	19.97
358.018	65.02
358.23	19.97
358.441	77.31
358.653	75.26
358.864	-51.71
359.075	38.4
359.287	5.63
359.498	60.93
359.709	48.64
359.921	11.78
360.132	93.69
360.344	93.69
360.555	91.65
360.766	42.5
360.977	15.87
361.189	77.31
361.4	32.26
361.611	85.5
361.823	105.98
362.034	69.12
362.245	69.12
362.456	93.69
362.667	48.64
362.879	19.97
363.09	75.26
363.301	79.36
363.512	81.41
363.723	40.45
363.935	71.17
364.146	85.5
364.357	81.41
364.568	101.89
364.779	54.78
364.99	73.21
365.201	28.16
365.412	97.79
365.623	7.68
365.834	44.54
366.045	36.35
366.256	120.32
366.467	112.13
366.678	52.74
366.889	105.98
367.1	32.26
367.311	105.98
367.522	54.78
367.733	159.23
367.944	-29.18
368.155	81.41
368.366	101.89
368.577	48.64
368.788	52.74
368.999	9.73
369.209	11.78
369.42	73.21
369.631	142.85
369.842	42.5
370.053	36.35
370.264	65.02
370.474	114.17
370.685	85.5
370.896	11.78
371.107	54.78
371.317	52.74
371.528	87.55
371.739	128.51
371.95	87.55
372.16	17.92
372.371	22.02
372.582	77.31
372.792	52.74
373.003	22.02
373.214	112.13
373.424	62.98
373.635	60.93
373.846	118.27
374.056	101.89
374.267	148.99
374.477	140.8
374.688	71.17
374.898	28.16
375.109	36.35
375.319	75.26
375.53	153.09
375.74	97.79
375.951	38.4
376.161	60.93
376.372	108.03
376.582	110.08
376.793	120.32
377.003	-29.18
377.214	-10.75
377.424	11.78
377.635	1.54
377.845	40.45
378.055	128.51
378.266	65.02
378.476	79.36
378.686	44.54
378.897	105.98
379.107	114.17
379.317	101.89
379.528	65.02
379.738	85.5
379.948	69.12
380.158	62.98
380.369	40.45
380.579	105.98
380.789	15.87
380.999	56.83
381.21	71.17
381.42	110.08
381.63	44.54
381.84	105.98
382.05	1.54
382.261	134.65
382.471	89.6
382.681	118.27
382.891	161.28
383.101	103.93
383.311	5.63
383.521	110.08
383.731	110.08
383.941	69.12
384.151	52.74
384.361	58.88
384.571	73.21
384.781	118.27
384.991	112.13
385.201	67.07
385.411	52.74
385.621	44.54
385.831	65.02
386.041	81.41
386.251	44.54
386.461	67.07
386.671	77.31
386.881	136.7
387.091	7.68
387.301	83.45
387.511	44.54
387.72	146.94
387.93	153.09
388.14	52.74
388.35	89.6
388.56	142.85
388.769	89.6
388.979	60.93
389.189	79.36
389.399	87.55
389.609	95.74
389.818	138.75
390.028	46.59
390.238	97.79
390.447	30.21
390.657	97.79
390.867	118.27
391.076	15.87
391.286	73.21
391.496	116.22
391.705	56.83
391.915	122.37
392.125	95.74
392.334	71.17
392.544	128.51
392.753	161.28
392.963	65.02
393.172	124.41
393.382	118.27
393.591	153.09
393.801	110.08
394.01	128.51
394.22	159.23
394.429	87.55
394.639	128.51
394.848	132.61
395.058	89.6
395.267	30.21
395.477	103.93
395.686	134.65
395.895	175.61
396.105	136.7
396.314	116.22
396.524	169.47
396.733	122.37
396.942	134.65
397.152	69.12
397.361	144.89
397.57	101.89
397.78	155.13
397.989	110.08
398.198	198.14
398.407	146.94
398.617	175.61
398.826	69.12
399.035	114.17
399.244	140.8
399.453	128.51
399.663	159.23
399.872	77.31
400.081	110.08
400.29	151.04
400.499	134.65
400.708	110.08
400.917	171.52
401.127	192
401.336	71.17
401.545	91.65
401.754	187.9
401.963	110.08
402.172	101.89
402.381	136.7
402.59	81.41
402.799	128.51
403.008	169.47
403.217	187.9
403.426	155.13
403.635	181.76
403.844	153.09
404.053	232.96
404.262	175.61
404.471	232.96
404.68	208.38
404.888	220.67
405.097	136.7
405.306	167.42
405.515	183.81
405.724	210.43
405.933	175.61
406.142	228.86
406.35	216.57
406.559	159.23
406.768	214.52
406.977	200.19
407.185	208.38
407.394	261.63
407.603	208.38
407.812	314.88
408.02	249.34
408.229	267.77
408.438	241.15
408.646	316.92
408.855	304.64
409.064	298.49
409.272	337.4
409.481	380.41
409.69	321.02
409.898	257.53
410.107	402.94
410.315	447.99
410.524	343.55
410.733	423.42
410.941	409.08
411.15	415.23
411.358	536.06
411.567	511.48
411.775	470.52
411.984	486.9
412.192	568.82
412.401	521.72
412.609	525.82
412.818	591.35
413.026	617.97
413.234	585.21
413.443	638.45
413.651	628.21
413.86	634.36
414.068	722.42
414.276	747
414.485	740.85
414.693	726.52
414.901	800.24
415.11	835.06
415.318	814.58
415.526	814.58
415.734	970.23
415.943	1000.94
416.151	871.92
416.359	941.55
416.567	1041.9
416.776	1035.76
416.984	1187.31
417.192	1152.49
417.4	1224.17
417.608	1119.73
417.817	1250.8
418.025	1269.23
418.233	1443.31
418.441	1297.9
418.649	1402.35
418.857	1510.89
419.065	1576.42
419.273	1508.84
419.481	1637.86
419.689	1684.97
419.897	1801.7
420.105	1762.79
420.313	1920.48
420.521	2002.4
420.729	1895.91
420.937	1994.21
421.145	2076.13
421.353	2215.39
421.561	2141.66
421.769	2346.46
421.977	2459.1
422.185	2475.48
422.393	2624.98
422.601	2862.55
422.809	2653.66
423.017	2829.78
423.224	2911.7
423.432	3014.1
423.64	2964.95
423.848	3153.36
424.056	3157.46
424.263	3268.05
424.471	3368.4
424.679	3409.36
424.887	3601.87
425.094	3816.9
425.302	3665.35
425.51	3808.71
425.718	3978.69
425.925	3993.03
426.133	4169.15
426.341	4355.52
426.548	4646.33
426.756	4586.94
426.964	4722.1
427.171	4885.94
427.379	4976.05
427.586	5119.41
427.794	5254.58
428.001	5506.48
428.209	5815.72
428.417	5508.52
428.624	5995.94
428.832	6174.11
429.039	6215.07
429.247	6106.53
429.454	6682.01
429.662	6913.43
429.869	6643.1
430.076	6991.25
430.284	6892.95
430.491	7130.52
430.699	7527.82
430.906	7673.23
431.114	7843.21
431.321	8015.24
431.528	7953.8
431.736	8613.24
431.943	8953.21
432.15	8693.12
432.358	8945.02
432.565	9282.93
432.772	9153.91
432.979	9901.42
433.187	9993.58
433.394	10048.87
433.601	10671.45
433.808	10923.35
434.016	10718.56
434.223	11072.86
434.43	11783.5
434.637	11474.26
434.844	12303.68
435.052	12449.09
435.259	12254.53
435.466	12367.17
435.673	12389.7
435.88	13083.96
436.087	13946.16
436.294	13667.63
436.501	13421.88
436.708	13907.24
436.915	14212.39
437.122	14972.19
437.329	15084.83
437.537	15584.53
437.743	15496.47
437.95	15346.97
438.157	16315.66
438.364	16979.2
438.571	16895.23
438.778	16993.53
438.985	18357.48
439.192	17695.99
439.399	18269.42
439.606	17933.55
439.813	19084.51
440.02	20018.38
440.227	19639.51
440.433	19430.62
440.64	20145.36
440.847	19999.95
441.054	20405.45
441.261	21959.86
441.467	21609.65
441.674	22115.5
441.881	22975.65
442.088	22328.49
442.294	22568.1
442.501	23028.9
442.708	23567.51
442.914	24368.27
443.121	25547.9
443.328	24489.1
443.534	26174.58
443.741	25945.2
443.948	25316.48
444.154	27149.41
444.361	26924.13
444.568	26926.18
444.774	27055.2
444.981	27444.32
445.187	28343.38
445.394	29760.57
445.6	29293.63
445.807	32111.64
446.013	30528.56
446.22	31208.48
446.426	32160.79
446.633	32504.85
446.839	33657.85
447.046	31976.47
447.252	33999.87
447.459	34292.72
447.665	33803.26
447.871	35492.83
448.078	36496.34
448.284	35281.89
448.491	36346.84
448.697	37252.04
448.903	38063.04
449.11	38564.79
449.316	37696.45
449.522	38249.4
449.728	39338.92
449.935	39672.74
450.141	39572.39
450.347	40561.56
450.553	39345.06
450.76	39848.86
450.966	40860.56
451.172	40696.72
451.378	41233.29
451.584	40844.18
451.791	41747.33
451.997	41823.11
452.203	42228.6
452.409	42521.46
452.615	42204.03
452.821	40899.47
453.027	40344.47
453.233	42517.37
453.44	40244.12
453.646	40688.53
453.852	41186.19
454.058	42048.38
454.264	40262.55
454.47	41472.9
454.676	40530.84
454.882	41700.23
455.088	37960.64
455.294	38775.73
455.5	39476.13
455.705	39932.83
455.911	38044.6
456.117	37051.34
456.323	36899.79
456.529	35228.65
456.735	36545.49
456.941	35720.16
457.147	35179.5
457.352	34245.62
457.558	33537.02
457.764	33528.83
457.97	33246.21
458.176	32504.85
458.381	32703.5
458.587	30759.98
458.793	30852.14
458.999	29480
459.204	31720.48
459.41	30417.97
459.616	28638.28
459.821	28570.7
460.027	28546.12
460.233	27815
460.438	26565.74
460.644	26842.21
460.85	25572.47
461.055	25367.68
461.261	25390.2
461.466	23420.06
461.672	22500.52
461.878	24415.37
462.083	22637.73
462.289	22123.69
462.494	22086.83
462.7	21046.46
462.905	20530.37
463.111	21112
463.316	21408.95
463.522	20808.9
463.727	20735.17
463.932	20952.26
464.138	20640.97
464.343	20745.41
464.549	20182.22
464.754	20794.56
464.959	20638.92
465.165	20315.34
465.37	19567.83
465.575	18961.63
465.781	19842.26
465.986	19940.56
466.191	19346.65
466.397	18973.92
466.602	17841.39
466.807	18742.5
467.012	18615.52
467.218	18674.92
467.423	18291.94
467.628	18648.29
467.833	19176.67
468.038	18420.97
468.244	18068.72
468.449	18699.49
468.654	18263.27
468.859	18058.48
469.064	17798.38
469.269	17267.96
469.474	17419.51
469.679	17710.32
469.885	17220.86
470.09	17249.53
470.295	17239.29
470.5	16833.79
470.705	17075.45
470.91	16442.63
471.115	16563.46
471.32	16874.75
471.525	16479.49
471.73	16299.27
471.935	16071.95
472.139	15625.49
472.344	15805.71
472.549	15580.43
472.754	15492.37
472.959	14900.51
473.164	14652.7
473.369	14646.56
473.574	15193.37
473.778	14970.14
473.983	14859.55
474.188	14777.63
474.393	14155.05
474.598	14044.46
474.802	14011.69
475.007	13958.44
475.212	14060.84
475.417	13471.03
475.621	13487.41
475.826	13727.02
476.031	13409.59
476.235	12983.61
476.44	13342
476.645	12973.37
476.849	13012.28
477.054	12928.31
477.259	12838.2
477.463	12559.68
477.668	12311.88
477.872	12490.05
478.077	12162.37
478.282	11947.34
478.486	11793.74
478.691	11758.92
478.895	11883.85
479.1	11853.13
479.304	11523.41
479.509	11320.66
479.713	11566.42
479.918	11283.8
480.122	11140.44
480.326	11267.41
480.531	11347.28
480.735	11373.91
480.94	11023.7
481.144	11572.56
481.348	11119.96
481.553	11242.84
481.757	11003.22
481.961	11083.09
482.166	11173.21
482.37	10917.21
482.574	11003.22
482.778	10995.03
482.983	11013.46
483.187	11013.46
483.391	11132.25
483.595	10945.88
483.8	10845.53
484.004	10898.78
484.208	11095.38
484.412	10804.57
484.616	10835.29
484.821	10786.14
485.025	10741.08
485.229	10868.06
485.433	10898.78
485.637	10962.26
485.841	10786.14
486.045	10718.56
486.249	10919.26
486.453	10755.42
486.657	10820.95
486.861	10800.48
487.065	10763.61
487.269	10874.2
487.473	10704.22
487.677	11117.91
487.881	11228.5
488.085	10925.4
488.289	11177.3
488.493	11081.05
488.697	11017.56
488.901	11029.85
489.105	10792.28
489.309	11142.49
489.512	11251.03
489.716	11162.97
489.92	11171.16
490.124	11179.35
490.328	11097.43
490.531	11193.69
490.735	11226.45
490.939	11400.53
491.143	11113.81
491.346	11355.47
491.55	11242.84
491.754	11382.1
491.958	11439.44
492.161	11246.93
492.365	11523.41
492.569	11685.2
492.772	11541.84
492.976	11660.62
493.18	11808.08
493.383	11779.4
493.587	11720.01
493.79	12019.02
493.994	11933
494.197	11836.75
494.401	11992.39
494.605	12039.5
494.808	12352.84
495.012	12358.98
495.215	12361.03
495.419	12381.51
495.622	12422.47
495.825	12772.67
496.029	12698.94
496.232	13047.1
496.436	12926.27
496.639	13290.81
496.843	13159.74
497.046	13438.26
497.249	13423.92
497.453	13692.21
497.656	13724.97
497.859	13835.56
498.063	13874.48
498.266	14339.37
498.469	14181.67
498.673	14456.1
498.876	14505.25
499.079	14716.19
499.282	14800.16
499.485	15170.84
499.689	15203.61
499.892	15023.39
500.095	15336.73
500.298	15772.94
500.501	15641.87
500.705	15969.55
500.908	16250.12
501.111	16162.06
501.314	16305.42
501.517	16530.69
501.72	16710.91
501.923	16555.27
502.126	17306.87
502.329	17575.16
502.532	17538.29
502.735	17188.09
502.938	17870.06
503.141	17698.03
503.344	18205.93
503.547	18205.93
503.75	18707.68
503.953	18924.77
504.156	19002.59
504.359	19016.93
504.562	19320.03
504.765	19930.32
504.968	19868.88
505.17	20018.38
505.373	19903.7
505.576	20567.24
505.779	20366.54
505.982	20823.23
506.185	20976.83
506.387	21146.81
506.59	21302.46
506.793	21957.81
506.996	21894.32
507.198	22236.33
507.401	22070.45
507.604	22432.94
507.807	23067.81
508.009	22959.27
508.212	23026.85
508.415	23461.02
508.617	23841.94
508.82	24016.02
509.022	23557.27
509.225	24304.78
509.428	24448.14
509.63	24792.2
509.833	24749.19
510.035	25334.91
510.238	25666.68
510.44	25525.37
510.643	25640.06
510.845	26313.84
511.048	26231.92
511.25	26473.58
511.453	27006.05
511.655	27939.93
511.858	26993.76
512.06	27444.32
512.262	27675.74
512.465	27896.92
512.667	28331.09
512.87	28597.32
513.072	28429.39
513.274	29463.61
513.477	29492.29
513.679	29666.36
513.881	30037.05
514.084	30133.3
514.286	30252.08
514.488	30639.15
514.69	31448.1
514.893	31169.57
515.095	31282.21
515.297	32066.58
515.499	31833.11
515.701	32199.7
515.904	32695.31
516.106	32783.37
516.308	33143.81
516.51	33506.3
516.712	33281.03
516.914	34036.73
517.116	34196.47
517.318	34100.22
517.52	34542.58
517.722	34657.26
517.925	34900.97
518.127	35804.13
518.329	35896.28
518.531	35826.65
518.733	36266.97
518.935	36668.37
519.136	36361.17
519.338	37698.5
519.54	37069.77
519.742	37559.23
519.944	37831.61
520.146	38339.51
520.348	38429.62
520.55	38423.48
520.752	38699.95
520.954	39148.46
521.155	38898.61
521.357	39787.42
521.559	40338.33
521.761	40237.98
521.963	40602.52
522.164	40821.65
522.366	40502.17
522.568	40960.91
522.77	41362.31
522.971	42097.53
523.173	41616.26
523.375	42115.97
523.576	42226.56
523.778	42003.33
523.98	42400.63
524.181	42802.03
524.383	43228.01
524.584	43316.08
524.786	43254.64
524.988	43111.28
525.189	43881.31
525.391	44442.46
525.592	44340.06
525.794	44632.92
525.995	44546.9
526.197	44850
526.398	44630.87
526.6	45151.06
526.801	45321.04
527.003	45169.49
527.204	45554.5
527.406	45884.23
527.607	46058.31
527.808	46207.81
528.01	45493.07
528.211	45560.65
528.412	46596.92
528.614	46062.4
528.815	46719.8
529.016	46492.47
529.218	46349.12
529.419	46453.56
529.62	46271.29
529.822	46713.66
530.023	46480.19
530.224	46711.61
530.425	46799.67
530.626	46267.2
530.828	46752.57
531.029	47651.62
531.23	47158.06
531.431	47174.45
531.632	47618.86
531.833	47717.16
532.035	47258.41
532.236	47409.96
532.437	47878.95
532.638	47592.23
532.839	48012.07
533.04	47829.8
533.241	47125.3
533.442	48247.58
533.643	47444.78
533.844	47141.68
534.045	48216.86
534.246	47360.81
534.447	48071.46
534.648	47833.89
534.849	47981.35
535.05	47653.67
535.251	47336.24
535.451	47665.96
535.652	47835.94
535.853	47711.02
536.054	47725.35
536.255	47471.4
536.456	47733.54
536.657	48427.81
536.857	47553.32
537.058	47803.17
537.259	48071.46
537.46	47653.67
537.66	47639.34
537.861	48044.83
538.062	47321.9
538.263	47881
538.463	47768.36
538.664	48005.92
538.865	47817.51
539.065	48079.65
539.266	47246.13
539.466	47883.05
539.667	47414.06
539.868	48231.2
540.068	47737.64
540.269	47860.52
540.469	48020.26
540.67	47547.18
540.87	48134.95
541.071	47569.71
541.271	47889.19
541.472	47557.42
541.672	47297.33
541.873	47317.81
542.073	47495.98
542.274	48177.95
542.474	47364.91
542.675	47438.64
542.875	48012.07
543.075	47717.16
543.276	47260.46
543.476	47762.22
543.676	47426.35
543.877	47532.84
544.077	47500.08
544.277	47336.24
544.478	47485.74
544.678	47555.37
544.878	47502.12
545.078	47635.24
545.279	47297.33
545.479	47188.78
545.679	47858.47
545.879	47201.07
546.079	47268.65
546.28	47475.5
546.48	47092.53
546.68	47389.48
546.88	47168.3
547.08	47434.54
547.28	47551.27
547.48	47315.76
547.68	46932.79
547.88	46820.15
548.081	47645.48
548.281	47264.56
548.481	46965.56
548.681	47444.78
548.881	47113.01
549.081	46707.51
549.28	47160.11
549.48	47047.47
549.68	46967.6
549.88	47807.27
550.08	47113.01
550.28	47407.92
550.48	47319.85
550.68	47373.1
550.88	46799.67
551.08	47131.44
551.279	46750.52
551.479	46471.99
551.679	46248.77
551.879	46588.73
552.079	46717.75
552.278	46814.01
552.478	46725.94
552.678	46766.9
552.878	46965.56
553.077	46658.36
553.277	46428.99
553.477	47280.94
553.676	46670.65
553.876	46693.18
554.076	46678.84
554.275	46904.12
554.475	46107.46
554.674	46787.38
554.874	46719.8
555.074	46398.27
555.273	46713.66
555.473	46969.65
555.672	46154.56
555.872	45937.48
556.071	46482.23
556.271	46517.05
556.47	46209.85
556.67	45914.95
556.869	46246.72
557.068	46050.11
557.268	45933.38
557.467	46019.39
557.667	46060.35
557.866	46162.75
558.065	45830.98
558.265	45452.11
558.464	45773.64
558.663	45980.48
558.863	45366.09
559.062	46142.27
559.261	45077.33
559.461	46203.71
559.66	45548.36
559.859	45388.62
560.058	45640.52
560.258	45996.87
560.457	44878.68
560.656	45218.64
560.855	45212.49
561.054	45699.91
561.253	45056.85
561.453	44981.07
561.652	45169.49
561.851	44950.35
562.05	45183.82
562.249	44956.5
562.448	45198.16
562.647	45071.18
562.846	44684.12
563.045	44850
563.244	44540.76
563.443	44921.68
563.642	44225.37
563.841	44438.36
564.04	44120.93
564.239	44548.95
564.438	44391.26
564.637	44614.49
564.836	44407.64
565.035	43666.28
565.234	44284.76
565.432	44045.15
565.631	44186.46
565.83	44030.82
566.029	43260.78
566.228	43346.79
566.427	43809.64
566.625	43252.59
566.824	43369.32
567.023	43774.82
567.222	42560.37
567.42	43467.62
567.619	43514.73
567.818	43164.53
568.016	42849.14
568.215	43436.91
568.414	42556.28
568.612	43438.95
568.811	42793.84
569.01	42750.84
569.208	42140.54
569.407	42818.42
569.605	42660.73
569.804	43215.72
570.002	42011.52
570.201	42617.72
570.4	42167.16
570.598	42128.25
570.797	41974.66
570.995	41833.35
571.193	41548.68
571.392	42025.85
571.59	41425.8
571.789	41878.4
571.987	41610.12
572.186	41577.35
572.384	40987.53
572.582	41577.35
572.781	41425.8
572.979	40827.79
573.177	41239.43
573.376	41218.96
573.574	40829.84
573.772	40725.39
573.971	40356.76
574.169	40381.34
574.367	40352.66
574.565	40977.29
574.763	40391.58
574.962	40358.81
575.16	39936.93
575.358	40115.1
575.556	39572.39
575.754	40500.12
575.952	39820.19
576.151	39910.3
576.349	39502.76
576.547	39693.22
576.745	39639.97
576.943	39463.85
577.141	39408.55
577.339	39168.94
577.537	39109.55
577.735	39328.68
577.933	38943.66
578.131	39207.85
578.329	38921.13
578.527	38427.57
578.725	38929.33
578.923	38982.57
579.121	38534.07
579.319	38517.68
579.516	38800.3
579.714	38669.23
579.912	37862.33
580.11	37825.47
580.308	38040.51
580.506	37739.46
580.704	37524.42
580.901	37766.08
581.099	37997.5
581.297	37221.32
581.495	37344.2
581.692	37520.32
581.89	37239.75
582.088	37370.82
582.285	37159.88
582.483	37424.07
582.681	37299.14
582.878	36856.78
583.076	36451.28
583.274	37299.14
583.471	36363.22
583.669	36635.6
583.866	36301.78
584.064	36608.98
584.262	35838.94
584.459	36183
584.657	35957.72
584.854	36131.8
585.052	35660.77
585.249	35941.34
585.447	35920.86
585.644	35601.38
585.841	35888.09
586.039	35628
586.236	35464.16
586.434	35177.45
586.631	35116.01
586.828	35458.02
587.026	35109.86
587.223	34755.57
587.42	34710.51
587.618	34937.83
587.815	34765.81
588.012	34661.36
588.21	34530.29
588.407	34769.9
588.604	34431.99
588.801	33946.62
588.999	34350.07
589.196	34225.14
589.393	34137.08
589.59	34132.98
589.787	33924.09
589.984	33577.98
590.182	33631.23
590.379	33709.05
590.576	33428.48
590.773	33567.74
590.97	33068.04
591.167	33154.05
591.364	33049.61
591.561	33037.32
591.758	32975.88
591.955	32918.54
592.152	32840.71
592.349	32275.48
592.546	32660.49
592.743	32605.2
592.94	32023.58
593.137	32367.63
593.334	32410.64
593.531	32087.06
593.727	32130.07
593.924	32044.06
594.121	32035.86
594.318	31824.92
594.515	31607.84
594.712	31884.31
594.908	31286.31
595.105	31636.51
595.302	31331.36
595.499	31335.46
595.696	31220.77
595.892	30991.4
596.089	31190.05
596.286	31079.46
596.482	30921.77
596.679	30460.98
596.876	30932.01
597.072	30731.31
597.269	30440.5
597.466	30438.45
597.662	30282.8
597.859	30342.19
598.055	30211.12
598.252	29924.41
598.448	30094.39
598.645	30178.36
598.841	29756.47
599.038	29758.52
599.234	29828.15
599.431	29561.92
599.627	29314.11
599.824	29537.34
600.02	29383.74
600.217	29248.58
600.413	29174.85
600.609	29068.36
600.806	28724.3
601.002	29054.02
601.198	28607.56
601.395	29037.64
601.591	28499.02
601.787	28771.4
601.984	28378.19
602.18	28669
602.376	28249.17
602.572	28339.28
602.769	28120.15
602.965	27759.7
603.161	28001.36
603.357	27851.86
603.553	27692.12
603.75	27806.81
603.946	27522.14
604.142	27679.83
604.338	27487.32
604.534	27647.07
604.73	27255.9
604.926	27350.11
605.122	27669.59
605.318	27159.65
605.514	26971.24
605.71	27040.87
605.906	26975.33
606.102	26983.52
606.298	26948.71
606.494	26979.43
606.69	26846.31
606.886	26414.19
607.082	26485.87
607.278	26944.61
607.474	26287.21
607.67	26524.78
607.866	26373.23
608.062	26465.39
608.257	26360.94
608.453	26008.69
608.649	26238.06
608.845	25824.37
609.041	26428.52
609.236	25984.12
609.432	26070.13
609.628	25820.28
609.824	25930.87
610.019	25764.98
610.215	25572.47
610.411	25672.82
610.606	25468.03
610.802	25543.8
610.998	25560.19
611.193	25578.62
611.389	25496.7
611.584	25232.51
611.78	25367.68
611.976	25246.85
612.171	25076.87
612.367	25332.86
612.562	24638.6
612.758	24540.3
612.953	24566.92
613.149	25033.86
613.344	24534.15
613.539	25248.89
613.735	24888.45
613.93	24824.97
614.126	25156.74
614.321	24794.25
614.517	24890.5
614.712	24620.17
614.907	24308.88
615.103	24628.36
615.298	24345.74
615.493	24763.53
615.688	24091.79
615.884	24456.33
616.079	24190.09
616.274	24071.31
616.47	24194.19
616.665	24257.68
616.86	24130.7
617.055	24091.79
617.25	24128.66
617.445	23878.8
617.641	23385.24
617.836	24118.42
618.031	23551.13
618.226	23995.54
618.421	23585.94
618.616	23903.38
618.811	23432.35
619.006	23776.41
619.201	22789.28
619.396	23405.72
619.591	22699.17
619.786	23012.51
619.981	22858.92
620.176	22889.63
620.371	22846.63
620.566	22959.27
620.761	22699.17
620.956	22762.66
621.151	22234.28
621.346	22361.26
621.541	21980.34
621.735	22238.38
621.93	21793.97
622.125	21980.34
622.32	21828.79
622.515	21609.65
622.709	21607.61
622.904	21701.81
623.099	21494.97
623.294	21468.34
623.488	21122.24
623.683	21220.54
623.878	20679.88
624.072	20772.04
624.267	20755.65
624.462	20600.01
624.656	20350.15
624.851	20344.01
625.046	20221.13
625.24	20278.47
625.435	20176.08
625.629	19866.83
625.824	19758.29
626.018	19930.32
626.213	19629.27
626.407	19440.86
626.602	19295.45
626.796	19502.29
626.991	19459.29
627.185	19033.31
627.38	18988.25
627.574	18904.29
627.768	18808.03
627.963	18869.47
628.157	18377.96
628.352	18697.44
628.546	18349.29
628.74	18535.65
628.935	18390.25
629.129	18181.35
629.323	18060.52
629.517	18017.52
629.712	18001.13
629.906	17734.9
630.1	17788.14
630.294	17886.45
630.489	17491.19
630.683	17460.47
630.877	17274.1
631.071	17212.67
631.265	17349.88
631.459	17175.8
631.653	17163.51
631.848	16604.42
632.042	16801.02
632.236	17091.84
632.43	16696.58
632.624	16540.93
632.818	16485.64
633.012	16579.84
633.206	16286.98
633.4	16162.06
633.594	16137.48
633.788	16272.65
633.982	16012.56
634.176	15895.82
634.369	15994.12
634.563	15805.71
634.757	15572.24
634.951	15897.87
635.145	15531.28
635.339	15543.57
635.533	15330.58
635.726	15467.8
635.92	15150.36
636.114	15211.8
636.308	14957.85
636.501	15068.44
636.695	15142.17
636.889	14820.64
637.083	14732.58
637.276	14562.59
637.47	14697.76
637.664	14658.85
637.857	14546.21
638.051	14196.01
638.244	14325.03
638.438	14435.62
638.632	13997.35
638.825	14105.9
639.019	14105.9
639.212	14036.27
639.406	13757.74
639.599	13851.95
639.793	13700.4
639.986	13565.23
640.18	13651.25
640.373	13776.17
640.567	13188.41
640.76	13475.12
640.954	13450.55
641.147	13258.04
641.34	13282.61
641.534	12987.71
641.727	12946.75
641.92	12971.32
642.114	12979.51
642.307	13022.52
642.5	12692.8
642.694	12541.25
642.887	12512.58
643.08	12830.01
643.273	12488
643.467	12500.29
643.66	12275.01
643.853	12176.71
644.046	12287.3
644.239	12172.61
644.432	12172.61
644.626	12057.93
644.819	12064.07
645.012	11859.28
645.205	11889.99
645.398	11863.37
645.591	11650.38
645.784	11961.67
645.977	11726.16
646.17	11535.7
646.363	11365.71
646.556	11412.82
646.749	11586.9
646.942	11300.18
647.135	11314.52
647.328	11281.75
647.521	11132.25
647.714	11175.25
647.907	11183.45
648.099	11218.26
648.292	10933.59
648.485	11056.47
648.678	10706.27
648.871	10927.45
649.064	10653.02
649.256	10601.82
649.449	10480.99
649.642	10456.42
649.835	10480.99
650.027	10497.38
650.22	10300.77
650.413	10276.2
650.605	10151.27
650.798	10280.29
650.991	10169.7
651.183	10141.03
651.376	9964.9
651.568	10079.59
651.761	10161.51
651.954	9923.94
652.146	9944.42
652.339	9803.11
652.531	9784.68
652.724	9876.84
652.916	9545.07
653.109	9618.8
653.301	9477.49
653.494	9598.32
653.686	9344.37
653.879	9620.85
654.071	9250.16
654.263	9426.29
654.456	9205.11
654.648	9301.36
654.84	9158
655.033	9115
655.225	9123.19
655.417	9033.08
655.61	8893.82
655.802	9026.93
655.994	8760.7
656.186	9022.84
656.379	8764.79
656.571	8826.23
656.763	8918.39
656.955	8598.91
657.148	8662.4
657.34	8568.19
657.532	8621.44
657.724	8449.41
657.916	8441.22
658.108	8324.48
658.3	8418.69
658.492	8506.75
658.684	8099.2
658.876	8256.9
659.068	8435.07
659.26	8164.74
659.452	8377.73
659.644	8213.89
659.836	7955.85
660.028	8228.23
660.22	7941.51
660.412	7961.99
660.604	7763.34
660.796	7765.39
660.988	7972.23
661.18	7587.21
661.372	7556.49
661.563	7671.18
661.755	7687.56
661.947	7648.65
662.139	7568.78
662.331	7630.22
662.522	7468.43
662.714	7482.77
662.906	7318.93
663.097	7390.61
663.289	7304.59
663.481	7372.18
663.673	7200.15
663.864	7204.24
664.056	7216.53
664.247	7157.14
664.439	7097.75
664.631	7103.89
664.822	7048.6
665.014	6866.33
665.205	6970.77
665.397	7034.26
665.588	6860.18
665.78	6829.46
665.971	6872.47
666.163	6866.33
666.354	6974.87
666.546	6714.78
666.737	6557.08
666.929	6761.88
667.12	6688.15
667.311	6634.91
667.503	6407.58
667.694	6628.76
667.885	6565.28
668.077	6501.79
668.268	6354.34
668.459	6567.32
668.651	6514.08
668.842	6311.33
669.033	6442.4
669.224	6127.01
669.416	6237.6
669.607	6274.46
669.798	6079.91
669.989	6249.89
670.18	6065.57
670.371	6253.98
670.563	6049.19
670.754	5946.79
670.945	6028.71
671.136	6071.72
671.327	5864.87
671.518	6024.61
671.709	5838.25
671.9	5877.16
672.091	5723.56
672.282	5852.58
672.473	5948.84
672.664	5846.44
672.855	5698.99
673.046	5815.72
673.237	5778.86
673.428	5825.96
673.619	5633.45
673.809	5647.79
674	5789.1
674.191	5475.76
674.382	5600.68
674.573	5707.18
674.764	5500.33
674.954	5514.67
675.145	5387.69
675.336	5442.99
675.527	5479.85
675.717	5346.73
675.908	5442.99
676.099	5410.22
676.289	5373.36
676.48	5346.73
676.671	5193.14
676.861	5461.42
677.052	5309.87
677.243	5248.43
677.433	5326.25
677.624	5479.85
677.814	5264.82
678.005	5330.35
678.195	5238.19
678.386	5035.44
678.576	5131.7
678.767	5182.9
678.957	5131.7
679.148	5105.07
679.338	5074.35
679.529	5086.64
679.719	5189.04
679.909	5029.3
680.1	4943.28
680.29	4935.09
680.481	4969.91
680.671	5057.97
680.861	4791.73
681.052	4967.86
681.242	4974
681.432	5053.87
681.622	4847.03
681.813	4793.78
682.003	4797.88
682.193	4748.73
682.383	4832.69
682.573	4787.64
682.764	4842.93
682.954	4840.89
683.144	4652.47
683.334	4672.95
683.524	4445.63
683.714	4605.37
683.904	4603.32
684.094	4652.47
684.284	4593.08
684.474	4679.1
684.664	4486.59
684.854	4552.12
685.044	4513.21
685.234	4449.72
685.424	4523.45
685.614	4556.22
685.804	4527.55
685.994	4507.07
686.184	4593.08
686.374	4519.36
686.564	4582.84
686.753	4312.51
686.943	4349.37
687.133	4416.96
687.323	4355.52
687.513	4396.48
687.702	4394.43
687.892	4300.22
688.082	4249.02
688.272	4298.17
688.461	4251.07
688.651	4328.89
688.841	4224.45
689.03	4146.62
689.22	4070.85
689.41	4060.61
689.599	4013.51
689.789	4165.06
689.979	4111.81
690.168	3995.08
690.358	4103.62
690.547	4115.91
690.737	4044.23
690.926	3915.2
691.116	3802.57
691.305	4021.7
691.495	3976.64
691.684	4058.56
691.874	3921.35
692.063	3839.43
692.252	3878.34
692.442	3710.41
692.631	3710.41
692.82	3853.77
693.01	3689.93
693.199	3732.94
693.388	3745.22
693.578	3648.97
693.767	3739.08
693.956	3796.42
694.146	3689.93
694.335	3716.55
694.524	3610.06
694.713	3683.78
694.902	3673.54
695.092	3681.74
695.281	3476.94
695.47	3544.52
695.659	3571.15
695.848	3601.87
696.037	3597.77
696.226	3628.49
696.415	3460.56
696.604	3526.09
696.793	3478.99
696.982	3483.08
697.171	3452.36
697.36	3468.75
697.549	3534.28
697.738	3415.5
697.927	3444.17
698.116	3505.61
698.305	3493.32
698.494	3448.27
698.683	3521.99
698.872	3339.73
699.061	3493.32
699.25	3405.26
699.438	3378.64
699.627	3374.54
699.816	3392.97
700.005	3225.04
700.193	3323.34
700.382	3321.29
700.571	3177.94
700.76	3341.77
700.948	3173.84
701.137	3276.24
701.326	3368.4
701.514	3282.38
701.703	3222.99
701.892	3200.46
702.08	3247.57
702.269	3171.79
702.457	3141.07
702.646	3202.51
702.834	3241.42
703.023	3227.09
703.212	3212.75
703.4	3272.14
703.589	3165.65
703.777	3325.39
703.965	3108.3
704.154	3196.37
704.342	3085.78
704.531	3200.46
704.719	3055.06
704.907	3165.65
705.096	3161.55
705.284	3059.15
705.472	3091.92
705.661	3059.15
705.849	3192.27
706.037	3194.32
706.226	3030.48
706.414	3028.43
706.602	3026.39
706.79	3098.06
706.979	2979.28
707.167	3050.96
707.355	3036.63
707.543	3061.2
707.731	2985.43
707.919	3018.19
708.107	3061.2
708.296	3040.72
708.484	3050.96
708.672	2874.84
708.86	3077.59
709.048	2993.62
709.236	2930.13
709.424	2960.85
709.612	3073.49
709.8	2928.08
709.988	2813.4
710.176	3032.53
710.364	2938.32
710.551	2954.71
710.739	2913.75
710.927	2979.28
711.115	2790.87
711.303	2831.83
711.491	2940.37
711.679	2880.98
711.866	2919.89
712.054	2903.51
712.242	2770.39
712.43	2985.43
712.617	2878.93
712.805	2874.84
712.993	2782.68
713.181	2667.99
713.368	2784.73
713.556	2799.06
713.744	2764.25
713.931	2862.55
714.119	2799.06
714.306	2862.55
714.494	2833.88
714.682	2717.14
714.869	2766.29
715.057	2797.01
715.244	2760.15
715.432	2672.09
715.619	2749.91
715.807	2708.95
715.994	2747.86
716.182	2579.93
716.369	2792.92
716.556	2608.6
716.744	2657.75
716.931	2649.56
717.119	2862.55
717.306	2676.18
717.493	2665.94
717.681	2610.65
717.868	2686.42
718.055	2627.03
718.242	2719.19
718.43	2592.22
718.617	2674.14
718.804	2731.48
718.991	2655.7
719.179	2551.26
719.366	2575.83
719.553	2641.37
719.74	2633.18
719.927	2534.87
720.114	2561.5
720.301	2645.46
720.488	2446.81
720.676	2559.45
720.863	2719.19
721.05	2682.33
721.237	2586.07
721.424	2614.74
721.611	2606.55
721.798	2538.97
721.985	2575.83
722.172	2461.15
722.358	2532.83
722.545	2573.78
722.732	2452.95
722.919	2506.2
723.106	2518.49
723.293	2543.07
723.48	2547.16
723.667	2551.26
723.853	2430.43
724.04	2543.07
724.227	2436.57
724.414	2424.28
724.6	2371.04
724.787	2487.77
724.974	2422.24
725.161	2659.8
725.347	2403.8
725.534	2348.51
725.72	2510.3
725.907	2584.02
726.094	2416.09
726.28	2309.6
726.467	2452.95
726.653	2403.8
726.84	2381.28
727.027	2534.87
727.213	2178.53
727.4	2397.66
727.586	2375.13
727.773	2368.99
727.959	2368.99
728.145	2461.15
728.332	2287.07
728.518	2356.7
728.705	2471.39
728.891	2452.95
729.077	2366.94
729.264	2285.02
729.45	2330.08
729.636	2450.91
729.823	2373.08
730.009	2387.42
730.195	2438.62
730.382	2303.45
730.568	2274.78
730.754	2270.69
730.94	2338.27
731.126	2379.23
731.313	2293.21
731.499	2336.22
731.685	2354.65
731.871	2248.16
732.057	2368.99
732.243	2317.79
732.429	2211.29
732.615	2332.12
732.801	2266.59
732.987	2350.56
733.173	2362.84
733.359	2137.57
733.545	2358.75
733.731	2297.31
733.917	2291.17
734.103	2233.82
734.289	2299.36
734.475	2336.22
734.661	2266.59
734.847	2375.13
735.033	2258.4
735.219	2055.65
735.404	2254.3
735.59	2233.82
735.776	2317.79
735.962	2264.54
736.148	2215.39
736.333	2252.25
736.519	2203.1
736.705	2168.29
736.89	2291.17
737.076	2065.89
737.262	2145.76
737.447	2182.62
737.633	2186.72
737.819	2209.25
738.004	2143.71
738.19	2225.63
738.375	2192.86
738.561	2174.43
738.747	2092.51
738.932	2098.66
739.118	2123.23
739.303	2104.8
739.489	2035.17
739.674	2092.51
739.859	2110.94
740.045	2094.56
740.23	2174.43
740.416	2029.03
740.601	2100.7
740.786	2065.89
740.972	1979.87
741.157	1969.63
741.342	2026.98
741.528	2006.5
741.713	2018.79
741.898	2004.45
742.084	2061.79
742.269	2055.65
742.454	2031.07
742.639	2063.84
742.824	1957.35
743.01	1969.63
743.195	1924.58
743.38	1832.42
743.565	1930.72
743.75	1953.25
743.935	1990.11
744.12	2047.46
744.305	1820.13
744.49	1846.76
744.675	1920.48
744.86	1861.09
745.045	1981.92
745.23	1824.23
745.415	1879.52
745.6	1932.77
745.785	1871.33
745.97	1900
746.155	1945.06
746.34	1848.8
746.525	1764.84
746.71	1875.43
746.895	1822.18
747.079	1773.03
747.264	1777.12
747.449	1658.34
747.634	1816.04
747.819	1854.95
748.003	1715.69
748.188	1693.16
748.373	1627.62
748.557	1832.42
748.742	1764.84
748.927	1578.47
749.111	1594.86
749.296	1678.82
749.481	1687.01
749.665	1572.33
749.85	1684.97
750.034	1578.47
750.219	1596.9
750.404	1662.44
750.588	1607.14
750.773	1543.66
750.957	1504.75
751.141	1531.37
751.326	1453.55
751.51	1541.61
751.695	1644.01
751.879	1431.02
752.064	1562.09
752.248	1482.22
752.432	1519.08
752.617	1494.51
752.801	1428.97
752.985	1486.31
753.17	1535.46
753.354	1424.87
753.538	1486.31
753.722	1375.72
753.907	1404.39
754.091	1349.1
754.275	1306.09
754.459	1287.66
754.643	1359.34
754.828	1297.9
755.012	1463.79
755.196	1261.04
755.38	1318.38
755.564	1326.57
755.748	1240.56
755.932	1265.13
756.116	1269.23
756.3	1269.23
756.484	1177.07
756.668	1218.03
756.852	1170.93
757.036	1228.27
757.22	1316.33
757.404	1293.8
757.588	1150.45
757.772	1168.88
757.956	1228.27
758.14	1183.21
758.323	1154.54
758.507	1201.65
758.691	1240.56
758.875	1170.93
759.059	1166.83
759.242	1103.34
759.426	1136.11
759.61	1093.1
759.794	1152.49
759.977	1119.73
760.161	1304.04
760.345	1076.72
760.528	1105.39
760.712	1154.54
760.895	1138.16
761.079	994.8
761.263	1074.67
761.446	1013.23
761.63	1068.53
761.813	1103.34
761.997	1035.76
762.18	1019.38
762.364	1070.58
762.547	1019.38
762.731	1060.34
762.914	992.75
763.098	978.42
763.281	1005.04
763.464	929.27
763.648	908.79
763.831	984.56
764.015	998.9
764.198	1054.19
764.381	1023.47
764.564	1023.47
764.748	955.89
764.931	974.32
765.114	1005.04
765.297	982.51
765.481	990.7
765.664	951.79
765.847	876.02
766.03	896.5
766.213	884.21
766.397	939.51
766.58	890.35
766.763	1048.05
766.946	865.78
767.129	851.44
767.312	873.97
767.495	900.59
767.678	988.66
767.861	876.02
768.044	921.07
768.227	927.22
768.41	919.03
768.593	1011.18
768.776	867.83
768.959	962.03
769.142	916.98
769.324	888.31
769.507	816.63
769.69	847.35
769.873	798.2
770.056	1005.04
770.239	871.92
770.421	761.33
770.604	876.02
770.787	851.44
770.97	876.02
771.152	880.11
771.335	790
771.518	865.78
771.7	890.35
771.883	894.45
772.066	785.91
772.248	765.43
772.431	794.1
772.613	871.92
772.796	726.52
772.978	740.85
773.161	826.87
773.343	679.41
773.526	783.86
773.708	757.24
773.891	738.8
774.073	658.93
774.256	847.35
774.438	830.96
774.621	628.21
774.803	734.71
774.985	749.04
775.168	720.37
775.35	724.47
775.532	728.56
775.715	724.47
775.897	699.89
776.079	632.31
776.261	677.37
776.444	749.04
776.626	675.32
776.808	693.75
776.99	562.68
777.173	667.13
777.355	658.93
777.537	699.89
777.719	622.07
777.901	689.65
778.083	708.09
778.265	642.55
778.447	613.88
778.629	599.54
778.811	642.55
778.993	699.89
779.175	585.21
779.357	675.32
779.539	579.06
779.721	572.92
779.903	630.26
780.085	658.93
780.267	577.02
780.449	593.4
780.631	658.93
780.812	577.02
780.994	564.73
781.176	558.58
781.358	478.71
781.54	517.62
781.721	577.02
781.903	605.69
782.085	529.91
782.267	611.83
782.448	495.1
782.63	525.82
782.812	607.73
782.993	554.49
783.175	495.1
783.357	439.8
783.538	527.86
783.72	521.72
783.901	476.66
784.083	427.51
784.264	529.91
784.446	398.84
784.627	527.86
784.809	491
784.99	433.66
785.172	552.44
785.353	527.86
785.535	488.95
785.716	513.53
785.897	351.74
786.079	458.23
786.26	452.09
786.441	396.79
786.623	361.98
786.804	355.83
786.985	474.62
787.167	437.75
787.348	402.94
787.529	339.45
787.71	429.56
787.891	458.23
788.073	388.6
788.254	355.83
788.435	429.56
788.616	331.26
788.797	286.2
788.978	378.36
789.159	404.99
789.34	382.46
789.522	413.18
789.703	376.31
789.884	339.45
790.065	357.88
790.246	407.03
790.427	478.71
790.607	409.08
790.788	372.22
790.969	409.08
791.15	382.46
791.331	273.92
791.512	312.83
791.693	339.45
791.874	296.44
792.054	347.64
792.235	364.03
792.416	314.88
792.597	298.49
792.778	306.68
792.958	372.22
793.139	407.03
793.32	398.84
793.5	388.6
793.681	392.7
793.862	361.98
794.042	294.4
794.223	249.34
794.404	325.12
794.584	286.2
794.765	284.16
794.945	353.79
795.126	337.4
795.306	306.68
795.487	333.31
795.667	347.64
795.848	372.22
796.028	304.64
796.209	206.33
796.389	265.72
796.57	327.16
796.75	292.35
796.93	314.88
797.111	259.58
797.291	249.34
797.471	323.07
797.652	306.68
797.832	257.53
798.012	200.19
798.192	251.39
798.373	200.19
798.553	269.82
798.733	226.81
798.913	292.35
799.093	282.11
799.274	245.24
799.454	306.68
799.634	247.29
799.814	302.59
799.994	235
800.174	261.63
800.354	216.57
800.534	204.28
800.714	355.83
800.894	267.77
801.074	306.68
801.254	228.86
801.434	267.77
801.614	275.96
801.794	208.38
801.974	767.48
802.154	216.57
802.334	237.05
802.514	212.48
802.693	247.29
802.873	263.68
803.053	241.15
803.233	282.11
803.413	224.76
803.592	146.94
803.772	159.23
803.952	241.15
804.131	282.11
804.311	239.1
804.491	290.3
804.67	177.66
804.85	185.85
805.03	275.96
805.209	265.72
805.389	288.25
805.568	257.53
805.748	202.24
805.928	226.81
806.107	232.96
806.287	163.33
806.466	200.19
806.646	167.42
806.825	247.29
807.004	218.62
807.184	179.71
807.363	189.95
807.543	218.62
807.722	175.61
807.901	210.43
808.081	192
808.26	212.48
808.439	259.58
808.619	118.27
808.798	196.09
808.977	218.62
809.156	173.57
809.336	130.56
809.515	251.39
809.694	142.85
809.873	175.61
810.052	196.09
810.231	235
810.411	167.42
810.59	218.62
810.769	298.49
810.948	159.23
811.127	179.71
811.306	89.6
811.485	120.32
811.664	230.91
811.843	165.37
812.022	159.23
812.201	155.13
812.38	167.42
812.559	136.7
812.737	151.04
812.916	185.85
813.095	79.36
813.274	232.96
813.453	136.7
813.632	134.65
813.811	183.81
813.989	54.78
814.168	202.24
814.347	44.54
814.526	95.74
814.704	245.24
814.883	155.13
815.062	128.51
815.24	159.23
815.419	171.52
815.598	130.56
815.776	101.89
815.955	148.99
816.133	136.7
816.312	159.23
816.49	194.05
816.669	175.61
816.847	151.04
817.026	112.13
817.204	153.09
817.383	165.37
817.561	146.94
817.74	126.46
817.918	148.99
818.097	126.46
818.275	85.5
818.453	163.33
818.632	114.17
818.81	226.81
818.988	112.13
819.167	116.22
819.345	95.74
819.523	95.74
819.701	114.17
819.879	155.13
820.058	87.55
820.236	134.65
820.414	95.74
820.592	120.32
820.77	200.19
820.948	120.32
821.127	126.46
821.305	124.41
821.483	97.79
821.661	130.56
821.839	93.69
822.017	130.56
822.195	38.4
822.373	112.13
822.551	169.47
822.729	79.36
822.907	83.45
823.085	136.7
823.262	122.37
823.44	126.46
823.618	30.21
823.796	192
823.974	124.41
824.152	146.94
824.329	83.45
824.507	169.47
824.685	110.08
824.863	101.89
825.04	93.69
825.218	87.55
825.396	97.79
825.574	148.99
825.751	87.55
825.929	220.67
826.107	103.93
826.284	95.74
826.462	140.8
826.639	60.93
826.817	36.35
826.994	126.46
827.172	60.93
827.349	136.7
827.527	122.37
827.704	118.27
827.882	65.02
828.059	77.31
828.237	75.26
828.414	114.17
828.591	81.41
828.769	126.46
828.946	75.26
829.124	83.45
829.301	177.66
829.478	91.65
829.655	91.65
829.833	87.55
830.01	77.31
830.187	192
830.364	89.6
830.542	69.12
830.719	159.23
830.896	103.93
831.073	118.27
831.25	138.75
831.427	65.02
831.604	112.13
831.782	58.88
831.959	151.04
832.136	142.85
832.313	110.08
832.49	105.98
832.667	112.13
832.844	38.4
833.021	128.51
833.198	142.85
833.374	32.26
833.551	112.13
833.728	62.98
833.905	128.51
834.082	54.78
834.259	71.17
834.436	134.65
834.612	81.41
834.789	75.26
834.966	134.65
835.143	42.5
835.319	79.36
835.496	52.74
835.673	101.89
835.85	60.93
836.026	101.89
836.203	157.18
836.38	81.41
836.556	87.55
836.733	22.02
836.909	136.7
837.086	9.73
837.262	34.3
837.439	48.64
837.616	138.75
837.792	11.78
837.968	114.17
838.145	44.54
838.321	134.65
838.498	73.21
838.674	136.7
838.851	77.31
839.027	52.74
839.203	79.36
839.38	93.69
839.556	73.21
839.732	122.37
839.909	142.85
840.085	85.5
840.261	60.93
840.437	69.12
840.614	73.21
840.79	60.93
840.966	114.17
841.142	77.31
841.318	36.35
841.494	77.31
841.671	101.89
841.847	65.02
842.023	44.54
842.199	60.93
842.375	81.41
842.551	62.98
842.727	46.59
842.903	38.4
843.079	93.69
843.255	60.93
843.431	32.26
843.607	44.54
843.783	34.3
843.959	132.61
844.134	62.98
844.31	105.98
844.486	124.41
844.662	46.59
844.838	110.08
845.013	44.54
845.189	85.5
845.365	46.59
845.541	28.16
845.716	46.59
845.892	103.93
846.068	69.12
846.244	38.4
846.419	89.6
846.595	-2.56
846.77	-10.75
846.946	99.84
847.122	22.02
847.297	11.78
847.473	95.74
847.648	52.74
847.824	79.36
847.999	36.35
848.175	38.4
848.35	65.02
848.526	120.32
848.701	118.27
848.876	44.54
849.052	26.11
849.227	126.46
849.403	71.17
849.578	93.69
849.753	85.5
849.929	126.46
850.104	30.21
850.279	58.88
850.454	54.78
850.63	65.02
850.805	28.16
850.98	85.5
851.155	60.93
851.33	-31.23
851.505	-12.8
851.681	108.03
851.856	36.35
852.031	54.78
852.206	114.17
852.381	44.54
852.556	-6.66
852.731	9.73
852.906	54.78
853.081	5.63
853.256	52.74
853.431	56.83
853.606	17.92
853.781	22.02
853.956	48.64
854.131	13.82
854.305	71.17
854.48	60.93
854.655	-8.7
854.83	36.35
855.005	110.08
855.18	77.31
855.354	-61.95
855.529	32.26
855.704	-35.33
855.879	3.58
856.053	116.22
856.228	34.3
856.403	34.3
856.577	5.63
856.752	22.02
856.926	85.5
857.101	30.21
857.276	17.92
857.45	13.82
857.625	17.92
857.799	62.98
857.974	22.02
858.148	11.78
858.323	48.64
858.497	28.16
858.672	85.5
858.846	28.16
859.02	60.93
859.195	-12.8
859.369	40.45
859.543	38.4
859.718	101.89
859.892	15.87
860.066	52.74
860.241	5.63
860.415	95.74
860.589	15.87
860.763	95.74
860.938	-6.66
861.112	13.82
861.286	-41.47
861.46	48.64
861.634	40.45
861.808	-12.8
861.982	11.78
862.157	-37.38
862.331	-10.75
862.505	-41.47
862.679	46.59
862.853	-4.61
863.027	95.74
863.201	7.68
863.375	3.58
863.549	87.55
863.722	36.35
863.896	73.21
864.07	-2.56
864.244	52.74
864.418	85.5
864.592	93.69
864.766	3.58
864.939	97.79
865.113	3.58
865.287	89.6
865.461	85.5
865.634	75.26
865.808	-20.99
865.982	85.5
866.156	-53.76
866.329	-27.14
866.503	-25.09
866.676	79.36
866.85	56.83
867.024	130.56
867.197	89.6
867.371	146.94
867.544	95.74
867.718	-2.56
867.891	52.74
868.065	5.63
868.238	32.26
868.412	36.35
868.585	5.63
868.759	67.07
868.932	34.3
869.105	38.4
869.279	3.58
869.452	48.64
869.625	105.98
869.799	-45.57
869.972	-10.75
870.145	-43.52
870.319	-12.8
870.492	93.69
870.665	87.55
870.838	-29.18
871.011	-10.75
871.185	60.93
871.358	-0.51
871.531	19.97
871.704	-37.38
871.877	54.78
872.05	7.68
872.223	11.78
872.396	-0.51
872.569	-33.28
872.742	9.73
872.915	32.26
873.088	44.54
873.261	42.5
873.434	60.93
873.607	30.21
873.78	44.54
873.953	13.82
874.126	77.31
874.299	48.64
874.471	-25.09
874.644	71.17
874.817	60.93
874.99	60.93
875.163	36.35
875.335	65.02
875.508	56.83
875.681	30.21
875.853	-4.61
876.026	46.59
876.199	95.74
876.371	65.02
876.544	58.88
876.717	1.54
876.889	81.41
877.062	69.12
877.234	46.59
877.407	7.68
877.579	34.3
877.752	34.3
877.924	30.21
878.097	48.64
878.269	5.63
878.442	19.97
878.614	122.37
878.786	-35.33
878.959	69.12
879.131	15.87
879.303	32.26
879.476	11.78
879.648	11.78
879.82	48.64
879.993	-78.33
880.165	-0.51
880.337	-10.75
880.509	62.98
880.681	-35.33
880.854	50.69
881.026	93.69
881.198	42.5
881.37	62.98
881.542	-29.18
881.714	-27.14
881.886	77.31
882.058	-37.38
882.23	22.02
882.402	-25.09
882.574	-0.51
882.746	36.35
882.918	30.21
883.09	-12.8
883.262	19.97
883.434	-25.09
883.606	3.58
883.778	5.63
883.95	-6.66
884.122	24.06
884.293	40.45
884.465	101.89
884.637	42.5
884.809	36.35
884.98	-57.86
885.152	62.98
885.324	24.06
885.496	77.31
885.667	110.08
885.839	7.68
886.011	69.12
886.182	7.68
886.354	-12.8
886.525	-27.14
886.697	56.83
886.869	-0.51
887.04	-53.76
887.212	22.02
887.383	36.35
887.555	5.63
887.726	-41.47
887.897	-2.56
888.069	38.4
888.24	-4.61
888.412	40.45
888.583	26.11
888.754	-10.75
888.926	-2.56
889.097	15.87
889.268	-29.18
889.44	110.08
889.611	-43.52
889.782	22.02
889.953	3.58
890.125	77.31
890.296	38.4
890.467	-18.94
890.638	19.97
890.809	44.54
890.98	-20.99
891.151	79.36
891.323	48.64
891.494	-10.75
891.665	-2.56
891.836	15.87
892.007	17.92
892.178	22.02
892.349	36.35
892.52	48.64
892.691	-4.61
892.862	-18.94
893.032	30.21
893.203	93.69
893.374	-27.14
893.545	19.97
893.716	-53.76
893.887	28.16
894.057	65.02
894.228	-10.75
894.399	19.97
894.57	-39.42
894.74	3.58
894.911	108.03
895.082	7.68
895.253	36.35
895.423	5.63
895.594	30.21
895.764	1.54
895.935	52.74
896.106	44.54
896.276	71.17
896.447	-20.99
896.617	-35.33
896.788	-66.05
896.958	58.88
897.129	15.87
897.299	22.02
897.47	52.74
897.64	128.51
897.81	-37.38
897.981	42.5
898.151	-53.76
898.322	36.35
898.492	19.97
898.662	50.69
898.832	36.35
899.003	-0.51
899.173	13.82
899.343	-10.75
899.513	9.73
