Data from USB4F104151__57__14-17-05-959.txt Node

Date: Thu Mar 13 14:17:05 EDT 2025
User: louis
Spectrometer: USB4F10415
Trigger mode: 4
Integration Time (sec): 2.000000E-2
Scans to average: 1
Electric dark correction enabled: true
Nonlinearity correction enabled: false
Boxcar width: 0
XAxis mode: Wavelengths
Number of Pixels in Spectrum: 3648
>>>>>Begin Spectral Data<<<<<
178.204	-152.4
178.424	-152.4
178.644	-152.4
178.864	-115.54
179.084	-123.73
179.304	-29.52
179.524	-13.14
179.744	29.87
179.964	-4.95
180.184	-21.33
180.404	11.43
180.624	60.59
180.844	46.25
181.064	5.29
181.283	-21.33
181.503	-86.87
181.723	23.72
181.943	-37.72
182.163	48.3
182.383	27.82
182.602	36.01
182.822	44.2
183.042	5.29
183.262	-21.33
183.482	-25.43
183.701	-4.95
183.921	-66.39
184.141	-17.24
184.361	5.29
184.58	-11.09
184.8	23.72
185.02	50.35
185.239	93.35
185.459	19.63
185.679	36.01
185.898	54.44
186.118	93.35
186.338	25.77
186.557	122.02
186.777	-45.91
186.997	-21.33
187.216	-2.9
187.436	-4.95
187.655	-2.9
187.875	62.63
188.095	-7
188.314	17.58
188.534	-41.81
188.753	38.06
188.973	-66.39
189.192	72.87
189.412	29.87
189.631	19.63
189.851	44.2
190.07	89.26
190.29	-9.05
190.509	-19.29
190.729	76.97
190.948	52.39
191.168	81.07
191.387	27.82
191.607	44.2
191.826	21.67
192.045	-66.39
192.265	21.67
192.484	-21.33
192.704	13.48
192.923	-43.86
193.142	60.59
193.362	-21.33
193.581	-23.38
193.8	54.44
194.02	23.72
194.239	27.82
194.458	93.35
194.678	-11.09
194.897	23.72
195.116	-11.09
195.335	-15.19
195.555	40.11
195.774	19.63
195.993	29.87
196.212	36.01
196.432	-4.95
196.651	76.97
196.87	-25.43
197.089	103.59
197.308	5.29
197.528	44.2
197.747	-29.52
197.966	21.67
198.185	54.44
198.404	-25.43
198.623	7.34
198.842	40.11
199.062	74.92
199.281	95.4
199.5	-70.48
199.719	70.83
199.938	21.67
200.157	62.63
200.376	66.73
200.595	19.63
200.814	-45.91
201.033	1.19
201.252	13.48
201.471	-9.05
201.69	-13.14
201.909	29.87
202.128	-2.9
202.347	68.78
202.566	70.83
202.785	-13.14
203.004	-70.48
203.223	46.25
203.442	-7
203.661	62.63
203.879	130.22
204.098	36.01
204.317	5.29
204.536	-27.48
204.755	5.29
204.974	25.77
205.193	68.78
205.411	46.25
205.63	-68.44
205.849	15.53
206.068	33.96
206.287	-4.95
206.505	15.53
206.724	17.58
206.943	95.4
207.162	97.45
207.381	27.82
207.599	13.48
207.818	36.01
208.037	68.78
208.255	107.69
208.474	66.73
208.693	83.11
208.911	-13.14
209.13	7.34
209.349	79.02
209.567	7.34
209.786	48.3
210.005	68.78
210.223	40.11
210.442	-103.25
210.661	72.87
210.879	31.91
211.098	15.53
211.316	25.77
211.535	-0.85
211.753	64.68
211.972	72.87
212.191	13.48
212.409	27.82
212.628	58.54
212.846	-39.76
213.065	81.07
213.283	38.06
213.502	74.92
213.72	-45.91
213.938	-9.05
214.157	3.24
214.375	-74.58
214.594	11.43
214.812	21.67
215.031	11.43
215.249	38.06
215.467	54.44
215.686	-9.05
215.904	7.34
216.122	3.24
216.341	62.63
216.559	-27.48
216.778	111.78
216.996	48.3
217.214	7.34
217.432	15.53
217.651	31.91
217.869	-17.24
218.087	70.83
218.306	-50
218.524	33.96
218.742	-29.52
218.96	87.21
219.179	56.49
219.397	-4.95
219.615	52.39
219.833	54.44
220.051	-35.67
220.27	54.44
220.488	38.06
220.706	105.64
220.924	44.2
221.142	-45.91
221.36	19.63
221.578	83.11
221.796	33.96
222.015	-39.76
222.233	-7
222.451	44.2
222.669	-29.52
222.887	70.83
223.105	-37.72
223.323	44.2
223.541	23.72
223.759	21.67
223.977	25.77
224.195	62.63
224.413	52.39
224.631	19.63
224.849	36.01
225.067	87.21
225.285	13.48
225.503	-2.9
225.721	-29.52
225.939	103.59
226.157	-21.33
226.375	101.55
226.592	40.11
226.81	40.11
227.028	52.39
227.246	60.59
227.464	25.77
227.682	25.77
227.9	27.82
228.117	11.43
228.335	93.35
228.553	19.63
228.771	19.63
228.989	50.35
229.206	64.68
229.424	-9.05
229.642	40.11
229.86	3.24
230.077	33.96
230.295	9.39
230.513	-11.09
230.731	-13.14
230.948	15.53
231.166	91.31
231.384	-17.24
231.601	-35.67
231.819	-29.52
232.037	-13.14
232.254	-54.1
232.472	140.46
232.689	-27.48
232.907	93.35
233.125	23.72
233.342	19.63
233.56	38.06
233.777	-0.85
233.995	36.01
234.213	15.53
234.43	-13.14
234.648	44.2
234.865	21.67
235.083	103.59
235.3	58.54
235.518	21.67
235.735	93.35
235.953	44.2
236.17	-13.14
236.388	40.11
236.605	27.82
236.822	101.55
237.04	23.72
237.257	64.68
237.475	19.63
237.692	38.06
237.909	9.39
238.127	-11.09
238.344	-19.29
238.562	52.39
238.779	19.63
238.996	40.11
239.214	70.83
239.431	54.44
239.648	54.44
239.865	19.63
240.083	-13.14
240.3	44.2
240.517	-4.95
240.735	85.16
240.952	40.11
241.169	19.63
241.386	19.63
241.603	-9.05
241.821	5.29
242.038	62.63
242.255	23.72
242.472	-11.09
242.689	50.35
242.907	27.82
243.124	68.78
243.341	101.55
243.558	13.48
243.775	-17.24
243.992	-17.24
244.209	-11.09
244.426	87.21
244.643	68.78
244.86	-52.05
245.078	68.78
245.295	56.49
245.512	21.67
245.729	46.25
245.946	-9.05
246.163	-19.29
246.38	19.63
246.597	25.77
246.814	19.63
247.031	-19.29
247.248	62.63
247.464	60.59
247.681	11.43
247.898	36.01
248.115	11.43
248.332	-29.52
248.549	54.44
248.766	44.2
248.983	23.72
249.2	68.78
249.417	-43.86
249.633	31.91
249.85	19.63
250.067	-15.19
250.284	44.2
250.501	52.39
250.717	95.4
250.934	31.91
251.151	60.59
251.368	70.83
251.585	46.25
251.801	33.96
252.018	9.39
252.235	58.54
252.451	-21.33
252.668	-35.67
252.885	76.97
253.102	74.92
253.318	21.67
253.535	5.29
253.752	19.63
253.968	-21.33
254.185	27.82
254.401	-50
254.618	23.72
254.835	-15.19
255.051	19.63
255.268	5.29
255.484	48.3
255.701	11.43
255.917	15.53
256.134	-21.33
256.351	38.06
256.567	-29.52
256.784	9.39
257	-11.09
257.217	50.35
257.433	25.77
257.65	23.72
257.866	17.58
258.082	13.48
258.299	68.78
258.515	68.78
258.732	40.11
258.948	-29.52
259.165	44.2
259.381	44.2
259.597	7.34
259.814	17.58
260.03	-0.85
260.246	62.63
260.463	-29.52
260.679	64.68
260.895	87.21
261.112	44.2
261.328	13.48
261.544	21.67
261.761	72.87
261.977	33.96
262.193	33.96
262.409	31.91
262.626	81.07
262.842	56.49
263.058	-27.48
263.274	91.31
263.49	-7
263.707	117.93
263.923	-0.85
264.139	29.87
264.355	27.82
264.571	29.87
264.787	50.35
265.004	107.69
265.22	-9.05
265.436	76.97
265.652	19.63
265.868	5.29
266.084	-4.95
266.3	64.68
266.516	23.72
266.732	64.68
266.948	81.07
267.164	-0.85
267.38	81.07
267.596	23.72
267.812	31.91
268.028	62.63
268.244	-62.29
268.46	-13.14
268.676	-0.85
268.892	44.2
269.108	-23.38
269.324	7.34
269.54	40.11
269.756	5.29
269.972	17.58
270.188	19.63
270.403	89.26
270.619	-4.95
270.835	101.55
271.051	44.2
271.267	-13.14
271.483	27.82
271.698	15.53
271.914	-7
272.13	23.72
272.346	44.2
272.562	83.11
272.777	93.35
272.993	13.48
273.209	-11.09
273.425	-33.62
273.64	33.96
273.856	33.96
274.072	-21.33
274.287	29.87
274.503	27.82
274.719	165.03
274.934	-25.43
275.15	-13.14
275.366	1.19
275.581	48.3
275.797	85.16
276.012	40.11
276.228	56.49
276.444	38.06
276.659	52.39
276.875	33.96
277.09	5.29
277.306	48.3
277.521	-15.19
277.737	29.87
277.952	-2.9
278.168	5.29
278.383	56.49
278.599	19.63
278.814	52.39
279.03	3.24
279.245	48.3
279.461	44.2
279.676	95.4
279.892	44.2
280.107	-0.85
280.322	68.78
280.538	5.29
280.753	62.63
280.969	38.06
281.184	-0.85
281.399	-4.95
281.615	-7
281.83	3.24
282.045	7.34
282.26	-52.05
282.476	13.48
282.691	85.16
282.906	36.01
283.122	29.87
283.337	54.44
283.552	-41.81
283.767	-0.85
283.983	-9.05
284.198	-9.05
284.413	-4.95
284.628	42.15
284.843	38.06
285.058	70.83
285.274	48.3
285.489	-23.38
285.704	52.39
285.919	-7
286.134	-9.05
286.349	25.77
286.564	-33.62
286.779	54.44
286.995	68.78
287.21	33.96
287.425	79.02
287.64	70.83
287.855	21.67
288.07	-17.24
288.285	21.67
288.5	46.25
288.715	66.73
288.93	7.34
289.145	44.2
289.36	23.72
289.575	70.83
289.79	23.72
290.004	27.82
290.219	87.21
290.434	19.63
290.649	134.31
290.864	60.59
291.079	-4.95
291.294	54.44
291.509	27.82
291.724	-25.43
291.938	36.01
292.153	-4.95
292.368	27.82
292.583	36.01
292.798	44.2
293.012	85.16
293.227	-9.05
293.442	5.29
293.657	-21.33
293.871	101.55
294.086	-4.95
294.301	15.53
294.516	87.21
294.73	-9.05
294.945	-2.9
295.16	-9.05
295.374	85.16
295.589	-19.29
295.804	27.82
296.018	29.87
296.233	23.72
296.447	56.49
296.662	-0.85
296.877	56.49
297.091	72.87
297.306	146.6
297.52	33.96
297.735	54.44
297.949	54.44
298.164	-60.24
298.378	15.53
298.593	3.24
298.807	-4.95
299.022	-0.85
299.236	27.82
299.451	74.92
299.665	-21.33
299.88	60.59
300.094	19.63
300.309	81.07
300.523	19.63
300.737	74.92
300.952	3.24
301.166	-37.72
301.381	19.63
301.595	44.2
301.809	70.83
302.024	-19.29
302.238	-13.14
302.452	-62.29
302.667	-29.52
302.881	136.36
303.095	50.35
303.309	-4.95
303.524	68.78
303.738	-17.24
303.952	-35.67
304.166	101.55
304.381	9.39
304.595	122.02
304.809	19.63
305.023	-0.85
305.237	-7
305.452	-39.76
305.666	36.01
305.88	52.39
306.094	11.43
306.308	81.07
306.522	85.16
306.736	25.77
306.95	68.78
307.164	54.44
307.379	-9.05
307.593	79.02
307.807	44.2
308.021	40.11
308.235	44.2
308.449	-13.14
308.663	42.15
308.877	91.31
309.091	60.59
309.305	36.01
309.519	-35.67
309.733	70.83
309.947	-9.05
310.161	46.25
310.374	76.97
310.588	56.49
310.802	1.19
311.016	11.43
311.23	3.24
311.444	7.34
311.658	3.24
311.872	64.68
312.085	66.73
312.299	56.49
312.513	-4.95
312.727	50.35
312.941	-41.81
313.154	109.74
313.368	-15.19
313.582	46.25
313.796	46.25
314.009	-37.72
314.223	128.17
314.437	-54.1
314.651	46.25
314.864	19.63
315.078	-35.67
315.292	-27.48
315.505	40.11
315.719	95.4
315.933	-50
316.146	19.63
316.36	1.19
316.573	-2.9
316.787	3.24
317.001	89.26
317.214	44.2
317.428	89.26
317.641	5.29
317.855	25.77
318.068	62.63
318.282	81.07
318.495	17.58
318.709	19.63
318.922	15.53
319.136	1.19
319.349	95.4
319.563	-19.29
319.776	97.45
319.99	-27.48
320.203	5.29
320.417	128.17
320.63	68.78
320.843	111.78
321.057	40.11
321.27	46.25
321.483	13.48
321.697	-4.95
321.91	46.25
322.124	27.82
322.337	52.39
322.55	36.01
322.763	52.39
322.977	38.06
323.19	54.44
323.403	-4.95
323.617	54.44
323.83	54.44
324.043	7.34
324.256	76.97
324.469	23.72
324.683	15.53
324.896	40.11
325.109	60.59
325.322	-7
325.535	103.59
325.748	54.44
325.962	-13.14
326.175	107.69
326.388	93.35
326.601	-17.24
326.814	68.78
327.027	81.07
327.24	81.07
327.453	-13.14
327.666	56.49
327.879	-70.48
328.092	85.16
328.305	3.24
328.518	62.63
328.731	-29.52
328.944	44.2
329.157	27.82
329.37	72.87
329.583	17.58
329.796	72.87
330.009	-45.91
330.222	44.2
330.435	-43.86
330.648	27.82
330.861	11.43
331.073	23.72
331.286	54.44
331.499	85.16
331.712	70.83
331.925	64.68
332.138	40.11
332.35	76.97
332.563	7.34
332.776	89.26
332.989	-2.9
333.202	-21.33
333.414	60.59
333.627	-27.48
333.84	79.02
334.053	21.67
334.265	13.48
334.478	3.24
334.691	38.06
334.903	36.01
335.116	5.29
335.329	-4.95
335.541	117.93
335.754	23.72
335.966	31.91
336.179	13.48
336.392	66.73
336.604	40.11
336.817	60.59
337.029	23.72
337.242	58.54
337.454	-4.95
337.667	40.11
337.88	122.02
338.092	11.43
338.305	81.07
338.517	44.2
338.729	79.02
338.942	58.54
339.154	-0.85
339.367	-37.72
339.579	60.59
339.792	11.43
340.004	44.2
340.217	21.67
340.429	-7
340.641	7.34
340.854	62.63
341.066	15.53
341.278	171.18
341.491	81.07
341.703	3.24
341.915	-19.29
342.128	19.63
342.34	95.4
342.552	21.67
342.764	-13.14
342.977	-9.05
343.189	70.83
343.401	3.24
343.613	-19.29
343.826	52.39
344.038	44.2
344.25	62.63
344.462	46.25
344.674	-0.85
344.886	44.2
345.099	93.35
345.311	44.2
345.523	85.16
345.735	27.82
345.947	85.16
346.159	15.53
346.371	3.24
346.583	-21.33
346.795	126.12
347.007	5.29
347.219	38.06
347.431	11.43
347.643	68.78
347.855	48.3
348.067	111.78
348.279	27.82
348.491	58.54
348.703	11.43
348.915	36.01
349.127	11.43
349.339	46.25
349.551	70.83
349.763	29.87
349.975	54.44
350.187	44.2
350.399	-68.44
350.61	11.43
350.822	-2.9
351.034	44.2
351.246	31.91
351.458	19.63
351.669	-4.95
351.881	21.67
352.093	52.39
352.305	-19.29
352.517	29.87
352.728	70.83
352.94	17.58
353.152	132.26
353.363	-13.14
353.575	-21.33
353.787	36.01
353.999	83.11
354.21	128.17
354.422	7.34
354.633	33.96
354.845	40.11
355.057	7.34
355.268	15.53
355.48	46.25
355.692	-21.33
355.903	-11.09
356.115	-11.09
356.326	-60.24
356.538	5.29
356.749	113.83
356.961	74.92
357.172	13.48
357.384	-21.33
357.595	158.89
357.807	-11.09
358.018	7.34
358.23	101.55
358.441	91.31
358.653	60.59
358.864	-17.24
359.075	60.59
359.287	31.91
359.498	89.26
359.709	40.11
359.921	25.77
360.132	27.82
360.344	46.25
360.555	13.48
360.766	1.19
360.977	-43.86
361.189	85.16
361.4	48.3
361.611	56.49
361.823	81.07
362.034	44.2
362.245	-2.9
362.456	93.35
362.667	36.01
362.879	33.96
363.09	83.11
363.301	64.68
363.512	119.98
363.723	91.31
363.935	1.19
364.146	74.92
364.357	70.83
364.568	60.59
364.779	38.06
364.99	40.11
365.201	27.82
365.412	76.97
365.623	27.82
365.834	60.59
366.045	50.35
366.256	36.01
366.467	48.3
366.678	44.2
366.889	25.77
367.1	136.36
367.311	-11.09
367.522	111.78
367.733	154.79
367.944	122.02
368.155	23.72
368.366	62.63
368.577	-11.09
368.788	19.63
368.999	-41.81
369.209	29.87
369.42	126.12
369.631	89.26
369.842	93.35
370.053	7.34
370.264	36.01
370.474	-11.09
370.685	85.16
370.896	42.15
371.107	111.78
371.317	40.11
371.528	-4.95
371.739	76.97
371.95	60.59
372.16	13.48
372.371	23.72
372.582	36.01
372.792	62.63
373.003	21.67
373.214	-25.43
373.424	134.31
373.635	42.15
373.846	68.78
374.056	33.96
374.267	105.64
374.477	70.83
374.688	-9.05
374.898	48.3
375.109	19.63
375.319	-78.68
375.53	11.43
375.74	130.22
375.951	36.01
376.161	-17.24
376.372	-4.95
376.582	11.43
376.793	81.07
377.003	36.01
377.214	95.4
377.424	40.11
377.635	79.02
377.845	-29.52
378.055	76.97
378.266	11.43
378.476	103.59
378.686	36.01
378.897	95.4
379.107	87.21
379.317	62.63
379.528	-37.72
379.738	68.78
379.948	-13.14
380.158	31.91
380.369	56.49
380.579	58.54
380.789	13.48
380.999	130.22
381.21	48.3
381.42	126.12
381.63	40.11
381.84	76.97
382.05	76.97
382.261	29.87
382.471	85.16
382.681	-4.95
382.891	58.54
383.101	60.59
383.311	27.82
383.521	3.24
383.731	31.91
383.941	113.83
384.151	87.21
384.361	15.53
384.571	111.78
384.781	72.87
384.991	68.78
385.201	97.45
385.411	103.59
385.621	27.82
385.831	117.93
386.041	85.16
386.251	89.26
386.461	21.67
386.671	48.3
386.881	56.49
387.091	44.2
387.301	62.63
387.511	-13.14
387.72	95.4
387.93	52.39
388.14	33.96
388.35	11.43
388.56	79.02
388.769	87.21
388.979	72.87
389.189	29.87
389.399	68.78
389.609	126.12
389.818	85.16
390.028	58.54
390.238	27.82
390.447	15.53
390.657	68.78
390.867	81.07
391.076	-21.33
391.286	68.78
391.496	48.3
391.705	83.11
391.915	119.98
392.125	93.35
392.334	70.83
392.544	44.2
392.753	101.55
392.963	64.68
393.172	76.97
393.382	101.55
393.591	136.36
393.801	21.67
394.01	124.07
394.22	128.17
394.429	87.21
394.639	99.5
394.848	111.78
395.058	36.01
395.267	21.67
395.477	72.87
395.686	101.55
395.895	29.87
396.105	171.18
396.314	105.64
396.524	101.55
396.733	97.45
396.942	101.55
397.152	111.78
397.361	79.02
397.57	109.74
397.78	93.35
397.989	103.59
398.198	109.74
398.407	152.74
398.617	146.6
398.826	111.78
399.035	105.64
399.244	117.93
399.453	111.78
399.663	89.26
399.872	76.97
400.081	29.87
400.29	169.13
400.499	142.5
400.708	201.9
400.917	93.35
401.127	187.56
401.336	107.69
401.545	136.36
401.754	103.59
401.963	101.55
402.172	146.6
402.381	126.12
402.59	40.11
402.799	48.3
403.008	230.57
403.217	134.31
403.426	140.46
403.635	119.98
403.844	150.7
404.053	142.5
404.262	117.93
404.471	205.99
404.68	105.64
404.888	216.23
405.097	208.04
405.306	140.46
405.515	177.32
405.724	183.46
405.933	210.09
406.142	152.74
406.35	232.62
406.559	193.7
406.768	160.94
406.977	230.57
407.185	134.31
407.394	240.81
407.603	158.89
407.812	220.33
408.02	273.57
408.229	220.33
408.438	224.42
408.646	267.43
408.855	285.86
409.064	380.07
409.272	212.14
409.481	371.88
409.69	300.2
409.898	318.63
410.107	330.92
410.315	367.78
410.524	404.64
410.733	337.06
410.941	304.29
411.15	398.5
411.358	439.46
411.567	457.89
411.775	488.61
411.984	435.36
412.192	490.66
412.401	484.52
412.609	523.43
412.818	527.52
413.026	554.15
413.234	640.16
413.443	658.59
413.651	658.59
413.86	617.63
414.068	789.66
414.276	724.13
414.485	658.59
414.693	750.75
414.901	760.99
415.11	756.9
415.318	691.36
415.526	801.95
415.734	826.53
415.943	875.68
416.151	1010.84
416.359	980.12
416.567	982.17
416.776	1045.66
416.984	1109.15
417.192	1072.28
417.4	1158.3
417.608	1100.95
417.817	1152.15
418.025	1215.64
418.233	1379.48
418.441	1252.5
418.649	1352.85
418.857	1414.29
419.065	1543.32
419.273	1502.36
419.481	1383.57
419.689	1670.29
419.897	1676.43
420.105	1735.82
420.313	1715.34
420.521	1825.93
420.729	1920.14
420.937	1930.38
421.145	2010.25
421.353	2104.46
421.561	2286.73
421.769	2190.47
421.977	2317.45
422.185	2249.86
422.393	2380.93
422.601	2395.27
422.809	2575.49
423.017	2518.15
423.224	2651.27
423.432	2735.23
423.64	2864.25
423.848	3222.65
424.056	2972.8
424.263	3220.6
424.471	3279.99
424.679	3210.36
424.887	3470.45
425.094	3509.37
425.302	3533.94
425.51	3783.79
425.718	3832.94
425.925	3968.11
426.133	4156.52
426.341	4365.42
426.548	4537.45
426.756	4467.81
426.964	4443.24
427.171	4832.35
427.379	4838.5
427.586	5092.44
427.794	5168.22
428.001	5346.39
428.209	5712.98
428.417	5448.79
428.624	5954.64
428.832	5930.06
429.039	5807.19
429.247	5901.39
429.454	6384.71
429.662	6802.5
429.869	6370.38
430.076	6712.39
430.284	6552.65
430.491	6972.48
430.699	7273.53
430.906	7228.48
431.114	7361.59
431.321	7572.54
431.528	7885.87
431.736	8125.49
431.943	8739.88
432.15	8432.68
432.358	8584.23
432.565	8985.63
432.772	9032.74
432.979	9370.65
433.187	9683.99
433.394	9618.46
433.601	10275.85
433.808	10384.4
434.016	10230.8
434.223	10722.31
434.43	11351.04
434.637	11006.98
434.844	11660.28
435.052	11899.89
435.259	11899.89
435.466	12119.03
435.673	11924.47
435.88	12733.42
436.087	13284.32
436.294	13208.55
436.501	12948.45
436.708	13204.45
436.915	13849.56
437.122	14341.07
437.329	14390.22
437.537	14869.45
437.743	15000.52
437.95	14793.67
438.157	15633.34
438.364	16360.37
438.571	16206.77
438.778	16391.09
438.985	18029.46
439.192	17056.68
439.399	17591.2
439.606	17202.08
439.813	18281.36
440.02	19561.34
440.227	18848.65
440.433	18781.07
440.64	19344.26
440.847	19389.31
441.054	19831.68
441.261	21183.34
441.467	20644.72
441.674	21056.36
441.881	21826.4
442.088	22088.54
442.294	21683.04
442.501	22274.9
442.708	22975.31
442.914	23472.96
443.121	24533.81
443.328	24001.34
443.534	25602.85
443.741	24742.71
443.948	24576.82
444.154	26129.18
444.361	25973.53
444.568	26336.02
444.774	26161.95
444.981	26399.51
445.187	27452.17
445.394	28406.52
445.6	28132.09
445.807	30583.51
446.013	29516.52
446.22	29784.8
446.426	31105.74
446.633	31070.93
446.839	32846.52
447.046	31240.91
447.252	32654.01
447.459	33049.27
447.665	32764.6
447.871	34142.88
448.078	35467.92
448.284	33667.75
448.491	35109.52
448.697	36248.19
448.903	36717.18
449.11	36938.36
449.316	36385.41
449.522	36878.97
449.728	38023.78
449.935	37997.16
450.141	38042.21
450.347	38748.76
450.553	37763.69
450.76	38574.69
450.966	39928.39
451.172	39332.43
451.378	40165.96
451.584	39258.71
451.791	40733.25
451.997	40278.6
452.203	41003.58
452.409	40622.65
452.615	40606.27
452.821	38666.84
453.027	38713.95
453.233	40804.92
453.44	39113.3
453.646	39412.31
453.852	39819.85
454.058	40487.49
454.264	38650.46
454.47	40196.68
454.676	39334.48
454.882	40458.82
455.088	36852.34
455.294	37270.13
455.5	38173.28
455.705	38597.21
455.911	37192.31
456.117	36192.9
456.323	35760.78
456.529	33903.27
456.735	35398.29
456.941	34357.92
457.147	34271.9
457.352	33196.72
457.558	32416.44
457.764	32682.68
457.97	31707.85
458.176	31525.58
458.381	31476.43
458.587	29829.86
458.793	30104.29
458.999	28275.45
459.204	30374.62
459.41	29453.03
459.616	27497.22
459.821	27714.31
460.027	27831.04
460.233	27210.51
460.438	25467.69
460.644	26102.56
460.85	24857.39
461.055	24382.26
461.261	24441.65
461.466	22362.97
461.672	21650.27
461.878	23526.21
462.083	21836.64
462.289	21465.96
462.494	21232.49
462.7	20413.3
462.905	19835.77
463.111	20511.6
463.316	20437.87
463.522	20358
463.727	19950.46
463.932	20153.21
464.138	19792.76
464.343	20018.04
464.549	19094.41
464.754	19839.87
464.959	19635.07
465.165	19424.13
465.37	18930.57
465.575	18387.86
465.781	19227.53
465.986	19024.78
466.191	18568.08
466.397	18037.66
466.602	17378.21
466.807	18088.85
467.012	18082.71
467.218	17968.02
467.423	17691.55
467.628	17798.04
467.833	18439.06
468.038	17691.55
468.244	17345.44
468.449	17752.99
468.654	17451.94
468.859	17421.22
469.064	17212.32
469.269	16544.69
469.474	16784.3
469.679	17062.82
469.885	16366.51
470.09	16653.23
470.295	16554.93
470.5	16174
470.705	16249.78
470.91	15918.01
471.115	15899.58
471.32	16063.41
471.525	15686.59
471.73	15576
471.935	15342.53
472.139	14910.41
472.344	14932.93
472.549	14894.02
472.754	14750.67
472.959	14650.32
473.164	14248.91
473.369	14121.94
473.574	14500.81
473.778	14468.05
473.983	14273.49
474.188	14412.75
474.393	13738.97
474.598	13693.91
474.802	13519.84
475.007	13450.21
475.212	13571.04
475.417	12946.41
475.621	13149.15
475.826	13130.72
476.031	12983.27
476.235	12499.95
476.44	13020.13
476.645	12508.14
476.849	12555.24
477.054	12137.46
477.259	12155.89
477.463	12233.71
477.668	11842.55
477.872	12020.72
478.077	11996.15
478.282	11422.72
478.486	11535.35
478.691	11287.55
478.895	11400.19
479.1	11318.27
479.304	11498.49
479.509	10800.13
479.713	11371.52
479.918	10996.74
480.122	10804.23
480.326	10990.59
480.531	10916.87
480.735	10701.83
480.94	10804.23
481.144	11006.98
481.348	10515.47
481.553	10673.16
481.757	10497.03
481.961	10562.57
482.166	10638.34
482.37	10613.77
482.574	10208.27
482.778	10447.88
482.983	10669.06
483.187	10531.85
483.391	10644.49
483.595	10398.73
483.8	10368.01
484.004	10494.99
484.208	10636.3
484.412	10433.55
484.616	10382.35
484.821	10443.79
485.025	10386.44
485.229	10537.99
485.433	10279.95
485.637	10325.01
485.841	10261.52
486.045	10390.54
486.249	10447.88
486.453	10339.34
486.657	10415.12
486.861	10587.15
487.065	10259.47
487.269	10388.49
487.473	10357.77
487.677	10636.3
487.881	10484.75
488.085	10521.61
488.289	10499.08
488.493	10456.08
488.697	10333.2
488.901	10712.07
489.105	10433.55
489.309	10566.67
489.512	10560.52
489.716	10619.91
489.92	10447.88
490.124	10755.08
490.328	10800.13
490.531	10624.01
490.735	10810.37
490.939	10732.55
491.143	10808.33
491.346	10615.82
491.55	11052.03
491.754	10802.18
491.958	10974.21
492.161	10908.68
492.365	10947.59
492.569	11000.83
492.772	10871.81
492.976	11164.67
493.18	11262.97
493.383	11299.84
493.587	11047.94
493.79	11529.21
493.994	11324.41
494.197	11537.4
494.401	11531.26
494.605	11553.79
494.808	11822.07
495.012	11744.25
495.215	11551.74
495.419	12014.58
495.622	12008.44
495.825	12020.72
496.029	12217.33
496.232	12600.3
496.436	12282.86
496.639	12590.06
496.843	12700.65
497.046	12835.81
497.249	12839.91
497.453	12884.97
497.656	13267.94
497.859	13059.04
498.063	13253.6
498.266	13652.95
498.469	13343.71
498.673	13579.23
498.876	13913.05
499.079	14021.59
499.282	13921.24
499.485	14277.58
499.689	14310.35
499.892	14619.6
500.095	14605.26
500.298	14998.47
500.501	14922.69
500.705	15317.95
500.908	15162.31
501.111	15371.2
501.314	15809.47
501.517	15768.51
501.72	16036.79
501.923	15971.25
502.126	16352.18
502.329	16513.97
502.532	16606.13
502.735	16741.29
502.938	16995.24
503.141	17095.59
503.344	17609.63
503.547	17505.18
503.75	17632.16
503.953	17922.97
504.156	18199.44
504.359	18340.75
504.562	18394
504.765	18768.78
504.968	18936.71
505.17	19178.37
505.373	18891.66
505.576	19827.58
505.779	19827.58
505.982	19610.5
506.185	20388.72
506.387	20132.73
506.59	20568.94
506.793	20640.62
506.996	20609.9
507.198	21308.26
507.401	21023.59
507.604	21775.2
507.807	22000.47
508.009	21789.53
508.212	22295.38
508.415	22551.38
508.617	22940.49
508.82	23194.44
509.022	22735.7
509.225	23616.32
509.428	23485.25
509.63	23683.91
509.833	23892.8
510.035	24769.33
510.238	24265.53
510.44	24509.24
510.643	25088.81
510.845	25158.44
511.048	25230.12
511.25	25314.09
511.453	25793.31
511.655	26813.2
511.858	26110.75
512.06	26346.26
512.262	26684.18
512.465	26821.39
512.667	27409.16
512.87	27466.5
513.072	27781.89
513.274	27996.93
513.477	28232.44
513.679	28592.89
513.881	28721.91
514.084	29197.04
514.286	29031.15
514.488	29299.44
514.69	29954.79
514.893	30153.44
515.095	30233.31
515.297	30399.19
515.499	30720.73
515.701	31126.22
515.904	31589.06
516.106	31593.16
516.308	31646.41
516.51	32209.6
516.712	32398.01
516.914	32518.84
517.116	32840.37
517.318	32815.8
517.52	33368.75
517.722	33520.3
517.925	33985.19
518.127	34495.13
518.329	34585.24
518.531	34276
518.733	35068.56
518.935	35263.12
519.136	35117.71
519.338	35848.84
519.54	36074.12
519.742	36407.94
519.944	36457.09
520.146	37055.09
520.348	37362.29
520.55	37464.69
520.752	37669.48
520.954	38183.52
521.155	38009.45
521.357	38627.93
521.559	38789.72
521.761	39082.58
521.963	39526.99
522.164	39211.6
522.366	39404.11
522.568	40264.26
522.77	40100.42
522.971	40696.38
523.173	40342.08
523.375	41103.93
523.576	40950.33
523.778	40958.52
523.98	41589.3
524.181	41720.37
524.383	41728.56
524.584	42363.43
524.786	42349.09
524.988	42431.01
525.189	42736.16
525.391	43188.76
525.592	43203.1
525.794	43373.08
525.995	43321.88
526.197	43172.38
526.398	43604.5
526.6	44333.57
526.801	44227.08
527.003	44139.02
527.204	44212.74
527.406	44382.73
527.607	44548.61
527.808	44777.98
528.01	44587.52
528.211	44714.5
528.412	45527.54
528.614	45064.7
528.815	45758.96
529.016	45660.66
529.218	45611.51
529.419	45539.83
529.62	46012.91
529.822	45804.02
530.023	45720.05
530.224	45783.54
530.425	45801.97
530.626	45783.54
530.828	45785.58
531.029	46473.7
531.23	46152.17
531.431	46608.87
531.632	46422.5
531.833	46436.84
532.035	46281.19
532.236	46295.53
532.437	46903.77
532.638	46502.37
532.839	47231.45
533.04	46873.06
533.241	46418.41
533.442	47299.03
533.643	46662.11
533.844	46574.05
534.045	46377.45
534.246	46359.02
534.447	47194.59
534.648	47045.08
534.849	47043.04
535.05	46451.17
535.251	46801.38
535.451	46737.89
535.652	46954.97
535.853	46686.69
536.054	47030.75
536.255	47104.48
536.456	46440.93
536.657	47290.84
536.857	46623.2
537.058	46690.79
537.259	47282.65
537.46	46928.35
537.66	46938.59
537.861	47198.68
538.062	46875.1
538.263	46811.62
538.463	46602.72
538.664	46793.18
538.865	47178.2
539.065	47227.35
539.266	46430.69
539.466	46907.87
539.667	46371.3
539.868	47038.94
540.068	46848.48
540.269	46490.09
540.469	47235.55
540.67	46559.72
540.87	46711.27
541.071	47108.57
541.271	46817.76
541.472	46682.59
541.672	46254.57
541.873	46516.71
542.073	46367.21
542.274	46991.84
542.474	46744.03
542.675	46203.37
542.875	46522.85
543.075	46594.53
543.276	46205.42
543.476	46856.67
543.676	46594.53
543.877	46864.86
544.077	46135.79
544.277	46375.4
544.478	46055.92
544.678	46586.34
544.878	46248.42
545.078	46397.93
545.279	46371.3
545.479	46014.96
545.679	46692.83
545.879	46496.23
546.079	46103.02
546.28	46309.86
546.48	46119.4
546.68	46621.16
546.88	46688.74
547.08	46361.06
547.28	46295.53
547.48	46014.96
547.68	46477.8
547.88	46299.62
548.081	46688.74
548.281	45971.95
548.481	45859.31
548.681	46817.76
548.881	46346.73
549.081	45894.13
549.28	45828.59
549.48	46350.82
549.68	45988.33
549.88	46770.66
550.08	46146.03
550.28	46309.86
550.48	45857.26
550.68	46115.31
550.88	46045.68
551.08	45937.13
551.279	46060.01
551.479	45916.65
551.679	46105.07
551.879	46152.17
552.079	46119.4
552.278	45734.38
552.478	45787.63
552.678	45736.43
552.878	46248.42
553.077	46070.25
553.277	45681.14
553.477	46232.04
553.676	45812.21
553.876	45947.37
554.076	45763.06
554.275	45728.24
554.475	45402.61
554.674	45621.75
554.874	45550.07
555.074	45462
555.273	45744.62
555.473	46037.48
555.672	45267.45
555.872	45617.65
556.071	45799.92
556.271	45734.38
556.47	45419
556.67	44864
556.869	45150.71
557.068	45400.57
557.268	44902.91
557.467	45445.62
557.667	45253.11
557.866	45201.91
558.065	45312.5
558.265	45216.25
558.464	44888.57
558.663	45066.75
558.863	44775.94
559.062	45359.61
559.261	44814.85
559.461	45031.93
559.66	44274.18
559.859	44573.19
560.058	44452.36
560.258	44401.16
560.457	44132.87
560.656	44511.75
560.855	44175.88
561.054	44538.37
561.253	44116.49
561.453	44196.36
561.652	44309
561.851	44251.66
562.05	43883.02
562.249	43635.22
562.448	44235.27
562.647	43743.76
562.846	43696.66
563.045	43629.07
563.244	43631.12
563.443	43561.49
563.642	43418.13
563.841	43438.61
564.04	43291.16
564.239	43637.26
564.438	43334.17
564.637	43033.11
564.836	43538.96
565.035	42738.21
565.234	43072.03
565.432	43223.58
565.631	42662.43
565.83	42674.72
566.029	42951.2
566.228	42883.61
566.427	42508.83
566.625	42492.45
566.824	42295.85
567.023	42740.25
567.222	41964.07
567.42	42631.71
567.619	42506.79
567.818	41939.5
568.016	42512.93
568.215	42543.65
568.414	42109.48
568.612	42158.63
568.811	42306.09
569.01	42017.32
569.208	41402.93
569.407	41675.31
569.605	41243.19
569.804	41595.44
570.002	40946.23
570.201	41527.86
570.4	40870.46
570.598	40632.89
570.797	40776.25
570.995	40976.95
571.193	40178.25
571.392	41177.65
571.59	40127.05
571.789	40671.81
571.987	40512.06
572.186	40649.28
572.384	40409.67
572.582	40372.8
572.781	40780.35
572.979	39613.01
573.177	39936.59
573.376	40512.06
573.574	39938.63
573.772	40129.09
573.971	39610.96
574.169	39492.18
574.367	39129.69
574.565	39739.98
574.763	39279.19
574.962	39506.51
575.16	38920.79
575.358	39205.46
575.556	38734.43
575.754	39279.19
575.952	38793.82
576.151	39152.21
576.349	38546.01
576.547	38634.08
576.745	38822.49
576.943	38511.2
577.141	38406.75
577.339	38369.89
577.537	38115.94
577.735	37960.3
577.933	37997.16
578.131	38148.71
578.329	38072.93
578.527	37970.54
578.725	37694.06
578.923	37657.2
579.121	37626.48
579.319	37526.13
579.516	37683.82
579.714	37571.18
579.912	36987.51
580.11	37186.16
580.308	37030.52
580.506	36952.69
580.704	36846.2
580.901	37327.47
581.099	37309.04
581.297	36657.79
581.495	36457.09
581.692	36311.68
581.89	36225.67
582.088	36579.96
582.285	36035.2
582.483	36422.27
582.681	36115.08
582.878	35992.2
583.076	35830.41
583.274	35773.06
583.471	35695.24
583.669	35895.94
583.866	35492.49
584.064	35584.65
584.262	35068.56
584.459	35500.68
584.657	34957.97
584.854	35613.32
585.052	34611.87
585.249	35119.76
585.447	35039.89
585.644	34411.17
585.841	34964.12
586.039	35189.39
586.236	34579.1
586.434	34407.07
586.631	34079.39
586.828	33962.66
587.026	34050.72
587.223	34189.98
587.42	34300.58
587.618	33964.71
587.815	33907.37
588.012	33610.41
588.21	33634.99
588.407	33677.99
588.604	33487.53
588.801	33485.48
588.999	33430.19
589.196	33192.62
589.393	33495.72
589.59	33045.17
589.787	33194.67
589.984	32793.27
590.182	32631.48
590.379	32735.93
590.576	32412.35
590.773	32580.28
590.97	32408.25
591.167	32649.91
591.364	32185.02
591.561	32467.64
591.758	32254.65
591.955	32158.4
592.152	32312
592.349	31509.19
592.546	31812.29
592.743	31423.18
592.94	31441.61
593.137	31533.77
593.334	31662.79
593.531	31126.22
593.727	31431.37
593.924	31265.49
594.121	30841.56
594.318	31527.63
594.515	30839.51
594.712	31013.59
594.908	30671.57
595.105	30876.37
595.302	30059.23
595.499	30587.61
595.696	30384.86
595.892	30022.37
596.089	30307.04
596.286	30526.17
596.482	30225.12
596.679	30112.48
596.876	30067.42
597.072	29717.22
597.269	30128.86
597.466	29678.31
597.662	29557.48
597.859	29285.1
598.055	29747.94
598.252	29100.78
598.448	29297.39
598.645	28990.19
598.841	29182.7
599.038	28875.51
599.234	29106.93
599.431	28545.78
599.627	28492.54
599.824	28726
600.02	28596.98
600.217	28758.77
600.413	28353.27
600.609	28232.44
600.806	27691.78
601.002	28107.52
601.198	28031.74
601.395	27972.35
601.591	28007.17
601.787	27902.72
601.984	27906.82
602.18	27738.88
602.376	27708.16
602.572	27749.12
602.769	27497.22
602.965	27515.65
603.161	27702.02
603.357	27286.28
603.553	27058.96
603.75	27175.69
603.946	26731.28
604.142	27067.15
604.338	26866.45
604.534	26829.59
604.73	26516.25
604.926	26549.01
605.122	26493.72
605.318	26512.15
605.514	26209.05
605.71	26374.94
605.906	26110.75
606.102	26327.83
606.298	26405.66
606.494	25930.53
606.69	26159.9
606.886	26045.21
607.082	25738.02
607.278	26176.28
607.474	25113.39
607.67	25899.81
607.866	25295.66
608.062	25443.11
608.257	25563.94
608.453	25647.91
608.649	25447.21
608.845	25189.16
609.041	25330.47
609.236	25381.67
609.432	24943.41
609.628	25160.49
609.824	24818.48
610.019	24748.85
610.215	25178.92
610.411	25309.99
610.606	24701.75
610.802	24949.55
610.998	24722.23
611.193	24994.61
611.389	24599.35
611.584	24546.1
611.78	24523.57
611.976	24754.99
612.171	24589.11
612.367	24640.31
612.562	24224.57
612.758	24083.26
612.953	24052.54
613.149	24269.62
613.344	24013.63
613.539	24312.63
613.735	24085.31
613.93	24171.32
614.126	23987
614.321	24294.2
614.517	23976.76
614.712	23829.31
614.907	23927.61
615.103	24025.92
615.298	23513.92
615.493	23784.26
615.688	23534.4
615.884	24111.93
616.079	23032.65
616.274	23606.08
616.47	23118.67
616.665	23409.48
616.86	23397.19
617.055	23368.52
617.25	23161.67
617.445	23384.9
617.641	22864.72
617.836	23118.67
618.031	22858.57
618.226	22899.53
618.421	23001.93
618.616	23182.15
618.811	22279
619.006	22864.72
619.201	22381.4
619.396	22625.11
619.591	22270.81
619.786	22528.85
619.981	21785.44
620.176	22405.97
620.371	21977.95
620.566	21832.54
620.761	21824.35
620.956	22012.76
621.151	21699.42
621.346	21707.62
621.541	21302.12
621.735	21554.02
621.93	21146.47
622.125	21152.62
622.32	20876.14
622.515	20986.73
622.709	20994.92
622.904	20982.63
623.099	20642.67
623.294	20745.07
623.488	20251.51
623.683	20386.68
623.878	20376.44
624.072	20216.69
624.267	20032.38
624.462	20194.17
624.656	19829.63
624.851	19794.81
625.046	19409.79
625.24	19499.91
625.435	19600.26
625.629	19553.15
625.824	19073.93
626.018	19184.52
626.213	18860.94
626.407	19293.06
626.602	18836.36
626.796	18723.72
626.991	18477.97
627.185	18559.89
627.38	18260.88
627.574	18287.51
627.768	18441.11
627.963	18389.91
628.157	18133.91
628.352	18232.21
628.546	17752.99
628.74	17853.34
628.935	17693.6
629.129	17781.66
629.323	17509.28
629.517	17488.8
629.712	17238.95
629.906	17265.57
630.1	16759.72
630.294	17365.92
630.489	16894.89
630.683	17161.12
630.877	16651.18
631.071	16882.6
631.265	16698.28
631.459	16686
631.653	16489.39
631.848	16604.08
632.042	16335.79
632.236	16323.51
632.43	16272.31
632.624	16133.04
632.818	15930.3
633.012	15750.07
633.206	16139.19
633.4	15942.58
633.594	15262.66
633.788	15717.31
633.982	15524.8
634.176	15283.14
634.369	15274.95
634.563	15281.09
634.757	15315.9
634.951	15205.31
635.145	15049.67
635.339	14916.55
635.533	14943.17
635.726	15121.35
635.92	14570.44
636.114	14883.78
636.308	14640.08
636.501	14470.09
636.695	14466
636.889	14162.9
637.083	14320.59
637.276	14148.56
637.47	14271.44
637.664	14343.12
637.857	14144.47
638.051	14357.46
638.244	13915.09
638.438	14001.11
638.632	13855.7
638.825	13663.19
639.019	13655
639.212	13581.28
639.406	13661.15
639.599	13464.54
639.793	13904.85
639.986	13274.08
640.18	13138.91
640.373	13347.81
640.567	12977.12
640.76	13177.83
640.954	12764.14
641.147	12880.87
641.34	12721.13
641.534	12798.95
641.727	12778.47
641.92	12663.79
642.114	12450.8
642.307	12409.84
642.5	12626.92
642.694	12258.29
642.887	12229.62
643.08	12465.13
643.273	12143.6
643.467	12004.34
643.66	11981.81
643.853	11813.88
644.046	11955.19
644.239	11740.15
644.432	11938.8
644.626	11688.95
644.819	11527.16
645.012	11795.45
645.205	11623.42
645.398	11672.57
645.591	11355.13
645.784	11408.38
645.977	11439.1
646.17	11383.8
646.363	11277.31
646.556	10767.37
646.749	11056.13
646.942	11148.29
647.135	10931.2
647.328	10984.45
647.521	10955.78
647.714	10667.02
647.907	10890.24
648.099	10779.65
648.292	10619.91
648.485	10560.52
648.678	10540.04
648.871	10396.68
649.064	10398.73
649.256	10501.13
649.449	10249.23
649.642	10214.41
649.835	10234.89
650.027	10107.92
650.22	10169.36
650.413	10021.91
650.605	10234.89
650.798	10003.47
650.991	9960.47
651.183	9935.89
651.376	9860.12
651.568	9755.67
651.761	9886.74
651.954	9448.47
652.146	9614.36
652.339	9571.35
652.531	9602.07
652.724	9499.67
652.916	9221.15
653.109	9360.41
653.301	9331.74
653.494	9407.52
653.686	9190.43
653.879	9319.45
654.071	9176.09
654.263	9153.57
654.456	9077.79
654.648	9030.69
654.84	8899.62
655.033	8952.87
655.225	8842.28
655.417	8821.8
655.61	8721.45
655.802	8907.81
655.994	8752.17
656.186	8819.75
656.379	8694.82
656.571	8617
656.763	8459.31
656.955	8600.62
657.148	8678.44
657.34	8559.66
657.532	8168.49
657.724	8203.31
657.916	8174.64
658.108	8207.41
658.3	8131.63
658.492	8170.54
658.684	7887.92
658.876	7965.75
659.068	8006.7
659.26	7842.87
659.452	7797.81
659.644	7887.92
659.836	7857.2
660.028	7830.58
660.22	7744.56
660.412	7949.36
660.604	7492.66
660.796	7814.2
660.988	7515.19
661.18	7642.17
661.372	7466.04
661.563	7644.21
661.755	7511.1
661.947	7681.08
662.139	7447.61
662.331	7433.27
662.522	7236.67
662.714	7208
662.906	7003.2
663.097	7130.17
663.289	7154.75
663.481	7085.12
663.673	7119.93
663.864	7101.5
664.056	6999.1
664.247	6980.67
664.439	6876.23
664.631	6976.58
664.822	6945.86
665.014	6870.08
665.205	6956.1
665.397	6876.23
665.588	6749.25
665.78	6851.65
665.971	6671.43
666.163	6700.1
666.354	6669.38
666.546	6566.98
666.737	6544.45
666.929	6450.25
667.12	6446.15
667.311	6614.09
667.503	6468.68
667.694	6478.92
667.885	6351.95
668.077	6435.91
668.268	6474.82
668.459	6319.18
668.651	6417.48
668.842	6286.41
669.033	6298.7
669.224	6280.27
669.416	6327.37
669.607	6059.09
669.798	6134.86
669.989	6071.37
670.18	6188.11
670.371	5893.2
670.563	6245.45
670.754	5960.78
670.945	5911.63
671.136	6001.74
671.327	5856.34
671.518	5854.29
671.709	6040.65
671.9	5940.3
672.091	5772.37
672.282	5717.08
672.473	5639.25
672.664	5811.28
672.855	5774.42
673.046	5659.73
673.237	5764.18
673.428	5823.57
673.619	5655.64
673.809	5659.73
674	5614.68
674.191	5798.99
674.382	5594.2
674.573	5532.76
674.764	5579.86
674.954	5561.43
675.145	5545.05
675.336	5383.26
675.527	5520.47
675.717	5534.81
675.908	5332.06
676.099	5499.99
676.289	5401.69
676.48	5381.21
676.671	5592.15
676.861	5477.46
677.052	5342.3
677.243	5336.15
677.433	5211.23
677.624	5397.59
677.814	5260.38
678.005	5356.63
678.195	5266.52
678.386	5164.12
678.576	5090.4
678.767	5184.6
678.957	5074.01
679.148	5188.7
679.338	5254.23
679.529	5057.63
679.719	4994.14
679.909	5043.29
680.1	5145.69
680.29	5217.37
680.481	5020.77
680.671	5149.79
680.861	4912.22
681.052	4998.24
681.242	5137.5
681.432	5012.57
681.622	4971.61
681.813	4906.08
682.003	4887.65
682.193	4928.61
682.383	4918.37
682.573	4959.33
682.764	4850.78
682.954	4979.81
683.144	4969.57
683.334	4951.14
683.524	4867.17
683.714	4893.79
683.904	4762.72
684.094	4844.64
684.284	4852.83
684.474	4863.07
684.664	4697.19
684.854	4865.12
685.044	4756.58
685.234	4645.99
685.424	4826.21
685.614	4813.92
685.804	4652.13
685.994	4705.38
686.184	4770.91
686.374	4625.51
686.564	4645.99
686.753	4607.08
686.943	4500.58
687.133	4533.35
687.323	4478.05
687.513	4467.81
687.702	4453.48
687.892	4553.83
688.082	4437.09
688.272	4359.27
688.461	4379.75
688.651	4500.58
688.841	4316.26
689.03	4516.97
689.22	4412.52
689.41	4312.17
689.599	4336.74
689.789	4330.6
689.979	4199.53
690.168	4097.13
690.358	4158.57
690.547	4318.31
690.737	4224.11
690.926	4205.67
691.116	4172.91
691.305	4287.59
691.495	4213.87
691.684	4099.18
691.874	4064.36
692.063	4103.28
692.252	4103.28
692.442	4017.26
692.631	3951.73
692.82	4013.17
693.01	3929.2
693.199	3929.2
693.388	3873.9
693.578	3988.59
693.767	3931.25
693.956	3804.27
694.146	3738.74
694.335	3830.9
694.524	3886.19
694.713	3923.05
694.902	3767.41
695.092	3847.28
695.281	3683.44
695.47	3814.51
695.659	3826.8
695.848	3810.42
696.037	3648.63
696.226	3712.11
696.415	3804.27
696.604	3748.98
696.793	3589.24
696.982	3605.62
697.171	3652.72
697.36	3722.35
697.549	3765.36
697.738	3640.44
697.927	3462.26
698.116	3646.58
698.305	3632.24
698.494	3591.28
698.683	3646.58
698.872	3630.2
699.061	3560.56
699.25	3585.14
699.438	3566.71
699.627	3546.23
699.816	3499.13
700.005	3546.23
700.193	3529.84
700.382	3538.04
700.571	3460.21
700.76	3554.42
700.948	3460.21
701.137	3533.94
701.326	3456.12
701.514	3554.42
701.703	3429.49
701.892	3398.77
702.08	3542.13
702.269	3366.01
702.457	3357.82
702.646	3478.65
702.834	3398.77
703.023	3484.79
703.212	3413.11
703.4	3458.17
703.589	3435.64
703.777	3488.89
703.965	3269.75
704.154	3374.2
704.342	3380.34
704.531	3333.24
704.719	3355.77
704.907	3374.2
705.096	3363.96
705.284	3267.7
705.472	3316.86
705.661	3279.99
705.849	3368.06
706.037	3452.02
706.226	3226.75
706.414	3396.73
706.602	3323
706.79	3400.82
706.979	3146.87
707.167	3228.79
707.355	3214.46
707.543	3433.59
707.731	3247.23
707.919	3208.31
708.107	3124.35
708.296	3159.16
708.484	3110.01
708.672	3208.31
708.86	3218.55
709.048	3167.35
709.236	3089.53
709.424	3064.96
709.612	3150.97
709.8	3148.92
709.988	3030.14
710.176	3118.2
710.364	3107.96
710.551	3120.25
710.739	3107.96
710.927	3157.11
711.115	3140.73
711.303	3083.39
711.491	3079.29
711.679	3067
711.866	2995.32
712.054	3058.81
712.242	2966.65
712.43	3009.66
712.617	2964.61
712.805	2972.8
712.993	2976.89
713.181	3058.81
713.368	2976.89
713.556	3052.67
713.744	3030.14
713.931	3105.92
714.119	2964.61
714.306	3148.92
714.494	3036.28
714.682	3044.48
714.869	2888.83
715.057	3013.76
715.244	2927.74
715.432	3081.34
715.619	2944.13
715.807	2933.89
715.994	2980.99
716.182	2899.07
716.369	2987.13
716.556	2921.6
716.744	2940.03
716.931	2851.97
717.119	2886.78
717.306	3024
717.493	2911.36
717.681	2989.18
717.868	2856.06
718.055	2829.44
718.242	2962.56
718.43	2829.44
718.617	2923.65
718.804	3001.47
718.991	2792.58
719.179	2802.82
719.366	2905.21
719.553	2892.93
719.74	2882.69
719.927	2747.52
720.114	2894.97
720.301	2948.22
720.488	2915.45
720.676	2739.33
720.863	2927.74
721.05	2882.69
721.237	2897.02
721.424	2894.97
721.611	2681.99
721.798	2792.58
721.985	2757.76
722.172	2841.73
722.358	2700.42
722.545	2741.38
722.732	2741.38
722.919	2825.34
723.106	2716.8
723.293	2829.44
723.48	2817.15
723.667	2796.67
723.853	2722.95
724.04	2720.9
724.227	2722.95
724.414	2765.95
724.6	2786.43
724.787	2665.6
724.974	2710.66
725.161	2768
725.347	2534.53
725.534	2706.56
725.72	2647.17
725.907	2788.48
726.094	2616.45
726.28	2622.59
726.467	2718.85
726.653	2677.89
726.84	2759.81
727.027	2645.12
727.213	2587.78
727.4	2575.49
727.586	2708.61
727.773	2550.92
727.959	2706.56
728.145	2550.92
728.332	2690.18
728.518	2557.06
728.705	2583.68
728.891	2579.59
729.077	2583.68
729.264	2720.9
729.45	2567.3
729.636	2704.51
729.823	2706.56
730.009	2661.51
730.195	2567.3
730.382	2755.71
730.568	2460.81
730.754	2673.79
730.94	2641.03
731.126	2675.84
731.313	2618.5
731.499	2569.35
731.685	2659.46
731.871	2559.11
732.057	2559.11
732.243	2612.35
732.429	2552.96
732.615	2483.33
732.801	2622.59
732.987	2544.77
733.173	2540.68
733.359	2460.81
733.545	2499.72
733.731	2595.97
733.917	2569.35
734.103	2538.63
734.289	2479.24
734.475	2458.76
734.661	2493.57
734.847	2577.54
735.033	2507.91
735.219	2569.35
735.404	2518.15
735.59	2497.67
735.776	2526.34
735.962	2473.09
736.148	2469
736.333	2452.61
736.519	2456.71
736.705	2477.19
736.89	2520.2
737.076	2442.37
737.262	2378.89
737.447	2583.68
737.633	2247.82
737.819	2493.57
738.004	2395.27
738.19	2323.59
738.375	2495.62
738.561	2428.04
738.747	2378.89
738.932	2487.43
739.118	2428.04
739.303	2333.83
739.489	2333.83
739.674	2387.08
739.859	2362.5
740.045	2325.64
740.23	2219.14
740.416	2245.77
740.601	2358.41
740.786	2243.72
740.972	2329.74
741.157	2337.93
741.342	2251.91
741.528	2202.76
741.713	2280.58
741.898	2264.2
742.084	2274.44
742.269	2249.86
742.454	2190.47
742.639	2235.53
742.824	2329.74
743.01	2157.71
743.195	2247.82
743.38	2155.66
743.565	2167.95
743.75	2309.26
743.935	2100.36
744.12	2067.6
744.305	2116.75
744.49	2161.8
744.675	2067.6
744.86	2061.45
745.045	2157.71
745.23	2049.16
745.415	2038.92
745.6	2131.08
745.785	1963.15
745.97	2071.69
746.155	2143.37
746.34	2063.5
746.525	1944.72
746.71	1989.77
746.895	1952.91
747.079	1805.46
747.264	1922.19
747.449	1987.72
747.634	2004.11
747.819	1877.13
748.003	1944.72
748.188	1969.29
748.373	2002.06
748.557	1793.17
748.742	1957
748.927	1879.18
749.111	1832.08
749.296	1870.99
749.481	1864.85
749.665	1868.94
749.85	1692.82
750.034	1756.3
750.219	1748.11
750.404	1770.64
750.588	1784.98
750.773	1717.39
750.957	1789.07
751.141	1627.28
751.326	1696.91
751.51	1676.43
751.695	1639.57
751.879	1617.04
752.064	1682.58
752.248	1602.71
752.432	1658
752.617	1588.37
752.801	1576.08
752.985	1643.67
753.17	1617.04
753.354	1625.23
753.538	1559.7
753.722	1535.12
753.907	1494.16
754.091	1561.75
754.275	1496.21
754.459	1420.44
754.643	1584.27
754.828	1461.4
755.012	1387.67
755.196	1481.88
755.38	1391.77
755.564	1451.16
755.748	1385.62
755.932	1481.88
756.116	1447.06
756.3	1338.52
756.484	1412.25
756.668	1387.67
756.852	1373.33
757.036	1365.14
757.22	1404.05
757.404	1232.02
757.588	1309.85
757.772	1371.29
757.956	1389.72
758.14	1315.99
758.323	1213.59
758.507	1315.99
758.691	1289.37
758.875	1203.35
759.059	1297.56
759.242	1281.18
759.426	1315.99
759.61	1223.83
759.794	1275.03
759.977	1291.41
760.161	1275.03
760.345	1250.46
760.528	1240.22
760.712	1141.91
760.895	1160.34
761.079	1117.34
761.263	1195.16
761.446	1166.49
761.63	1170.58
761.813	1135.77
761.997	1084.57
762.18	1135.77
762.364	1168.54
762.547	1076.38
762.731	1127.58
762.914	1129.63
763.098	1098.91
763.281	1111.19
763.464	1070.23
763.648	1043.61
763.831	1146.01
764.015	1094.81
764.198	1068.19
764.381	1006.75
764.564	1119.39
764.748	1039.51
764.931	1086.62
765.114	1068.19
765.297	1070.23
765.481	1051.8
765.664	1027.23
765.847	982.17
766.03	1029.27
766.213	904.35
766.397	1025.18
766.58	937.12
766.763	1010.84
766.946	926.88
767.129	984.22
767.312	978.08
767.495	953.5
767.678	900.25
767.861	937.12
768.044	988.32
768.227	953.5
768.41	879.77
768.593	973.98
768.776	1057.95
768.959	973.98
769.142	861.34
769.324	867.49
769.507	949.4
769.69	976.03
769.873	959.64
770.056	953.5
770.239	836.77
770.421	906.4
770.604	951.45
770.787	904.35
770.97	836.77
771.152	922.78
771.335	875.68
771.518	887.97
771.7	900.25
771.883	969.88
772.066	838.81
772.248	863.39
772.431	881.82
772.613	875.68
772.796	703.65
772.978	826.53
773.161	781.47
773.343	830.62
773.526	791.71
773.708	717.98
773.891	765.09
774.073	826.53
774.256	789.66
774.438	924.83
774.621	797.85
774.803	826.53
774.985	709.79
775.168	791.71
775.35	705.7
775.532	760.99
775.715	750.75
775.897	787.61
776.079	699.55
776.261	689.31
776.444	750.75
776.626	752.8
776.808	717.98
776.99	648.35
777.173	693.41
777.355	699.55
777.537	627.87
777.719	677.02
777.901	636.06
778.083	777.37
778.265	701.6
778.447	707.74
778.629	701.6
778.811	717.98
778.993	613.54
779.175	642.21
779.357	668.83
779.539	535.71
779.721	685.22
779.903	693.41
780.085	681.12
780.267	619.68
780.449	629.92
780.631	625.83
780.812	634.02
780.994	595.11
781.176	509.09
781.358	605.35
781.54	586.91
781.721	605.35
781.903	490.66
782.085	568.48
782.267	593.06
782.448	591.01
782.63	527.52
782.812	537.76
782.993	554.15
783.175	504.99
783.357	502.95
783.538	543.91
783.72	613.54
783.901	576.67
784.083	466.08
784.264	425.12
784.446	427.17
784.627	464.04
784.809	496.8
784.99	429.22
785.172	474.28
785.353	447.65
785.535	552.1
785.716	478.37
785.897	429.22
786.079	461.99
786.26	453.8
786.441	466.08
786.623	414.88
786.804	386.21
786.985	449.7
787.167	445.6
787.348	445.6
787.529	429.22
787.71	394.4
787.891	449.7
788.073	427.17
788.254	404.64
788.435	449.7
788.616	375.97
788.797	363.69
788.978	390.31
789.159	388.26
789.34	449.7
789.522	425.12
789.703	484.52
789.884	421.03
790.065	429.22
790.246	392.36
790.427	341.16
790.607	476.32
790.788	478.37
790.969	400.55
791.15	404.64
791.331	388.26
791.512	365.73
791.693	316.58
791.874	388.26
792.054	429.22
792.235	302.25
792.416	330.92
792.597	357.54
792.778	416.93
792.958	414.88
793.139	306.34
793.32	292.01
793.5	320.68
793.681	404.64
793.862	357.54
794.042	380.07
794.223	273.57
794.404	349.35
794.584	259.24
794.765	359.59
794.945	355.49
795.126	355.49
795.306	316.58
795.487	322.73
795.667	326.82
795.848	253.09
796.028	292.01
796.209	339.11
796.389	306.34
796.57	224.42
796.75	322.73
796.93	400.55
797.111	343.21
797.291	199.85
797.471	351.4
797.652	269.48
797.832	224.42
798.012	249
798.192	265.38
798.373	363.69
798.553	240.81
798.733	312.49
798.913	236.71
799.093	365.73
799.274	324.77
799.454	277.67
799.634	347.3
799.814	289.96
799.994	228.52
800.174	281.77
800.354	259.24
800.534	187.56
800.714	296.1
800.894	203.94
801.074	201.9
801.254	224.42
801.434	316.58
801.614	267.43
801.794	236.71
801.974	834.72
802.154	212.14
802.334	242.85
802.514	228.52
802.693	183.46
802.873	210.09
803.053	322.73
803.233	218.28
803.413	240.81
803.592	212.14
803.772	191.66
803.952	222.38
804.131	216.23
804.311	289.96
804.491	249
804.67	167.08
804.85	265.38
805.03	220.33
805.209	236.71
805.389	226.47
805.568	162.98
805.748	216.23
805.928	253.09
806.107	216.23
806.287	185.51
806.466	220.33
806.646	275.62
806.825	228.52
807.004	187.56
807.184	205.99
807.363	249
807.543	158.89
807.722	257.19
807.901	253.09
808.081	222.38
808.26	167.08
808.439	218.28
808.619	154.79
808.798	185.51
808.977	226.47
809.156	187.56
809.336	179.37
809.515	242.85
809.694	218.28
809.873	210.09
810.052	128.17
810.231	130.22
810.411	165.03
810.59	226.47
810.769	181.42
810.948	189.61
811.127	81.07
811.306	201.9
811.485	208.04
811.664	210.09
811.843	201.9
812.022	158.89
812.201	136.36
812.38	324.77
812.559	175.27
812.737	130.22
812.916	117.93
813.095	130.22
813.274	167.08
813.453	265.38
813.632	201.9
813.811	183.46
813.989	111.78
814.168	83.11
814.347	81.07
814.526	142.5
814.704	152.74
814.883	160.94
815.062	158.89
815.24	152.74
815.419	117.93
815.598	122.02
815.776	136.36
815.955	128.17
816.133	117.93
816.312	130.22
816.49	81.07
816.669	95.4
816.847	136.36
817.026	218.28
817.204	85.16
817.383	81.07
817.561	70.83
817.74	62.63
817.918	134.31
818.097	140.46
818.275	150.7
818.453	165.03
818.632	162.98
818.81	160.94
818.988	134.31
819.167	156.84
819.345	142.5
819.523	93.35
819.701	103.59
819.879	99.5
820.058	136.36
820.236	103.59
820.414	68.78
820.592	109.74
820.77	76.97
820.948	38.06
821.127	101.55
821.305	81.07
821.483	95.4
821.661	107.69
821.839	85.16
822.017	60.59
822.195	122.02
822.373	156.84
822.551	136.36
822.729	177.32
822.907	95.4
823.085	144.55
823.262	134.31
823.44	132.26
823.618	181.42
823.796	87.21
823.974	72.87
824.152	107.69
824.329	54.44
824.507	62.63
824.685	201.9
824.863	113.83
825.04	105.64
825.218	85.16
825.396	119.98
825.574	115.88
825.751	117.93
825.929	165.03
826.107	64.68
826.284	144.55
826.462	185.51
826.639	93.35
826.817	79.02
826.994	113.83
827.172	111.78
827.349	150.7
827.527	107.69
827.704	148.65
827.882	130.22
828.059	126.12
828.237	93.35
828.414	119.98
828.591	48.3
828.769	175.27
828.946	54.44
829.124	64.68
829.301	169.13
829.478	25.77
829.655	52.39
829.833	23.72
830.01	124.07
830.187	79.02
830.364	72.87
830.542	81.07
830.719	150.7
830.896	7.34
831.073	128.17
831.25	160.94
831.427	95.4
831.604	138.41
831.782	52.39
831.959	46.25
832.136	79.02
832.313	126.12
832.49	81.07
832.667	54.44
832.844	38.06
833.021	85.16
833.198	109.74
833.374	128.17
833.551	68.78
833.728	52.39
833.905	62.63
834.082	68.78
834.259	68.78
834.436	115.88
834.612	83.11
834.789	136.36
834.966	109.74
835.143	109.74
835.319	95.4
835.496	107.69
835.673	68.78
835.85	64.68
836.026	-23.38
836.203	56.49
836.38	46.25
836.556	85.16
836.733	48.3
836.909	83.11
837.086	19.63
837.262	132.26
837.439	99.5
837.616	160.94
837.792	101.55
837.968	27.82
838.145	42.15
838.321	7.34
838.498	62.63
838.674	76.97
838.851	81.07
839.027	62.63
839.203	42.15
839.38	89.26
839.556	111.78
839.732	62.63
839.909	64.68
840.085	-4.95
840.261	99.5
840.437	46.25
840.614	-19.29
840.79	46.25
840.966	89.26
841.142	31.91
841.318	19.63
841.494	27.82
841.671	79.02
841.847	36.01
842.023	44.2
842.199	101.55
842.375	66.73
842.551	11.43
842.727	-17.24
842.903	109.74
843.079	42.15
843.255	64.68
843.431	-9.05
843.607	56.49
843.783	-29.52
843.959	81.07
844.134	-17.24
844.31	154.79
844.486	44.2
844.662	-2.9
844.838	1.19
845.013	83.11
845.189	46.25
845.365	-27.48
845.541	44.2
845.716	11.43
845.892	85.16
846.068	44.2
846.244	83.11
846.419	93.35
846.595	-43.86
846.77	-25.43
846.946	52.39
847.122	29.87
847.297	56.49
847.473	117.93
847.648	-9.05
847.824	7.34
847.999	-4.95
848.175	70.83
848.35	70.83
848.526	111.78
848.701	3.24
848.876	111.78
849.052	60.59
849.227	54.44
849.403	29.87
849.578	-60.24
849.753	-15.19
849.929	72.87
850.104	3.24
850.279	40.11
850.454	44.2
850.63	27.82
850.805	3.24
850.98	60.59
851.155	-45.91
851.33	46.25
851.505	46.25
851.681	46.25
851.856	-86.87
852.031	-39.76
852.206	29.87
852.381	11.43
852.556	68.78
852.731	46.25
852.906	85.16
853.081	23.72
853.256	15.53
853.431	70.83
853.606	-29.52
853.781	46.25
853.956	11.43
854.131	7.34
854.305	62.63
854.48	64.68
854.655	3.24
854.83	-13.14
855.005	33.96
855.18	31.91
855.354	44.2
855.529	36.01
855.704	-25.43
855.879	-0.85
856.053	15.53
856.228	38.06
856.403	-33.62
856.577	95.4
856.752	36.01
856.926	3.24
857.101	27.82
857.276	29.87
857.45	36.01
857.625	62.63
857.799	-23.38
857.974	-19.29
858.148	-13.14
858.323	27.82
858.497	76.97
858.672	3.24
858.846	36.01
859.02	-2.9
859.195	-27.48
859.369	9.39
859.543	19.63
859.718	72.87
859.892	-11.09
860.066	44.2
860.241	19.63
860.415	25.77
860.589	33.96
860.763	19.63
860.938	-2.9
861.112	44.2
861.286	-19.29
861.46	-21.33
861.634	76.97
861.808	101.55
861.982	27.82
862.157	-0.85
862.331	7.34
862.505	68.78
862.679	-29.52
862.853	29.87
863.027	-33.62
863.201	76.97
863.375	-68.44
863.549	64.68
863.722	27.82
863.896	38.06
864.07	48.3
864.244	-4.95
864.418	-9.05
864.592	48.3
864.766	-60.24
864.939	5.29
865.113	15.53
865.287	11.43
865.461	-4.95
865.634	15.53
865.808	3.24
865.982	-45.91
866.156	29.87
866.329	72.87
866.503	3.24
866.676	79.02
866.85	68.78
867.024	-23.38
867.197	29.87
867.371	46.25
867.544	-0.85
867.718	46.25
867.891	13.48
868.065	44.2
868.238	-25.43
868.412	56.49
868.585	40.11
868.759	11.43
868.932	1.19
869.105	-37.72
869.279	23.72
869.452	-97.11
869.625	62.63
869.799	27.82
869.972	-27.48
870.145	-2.9
870.319	-21.33
870.492	21.67
870.665	-13.14
870.838	17.58
871.011	13.48
871.185	-52.05
871.358	-13.14
871.531	54.44
871.704	-39.76
871.877	15.53
872.05	-21.33
872.223	81.07
872.396	-27.48
872.569	52.39
872.742	-50
872.915	42.15
873.088	44.2
873.261	7.34
873.434	21.67
873.607	-45.91
873.78	29.87
873.953	52.39
874.126	23.72
874.299	76.97
874.471	54.44
874.644	27.82
874.817	27.82
874.99	109.74
875.163	-21.33
875.335	70.83
875.508	-21.33
875.681	44.2
875.853	1.19
876.026	-17.24
876.199	-13.14
876.371	44.2
876.544	21.67
876.717	29.87
876.889	42.15
877.062	40.11
877.234	-13.14
877.407	23.72
877.579	21.67
877.752	-4.95
877.924	81.07
878.097	-4.95
878.269	64.68
878.442	-0.85
878.614	40.11
878.786	19.63
878.959	27.82
879.131	3.24
879.303	-0.85
879.476	68.78
879.648	-35.67
879.82	54.44
879.993	-47.96
880.165	27.82
880.337	-45.91
880.509	15.53
880.681	-27.48
880.854	40.11
881.026	81.07
881.198	144.55
881.37	21.67
881.542	9.39
881.714	-29.52
881.886	-37.72
882.058	-33.62
882.23	60.59
882.402	-11.09
882.574	23.72
882.746	-13.14
882.918	101.55
883.09	-35.67
883.262	-4.95
883.434	-76.63
883.606	-60.24
883.778	-25.43
883.95	62.63
884.122	-33.62
884.293	42.15
884.465	-13.14
884.637	87.21
884.809	-41.81
884.98	70.83
885.152	38.06
885.324	-4.95
885.496	54.44
885.667	-15.19
885.839	36.01
886.011	85.16
886.182	-25.43
886.354	36.01
886.525	83.11
886.697	-7
886.869	-17.24
887.04	97.45
887.212	54.44
887.383	27.82
887.555	-2.9
887.726	-4.95
887.897	27.82
888.069	-13.14
888.24	81.07
888.412	23.72
888.583	11.43
888.754	3.24
888.926	-15.19
889.097	74.92
889.268	-25.43
889.44	13.48
889.611	-25.43
889.782	-15.19
889.953	-11.09
890.125	56.49
890.296	21.67
890.467	-39.76
890.638	-37.72
890.809	40.11
890.98	-21.33
891.151	-17.24
891.323	19.63
891.494	13.48
891.665	-4.95
891.836	31.91
892.007	9.39
892.178	5.29
892.349	40.11
892.52	87.21
892.691	-0.85
892.862	-19.29
893.032	-54.1
893.203	3.24
893.374	-4.95
893.545	50.35
893.716	-45.91
893.887	-19.29
894.057	52.39
894.228	81.07
894.399	-58.2
894.57	70.83
894.74	-2.9
894.911	36.01
895.082	-52.05
895.253	-0.85
895.423	-37.72
895.594	46.25
895.764	81.07
895.935	40.11
896.106	19.63
896.276	-17.24
896.447	-29.52
896.617	-27.48
896.788	-11.09
896.958	19.63
897.129	36.01
897.299	21.67
897.47	54.44
897.64	-2.9
897.81	5.29
897.981	13.48
898.151	-21.33
898.322	-33.62
898.492	44.2
898.662	23.72
898.832	7.34
899.003	-0.85
899.173	-52.05
899.343	36.01
899.513	9.39
