Data from USB4F104151__25__14-16-26-034.txt Node

Date: Thu Mar 13 14:16:26 EDT 2025
User: louis
Spectrometer: USB4F10415
Trigger mode: 4
Integration Time (sec): 2.000000E-2
Scans to average: 1
Electric dark correction enabled: true
Nonlinearity correction enabled: false
Boxcar width: 0
XAxis mode: Wavelengths
Number of Pixels in Spectrum: 3648
>>>>>Begin Spectral Data<<<<<
178.204	-59.73
178.424	-59.73
178.644	-59.73
178.864	-135.51
179.084	-63.83
179.304	3.75
179.524	-65.88
179.744	69.29
179.964	16.04
180.184	-16.73
180.404	67.24
180.624	-47.44
180.844	-26.96
181.064	-35.16
181.283	18.09
181.503	11.95
181.723	5.8
181.943	48.81
182.163	59.05
182.383	11.95
182.602	11.95
182.822	81.58
183.042	18.09
183.262	30.38
183.482	71.34
183.701	18.09
183.921	71.34
184.141	-4.44
184.361	-61.78
184.58	-6.49
184.8	61.1
185.02	26.28
185.239	44.71
185.459	54.95
185.679	24.23
185.898	7.85
186.118	91.82
186.338	-33.11
186.557	93.87
186.777	34.47
186.997	34.47
187.216	-41.3
187.436	79.53
187.655	50.86
187.875	-37.2
188.095	-0.34
188.314	63.15
188.534	44.71
188.753	9.9
188.973	34.47
189.192	46.76
189.412	61.1
189.631	22.19
189.851	59.05
190.07	104.11
190.29	-24.92
190.509	-24.92
190.729	-29.01
190.948	26.28
191.168	83.63
191.387	77.48
191.607	26.28
191.826	36.52
192.045	73.39
192.265	79.53
192.484	13.99
192.704	-14.68
192.923	54.95
193.142	110.25
193.362	50.86
193.581	69.29
193.8	61.1
194.02	-2.39
194.239	9.9
194.458	52.91
194.678	-8.53
194.897	20.14
195.116	61.1
195.335	75.43
195.555	-4.44
195.774	63.15
195.993	63.15
196.212	18.09
196.432	67.24
196.651	34.47
196.87	28.33
197.089	132.78
197.308	1.71
197.528	42.67
197.747	5.8
197.966	28.33
198.185	100.01
198.404	-57.68
198.623	75.43
198.842	42.67
199.062	30.38
199.281	26.28
199.5	18.09
199.719	63.15
199.938	22.19
200.157	32.43
200.376	50.86
200.595	83.63
200.814	63.15
201.033	34.47
201.252	34.47
201.471	50.86
201.69	-20.82
201.909	28.33
202.128	30.38
202.347	13.99
202.566	13.99
202.785	71.34
203.004	18.09
203.223	54.95
203.442	85.67
203.661	-57.68
203.879	-31.06
204.098	20.14
204.317	83.63
204.536	-29.01
204.755	54.95
204.974	75.43
205.193	93.87
205.411	67.24
205.63	42.67
205.849	100.01
206.068	36.52
206.287	-14.68
206.505	61.1
206.724	34.47
206.943	36.52
207.162	87.72
207.381	13.99
207.599	26.28
207.818	63.15
208.037	24.23
208.255	-10.58
208.474	9.9
208.693	-2.39
208.911	93.87
209.13	26.28
209.349	-31.06
209.567	-26.96
209.786	50.86
210.005	-2.39
210.223	-6.49
210.442	44.71
210.661	9.9
210.879	36.52
211.098	-47.44
211.316	77.48
211.535	100.01
211.753	38.57
211.972	52.91
212.191	40.62
212.409	-33.11
212.628	42.67
212.846	18.09
213.065	22.19
213.283	100.01
213.502	7.85
213.72	-10.58
213.938	26.28
214.157	-67.92
214.375	-14.68
214.594	81.58
214.812	-20.82
215.031	63.15
215.249	34.47
215.467	36.52
215.686	9.9
215.904	38.57
216.122	91.82
216.341	151.21
216.559	11.95
216.778	30.38
216.996	59.05
217.214	20.14
217.432	-90.45
217.651	-55.64
217.869	69.29
218.087	46.76
218.306	-4.44
218.524	3.75
218.742	83.63
218.96	11.95
219.179	102.06
219.397	-4.44
219.615	59.05
219.833	91.82
220.051	20.14
220.27	16.04
220.488	-10.58
220.706	34.47
220.924	7.85
221.142	83.63
221.36	30.38
221.578	-20.82
221.796	20.14
222.015	-29.01
222.233	-26.96
222.451	132.78
222.669	42.67
222.887	32.43
223.105	-26.96
223.323	18.09
223.541	-22.87
223.759	-26.96
223.977	52.91
224.195	102.06
224.413	40.62
224.631	44.71
224.849	24.23
225.067	100.01
225.285	-31.06
225.503	5.8
225.721	-45.4
225.939	20.14
226.157	54.95
226.375	100.01
226.592	-31.06
226.81	1.71
227.028	52.91
227.246	59.05
227.464	26.28
227.682	-51.54
227.9	26.28
228.117	67.24
228.335	71.34
228.553	65.19
228.771	-18.77
228.989	9.9
229.206	106.15
229.424	54.95
229.642	32.43
229.86	13.99
230.077	22.19
230.295	54.95
230.513	13.99
230.731	97.96
230.948	61.1
231.166	79.53
231.384	-29.01
231.601	-6.49
231.819	1.71
232.037	77.48
232.254	11.95
232.472	-26.96
232.689	-14.68
232.907	50.86
233.125	-14.68
233.342	-14.68
233.56	-12.63
233.777	-6.49
233.995	18.09
234.213	5.8
234.43	57
234.648	48.81
234.865	73.39
235.083	20.14
235.3	79.53
235.518	52.91
235.735	85.67
235.953	110.25
236.17	30.38
236.388	34.47
236.605	-35.16
236.822	75.43
237.04	20.14
237.257	-2.39
237.475	-35.16
237.692	42.67
237.909	28.33
238.127	-37.2
238.344	67.24
238.562	28.33
238.779	-35.16
238.996	3.75
239.214	59.05
239.431	81.58
239.648	22.19
239.865	104.11
240.083	32.43
240.3	38.57
240.517	-12.63
240.735	67.24
240.952	54.95
241.169	26.28
241.386	77.48
241.603	54.95
241.821	22.19
242.038	100.01
242.255	77.48
242.472	-37.2
242.689	13.99
242.907	52.91
243.124	63.15
243.341	75.43
243.558	9.9
243.775	75.43
243.992	-10.58
244.209	128.68
244.426	126.63
244.643	61.1
244.86	34.47
245.078	54.95
245.295	-47.44
245.512	3.75
245.729	-12.63
245.946	9.9
246.163	89.77
246.38	-12.63
246.597	30.38
246.814	-0.34
247.031	7.85
247.248	46.76
247.464	52.91
247.681	69.29
247.898	93.87
248.115	-29.01
248.332	-26.96
248.549	9.9
248.766	52.91
248.983	59.05
249.2	34.47
249.417	-18.77
249.633	7.85
249.85	108.2
250.067	-16.73
250.284	-8.53
250.501	-2.39
250.717	3.75
250.934	22.19
251.151	59.05
251.368	9.9
251.585	67.24
251.801	11.95
252.018	22.19
252.235	83.63
252.451	-41.3
252.668	18.09
252.885	34.47
253.102	-35.16
253.318	75.43
253.535	42.67
253.752	67.24
253.968	59.05
254.185	-26.96
254.401	7.85
254.618	11.95
254.835	-31.06
255.051	93.87
255.268	26.28
255.484	34.47
255.701	24.23
255.917	149.16
256.134	-0.34
256.351	71.34
256.567	34.47
256.784	65.19
257	110.25
257.217	132.78
257.433	124.58
257.65	65.19
257.866	122.54
258.082	7.85
258.299	126.63
258.515	26.28
258.732	1.71
258.948	34.47
259.165	100.01
259.381	5.8
259.597	91.82
259.814	-4.44
260.03	32.43
260.246	42.67
260.463	36.52
260.679	38.57
260.895	52.91
261.112	50.86
261.328	104.11
261.544	57
261.761	91.82
261.977	75.43
262.193	-39.25
262.409	122.54
262.626	-2.39
262.842	42.67
263.058	-20.82
263.274	-6.49
263.49	-6.49
263.707	46.76
263.923	26.28
264.139	-39.25
264.355	36.52
264.571	28.33
264.787	-18.77
265.004	52.91
265.22	5.8
265.436	26.28
265.652	28.33
265.868	61.1
266.084	-29.01
266.3	102.06
266.516	63.15
266.732	83.63
266.948	85.67
267.164	134.82
267.38	26.28
267.596	44.71
267.812	20.14
268.028	46.76
268.244	18.09
268.46	-39.25
268.676	46.76
268.892	69.29
269.108	1.71
269.324	5.8
269.54	-12.63
269.756	75.43
269.972	9.9
270.188	34.47
270.403	13.99
270.619	50.86
270.835	36.52
271.051	57
271.267	-6.49
271.483	-14.68
271.698	77.48
271.914	36.52
272.13	-26.96
272.346	22.19
272.562	-39.25
272.777	36.52
272.993	42.67
273.209	34.47
273.425	9.9
273.64	77.48
273.856	71.34
274.072	-14.68
274.287	-2.39
274.503	50.86
274.719	63.15
274.934	73.39
275.15	20.14
275.366	11.95
275.581	18.09
275.797	9.9
276.012	-41.3
276.228	28.33
276.444	26.28
276.659	73.39
276.875	83.63
277.09	61.1
277.306	-37.2
277.521	59.05
277.737	-4.44
277.952	59.05
278.168	13.99
278.383	65.19
278.599	122.54
278.814	95.91
279.03	87.72
279.245	38.57
279.461	3.75
279.676	59.05
279.892	-51.54
280.107	67.24
280.322	-26.96
280.538	69.29
280.753	-22.87
280.969	95.91
281.184	87.72
281.399	44.71
281.615	75.43
281.83	-8.53
282.045	40.62
282.26	52.91
282.476	-8.53
282.691	93.87
282.906	26.28
283.122	50.86
283.337	-47.44
283.552	-14.68
283.767	22.19
283.983	77.48
284.198	9.9
284.413	26.28
284.628	26.28
284.843	67.24
285.058	114.34
285.274	59.05
285.489	73.39
285.704	110.25
285.919	-31.06
286.134	-18.77
286.349	42.67
286.564	16.04
286.779	20.14
286.995	-12.63
287.21	71.34
287.425	81.58
287.64	20.14
287.855	110.25
288.07	22.19
288.285	83.63
288.5	67.24
288.715	63.15
288.93	-14.68
289.145	28.33
289.36	-0.34
289.575	20.14
289.79	57
290.004	67.24
290.219	89.77
290.434	-12.63
290.649	-20.82
290.864	28.33
291.079	18.09
291.294	42.67
291.509	81.58
291.724	-14.68
291.938	20.14
292.153	83.63
292.368	34.47
292.583	34.47
292.798	79.53
293.012	44.71
293.227	11.95
293.442	-29.01
293.657	-31.06
293.871	108.2
294.086	67.24
294.301	20.14
294.516	124.58
294.73	81.58
294.945	-22.87
295.16	-2.39
295.374	77.48
295.589	75.43
295.804	63.15
296.018	3.75
296.233	34.47
296.447	32.43
296.662	1.71
296.877	67.24
297.091	91.82
297.306	34.47
297.52	110.25
297.735	34.47
297.949	40.62
298.164	-18.77
298.378	67.24
298.593	3.75
298.807	36.52
299.022	63.15
299.236	140.97
299.451	46.76
299.665	73.39
299.88	100.01
300.094	20.14
300.309	11.95
300.523	59.05
300.737	32.43
300.952	-18.77
301.166	3.75
301.381	-29.01
301.595	108.2
301.809	-53.59
302.024	95.91
302.238	42.67
302.452	63.15
302.667	-2.39
302.881	83.63
303.095	71.34
303.309	34.47
303.524	20.14
303.738	-35.16
303.952	67.24
304.166	52.91
304.381	9.9
304.595	100.01
304.809	50.86
305.023	52.91
305.237	32.43
305.452	67.24
305.666	75.43
305.88	75.43
306.094	48.81
306.308	3.75
306.522	71.34
306.736	-10.58
306.95	77.48
307.164	54.95
307.379	-6.49
307.593	93.87
307.807	112.3
308.021	67.24
308.235	-20.82
308.449	-18.77
308.663	52.91
308.877	71.34
309.091	9.9
309.305	-22.87
309.519	-59.73
309.733	116.39
309.947	13.99
310.161	69.29
310.374	42.67
310.588	100.01
310.802	42.67
311.016	38.57
311.23	-14.68
311.444	-8.53
311.658	61.1
311.872	11.95
312.085	118.44
312.299	44.71
312.513	91.82
312.727	38.57
312.941	34.47
313.154	52.91
313.368	75.43
313.582	91.82
313.796	59.05
314.009	75.43
314.223	69.29
314.437	-10.58
314.651	40.62
314.864	-10.58
315.078	18.09
315.292	22.19
315.505	7.85
315.719	-8.53
315.933	85.67
316.146	59.05
316.36	-4.44
316.573	40.62
316.787	-43.35
317.001	9.9
317.214	30.38
317.428	5.8
317.641	63.15
317.855	20.14
318.068	22.19
318.282	-14.68
318.495	112.3
318.709	30.38
318.922	79.53
319.136	77.48
319.349	46.76
319.563	13.99
319.776	85.67
319.99	26.28
320.203	167.59
320.417	75.43
320.63	69.29
320.843	-24.92
321.057	18.09
321.27	-69.97
321.483	85.67
321.697	87.72
321.91	67.24
322.124	26.28
322.337	3.75
322.55	13.99
322.763	42.67
322.977	83.63
323.19	-12.63
323.403	36.52
323.617	71.34
323.83	77.48
324.043	67.24
324.256	46.76
324.469	1.71
324.683	108.2
324.896	42.67
325.109	77.48
325.322	-10.58
325.535	34.47
325.748	67.24
325.962	28.33
326.175	44.71
326.388	11.95
326.601	77.48
326.814	-10.58
327.027	5.8
327.24	61.1
327.453	-39.25
327.666	61.1
327.879	22.19
328.092	122.54
328.305	38.57
328.518	44.71
328.731	108.2
328.944	13.99
329.157	97.96
329.37	110.25
329.583	24.23
329.796	104.11
330.009	-2.39
330.222	93.87
330.435	120.49
330.648	75.43
330.861	5.8
331.073	67.24
331.286	42.67
331.499	61.1
331.712	-4.44
331.925	149.16
332.138	34.47
332.35	91.82
332.563	67.24
332.776	34.47
332.989	61.1
333.202	34.47
333.414	71.34
333.627	97.96
333.84	95.91
334.053	42.67
334.265	34.47
334.478	48.81
334.691	-8.53
334.903	1.71
335.116	83.63
335.329	13.99
335.541	77.48
335.754	50.86
335.966	50.86
336.179	89.77
336.392	36.52
336.604	9.9
336.817	93.87
337.029	75.43
337.242	-0.34
337.454	22.19
337.667	85.67
337.88	52.91
338.092	79.53
338.305	38.57
338.517	106.15
338.729	118.44
338.942	102.06
339.154	59.05
339.367	-6.49
339.579	34.47
339.792	44.71
340.004	75.43
340.217	87.72
340.429	61.1
340.641	-47.44
340.854	-6.49
341.066	75.43
341.278	83.63
341.491	83.63
341.703	75.43
341.915	83.63
342.128	79.53
342.34	71.34
342.552	-2.39
342.764	61.1
342.977	20.14
343.189	110.25
343.401	18.09
343.613	30.38
343.826	67.24
344.038	11.95
344.25	38.57
344.462	13.99
344.674	-22.87
344.886	-2.39
345.099	50.86
345.311	73.39
345.523	71.34
345.735	-18.77
345.947	81.58
346.159	28.33
346.371	36.52
346.583	59.05
346.795	32.43
347.007	30.38
347.219	73.39
347.431	46.76
347.643	59.05
347.855	42.67
348.067	95.91
348.279	124.58
348.491	26.28
348.703	52.91
348.915	5.8
349.127	30.38
349.339	61.1
349.551	34.47
349.763	83.63
349.975	54.95
350.187	67.24
350.399	34.47
350.61	50.86
350.822	-14.68
351.034	85.67
351.246	128.68
351.458	54.95
351.669	-43.35
351.881	118.44
352.093	116.39
352.305	40.62
352.517	42.67
352.728	124.58
352.94	-14.68
353.152	50.86
353.363	20.14
353.575	26.28
353.787	81.58
353.999	5.8
354.21	54.95
354.422	44.71
354.633	36.52
354.845	50.86
355.057	26.28
355.268	44.71
355.48	52.91
355.692	34.47
355.903	75.43
356.115	20.14
356.326	61.1
356.538	40.62
356.749	20.14
356.961	69.29
357.172	69.29
357.384	69.29
357.595	118.44
357.807	175.78
358.018	18.09
358.23	46.76
358.441	85.67
358.653	9.9
358.864	54.95
359.075	46.76
359.287	52.91
359.498	124.58
359.709	50.86
359.921	77.48
360.132	46.76
360.344	5.8
360.555	-18.77
360.766	67.24
360.977	38.57
361.189	54.95
361.4	-31.06
361.611	63.15
361.823	42.67
362.034	-10.58
362.245	7.85
362.456	77.48
362.667	-6.49
362.879	63.15
363.09	77.48
363.301	-14.68
363.512	34.47
363.723	102.06
363.935	11.95
364.146	28.33
364.357	-18.77
364.568	40.62
364.779	44.71
364.99	102.06
365.201	46.76
365.412	52.91
365.623	-0.34
365.834	67.24
366.045	38.57
366.256	83.63
366.467	40.62
366.678	100.01
366.889	83.63
367.1	59.05
367.311	75.43
367.522	44.71
367.733	89.77
367.944	63.15
368.155	44.71
368.366	50.86
368.577	77.48
368.788	130.73
368.999	34.47
369.209	61.1
369.42	75.43
369.631	93.87
369.842	46.76
370.053	26.28
370.264	40.62
370.474	67.24
370.685	114.34
370.896	26.28
371.107	59.05
371.317	50.86
371.528	38.57
371.739	54.95
371.95	13.99
372.16	59.05
372.371	-37.2
372.582	-45.4
372.792	42.67
373.003	63.15
373.214	22.19
373.424	50.86
373.635	46.76
373.846	100.01
374.056	65.19
374.267	112.3
374.477	77.48
374.688	18.09
374.898	-51.54
375.109	67.24
375.319	1.71
375.53	124.58
375.74	134.82
375.951	-43.35
376.161	48.81
376.372	48.81
376.582	11.95
376.793	59.05
377.003	-20.82
377.214	-20.82
377.424	52.91
377.635	-4.44
377.845	9.9
378.055	59.05
378.266	48.81
378.476	153.26
378.686	59.05
378.897	48.81
379.107	20.14
379.317	59.05
379.528	42.67
379.738	61.1
379.948	22.19
380.158	67.24
380.369	46.76
380.579	85.67
380.789	34.47
380.999	85.67
381.21	104.11
381.42	188.07
381.63	79.53
381.84	126.63
382.05	22.19
382.261	181.93
382.471	75.43
382.681	40.62
382.891	87.72
383.101	28.33
383.311	28.33
383.521	44.71
383.731	67.24
383.941	89.77
384.151	36.52
384.361	75.43
384.571	100.01
384.781	59.05
384.991	93.87
385.201	108.2
385.411	-4.44
385.621	110.25
385.831	91.82
386.041	69.29
386.251	18.09
386.461	28.33
386.671	44.71
386.881	89.77
387.091	5.8
387.301	93.87
387.511	28.33
387.72	44.71
387.93	83.63
388.14	71.34
388.35	61.1
388.56	42.67
388.769	59.05
388.979	59.05
389.189	71.34
389.399	-0.34
389.609	36.52
389.818	63.15
390.028	30.38
390.238	77.48
390.447	95.91
390.657	34.47
390.867	124.58
391.076	16.04
391.286	157.35
391.496	42.67
391.705	26.28
391.915	183.98
392.125	93.87
392.334	38.57
392.544	108.2
392.753	112.3
392.963	48.81
393.172	102.06
393.382	87.72
393.591	140.97
393.801	30.38
394.01	110.25
394.22	61.1
394.429	124.58
394.639	114.34
394.848	102.06
395.058	61.1
395.267	93.87
395.477	155.3
395.686	30.38
395.895	173.74
396.105	118.44
396.314	91.82
396.524	77.48
396.733	67.24
396.942	143.02
397.152	97.96
397.361	124.58
397.57	100.01
397.78	132.78
397.989	61.1
398.198	116.39
398.407	83.63
398.617	177.83
398.826	145.06
399.035	34.47
399.244	106.15
399.453	116.39
399.663	87.72
399.872	200.36
400.081	89.77
400.29	130.73
400.499	71.34
400.708	97.96
400.917	34.47
401.127	71.34
401.336	83.63
401.545	173.74
401.754	110.25
401.963	143.02
402.172	67.24
402.381	124.58
402.59	120.49
402.799	97.96
403.008	54.95
403.217	59.05
403.426	128.68
403.635	126.63
403.844	102.06
404.053	149.16
404.262	136.87
404.471	190.12
404.68	140.97
404.888	91.82
405.097	153.26
405.306	95.91
405.515	167.59
405.724	138.92
405.933	175.78
406.142	212.65
406.35	165.54
406.559	218.79
406.768	202.41
406.977	224.94
407.185	192.17
407.394	214.7
407.603	204.46
407.812	188.07
408.02	263.85
408.229	194.22
408.438	216.74
408.646	267.94
408.855	212.65
409.064	257.7
409.272	214.7
409.481	304.81
409.69	280.23
409.898	222.89
410.107	302.76
410.315	280.23
410.524	267.94
410.733	321.19
410.941	382.63
411.15	255.65
411.358	353.96
411.567	411.3
411.775	386.72
411.984	419.49
412.192	460.45
412.401	431.78
412.609	530.08
412.818	454.31
413.026	456.36
413.234	501.41
413.443	485.03
413.651	538.27
413.86	558.75
414.068	607.91
414.276	560.8
414.485	577.19
414.693	730.78
414.901	648.86
415.11	607.91
415.318	689.82
415.526	732.83
415.734	700.06
415.943	800.41
416.151	741.02
416.359	730.78
416.567	788.13
416.776	880.29
416.984	824.99
417.192	902.81
417.4	880.29
417.608	919.2
417.817	992.92
418.025	1107.61
418.233	1095.32
418.441	1050.27
418.649	1193.62
418.857	1177.24
419.065	1201.82
419.273	1253.02
419.481	1255.06
419.689	1392.28
419.897	1382.04
420.105	1459.86
420.313	1435.28
420.521	1533.59
420.729	1623.7
420.937	1588.88
421.145	1803.92
421.353	1611.41
421.561	1826.45
421.769	1789.58
421.977	2037.39
422.185	1926.8
422.393	2080.39
422.601	2166.41
422.809	2061.96
423.017	2274.95
423.224	2291.34
423.432	2385.54
423.64	2442.89
423.848	2610.82
424.056	2619.01
424.263	2600.58
424.471	2797.18
424.679	2872.96
424.887	2905.73
425.094	3020.41
425.302	3100.28
425.51	3212.92
425.718	3214.97
425.925	3196.54
426.133	3360.38
426.341	3573.36
426.548	3745.39
426.756	3626.61
426.964	3671.67
427.171	4032.11
427.379	4040.3
427.586	4091.5
427.794	4195.95
428.001	4544.1
428.209	4601.44
428.417	4740.71
428.624	4916.83
428.832	4882.02
429.039	4834.91
429.247	4728.42
429.454	5322.33
429.662	5729.88
429.869	5391.96
430.076	5766.74
430.284	5389.91
430.491	5811.79
430.699	6020.69
430.906	6215.24
431.114	6145.61
431.321	6571.59
431.528	6485.58
431.736	7016
431.943	7388.73
432.15	6995.52
432.358	7102.01
432.565	7556.66
432.772	7419.45
432.979	7960.11
433.187	7929.39
433.394	8087.09
433.601	8558.12
433.808	8631.85
434.016	8908.32
434.223	8996.39
434.43	9469.47
434.637	9279.01
434.844	9965.07
435.052	10032.66
435.259	10049.04
435.466	10055.19
435.673	9946.64
435.88	10638.86
436.087	11136.51
436.294	11163.14
436.501	11093.51
436.708	11290.11
436.915	11539.96
437.122	12111.35
437.329	12226.03
437.537	12428.78
437.743	12576.23
437.95	12375.53
438.157	13002.21
438.364	13573.6
438.571	13446.62
438.778	13555.16
438.985	14833.1
439.192	14280.14
439.399	14769.61
439.606	14509.52
439.813	15066.56
440.02	16147.89
440.227	15635.9
440.433	15955.38
440.64	16217.52
440.847	15963.58
441.054	16692.65
441.261	17743.26
441.467	17427.87
441.674	17698.2
441.881	18591.12
442.088	18206.1
442.294	18025.88
442.501	18879.88
442.708	19088.78
442.914	19664.25
443.121	20663.66
443.328	20032.89
443.534	21611.87
443.741	20893.04
443.948	20585.84
444.154	22109.53
444.361	22173.02
444.568	21859.68
444.774	21876.06
444.981	22297.94
445.187	22969.68
445.394	23692.61
445.6	23684.42
445.807	25734.43
446.013	24882.48
446.22	25300.26
446.426	26209.56
446.633	26184.99
446.839	27141.39
447.046	26301.72
447.252	27561.22
447.459	27663.62
447.665	27827.46
447.871	28691.7
448.078	29902.05
448.284	28310.78
448.491	29471.98
448.697	30434.52
448.903	31085.78
449.11	31005.91
449.316	30581.98
449.522	31132.88
449.728	32122.05
449.935	32199.87
450.141	32085.19
450.347	32847.03
450.553	31538.38
450.76	32500.92
450.966	33051.83
451.172	33064.11
451.378	34145.44
451.584	33117.36
451.791	34321.57
451.997	33825.96
452.203	34213.02
452.409	34233.5
452.615	34170.02
452.821	32904.37
453.027	32259.26
453.233	33993.89
453.44	33109.17
453.646	33189.04
453.852	33375.41
454.058	33887.4
454.264	32849.08
454.47	33854.63
454.676	32687.29
454.882	33707.18
455.088	31147.22
455.294	31048.91
455.5	31675.59
455.705	32201.92
455.911	31065.3
456.117	30577.88
456.323	30239.97
456.529	28407.03
456.735	29695.21
456.941	28988.66
457.147	28394.75
457.352	27419.91
457.558	27503.88
457.764	27501.83
457.97	26711.32
458.176	26156.32
458.381	26236.19
458.587	25171.24
458.793	25025.84
458.999	23700.8
459.204	25296.17
459.41	24692.02
459.616	23194.95
459.821	23090.51
460.027	23188.81
460.233	22730.06
460.438	21730.66
460.644	21921.12
460.85	20342.13
461.055	20288.89
461.261	20411.76
461.466	18855.31
461.672	18238.87
461.878	19379.59
462.083	17964.44
462.289	18122.13
462.494	17720.73
462.7	17122.73
462.905	16516.53
463.111	17153.44
463.316	17180.07
463.522	16774.57
463.727	16575.92
463.932	16766.38
464.138	16655.79
464.343	16457.14
464.549	16139.7
464.754	16754.09
464.959	16807.34
465.165	16448.94
465.37	15805.88
465.575	15443.39
465.781	16219.57
465.986	16082.36
466.191	15394.24
466.397	15297.99
466.602	14476.75
466.807	15295.94
467.012	15160.77
467.218	15345.09
467.423	14699.98
467.628	14996.93
467.833	15302.08
468.038	14919.11
468.244	14294.48
468.449	15005.13
468.654	14376.4
468.859	14493.13
469.064	14185.94
469.269	13635.03
469.474	13948.37
469.679	14233.04
469.885	13723.1
470.09	13901.27
470.295	13737.43
470.5	13501.92
470.705	13448.67
470.91	13454.81
471.115	13164
471.32	13379.04
471.525	13182.43
471.73	12979.68
471.935	13055.46
472.139	12486.12
472.344	12713.45
472.549	12686.83
472.754	12266.99
472.959	12252.66
473.164	11757.05
473.369	12004.85
473.574	12187.12
473.778	12111.35
473.983	11945.46
474.188	12097.01
474.393	11412.99
474.598	11507.2
474.802	11380.22
475.007	11320.83
475.212	11240.96
475.417	10833.41
475.621	10763.78
475.826	11103.75
476.031	10720.78
476.235	10477.07
476.44	10718.73
476.645	10509.83
476.849	10522.12
477.054	10315.28
477.259	10237.45
477.463	10159.63
477.668	9768.47
477.872	10094.1
478.077	9922.07
478.282	9639.45
478.486	9399.84
478.691	9594.39
478.895	9389.6
479.1	9309.72
479.304	9610.78
479.509	9307.68
479.713	9365.02
479.918	9135.65
480.122	8857.12
480.326	9088.54
480.531	9149.98
480.735	8982.05
480.94	8998.43
481.144	9152.03
481.348	8826.4
481.553	8910.37
481.757	8807.97
481.961	8980
482.166	9184.8
482.37	8838.69
482.574	8693.29
482.778	8959.52
482.983	9006.63
483.187	8654.37
483.391	8801.83
483.595	8748.58
483.8	8767.01
484.004	8664.61
484.208	8842.79
484.412	8816.16
484.616	8767.01
484.821	8951.33
485.025	8654.37
485.229	8889.89
485.433	8683.05
485.637	8730.15
485.841	8734.25
486.045	8781.35
486.249	8623.66
486.453	8572.46
486.657	8857.12
486.861	8789.54
487.065	8511.02
487.269	8838.69
487.473	8613.42
487.677	8777.25
487.881	8707.62
488.085	8941.09
488.289	8939.04
488.493	8902.18
488.697	8934.95
488.901	8865.32
489.105	8662.57
489.309	8715.81
489.512	8963.62
489.716	8885.8
489.92	8887.84
490.124	8871.46
490.328	8867.36
490.531	8904.23
490.735	8912.42
490.939	9174.56
491.143	8975.91
491.346	9160.22
491.55	9047.58
491.754	9236
491.958	9303.58
492.161	9149.98
492.365	9479.71
492.569	9358.88
492.772	9328.16
492.976	9336.35
493.18	9426.46
493.383	9373.21
493.587	9496.09
493.79	9766.42
493.994	9467.42
494.197	9661.98
494.401	9782.81
494.605	9885.2
494.808	10104.34
495.012	9850.39
495.215	9997.84
495.419	10028.56
495.622	10116.62
495.825	10403.34
496.029	10104.34
496.232	10333.71
496.436	10475.02
496.639	10575.37
496.843	10446.35
497.046	10872.32
497.249	10753.54
497.453	11132.42
497.656	11099.65
497.859	11013.63
498.063	11210.24
498.266	11668.98
498.469	11286.01
498.673	11603.45
498.876	11734.52
499.079	11929.08
499.282	11701.75
499.485	12068.34
499.689	12301.81
499.892	12412.4
500.095	12482.03
500.298	12594.67
500.501	12414.45
500.705	12903.91
500.908	13041.12
501.111	13266.4
501.314	13221.34
501.517	13391.33
501.72	13624.79
501.923	13573.6
502.126	13979.09
502.329	13784.54
502.532	14253.52
502.735	14194.13
502.938	14132.69
503.141	14583.24
503.344	14804.42
503.547	14853.58
503.75	15156.68
503.953	15068.61
504.156	15381.95
504.359	15312.32
504.562	15623.61
504.765	15801.79
504.968	16031.16
505.17	16330.16
505.373	16238
505.576	16774.57
505.779	16651.69
505.982	16760.23
506.185	16987.56
506.387	16930.22
506.59	17470.88
506.793	17556.89
506.996	17724.83
507.198	18242.96
507.401	17978.78
507.604	18451.86
507.807	18627.98
508.009	18812.3
508.212	18871.69
508.415	19133.83
508.617	19348.87
508.82	19322.24
509.022	19336.58
509.225	19772.8
509.428	19430.79
509.63	20018.55
509.833	20135.29
510.035	20596.08
510.238	20682.1
510.44	21046.63
510.643	21298.53
510.845	21615.97
511.048	21312.87
511.25	21310.82
511.453	21704.03
511.655	22680.91
511.858	22349.14
512.06	22386.01
512.262	22865.23
512.465	22691.15
512.667	22848.85
512.87	23496
513.072	23520.58
513.274	23825.73
513.477	24051
513.679	24212.79
513.881	24491.32
514.084	24864.05
514.286	24571.19
514.488	24915.25
514.69	25652.52
514.893	25711.91
515.095	25589.03
515.297	26260.76
515.499	26062.11
515.701	26463.51
515.904	26772.75
516.106	27196.68
516.308	27333.9
516.51	27643.14
516.712	27675.91
516.914	27976.96
517.116	28411.13
517.318	28423.42
517.52	28749.04
517.722	28935.41
517.925	29093.1
518.127	29701.35
518.329	29897.95
518.531	29799.65
518.733	30137.57
518.935	30428.38
519.136	30481.63
519.338	30954.71
519.54	30876.88
519.742	31282.38
519.944	31247.57
520.146	31859.91
520.348	31790.28
520.55	32236.73
520.752	32263.36
520.954	32814.26
521.155	32670.9
521.357	33062.07
521.559	33379.5
521.761	33760.42
521.963	33830.05
522.164	34047.14
522.366	34000.04
522.568	34155.68
522.77	34735.26
522.971	35255.44
523.173	34552.99
523.375	35445.9
523.576	35312.78
523.778	35355.79
523.98	35888.26
524.181	35808.39
524.383	35794.06
524.584	36244.61
524.786	36181.12
524.988	36260.99
525.189	36854.9
525.391	37305.46
525.592	37053.56
525.794	37219.44
525.995	37284.98
526.197	37745.77
526.398	37876.84
526.6	37837.93
526.801	38239.33
527.003	38341.73
527.204	38237.28
527.406	38591.58
527.607	38771.8
527.808	38816.86
528.01	38294.63
528.211	38706.27
528.412	39908.43
528.614	39498.83
528.815	39001.18
529.016	39689.29
529.218	39238.74
529.419	39599.18
529.62	39474.26
529.822	39478.35
530.023	39617.61
530.224	39771.21
530.425	39588.94
530.626	39855.18
530.828	39308.37
531.029	40653.89
531.23	40184.9
531.431	39900.23
531.632	39963.72
531.833	40129.61
532.035	40232
532.236	40191.05
532.437	40408.13
532.638	40156.23
532.839	40346.69
533.04	40920.12
533.241	40250.44
533.442	41081.91
533.643	40543.3
533.844	40279.11
534.045	40733.76
534.246	39963.72
534.447	40916.03
534.648	40512.58
534.849	40657.98
535.05	40143.94
535.251	40307.78
535.451	40537.15
535.652	40782.91
535.853	40232
536.054	40707.13
536.255	40774.72
536.456	40301.64
536.657	40887.35
536.857	40567.87
537.058	40295.49
537.259	40598.59
537.46	40574.02
537.66	40680.51
537.861	40907.83
538.062	40561.73
538.263	40703.04
538.463	40565.82
538.664	40262.72
538.865	40621.12
539.065	41106.49
539.266	40516.67
539.466	40770.62
539.667	40035.4
539.868	40668.22
540.068	40393.79
540.269	40358.98
540.469	40936.51
540.67	40313.92
540.87	40500.29
541.071	40152.13
541.271	40279.11
541.472	40639.55
541.672	40162.37
541.873	40098.89
542.073	39984.2
542.274	40424.51
542.474	40174.66
542.675	40078.41
542.875	40438.85
543.075	40674.37
543.276	40016.97
543.476	40660.03
543.676	39863.37
543.877	40328.26
544.077	40305.73
544.277	40453.19
544.478	40557.63
544.678	40410.18
544.878	39918.67
545.078	40246.34
545.279	40102.98
545.479	40455.23
545.679	40236.1
545.879	40379.46
546.079	40191.05
546.28	40178.76
546.48	39662.67
546.68	40152.13
546.88	39877.71
547.08	39933
547.28	40199.24
547.48	39838.79
547.68	40152.13
547.88	39926.86
548.081	39734.35
548.281	39748.68
548.481	39707.72
548.681	40340.55
548.881	40117.32
549.081	40217.67
549.28	39525.46
549.48	40404.03
549.68	39709.77
549.88	40309.83
550.08	39992.39
550.28	40084.55
550.48	39701.58
550.68	39877.71
550.88	39734.35
551.08	39570.51
551.279	39951.43
551.479	39359.57
551.679	39941.19
551.879	39734.35
552.079	39742.54
552.278	39605.33
552.478	39701.58
552.678	39726.16
552.878	39779.4
553.077	39421.01
553.277	39470.16
553.477	39941.19
553.676	39312.47
553.876	39750.73
554.076	39089.24
554.275	39689.29
554.475	39472.21
554.674	39556.18
554.874	39312.47
555.074	39265.36
555.273	39683.15
555.473	39533.65
555.672	39289.94
555.872	39216.21
556.071	39332.95
556.271	38984.79
556.47	39183.44
556.67	39097.43
556.869	38767.71
557.068	39281.75
557.268	38794.33
557.467	39087.19
557.667	39244.88
557.866	38911.06
558.065	38792.28
558.265	38843.48
558.464	38491.23
558.663	39142.49
558.863	38300.77
559.062	38796.38
559.261	38567.01
559.461	39203.92
559.66	38308.96
559.859	38732.89
560.058	38362.21
560.258	38302.82
560.457	38237.28
560.656	38491.23
560.855	38052.97
561.054	38161.51
561.253	37862.5
561.453	38280.29
561.652	38048.87
561.851	38360.16
562.05	37616.75
562.249	37760.11
562.448	38091.88
562.647	37602.41
562.846	37452.91
563.045	37788.78
563.244	37463.15
563.443	37815.4
563.642	37319.79
563.841	37594.22
564.04	37184.63
564.239	37651.56
564.438	37385.33
564.637	37313.65
564.836	37526.64
565.035	36828.28
565.234	37211.25
565.432	36924.54
565.631	36461.69
565.83	36988.02
566.029	36734.07
566.228	36762.75
566.427	36553.85
566.625	36680.83
566.824	36682.87
567.023	36709.5
567.222	35912.84
567.42	36584.57
567.619	36525.18
567.818	36066.44
568.016	36510.85
568.215	36279.43
568.414	36078.72
568.612	36226.18
568.811	35820.68
569.01	35939.46
569.208	35566.73
569.407	35935.37
569.605	35765.38
569.804	35951.75
570.002	35239.06
570.201	35777.67
570.4	35150.99
570.598	35429.52
570.797	35140.75
570.995	35597.45
571.193	34430.11
571.392	34987.16
571.59	35079.32
571.789	34819.22
571.987	34657.43
572.186	34325.66
572.384	34577.56
572.582	34708.63
572.781	34325.66
572.979	34118.82
573.177	34112.67
573.376	34229.41
573.574	33717.42
573.772	34127.01
573.971	34030.76
574.169	33727.66
574.367	33778.86
574.565	33696.94
574.763	33629.35
574.962	33526.96
575.16	33119.41
575.358	32902.32
575.556	33070.26
575.754	33406.12
575.952	33180.85
576.151	33336.49
576.349	32887.99
576.547	32941.24
576.745	33072.31
576.943	33236.14
577.141	33019.06
577.339	32513.21
577.537	32701.62
577.735	32459.96
577.933	32163.01
578.131	32384.19
578.329	32298.17
578.527	32087.23
578.725	32177.34
578.923	32195.78
579.121	32083.14
579.319	32021.7
579.516	32001.22
579.714	31923.4
579.912	31784.13
580.11	31384.78
580.308	31431.88
580.506	31329.48
580.704	31179.98
580.901	31276.24
581.099	31902.92
581.297	30948.56
581.495	30784.72
581.692	30897.36
581.89	30833.88
582.088	31030.48
582.285	30805.2
582.483	31106.26
582.681	30641.37
582.878	30606.55
583.076	30184.67
583.274	30649.56
583.471	30123.23
583.669	30465.24
583.866	29983.97
584.064	30563.54
584.262	29900
584.459	30450.91
584.657	29670.63
584.854	30078.18
585.052	29541.61
585.249	29662.44
585.447	29275.37
585.644	29125.87
585.841	29607.14
586.039	29367.53
586.236	29101.29
586.434	29148.4
586.631	29033.71
586.828	29037.81
587.026	29068.53
587.223	28744.95
587.42	28574.97
587.618	29009.14
587.815	28536.06
588.012	28595.45
588.21	28310.78
588.407	28488.95
588.604	28538.1
588.801	28120.32
588.999	28282.11
589.196	27903.23
589.393	27856.13
589.59	28091.65
589.787	27845.89
589.984	27587.85
590.182	27702.53
590.379	27972.86
590.576	27282.7
590.773	27651.33
590.97	27360.52
591.167	27337.99
591.364	27303.18
591.561	27254.03
591.758	26998.03
591.955	26807.57
592.152	27059.47
592.349	26727.7
592.546	26895.63
592.743	26754.32
592.94	26303.77
593.137	26590.48
593.334	26856.72
593.531	26387.74
593.727	26467.61
593.924	26522.9
594.121	26121.5
594.318	26555.67
594.515	25795.87
594.712	26285.34
594.908	25687.33
595.105	26060.06
595.302	25515.3
595.499	25810.21
595.696	25564.45
595.892	25330.98
596.089	25677.09
596.286	25310.5
596.482	25521.45
596.679	25484.58
596.876	25068.84
597.072	25376.04
597.269	25208.11
597.466	24782.13
597.662	24933.68
597.859	25136.43
598.055	25171.24
598.252	24741.17
598.448	24622.39
598.645	24567.09
598.841	24460.6
599.038	24589.62
599.234	24423.73
599.431	24204.6
599.627	23862.59
599.824	24247.61
600.02	24042.81
600.217	24128.83
600.413	24130.87
600.609	23487.81
600.806	23434.57
601.002	23643.46
601.198	23797.06
601.395	23366.98
601.591	23371.08
601.787	23528.77
601.984	23547.2
602.18	23598.4
602.376	23387.46
602.572	23332.17
602.769	23139.66
602.965	23133.51
603.161	23188.81
603.357	22975.82
603.553	22766.93
603.75	22637.91
603.946	22701.39
604.142	22826.32
604.338	22420.82
604.534	22725.97
604.73	22189.4
604.926	22259.03
605.122	22502.74
605.318	22138.2
605.514	22177.11
605.71	22101.34
605.906	22211.93
606.102	21603.68
606.298	22111.58
606.494	21939.55
606.69	22072.67
606.886	21962.08
607.082	21474.66
607.278	22009.18
607.474	21382.5
607.67	21622.11
607.866	21495.14
608.062	21943.64
608.257	21642.59
608.453	21294.44
608.649	21648.74
608.845	21501.28
609.041	21366.12
609.236	21263.72
609.432	21144.94
609.628	20948.33
609.824	20927.85
610.019	20913.52
610.215	20809.07
610.411	21009.77
610.606	20960.62
610.802	20921.71
610.998	20903.28
611.193	20721.01
611.389	21036.39
611.584	20794.73
611.78	20485.49
611.976	20657.52
612.171	20450.67
612.367	20354.42
612.562	20409.72
612.758	20172.15
612.953	20276.6
613.149	20530.55
613.344	20374.9
613.539	20616.56
613.735	20524.4
613.93	20215.16
614.126	19879.29
614.321	20360.56
614.517	19967.35
614.712	20202.87
614.907	20016.51
615.103	20202.87
615.298	19731.84
615.493	20168.05
615.688	19991.93
615.884	20096.38
616.079	19604.86
616.274	19740.03
616.47	19795.32
616.665	19731.84
616.86	19606.91
617.055	19803.52
617.25	19363.2
617.445	19510.66
617.641	19178.89
617.836	19420.55
618.031	19219.85
618.226	19391.87
618.421	19197.32
618.616	19621.25
618.811	18781.58
619.006	18949.51
619.201	18894.22
619.396	18937.23
619.591	18947.47
619.786	18623.89
619.981	18771.34
620.176	18603.41
620.371	18283.92
620.566	18511.25
620.761	18279.83
620.956	18417.04
621.151	17993.11
621.346	18091.41
621.541	17919.39
621.735	18138.52
621.93	17982.87
622.125	17798.56
622.32	17493.41
622.515	17745.31
622.709	17479.07
622.904	17606.05
623.099	17483.17
623.294	17327.52
623.488	17057.19
623.683	16928.17
623.878	17290.66
624.072	16860.59
624.267	17108.39
624.462	17049
624.656	16831.91
624.851	16616.88
625.046	16569.77
625.24	16487.86
625.435	16399.79
625.629	16450.99
625.824	16061.88
626.018	15975.86
626.213	15846.84
626.407	16082.36
626.602	15703.48
626.796	16063.93
626.991	15926.71
627.185	15705.53
627.38	15455.68
627.574	15388.1
627.768	15445.44
627.963	15187.39
628.157	15035.85
628.352	15222.21
628.546	14927.3
628.74	15361.47
628.935	15082.95
629.129	14966.21
629.323	14751.18
629.517	14663.11
629.712	14677.45
629.906	14366.16
630.1	14335.44
630.294	14384.59
630.489	14106.07
630.683	14128.6
630.877	13919.7
631.071	14085.59
631.265	13962.71
631.459	13948.37
631.653	13680.09
631.848	13917.65
632.042	13821.4
632.236	13632.99
632.43	13661.66
632.624	13618.65
632.818	13465.05
633.012	13260.26
633.206	13004.26
633.4	13356.51
633.594	12912.1
633.788	13071.84
633.982	13026.79
634.176	13067.75
634.369	12821.99
634.563	13004.26
634.757	12854.76
634.951	12815.85
635.145	12580.33
635.339	12654.06
635.533	12426.73
635.726	12633.58
635.92	12469.74
636.114	12432.88
636.308	12066.29
636.501	12097.01
636.695	12279.28
636.889	12168.69
637.083	11933.17
637.276	12025.33
637.47	11765.24
637.664	11841.01
637.857	12015.09
638.051	11791.86
638.244	11613.69
638.438	11552.25
638.632	11572.73
638.825	11527.67
639.019	11408.89
639.212	11359.74
639.406	11253.25
639.599	11220.48
639.793	11077.12
639.986	10991.11
640.18	11265.53
640.373	11064.83
640.567	10851.85
640.76	11073.03
640.954	10929.67
641.147	10558.99
641.34	10845.7
641.534	10696.2
641.727	10601.99
641.92	10530.31
642.114	10655.24
642.307	10577.42
642.5	10556.94
642.694	10298.89
642.887	10186.26
643.08	10270.22
643.273	10307.09
643.467	10247.69
643.66	9772.57
643.853	10145.3
644.046	9991.7
644.239	9940.5
644.432	9868.82
644.626	9627.16
644.819	9606.68
645.012	9946.64
645.205	9610.78
645.398	9535
645.591	9506.33
645.784	9498.14
645.977	9397.79
646.17	9416.22
646.363	9250.33
646.556	9215.52
646.749	9410.08
646.942	9215.52
647.135	9180.7
647.328	9029.15
647.521	9170.46
647.714	9025.06
647.907	8973.86
648.099	8963.62
648.292	8857.12
648.485	8711.72
648.678	8650.28
648.871	8654.37
649.064	8836.64
649.256	8693.29
649.449	8613.42
649.642	8611.37
649.835	8637.99
650.027	8529.45
650.22	8252.97
650.413	8375.85
650.605	8326.7
650.798	8373.8
650.991	8214.06
651.183	8330.8
651.376	8150.57
651.568	8212.01
651.761	8234.54
651.954	7874.1
652.146	8037.94
652.339	8097.33
652.531	7904.82
652.724	7939.63
652.916	7753.27
653.109	7908.91
653.301	7827
653.494	7648.82
653.686	7710.26
653.879	7704.12
654.071	7556.66
654.263	7611.96
654.456	7702.07
654.648	7423.55
654.84	7452.22
655.033	7450.17
655.225	7341.63
655.417	7276.09
655.61	7415.35
655.802	7351.87
655.994	7204.41
656.186	7333.43
656.379	7095.87
656.571	7192.12
656.763	6942.27
656.955	6915.65
657.148	7059.01
657.34	6848.07
657.532	6823.49
657.724	6905.41
657.916	6884.93
658.108	6835.78
658.3	6696.52
658.492	6942.27
658.684	6884.93
658.876	6739.52
659.068	6606.41
659.26	6555.21
659.452	6612.55
659.644	6559.3
659.836	6565.45
660.028	6602.31
660.22	6516.3
660.412	6655.56
660.604	6260.3
660.796	6440.52
660.988	6256.2
661.18	6278.73
661.372	6209.1
661.563	6233.68
661.755	6237.77
661.947	6164.04
662.139	6141.52
662.331	6047.31
662.522	6000.21
662.714	6022.73
662.906	6078.03
663.097	5871.19
663.289	5942.86
663.481	5770.83
663.673	5996.11
663.864	5877.33
664.056	5809.75
664.247	5893.71
664.439	5809.75
664.631	5731.92
664.822	5779.03
665.014	5760.59
665.205	5607
665.397	5670.48
665.588	5686.87
665.78	5551.7
665.971	5496.41
666.163	5596.76
666.354	5572.18
666.546	5588.57
666.737	5490.26
666.929	5340.76
667.12	5377.62
667.311	5486.17
667.503	5285.47
667.694	5269.08
667.885	5269.08
668.077	5396.06
668.268	5432.92
668.459	5273.18
668.651	5228.12
668.842	5195.36
669.033	5181.02
669.224	5187.16
669.416	5117.53
669.607	5244.51
669.798	5133.92
669.989	5074.53
670.18	4986.46
670.371	5062.24
670.563	5019.23
670.754	5035.61
670.945	4963.93
671.136	4900.45
671.327	4884.06
671.518	4974.17
671.709	4841.06
671.9	4990.56
672.091	4810.34
672.282	4839.01
672.473	4914.78
672.664	4812.39
672.855	4773.47
673.046	4965.98
673.237	4796
673.428	4900.45
673.619	4705.89
673.809	4814.43
674	4744.8
674.191	4722.27
674.382	4730.47
674.573	4654.69
674.764	4554.34
674.954	4535.91
675.145	4548.2
675.336	4519.53
675.527	4648.55
675.717	4640.36
675.908	4423.27
676.099	4460.13
676.289	4509.29
676.48	4425.32
676.671	4441.7
676.861	4466.28
677.052	4525.67
677.243	4396.65
677.433	4417.13
677.624	4236.91
677.814	4396.65
678.005	4294.25
678.195	4288.11
678.386	4431.46
678.576	4286.06
678.767	4423.27
678.957	4216.43
679.148	4308.58
679.338	4355.69
679.529	4245.1
679.719	4249.19
679.909	4449.89
680.1	4327.02
680.29	4279.91
680.481	4335.21
680.671	4236.91
680.861	4288.11
681.052	4173.42
681.242	4322.92
681.432	4333.16
681.622	4208.23
681.813	4189.8
682.003	4224.62
682.193	4267.63
682.383	4138.6
682.573	4245.1
682.764	4030.06
682.954	4085.36
683.144	4118.12
683.334	4140.65
683.524	4232.81
683.714	4220.52
683.904	4081.26
684.094	4058.73
684.284	4150.89
684.474	4058.73
684.664	4097.64
684.854	3950.19
685.044	4032.11
685.234	4015.73
685.424	3964.53
685.614	3917.42
685.804	4015.73
685.994	3929.71
686.184	4152.94
686.374	3954.29
686.564	3868.27
686.753	3950.19
686.943	3952.24
687.133	3970.67
687.323	3749.49
687.513	3894.9
687.702	3835.5
687.892	4009.58
688.082	3755.63
688.272	3786.35
688.461	3675.76
688.651	3774.07
688.841	3538.55
689.03	3671.67
689.22	3702.39
689.41	3769.97
689.599	3665.52
689.789	3661.43
689.979	3663.47
690.168	3671.67
690.358	3638.9
690.547	3626.61
690.737	3690.1
690.926	3716.72
691.116	3583.6
691.305	3583.6
691.495	3409.53
691.684	3495.54
691.874	3526.26
692.063	3554.93
692.252	3378.81
692.442	3477.11
692.631	3417.72
692.82	3436.15
693.01	3421.81
693.199	3327.61
693.388	3526.26
693.578	3403.38
693.767	3346.04
693.956	3335.8
694.146	3487.35
694.335	3483.25
694.524	3346.04
694.713	3270.26
694.902	3245.69
695.092	3292.79
695.281	3270.26
695.47	3292.79
695.659	3272.31
695.848	3257.98
696.037	3266.17
696.226	3360.38
696.415	3255.93
696.604	3245.69
696.793	3200.63
696.982	3225.21
697.171	3407.48
697.36	3235.45
697.549	3243.64
697.738	3331.7
697.927	3223.16
698.116	3196.54
698.305	3116.67
698.494	3196.54
698.683	3231.35
698.872	3085.95
699.061	3053.18
699.25	3094.14
699.438	3151.48
699.627	3184.25
699.816	3075.71
700.005	2979.45
700.193	3122.81
700.382	3077.76
700.571	3124.86
700.76	3145.34
700.948	3147.39
701.137	3090.04
701.326	3122.81
701.514	3014.27
701.703	3055.23
701.892	3032.7
702.08	2995.84
702.269	3049.08
702.457	3012.22
702.646	3114.62
702.834	2987.65
703.023	3075.71
703.212	3163.77
703.4	3044.99
703.589	2989.69
703.777	3092.09
703.965	2944.64
704.154	2950.78
704.342	2952.83
704.531	3004.03
704.719	3016.32
704.907	3055.23
705.096	2881.15
705.284	2971.26
705.472	2870.91
705.661	2944.64
705.849	2979.45
706.037	3065.47
706.226	2946.69
706.414	2928.25
706.602	2895.49
706.79	2788.99
706.979	2909.82
707.167	3032.7
707.355	3008.12
707.543	3020.41
707.731	2870.91
707.919	2934.4
708.107	2770.56
708.296	2958.97
708.484	2815.62
708.672	2877.05
708.86	2913.92
709.048	2854.53
709.236	2928.25
709.424	2848.38
709.612	2881.15
709.8	2915.97
709.988	2762.37
710.176	2797.18
710.364	2821.76
710.551	2741.89
710.739	2791.04
710.927	2838.14
711.115	2864.77
711.303	2893.44
711.491	2926.21
711.679	2811.52
711.866	2791.04
712.054	2856.58
712.242	2682.5
712.43	2829.95
712.617	2793.09
712.805	2827.9
712.993	2823.81
713.181	2750.08
713.368	2897.53
713.556	2743.94
713.744	2723.46
713.931	2926.21
714.119	2758.27
714.306	2762.37
714.494	2872.96
714.682	2834.05
714.869	2688.64
715.057	2678.4
715.244	2604.67
715.432	2758.27
715.619	2696.83
715.807	2788.99
715.994	2715.27
716.182	2670.21
716.369	2705.03
716.556	2682.5
716.744	2664.07
716.931	2600.58
717.119	2782.85
717.306	2641.54
717.493	2616.96
717.681	2557.57
717.868	2608.77
718.055	2596.48
718.242	2713.22
718.43	2713.22
718.617	2709.12
718.804	2561.67
718.991	2586.24
719.179	2748.03
719.366	2651.78
719.553	2633.35
719.74	2614.91
719.927	2600.58
720.114	2537.09
720.301	2610.82
720.488	2483.84
720.676	2510.47
720.863	2604.67
721.05	2594.44
721.237	2565.76
721.424	2533
721.611	2625.15
721.798	2561.67
721.985	2580.1
722.172	2584.2
722.358	2479.75
722.545	2541.19
722.732	2426.5
722.919	2432.65
723.106	2502.28
723.293	2487.94
723.48	2469.51
723.667	2479.75
723.853	2569.86
724.04	2524.8
724.227	2524.8
724.414	2543.24
724.6	2471.56
724.787	2580.1
724.974	2557.57
725.161	2506.37
725.347	2524.8
725.534	2524.8
725.72	2414.21
725.907	2479.75
726.094	2573.96
726.28	2416.26
726.467	2459.27
726.653	2430.6
726.84	2504.32
727.027	2401.93
727.213	2494.08
727.4	2438.79
727.586	2444.93
727.773	2397.83
727.959	2434.69
728.145	2494.08
728.332	2424.45
728.518	2483.84
728.705	2479.75
728.891	2387.59
729.077	2387.59
729.264	2426.5
729.45	2508.42
729.636	2533
729.823	2475.65
730.009	2389.64
730.195	2444.93
730.382	2426.5
730.568	2385.54
730.754	2475.65
730.94	2363.01
731.126	2365.06
731.313	2420.36
731.499	2342.53
731.685	2459.27
731.871	2360.97
732.057	2420.36
732.243	2393.73
732.429	2383.49
732.615	2406.02
732.801	2436.74
732.987	2426.5
733.173	2461.32
733.359	2317.96
733.545	2215.56
733.731	2328.2
733.917	2352.77
734.103	2344.58
734.289	2303.62
734.475	2346.63
734.661	2330.25
734.847	2229.9
735.033	2260.62
735.219	2211.46
735.404	2252.42
735.59	2268.81
735.776	2242.18
735.962	2246.28
736.148	2283.14
736.333	2412.17
736.519	2305.67
736.705	2328.2
736.89	2199.18
737.076	2233.99
737.262	2229.9
737.447	2320.01
737.633	2197.13
737.819	2281.1
738.004	2190.99
738.19	2201.23
738.375	2147.98
738.561	2260.62
738.747	2201.23
738.932	2162.31
739.118	2139.79
739.303	2104.97
739.489	2152.07
739.674	2016.91
739.859	2150.03
740.045	2160.27
740.23	2254.47
740.416	2098.83
740.601	2178.7
740.786	2225.8
740.972	2121.35
741.157	2076.3
741.342	2033.29
741.528	2045.58
741.713	2131.59
741.898	2119.31
742.084	2033.29
742.269	2033.29
742.454	2002.57
742.639	2139.79
742.824	2074.25
743.01	2006.67
743.195	2113.16
743.38	2121.35
743.565	2029.2
743.75	2094.73
743.935	1951.37
744.12	1951.37
744.305	1908.37
744.49	1980.04
744.675	1992.33
744.86	1879.69
745.045	1922.7
745.23	1918.61
745.415	1953.42
745.6	2014.86
745.785	1885.84
745.97	1869.45
746.155	1814.16
746.34	1951.37
746.525	1789.58
746.71	1943.18
746.895	1722
747.079	1656.47
747.264	1797.78
747.449	1836.69
747.634	1752.72
747.819	1885.84
748.003	1695.38
748.188	1693.33
748.373	1705.62
748.557	1650.32
748.742	1736.34
748.927	1635.99
749.111	1619.6
749.296	1693.33
749.481	1617.55
749.665	1599.12
749.85	1617.55
750.034	1689.23
750.219	1722
750.404	1642.13
750.588	1576.59
750.773	1568.4
750.957	1592.98
751.141	1566.35
751.326	1566.35
751.51	1603.22
751.695	1582.74
751.879	1574.55
752.064	1547.92
752.248	1502.87
752.432	1572.5
752.617	1562.26
752.801	1537.68
752.985	1472.15
753.17	1539.73
753.354	1429.14
753.538	1537.68
753.722	1351.32
753.907	1394.33
754.091	1314.45
754.275	1351.32
754.459	1365.65
754.643	1369.75
754.828	1402.52
755.012	1382.04
755.196	1314.45
755.38	1306.26
755.564	1259.16
755.748	1218.2
755.932	1377.94
756.116	1345.17
756.3	1289.88
756.484	1289.88
756.668	1265.3
756.852	1205.91
757.036	1240.73
757.22	1246.87
757.404	1177.24
757.588	1244.82
757.772	1287.83
757.956	1162.9
758.14	1236.63
758.323	1205.91
758.507	1201.82
758.691	1140.38
758.875	1078.94
759.059	1267.35
759.242	1181.34
759.426	1175.19
759.61	1179.29
759.794	1060.51
759.977	1158.81
760.161	1167
760.345	1066.65
760.528	1050.27
760.712	1001.12
760.895	1087.13
761.079	1089.18
761.263	1019.55
761.446	1017.5
761.63	1042.07
761.813	1101.47
761.997	1017.5
762.18	1052.31
762.364	1064.6
762.547	966.3
762.731	1044.12
762.914	1089.18
763.098	978.59
763.281	1005.21
763.464	1068.7
763.648	976.54
763.831	1054.36
764.015	986.78
764.198	1031.83
764.381	976.54
764.564	994.97
764.748	898.72
764.931	911
765.114	962.2
765.297	943.77
765.481	833.18
765.664	1035.93
765.847	956.06
766.03	1009.31
766.213	845.47
766.397	939.68
766.58	917.15
766.763	1009.31
766.946	861.85
767.129	921.24
767.312	954.01
767.495	851.61
767.678	935.58
767.861	849.57
768.044	882.33
768.227	927.39
768.41	861.85
768.593	896.67
768.776	841.37
768.959	908.96
769.142	921.24
769.324	847.52
769.507	874.14
769.69	902.81
769.873	872.09
770.056	886.43
770.239	771.74
770.421	829.09
770.604	837.28
770.787	814.75
770.97	800.41
771.152	698.02
771.335	761.5
771.518	720.54
771.7	773.79
771.883	802.46
772.066	765.6
772.248	878.24
772.431	790.17
772.613	779.93
772.796	712.35
772.978	747.17
773.161	804.51
773.343	722.59
773.526	753.31
773.708	700.06
773.891	673.44
774.073	710.3
774.256	726.69
774.438	790.17
774.621	718.5
774.803	722.59
774.985	693.92
775.168	693.92
775.35	734.88
775.532	800.41
775.715	718.5
775.897	659.1
776.079	716.45
776.261	738.98
776.444	669.34
776.626	689.82
776.808	671.39
776.99	708.26
777.173	632.48
777.355	706.21
777.537	681.63
777.719	595.62
777.901	667.3
778.083	583.33
778.265	636.58
778.447	568.99
778.629	652.96
778.811	548.51
778.993	542.37
779.175	603.81
779.357	589.47
779.539	603.81
779.721	513.7
779.903	675.49
780.085	579.23
780.267	523.94
780.449	566.95
780.631	568.99
780.812	552.61
780.994	562.85
781.176	575.14
781.358	540.32
781.54	528.03
781.721	489.12
781.903	507.55
782.085	501.41
782.267	478.88
782.448	460.45
782.63	517.79
782.812	521.89
782.993	595.62
783.175	489.12
783.357	566.95
783.538	460.45
783.72	444.07
783.901	460.45
784.083	480.93
784.264	513.7
784.446	480.93
784.627	351.91
784.809	444.07
784.99	446.12
785.172	456.36
785.353	427.68
785.535	390.82
785.716	444.07
785.897	421.54
786.079	437.92
786.26	384.68
786.441	372.39
786.623	317.09
786.804	374.44
786.985	403.11
787.167	341.67
787.348	417.44
787.529	431.78
787.71	452.26
787.891	405.16
788.073	450.21
788.254	356.01
788.435	394.92
788.616	386.72
788.797	396.96
788.978	405.16
789.159	339.62
789.34	407.2
789.522	386.72
789.703	411.3
789.884	372.39
790.065	368.29
790.246	413.35
790.427	403.11
790.607	329.38
790.788	374.44
790.969	366.25
791.15	435.88
791.331	333.48
791.512	429.73
791.693	290.47
791.874	384.68
792.054	349.86
792.235	272.04
792.416	288.42
792.597	335.53
792.778	329.38
792.958	331.43
793.139	333.48
793.32	409.25
793.5	308.9
793.681	351.91
793.862	321.19
794.042	284.33
794.223	222.89
794.404	282.28
794.584	304.81
794.765	302.76
794.945	300.71
795.126	241.32
795.306	335.53
795.487	288.42
795.667	247.46
795.848	353.96
796.028	280.23
796.209	267.94
796.389	288.42
796.57	263.85
796.75	206.5
796.93	298.66
797.111	280.23
797.291	276.13
797.471	272.04
797.652	222.89
797.832	204.46
798.012	296.61
798.192	329.38
798.373	282.28
798.553	208.55
798.733	210.6
798.913	181.93
799.093	247.46
799.274	165.54
799.454	222.89
799.634	265.89
799.814	276.13
799.994	245.41
800.174	255.65
800.354	296.61
800.534	255.65
800.714	214.7
800.894	181.93
801.074	214.7
801.254	233.13
801.434	292.52
801.614	194.22
801.794	204.46
801.974	710.3
802.154	163.5
802.334	263.85
802.514	167.59
802.693	200.36
802.873	237.22
803.053	229.03
803.233	222.89
803.413	233.13
803.592	202.41
803.772	181.93
803.952	317.09
804.131	159.4
804.311	200.36
804.491	292.52
804.67	175.78
804.85	222.89
805.03	249.51
805.209	255.65
805.389	171.69
805.568	218.79
805.748	206.5
805.928	288.42
806.107	140.97
806.287	235.18
806.466	198.31
806.646	179.88
806.825	224.94
807.004	247.46
807.184	165.54
807.363	245.41
807.543	226.98
807.722	149.16
807.901	171.69
808.081	272.04
808.26	194.22
808.439	198.31
808.619	161.45
808.798	132.78
808.977	222.89
809.156	245.41
809.336	128.68
809.515	145.06
809.694	206.5
809.873	192.17
810.052	140.97
810.231	241.32
810.411	233.13
810.59	192.17
810.769	132.78
810.948	210.6
811.127	136.87
811.306	278.18
811.485	161.45
811.664	167.59
811.843	231.08
812.022	243.37
812.201	128.68
812.38	165.54
812.559	102.06
812.737	136.87
812.916	124.58
813.095	161.45
813.274	212.65
813.453	140.97
813.632	140.97
813.811	239.27
813.989	50.86
814.168	136.87
814.347	181.93
814.526	226.98
814.704	198.31
814.883	169.64
815.062	159.4
815.24	54.95
815.419	71.34
815.598	102.06
815.776	102.06
815.955	118.44
816.133	155.3
816.312	140.97
816.49	75.43
816.669	171.69
816.847	198.31
817.026	132.78
817.204	42.67
817.383	134.82
817.561	97.96
817.74	87.72
817.918	100.01
818.097	126.63
818.275	100.01
818.453	102.06
818.632	157.35
818.81	169.64
818.988	143.02
819.167	108.2
819.345	110.25
819.523	183.98
819.701	126.63
819.879	143.02
820.058	75.43
820.236	85.67
820.414	116.39
820.592	110.25
820.77	132.78
820.948	132.78
821.127	61.1
821.305	104.11
821.483	26.28
821.661	91.82
821.839	157.35
822.017	34.47
822.195	149.16
822.373	132.78
822.551	91.82
822.729	93.87
822.907	-10.58
823.085	120.49
823.262	75.43
823.44	71.34
823.618	73.39
823.796	102.06
823.974	93.87
824.152	79.53
824.329	112.3
824.507	104.11
824.685	126.63
824.863	93.87
825.04	149.16
825.218	63.15
825.396	149.16
825.574	59.05
825.751	110.25
825.929	93.87
826.107	83.63
826.284	143.02
826.462	63.15
826.639	1.71
826.817	52.91
826.994	95.91
827.172	52.91
827.349	91.82
827.527	108.2
827.704	124.58
827.882	181.93
828.059	110.25
828.237	75.43
828.414	143.02
828.591	34.47
828.769	69.29
828.946	106.15
829.124	75.43
829.301	165.54
829.478	44.71
829.655	130.73
829.833	116.39
830.01	59.05
830.187	75.43
830.364	52.91
830.542	132.78
830.719	161.45
830.896	28.33
831.073	110.25
831.25	89.77
831.427	128.68
831.604	63.15
831.782	108.2
831.959	134.82
832.136	118.44
832.313	112.3
832.49	116.39
832.667	93.87
832.844	104.11
833.021	85.67
833.198	71.34
833.374	108.2
833.551	136.87
833.728	73.39
833.905	93.87
834.082	32.43
834.259	120.49
834.436	159.4
834.612	42.67
834.789	63.15
834.966	81.58
835.143	59.05
835.319	-8.53
835.496	138.92
835.673	106.15
835.85	100.01
836.026	69.29
836.203	132.78
836.38	61.1
836.556	67.24
836.733	38.57
836.909	89.77
837.086	136.87
837.262	26.28
837.439	95.91
837.616	5.8
837.792	132.78
837.968	149.16
838.145	-12.63
838.321	73.39
838.498	71.34
838.674	100.01
838.851	114.34
839.027	110.25
839.203	50.86
839.38	46.76
839.556	-8.53
839.732	93.87
839.909	40.62
840.085	73.39
840.261	40.62
840.437	75.43
840.614	91.82
840.79	104.11
840.966	77.48
841.142	36.52
841.318	-6.49
841.494	93.87
841.671	95.91
841.847	75.43
842.023	-18.77
842.199	11.95
842.375	38.57
842.551	-6.49
842.727	18.09
842.903	100.01
843.079	18.09
843.255	63.15
843.431	77.48
843.607	63.15
843.783	7.85
843.959	77.48
844.134	-2.39
844.31	65.19
844.486	26.28
844.662	36.52
844.838	3.75
845.013	46.76
845.189	-14.68
845.365	44.71
845.541	122.54
845.716	54.95
845.892	89.77
846.068	3.75
846.244	26.28
846.419	34.47
846.595	-2.39
846.77	36.52
846.946	36.52
847.122	5.8
847.297	50.86
847.473	34.47
847.648	44.71
847.824	83.63
847.999	-10.58
848.175	95.91
848.35	40.62
848.526	93.87
848.701	63.15
848.876	-14.68
849.052	77.48
849.227	30.38
849.403	106.15
849.578	9.9
849.753	28.33
849.929	91.82
850.104	13.99
850.279	67.24
850.454	42.67
850.63	100.01
850.805	91.82
850.98	95.91
851.155	16.04
851.33	22.19
851.505	34.47
851.681	24.23
851.856	34.47
852.031	100.01
852.206	52.91
852.381	24.23
852.556	52.91
852.731	18.09
852.906	89.77
853.081	59.05
853.256	108.2
853.431	-14.68
853.606	-12.63
853.781	100.01
853.956	40.62
854.131	71.34
854.305	1.71
854.48	48.81
854.655	-6.49
854.83	-16.73
855.005	-0.34
855.18	9.9
855.354	63.15
855.529	112.3
855.704	11.95
855.879	38.57
856.053	42.67
856.228	13.99
856.403	1.71
856.577	-10.58
856.752	-41.3
856.926	40.62
857.101	50.86
857.276	50.86
857.45	44.71
857.625	75.43
857.799	26.28
857.974	116.39
858.148	-29.01
858.323	22.19
858.497	40.62
858.672	-39.25
858.846	34.47
859.02	36.52
859.195	22.19
859.369	-20.82
859.543	20.14
859.718	108.2
859.892	3.75
860.066	18.09
860.241	22.19
860.415	26.28
860.589	-26.96
860.763	20.14
860.938	-14.68
861.112	71.34
861.286	26.28
861.46	5.8
861.634	5.8
861.808	26.28
861.982	-29.01
862.157	30.38
862.331	-14.68
862.505	63.15
862.679	-29.01
862.853	-43.35
863.027	18.09
863.201	-20.82
863.375	-47.44
863.549	50.86
863.722	-2.39
863.896	9.9
864.07	18.09
864.244	-26.96
864.418	85.67
864.592	69.29
864.766	48.81
864.939	18.09
865.113	59.05
865.287	110.25
865.461	-39.25
865.634	75.43
865.808	69.29
865.982	59.05
866.156	61.1
866.329	26.28
866.503	-39.25
866.676	87.72
866.85	110.25
867.024	22.19
867.197	44.71
867.371	104.11
867.544	30.38
867.718	22.19
867.891	77.48
868.065	20.14
868.238	-22.87
868.412	38.57
868.585	13.99
868.759	22.19
868.932	71.34
869.105	26.28
869.279	59.05
869.452	40.62
869.625	26.28
869.799	1.71
869.972	34.47
870.145	36.52
870.319	36.52
870.492	-0.34
870.665	-2.39
870.838	26.28
871.011	-6.49
871.185	83.63
871.358	34.47
871.531	36.52
871.704	34.47
871.877	9.9
872.05	26.28
872.223	71.34
872.396	34.47
872.569	11.95
872.742	18.09
872.915	11.95
873.088	-26.96
873.261	-14.68
873.434	-14.68
873.607	63.15
873.78	52.91
873.953	-12.63
874.126	42.67
874.299	20.14
874.471	65.19
874.644	-45.4
874.817	46.76
874.99	50.86
875.163	26.28
875.335	65.19
875.508	3.75
875.681	75.43
875.853	34.47
876.026	108.2
876.199	3.75
876.371	61.1
876.544	-31.06
876.717	13.99
876.889	-29.01
877.062	28.33
877.234	-14.68
877.407	46.76
877.579	54.95
877.752	-6.49
877.924	9.9
878.097	36.52
878.269	20.14
878.442	1.71
878.614	-0.34
878.786	13.99
878.959	11.95
879.131	-10.58
879.303	13.99
879.476	-6.49
879.648	48.81
879.82	54.95
879.993	9.9
880.165	100.01
880.337	42.67
880.509	-43.35
880.681	54.95
880.854	1.71
881.026	18.09
881.198	77.48
881.37	54.95
881.542	22.19
881.714	9.9
881.886	67.24
882.058	-14.68
882.23	69.29
882.402	9.9
882.574	71.34
882.746	42.67
882.918	5.8
883.09	5.8
883.262	20.14
883.434	-18.77
883.606	-2.39
883.778	-22.87
883.95	75.43
884.122	26.28
884.293	-55.64
884.465	67.24
884.637	-20.82
884.809	20.14
884.98	34.47
885.152	52.91
885.324	69.29
885.496	22.19
885.667	-10.58
885.839	18.09
886.011	59.05
886.182	38.57
886.354	18.09
886.525	32.43
886.697	28.33
886.869	69.29
887.04	-18.77
887.212	-0.34
887.383	57
887.555	-39.25
887.726	28.33
887.897	-45.4
888.069	-22.87
888.24	40.62
888.412	34.47
888.583	44.71
888.754	28.33
888.926	-51.54
889.097	-45.4
889.268	20.14
889.44	97.96
889.611	22.19
889.782	-10.58
889.953	3.75
890.125	44.71
890.296	28.33
890.467	108.2
890.638	-20.82
890.809	-57.68
890.98	7.85
891.151	50.86
891.323	42.67
891.494	46.76
891.665	-47.44
891.836	18.09
892.007	120.49
892.178	3.75
892.349	-45.4
892.52	9.9
892.691	-14.68
892.862	-35.16
893.032	-72.02
893.203	-55.64
893.374	-20.82
893.545	52.91
893.716	11.95
893.887	83.63
894.057	-31.06
894.228	-35.16
894.399	-26.96
894.57	13.99
894.74	38.57
894.911	-2.39
895.082	-4.44
895.253	-59.73
895.423	-8.53
895.594	83.63
895.764	20.14
895.935	5.8
896.106	28.33
896.276	57
896.447	5.8
896.617	52.91
896.788	-53.59
896.958	-6.49
897.129	-31.06
897.299	1.71
897.47	48.81
897.64	28.33
897.81	-20.82
897.981	85.67
898.151	-55.64
898.322	9.9
898.492	-84.31
898.662	-18.77
898.832	18.09
899.003	-45.4
899.173	-14.68
899.343	48.81
899.513	-63.83
