Data from USB4F104151__119__14-18-35-887.txt Node

Date: Thu Mar 13 14:18:35 EDT 2025
User: louis
Spectrometer: USB4F10415
Trigger mode: 4
Integration Time (sec): 2.000000E-2
Scans to average: 1
Electric dark correction enabled: true
Nonlinearity correction enabled: false
Boxcar width: 0
XAxis mode: Wavelengths
Number of Pixels in Spectrum: 3648
>>>>>Begin Spectral Data<<<<<
178.204	-123.39
178.424	-123.39
178.644	-123.39
178.864	-154.11
179.084	-90.62
179.304	-12.8
179.524	-68.09
179.744	24.06
179.964	48.64
180.184	-12.8
180.404	-90.62
180.624	-20.99
180.844	28.16
181.064	-8.7
181.283	-6.66
181.503	34.3
181.723	85.5
181.943	-123.39
182.163	42.5
182.383	-12.8
182.602	122.37
182.822	-29.18
183.042	32.26
183.262	7.68
183.482	34.3
183.701	24.06
183.921	19.97
184.141	36.35
184.361	48.64
184.58	24.06
184.8	-4.61
185.02	30.21
185.239	7.68
185.459	-33.28
185.679	81.41
185.898	17.92
186.118	52.74
186.338	5.63
186.557	36.35
186.777	26.11
186.997	-29.18
187.216	-12.8
187.436	60.93
187.655	34.3
187.875	17.92
188.095	1.54
188.314	54.78
188.534	56.83
188.753	-31.23
188.973	65.02
189.192	101.89
189.412	13.82
189.631	-12.8
189.851	24.06
190.07	42.5
190.29	79.36
190.509	-16.9
190.729	-39.42
190.948	24.06
191.168	122.37
191.387	56.83
191.607	-0.51
191.826	15.87
192.045	19.97
192.265	103.93
192.484	7.68
192.704	58.88
192.923	-12.8
193.142	155.13
193.362	56.83
193.581	17.92
193.8	-25.09
194.02	24.06
194.239	56.83
194.458	24.06
194.678	-12.8
194.897	58.88
195.116	-2.56
195.335	15.87
195.555	34.3
195.774	32.26
195.993	17.92
196.212	89.6
196.432	36.35
196.651	60.93
196.87	-41.47
197.089	89.6
197.308	60.93
197.528	7.68
197.747	-47.62
197.966	11.78
198.185	17.92
198.404	1.54
198.623	-16.9
198.842	34.3
199.062	-27.14
199.281	85.5
199.5	30.21
199.719	126.46
199.938	-25.09
200.157	69.12
200.376	34.3
200.595	114.17
200.814	40.45
201.033	24.06
201.252	48.64
201.471	24.06
201.69	108.03
201.909	-0.51
202.128	52.74
202.347	15.87
202.566	-2.56
202.785	-20.99
203.004	-10.75
203.223	40.45
203.442	26.11
203.661	58.88
203.879	1.54
204.098	91.65
204.317	-16.9
204.536	67.07
204.755	40.45
204.974	50.69
205.193	-4.61
205.411	28.16
205.63	36.35
205.849	67.07
206.068	-39.42
206.287	-33.28
206.505	48.64
206.724	105.98
206.943	15.87
207.162	22.02
207.381	-27.14
207.599	-10.75
207.818	-23.04
208.037	56.83
208.255	48.64
208.474	69.12
208.693	32.26
208.911	65.02
209.13	40.45
209.349	24.06
209.567	24.06
209.786	1.54
210.005	28.16
210.223	52.74
210.442	-29.18
210.661	89.6
210.879	24.06
211.098	42.5
211.316	15.87
211.535	-8.7
211.753	-31.23
211.972	24.06
212.191	11.78
212.409	-8.7
212.628	75.26
212.846	15.87
213.065	36.35
213.283	7.68
213.502	50.69
213.72	-33.28
213.938	89.6
214.157	24.06
214.375	46.59
214.594	9.73
214.812	36.35
215.031	48.64
215.249	-4.61
215.467	-0.51
215.686	97.79
215.904	28.16
216.122	-53.76
216.341	48.64
216.559	26.11
216.778	132.61
216.996	130.56
217.214	42.5
217.432	81.41
217.651	40.45
217.869	-2.56
218.087	65.02
218.306	24.06
218.524	-12.8
218.742	50.69
218.96	-74.24
219.179	32.26
219.397	28.16
219.615	-0.51
219.833	36.35
220.051	52.74
220.27	62.98
220.488	60.93
220.706	-6.66
220.924	56.83
221.142	-0.51
221.36	42.5
221.578	69.12
221.796	-43.52
222.015	67.07
222.233	34.3
222.451	28.16
222.669	24.06
222.887	15.87
223.105	-25.09
223.323	13.82
223.541	24.06
223.759	56.83
223.977	32.26
224.195	65.02
224.413	108.03
224.631	-0.51
224.849	36.35
225.067	163.33
225.285	24.06
225.503	32.26
225.721	24.06
225.939	-37.38
226.157	1.54
226.375	89.6
226.592	52.74
226.81	15.87
227.028	60.93
227.246	60.93
227.464	67.07
227.682	9.73
227.9	56.83
228.117	7.68
228.335	38.4
228.553	32.26
228.771	-61.95
228.989	81.41
229.206	138.75
229.424	-57.86
229.642	-4.61
229.86	30.21
230.077	19.97
230.295	65.02
230.513	48.64
230.731	-4.61
230.948	34.3
231.166	89.6
231.384	44.54
231.601	67.07
231.819	34.3
232.037	-0.51
232.254	7.68
232.472	-20.99
232.689	-74.24
232.907	56.83
233.125	11.78
233.342	-0.51
233.56	52.74
233.777	24.06
233.995	-0.51
234.213	130.56
234.43	30.21
234.648	3.58
234.865	40.45
235.083	-10.75
235.3	42.5
235.518	65.02
235.735	32.26
235.953	65.02
236.17	54.78
236.388	69.12
236.605	-4.61
236.822	122.37
237.04	28.16
237.257	-14.85
237.475	15.87
237.692	7.68
237.909	140.8
238.127	-8.7
238.344	40.45
238.562	75.26
238.779	-4.61
238.996	32.26
239.214	-37.38
239.431	65.02
239.648	52.74
239.865	9.73
240.083	15.87
240.3	-0.51
240.517	24.06
240.735	15.87
240.952	56.83
241.169	32.26
241.386	32.26
241.603	-8.7
241.821	-25.09
242.038	-8.7
242.255	114.17
242.472	-2.56
242.689	7.68
242.907	28.16
243.124	24.06
243.341	7.68
243.558	-6.66
243.775	-55.81
243.992	-49.66
244.209	50.69
244.426	36.35
244.643	65.02
244.86	50.69
245.078	-29.18
245.295	142.85
245.512	-53.76
245.729	40.45
245.946	50.69
246.163	1.54
246.38	79.36
246.597	-8.7
246.814	32.26
247.031	-33.28
247.248	-6.66
247.464	34.3
247.681	1.54
247.898	40.45
248.115	36.35
248.332	9.73
248.549	114.17
248.766	93.69
248.983	15.87
249.2	11.78
249.417	48.64
249.633	-2.56
249.85	11.78
250.067	101.89
250.284	-20.99
250.501	44.54
250.717	1.54
250.934	36.35
251.151	-16.9
251.368	69.12
251.585	85.5
251.801	5.63
252.018	-31.23
252.235	40.45
252.451	-8.7
252.668	-25.09
252.885	110.08
253.102	-8.7
253.318	5.63
253.535	36.35
253.752	-10.75
253.968	50.69
254.185	-64
254.401	-25.09
254.618	7.68
254.835	26.11
255.051	-6.66
255.268	28.16
255.484	110.08
255.701	-12.8
255.917	87.55
256.134	-20.99
256.351	97.79
256.567	22.02
256.784	15.87
257	-23.04
257.217	40.45
257.433	42.5
257.65	46.59
257.866	65.02
258.082	17.92
258.299	34.3
258.515	48.64
258.732	-18.94
258.948	-31.23
259.165	38.4
259.381	24.06
259.597	101.89
259.814	15.87
260.03	24.06
260.246	-25.09
260.463	48.64
260.679	124.41
260.895	-8.7
261.112	81.41
261.328	-6.66
261.544	81.41
261.761	34.3
261.977	-41.47
262.193	-25.09
262.409	-12.8
262.626	-4.61
262.842	26.11
263.058	-6.66
263.274	75.26
263.49	65.02
263.707	3.58
263.923	28.16
264.139	24.06
264.355	73.21
264.571	38.4
264.787	40.45
265.004	-10.75
265.22	-37.38
265.436	7.68
265.652	-18.94
265.868	65.02
266.084	62.98
266.3	19.97
266.516	-6.66
266.732	54.78
266.948	87.55
267.164	32.26
267.38	15.87
267.596	17.92
267.812	-23.04
268.028	24.06
268.244	-16.9
268.46	81.41
268.676	9.73
268.892	83.45
269.108	28.16
269.324	1.54
269.54	1.54
269.756	34.3
269.972	34.3
270.188	17.92
270.403	17.92
270.619	11.78
270.835	-49.66
271.051	36.35
271.267	93.69
271.483	9.73
271.698	32.26
271.914	60.93
272.13	-47.62
272.346	5.63
272.562	54.78
272.777	128.51
272.993	50.69
273.209	99.84
273.425	81.41
273.64	3.58
273.856	1.54
274.072	32.26
274.287	93.69
274.503	3.58
274.719	36.35
274.934	15.87
275.15	69.12
275.366	26.11
275.581	38.4
275.797	17.92
276.012	-6.66
276.228	42.5
276.444	15.87
276.659	81.41
276.875	1.54
277.09	50.69
277.306	-8.7
277.521	28.16
277.737	-0.51
277.952	85.5
278.168	9.73
278.383	93.69
278.599	-4.61
278.814	71.17
279.03	11.78
279.245	56.83
279.461	40.45
279.676	-6.66
279.892	-41.47
280.107	-31.23
280.322	-12.8
280.538	67.07
280.753	-16.9
280.969	58.88
281.184	-12.8
281.399	101.89
281.615	-20.99
281.83	32.26
282.045	-0.51
282.26	81.41
282.476	-18.94
282.691	44.54
282.906	24.06
283.122	-20.99
283.337	58.88
283.552	105.98
283.767	-25.09
283.983	24.06
284.198	3.58
284.413	-4.61
284.628	-8.7
284.843	48.64
285.058	-23.04
285.274	34.3
285.489	-0.51
285.704	5.63
285.919	24.06
286.134	56.83
286.349	28.16
286.564	-33.28
286.779	58.88
286.995	44.54
287.21	-14.85
287.425	48.64
287.64	42.5
287.855	-66.05
288.07	42.5
288.285	105.98
288.5	44.54
288.715	83.45
288.93	-8.7
289.145	30.21
289.36	75.26
289.575	34.3
289.79	48.64
290.004	28.16
290.219	40.45
290.434	-4.61
290.649	15.87
290.864	26.11
291.079	7.68
291.294	77.31
291.509	32.26
291.724	1.54
291.938	-4.61
292.153	24.06
292.368	62.98
292.583	65.02
292.798	15.87
293.012	48.64
293.227	-25.09
293.442	-29.18
293.657	11.78
293.871	65.02
294.086	-0.51
294.301	148.99
294.516	-18.94
294.73	11.78
294.945	36.35
295.16	-8.7
295.374	40.45
295.589	58.88
295.804	15.87
296.018	56.83
296.233	142.85
296.447	36.35
296.662	22.02
296.877	81.41
297.091	114.17
297.306	40.45
297.52	52.74
297.735	99.84
297.949	83.45
298.164	24.06
298.378	19.97
298.593	-0.51
298.807	50.69
299.022	75.26
299.236	40.45
299.451	91.65
299.665	32.26
299.88	11.78
300.094	-31.23
300.309	15.87
300.523	9.73
300.737	-12.8
300.952	91.65
301.166	34.3
301.381	9.73
301.595	46.59
301.809	50.69
302.024	52.74
302.238	13.82
302.452	116.22
302.667	-20.99
302.881	116.22
303.095	97.79
303.309	89.6
303.524	34.3
303.738	77.31
303.952	15.87
304.166	7.68
304.381	-45.57
304.595	40.45
304.809	9.73
305.023	30.21
305.237	-25.09
305.452	-4.61
305.666	19.97
305.88	89.6
306.094	32.26
306.308	-8.7
306.522	48.64
306.736	15.87
306.95	60.93
307.164	-53.76
307.379	-33.28
307.593	48.64
307.807	17.92
308.021	54.78
308.235	91.65
308.449	-8.7
308.663	69.12
308.877	99.84
309.091	26.11
309.305	87.55
309.519	-41.47
309.733	-25.09
309.947	105.98
310.161	48.64
310.374	28.16
310.588	73.21
310.802	-29.18
311.016	50.69
311.23	44.54
311.444	56.83
311.658	77.31
311.872	81.41
312.085	65.02
312.299	19.97
312.513	-23.04
312.727	32.26
312.941	28.16
313.154	69.12
313.368	-88.57
313.582	24.06
313.796	-31.23
314.009	81.41
314.223	71.17
314.437	89.6
314.651	34.3
314.864	34.3
315.078	79.36
315.292	48.64
315.505	65.02
315.719	48.64
315.933	32.26
316.146	-23.04
316.36	30.21
316.573	120.32
316.787	15.87
317.001	32.26
317.214	81.41
317.428	-4.61
317.641	48.64
317.855	40.45
318.068	30.21
318.282	42.5
318.495	58.88
318.709	89.6
318.922	-8.7
319.136	36.35
319.349	17.92
319.563	17.92
319.776	56.83
319.99	40.45
320.203	132.61
320.417	-33.28
320.63	7.68
320.843	79.36
321.057	19.97
321.27	26.11
321.483	11.78
321.697	56.83
321.91	40.45
322.124	-8.7
322.337	36.35
322.55	24.06
322.763	65.02
322.977	48.64
323.19	-61.95
323.403	40.45
323.617	7.68
323.83	75.26
324.043	-0.51
324.256	79.36
324.469	-39.42
324.683	28.16
324.896	-0.51
325.109	-0.51
325.322	-4.61
325.535	48.64
325.748	124.41
325.962	1.54
326.175	65.02
326.388	114.17
326.601	93.69
326.814	13.82
327.027	15.87
327.24	103.93
327.453	-39.42
327.666	17.92
327.879	67.07
328.092	32.26
328.305	56.83
328.518	9.73
328.731	42.5
328.944	60.93
329.157	7.68
329.37	15.87
329.583	-2.56
329.796	50.69
330.009	24.06
330.222	-33.28
330.435	60.93
330.648	15.87
330.861	65.02
331.073	50.69
331.286	40.45
331.499	24.06
331.712	-16.9
331.925	-6.66
332.138	38.4
332.35	-25.09
332.563	11.78
332.776	48.64
332.989	52.74
333.202	28.16
333.414	69.12
333.627	134.65
333.84	65.02
334.053	44.54
334.265	-8.7
334.478	-14.85
334.691	24.06
334.903	56.83
335.116	-31.23
335.329	19.97
335.541	9.73
335.754	73.21
335.966	77.31
336.179	-10.75
336.392	48.64
336.604	-41.47
336.817	24.06
337.029	32.26
337.242	71.17
337.454	7.68
337.667	7.68
337.88	56.83
338.092	110.08
338.305	36.35
338.517	130.56
338.729	89.6
338.942	81.41
339.154	34.3
339.367	17.92
339.579	83.45
339.792	40.45
340.004	138.75
340.217	19.97
340.429	44.54
340.641	60.93
340.854	-6.66
341.066	-47.62
341.278	75.26
341.491	124.41
341.703	3.58
341.915	-49.66
342.128	42.5
342.34	1.54
342.552	-16.9
342.764	-2.56
342.977	40.45
343.189	-2.56
343.401	44.54
343.613	26.11
343.826	81.41
344.038	91.65
344.25	67.07
344.462	56.83
344.674	89.6
344.886	24.06
345.099	7.68
345.311	89.6
345.523	85.5
345.735	9.73
345.947	67.07
346.159	28.16
346.371	65.02
346.583	24.06
346.795	54.78
347.007	34.3
347.219	69.12
347.431	-12.8
347.643	85.5
347.855	-14.85
348.067	60.93
348.279	34.3
348.491	91.65
348.703	67.07
348.915	60.93
349.127	-35.33
349.339	46.59
349.551	36.35
349.763	54.78
349.975	58.88
350.187	97.79
350.399	58.88
350.61	30.21
350.822	50.69
351.034	7.68
351.246	71.17
351.458	83.45
351.669	34.3
351.881	89.6
352.093	48.64
352.305	24.06
352.517	65.02
352.728	50.69
352.94	-0.51
353.152	17.92
353.363	40.45
353.575	42.5
353.787	40.45
353.999	146.94
354.21	118.27
354.422	85.5
354.633	65.02
354.845	128.51
355.057	11.78
355.268	79.36
355.48	38.4
355.692	17.92
355.903	19.97
356.115	93.69
356.326	60.93
356.538	9.73
356.749	91.65
356.961	85.5
357.172	56.83
357.384	81.41
357.595	103.93
357.807	40.45
358.018	-6.66
358.23	-6.66
358.441	42.5
358.653	114.17
358.864	48.64
359.075	11.78
359.287	-29.18
359.498	17.92
359.709	105.98
359.921	60.93
360.132	85.5
360.344	40.45
360.555	1.54
360.766	48.64
360.977	32.26
361.189	99.84
361.4	-35.33
361.611	-12.8
361.823	24.06
362.034	-16.9
362.245	-47.62
362.456	-12.8
362.667	-20.99
362.879	73.21
363.09	56.83
363.301	-59.9
363.512	62.98
363.723	50.69
363.935	-20.99
364.146	105.98
364.357	103.93
364.568	26.11
364.779	-8.7
364.99	42.5
365.201	15.87
365.412	50.69
365.623	-14.85
365.834	73.21
366.045	42.5
366.256	65.02
366.467	126.46
366.678	-4.61
366.889	19.97
367.1	114.17
367.311	-8.7
367.522	-66.05
367.733	-8.7
367.944	1.54
368.155	73.21
368.366	15.87
368.577	97.79
368.788	11.78
368.999	65.02
369.209	-8.7
369.42	19.97
369.631	130.56
369.842	65.02
370.053	65.02
370.264	77.31
370.474	-6.66
370.685	73.21
370.896	73.21
371.107	17.92
371.317	69.12
371.528	75.26
371.739	32.26
371.95	11.78
372.16	30.21
372.371	15.87
372.582	65.02
372.792	105.98
373.003	56.83
373.214	93.69
373.424	85.5
373.635	28.16
373.846	95.74
374.056	9.73
374.267	95.74
374.477	52.74
374.688	32.26
374.898	7.68
375.109	58.88
375.319	40.45
375.53	60.93
375.74	73.21
375.951	67.07
376.161	44.54
376.372	54.78
376.582	13.82
376.793	40.45
377.003	69.12
377.214	38.4
377.424	19.97
377.635	114.17
377.845	46.59
378.055	67.07
378.266	-23.04
378.476	89.6
378.686	19.97
378.897	48.64
379.107	26.11
379.317	116.22
379.528	15.87
379.738	65.02
379.948	-16.9
380.158	65.02
380.369	81.41
380.579	116.22
380.789	9.73
380.999	116.22
381.21	-4.61
381.42	89.6
381.63	15.87
381.84	77.31
382.05	93.69
382.261	7.68
382.471	89.6
382.681	60.93
382.891	75.26
383.101	-0.51
383.311	-25.09
383.521	15.87
383.731	110.08
383.941	81.41
384.151	40.45
384.361	60.93
384.571	-14.85
384.781	75.26
384.991	73.21
385.201	-10.75
385.411	48.64
385.621	1.54
385.831	34.3
386.041	40.45
386.251	-0.51
386.461	40.45
386.671	42.5
386.881	38.4
387.091	-4.61
387.301	36.35
387.511	50.69
387.72	-10.75
387.93	42.5
388.14	60.93
388.35	73.21
388.56	83.45
388.769	108.03
388.979	-8.7
389.189	73.21
389.399	34.3
389.609	30.21
389.818	110.08
390.028	65.02
390.238	83.45
390.447	99.84
390.657	114.17
390.867	75.26
391.076	58.88
391.286	103.93
391.496	77.31
391.705	56.83
391.915	126.46
392.125	28.16
392.334	-29.18
392.544	56.83
392.753	69.12
392.963	24.06
393.172	81.41
393.382	19.97
393.591	85.5
393.801	52.74
394.01	132.61
394.22	17.92
394.429	56.83
394.639	87.55
394.848	62.98
395.058	89.6
395.267	34.3
395.477	24.06
395.686	81.41
395.895	132.61
396.105	148.99
396.314	126.46
396.524	67.07
396.733	62.98
396.942	126.46
397.152	83.45
397.361	40.45
397.57	130.56
397.78	46.59
397.989	130.56
398.198	130.56
398.407	28.16
398.617	65.02
398.826	44.54
399.035	93.69
399.244	73.21
399.453	56.83
399.663	36.35
399.872	126.46
400.081	93.69
400.29	114.17
400.499	116.22
400.708	165.37
400.917	36.35
401.127	112.13
401.336	75.26
401.545	44.54
401.754	89.6
401.963	99.84
402.172	99.84
402.381	157.18
402.59	36.35
402.799	99.84
403.008	112.13
403.217	67.07
403.426	105.98
403.635	52.74
403.844	142.85
404.053	151.04
404.262	161.28
404.471	196.09
404.68	91.65
404.888	151.04
405.097	32.26
405.306	167.42
405.515	157.18
405.724	138.75
405.933	212.48
406.142	126.46
406.35	165.37
406.559	138.75
406.768	175.61
406.977	171.52
407.185	159.23
407.394	187.9
407.603	161.28
407.812	247.29
408.02	218.62
408.229	187.9
408.438	167.42
408.646	187.9
408.855	267.77
409.064	261.63
409.272	212.48
409.481	212.48
409.69	278.01
409.898	271.87
410.107	280.06
410.315	255.48
410.524	310.78
410.733	204.28
410.941	181.76
411.15	327.16
411.358	304.64
411.567	345.59
411.775	331.26
411.984	361.98
412.192	382.46
412.401	329.21
412.609	488.95
412.818	427.51
413.026	374.27
413.234	370.17
413.443	374.27
413.651	452.09
413.86	456.19
414.068	437.75
414.276	480.76
414.485	454.14
414.693	476.66
414.901	574.97
415.11	525.82
415.318	437.75
415.526	683.51
415.734	636.41
415.943	675.32
416.151	673.27
416.359	681.46
416.567	724.47
416.776	703.99
416.984	783.86
417.192	871.92
417.4	753.14
417.608	826.87
417.817	835.06
418.025	886.26
418.233	992.75
418.441	953.84
418.649	957.94
418.857	1056.24
419.065	1031.66
419.273	1000.94
419.481	957.94
419.689	1132.01
419.897	1187.31
420.105	1232.37
420.313	1261.04
420.521	1330.67
420.729	1377.77
420.937	1324.52
421.145	1414.63
421.353	1502.7
421.561	1527.27
421.769	1543.66
421.977	1639.91
422.185	1723.88
422.393	1707.49
422.601	1807.84
422.809	1740.26
423.017	1914.34
423.224	1871.33
423.432	2026.98
423.64	2117.09
423.848	2219.49
424.056	2158.05
424.263	2293.21
424.471	2358.75
424.679	2377.18
424.887	2637.27
425.094	2641.37
425.302	2543.07
425.51	2670.04
425.718	2794.97
425.925	2809.3
426.133	2913.75
426.341	3063.25
426.548	3251.66
426.756	3220.94
426.964	3237.33
427.171	3319.25
427.379	3558.86
427.586	3599.82
427.794	3624.39
428.001	3876.29
428.209	4013.51
428.417	4046.27
428.624	4160.96
428.832	4259.26
429.039	4165.06
429.247	4281.79
429.454	4670.9
429.662	4855.22
429.869	4681.14
430.076	4890.04
430.284	4713.91
430.491	5055.92
430.699	5160.37
430.906	5275.06
431.114	5430.7
431.321	5414.32
431.528	5660.07
431.736	5805.48
431.943	6204.83
432.15	6112.67
432.358	6161.83
432.565	6620.57
432.772	6397.34
432.979	6831.51
433.187	6872.47
433.394	6815.13
433.601	7220.63
433.808	7554.44
434.016	7318.93
434.223	7691.66
434.43	8074.63
434.637	7988.61
434.844	8246.66
435.052	8533.37
435.259	8533.37
435.466	8455.55
435.673	8660.35
435.88	9231.73
436.087	9526.64
436.294	9221.49
436.501	9280.88
436.708	9602.41
436.915	9831.79
437.122	10450.27
437.329	10222.95
437.537	10526.05
437.743	10648.93
437.95	10683.74
438.157	11373.91
438.364	11574.61
438.571	11494.74
438.778	11572.56
438.985	12965.18
439.192	12256.58
439.399	12571.97
439.606	12361.03
439.813	13356.34
440.02	14005.55
440.227	13802.8
440.433	13421.88
440.64	14015.79
440.847	13985.07
441.054	13999.4
441.261	15039.77
441.467	14890.27
441.674	15281.43
441.881	15748.37
442.088	15541.52
442.294	15580.43
442.501	16010.51
442.708	16354.57
442.914	17093.88
443.121	17784.05
443.328	17136.89
443.534	18423.01
443.741	17743.09
443.948	17257.72
444.154	18740.45
444.361	18623.72
444.568	18615.52
444.774	18713.83
444.981	18799.84
445.187	19508.44
445.394	20088.01
445.6	20192.46
445.807	22033.58
446.013	21296.32
446.22	21322.94
446.426	22095.02
446.633	22768.8
446.839	23213.21
447.046	22394.03
447.252	23250.08
447.459	23628.95
447.665	23508.12
447.871	24657.03
448.078	25461.88
448.284	24558.73
448.491	25181.31
448.697	25877.62
448.903	26549.35
449.11	26815.59
449.316	26326.13
449.522	26543.21
449.728	27329.63
449.935	27632.73
450.141	27675.74
450.347	28179.54
450.553	27284.58
450.76	27690.07
450.966	28648.52
451.172	28275.79
451.378	29068.36
451.584	28566.6
451.791	29258.82
451.997	28908.61
452.203	29492.29
452.409	29615.16
452.615	29185.09
452.821	28462.16
453.027	28003.41
453.233	29373.5
453.44	28535.88
453.646	28988.49
453.852	28802.12
454.058	29289.54
454.264	28494.93
454.47	29140.04
454.676	28247.12
454.882	29480
455.088	26936.42
455.294	27341.92
455.5	28271.7
455.705	28073.04
455.911	27004
456.117	26416.24
456.323	25869.43
456.529	24634.5
456.735	25646.2
456.941	25269.37
457.147	24996.99
457.352	24046.74
457.558	23655.58
457.764	23950.48
457.97	23338.14
458.176	23028.9
458.381	22985.89
458.587	21804.21
458.793	21873.84
458.999	20384.97
459.204	22152.37
459.41	21462.2
459.616	19940.56
459.821	20143.31
460.027	20028.62
460.233	19834.07
460.438	18865.38
460.644	19082.46
460.85	18144.49
461.055	17829.1
461.261	17698.03
461.466	16373
461.672	16106.76
461.878	17276.15
462.083	15957.26
462.289	15688.98
462.494	15463.7
462.7	14845.21
462.905	14464.29
463.111	14873.89
463.316	15041.82
463.522	14628.13
463.727	14552.35
463.932	14439.72
464.138	14427.43
464.343	14462.24
464.549	14038.31
464.754	14603.55
464.959	14529.83
465.165	14144.81
465.37	13737.26
465.575	13235.51
465.781	14056.75
465.986	13880.62
466.191	13210.93
466.397	13231.41
466.602	12418.37
466.807	13077.82
467.012	12897.6
467.218	12969.27
467.423	12754.24
467.628	13016.38
467.833	13225.27
468.038	13022.52
468.244	12371.27
468.449	13124.92
468.654	12731.71
468.859	12590.4
469.064	12352.84
469.269	12041.54
469.474	12100.94
469.679	12315.97
469.885	11986.25
470.09	11871.56
470.295	11883.85
470.5	11812.17
470.705	12082.5
470.91	11644.24
471.115	11488.59
471.32	11736.4
471.525	11603.28
471.73	11056.47
471.935	10945.88
472.139	10880.35
472.344	11158.87
472.549	10884.44
472.754	10878.3
472.959	10571.1
473.164	10333.54
473.369	10126.69
473.574	10650.97
473.778	10474.85
473.983	10372.45
474.188	10472.8
474.393	9956.71
474.598	9895.27
474.802	9942.38
475.007	9801.07
475.212	9751.92
475.417	9305.46
475.621	9452.91
475.826	9485.68
476.031	9381.23
476.235	9135.48
476.44	9352.56
476.645	9006.45
476.849	9084.28
477.054	8752.51
477.259	8824.19
477.463	8994.17
477.668	8586.62
477.872	8635.77
478.077	8633.72
478.282	8486.27
478.486	8158.6
478.691	8387.97
478.895	8183.17
479.1	8246.66
479.304	8355.2
479.509	7841.16
479.713	8101.25
479.918	7937.41
480.122	7871.88
480.326	7990.66
480.531	7816.58
480.735	7972.23
480.94	7857.54
481.144	8076.68
481.348	7531.92
481.553	7687.56
481.757	7540.11
481.961	7792.01
482.166	7765.39
482.37	7617.93
482.574	7642.51
482.778	7400.85
482.983	7540.11
483.187	7423.37
483.391	7587.21
483.595	7603.6
483.8	7548.3
484.004	7533.97
484.208	7652.75
484.412	7421.33
484.616	7669.13
484.821	7568.78
485.025	7400.85
485.229	7515.53
485.433	7470.48
485.637	7368.08
485.841	7617.93
486.045	7458.19
486.249	7384.46
486.453	7529.87
486.657	7628.17
486.861	7454.09
487.065	7331.22
487.269	7406.99
487.473	7421.33
487.677	7601.55
487.881	7638.41
488.085	7452.05
488.289	7576.97
488.493	7460.24
488.697	7632.27
488.901	7601.55
489.105	7617.93
489.309	7527.82
489.512	7382.42
489.716	7574.92
489.92	7548.3
490.124	7548.3
490.328	7710.09
490.531	7585.16
490.735	7726.47
490.939	7681.42
491.143	7703.95
491.346	7734.67
491.55	7898.5
491.754	7892.36
491.958	8050.05
492.161	7832.97
492.365	7949.7
492.569	7896.46
492.772	8031.62
492.976	8033.67
493.18	7816.58
493.383	8103.3
493.587	8109.44
493.79	8191.36
493.994	8088.96
494.197	8435.07
494.401	8396.16
494.605	8177.03
494.808	8410.5
495.012	8471.93
495.215	8455.55
495.419	8549.76
495.622	8609.15
495.825	8629.63
496.029	8709.5
496.232	8912.25
496.436	8660.35
496.639	9127.28
496.843	9010.55
497.046	9092.47
497.249	9184.63
497.453	9366.9
497.656	9457.01
497.859	9430.38
498.063	9444.72
498.266	9801.07
498.469	9633.13
498.673	9813.35
498.876	9801.07
499.079	10102.12
499.282	9995.62
499.485	10290.53
499.689	10321.25
499.892	10319.2
500.095	10591.58
500.298	10859.87
500.501	10534.24
500.705	10921.31
500.908	10806.62
501.111	11165.01
501.314	11208.02
501.517	11486.54
501.72	11443.54
501.923	11427.15
502.126	11701.58
502.329	11951.43
502.532	11992.39
502.735	11892.04
502.938	12010.82
503.141	12289.35
503.344	12457.28
503.547	12471.62
503.75	12608.83
503.953	12705.09
504.156	12877.12
504.359	12862.78
504.562	12987.71
504.765	13372.72
504.968	13483.31
505.17	13753.65
505.373	13843.76
505.576	14021.93
505.779	14048.55
505.982	14019.88
506.185	14132.52
506.387	14279.97
506.59	14581.03
506.793	14861.6
506.996	14914.84
507.198	15133.98
507.401	15303.96
507.604	15418.64
507.807	15609.11
508.009	15328.53
508.212	15910.16
508.415	16145.67
508.617	15979.79
508.82	16397.57
509.022	16315.66
509.225	16649.47
509.428	16688.39
509.63	17036.54
509.833	16966.91
510.035	17435.89
510.238	17302.78
510.44	17571.06
510.643	17820.91
510.845	17820.91
511.048	17810.67
511.25	18152.68
511.453	18234.6
511.655	19021.02
511.858	18672.87
512.06	18926.82
512.262	19258.59
512.465	19047.65
512.667	19602.64
512.87	19508.44
513.072	19670.23
513.274	20126.92
513.477	20329.67
513.679	20311.24
513.881	20665.54
514.084	20583.62
514.286	20706.5
514.488	21021.89
514.69	21564.6
514.893	21435.58
515.095	21544.12
515.297	21916.85
515.499	21814.45
515.701	22090.93
515.904	22330.54
516.106	22783.14
516.308	22820
516.51	23080.1
516.712	23149.73
516.914	23424.15
517.116	23624.86
517.318	23760.02
517.52	23745.69
517.722	24261.77
517.925	24081.55
518.127	24607.88
518.329	24800.39
518.531	24702.09
518.733	25015.43
518.935	25271.42
519.136	24996.99
519.338	25750.65
519.54	25869.43
519.742	26287.21
519.944	25980.02
520.146	26629.23
520.348	26608.75
520.55	26549.35
520.752	26823.78
520.954	27462.75
521.155	27032.68
521.357	27591.77
521.559	28077.14
521.761	28208.21
521.963	27847.77
522.164	28365.9
522.366	28546.12
522.568	28673.1
522.77	28951.62
522.971	29537.34
523.173	28970.05
523.375	29287.49
523.576	29545.53
523.778	29543.49
523.98	29854.78
524.181	29740.09
524.383	29848.63
524.584	30133.3
524.786	30123.06
524.988	29930.55
525.189	30350.38
525.391	30614.57
525.592	31142.95
525.794	31214.63
525.995	31343.65
526.197	31081.51
526.398	31128.61
526.6	31237.16
526.801	31740.96
527.003	31620.13
527.204	31921.18
527.406	31872.03
527.607	31818.78
527.808	32427.03
528.01	31783.96
528.211	32424.98
528.412	32717.84
528.614	32652.3
528.815	32527.38
529.016	32887.82
529.218	32721.93
529.419	32601.1
529.62	32728.08
529.822	32869.39
530.023	32613.39
530.224	33035.27
530.425	32973.83
530.626	32803.85
530.828	32711.69
531.029	33643.52
531.23	33162.25
531.431	33192.97
531.632	33424.39
531.833	33473.54
532.035	33166.34
532.236	33319.94
532.437	33549.31
532.638	33201.16
532.839	33721.34
533.04	33829.88
533.241	33356.8
533.442	34075.64
533.643	33979.39
533.844	33631.23
534.045	33532.93
534.246	33793.02
534.447	33723.39
534.648	33813.5
534.849	33860.6
535.05	33072.14
535.251	33584.13
535.451	33580.03
535.652	33444.87
535.853	33799.16
536.054	33973.24
536.255	33905.66
536.456	33381.38
536.657	34298.87
536.857	33913.85
537.058	33735.68
537.259	34190.33
537.46	34053.11
537.66	33704.96
537.861	33895.42
538.062	33690.62
538.263	33682.43
538.463	33958.91
538.664	33590.27
538.865	33612.8
539.065	33913.85
539.266	33238.02
539.466	33958.91
539.667	33508.35
539.868	33926.14
540.068	33905.66
540.269	33340.42
540.469	33950.71
540.67	33537.02
540.87	33373.19
541.071	33840.12
541.271	33692.67
541.472	33395.71
541.672	33752.06
541.873	33481.73
542.073	32918.54
542.274	33788.92
542.474	33496.06
542.675	33166.34
542.875	33543.17
543.075	33881.08
543.276	33565.7
543.476	33786.88
543.676	33307.65
543.877	33485.83
544.077	33426.43
544.277	33106.95
544.478	33270.79
544.678	33614.85
544.878	33569.79
545.078	33666.05
545.279	33321.99
545.479	32943.11
545.679	33401.86
545.879	33285.12
546.079	33305.6
546.28	33580.03
546.48	32912.39
546.68	33371.14
546.88	33334.28
547.08	33307.65
547.28	33051.66
547.48	33086.47
547.68	33287.17
547.88	32916.49
548.081	33303.56
548.281	33321.99
548.481	33141.77
548.681	33467.39
548.881	33084.42
549.081	33209.35
549.28	33113.09
549.48	33149.96
549.68	33340.42
549.88	33461.25
550.08	32699.41
550.28	33109
550.48	32818.19
550.68	33586.18
550.88	33100.81
551.08	32924.68
551.279	32885.77
551.479	32803.85
551.679	33412.1
551.879	33182.73
552.079	33199.11
552.278	32850.95
552.478	32943.11
552.678	32920.59
552.878	33195.01
553.077	32408.59
553.277	32482.32
553.477	33178.63
553.676	33049.61
553.876	32756.75
554.076	32838.67
554.275	32578.57
554.475	32226.32
554.674	32488.46
554.874	32945.16
555.074	32582.67
555.273	32644.11
555.473	32889.87
555.672	32527.38
555.872	32418.83
556.071	32463.89
556.271	32502.8
556.47	32443.41
556.67	32128.02
556.869	32158.74
557.068	32560.14
557.268	32461.84
557.467	32367.63
557.667	32472.08
557.866	32246.8
558.065	32580.62
558.265	32341.01
558.464	31833.11
558.663	32396.31
558.863	32078.87
559.062	32187.41
559.261	31947.8
559.461	32298
559.66	31732.76
559.859	31824.92
560.058	31874.07
560.258	31724.57
560.457	31759.39
560.656	32035.86
560.855	31601.69
561.054	31759.39
561.253	31218.72
561.453	31593.5
561.652	31560.73
561.851	31925.27
562.05	31663.13
562.249	31349.79
562.448	31704.09
562.647	31444
562.846	31214.63
563.045	31196.2
563.244	31132.71
563.443	31523.87
563.642	30940.2
563.841	30979.11
564.04	30874.66
564.239	31249.44
564.438	30491.69
564.637	30862.38
564.836	30858.28
565.035	30436.4
565.234	30735.4
565.432	30641.2
565.631	30815.27
565.83	30520.37
566.029	30319.67
566.228	30635.05
566.427	30219.31
566.625	30200.88
566.824	30086.2
567.023	30313.52
567.222	30204.98
567.42	30610.48
567.619	29910.07
567.818	30082.1
568.016	29815.87
568.215	30237.75
568.414	29961.27
568.612	29701.18
568.811	29725.75
569.01	29719.61
569.208	29226.05
569.407	29625.4
569.605	29176.9
569.804	29623.36
570.002	29348.93
570.201	29592.64
570.4	29285.44
570.598	28900.42
570.797	29074.5
570.995	29160.52
571.193	28546.12
571.392	29140.04
571.59	28746.83
571.789	28853.32
571.987	29051.97
572.186	28841.03
572.384	28458.06
572.582	29004.87
572.781	28568.65
572.979	28030.04
573.177	28220.5
573.376	28404.81
573.574	28238.93
573.772	28144.72
573.971	28077.14
574.169	27978.84
574.367	27835.48
574.565	28269.65
574.763	27866.2
574.962	27941.97
575.16	27657.31
575.358	27894.87
575.556	27522.14
575.754	28099.67
575.952	27501.66
576.151	27700.31
576.349	27200.61
576.547	27049.06
576.745	27182.18
576.943	27147.36
577.141	27438.17
577.339	27141.22
577.537	27180.13
577.735	27325.54
577.933	26788.97
578.131	27083.87
578.329	26969.19
578.527	26637.42
578.725	26846.31
578.923	26774.63
579.121	26369.13
579.319	26659.95
579.516	26424.43
579.714	26285.17
579.912	26485.87
580.11	26506.35
580.308	26156.14
580.506	26190.96
580.704	25912.44
580.901	25975.92
581.099	26387.57
581.297	25871.48
581.495	25926.77
581.692	25586.81
581.89	25226.37
582.088	25660.54
582.285	25556.09
582.483	25834.61
582.681	25603.19
582.878	25429.12
583.076	25326.72
583.274	25267.33
583.471	25119.87
583.669	25584.76
583.866	24695.94
584.064	25361.53
584.262	25091.2
584.459	24996.99
584.657	24837.25
584.854	24765.57
585.052	24202.38
585.249	24523.91
585.447	24616.07
585.644	24448.14
585.841	24325.26
586.039	24632.46
586.236	24091.79
586.434	24370.32
586.631	24151.18
586.828	24247.44
587.026	24380.56
587.223	24317.07
587.42	23954.58
587.618	24214.67
587.815	24018.07
588.012	23501.98
588.21	23651.48
588.407	23774.36
588.604	23674.01
588.801	23391.39
588.999	23499.93
589.196	23225.5
589.393	23370.91
589.59	23260.32
589.787	23004.32
589.984	23108.77
590.182	22858.92
590.379	23073.95
590.576	22889.63
590.773	23153.82
590.97	22987.94
591.167	22899.87
591.364	22699.17
591.561	22842.53
591.758	22465.71
591.955	22387.88
592.152	22383.79
592.349	22224.04
592.546	22250.67
592.743	22434.99
592.94	21947.57
593.137	22252.72
593.334	22068.4
593.531	22125.74
593.727	22043.82
593.924	22011.06
594.121	21617.85
594.318	21978.29
594.515	21609.65
594.712	21753.01
594.908	21634.23
595.105	21515.45
595.302	21521.59
595.499	21421.24
595.696	21429.43
595.892	21124.29
596.089	21284.03
596.286	21427.39
596.482	21085.37
596.679	21114.05
596.876	20833.47
597.072	20980.93
597.269	20997.31
597.466	20659.4
597.662	20720.84
597.859	20939.97
598.055	20700.36
598.252	20616.39
598.448	20643.01
598.645	20384.97
598.841	20182.22
599.038	20600.01
599.234	20655.3
599.431	19872.98
599.627	19879.12
599.824	20188.36
600.02	20081.87
600.217	19938.51
600.413	19858.64
600.609	20004.05
600.806	19809.49
601.002	19664.08
601.198	19461.34
601.395	19743.95
601.591	19698.9
601.787	19766.48
601.984	19340.5
602.18	19537.11
602.376	19434.71
602.572	19236.06
602.769	19326.17
602.965	19225.82
603.161	19203.29
603.357	19389.66
603.553	18765.03
603.75	19016.93
603.946	18838.75
604.142	18996.45
604.338	18420.97
604.534	18699.49
604.73	18631.91
604.926	18853.09
605.122	18679.01
605.318	18349.29
605.514	18296.04
605.71	18332.9
605.906	18593
606.102	18222.31
606.298	18312.42
606.494	18246.89
606.69	18369.77
606.886	18275.56
607.082	18103.53
607.278	18201.83
607.474	17671.41
607.67	17990.89
607.866	17857.78
608.062	17814.77
608.257	17665.27
608.453	17812.72
608.649	17771.76
608.845	17741.04
609.041	17833.2
609.236	17622.26
609.432	17612.02
609.628	17849.58
609.824	17532.15
610.019	17507.57
610.215	17609.97
610.411	17704.18
610.606	17351.93
610.802	17552.63
610.998	17458.42
611.193	17542.39
611.389	17341.69
611.584	17302.78
611.78	17100.03
611.976	17194.23
612.171	16952.57
612.367	17022.2
612.562	17323.26
612.758	16841.98
612.953	17108.22
613.149	17319.16
613.344	16819.46
613.539	17167.61
613.735	17048.83
613.93	16991.48
614.126	16901.37
614.321	17034.49
614.517	16608.51
614.712	16846.08
614.907	16608.51
615.103	16704.77
615.298	16661.76
615.493	17001.72
615.688	16350.47
615.884	16921.85
616.079	16524.55
616.274	16475.4
616.47	16395.53
616.665	16628.99
616.86	16422.15
617.055	16393.48
617.25	16198.92
617.445	16336.13
617.641	15908.11
617.836	16141.58
618.031	16278.79
618.226	16229.64
618.421	15918.35
618.616	16076.04
618.811	15938.83
619.006	16071.95
619.201	15607.06
619.396	15877.39
619.591	15756.56
619.786	15721.74
619.981	15654.16
620.176	15711.5
620.371	15443.22
620.566	15447.32
620.761	15519
620.956	15361.3
621.151	15142.17
621.346	15199.51
621.541	14861.6
621.735	15232.28
621.93	14914.84
622.125	14953.76
622.32	14798.11
622.515	14826.78
622.709	14638.37
622.904	14609.7
623.099	14390.56
623.294	14411.04
623.488	14429.48
623.683	14302.5
623.878	13882.67
624.072	14396.71
624.267	14253.35
624.462	14142.76
624.656	14146.86
624.851	13948.2
625.046	13688.11
625.24	13892.91
625.435	13630.77
625.629	13792.56
625.824	13684.02
626.018	13397.3
626.213	13362.48
626.407	13299
626.602	13270.33
626.796	13124.92
626.991	13178.17
627.185	13110.58
627.38	13118.78
627.574	12934.46
627.768	12922.17
627.963	12938.55
628.157	12576.06
628.352	12782.91
628.546	12438.85
628.74	12545.34
628.935	12447.04
629.129	12442.95
629.323	12404.03
629.517	12365.12
629.712	12264.77
629.906	12094.79
630.1	12037.45
630.294	11959.63
630.489	11896.14
630.683	12076.36
630.877	11781.45
631.071	11746.64
631.265	11908.43
631.459	11664.72
631.653	11492.69
631.848	11412.82
632.042	11312.47
632.236	11466.07
632.43	11214.16
632.624	11416.91
632.818	11083.09
633.012	11126.1
633.206	11238.74
633.4	11105.62
633.594	10892.63
633.788	11025.75
633.982	10972.5
634.176	10890.59
634.369	10743.13
634.563	10718.56
634.757	10704.22
634.951	10825.05
635.145	10861.91
635.339	10657.12
635.533	10474.85
635.726	10284.39
635.92	10364.26
636.114	10063.21
636.308	10274.15
636.501	10128.74
636.695	10136.93
636.889	10044.77
637.083	9897.32
637.276	9956.71
637.47	10007.91
637.664	9960.81
637.857	9946.47
638.051	9903.46
638.244	9624.94
638.438	9805.16
638.632	9706.86
638.825	9698.67
639.019	9641.32
639.212	9387.38
639.406	9608.56
639.599	9370.99
639.793	9444.72
639.986	9168.24
640.18	9450.86
640.373	9139.57
640.567	9100.66
640.76	9094.52
640.954	8994.17
641.147	9012.6
641.34	8850.81
641.534	8959.35
641.727	8809.85
641.92	8801.66
642.114	8768.89
642.307	8842.62
642.5	8809.85
642.694	8566.14
642.887	8666.49
643.08	8611.2
643.273	8467.84
643.467	8447.36
643.66	8267.14
643.853	8451.46
644.046	8263.04
644.239	8273.28
644.432	8166.79
644.626	8256.9
644.819	8113.54
645.012	8564.09
645.205	8054.15
645.398	8095.11
645.591	7945.61
645.784	7978.37
645.977	7810.44
646.17	8050.05
646.363	7738.76
646.556	7619.98
646.749	7773.58
646.942	7771.53
647.135	7742.86
647.328	7708.04
647.521	7708.04
647.714	7576.97
647.907	7607.69
648.099	7429.52
648.292	7634.32
648.485	7376.27
648.678	7343.5
648.871	7443.85
649.064	7251.35
649.256	7347.6
649.449	7273.87
649.642	7167.38
649.835	7159.19
650.027	6968.73
650.22	7056.79
650.413	7257.49
650.605	7069.08
650.798	7093.65
650.991	6948.25
651.183	7040.4
651.376	6765.98
651.568	6864.28
651.761	6776.22
651.954	6827.42
652.146	6745.5
652.339	6589.85
652.531	6495.64
652.724	6546.84
652.916	6679.96
653.109	6509.98
653.301	6522.27
653.494	6411.68
653.686	6397.34
653.879	6434.21
654.071	6385.05
654.263	6450.59
654.456	6307.23
654.648	6358.43
654.84	6088.1
655.033	6178.21
655.225	6159.78
655.417	6127.01
655.61	6071.72
655.802	6239.65
655.994	6127.01
656.186	6020.52
656.379	6182.31
656.571	6084
656.763	5832.1
656.955	6028.71
657.148	5948.84
657.34	5971.36
657.532	5711.27
657.724	5809.58
657.916	5789.1
658.108	5741.99
658.3	5811.62
658.492	5668.27
658.684	5586.35
658.876	5752.23
659.068	5619.11
659.26	5551.53
659.452	5694.89
659.644	5518.76
659.836	5467.56
660.028	5541.29
660.22	5436.85
660.412	5543.34
660.604	5336.49
660.796	5250.48
660.988	5473.71
661.18	5301.68
661.372	5270.96
661.563	5189.04
661.755	5234.1
661.947	5340.59
662.139	5199.28
662.331	5135.79
662.522	5103.03
662.714	5041.59
662.906	5029.3
663.097	5176.75
663.289	5012.92
663.481	5002.68
663.673	4834.74
663.864	4902.33
664.056	4896.18
664.247	4926.9
664.439	4816.31
664.631	4902.33
664.822	4810.17
665.014	4918.71
665.205	4771.26
665.397	4726.2
665.588	4705.72
665.78	4738.49
665.971	4840.89
666.163	4677.05
666.354	4685.24
666.546	4720.06
666.737	4543.93
666.929	4701.62
667.12	4715.96
667.311	4660.66
667.503	4513.21
667.694	4562.36
667.885	4355.52
668.077	4556.22
668.268	4400.57
668.459	4400.57
668.651	4396.48
668.842	4287.93
669.033	4410.81
669.224	4330.94
669.416	4449.72
669.607	4263.36
669.798	4341.18
669.989	4455.87
670.18	4193.73
670.371	4195.78
670.563	4263.36
670.754	4236.74
670.945	4210.11
671.136	4156.86
671.327	4048.32
671.518	4148.67
671.709	4212.16
671.9	4136.38
672.091	3972.55
672.282	4031.94
672.473	4015.55
672.664	3976.64
672.855	4050.37
673.046	4040.13
673.237	4044.23
673.428	4087.23
673.619	3939.78
673.809	3968.45
674	3966.4
674.191	3943.88
674.382	3818.95
674.573	3825.09
674.764	3902.92
674.954	3972.55
675.145	3823.05
675.336	3855.81
675.527	3816.9
675.717	3786.18
675.908	3898.82
676.099	3890.63
676.289	3734.98
676.48	3841.48
676.671	3681.74
676.861	3792.33
677.052	3646.92
677.243	3702.22
677.433	3868.1
677.624	3562.95
677.814	3663.3
678.005	3718.6
678.195	3720.65
678.386	3771.85
678.576	3663.3
678.767	3810.76
678.957	3683.78
679.148	3640.78
679.338	3687.88
679.529	3706.31
679.719	3657.16
679.909	3712.46
680.1	3569.1
680.29	3618.25
680.481	3575.24
680.671	3587.53
680.861	3452.36
681.052	3677.64
681.242	3593.67
681.432	3483.08
681.622	3474.89
681.813	3466.7
682.003	3499.47
682.193	3521.99
682.383	3485.13
682.573	3583.43
682.764	3507.66
682.954	3440.08
683.144	3501.51
683.334	3417.55
683.524	3489.23
683.714	3548.62
683.904	3399.12
684.094	3411.4
684.284	3431.88
684.474	3378.64
684.664	3460.56
684.854	3405.26
685.044	3466.7
685.234	3282.38
685.424	3321.29
685.614	3411.4
685.804	3321.29
685.994	3206.61
686.184	3360.2
686.374	3145.17
686.564	3153.36
686.753	3206.61
686.943	3186.13
687.133	3208.66
687.323	3075.54
687.513	3276.24
687.702	3227.09
687.892	3182.03
688.082	3153.36
688.272	3132.88
688.461	3096.02
688.651	3153.36
688.841	3100.11
689.03	3151.31
689.22	3030.48
689.41	2983.38
689.599	3098.06
689.789	3194.32
689.979	2977.23
690.168	3040.72
690.358	2907.6
690.547	3055.06
690.737	2969.04
690.926	3128.78
691.116	2934.23
691.305	3030.48
691.495	2948.56
691.684	2895.32
691.874	2909.65
692.063	2977.23
692.252	2858.45
692.442	2932.18
692.631	2788.82
692.82	2768.34
693.01	2608.6
693.199	2700.76
693.388	2745.81
693.578	2860.5
693.767	2833.88
693.956	2743.77
694.146	2868.69
694.335	2756.05
694.524	2694.61
694.713	2829.78
694.902	2780.63
695.092	2631.13
695.281	2674.14
695.47	2598.36
695.659	2637.27
695.848	2649.56
696.037	2776.53
696.226	2764.25
696.415	2590.17
696.604	2702.81
696.793	2516.44
696.982	2725.33
697.171	2588.12
697.36	2573.78
697.549	2530.78
697.738	2594.26
697.927	2459.1
698.116	2522.59
698.305	2538.97
698.494	2528.73
698.683	2530.78
698.872	2520.54
699.061	2563.54
699.25	2510.3
699.438	2434.52
699.627	2584.02
699.816	2571.74
700.005	2551.26
700.193	2481.63
700.382	2506.2
700.571	2508.25
700.76	2567.64
700.948	2473.43
701.137	2469.34
701.326	2508.25
701.514	2489.82
701.703	2452.95
701.892	2364.89
702.08	2547.16
702.269	2510.3
702.457	2385.37
702.646	2334.17
702.834	2442.71
703.023	2469.34
703.212	2442.71
703.4	2516.44
703.589	2328.03
703.777	2436.57
703.965	2321.88
704.154	2377.18
704.342	2401.76
704.531	2481.63
704.719	2375.13
704.907	2481.63
705.096	2375.13
705.284	2510.3
705.472	2285.02
705.661	2379.23
705.849	2416.09
706.037	2403.8
706.226	2342.36
706.414	2366.94
706.602	2350.56
706.79	2403.8
706.979	2340.32
707.167	2239.97
707.355	2317.79
707.543	2334.17
707.731	2432.47
707.919	2274.78
708.107	2293.21
708.296	2317.79
708.484	2242.01
708.672	2313.69
708.86	2319.84
709.048	2399.71
709.236	2342.36
709.424	2280.93
709.612	2330.08
709.8	2317.79
709.988	2258.4
710.176	2325.98
710.364	2358.75
710.551	2272.73
710.739	2295.26
710.927	2295.26
711.115	2334.17
711.303	2260.45
711.491	2235.87
711.679	2156
711.866	2199.01
712.054	2215.39
712.242	2399.71
712.43	2344.41
712.617	2338.27
712.805	2211.29
712.993	2325.98
713.181	2125.28
713.368	2246.11
713.556	2342.36
713.744	2244.06
713.931	2225.63
714.119	2213.34
714.306	2321.88
714.494	2201.05
714.682	2235.87
714.869	2201.05
715.057	2272.73
715.244	2340.32
715.432	2358.75
715.619	2285.02
715.807	2203.1
715.994	2303.45
716.182	2223.58
716.369	2235.87
716.556	2381.28
716.744	2143.71
716.931	2213.34
717.119	2221.53
717.306	2338.27
717.493	2184.67
717.681	2162.14
717.868	2227.68
718.055	2149.86
718.242	2237.92
718.43	2244.06
718.617	2139.62
718.804	2207.2
718.991	2334.17
719.179	2244.06
719.366	2311.64
719.553	2291.17
719.74	2260.45
719.927	2291.17
720.114	2350.56
720.301	2199.01
720.488	2231.77
720.676	2196.96
720.863	2176.48
721.05	2264.54
721.237	2137.57
721.424	2168.29
721.611	2227.68
721.798	2190.81
721.985	2227.68
722.172	2112.99
722.358	2235.87
722.545	2117.09
722.732	2246.11
722.919	2252.25
723.106	2309.6
723.293	2170.33
723.48	2276.83
723.667	2162.14
723.853	2272.73
724.04	2328.03
724.227	2244.06
724.414	2219.49
724.6	2258.4
724.787	2221.53
724.974	2301.4
725.161	2147.81
725.347	2162.14
725.534	2092.51
725.72	2147.81
725.907	2239.97
726.094	2219.49
726.28	2006.5
726.467	2229.73
726.653	2303.45
726.84	2289.12
727.027	2188.77
727.213	2139.62
727.4	2219.49
727.586	2248.16
727.773	2190.81
727.959	2147.81
728.145	2129.38
728.332	2115.04
728.518	2069.98
728.705	2252.25
728.891	2186.72
729.077	2164.19
729.264	2227.68
729.45	2151.9
729.636	2252.25
729.823	2174.43
730.009	2203.1
730.195	2156
730.382	2301.4
730.568	2090.46
730.754	2147.81
730.94	2256.35
731.126	2086.37
731.313	2121.18
731.499	2102.75
731.685	2029.03
731.871	2178.53
732.057	2221.53
732.243	2242.01
732.429	2141.66
732.615	2211.29
732.801	2196.96
732.987	2176.48
733.173	2219.49
733.359	2203.1
733.545	2199.01
733.731	2131.42
733.917	2145.76
734.103	2266.59
734.289	2123.23
734.475	2199.01
734.661	2205.15
734.847	2164.19
735.033	2188.77
735.219	2026.98
735.404	2186.72
735.59	2149.86
735.776	2149.86
735.962	2182.62
736.148	2233.82
736.333	2139.62
736.519	2057.7
736.705	2172.38
736.89	2162.14
737.076	2199.01
737.262	2051.55
737.447	2055.65
737.633	2084.32
737.819	2188.77
738.004	2252.25
738.19	2112.99
738.375	2082.27
738.561	2137.57
738.747	1955.3
738.932	1983.97
739.118	2088.42
739.303	1936.87
739.489	2129.38
739.674	2156
739.859	2156
740.045	2020.83
740.23	2125.28
740.416	2063.84
740.601	2170.33
740.786	1994.21
740.972	2133.47
741.157	1961.44
741.342	2006.5
741.528	2006.5
741.713	2094.56
741.898	2014.69
742.084	1977.83
742.269	1996.26
742.454	1920.48
742.639	2029.03
742.824	1930.72
743.01	1957.35
743.195	2029.03
743.38	1850.85
743.565	1924.58
743.75	1945.06
743.935	1992.16
744.12	1852.9
744.305	1897.96
744.49	1789.41
744.675	1918.43
744.86	1992.16
745.045	1826.28
745.23	1881.57
745.415	1826.28
745.6	1928.67
745.785	1873.38
745.97	1871.33
746.155	1834.47
746.34	1836.52
746.525	1848.8
746.71	1902.05
746.895	1770.98
747.079	1752.55
747.264	1736.17
747.449	1756.65
747.634	1844.71
747.819	1799.65
748.003	1760.74
748.188	1699.3
748.373	1648.1
748.557	1807.84
748.742	1713.64
748.927	1752.55
749.111	1695.21
749.296	1605.1
749.481	1695.21
749.665	1504.75
749.85	1557.99
750.034	1656.29
750.219	1609.19
750.404	1553.9
750.588	1455.59
750.773	1476.07
750.957	1623.53
751.141	1502.7
751.326	1568.23
751.51	1562.09
751.695	1474.03
751.879	1502.7
752.064	1596.9
752.248	1557.99
752.432	1603.05
752.617	1451.5
752.801	1555.94
752.985	1459.69
753.17	1480.17
753.354	1404.39
753.538	1426.92
753.722	1369.58
753.907	1367.53
754.091	1349.1
754.275	1304.04
754.459	1349.1
754.643	1279.47
754.828	1258.99
755.012	1297.9
755.196	1371.63
755.38	1269.23
755.564	1342.96
755.748	1269.23
755.932	1277.42
756.116	1279.47
756.3	1351.15
756.484	1236.46
756.668	1172.97
756.852	1132.01
757.036	1205.74
757.22	1142.25
757.404	1310.19
757.588	1244.65
757.772	1127.92
757.956	1107.44
758.14	1246.7
758.323	1211.89
758.507	1228.27
758.691	1125.87
758.875	1172.97
759.059	1252.84
759.242	1117.68
759.426	1091.06
759.61	1097.2
759.794	1080.82
759.977	1179.12
760.161	1158.64
760.345	1097.2
760.528	1246.7
760.712	1107.44
760.895	1027.57
761.079	1060.34
761.263	1091.06
761.446	1043.95
761.63	1086.96
761.813	1068.53
761.997	994.8
762.18	1058.29
762.364	1072.62
762.547	1060.34
762.731	959.99
762.914	1033.71
763.098	1023.47
763.281	1031.66
763.464	933.36
763.648	925.17
763.831	957.94
764.015	914.93
764.198	990.7
764.381	912.88
764.564	1007.09
764.748	982.51
764.931	1027.57
765.114	966.13
765.297	951.79
765.481	861.68
765.664	925.17
765.847	902.64
766.03	906.74
766.213	953.84
766.397	939.51
766.58	833.01
766.763	910.83
766.946	925.17
767.129	886.26
767.312	982.51
767.495	822.77
767.678	812.53
767.861	910.83
768.044	790
768.227	880.11
768.41	853.49
768.593	837.11
768.776	839.16
768.959	826.87
769.142	931.31
769.324	865.78
769.507	826.87
769.69	812.53
769.873	835.06
770.056	912.88
770.239	886.26
770.421	755.19
770.604	851.44
770.787	757.24
770.97	736.76
771.152	765.43
771.335	767.48
771.518	794.1
771.7	849.4
771.883	830.96
772.066	820.72
772.248	769.52
772.431	781.81
772.613	794.1
772.796	753.14
772.978	802.29
773.161	753.14
773.343	798.2
773.526	675.32
773.708	699.89
773.891	769.52
774.073	724.47
774.256	665.08
774.438	710.13
774.621	755.19
774.803	689.65
774.985	679.41
775.168	697.85
775.35	683.51
775.532	626.17
775.715	693.75
775.897	640.5
776.079	630.26
776.261	654.84
776.444	630.26
776.626	699.89
776.808	589.3
776.99	615.93
777.173	669.17
777.355	597.49
777.537	624.12
777.719	656.89
777.901	654.84
778.083	632.31
778.265	599.54
778.447	552.44
778.629	550.39
778.811	556.54
778.993	638.45
779.175	665.08
779.357	617.97
779.539	511.48
779.721	613.88
779.903	622.07
780.085	531.96
780.267	544.25
780.449	548.34
780.631	581.11
780.812	583.16
780.994	505.34
781.176	480.76
781.358	540.15
781.54	527.86
781.721	581.11
781.903	531.96
782.085	447.99
782.267	497.14
782.448	392.7
782.63	513.53
782.812	452.09
782.993	458.23
783.175	419.32
783.357	413.18
783.538	462.33
783.72	366.07
783.901	431.61
784.083	445.95
784.264	484.86
784.446	458.23
784.627	329.21
784.809	400.89
784.99	402.94
785.172	398.84
785.353	441.85
785.535	392.7
785.716	398.84
785.897	425.47
786.079	394.75
786.26	425.47
786.441	454.14
786.623	318.97
786.804	468.47
786.985	407.03
787.167	321.02
787.348	355.83
787.529	427.51
787.71	513.53
787.891	394.75
788.073	458.23
788.254	368.12
788.435	374.27
788.616	292.35
788.797	347.64
788.978	321.02
789.159	286.2
789.34	415.23
789.522	331.26
789.703	359.93
789.884	355.83
790.065	372.22
790.246	364.03
790.427	237.05
790.607	306.68
790.788	390.65
790.969	280.06
791.15	318.97
791.331	269.82
791.512	384.51
791.693	345.59
791.874	253.44
792.054	327.16
792.235	278.01
792.416	273.92
792.597	265.72
792.778	255.48
792.958	361.98
793.139	306.68
793.32	314.88
793.5	323.07
793.681	329.21
793.862	316.92
794.042	187.9
794.223	255.48
794.404	257.53
794.584	265.72
794.765	314.88
794.945	269.82
795.126	304.64
795.306	237.05
795.487	245.24
795.667	269.82
795.848	241.15
796.028	241.15
796.209	232.96
796.389	261.63
796.57	269.82
796.75	261.63
796.93	312.83
797.111	237.05
797.291	282.11
797.471	206.33
797.652	284.16
797.832	253.44
798.012	245.24
798.192	249.34
798.373	314.88
798.553	214.52
798.733	220.67
798.913	323.07
799.093	212.48
799.274	286.2
799.454	220.67
799.634	179.71
799.814	216.57
799.994	232.96
800.174	286.2
800.354	116.22
800.534	257.53
800.714	212.48
800.894	278.01
801.074	263.68
801.254	232.96
801.434	278.01
801.614	187.9
801.794	132.61
801.974	712.18
802.154	249.34
802.334	187.9
802.514	214.52
802.693	196.09
802.873	245.24
803.053	280.06
803.233	142.85
803.413	261.63
803.592	214.52
803.772	243.2
803.952	144.89
804.131	198.14
804.311	165.37
804.491	189.95
804.67	167.42
804.85	196.09
805.03	183.81
805.209	196.09
805.389	175.61
805.568	167.42
805.748	249.34
805.928	241.15
806.107	255.48
806.287	142.85
806.466	169.47
806.646	99.84
806.825	175.61
807.004	142.85
807.184	232.96
807.363	196.09
807.543	198.14
807.722	142.85
807.901	148.99
808.081	187.9
808.26	81.41
808.439	194.05
808.619	181.76
808.798	120.32
808.977	179.71
809.156	179.71
809.336	189.95
809.515	183.81
809.694	183.81
809.873	134.65
810.052	159.23
810.231	97.79
810.411	173.57
810.59	212.48
810.769	130.56
810.948	114.17
811.127	140.8
811.306	148.99
811.485	189.95
811.664	146.94
811.843	140.8
812.022	187.9
812.201	130.56
812.38	161.28
812.559	161.28
812.737	122.37
812.916	175.61
813.095	146.94
813.274	126.46
813.453	134.65
813.632	155.13
813.811	132.61
813.989	116.22
814.168	187.9
814.347	163.33
814.526	132.61
814.704	124.41
814.883	189.95
815.062	105.98
815.24	126.46
815.419	165.37
815.598	130.56
815.776	83.45
815.955	140.8
816.133	89.6
816.312	151.04
816.49	124.41
816.669	122.37
816.847	118.27
817.026	120.32
817.204	97.79
817.383	163.33
817.561	89.6
817.74	183.81
817.918	108.03
818.097	83.45
818.275	97.79
818.453	73.21
818.632	155.13
818.81	81.41
818.988	181.76
819.167	181.76
819.345	99.84
819.523	171.52
819.701	138.75
819.879	134.65
820.058	173.57
820.236	69.12
820.414	146.94
820.592	99.84
820.77	130.56
820.948	38.4
821.127	34.3
821.305	134.65
821.483	85.5
821.661	157.18
821.839	65.02
822.017	146.94
822.195	173.57
822.373	157.18
822.551	83.45
822.729	105.98
822.907	120.32
823.085	126.46
823.262	60.93
823.44	73.21
823.618	71.17
823.796	97.79
823.974	65.02
824.152	85.5
824.329	118.27
824.507	126.46
824.685	52.74
824.863	110.08
825.04	101.89
825.218	112.13
825.396	134.65
825.574	103.93
825.751	81.41
825.929	122.37
826.107	50.69
826.284	81.41
826.462	95.74
826.639	155.13
826.817	60.93
826.994	99.84
827.172	28.16
827.349	118.27
827.527	157.18
827.704	15.87
827.882	101.89
828.059	114.17
828.237	85.5
828.414	44.54
828.591	36.35
828.769	91.65
828.946	65.02
829.124	77.31
829.301	1.54
829.478	126.46
829.655	81.41
829.833	56.83
830.01	81.41
830.187	89.6
830.364	130.56
830.542	114.17
830.719	38.4
830.896	132.61
831.073	26.11
831.25	91.65
831.427	79.36
831.604	52.74
831.782	105.98
831.959	-8.7
832.136	56.83
832.313	159.23
832.49	65.02
832.667	32.26
832.844	97.79
833.021	58.88
833.198	48.64
833.374	81.41
833.551	99.84
833.728	32.26
833.905	122.37
834.082	-4.61
834.259	32.26
834.436	52.74
834.612	81.41
834.789	89.6
834.966	32.26
835.143	73.21
835.319	-16.9
835.496	40.45
835.673	91.65
835.85	79.36
836.026	93.69
836.203	75.26
836.38	120.32
836.556	69.12
836.733	56.83
836.909	138.75
837.086	52.74
837.262	110.08
837.439	60.93
837.616	122.37
837.792	26.11
837.968	42.5
838.145	32.26
838.321	52.74
838.498	81.41
838.674	114.17
838.851	75.26
839.027	105.98
839.203	1.54
839.38	46.59
839.556	42.5
839.732	103.93
839.909	46.59
840.085	101.89
840.261	38.4
840.437	110.08
840.614	24.06
840.79	93.69
840.966	65.02
841.142	136.7
841.318	9.73
841.494	56.83
841.671	7.68
841.847	69.12
842.023	77.31
842.199	26.11
842.375	93.69
842.551	56.83
842.727	65.02
842.903	24.06
843.079	-23.04
843.255	73.21
843.431	-37.38
843.607	65.02
843.783	40.45
843.959	-6.66
844.134	40.45
844.31	97.79
844.486	73.21
844.662	62.98
844.838	67.07
845.013	36.35
845.189	85.5
845.365	110.08
845.541	97.79
845.716	69.12
845.892	7.68
846.068	26.11
846.244	52.74
846.419	15.87
846.595	52.74
846.77	15.87
846.946	28.16
847.122	89.6
847.297	83.45
847.473	-14.85
847.648	69.12
847.824	108.03
847.999	5.63
848.175	85.5
848.35	122.37
848.526	36.35
848.701	-10.75
848.876	40.45
849.052	91.65
849.227	34.3
849.403	54.78
849.578	15.87
849.753	34.3
849.929	108.03
850.104	-33.28
850.279	62.98
850.454	1.54
850.63	11.78
850.805	126.46
850.98	77.31
851.155	75.26
851.33	81.41
851.505	65.02
851.681	99.84
851.856	52.74
852.031	101.89
852.206	58.88
852.381	58.88
852.556	13.82
852.731	60.93
852.906	103.93
853.081	99.84
853.256	56.83
853.431	19.97
853.606	52.74
853.781	26.11
853.956	-4.61
854.131	36.35
854.305	40.45
854.48	-23.04
854.655	-6.66
854.83	-33.28
855.005	34.3
855.18	32.26
855.354	7.68
855.529	-8.7
855.704	32.26
855.879	40.45
856.053	-37.38
856.228	26.11
856.403	65.02
856.577	3.58
856.752	-8.7
856.926	13.82
857.101	1.54
857.276	-57.86
857.45	48.64
857.625	75.26
857.799	5.63
857.974	48.64
858.148	-23.04
858.323	56.83
858.497	24.06
858.672	-10.75
858.846	-33.28
859.02	77.31
859.195	-4.61
859.369	-6.66
859.543	-4.61
859.718	75.26
859.892	1.54
860.066	40.45
860.241	93.69
860.415	24.06
860.589	30.21
860.763	17.92
860.938	62.98
861.112	24.06
861.286	11.78
861.46	13.82
861.634	26.11
861.808	89.6
861.982	40.45
862.157	-6.66
862.331	-12.8
862.505	24.06
862.679	-53.76
862.853	-25.09
863.027	1.54
863.201	60.93
863.375	1.54
863.549	93.69
863.722	24.06
863.896	36.35
864.07	15.87
864.244	-53.76
864.418	40.45
864.592	40.45
864.766	1.54
864.939	95.74
865.113	-45.57
865.287	22.02
865.461	15.87
865.634	19.97
865.808	50.69
865.982	3.58
866.156	3.58
866.329	-59.9
866.503	40.45
866.676	24.06
866.85	19.97
867.024	7.68
867.197	30.21
867.371	40.45
867.544	32.26
867.718	-12.8
867.891	-14.85
868.065	3.58
868.238	-33.28
868.412	-4.61
868.585	40.45
868.759	-53.76
868.932	24.06
869.105	7.68
869.279	77.31
869.452	-20.99
869.625	1.54
869.799	7.68
869.972	-8.7
870.145	1.54
870.319	15.87
870.492	50.69
870.665	28.16
870.838	-0.51
871.011	3.58
871.185	24.06
871.358	-27.14
871.531	28.16
871.704	87.55
871.877	44.54
872.05	17.92
872.223	-39.42
872.396	34.3
872.569	28.16
872.742	-31.23
872.915	13.82
873.088	-72.19
873.261	-31.23
873.434	54.78
873.607	-16.9
873.78	93.69
873.953	19.97
874.126	-12.8
874.299	-16.9
874.471	-12.8
874.644	-31.23
874.817	32.26
874.99	91.65
875.163	3.58
875.335	54.78
875.508	32.26
875.681	44.54
875.853	89.6
876.026	-0.51
876.199	-8.7
876.371	-20.99
876.544	36.35
876.717	-41.47
876.889	-33.28
877.062	3.58
877.234	-16.9
877.407	36.35
877.579	9.73
877.752	44.54
877.924	-14.85
878.097	48.64
878.269	13.82
878.442	17.92
878.614	73.21
878.786	105.98
878.959	22.02
879.131	19.97
879.303	46.59
879.476	-31.23
879.648	-16.9
879.82	7.68
879.993	-16.9
880.165	11.78
880.337	7.68
880.509	50.69
880.681	30.21
880.854	22.02
881.026	-49.66
881.198	75.26
881.37	95.74
881.542	-2.56
881.714	3.58
881.886	-0.51
882.058	42.5
882.23	15.87
882.402	-35.33
882.574	7.68
882.746	130.56
882.918	60.93
883.09	-57.86
883.262	-70.14
883.434	56.83
883.606	48.64
883.778	30.21
883.95	56.83
884.122	-25.09
884.293	44.54
884.465	-45.57
884.637	3.58
884.809	-33.28
884.98	-6.66
885.152	-45.57
885.324	19.97
885.496	-49.66
885.667	-66.05
885.839	-12.8
886.011	134.65
886.182	15.87
886.354	-18.94
886.525	-23.04
886.697	-14.85
886.869	26.11
887.04	-10.75
887.212	28.16
887.383	95.74
887.555	11.78
887.726	81.41
887.897	-14.85
888.069	-8.7
888.24	-12.8
888.412	-12.8
888.583	32.26
888.754	40.45
888.926	58.88
889.097	-25.09
889.268	-0.51
889.44	15.87
889.611	-57.86
889.782	-27.14
889.953	-29.18
890.125	75.26
890.296	-8.7
890.467	-45.57
890.638	-10.75
890.809	-14.85
890.98	28.16
891.151	73.21
891.323	40.45
891.494	48.64
891.665	-12.8
891.836	40.45
892.007	-25.09
892.178	50.69
892.349	-4.61
892.52	-14.85
892.691	22.02
892.862	24.06
893.032	-49.66
893.203	67.07
893.374	-8.7
893.545	24.06
893.716	50.69
893.887	-2.56
894.057	3.58
894.228	3.58
894.399	5.63
894.57	24.06
894.74	40.45
894.911	40.45
895.082	-47.62
895.253	7.68
895.423	34.3
895.594	-2.56
895.764	9.73
895.935	65.02
896.106	7.68
896.276	-64
896.447	13.82
896.617	-45.57
896.788	-74.24
896.958	-12.8
897.129	-0.51
897.299	-66.05
897.47	9.73
897.64	-6.66
897.81	28.16
897.981	-57.86
898.151	-29.18
898.322	44.54
898.492	56.83
898.662	-33.28
898.832	-33.28
899.003	-16.9
899.173	9.73
899.343	-8.7
899.513	-10.75
