Data from USB4F104151__91__14-17-57-401.txt Node

Date: Thu Mar 13 14:17:57 EDT 2025
User: louis
Spectrometer: USB4F10415
Trigger mode: 4
Integration Time (sec): 2.000000E-2
Scans to average: 1
Electric dark correction enabled: true
Nonlinearity correction enabled: false
Boxcar width: 0
XAxis mode: Wavelengths
Number of Pixels in Spectrum: 3648
>>>>>Begin Spectral Data<<<<<
178.204	-134.48
178.424	-134.48
178.644	-134.48
178.864	-58.71
179.084	-99.67
179.304	29.35
179.524	-25.94
179.744	45.74
179.964	21.16
180.184	-11.61
180.404	-5.46
180.624	-27.99
180.844	10.92
181.064	-13.65
181.283	-34.13
181.503	12.97
181.723	-1.37
181.943	-19.8
182.163	21.16
182.383	-42.32
182.602	10.92
182.822	0.68
183.042	55.98
183.262	39.59
183.482	-36.18
183.701	62.12
183.921	-46.42
184.141	60.07
184.361	-23.89
184.58	12.97
184.8	17.07
185.02	0.68
185.239	31.4
185.459	6.83
185.679	-25.94
185.898	-95.57
186.118	86.7
186.338	-73.04
186.557	76.46
186.777	-23.89
186.997	10.92
187.216	25.26
187.436	76.46
187.655	-13.65
187.875	35.5
188.095	37.55
188.314	17.07
188.534	66.22
188.753	-44.37
188.973	105.13
189.192	60.07
189.412	-21.85
189.631	80.55
189.851	-27.99
190.07	125.61
190.29	-17.75
190.509	64.17
190.729	-27.99
190.948	-3.41
191.168	141.99
191.387	70.31
191.607	2.73
191.826	45.74
192.045	-9.56
192.265	45.74
192.484	4.78
192.704	-3.41
192.923	-62.8
193.142	19.11
193.362	-54.61
193.581	2.73
193.8	35.5
194.02	19.11
194.239	21.16
194.458	21.16
194.678	19.11
194.897	35.5
195.116	-36.18
195.335	-75.09
195.555	-34.13
195.774	45.74
195.993	70.31
196.212	62.12
196.432	60.07
196.651	10.92
196.87	-7.51
197.089	-21.85
197.308	10.92
197.528	12.97
197.747	-40.28
197.966	-17.75
198.185	92.84
198.404	19.11
198.623	21.16
198.842	4.78
199.062	2.73
199.281	60.07
199.5	-1.37
199.719	10.92
199.938	19.11
200.157	53.93
200.376	55.98
200.595	45.74
200.814	-34.13
201.033	-19.8
201.252	-15.7
201.471	-32.08
201.69	8.87
201.909	68.27
202.128	19.11
202.347	-21.85
202.566	39.59
202.785	4.78
203.004	-3.41
203.223	39.59
203.442	-9.56
203.661	27.31
203.879	-13.65
204.098	23.21
204.317	-56.66
204.536	78.51
204.755	37.55
204.974	19.11
205.193	2.73
205.411	-3.41
205.63	19.11
205.849	72.36
206.068	-30.04
206.287	43.69
206.505	53.93
206.724	-13.65
206.943	-52.56
207.162	80.55
207.381	-46.42
207.599	119.46
207.818	12.97
208.037	51.88
208.255	4.78
208.474	53.93
208.693	-3.41
208.911	-38.23
209.13	6.83
209.349	-27.99
209.567	31.4
209.786	-17.75
210.005	84.65
210.223	23.21
210.442	-79.19
210.661	43.69
210.879	15.02
211.098	-30.04
211.316	17.07
211.535	10.92
211.753	-13.65
211.972	29.35
212.191	-103.76
212.409	-27.99
212.628	15.02
212.846	-17.75
213.065	31.4
213.283	86.7
213.502	-13.65
213.72	12.97
213.938	-36.18
214.157	-50.52
214.375	-9.56
214.594	17.07
214.812	4.78
215.031	15.02
215.249	62.12
215.467	72.36
215.686	27.31
215.904	19.11
216.122	111.27
216.341	72.36
216.559	43.69
216.778	53.93
216.996	-17.75
217.214	29.35
217.432	-46.42
217.651	-75.09
217.869	8.87
218.087	51.88
218.306	-5.46
218.524	-1.37
218.742	21.16
218.96	35.5
219.179	-9.56
219.397	2.73
219.615	94.89
219.833	-15.7
220.051	31.4
220.27	21.16
220.488	43.69
220.706	55.98
220.924	15.02
221.142	2.73
221.36	49.83
221.578	39.59
221.796	27.31
222.015	-5.46
222.233	-1.37
222.451	0.68
222.669	-1.37
222.887	-1.37
223.105	-46.42
223.323	8.87
223.541	4.78
223.759	19.11
223.977	-19.8
224.195	78.51
224.413	-71
224.631	51.88
224.849	-54.61
225.067	43.69
225.285	-73.04
225.503	-62.8
225.721	-34.13
225.939	86.7
226.157	-34.13
226.375	101.03
226.592	37.55
226.81	43.69
227.028	-15.7
227.246	84.65
227.464	-46.42
227.682	-5.46
227.9	84.65
228.117	49.83
228.335	-48.47
228.553	64.17
228.771	-17.75
228.989	-9.56
229.206	-5.46
229.424	35.5
229.642	-13.65
229.86	-46.42
230.077	10.92
230.295	-1.37
230.513	15.02
230.731	-13.65
230.948	29.35
231.166	33.45
231.384	-27.99
231.601	-25.94
231.819	-11.61
232.037	10.92
232.254	-21.85
232.472	27.31
232.689	2.73
232.907	47.79
233.125	-23.89
233.342	-1.37
233.56	45.74
233.777	2.73
233.995	58.03
234.213	43.69
234.43	4.78
234.648	-23.89
234.865	-27.99
235.083	39.59
235.3	-9.56
235.518	43.69
235.735	19.11
235.953	47.79
236.17	19.11
236.388	27.31
236.605	-21.85
236.822	53.93
237.04	-21.85
237.257	27.31
237.475	-50.52
237.692	-1.37
237.909	53.93
238.127	-40.28
238.344	-36.18
238.562	27.31
238.779	-11.61
238.996	-27.99
239.214	-19.8
239.431	-9.56
239.648	47.79
239.865	43.69
240.083	-3.41
240.3	80.55
240.517	-42.32
240.735	35.5
240.952	35.5
241.169	4.78
241.386	88.75
241.603	-5.46
241.821	-30.04
242.038	53.93
242.255	-17.75
242.472	-42.32
242.689	35.5
242.907	12.97
243.124	2.73
243.341	101.03
243.558	6.83
243.775	-27.99
243.992	-58.71
244.209	31.4
244.426	101.03
244.643	37.55
244.86	-7.51
245.078	23.21
245.295	-19.8
245.512	43.69
245.729	-79.19
245.946	29.35
246.163	21.16
246.38	23.21
246.597	-13.65
246.814	-9.56
247.031	-44.37
247.248	35.5
247.464	-13.65
247.681	60.07
247.898	-7.51
248.115	-54.61
248.332	-32.08
248.549	23.21
248.766	127.66
248.983	21.16
249.2	8.87
249.417	41.64
249.633	6.83
249.85	19.11
250.067	-21.85
250.284	31.4
250.501	27.31
250.717	12.97
250.934	-66.9
251.151	2.73
251.368	62.12
251.585	-21.85
251.801	51.88
252.018	-30.04
252.235	31.4
252.451	64.17
252.668	43.69
252.885	47.79
253.102	2.73
253.318	51.88
253.535	4.78
253.752	27.31
253.968	31.4
254.185	-50.52
254.401	25.26
254.618	-62.8
254.835	23.21
255.051	21.16
255.268	19.11
255.484	35.5
255.701	10.92
255.917	68.27
256.134	-56.66
256.351	10.92
256.567	-46.42
256.784	27.31
257	27.31
257.217	2.73
257.433	53.93
257.65	29.35
257.866	129.7
258.082	-21.85
258.299	8.87
258.515	31.4
258.732	-27.99
258.948	21.16
259.165	-42.32
259.381	10.92
259.597	12.97
259.814	12.97
260.03	12.97
260.246	-17.75
260.463	51.88
260.679	86.7
260.895	27.31
261.112	-46.42
261.328	-68.95
261.544	4.78
261.761	35.5
261.977	37.55
262.193	12.97
262.409	-15.7
262.626	27.31
262.842	-27.99
263.058	-44.37
263.274	41.64
263.49	29.35
263.707	76.46
263.923	29.35
264.139	19.11
264.355	-1.37
264.571	29.35
264.787	8.87
265.004	10.92
265.22	45.74
265.436	-5.46
265.652	-3.41
265.868	-30.04
266.084	12.97
266.3	51.88
266.516	4.78
266.732	23.21
266.948	-54.61
267.164	62.12
267.38	31.4
267.596	53.93
267.812	60.07
268.028	-19.8
268.244	-15.7
268.46	19.11
268.676	-50.52
268.892	60.07
269.108	-64.85
269.324	-50.52
269.54	-19.8
269.756	-5.46
269.972	-17.75
270.188	-17.75
270.403	-17.75
270.619	43.69
270.835	-5.46
271.051	-21.85
271.267	-27.99
271.483	-83.28
271.698	-34.13
271.914	62.12
272.13	-9.56
272.346	80.55
272.562	-23.89
272.777	60.07
272.993	-9.56
273.209	-5.46
273.425	12.97
273.64	-81.24
273.856	10.92
274.072	6.83
274.287	2.73
274.503	2.73
274.719	29.35
274.934	25.26
275.15	-83.28
275.366	51.88
275.581	-13.65
275.797	-27.99
276.012	-71
276.228	70.31
276.444	64.17
276.659	80.55
276.875	21.16
277.09	27.31
277.306	35.5
277.521	47.79
277.737	43.69
277.952	8.87
278.168	-30.04
278.383	39.59
278.599	45.74
278.814	27.31
279.03	4.78
279.245	55.98
279.461	17.07
279.676	64.17
279.892	10.92
280.107	-21.85
280.322	-11.61
280.538	4.78
280.753	31.4
280.969	12.97
281.184	111.27
281.399	43.69
281.615	-52.56
281.83	4.78
282.045	-30.04
282.26	2.73
282.476	15.02
282.691	47.79
282.906	17.07
283.122	29.35
283.337	41.64
283.552	-19.8
283.767	19.11
283.983	-27.99
284.198	0.68
284.413	43.69
284.628	35.5
284.843	-32.08
285.058	10.92
285.274	41.64
285.489	-17.75
285.704	29.35
285.919	17.07
286.134	94.89
286.349	43.69
286.564	-17.75
286.779	43.69
286.995	12.97
287.21	43.69
287.425	86.7
287.64	12.97
287.855	47.79
288.07	-30.04
288.285	-34.13
288.5	-17.75
288.715	-77.14
288.93	-11.61
289.145	-1.37
289.36	10.92
289.575	8.87
289.79	27.31
290.004	19.11
290.219	129.7
290.434	-38.23
290.649	8.87
290.864	29.35
291.079	0.68
291.294	4.78
291.509	-3.41
291.724	0.68
291.938	-27.99
292.153	10.92
292.368	10.92
292.583	51.88
292.798	53.93
293.012	47.79
293.227	2.73
293.442	29.35
293.657	2.73
293.871	-19.8
294.086	88.75
294.301	53.93
294.516	62.12
294.73	10.92
294.945	29.35
295.16	27.31
295.374	27.31
295.589	55.98
295.804	-27.99
296.018	-5.46
296.233	10.92
296.447	-17.75
296.662	-11.61
296.877	4.78
297.091	60.07
297.306	29.35
297.52	23.21
297.735	17.07
297.949	-15.7
298.164	64.17
298.378	60.07
298.593	51.88
298.807	-99.67
299.022	4.78
299.236	17.07
299.451	10.92
299.665	-3.41
299.88	23.21
300.094	12.97
300.309	21.16
300.523	0.68
300.737	-13.65
300.952	-5.46
301.166	45.74
301.381	-15.7
301.595	2.73
301.809	43.69
302.024	80.55
302.238	19.11
302.452	76.46
302.667	31.4
302.881	49.83
303.095	-23.89
303.309	19.11
303.524	10.92
303.738	-13.65
303.952	-7.51
304.166	92.84
304.381	43.69
304.595	96.94
304.809	43.69
305.023	19.11
305.237	-42.32
305.452	2.73
305.666	-27.99
305.88	115.37
306.094	12.97
306.308	70.31
306.522	43.69
306.736	70.31
306.95	43.69
307.164	-25.94
307.379	-54.61
307.593	96.94
307.807	-5.46
308.021	-13.65
308.235	45.74
308.449	-3.41
308.663	-54.61
308.877	2.73
309.091	47.79
309.305	70.31
309.519	-71
309.733	43.69
309.947	29.35
310.161	109.22
310.374	55.98
310.588	10.92
310.802	-11.61
311.016	76.46
311.23	-13.65
311.444	31.4
311.658	-3.41
311.872	68.27
312.085	43.69
312.299	47.79
312.513	17.07
312.727	-11.61
312.941	64.17
313.154	10.92
313.368	-56.66
313.582	-62.8
313.796	10.92
314.009	27.31
314.223	8.87
314.437	25.26
314.651	43.69
314.864	39.59
315.078	-44.37
315.292	-60.76
315.505	-11.61
315.719	-9.56
315.933	4.78
316.146	-58.71
316.36	-38.23
316.573	68.27
316.787	10.92
317.001	35.5
317.214	-46.42
317.428	35.5
317.641	21.16
317.855	-5.46
318.068	-5.46
318.282	70.31
318.495	117.42
318.709	35.5
318.922	-40.28
319.136	10.92
319.349	53.93
319.563	19.11
319.776	-13.65
319.99	-1.37
320.203	55.98
320.417	41.64
320.63	41.64
320.843	43.69
321.057	72.36
321.27	47.79
321.483	62.12
321.697	10.92
321.91	21.16
322.124	88.75
322.337	12.97
322.55	2.73
322.763	51.88
322.977	-11.61
323.19	-54.61
323.403	19.11
323.617	64.17
323.83	45.74
324.043	-73.04
324.256	-27.99
324.469	12.97
324.683	-21.85
324.896	31.4
325.109	43.69
325.322	8.87
325.535	12.97
325.748	27.31
325.962	68.27
326.175	33.45
326.388	39.59
326.601	66.22
326.814	2.73
327.027	76.46
327.24	39.59
327.453	-32.08
327.666	62.12
327.879	15.02
328.092	0.68
328.305	-3.41
328.518	-17.75
328.731	21.16
328.944	33.45
329.157	45.74
329.37	6.83
329.583	66.22
329.796	78.51
330.009	10.92
330.222	94.89
330.435	39.59
330.648	-36.18
330.861	-9.56
331.073	-50.52
331.286	-60.76
331.499	-9.56
331.712	35.5
331.925	29.35
332.138	15.02
332.35	74.41
332.563	72.36
332.776	17.07
332.989	-30.04
333.202	96.94
333.414	76.46
333.627	27.31
333.84	-42.32
334.053	125.61
334.265	39.59
334.478	35.5
334.691	-36.18
334.903	62.12
335.116	39.59
335.329	37.55
335.541	53.93
335.754	72.36
335.966	27.31
336.179	29.35
336.392	10.92
336.604	60.07
336.817	17.07
337.029	29.35
337.242	12.97
337.454	4.78
337.667	-34.13
337.88	80.55
338.092	4.78
338.305	27.31
338.517	-13.65
338.729	2.73
338.942	96.94
339.154	43.69
339.367	49.83
339.579	6.83
339.792	6.83
340.004	19.11
340.217	8.87
340.429	35.5
340.641	-52.56
340.854	74.41
341.066	-48.47
341.278	21.16
341.491	60.07
341.703	19.11
341.915	31.4
342.128	58.03
342.34	-9.56
342.552	4.78
342.764	19.11
342.977	35.5
343.189	39.59
343.401	51.88
343.613	15.02
343.826	-13.65
344.038	78.51
344.25	51.88
344.462	-38.23
344.674	51.88
344.886	58.03
345.099	98.99
345.311	47.79
345.523	45.74
345.735	-44.37
345.947	6.83
346.159	-5.46
346.371	55.98
346.583	-3.41
346.795	84.65
347.007	51.88
347.219	51.88
347.431	-30.04
347.643	-5.46
347.855	-19.8
348.067	43.69
348.279	-19.8
348.491	111.27
348.703	19.11
348.915	80.55
349.127	80.55
349.339	53.93
349.551	-46.42
349.763	-17.75
349.975	86.7
350.187	-1.37
350.399	23.21
350.61	43.69
350.822	35.5
351.034	37.55
351.246	-5.46
351.458	-25.94
351.669	58.03
351.881	-5.46
352.093	-1.37
352.305	45.74
352.517	51.88
352.728	12.97
352.94	-40.28
353.152	15.02
353.363	49.83
353.575	-9.56
353.787	41.64
353.999	23.21
354.21	10.92
354.422	37.55
354.633	47.79
354.845	39.59
355.057	-27.99
355.268	2.73
355.48	45.74
355.692	29.35
355.903	19.11
356.115	45.74
356.326	-21.85
356.538	103.08
356.749	60.07
356.961	84.65
357.172	19.11
357.384	-36.18
357.595	25.26
357.807	-68.95
358.018	-21.85
358.23	47.79
358.441	29.35
358.653	0.68
358.864	-21.85
359.075	47.79
359.287	45.74
359.498	78.51
359.709	-5.46
359.921	74.41
360.132	70.31
360.344	43.69
360.555	10.92
360.766	41.64
360.977	15.02
361.189	19.11
361.4	37.55
361.611	-23.89
361.823	60.07
362.034	119.46
362.245	-87.38
362.456	15.02
362.667	92.84
362.879	29.35
363.09	15.02
363.301	35.5
363.512	10.92
363.723	29.35
363.935	21.16
364.146	68.27
364.357	51.88
364.568	10.92
364.779	15.02
364.99	88.75
365.201	15.02
365.412	37.55
365.623	-19.8
365.834	-21.85
366.045	-3.41
366.256	60.07
366.467	76.46
366.678	15.02
366.889	10.92
367.1	94.89
367.311	53.93
367.522	51.88
367.733	86.7
367.944	-38.23
368.155	37.55
368.366	101.03
368.577	80.55
368.788	105.13
368.999	-32.08
369.209	84.65
369.42	60.07
369.631	60.07
369.842	51.88
370.053	-13.65
370.264	47.79
370.474	31.4
370.685	70.31
370.896	64.17
371.107	-15.7
371.317	31.4
371.528	45.74
371.739	133.8
371.95	27.31
372.16	119.46
372.371	-44.37
372.582	-52.56
372.792	37.55
373.003	76.46
373.214	4.78
373.424	60.07
373.635	-58.71
373.846	23.21
374.056	6.83
374.267	43.69
374.477	101.03
374.688	47.79
374.898	25.26
375.109	27.31
375.319	55.98
375.53	60.07
375.74	70.31
375.951	8.87
376.161	19.11
376.372	64.17
376.582	-1.37
376.793	62.12
377.003	60.07
377.214	-3.41
377.424	-50.52
377.635	29.35
377.845	12.97
378.055	94.89
378.266	35.5
378.476	27.31
378.686	29.35
378.897	35.5
379.107	35.5
379.317	-5.46
379.528	27.31
379.738	70.31
379.948	2.73
380.158	92.84
380.369	-42.32
380.579	92.84
380.789	33.45
380.999	4.78
381.21	78.51
381.42	23.21
381.63	33.45
381.84	58.03
382.05	55.98
382.261	17.07
382.471	33.45
382.681	144.04
382.891	19.11
383.101	101.03
383.311	-27.99
383.521	-9.56
383.731	23.21
383.941	37.55
384.151	-7.51
384.361	47.79
384.571	-3.41
384.781	58.03
384.991	109.22
385.201	47.79
385.411	76.46
385.621	101.03
385.831	12.97
386.041	43.69
386.251	21.16
386.461	39.59
386.671	27.31
386.881	15.02
387.091	27.31
387.301	109.22
387.511	10.92
387.72	60.07
387.93	68.27
388.14	-40.28
388.35	12.97
388.56	66.22
388.769	47.79
388.979	-30.04
389.189	10.92
389.399	35.5
389.609	117.42
389.818	60.07
390.028	43.69
390.238	74.41
390.447	-15.7
390.657	21.16
390.867	68.27
391.076	47.79
391.286	94.89
391.496	74.41
391.705	62.12
391.915	141.99
392.125	76.46
392.334	96.94
392.544	113.32
392.753	35.5
392.963	29.35
393.172	86.7
393.382	25.26
393.591	129.7
393.801	92.84
394.01	119.46
394.22	58.03
394.429	66.22
394.639	25.26
394.848	2.73
395.058	-19.8
395.267	-5.46
395.477	60.07
395.686	62.12
395.895	152.23
396.105	111.27
396.314	27.31
396.524	45.74
396.733	25.26
396.942	76.46
397.152	-9.56
397.361	31.4
397.57	109.22
397.78	60.07
397.989	96.94
398.198	51.88
398.407	33.45
398.617	76.46
398.826	107.18
399.035	70.31
399.244	60.07
399.453	111.27
399.663	103.08
399.872	113.32
400.081	8.87
400.29	80.55
400.499	117.42
400.708	62.12
400.917	66.22
401.127	43.69
401.336	70.31
401.545	176.81
401.754	105.13
401.963	127.66
402.172	27.31
402.381	10.92
402.59	64.17
402.799	103.08
403.008	76.46
403.217	178.86
403.426	53.93
403.635	90.79
403.844	96.94
404.053	135.85
404.262	76.46
404.471	119.46
404.68	103.08
404.888	117.42
405.097	82.6
405.306	141.99
405.515	103.08
405.724	88.75
405.933	88.75
406.142	72.36
406.35	223.91
406.559	178.86
406.768	125.61
406.977	205.48
407.185	125.61
407.394	152.23
407.603	228.01
407.812	223.91
408.02	127.66
408.229	234.15
408.438	168.62
408.646	207.53
408.855	238.25
409.064	113.32
409.272	158.38
409.481	234.15
409.69	178.86
409.898	191.14
410.107	217.77
410.315	236.2
410.524	260.77
410.733	215.72
410.941	201.38
411.15	295.59
411.358	359.08
411.567	320.17
411.775	291.49
411.984	344.74
412.192	371.36
412.401	340.65
412.609	383.65
412.818	395.94
413.026	373.41
413.234	361.13
413.443	436.9
413.651	359.08
413.86	412.32
414.068	434.85
414.276	527.01
414.485	563.87
414.693	592.55
414.901	608.93
415.11	541.35
415.318	608.93
415.526	572.07
415.734	565.92
415.943	621.22
416.151	694.94
416.359	666.27
416.567	686.75
416.776	748.19
416.984	715.42
417.192	823.97
417.4	799.39
417.608	842.4
417.817	864.93
418.025	938.65
418.233	899.74
418.441	862.88
418.649	938.65
418.857	996
419.065	1059.48
419.273	993.95
419.481	1192.6
419.689	1143.45
419.897	1366.68
420.105	1227.42
420.313	1254.04
420.521	1378.97
420.729	1374.87
420.937	1335.96
421.145	1419.92
421.353	1550.99
421.561	1696.4
421.769	1630.87
421.977	1655.44
422.185	1632.91
422.393	1845.9
422.601	1856.14
422.809	1907.34
423.017	1966.73
423.224	1938.06
423.432	2019.98
423.64	2099.85
423.848	2167.43
424.056	2110.09
424.263	2378.37
424.471	2282.12
424.679	2380.42
424.887	2534.02
425.094	2646.66
425.302	2534.02
425.51	2626.18
425.718	2755.2
425.925	2771.58
426.133	2925.18
426.341	3064.44
426.548	3328.63
426.756	3093.12
426.964	3142.27
427.171	3496.57
427.379	3539.57
427.586	3512.95
427.794	3715.7
428.001	3918.45
428.209	4082.28
428.417	4004.46
428.624	4215.4
428.832	4260.46
429.039	4233.83
429.247	4221.55
429.454	4688.48
429.662	4917.86
429.869	4475.49
430.076	4932.19
430.284	4805.22
430.491	4885.09
430.699	5223
430.906	5245.53
431.114	5409.37
431.321	5651.03
431.528	5608.02
431.736	6167.12
431.943	6296.14
432.15	6175.31
432.358	6242.89
432.565	6505.03
432.772	6629.96
432.979	6928.96
433.187	7109.18
433.394	6894.15
433.601	7385.66
433.808	7410.23
434.016	7502.39
434.223	7717.43
434.43	8114.73
434.637	8100.4
434.844	8573.48
435.052	8792.61
435.259	8735.27
435.466	8798.76
435.673	8677.93
435.88	9386.52
436.087	9613.85
436.294	9550.36
436.501	9466.39
436.708	9632.28
436.915	10058.26
437.122	10500.62
437.329	10445.32
437.537	10619.4
437.743	10828.29
437.95	10766.85
438.157	11473.4
438.364	11858.42
438.571	11848.18
438.778	11782.65
438.985	12806.63
439.192	12399.09
439.399	12964.32
439.606	12337.65
439.813	13306.34
440.02	14023.12
440.227	13525.47
440.433	13685.21
440.64	14010.84
440.847	13920.73
441.054	14387.66
441.261	15094.21
441.467	15012.29
441.674	15407.55
441.881	15874.49
442.088	16122.29
442.294	15792.57
442.501	16355.76
442.708	16513.45
442.914	17174.95
443.121	17744.28
443.328	17351.07
443.534	18721.17
443.741	18135.45
443.948	17678.75
444.154	19243.4
444.361	18948.49
444.568	19075.46
444.774	19067.27
444.981	19308.93
445.187	19863.93
445.394	20717.93
445.6	20572.53
445.807	22839.63
446.013	21416.29
446.22	21811.55
446.426	22636.88
446.633	22993.23
446.839	23562.56
447.046	22796.62
447.252	24058.17
447.459	23978.3
447.665	24064.32
447.871	25030.96
448.078	26067.23
448.284	24799.54
448.491	25612.58
448.697	26358.04
448.903	27054.35
449.11	27050.25
449.316	26646.8
449.522	26962.19
449.728	27937.02
449.935	27967.74
450.141	27855.11
450.347	28627.19
450.553	27699.46
450.76	28229.88
450.966	29362.41
451.172	28510.46
451.378	29735.14
451.584	28918
451.791	29685.99
451.997	29894.88
452.203	30021.86
452.409	30120.16
452.615	29962.47
452.821	28813.56
453.027	28553.46
453.233	29987.04
453.44	28997.87
453.646	28813.56
453.852	29300.97
454.058	29970.66
454.264	28877.04
454.47	29405.42
454.676	28641.53
454.882	29655.27
455.088	27406.6
455.294	27490.57
455.5	28127.49
455.705	28363
455.911	27351.31
456.117	26579.22
456.323	26560.79
456.529	24883.5
456.735	26089.76
456.941	25549.09
457.147	24967.47
457.352	24109.37
457.558	24090.94
457.764	24148.28
457.97	23830.85
458.176	23335.24
458.381	23146.83
458.587	22139.22
458.793	21793.12
458.999	20908.4
459.204	22397.27
459.41	21657.95
459.616	20463.99
459.821	20431.22
460.027	20490.61
460.233	19958.14
460.438	19188.1
460.644	19075.46
460.85	18127.25
461.055	18114.97
461.261	17826.2
461.466	16650.67
461.672	16228.79
461.878	17174.95
462.083	16067
462.289	15731.13
462.494	15581.63
462.7	14729.67
462.905	14377.42
463.111	14971.33
463.316	15256
463.522	14711.24
463.727	14920.13
463.932	15108.55
464.138	14410.19
464.343	14731.72
464.549	14334.42
464.754	14707.15
464.959	14723.53
465.165	14514.64
465.37	13855.19
465.575	13543.9
465.781	13992.41
465.986	14203.35
466.191	13674.97
466.397	13474.27
466.602	12687.85
466.807	13261.28
467.012	13400.54
467.218	13371.87
467.423	12909.03
467.628	13416.93
467.833	13504.99
468.038	13251.04
468.244	12749.29
468.449	13218.27
468.654	12716.52
468.859	12732.9
469.064	12790.25
469.269	12167.66
469.474	12552.68
469.679	12597.74
469.885	12186.1
470.09	12343.79
470.295	12343.79
470.5	11952.63
470.705	12143.09
470.91	11823.61
471.115	11987.44
471.32	11807.22
471.525	11741.69
471.73	11627
471.935	11438.59
472.139	11278.85
472.344	11309.57
472.549	11129.34
472.754	11084.29
472.959	10797.57
473.164	10496.52
473.369	10447.37
473.574	10918.4
473.778	10625.54
473.983	10680.84
474.188	10852.87
474.393	10119.7
474.598	10344.97
474.802	9994.77
475.007	10177.04
475.212	10220.05
475.417	9712.15
475.621	9863.7
475.826	9746.97
476.031	9593.37
476.235	9341.47
476.44	9572.89
476.645	9400.86
476.849	9318.94
477.054	9155.1
477.259	9171.49
477.463	9136.67
477.668	8759.84
477.872	9030.18
478.077	8987.17
478.282	8497.7
478.486	8497.7
478.691	8507.94
478.895	8438.31
479.1	8432.17
479.304	8432.17
479.509	8092.21
479.713	8350.25
479.918	8213.04
480.122	7954.99
480.326	8280.62
480.531	8260.14
480.735	7944.75
480.94	8010.29
481.144	8286.76
481.348	7899.7
481.553	8063.54
481.757	7830.07
481.961	7871.03
482.166	8153.65
482.37	7903.79
482.574	7787.06
482.778	7832.12
482.983	8063.54
483.187	7793.2
483.391	7907.89
483.595	7834.16
483.8	7752.24
484.004	7916.08
484.208	7922.23
484.412	7760.44
484.616	7768.63
484.821	7926.32
485.025	7649.85
485.229	8006.19
485.433	7801.4
485.637	7813.68
485.841	7836.21
486.045	7778.87
486.249	7875.12
486.453	7840.31
486.657	7856.69
486.861	7932.47
487.065	7588.41
487.269	7731.76
487.473	7703.09
487.677	7875.12
487.881	8055.34
488.085	7944.75
488.289	7828.02
488.493	7805.49
488.697	7948.85
488.901	8043.06
489.105	7891.51
489.309	7924.27
489.512	8071.73
489.716	8014.38
489.92	8131.12
490.124	8016.43
490.328	8045.1
490.531	7993.9
490.735	8112.69
490.939	8045.1
491.143	8022.58
491.346	8088.11
491.55	8299.05
491.754	8196.65
491.958	8380.97
492.161	8190.51
492.365	8104.49
492.569	8249.9
492.772	8409.64
492.976	8305.2
493.18	8505.9
493.383	8501.8
493.587	8483.37
493.79	8585.77
493.994	8563.24
494.197	8641.06
494.401	8872.48
494.605	8749.61
494.808	8825.38
495.012	9046.56
495.215	9058.85
495.419	9103.9
495.622	8880.68
495.825	9210.4
496.029	9040.42
496.232	9237.02
496.436	9382.43
496.639	9628.18
496.843	9370.14
497.046	9493.02
497.249	9857.56
497.453	9794.07
497.656	9980.43
497.859	9933.33
498.063	10248.72
498.266	10394.12
498.469	10211.85
498.673	10424.84
498.876	10553.87
499.079	10705.42
499.282	10684.94
499.485	10830.34
499.689	10826.25
499.892	11153.92
500.095	10928.64
500.298	11391.48
500.501	11366.91
500.705	11475.45
500.908	11604.47
501.111	11760.12
501.314	11835.89
501.517	11839.99
501.72	12222.96
501.923	12157.43
502.126	12640.75
502.329	12861.93
502.532	12759.53
502.735	12757.48
502.938	13109.73
503.141	13093.35
503.344	13355.49
503.547	13355.49
503.75	13681.11
503.953	13810.14
504.156	13904.34
504.359	13961.69
504.562	14035.41
504.765	14291.41
504.968	14428.62
505.17	14619.08
505.373	14670.28
505.576	14942.66
505.779	14987.72
505.982	15112.64
506.185	15643.07
506.387	15481.28
506.59	15671.74
506.793	15942.07
506.996	15892.92
507.198	16468.4
507.401	16378.29
507.604	16685.48
507.807	16816.55
508.009	17144.23
508.212	17033.64
508.415	17287.59
508.617	17281.44
508.82	17672.6
509.022	17832.35
509.225	17899.93
509.428	18370.96
509.63	18088.34
509.833	18276.76
510.035	18606.48
510.238	18786.7
510.44	18782.6
510.643	19337.6
510.845	19411.33
511.048	19272.07
511.25	19663.23
511.453	19741.05
511.655	20455.79
511.858	20261.24
512.06	20590.96
512.262	20625.78
512.465	20736.37
512.667	20961.64
512.87	21444.96
513.072	21150.06
513.274	21549.41
513.477	21916
513.679	21930.33
513.881	22448.47
514.084	22317.4
514.286	22688.08
514.488	22876.49
514.69	23451.97
514.893	23482.69
515.095	23517.51
515.297	23925.05
515.499	23695.68
515.701	24027.45
515.904	24711.47
516.106	24410.42
516.308	24860.98
516.51	25071.92
516.712	25071.92
516.914	25446.69
517.116	26050.85
517.318	25907.49
517.52	26095.9
517.722	26091.8
517.925	26245.4
518.127	26794.26
518.329	27033.87
518.531	26759.44
518.733	27504.9
518.935	27408.65
519.136	27633.92
519.338	28209.4
519.54	28301.56
519.742	28403.96
519.944	28684.53
520.146	28946.67
520.348	29311.21
520.55	29298.92
520.752	29346.03
520.954	29685.99
521.155	29784.29
521.357	30433.5
521.559	30666.97
521.761	31011.03
521.963	30785.75
522.164	31035.6
522.366	31086.8
522.568	31307.98
522.77	31422.67
522.971	31770.82
523.173	31594.7
523.375	32182.46
523.576	32110.78
523.778	32024.77
523.98	32581.82
524.181	32663.74
524.383	32659.64
524.584	32858.29
524.786	33310.89
524.988	33128.63
525.189	33351.85
525.391	33654.95
525.592	33640.62
525.794	33763.5
525.995	34306.21
526.197	34265.25
526.398	34162.85
526.6	34345.12
526.801	34717.85
527.003	34408.61
527.204	34986.13
527.406	35070.1
527.607	35014.8
527.808	35143.83
528.01	35084.44
528.211	35385.49
528.412	35856.52
528.614	35676.3
528.815	35457.17
529.016	36065.41
529.218	35641.48
529.419	35616.91
529.62	36092.04
529.822	35866.76
530.023	36034.69
530.224	36108.42
530.425	36012.17
530.626	35883.14
530.828	35797.13
531.029	36649.08
531.23	36368.51
531.431	36182.15
531.632	36714.62
531.833	36632.7
532.035	36407.42
532.236	36612.22
532.437	36767.87
532.638	36479.1
532.839	36819.06
533.04	36960.37
533.241	36630.65
533.442	36882.55
533.643	36704.38
533.844	36929.66
534.045	37132.4
534.246	36728.95
534.447	36972.66
534.648	36948.09
534.849	36718.71
535.05	36933.75
535.251	37167.22
535.451	36878.46
535.652	36601.98
535.853	36911.22
536.054	36980.85
536.255	36733.05
536.456	36513.92
536.657	37267.57
536.857	36888.7
537.058	37140.6
537.259	37146.74
537.46	37396.59
537.66	36903.03
537.861	37437.55
538.062	37206.13
538.263	37175.41
538.463	37023.86
538.664	37046.39
538.865	37167.22
539.065	37210.23
539.266	36694.14
539.466	37312.63
539.667	36784.25
539.868	37316.72
540.068	36925.56
540.269	36552.83
540.469	37345.39
540.67	36690.04
540.87	36671.61
541.071	36649.08
541.271	37062.77
541.472	36704.38
541.672	36808.82
541.873	36849.78
542.073	36565.12
542.274	37113.97
542.474	36583.55
542.675	36540.54
542.875	36796.54
543.075	36987
543.276	36874.36
543.476	37132.4
543.676	36724.86
543.877	36978.81
544.077	36599.93
544.277	36733.05
544.478	36466.81
544.678	37109.88
544.878	36665.47
545.078	36644.99
545.279	36591.74
545.479	36624.51
545.679	36857.98
545.879	36706.43
546.079	36690.04
546.28	36810.87
546.48	36298.88
546.68	36593.79
546.88	36518.01
547.08	36812.92
547.28	36806.78
547.48	36538.49
547.68	36784.25
547.88	36477.05
548.081	36921.46
548.281	36819.06
548.481	36446.33
548.681	36839.54
548.881	36530.3
549.081	36739.19
549.28	36741.24
549.48	36737.15
549.68	36528.25
549.88	37062.77
550.08	36284.54
550.28	36685.95
550.48	36491.39
550.68	36673.66
550.88	36454.53
551.08	36694.14
551.279	36677.75
551.479	36561.02
551.679	36808.82
551.879	36315.26
552.079	37068.92
552.278	36550.78
552.478	36556.92
552.678	36563.07
552.878	36837.5
553.077	36485.25
553.277	36210.82
553.477	36804.73
553.676	36540.54
553.876	36018.31
554.076	36216.96
554.275	36178.05
554.475	35946.63
554.674	36485.25
554.874	36579.45
555.074	36337.79
555.273	36464.77
555.473	36616.32
555.672	36548.73
555.872	36194.43
556.071	36155.52
556.271	36604.03
556.47	36231.3
556.67	36280.45
556.869	35979.4
557.068	36225.15
557.268	35907.72
557.467	35840.14
557.667	36098.18
557.866	36030.6
558.065	36073.6
558.265	35836.04
558.464	36012.17
558.663	36239.49
558.863	35537.04
559.062	36356.22
559.261	35598.48
559.461	36003.97
559.66	35272.85
559.859	35934.34
560.058	35494.03
560.258	35954.82
560.457	35506.32
560.656	35743.88
560.855	35522.7
561.054	35385.49
561.253	35381.39
561.453	35631.24
561.652	35895.43
561.851	35678.35
562.05	35475.6
562.249	34967.7
562.448	35358.86
562.647	35008.66
562.846	35166.35
563.045	34869.4
563.244	34773.14
563.443	35491.98
563.642	34726.04
563.841	34955.41
564.04	34986.13
564.239	34947.22
564.438	34791.58
564.637	34885.78
564.836	35109.01
565.035	34220.19
565.234	34973.84
565.432	34564.25
565.631	34742.42
565.83	34883.73
566.029	34357.41
566.228	34429.09
566.427	34449.56
566.625	34095.27
566.824	33931.43
567.023	34064.55
567.222	33794.21
567.42	34060.45
567.619	33939.62
567.818	34054.31
568.016	34027.68
568.215	34113.7
568.414	33413.29
568.612	34087.07
568.811	33675.43
569.01	33622.19
569.208	33298.61
569.407	33493.16
569.605	33487.02
569.804	33734.82
570.002	33231.02
570.201	33280.17
570.4	32721.08
570.598	33224.88
570.797	32792.76
570.995	33210.54
571.193	32800.95
571.392	32516.28
571.59	32821.43
571.789	32686.26
571.987	32823.48
572.186	32661.69
572.384	32385.21
572.582	32477.37
572.781	32665.78
572.979	32280.77
573.177	32409.79
573.376	32397.5
573.574	31994.05
573.772	32178.37
573.971	31701.19
574.169	31699.14
574.367	31570.12
574.565	31959.23
574.763	31553.74
574.962	31287.5
575.16	31635.66
575.358	31348.94
575.556	31174.86
575.754	31678.66
575.952	31187.15
576.151	31711.43
576.349	30744.79
576.547	31033.55
576.745	30783.7
576.943	31355.08
577.141	31015.12
577.339	31105.23
577.537	31033.55
577.735	30693.59
577.933	30468.31
578.131	30394.59
578.329	30384.35
578.527	30230.75
578.725	30032.1
578.923	30372.06
579.121	30218.46
579.319	29681.89
579.516	30083.3
579.714	30120.16
579.912	29819.11
580.11	29800.68
580.308	30066.91
580.506	29872.35
580.704	29298.92
580.901	29659.37
581.099	29882.59
581.297	28995.82
581.495	29417.71
581.692	29368.55
581.89	28907.76
582.088	29491.43
582.285	28901.62
582.483	29126.89
582.681	28985.58
582.878	29022.45
583.076	28870.9
583.274	28713.2
583.471	28625.14
583.669	28686.58
583.866	28522.74
584.064	28799.22
584.262	28270.84
584.459	28645.62
584.657	28440.82
584.854	28483.83
585.052	27953.41
585.249	28125.44
585.447	28295.42
585.644	27648.26
585.841	27844.87
586.039	28004.61
586.236	27625.73
586.434	27562.25
586.631	27492.62
586.828	27605.25
587.026	27480.33
587.223	27584.77
587.42	27273.48
587.618	27005.2
587.815	26906.9
588.012	27244.81
588.21	26964.24
588.407	27511.05
588.604	26648.85
588.801	26603.8
588.999	26499.35
589.196	26890.51
589.393	26597.65
589.59	26120.48
589.787	26425.62
589.984	26267.93
590.182	26130.72
590.379	26104.09
590.576	26204.44
590.773	26358.04
590.97	26097.95
591.167	26368.28
591.364	25985.31
591.561	25733.41
591.758	25588
591.955	25903.39
592.152	25970.97
592.349	25516.33
592.546	25766.18
592.743	25737.51
592.94	25184.55
593.137	25489.7
593.334	25581.86
593.531	24803.63
593.727	24897.84
593.924	25733.41
594.121	25030.96
594.318	25022.76
594.515	25063.72
594.712	25016.62
594.908	24969.52
595.105	24949.04
595.302	24342.84
595.499	24768.82
595.696	24471.86
595.892	24465.72
596.089	24445.24
596.286	24701.23
596.482	24488.24
596.679	24430.9
596.876	24293.69
597.072	24127.8
597.269	24183.1
597.466	24076.6
597.662	23779.65
597.859	23992.64
598.055	24131.9
598.252	23509.32
598.448	23677.25
598.645	23910.72
598.841	23714.11
599.038	23660.87
599.234	23378.25
599.431	23181.64
599.627	23241.03
599.824	23531.84
600.02	23308.61
600.217	23071.05
600.413	22980.94
600.609	22886.73
600.806	22931.79
601.002	23060.81
601.198	22810.96
601.395	22790.48
601.591	22585.68
601.787	22702.42
601.984	22430.04
602.18	22651.22
602.376	22468.95
602.572	22147.42
602.769	22389.08
602.965	22350.17
603.161	22315.35
603.357	21977.44
603.553	21809.5
603.75	22034.78
603.946	21793.12
604.142	21977.44
604.338	21797.21
604.534	21809.5
604.73	21408.1
604.926	21647.71
605.122	21434.72
605.318	21533.03
605.514	21383.52
605.71	21590.37
605.906	21328.23
606.102	21102.95
606.298	21465.44
606.494	21354.85
606.69	21256.55
606.886	20947.31
607.082	21018.99
607.278	20957.55
607.474	20552.05
607.67	20775.28
607.866	20488.56
608.062	20834.67
608.257	20658.54
608.453	20978.03
608.649	20562.29
608.845	20765.04
609.041	20697.45
609.236	20578.67
609.432	20408.69
609.628	20433.27
609.824	20402.55
610.019	20064.63
610.215	20879.72
610.411	20271.48
610.606	20318.58
610.802	20103.54
610.998	19999.1
611.193	20355.44
611.389	19820.92
611.584	19986.81
611.78	19687.81
611.976	20158.84
612.171	20027.77
612.367	19923.32
612.562	19995
612.758	19644.8
612.953	19321.22
613.149	19945.85
613.344	19558.78
613.539	19761.53
613.735	19884.41
613.93	19812.73
614.126	19401.09
614.321	19569.02
614.517	19419.52
614.712	19628.42
614.907	19325.32
615.103	19575.17
615.298	19450.24
615.493	19693.95
615.688	19444.1
615.884	19224.97
616.079	18821.52
616.274	19161.48
616.47	19218.82
616.665	19175.81
616.86	18805.13
617.055	19081.61
617.25	18805.13
617.445	19368.32
617.641	18563.47
617.836	18655.63
618.031	18598.29
618.226	18758.03
618.421	18575.76
618.616	18899.34
618.811	18514.32
619.006	18891.15
619.201	18092.44
619.396	18424.21
619.591	18000.28
619.786	18516.37
619.981	18028.95
620.176	18319.76
620.371	18037.14
620.566	17914.27
620.761	17844.63
620.956	18090.39
621.151	17602.97
621.346	17793.44
621.541	17605.02
621.735	17596.83
621.93	17279.4
622.125	17445.28
622.32	17056.17
622.515	17285.54
622.709	17140.13
622.904	17019.3
623.099	16845.23
623.294	17189.28
623.488	16564.65
623.683	16628.14
623.878	16624.04
624.072	16546.22
624.267	16419.25
624.462	16255.41
624.656	16421.3
624.851	16304.56
625.046	16177.59
625.24	15874.49
625.435	15960.5
625.629	15774.14
625.824	15774.14
626.018	15862.2
626.213	15534.53
626.407	15681.98
626.602	15350.21
626.796	15411.65
626.991	15458.75
627.185	15325.63
627.38	15319.49
627.574	14926.28
627.768	14750.15
627.963	14987.72
628.157	14750.15
628.352	14905.8
628.546	14477.77
628.74	14821.83
628.935	14629.32
629.129	14457.29
629.323	14363.09
629.517	14504.4
629.712	14236.11
629.906	14494.16
630.1	13865.43
630.294	14062.04
630.489	13814.23
630.683	13885.91
630.877	13871.57
631.071	13638.11
631.265	13775.32
631.459	13709.79
631.653	13570.52
631.848	13496.8
632.042	13511.13
632.236	13404.64
632.43	13199.84
632.624	13394.4
632.818	12849.64
633.012	13134.31
633.206	12958.18
633.4	13017.57
633.594	12726.76
633.788	12863.97
633.982	12939.75
634.176	12667.37
634.369	12724.71
634.563	12603.88
634.757	12478.96
634.951	12190.19
635.145	12378.61
635.339	12401.13
635.533	12130.8
635.726	12368.37
635.92	12110.32
636.114	12077.55
636.308	11948.53
636.501	11844.09
636.695	12012.02
636.889	11856.37
637.083	11768.31
637.276	11739.64
637.47	11663.86
637.664	11944.44
637.857	11717.11
638.051	11506.17
638.244	11502.08
638.438	11395.58
638.632	11330.05
638.825	11039.23
639.019	11100.67
639.212	11274.75
639.406	11221.5
639.599	11043.33
639.793	10926.6
639.986	10813.96
640.18	10770.95
640.373	10684.94
640.567	10619.4
640.76	10682.89
640.954	10490.38
641.147	10449.42
641.34	10433.04
641.534	10371.6
641.727	10332.68
641.92	10213.9
642.114	10127.89
642.307	10218
642.5	10041.87
642.694	10080.78
642.887	9988.63
643.08	10035.73
643.273	10009.11
643.467	10154.51
643.66	9644.57
643.853	9898.52
644.046	9613.85
644.239	9767.45
644.432	9593.37
644.626	9501.21
644.819	9566.74
645.012	9640.47
645.205	9376.28
645.398	9447.96
645.591	9325.08
645.784	9335.32
645.977	9271.84
646.17	9087.52
646.363	9138.72
646.556	8927.78
646.749	9159.2
646.942	9052.7
647.135	8987.17
647.328	8747.56
647.521	8792.61
647.714	8694.31
647.907	8673.83
648.099	8714.79
648.292	8811.04
648.485	8710.69
648.678	8575.53
648.871	8493.61
649.064	8329.77
649.256	8477.23
649.449	8440.36
649.642	8309.29
649.835	8190.51
650.027	8088.11
650.22	8231.47
650.413	8163.89
650.605	8110.64
650.798	8079.92
650.991	7932.47
651.183	8122.93
651.376	7967.28
651.568	7969.33
651.761	8002.1
651.954	7907.89
652.146	7774.77
652.339	7719.48
652.531	7840.31
652.724	7547.45
652.916	7637.56
653.109	7625.27
653.301	7508.54
653.494	7596.6
653.686	7309.88
653.879	7443
654.071	7371.32
654.263	7430.71
654.456	7281.21
654.648	7500.34
654.84	7172.67
655.033	7230.01
655.225	7154.24
655.417	6982.21
655.61	7039.55
655.802	7035.46
655.994	7107.13
656.186	6982.21
656.379	6984.26
656.571	7064.13
656.763	7033.41
656.955	6683.2
657.148	6842.95
657.34	6763.08
657.532	6748.74
657.724	6773.32
657.916	6697.54
658.108	6654.53
658.3	6453.83
658.492	6599.24
658.684	6697.54
658.876	6498.89
659.068	6361.67
659.26	6337.1
659.452	6312.52
659.644	6388.3
659.836	6308.43
660.028	6382.15
660.22	6326.86
660.412	6089.29
660.604	6091.34
660.796	6208.08
660.988	6077.01
661.18	6193.74
661.372	5958.22
661.563	5964.37
661.755	5892.69
661.947	5745.23
662.139	5900.88
662.331	5841.49
662.522	5681.75
662.714	5712.47
662.906	5771.86
663.097	5786.19
663.289	5624.4
663.481	5753.43
663.673	5622.36
663.864	5536.34
664.056	5583.45
664.247	5704.28
664.439	5591.64
664.631	5485.14
664.822	5479
665.014	5458.52
665.205	5392.98
665.397	5419.61
665.588	5464.66
665.78	5278.3
665.971	5360.22
666.163	5317.21
666.354	5554.77
666.546	5227.1
666.737	5067.36
666.929	5163.61
667.12	4999.77
667.311	5157.47
667.503	5300.83
667.694	5157.47
667.885	5016.16
668.077	5069.41
668.268	5026.4
668.459	4973.15
668.651	4985.44
668.842	4967.01
669.033	5001.82
669.224	4926.05
669.416	4952.67
669.607	4903.52
669.798	4856.42
669.989	4989.53
670.18	4876.9
670.371	4817.51
670.563	4676.2
670.754	4688.48
670.945	4670.05
671.136	4725.35
671.327	4594.28
671.518	4633.19
671.709	4524.65
671.9	4581.99
672.091	4569.7
672.282	4514.41
672.473	4581.99
672.664	4500.07
672.855	4377.19
673.046	4471.4
673.237	4383.34
673.428	4530.79
673.619	4541.03
673.809	4434.53
674	4381.29
674.191	4467.3
674.382	4452.97
674.573	4369
674.764	4360.81
674.954	4328.04
675.145	4172.39
675.336	4297.32
675.527	4158.06
675.717	4276.84
675.908	4131.44
676.099	4272.75
676.289	4213.35
676.48	4170.35
676.671	4094.57
676.861	4104.81
677.052	4192.87
677.243	4145.77
677.433	4119.15
677.624	4012.65
677.814	4131.44
678.005	3945.07
678.195	4090.48
678.386	4008.56
678.576	3949.17
678.767	3938.93
678.957	3871.34
679.148	3971.69
679.338	4041.32
679.529	3900.02
679.719	3910.25
679.909	4057.71
680.1	3902.06
680.29	3926.64
680.481	3746.42
680.671	3852.91
680.861	3943.02
681.052	3869.3
681.242	3897.97
681.432	3799.66
681.622	3834.48
681.813	3877.49
682.003	3906.16
682.193	3805.81
682.383	3836.53
682.573	3687.03
682.764	3678.83
682.954	3844.72
683.144	3775.09
683.334	3689.07
683.524	3691.12
683.714	3623.54
683.904	3736.18
684.094	3617.4
684.284	3742.32
684.474	3684.98
684.664	3641.97
684.854	3510.9
685.044	3510.9
685.234	3615.35
685.424	3525.24
685.614	3537.52
685.804	3521.14
685.994	3549.81
686.184	3517.04
686.374	3527.28
686.564	3529.33
686.753	3576.44
686.943	3488.37
687.133	3369.59
687.323	3369.59
687.513	3506.81
687.702	3435.13
687.892	3238.52
688.082	3369.59
688.272	3385.97
688.461	3295.86
688.651	3345.02
688.841	3168.89
689.03	3238.52
689.22	3271.29
689.41	3287.67
689.599	3267.19
689.789	3390.07
689.979	3289.72
690.168	3156.6
690.358	3201.66
690.547	3240.57
690.737	3213.95
690.926	3193.47
691.116	3046.01
691.305	3119.74
691.495	3222.14
691.684	3168.89
691.874	3023.48
692.063	3146.36
692.252	3066.49
692.442	3103.36
692.631	2970.24
692.82	3076.73
693.01	2951.81
693.199	2964.09
693.388	3007.1
693.578	3084.92
693.767	3046.01
693.956	2953.85
694.146	2927.23
694.335	2980.48
694.524	3025.53
694.713	3039.87
694.902	2859.65
695.092	2939.52
695.281	2968.19
695.47	2822.78
695.659	2890.37
695.848	2847.36
696.037	2853.5
696.226	2830.98
696.415	2855.55
696.604	2894.46
696.793	2839.17
696.982	2845.31
697.171	2855.55
697.36	2742.91
697.549	2878.08
697.738	2861.69
697.927	2802.3
698.116	2906.75
698.305	2898.56
698.494	2740.86
698.683	2837.12
698.872	2810.5
699.061	2718.34
699.25	2636.42
699.438	2734.72
699.627	2806.4
699.816	2669.19
700.005	2607.75
700.193	2796.16
700.382	2798.21
700.571	2747.01
700.76	2777.73
700.948	2710.15
701.137	2628.23
701.326	2714.24
701.514	2681.47
701.703	2552.45
701.892	2724.48
702.08	2615.94
702.269	2681.47
702.457	2734.72
702.646	2630.27
702.834	2591.36
703.023	2556.55
703.212	2673.28
703.4	2511.49
703.589	2595.46
703.777	2601.6
703.965	2579.08
704.154	2685.57
704.342	2654.85
704.531	2591.36
704.719	2486.92
704.907	2667.14
705.096	2452.1
705.284	2595.46
705.472	2519.68
705.661	2521.73
705.849	2499.2
706.037	2411.14
706.226	2642.56
706.414	2429.57
706.602	2501.25
706.79	2476.68
706.979	2521.73
707.167	2495.11
707.355	2511.49
707.543	2622.08
707.731	2509.44
707.919	2495.11
708.107	2443.91
708.296	2382.47
708.484	2417.29
708.672	2419.33
708.86	2411.14
709.048	2456.2
709.236	2321.03
709.424	2349.7
709.612	2316.94
709.8	2343.56
709.988	2224.78
710.176	2325.13
710.364	2452.1
710.551	2339.46
710.739	2339.46
710.927	2337.41
711.115	2292.36
711.303	2286.22
711.491	2304.65
711.679	2275.98
711.866	2243.21
712.054	2386.57
712.242	2269.83
712.43	2257.54
712.617	2255.5
712.805	2298.5
712.993	2271.88
713.181	2237.06
713.368	2132.62
713.556	2249.35
713.744	2316.94
713.931	2218.63
714.119	2226.82
714.306	2230.92
714.494	2081.42
714.682	2255.5
714.869	2155.15
715.057	2149
715.244	2116.23
715.432	2282.12
715.619	2232.97
715.807	2091.66
715.994	2202.25
716.182	2124.43
716.369	2093.71
716.556	2091.66
716.744	2169.48
716.931	2075.27
717.119	2208.39
717.306	2030.22
717.493	2093.71
717.681	2069.13
717.868	2110.09
718.055	2189.96
718.242	2013.84
718.43	2087.56
718.617	2161.29
718.804	1964.68
718.991	2083.47
719.179	2112.14
719.366	2083.47
719.553	2101.9
719.74	1936.01
719.927	2042.51
720.114	2099.85
720.301	2085.51
720.488	2030.22
720.676	1936.01
720.863	1979.02
721.05	2062.99
721.237	2048.65
721.424	1968.78
721.611	2034.32
721.798	2015.88
721.985	1979.02
722.172	1868.43
722.358	2015.88
722.545	1919.63
722.732	2003.6
722.919	1852.05
723.106	1878.67
723.293	1974.92
723.48	1970.83
723.667	1895.05
723.853	1878.67
724.04	1976.97
724.227	1936.01
724.414	1917.58
724.6	1899.15
724.787	1819.28
724.974	1952.4
725.161	1888.91
725.347	1806.99
725.534	1931.92
725.72	1841.81
725.907	1950.35
726.094	1890.96
726.28	1944.2
726.467	1829.52
726.653	1806.99
726.84	1731.22
727.027	1850
727.213	1788.56
727.4	1868.43
727.586	1882.77
727.773	1831.57
727.959	1860.24
728.145	1888.91
728.332	1804.94
728.518	1772.18
728.705	1710.74
728.891	1768.08
729.077	1706.64
729.264	1729.17
729.45	1694.35
729.636	1804.94
729.823	1751.7
730.009	1874.57
730.195	1665.68
730.382	1770.13
730.568	1704.59
730.754	1733.26
730.94	1653.39
731.126	1837.71
731.313	1755.79
731.499	1690.26
731.685	1698.45
731.871	1759.89
732.057	1751.7
732.243	1690.26
732.429	1733.26
732.615	1745.55
732.801	1729.17
732.987	1675.92
733.173	1731.22
733.359	1567.38
733.545	1708.69
733.731	1624.72
733.917	1612.43
734.103	1710.74
734.289	1538.71
734.475	1538.71
734.661	1649.3
734.847	1618.58
735.033	1657.49
735.219	1673.87
735.404	1583.76
735.59	1540.76
735.776	1583.76
735.962	1577.62
736.148	1673.87
736.333	1641.11
736.519	1550.99
736.705	1485.46
736.89	1477.27
737.076	1620.63
737.262	1485.46
737.447	1489.56
737.633	1630.87
737.819	1483.41
738.004	1575.57
738.19	1579.67
738.375	1544.85
738.561	1559.19
738.747	1544.85
738.932	1518.23
739.118	1424.02
739.303	1534.61
739.489	1424.02
739.674	1567.38
739.859	1485.46
740.045	1493.65
740.23	1446.55
740.416	1436.31
740.601	1520.28
740.786	1526.42
740.972	1460.88
741.157	1360.53
741.342	1340.05
741.528	1448.6
741.713	1454.74
741.898	1473.17
742.084	1454.74
742.269	1505.94
742.454	1366.68
742.639	1471.12
742.824	1370.77
743.01	1391.25
743.195	1385.11
743.38	1485.46
743.565	1387.16
743.75	1338.01
743.935	1354.39
744.12	1381.01
744.305	1370.77
744.49	1395.35
744.675	1378.97
744.86	1378.97
745.045	1245.85
745.23	1372.82
745.415	1239.7
745.6	1313.43
745.785	1284.76
745.97	1309.33
746.155	1305.24
746.34	1276.57
746.525	1235.61
746.71	1264.28
746.895	1280.66
747.079	1151.64
747.264	1202.84
747.449	1258.14
747.634	1282.71
747.819	1155.74
748.003	1168.02
748.188	1063.58
748.373	1153.69
748.557	1116.83
748.742	1145.5
748.927	1204.89
749.111	1206.94
749.296	1077.91
749.481	1127.07
749.665	1149.59
749.85	1149.59
750.034	1067.67
750.219	1133.21
750.404	1036.95
750.588	1036.95
750.773	1077.91
750.957	1182.36
751.141	996
751.326	1045.15
751.51	1028.76
751.695	1041.05
751.879	1034.91
752.064	1079.96
752.248	993.95
752.432	1075.87
752.617	948.89
752.801	955.04
752.985	977.56
753.17	1004.19
753.354	1092.25
753.538	971.42
753.722	955.04
753.907	989.85
754.091	928.41
754.275	969.37
754.459	893.6
754.643	871.07
754.828	924.32
755.012	930.46
755.196	969.37
755.38	789.15
755.564	873.12
755.748	987.8
755.932	854.69
756.116	832.16
756.3	799.39
756.484	897.69
756.668	879.26
756.852	774.81
757.036	920.22
757.22	905.88
757.404	807.58
757.588	795.29
757.772	840.35
757.956	813.73
758.14	891.55
758.323	758.43
758.507	768.67
758.691	834.21
758.875	817.82
759.059	729.76
759.242	696.99
759.426	756.38
759.61	725.66
759.794	740
759.977	764.57
760.161	670.37
760.345	789.15
760.528	735.9
760.712	744.1
760.895	723.62
761.079	783.01
761.263	707.23
761.446	772.77
761.63	780.96
761.813	682.66
761.997	608.93
762.18	746.14
762.364	703.14
762.547	670.37
762.731	662.18
762.914	733.86
763.098	752.29
763.281	658.08
763.464	692.9
763.648	672.42
763.831	676.51
764.015	719.52
764.198	756.38
764.381	713.38
764.564	699.04
764.748	662.18
764.931	635.55
765.114	651.94
765.297	678.56
765.481	518.82
765.664	631.46
765.847	676.51
766.03	682.66
766.213	658.08
766.397	653.98
766.58	582.31
766.763	707.23
766.946	602.79
767.129	629.41
767.312	666.27
767.495	576.16
767.678	553.63
767.861	684.7
768.044	678.56
768.227	572.07
768.41	613.03
768.593	565.92
768.776	565.92
768.959	658.08
769.142	619.17
769.324	604.83
769.507	578.21
769.69	594.59
769.873	604.83
770.056	615.07
770.239	535.2
770.421	649.89
770.604	629.41
770.787	592.55
770.97	527.01
771.152	584.35
771.335	617.12
771.518	533.15
771.7	649.89
771.883	531.11
772.066	600.74
772.248	608.93
772.431	488.1
772.613	551.59
772.796	553.63
772.978	537.25
773.161	615.07
773.343	522.91
773.526	533.15
773.708	510.63
773.891	498.34
774.073	469.67
774.256	420.52
774.438	567.97
774.621	498.34
774.803	518.82
774.985	516.77
775.168	494.24
775.35	559.78
775.532	512.67
775.715	463.52
775.897	572.07
776.079	481.96
776.261	494.24
776.444	412.32
776.626	430.76
776.808	504.48
776.99	494.24
777.173	459.43
777.355	420.52
777.537	502.43
777.719	428.71
777.901	443.04
778.083	414.37
778.265	445.09
778.447	467.62
778.629	402.08
778.811	453.28
778.993	461.48
779.175	404.13
779.357	432.8
779.539	416.42
779.721	428.71
779.903	410.28
780.085	453.28
780.267	432.8
780.449	381.6
780.631	457.38
780.812	492.2
780.994	420.52
781.176	377.51
781.358	412.32
781.54	330.41
781.721	408.23
781.903	332.45
782.085	381.6
782.267	363.17
782.448	305.83
782.63	311.97
782.812	408.23
782.993	430.76
783.175	420.52
783.357	287.4
783.538	332.45
783.72	330.41
783.901	363.17
784.083	359.08
784.264	330.41
784.446	244.39
784.627	318.12
784.809	332.45
784.99	293.54
785.172	350.89
785.353	363.17
785.535	260.77
785.716	258.73
785.897	271.01
786.079	289.45
786.26	260.77
786.441	258.73
786.623	268.97
786.804	273.06
786.985	297.64
787.167	230.06
787.348	297.64
787.529	195.24
787.71	373.41
787.891	201.38
788.073	268.97
788.254	283.3
788.435	387.75
788.616	397.99
788.797	225.96
788.978	277.16
789.159	185
789.34	256.68
789.522	223.91
789.703	273.06
789.884	287.4
790.065	309.93
790.246	332.45
790.427	258.73
790.607	207.53
790.788	256.68
790.969	240.29
791.15	256.68
791.331	287.4
791.512	217.77
791.693	187.05
791.874	182.95
792.054	258.73
792.235	248.49
792.416	187.05
792.597	242.34
792.778	295.59
792.958	133.8
793.139	289.45
793.32	201.38
793.5	164.52
793.681	242.34
793.862	209.58
794.042	244.39
794.223	189.1
794.404	207.53
794.584	174.76
794.765	244.39
794.945	215.72
795.126	199.34
795.306	193.19
795.487	166.57
795.667	150.18
795.848	248.49
796.028	217.77
796.209	166.57
796.389	168.62
796.57	158.38
796.75	228.01
796.93	133.8
797.111	242.34
797.291	135.85
797.471	174.76
797.652	166.57
797.832	109.22
798.012	338.6
798.192	84.65
798.373	158.38
798.553	133.8
798.733	191.14
798.913	72.36
799.093	176.81
799.274	148.14
799.454	195.24
799.634	203.43
799.814	166.57
799.994	193.19
800.174	199.34
800.354	201.38
800.534	103.08
800.714	152.23
800.894	152.23
801.074	129.7
801.254	168.62
801.434	201.38
801.614	178.86
801.794	135.85
801.974	758.43
802.154	158.38
802.334	174.76
802.514	70.31
802.693	164.52
802.873	135.85
803.053	174.76
803.233	146.09
803.413	217.77
803.592	137.9
803.772	152.23
803.952	152.23
804.131	164.52
804.311	164.52
804.491	119.46
804.67	70.31
804.85	195.24
805.03	129.7
805.209	182.95
805.389	141.99
805.568	90.79
805.748	203.43
805.928	141.99
806.107	121.51
806.287	135.85
806.466	189.1
806.646	88.75
806.825	96.94
807.004	101.03
807.184	166.57
807.363	160.42
807.543	115.37
807.722	111.27
807.901	125.61
808.081	133.8
808.26	0.68
808.439	94.89
808.619	70.31
808.798	76.46
808.977	146.09
809.156	129.7
809.336	144.04
809.515	141.99
809.694	150.18
809.873	55.98
810.052	84.65
810.231	141.99
810.411	109.22
810.59	174.76
810.769	111.27
810.948	150.18
811.127	109.22
811.306	150.18
811.485	152.23
811.664	154.28
811.843	64.17
812.022	113.32
812.201	88.75
812.38	185
812.559	60.07
812.737	129.7
812.916	94.89
813.095	105.13
813.274	109.22
813.453	101.03
813.632	101.03
813.811	105.13
813.989	29.35
814.168	21.16
814.347	119.46
814.526	84.65
814.704	105.13
814.883	139.94
815.062	31.4
815.24	82.6
815.419	23.21
815.598	98.99
815.776	98.99
815.955	117.42
816.133	10.92
816.312	84.65
816.49	62.12
816.669	74.41
816.847	43.69
817.026	45.74
817.204	76.46
817.383	92.84
817.561	29.35
817.74	133.8
817.918	103.08
818.097	119.46
818.275	78.51
818.453	129.7
818.632	90.79
818.81	29.35
818.988	109.22
819.167	62.12
819.345	94.89
819.523	92.84
819.701	68.27
819.879	27.31
820.058	58.03
820.236	117.42
820.414	84.65
820.592	129.7
820.77	105.13
820.948	109.22
821.127	53.93
821.305	82.6
821.483	-5.46
821.661	98.99
821.839	60.07
822.017	39.59
822.195	25.26
822.373	84.65
822.551	92.84
822.729	84.65
822.907	94.89
823.085	62.12
823.262	64.17
823.44	41.64
823.618	135.85
823.796	-5.46
823.974	37.55
824.152	-13.65
824.329	115.37
824.507	37.55
824.685	43.69
824.863	129.7
825.04	51.88
825.218	74.41
825.396	15.02
825.574	12.97
825.751	-5.46
825.929	15.02
826.107	15.02
826.284	78.51
826.462	4.78
826.639	51.88
826.817	19.11
826.994	119.46
827.172	27.31
827.349	51.88
827.527	68.27
827.704	68.27
827.882	21.16
828.059	125.61
828.237	64.17
828.414	84.65
828.591	51.88
828.769	72.36
828.946	68.27
829.124	72.36
829.301	94.89
829.478	47.79
829.655	86.7
829.833	8.87
830.01	0.68
830.187	88.75
830.364	-46.42
830.542	68.27
830.719	74.41
830.896	94.89
831.073	92.84
831.25	51.88
831.427	64.17
831.604	78.51
831.782	70.31
831.959	62.12
832.136	72.36
832.313	35.5
832.49	0.68
832.667	43.69
832.844	-27.99
833.021	88.75
833.198	68.27
833.374	19.11
833.551	47.79
833.728	17.07
833.905	60.07
834.082	94.89
834.259	84.65
834.436	37.55
834.612	60.07
834.789	84.65
834.966	19.11
835.143	47.79
835.319	60.07
835.496	-1.37
835.673	51.88
835.85	76.46
836.026	47.79
836.203	53.93
836.38	-52.56
836.556	23.21
836.733	15.02
836.909	64.17
837.086	2.73
837.262	39.59
837.439	12.97
837.616	27.31
837.792	-5.46
837.968	15.02
838.145	47.79
838.321	92.84
838.498	51.88
838.674	70.31
838.851	62.12
839.027	27.31
839.203	51.88
839.38	51.88
839.556	27.31
839.732	27.31
839.909	33.45
840.085	27.31
840.261	80.55
840.437	8.87
840.614	2.73
840.79	86.7
840.966	-54.61
841.142	76.46
841.318	39.59
841.494	-36.18
841.671	72.36
841.847	2.73
842.023	19.11
842.199	19.11
842.375	51.88
842.551	74.41
842.727	-60.76
842.903	62.12
843.079	62.12
843.255	23.21
843.431	-21.85
843.607	45.74
843.783	-13.65
843.959	72.36
844.134	10.92
844.31	101.03
844.486	19.11
844.662	-11.61
844.838	10.92
845.013	23.21
845.189	43.69
845.365	-25.94
845.541	-11.61
845.716	-17.75
845.892	15.02
846.068	12.97
846.244	-21.85
846.419	76.46
846.595	-21.85
846.77	4.78
846.946	2.73
847.122	-19.8
847.297	-11.61
847.473	105.13
847.648	19.11
847.824	-5.46
847.999	-40.28
848.175	92.84
848.35	-5.46
848.526	-5.46
848.701	17.07
848.876	-17.75
849.052	2.73
849.227	68.27
849.403	-19.8
849.578	-38.23
849.753	39.59
849.929	-11.61
850.104	-40.28
850.279	19.11
850.454	78.51
850.63	70.31
850.805	-58.71
850.98	29.35
851.155	-17.75
851.33	-11.61
851.505	-71
851.681	35.5
851.856	15.02
852.031	45.74
852.206	2.73
852.381	-46.42
852.556	25.26
852.731	60.07
852.906	45.74
853.081	70.31
853.256	39.59
853.431	-9.56
853.606	-68.95
853.781	43.69
853.956	-62.8
854.131	58.03
854.305	-11.61
854.48	-54.61
854.655	-21.85
854.83	-17.75
855.005	51.88
855.18	12.97
855.354	15.02
855.529	35.5
855.704	31.4
855.879	-77.14
856.053	35.5
856.228	125.61
856.403	-44.37
856.577	47.79
856.752	2.73
856.926	43.69
857.101	6.83
857.276	-91.48
857.45	19.11
857.625	43.69
857.799	2.73
857.974	4.78
858.148	27.31
858.323	10.92
858.497	-38.23
858.672	2.73
858.846	8.87
859.02	-1.37
859.195	-77.14
859.369	-7.51
859.543	-25.94
859.718	-34.13
859.892	17.07
860.066	-21.85
860.241	133.8
860.415	12.97
860.589	0.68
860.763	-9.56
860.938	-9.56
861.112	39.59
861.286	-46.42
861.46	21.16
861.634	-68.95
861.808	55.98
861.982	-36.18
862.157	4.78
862.331	-52.56
862.505	51.88
862.679	-34.13
862.853	-62.8
863.027	-1.37
863.201	78.51
863.375	-42.32
863.549	17.07
863.722	-25.94
863.896	51.88
864.07	29.35
864.244	-71
864.418	17.07
864.592	17.07
864.766	78.51
864.939	45.74
865.113	55.98
865.287	60.07
865.461	47.79
865.634	21.16
865.808	51.88
865.982	15.02
866.156	-52.56
866.329	-5.46
866.503	94.89
866.676	-27.99
866.85	45.74
867.024	-91.48
867.197	10.92
867.371	-50.52
867.544	-44.37
867.718	-27.99
867.891	-17.75
868.065	-19.8
868.238	-46.42
868.412	-21.85
868.585	41.64
868.759	-87.38
868.932	25.26
869.105	-19.8
869.279	-87.38
869.452	2.73
869.625	-9.56
869.799	-21.85
869.972	-54.61
870.145	-71
870.319	15.02
870.492	-13.65
870.665	25.26
870.838	-95.57
871.011	-62.8
871.185	-52.56
871.358	-19.8
871.531	-5.46
871.704	51.88
871.877	4.78
872.05	15.02
872.223	84.65
872.396	-46.42
872.569	19.11
872.742	-27.99
872.915	-3.41
873.088	29.35
873.261	2.73
873.434	-13.65
873.607	-21.85
873.78	-15.7
873.953	2.73
874.126	25.26
874.299	35.5
874.471	19.11
874.644	55.98
874.817	-46.42
874.99	94.89
875.163	-7.51
875.335	10.92
875.508	4.78
875.681	-44.37
875.853	-19.8
876.026	0.68
876.199	-44.37
876.371	15.02
876.544	25.26
876.717	23.21
876.889	6.83
877.062	-73.04
877.234	-64.85
877.407	-36.18
877.579	-38.23
877.752	10.92
877.924	-71
878.097	4.78
878.269	-21.85
878.442	43.69
878.614	-46.42
878.786	-11.61
878.959	10.92
879.131	27.31
879.303	-54.61
879.476	10.92
879.648	-3.41
879.82	-46.42
879.993	-25.94
880.165	55.98
880.337	-11.61
880.509	12.97
880.681	-25.94
880.854	-81.24
881.026	-11.61
881.198	29.35
881.37	-21.85
881.542	-17.75
881.714	123.56
881.886	-11.61
882.058	27.31
882.23	19.11
882.402	-30.04
882.574	60.07
882.746	31.4
882.918	-13.65
883.09	27.31
883.262	-46.42
883.434	10.92
883.606	2.73
883.778	-38.23
883.95	-38.23
884.122	-34.13
884.293	6.83
884.465	2.73
884.637	6.83
884.809	-44.37
884.98	21.16
885.152	-1.37
885.324	29.35
885.496	60.07
885.667	2.73
885.839	-21.85
886.011	19.11
886.182	-30.04
886.354	76.46
886.525	-9.56
886.697	-56.66
886.869	-13.65
887.04	12.97
887.212	-64.85
887.383	-58.71
887.555	-1.37
887.726	19.11
887.897	-38.23
888.069	55.98
888.24	-15.7
888.412	37.55
888.583	-38.23
888.754	31.4
888.926	31.4
889.097	-44.37
889.268	-5.46
889.44	-17.75
889.611	-23.89
889.782	-62.8
889.953	-58.71
890.125	-5.46
890.296	-32.08
890.467	-19.8
890.638	-13.65
890.809	-36.18
890.98	-85.33
891.151	-21.85
891.323	4.78
891.494	19.11
891.665	-3.41
891.836	-11.61
892.007	15.02
892.178	12.97
892.349	-15.7
892.52	-54.61
892.691	-50.52
892.862	-38.23
893.032	-9.56
893.203	-40.28
893.374	6.83
893.545	2.73
893.716	-17.75
893.887	-9.56
894.057	31.4
894.228	-95.57
894.399	-21.85
894.57	-75.09
894.74	0.68
894.911	-79.19
895.082	-15.7
895.253	53.93
895.423	-40.28
895.594	-40.28
895.764	-36.18
895.935	-1.37
896.106	47.79
896.276	8.87
896.447	27.31
896.617	-5.46
896.788	-21.85
896.958	-68.95
897.129	15.02
897.299	10.92
897.47	8.87
897.64	27.31
897.81	-13.65
897.981	-13.65
898.151	-9.56
898.322	76.46
898.492	72.36
898.662	-52.56
898.832	-17.75
899.003	-32.08
899.173	-54.61
899.343	-52.56
899.513	-50.52
