Data from USB4F104151__308__14-24-22-845.txt Node

Date: Thu Mar 13 14:24:22 EDT 2025
User: louis
Spectrometer: USB4F10415
Trigger mode: 4
Integration Time (sec): 2.000000E-2
Scans to average: 1
Electric dark correction enabled: true
Nonlinearity correction enabled: false
Boxcar width: 0
XAxis mode: Wavelengths
Number of Pixels in Spectrum: 3648
>>>>>Begin Spectral Data<<<<<
178.204	-27.14
178.424	-27.14
178.644	-27.14
178.864	-156.16
179.084	-111.1
179.304	19.97
179.524	-14.85
179.744	-0.51
179.964	87.55
180.184	26.11
180.404	-45.57
180.624	-33.28
180.844	-49.66
181.064	-31.23
181.283	26.11
181.503	34.3
181.723	-18.94
181.943	-45.57
182.163	110.08
182.383	-37.38
182.602	116.22
182.822	17.92
183.042	19.97
183.262	-27.14
183.482	38.4
183.701	73.21
183.921	75.26
184.141	-4.61
184.361	99.84
184.58	24.06
184.8	91.65
185.02	28.16
185.239	46.59
185.459	5.63
185.679	69.12
185.898	-39.42
186.118	71.17
186.338	-2.56
186.557	62.98
186.777	3.58
186.997	28.16
187.216	1.54
187.436	87.55
187.655	34.3
187.875	9.73
188.095	1.54
188.314	67.07
188.534	93.69
188.753	-14.85
188.973	103.93
189.192	26.11
189.412	-47.62
189.631	60.93
189.851	89.6
190.07	-18.94
190.29	-6.66
190.509	26.11
190.729	19.97
190.948	13.82
191.168	87.55
191.387	38.4
191.607	108.03
191.826	52.74
192.045	-8.7
192.265	30.21
192.484	-6.66
192.704	34.3
192.923	-6.66
193.142	83.45
193.362	69.12
193.581	9.73
193.8	95.74
194.02	-29.18
194.239	-10.75
194.458	3.58
194.678	-31.23
194.897	73.21
195.116	-8.7
195.335	93.69
195.555	48.64
195.774	24.06
195.993	32.26
196.212	3.58
196.432	42.5
196.651	30.21
196.87	-4.61
197.089	95.74
197.308	17.92
197.528	62.98
197.747	36.35
197.966	65.02
198.185	38.4
198.404	34.3
198.623	34.3
198.842	30.21
199.062	17.92
199.281	112.13
199.5	75.26
199.719	36.35
199.938	120.32
200.157	83.45
200.376	58.88
200.595	112.13
200.814	34.3
201.033	50.69
201.252	58.88
201.471	108.03
201.69	99.84
201.909	97.79
202.128	65.02
202.347	83.45
202.566	11.78
202.785	11.78
203.004	1.54
203.223	75.26
203.442	-23.04
203.661	52.74
203.879	-12.8
204.098	11.78
204.317	28.16
204.536	71.17
204.755	-39.42
204.974	17.92
205.193	3.58
205.411	67.07
205.63	-27.14
205.849	52.74
206.068	-14.85
206.287	-6.66
206.505	7.68
206.724	42.5
206.943	28.16
207.162	28.16
207.381	-8.7
207.599	5.63
207.818	30.21
208.037	9.73
208.255	7.68
208.474	118.27
208.693	26.11
208.911	108.03
209.13	44.54
209.349	38.4
209.567	46.59
209.786	38.4
210.005	-2.56
210.223	97.79
210.442	-0.51
210.661	9.73
210.879	130.56
211.098	1.54
211.316	46.59
211.535	46.59
211.753	97.79
211.972	1.54
212.191	-18.94
212.409	42.5
212.628	38.4
212.846	50.69
213.065	103.93
213.283	24.06
213.502	-59.9
213.72	75.26
213.938	34.3
214.157	97.79
214.375	67.07
214.594	58.88
214.812	44.54
215.031	9.73
215.249	-23.04
215.467	9.73
215.686	87.55
215.904	19.97
216.122	91.65
216.341	65.02
216.559	34.3
216.778	77.31
216.996	-23.04
217.214	28.16
217.432	87.55
217.651	28.16
217.869	42.5
218.087	17.92
218.306	34.3
218.524	34.3
218.742	38.4
218.96	58.88
219.179	-6.66
219.397	28.16
219.615	13.82
219.833	65.02
220.051	-14.85
220.27	67.07
220.488	108.03
220.706	11.78
220.924	-35.33
221.142	15.87
221.36	-43.52
221.578	83.45
221.796	34.3
222.015	77.31
222.233	56.83
222.451	69.12
222.669	17.92
222.887	46.59
223.105	-14.85
223.323	34.3
223.541	67.07
223.759	5.63
223.977	42.5
224.195	24.06
224.413	52.74
224.631	44.54
224.849	60.93
225.067	132.61
225.285	-6.66
225.503	-72.19
225.721	36.35
225.939	83.45
226.157	-2.56
226.375	22.02
226.592	-10.75
226.81	26.11
227.028	13.82
227.246	103.93
227.464	71.17
227.682	42.5
227.9	67.07
228.117	44.54
228.335	54.78
228.553	56.83
228.771	73.21
228.989	83.45
229.206	60.93
229.424	19.97
229.642	7.68
229.86	24.06
230.077	-10.75
230.295	58.88
230.513	50.69
230.731	69.12
230.948	79.36
231.166	58.88
231.384	44.54
231.601	-12.8
231.819	118.27
232.037	50.69
232.254	50.69
232.472	108.03
232.689	22.02
232.907	44.54
233.125	11.78
233.342	-8.7
233.56	69.12
233.777	-10.75
233.995	7.68
234.213	122.37
234.43	26.11
234.648	58.88
234.865	19.97
235.083	34.3
235.3	34.3
235.518	58.88
235.735	32.26
235.953	108.03
236.17	7.68
236.388	40.45
236.605	-12.8
236.822	-6.66
237.04	83.45
237.257	-23.04
237.475	99.84
237.692	-59.9
237.909	22.02
238.127	-4.61
238.344	9.73
238.562	60.93
238.779	46.59
238.996	-6.66
239.214	87.55
239.431	44.54
239.648	54.78
239.865	36.35
240.083	-23.04
240.3	118.27
240.517	3.58
240.735	54.78
240.952	-10.75
241.169	9.73
241.386	48.64
241.603	46.59
241.821	42.5
242.038	-4.61
242.255	52.74
242.472	19.97
242.689	75.26
242.907	42.5
243.124	-16.9
243.341	1.54
243.558	-12.8
243.775	9.73
243.992	-12.8
244.209	38.4
244.426	54.78
244.643	95.74
244.86	32.26
245.078	24.06
245.295	13.82
245.512	65.02
245.729	5.63
245.946	83.45
246.163	-29.18
246.38	22.02
246.597	77.31
246.814	24.06
247.031	-59.9
247.248	75.26
247.464	17.92
247.681	67.07
247.898	93.69
248.115	34.3
248.332	50.69
248.549	58.88
248.766	83.45
248.983	91.65
249.2	108.03
249.417	79.36
249.633	50.69
249.85	34.3
250.067	44.54
250.284	32.26
250.501	177.66
250.717	30.21
250.934	3.58
251.151	-14.85
251.368	60.93
251.585	7.68
251.801	-14.85
252.018	19.97
252.235	83.45
252.451	58.88
252.668	62.98
252.885	28.16
253.102	54.78
253.318	42.5
253.535	65.02
253.752	28.16
253.968	15.87
254.185	75.26
254.401	22.02
254.618	-14.85
254.835	-18.94
255.051	11.78
255.268	42.5
255.484	126.46
255.701	3.58
255.917	19.97
256.134	44.54
256.351	38.4
256.567	58.88
256.784	108.03
257	17.92
257.217	67.07
257.433	48.64
257.65	-6.66
257.866	77.31
258.082	40.45
258.299	42.5
258.515	11.78
258.732	87.55
258.948	22.02
259.165	50.69
259.381	-6.66
259.597	-0.51
259.814	65.02
260.03	67.07
260.246	15.87
260.463	62.98
260.679	132.61
260.895	93.69
261.112	17.92
261.328	62.98
261.544	17.92
261.761	32.26
261.977	9.73
262.193	-10.75
262.409	17.92
262.626	36.35
262.842	-0.51
263.058	13.82
263.274	1.54
263.49	67.07
263.707	83.45
263.923	91.65
264.139	-6.66
264.355	71.17
264.571	99.84
264.787	-37.38
265.004	87.55
265.22	120.32
265.436	26.11
265.652	-12.8
265.868	52.74
266.084	-31.23
266.3	58.88
266.516	-35.33
266.732	52.74
266.948	77.31
267.164	-31.23
267.38	44.54
267.596	-18.94
267.812	169.47
268.028	38.4
268.244	42.5
268.46	34.3
268.676	19.97
268.892	75.26
269.108	-10.75
269.324	-8.7
269.54	-10.75
269.756	110.08
269.972	-4.61
270.188	17.92
270.403	17.92
270.619	34.3
270.835	17.92
271.051	89.6
271.267	-2.56
271.483	19.97
271.698	46.59
271.914	83.45
272.13	58.88
272.346	19.97
272.562	17.92
272.777	118.27
272.993	17.92
273.209	-20.99
273.425	42.5
273.64	15.87
273.856	42.5
274.072	-14.85
274.287	67.07
274.503	54.78
274.719	-4.61
274.934	34.3
275.15	22.02
275.366	52.74
275.581	1.54
275.797	17.92
276.012	-31.23
276.228	75.26
276.444	38.4
276.659	81.41
276.875	-39.42
277.09	46.59
277.306	9.73
277.521	108.03
277.737	36.35
277.952	110.08
278.168	36.35
278.383	26.11
278.599	75.26
278.814	62.98
279.03	62.98
279.245	103.93
279.461	-20.99
279.676	17.92
279.892	-27.14
280.107	-2.56
280.322	-41.47
280.538	65.02
280.753	11.78
280.969	77.31
281.184	13.82
281.399	52.74
281.615	-10.75
281.83	17.92
282.045	-53.76
282.26	40.45
282.476	11.78
282.691	50.69
282.906	-25.09
283.122	13.82
283.337	9.73
283.552	42.5
283.767	-2.56
283.983	34.3
284.198	-2.56
284.413	36.35
284.628	-37.38
284.843	120.32
285.058	65.02
285.274	83.45
285.489	38.4
285.704	11.78
285.919	34.3
286.134	58.88
286.349	22.02
286.564	103.93
286.779	50.69
286.995	1.54
287.21	-43.52
287.425	60.93
287.64	-6.66
287.855	42.5
288.07	28.16
288.285	120.32
288.5	42.5
288.715	34.3
288.93	-43.52
289.145	26.11
289.36	11.78
289.575	-27.14
289.79	54.78
290.004	46.59
290.219	-0.51
290.434	50.69
290.649	42.5
290.864	-6.66
291.079	75.26
291.294	50.69
291.509	50.69
291.724	-27.14
291.938	32.26
292.153	60.93
292.368	44.54
292.583	52.74
292.798	58.88
293.012	75.26
293.227	11.78
293.442	26.11
293.657	-8.7
293.871	91.65
294.086	28.16
294.301	116.22
294.516	28.16
294.73	-8.7
294.945	58.88
295.16	52.74
295.374	73.21
295.589	38.4
295.804	42.5
296.018	-55.81
296.233	85.5
296.447	44.54
296.662	-31.23
296.877	81.41
297.091	173.57
297.306	36.35
297.52	81.41
297.735	34.3
297.949	85.5
298.164	58.88
298.378	108.03
298.593	-8.7
298.807	77.31
299.022	28.16
299.236	22.02
299.451	36.35
299.665	-16.9
299.88	54.78
300.094	38.4
300.309	38.4
300.523	19.97
300.737	13.82
300.952	62.98
301.166	60.93
301.381	-12.8
301.595	50.69
301.809	42.5
302.024	44.54
302.238	58.88
302.452	56.83
302.667	52.74
302.881	144.89
303.095	-31.23
303.309	79.36
303.524	99.84
303.738	-4.61
303.952	36.35
304.166	62.98
304.381	-23.04
304.595	52.74
304.809	50.69
305.023	9.73
305.237	60.93
305.452	148.99
305.666	17.92
305.88	97.79
306.094	17.92
306.308	34.3
306.522	40.45
306.736	-57.86
306.95	124.41
307.164	-4.61
307.379	-27.14
307.593	3.58
307.807	65.02
308.021	34.3
308.235	67.07
308.449	17.92
308.663	48.64
308.877	11.78
309.091	-8.7
309.305	65.02
309.519	1.54
309.733	48.64
309.947	-8.7
310.161	116.22
310.374	91.65
310.588	52.74
310.802	34.3
311.016	42.5
311.23	75.26
311.444	71.17
311.658	22.02
311.872	24.06
312.085	13.82
312.299	67.07
312.513	67.07
312.727	71.17
312.941	3.58
313.154	32.26
313.368	42.5
313.582	75.26
313.796	26.11
314.009	60.93
314.223	46.59
314.437	-2.56
314.651	79.36
314.864	75.26
315.078	87.55
315.292	40.45
315.505	22.02
315.719	13.82
315.933	36.35
316.146	126.46
316.36	52.74
316.573	3.58
316.787	73.21
317.001	75.26
317.214	-18.94
317.428	144.89
317.641	42.5
317.855	93.69
318.068	52.74
318.282	58.88
318.495	46.59
318.709	95.74
318.922	17.92
319.136	42.5
319.349	83.45
319.563	-14.85
319.776	-8.7
319.99	-39.42
320.203	52.74
320.417	9.73
320.63	26.11
320.843	36.35
321.057	38.4
321.27	38.4
321.483	17.92
321.697	17.92
321.91	40.45
322.124	34.3
322.337	79.36
322.55	9.73
322.763	65.02
322.977	24.06
323.19	26.11
323.403	-23.04
323.617	34.3
323.83	73.21
324.043	50.69
324.256	110.08
324.469	22.02
324.683	112.13
324.896	13.82
325.109	103.93
325.322	-29.18
325.535	17.92
325.748	71.17
325.962	-45.57
326.175	26.11
326.388	69.12
326.601	9.73
326.814	11.78
327.027	17.92
327.24	95.74
327.453	-31.23
327.666	48.64
327.879	77.31
328.092	30.21
328.305	71.17
328.518	48.64
328.731	-23.04
328.944	112.13
329.157	73.21
329.37	50.69
329.583	87.55
329.796	-18.94
330.009	-18.94
330.222	81.41
330.435	50.69
330.648	73.21
330.861	26.11
331.073	81.41
331.286	46.59
331.499	17.92
331.712	9.73
331.925	52.74
332.138	-27.14
332.35	9.73
332.563	-18.94
332.776	62.98
332.989	17.92
333.202	-39.42
333.414	15.87
333.627	120.32
333.84	19.97
334.053	56.83
334.265	58.88
334.478	71.17
334.691	11.78
334.903	62.98
335.116	26.11
335.329	58.88
335.541	-64
335.754	99.84
335.966	87.55
336.179	24.06
336.392	-12.8
336.604	103.93
336.817	19.97
337.029	28.16
337.242	50.69
337.454	48.64
337.667	79.36
337.88	116.22
338.092	60.93
338.305	116.22
338.517	62.98
338.729	36.35
338.942	36.35
339.154	-70.14
339.367	50.69
339.579	11.78
339.792	28.16
340.004	65.02
340.217	67.07
340.429	36.35
340.641	-23.04
340.854	48.64
341.066	11.78
341.278	69.12
341.491	136.7
341.703	13.82
341.915	-27.14
342.128	7.68
342.34	-8.7
342.552	71.17
342.764	62.98
342.977	38.4
343.189	-23.04
343.401	42.5
343.613	62.98
343.826	19.97
344.038	140.8
344.25	46.59
344.462	34.3
344.674	-20.99
344.886	52.74
345.099	124.41
345.311	60.93
345.523	73.21
345.735	28.16
345.947	34.3
346.159	136.7
346.371	1.54
346.583	22.02
346.795	69.12
347.007	69.12
347.219	124.41
347.431	50.69
347.643	9.73
347.855	19.97
348.067	5.63
348.279	-64
348.491	58.88
348.703	22.02
348.915	38.4
349.127	-2.56
349.339	50.69
349.551	69.12
349.763	83.45
349.975	24.06
350.187	62.98
350.399	95.74
350.61	69.12
350.822	28.16
351.034	62.98
351.246	1.54
351.458	87.55
351.669	1.54
351.881	83.45
352.093	56.83
352.305	142.85
352.517	50.69
352.728	46.59
352.94	50.69
353.152	89.6
353.363	56.83
353.575	65.02
353.787	75.26
353.999	85.5
354.21	83.45
354.422	34.3
354.633	60.93
354.845	85.5
355.057	-57.86
355.268	62.98
355.48	67.07
355.692	-31.23
355.903	9.73
356.115	5.63
356.326	-6.66
356.538	69.12
356.749	93.69
356.961	67.07
357.172	30.21
357.384	69.12
357.595	157.18
357.807	19.97
358.018	-2.56
358.23	52.74
358.441	58.88
358.653	48.64
358.864	58.88
359.075	3.58
359.287	15.87
359.498	140.8
359.709	22.02
359.921	-20.99
360.132	62.98
360.344	77.31
360.555	60.93
360.766	30.21
360.977	17.92
361.189	155.13
361.4	26.11
361.611	79.36
361.823	105.98
362.034	103.93
362.245	28.16
362.456	67.07
362.667	75.26
362.879	-6.66
363.09	26.11
363.301	9.73
363.512	38.4
363.723	19.97
363.935	9.73
364.146	19.97
364.357	58.88
364.568	-2.56
364.779	-8.7
364.99	1.54
365.201	-64
365.412	67.07
365.623	1.54
365.834	56.83
366.045	99.84
366.256	54.78
366.467	50.69
366.678	9.73
366.889	1.54
367.1	75.26
367.311	108.03
367.522	114.17
367.733	42.5
367.944	128.51
368.155	101.89
368.366	62.98
368.577	97.79
368.788	101.89
368.999	38.4
369.209	17.92
369.42	91.65
369.631	62.98
369.842	15.87
370.053	30.21
370.264	58.88
370.474	71.17
370.685	17.92
370.896	5.63
371.107	-4.61
371.317	132.61
371.528	58.88
371.739	81.41
371.95	69.12
372.16	34.3
372.371	9.73
372.582	-10.75
372.792	36.35
373.003	60.93
373.214	-8.7
373.424	1.54
373.635	42.5
373.846	44.54
374.056	-33.28
374.267	-20.99
374.477	48.64
374.688	87.55
374.898	1.54
375.109	54.78
375.319	15.87
375.53	67.07
375.74	91.65
375.951	50.69
376.161	44.54
376.372	62.98
376.582	19.97
376.793	93.69
377.003	87.55
377.214	75.26
377.424	-4.61
377.635	83.45
377.845	75.26
378.055	67.07
378.266	52.74
378.476	-18.94
378.686	99.84
378.897	34.3
379.107	15.87
379.317	120.32
379.528	38.4
379.738	-39.42
379.948	22.02
380.158	56.83
380.369	30.21
380.579	17.92
380.789	-14.85
380.999	24.06
381.21	95.74
381.42	67.07
381.63	17.92
381.84	95.74
382.05	67.07
382.261	67.07
382.471	99.84
382.681	22.02
382.891	75.26
383.101	44.54
383.311	69.12
383.521	71.17
383.731	79.36
383.941	120.32
384.151	9.73
384.361	44.54
384.571	103.93
384.781	110.08
384.991	81.41
385.201	148.99
385.411	77.31
385.621	148.99
385.831	-18.94
386.041	-37.38
386.251	83.45
386.461	46.59
386.671	91.65
386.881	34.3
387.091	11.78
387.301	17.92
387.511	108.03
387.72	1.54
387.93	130.56
388.14	13.82
388.35	17.92
388.56	75.26
388.769	17.92
388.979	28.16
389.189	44.54
389.399	50.69
389.609	67.07
389.818	116.22
390.028	62.98
390.238	110.08
390.447	42.5
390.657	108.03
390.867	11.78
391.076	-12.8
391.286	-33.28
391.496	91.65
391.705	93.69
391.915	110.08
392.125	134.65
392.334	128.51
392.544	60.93
392.753	17.92
392.963	15.87
393.172	36.35
393.382	99.84
393.591	79.36
393.801	75.26
394.01	77.31
394.22	126.46
394.429	46.59
394.639	83.45
394.848	151.04
395.058	95.74
395.267	19.97
395.477	103.93
395.686	42.5
395.895	75.26
396.105	116.22
396.314	58.88
396.524	58.88
396.733	36.35
396.942	62.98
397.152	112.13
397.361	120.32
397.57	42.5
397.78	34.3
397.989	67.07
398.198	108.03
398.407	118.27
398.617	1.54
398.826	85.5
399.035	126.46
399.244	83.45
399.453	11.78
399.663	140.8
399.872	124.41
400.081	99.84
400.29	103.93
400.499	126.46
400.708	122.37
400.917	42.5
401.127	120.32
401.336	85.5
401.545	99.84
401.754	124.41
401.963	103.93
402.172	136.7
402.381	77.31
402.59	58.88
402.799	116.22
403.008	124.41
403.217	157.18
403.426	124.41
403.635	83.45
403.844	99.84
404.053	126.46
404.262	91.65
404.471	189.95
404.68	95.74
404.888	91.65
405.097	99.84
405.306	140.8
405.515	173.57
405.724	83.45
405.933	159.23
406.142	140.8
406.35	167.42
406.559	112.13
406.768	167.42
406.977	155.13
407.185	173.57
407.394	187.9
407.603	165.37
407.812	202.24
408.02	194.05
408.229	163.33
408.438	216.57
408.646	175.61
408.855	165.37
409.064	230.91
409.272	181.76
409.481	206.33
409.69	271.87
409.898	222.72
410.107	241.15
410.315	189.95
410.524	263.68
410.733	341.5
410.941	230.91
411.15	282.11
411.358	349.69
411.567	296.44
411.775	271.87
411.984	380.41
412.192	361.98
412.401	437.75
412.609	394.75
412.818	431.61
413.026	337.4
413.234	417.27
413.443	427.51
413.651	372.22
413.86	470.52
414.068	517.62
414.276	495.1
414.485	534.01
414.693	501.24
414.901	550.39
415.11	542.2
415.318	521.72
415.526	534.01
415.734	652.79
415.943	585.21
416.151	611.83
416.359	755.19
416.567	691.7
416.776	726.52
416.984	691.7
417.192	765.43
417.4	767.48
417.608	785.91
417.817	828.92
418.025	853.49
418.233	853.49
418.441	978.42
418.649	927.22
418.857	1009.14
419.065	941.55
419.273	990.7
419.481	1058.29
419.689	1021.42
419.897	1066.48
420.105	1105.39
420.313	1248.75
420.521	1222.13
420.729	1211.89
420.937	1316.33
421.145	1410.54
421.353	1359.34
421.561	1426.92
421.769	1486.31
421.977	1584.62
422.185	1496.55
422.393	1680.87
422.601	1818.08
422.809	1578.47
423.017	1639.91
423.224	1951.2
423.432	1920.48
423.64	1951.2
423.848	2076.13
424.056	2084.32
424.263	2225.63
424.471	2248.16
424.679	2268.64
424.887	2256.35
425.094	2426.33
425.302	2399.71
425.51	2403.8
425.718	2455
425.925	2616.79
426.133	2610.65
426.341	2852.31
426.548	2995.67
426.756	2885.08
426.964	2971.09
427.171	3046.87
427.379	3261.9
427.586	3333.58
427.794	3503.56
428.001	3653.06
428.209	3673.54
428.417	3567.05
428.624	3818.95
428.832	3943.88
429.039	3872.2
429.247	3843.53
429.454	4277.69
429.662	4453.82
429.869	4347.33
430.076	4533.69
430.284	4298.17
430.491	4689.34
430.699	4953.52
430.906	4810.17
431.114	4920.76
431.321	5029.3
431.528	5195.18
431.736	5422.51
431.943	5756.33
432.15	5635.5
432.358	5758.38
432.565	6071.72
432.772	5893.54
432.979	6315.42
433.187	6235.55
433.394	6391.2
433.601	6749.59
433.808	6860.18
434.016	6641.05
434.223	7026.07
434.43	7536.01
434.637	7292.3
434.844	7703.95
435.052	8095.11
435.259	7880.07
435.466	8029.57
435.673	7765.39
435.88	8445.31
436.087	8697.21
436.294	8867.19
436.501	8637.82
436.708	8789.37
436.915	8973.69
437.122	9561.45
437.329	9438.58
437.537	9743.72
437.743	9948.52
437.95	9940.33
438.157	10331.49
438.364	10657.12
438.571	10673.5
438.778	10788.19
438.985	11840.84
439.192	11328.85
439.399	11597.14
439.606	11251.03
439.813	11920.71
440.02	12834.11
440.227	12449.09
440.433	12367.17
440.64	12514.63
440.847	12932.41
441.054	12883.26
441.261	13690.16
441.467	13903.15
441.674	13950.25
441.881	14222.63
442.088	14445.86
442.294	14306.6
442.501	14732.58
442.708	14935.32
442.914	15400.21
443.121	16106.76
443.328	15807.76
443.534	16819.46
443.741	16569.6
443.948	16012.56
444.154	17302.78
444.361	17171.71
444.568	17292.54
444.774	17493.24
444.981	17536.24
445.187	17990.89
445.394	18707.68
445.6	18482.41
445.807	20516.04
446.013	19340.5
446.22	19653.84
446.426	20239.56
446.633	20663.49
446.839	21578.93
447.046	20516.04
447.252	21515.45
447.459	21654.71
447.665	21458.1
447.871	22697.13
448.078	23282.84
448.284	22201.52
448.491	22922.4
448.697	23708.82
448.903	24226.96
449.11	24382.6
449.316	23798.93
449.522	24562.83
449.728	25097.35
449.935	25148.54
450.141	25240.7
450.347	25529.47
450.553	25003.14
450.76	25250.94
450.966	26365.04
451.172	25836.66
451.378	26528.88
451.584	26381.42
451.791	26803.3
451.997	26575.98
452.203	27171.94
452.409	26836.07
452.615	27212.9
452.821	26231.92
453.027	25654.39
453.233	27225.18
453.44	26070.13
453.646	26383.47
453.852	26840.17
454.058	26725.48
454.264	25887.86
454.47	27053.16
454.676	25746.55
454.882	26602.6
455.088	24530.06
455.294	25027.71
455.5	25418.88
455.705	25566.33
455.911	24818.82
456.117	24194.19
456.323	23979.15
456.529	22310.06
456.735	23620.76
456.941	23305.37
457.147	22666.41
457.352	22303.92
457.558	21966
457.764	21941.43
457.97	21456.06
458.176	20753.6
458.381	21044.41
458.587	19915.98
458.793	19881.17
458.999	19125.47
459.204	20409.54
459.41	19547.35
459.616	18601.19
459.821	18400.49
460.027	18418.92
460.233	17714.42
460.438	17310.97
460.644	17288.44
460.85	16674.05
461.055	16059.66
461.261	16450.82
461.466	15289.62
461.672	14714.14
461.878	15734.03
462.083	14773.53
462.289	14361.89
462.494	14308.65
462.7	13739.31
462.905	13583.66
463.111	13942.06
463.316	13841.71
463.522	13511.99
463.727	13172.02
463.932	13473.07
464.138	13464.88
464.343	13294.9
464.549	12963.13
464.754	13382.96
464.959	13407.54
465.165	12995.9
465.37	12494.15
465.575	12408.13
465.781	12813.63
465.986	12655.93
466.191	12258.63
466.397	12102.98
466.602	11681.1
466.807	11939.15
467.012	11785.55
467.218	12068.17
467.423	11767.12
467.628	11928.91
467.833	12184.9
468.038	11859.28
468.244	11570.51
468.449	12041.54
468.654	11679.05
468.859	11629.9
469.064	11339.09
469.269	11122.01
469.474	11070.81
469.679	11335
469.885	11183.45
470.09	11027.8
470.295	11396.43
470.5	10919.26
470.705	11146.58
470.91	10644.83
471.115	10587.49
471.32	10904.92
471.525	10632.54
471.73	10595.68
471.935	10423.65
472.139	10132.84
472.344	10165.6
472.549	9923.94
472.754	9815.4
472.959	9713
473.164	9405.81
473.369	9233.78
473.574	9749.87
473.778	9692.52
473.983	9686.38
474.188	9737.58
474.393	9201.01
474.598	9381.23
474.802	8988.02
475.007	8988.02
475.212	9041.27
475.417	8809.85
475.621	8848.76
475.826	8879.48
476.031	8539.52
476.235	8314.24
476.44	8684.92
476.645	8369.54
476.849	8316.29
477.054	8318.34
477.259	8127.88
477.463	8211.84
477.668	8211.84
477.872	7953.8
478.077	7802.25
478.282	7792.01
478.486	7701.9
478.691	7574.92
478.895	7656.84
479.1	7675.27
479.304	7671.18
479.509	7273.87
479.713	7531.92
479.918	7280.02
480.122	7204.24
480.326	7474.57
480.531	7341.46
480.735	7144.85
480.94	7136.66
481.144	7472.53
481.348	6913.43
481.553	7185.81
481.757	6964.63
481.961	7075.22
482.166	7194
482.37	7001.49
482.574	6940.05
482.778	6974.87
482.983	7159.19
483.187	7126.42
483.391	6938.01
483.595	6976.92
483.8	6964.63
484.004	7237.01
484.208	7042.45
484.412	6925.72
484.616	6843.8
484.821	7030.16
485.025	6739.35
485.229	7071.12
485.433	6849.94
485.637	6940.05
485.841	6917.53
486.045	6780.31
486.249	7122.32
486.453	6882.71
486.657	6968.73
486.861	6981.01
487.065	6686.11
487.269	7062.93
487.473	6854.04
487.677	7161.23
487.881	7079.32
488.085	7013.78
488.289	7024.02
488.493	6899.09
488.697	7058.84
488.901	7267.73
489.105	7144.85
489.309	6870.42
489.512	7146.9
489.716	7116.18
489.92	7034.26
490.124	6972.82
490.328	7280.02
490.531	7034.26
490.735	7136.66
490.939	6987.16
491.143	7058.84
491.346	7126.42
491.55	7409.04
491.754	7226.77
491.958	7320.98
492.161	7429.52
492.365	7406.99
492.569	7325.07
492.772	7314.83
492.976	7480.72
493.18	7480.72
493.383	7355.79
493.587	7579.02
493.79	7785.87
493.994	7429.52
494.197	7617.93
494.401	7769.48
494.605	7808.39
494.808	7796.11
495.012	7947.65
495.215	7941.51
495.419	7984.52
495.622	7839.11
495.825	8097.16
496.029	8033.67
496.232	8250.75
496.436	8340.86
496.639	8480.13
496.843	8344.96
497.046	8482.17
497.249	8680.83
497.453	8631.68
497.656	8885.62
497.859	8672.64
498.063	8815.99
498.266	9037.17
498.469	8971.64
498.673	9149.81
498.876	9274.74
499.079	9149.81
499.282	9465.2
499.485	9547.12
499.689	9596.27
499.892	9790.83
500.095	9680.24
500.298	9942.38
500.501	9758.06
500.705	10003.82
500.908	10272.1
501.111	10206.56
501.314	10386.79
501.517	10544.48
501.72	10515.81
501.923	10671.45
502.126	10743.13
502.329	10712.41
502.532	11097.43
502.735	11083.09
502.938	11521.36
503.141	11263.32
503.344	11605.33
503.547	11631.95
503.75	11621.71
503.953	11855.18
504.156	11902.28
504.359	12254.53
504.562	12338.5
504.765	12485.95
504.968	12483.91
505.17	12762.43
505.373	12520.77
505.576	13012.28
505.779	13255.99
505.982	12981.56
506.185	13608.24
506.387	13753.65
506.59	13643.06
506.793	13872.43
506.996	13647.15
507.198	14073.13
507.401	14128.42
507.604	14298.41
507.807	14400.8
508.009	14601.51
508.212	14812.45
508.415	14992.67
508.617	15308.05
508.82	15195.42
509.022	15248.66
509.225	15531.28
509.428	15598.87
509.63	16000.27
509.833	15803.66
510.035	16356.61
510.238	16100.62
510.44	16436.49
510.643	16641.28
510.845	16848.13
511.048	16827.65
511.25	16790.78
511.453	16958.72
511.655	17542.39
511.858	17458.42
512.06	17468.66
512.262	17589.49
512.465	17784.05
512.667	18314.47
512.87	18126.06
513.072	18212.07
513.274	18353.38
513.477	18785.51
513.679	19123.42
513.881	19195.1
514.084	19326.17
514.286	19182.81
514.488	19557.59
514.69	20225.23
514.893	19911.89
515.095	20100.3
515.297	20278.47
515.499	20544.71
515.701	20903.11
515.904	20931.78
516.106	20739.27
516.308	21320.89
516.51	21449.91
516.712	21667
516.914	21922.99
517.116	22148.27
517.318	22133.93
517.52	22531.24
517.722	22265
517.925	22604.97
518.127	22963.36
518.329	22967.46
518.531	23067.81
518.733	23325.85
518.935	23495.83
519.136	23424.15
519.338	23555.22
519.54	24212.62
519.742	23989.39
519.944	24265.87
520.146	24679.56
520.348	24906.88
520.55	25003.14
520.752	25066.63
520.954	25437.31
521.155	25105.54
521.357	25721.98
521.559	26082.42
521.761	26428.52
521.963	26360.94
522.164	26360.94
522.366	26158.19
522.568	26676.33
522.77	26782.82
522.971	27573.34
523.173	26928.23
523.375	27133.03
523.576	27339.87
523.778	27391.07
523.98	27784.28
524.181	27892.82
524.383	27833.43
524.584	28568.65
524.786	28318.8
524.988	27952.21
525.189	28894.28
525.391	28927.05
525.592	29398.08
525.794	29297.73
525.995	29197.38
526.197	28900.42
526.398	29555.77
526.6	29813.82
526.801	29586.49
527.003	30063.67
527.204	29754.43
527.406	30241.84
527.607	29860.92
527.808	30313.52
528.01	29631.55
528.211	29998.13
528.412	30633
528.614	30698.54
528.815	30551.09
529.016	30762.03
529.218	30483.5
529.419	30788.65
529.62	31003.69
529.822	30626.86
530.023	30993.45
530.224	30903.34
530.425	30932.01
530.626	30870.57
530.828	30463.02
531.029	31345.7
531.23	31034.41
531.431	30911.53
531.632	31587.36
531.833	31300.64
532.035	31153.19
532.236	31409.18
532.437	31429.66
532.638	31382.56
532.839	31804.44
533.04	31808.54
533.241	31499.3
533.442	31517.73
533.643	31294.5
533.844	31710.24
534.045	31579.17
534.246	31319.07
534.447	31677.47
534.648	31325.22
534.849	31749.15
535.05	31570.97
535.251	31757.34
535.451	31415.33
535.652	31656.99
535.853	31689.76
536.054	31497.25
536.255	31566.88
536.456	31439.9
536.657	32261.14
536.857	31826.97
537.058	31620.13
537.259	31747.1
537.46	31738.91
537.66	31417.38
537.861	32015.38
538.062	31826.97
538.263	31601.69
538.463	31347.75
538.664	31429.66
538.865	31786.01
539.065	31790.11
539.266	31370.27
539.466	31591.45
539.667	31536.16
539.868	31771.68
540.068	31228.96
540.269	31284.26
540.469	32050.2
540.67	31341.6
540.87	31564.83
541.071	31267.87
541.271	31902.75
541.472	31728.67
541.672	31300.64
541.873	31026.21
542.073	30747.69
542.274	31435.81
542.474	31392.8
542.675	30690.35
542.875	31812.63
543.075	31128.61
543.276	31120.42
543.476	31546.4
543.676	31132.71
543.877	31693.85
544.077	31786.01
544.277	31167.52
544.478	31562.78
544.678	31398.94
544.878	31265.83
545.078	31343.65
545.279	31073.32
545.479	30899.24
545.679	31231.01
545.879	31271.97
546.079	31282.21
546.28	31224.87
546.48	31001.64
546.68	31413.28
546.88	31435.81
547.08	31595.55
547.28	31073.32
547.48	30790.7
547.68	31656.99
547.88	30977.06
548.081	31220.77
548.281	31540.25
548.481	30981.16
548.681	31786.01
548.881	31058.98
549.081	31063.08
549.28	31042.6
549.48	31642.65
549.68	31325.22
549.88	31538.21
550.08	30790.7
550.28	31061.03
550.48	31368.23
550.68	31212.58
550.88	31114.28
551.08	30991.4
551.279	31323.17
551.479	30950.44
551.679	31093.8
551.879	30983.21
552.079	31181.86
552.278	30858.28
552.478	31147.04
552.678	31034.41
552.878	31335.46
553.077	30741.55
553.277	30737.45
553.477	30987.3
553.676	30571.57
553.876	30868.52
554.076	30811.18
554.275	30778.41
554.475	30524.46
554.674	30882.86
554.874	30786.6
555.074	30647.34
555.273	30655.53
555.473	31104.04
555.672	30802.99
555.872	30510.13
556.071	30811.18
556.271	30690.35
556.47	30417.97
556.67	30428.21
556.869	30450.74
557.068	30612.52
557.268	30796.84
557.467	30837.8
557.667	30546.99
557.866	30270.51
558.065	30303.28
558.265	30397.49
558.464	30325.81
558.663	30520.37
558.863	30116.92
559.062	30577.71
559.261	29774.91
559.461	30020.66
559.66	29873.21
559.859	30245.94
560.058	29795.39
560.258	29713.47
560.457	29504.57
560.656	30270.51
560.855	29424.7
561.054	29862.97
561.253	29660.22
561.453	29985.85
561.652	29641.79
561.851	29781.05
562.05	29381.7
562.249	29402.18
562.448	29514.81
562.647	29717.56
562.846	29629.5
563.045	29420.61
563.244	29084.74
563.443	29121.6
563.642	28939.33
563.841	29336.64
564.04	29318.21
564.239	29346.88
564.438	28836.94
564.637	29191.23
564.836	29277.25
565.035	28881.99
565.234	28910.66
565.432	28961.86
565.631	28875.85
565.83	28716.11
566.029	28736.59
566.228	28912.71
566.427	28818.5
566.625	28755.02
566.824	28134.48
567.023	28267.6
567.222	28148.82
567.42	28300.37
567.619	28302.42
567.818	28048.47
568.016	27944.02
568.215	28392.53
568.414	28093.52
568.612	27929.69
568.811	27939.93
569.01	27931.73
569.208	27358.3
569.407	27708.51
569.605	27483.23
569.804	27919.45
570.002	27362.4
570.201	27552.86
570.4	27118.69
570.598	27606.11
570.797	27303.01
570.995	27128.93
571.193	27057.25
571.392	27104.35
571.59	26993.76
571.789	26915.94
571.987	26907.75
572.186	26985.57
572.384	26694.76
572.582	26737.77
572.781	26842.21
572.979	26428.52
573.177	26737.77
573.376	26713.19
573.574	26231.92
573.772	26510.44
573.971	26371.18
574.169	26252.4
574.367	26227.82
574.565	26164.34
574.763	26068.08
574.962	25980.02
575.16	25848.95
575.358	26006.64
575.556	25844.85
575.754	26188.91
575.952	25650.3
576.151	25760.89
576.349	25730.17
576.547	25607.29
576.745	25369.72
576.943	25568.38
577.141	25468.03
577.339	25529.47
577.537	25482.36
577.735	25377.92
577.933	24691.85
578.131	25306.24
578.329	24863.88
578.527	24978.56
578.725	24697.99
578.923	24925.32
579.121	24790.15
579.319	24587.4
579.516	24575.11
579.714	24720.52
579.912	24495.24
580.11	24384.65
580.308	24366.22
580.506	24464.52
580.704	24198.29
580.901	24294.54
581.099	24616.07
581.297	24241.29
581.495	24013.97
581.692	24054.93
581.89	24044.69
582.088	24003.73
582.285	23579.8
582.483	24048.79
582.681	23903.38
582.878	23743.64
583.076	23577.75
583.274	23645.34
583.471	23430.3
583.669	23352.48
583.866	23391.39
584.064	23463.07
584.262	22973.6
584.459	23454.87
584.657	23274.65
584.854	23202.97
585.052	22572.2
585.249	23192.73
585.447	22914.21
585.644	22482.09
585.841	23035.04
586.039	22940.83
586.236	22887.59
586.434	22658.21
586.631	22557.86
586.828	22449.32
587.026	22426.79
587.223	22322.35
587.42	22269.1
587.618	22467.75
587.815	22142.13
588.012	22181.04
588.21	21822.64
588.407	22441.13
588.604	21765.3
588.801	21836.98
588.999	21882.03
589.196	21820.6
589.393	21791.92
589.59	21695.67
589.787	21742.77
589.984	21628.09
590.182	21605.56
590.379	21267.64
590.576	21411
590.773	21310.65
590.97	21124.29
591.167	21275.84
591.364	21097.66
591.561	21202.11
591.758	21142.72
591.955	20880.58
592.152	21347.51
592.349	20745.41
592.546	20722.88
592.743	20948.16
592.94	20608.2
593.137	20528.33
593.334	20620.49
593.531	20208.84
593.727	20460.74
593.924	20548.81
594.121	20425.93
594.318	20487.37
594.515	20188.36
594.712	20235.47
594.908	20079.82
595.105	20202.7
595.302	20081.87
595.499	19815.63
595.696	19922.13
595.892	19684.56
596.089	20059.34
596.286	19991.76
596.482	19799.25
596.679	19748.05
596.876	19690.71
597.072	19537.11
597.269	19387.61
597.466	19320.03
597.662	19344.6
597.859	19479.77
598.055	19125.47
598.252	18982.11
598.448	19195.1
598.645	18908.38
598.841	18750.69
599.038	18920.67
599.234	19084.51
599.431	18756.83
599.627	18803.94
599.824	18672.87
600.02	18660.58
600.217	18783.46
600.413	18537.7
600.609	18369.77
600.806	18435.3
601.002	18597.09
601.198	18302.18
601.395	18314.47
601.591	18095.34
601.787	18478.31
601.984	17984.75
602.18	18171.11
602.376	18083.05
602.572	17997.04
602.769	17876.21
602.965	17618.16
603.161	17843.44
603.357	17736.95
603.553	17722.61
603.75	17755.38
603.946	17427.7
604.142	17433.85
604.338	17261.82
604.534	17517.81
604.73	17302.78
604.926	17388.79
605.122	17526
605.318	17313.02
605.514	16942.33
605.71	17134.84
605.906	17145.08
606.102	16960.77
606.298	17018.11
606.494	17057.02
606.69	16983.29
606.886	17018.11
607.082	16596.23
607.278	16915.71
607.474	16540.93
607.67	16762.11
607.866	16557.32
608.062	16712.96
608.257	16585.99
608.453	16647.43
608.649	16749.82
608.845	16248.07
609.041	16645.38
609.236	16588.03
609.432	16166.15
609.628	16530.69
609.824	16405.77
610.019	16346.37
610.215	16362.76
610.411	16286.98
610.606	16178.44
610.802	16360.71
610.998	16160.01
611.193	16164.11
611.389	16147.72
611.584	15813.9
611.78	16049.42
611.976	15959.31
612.171	16106.76
612.367	16018.7
612.562	15930.64
612.758	15848.72
612.953	15500.56
613.149	15875.34
613.344	15785.23
613.539	15791.38
613.735	15770.9
613.93	15795.47
614.126	15529.24
614.321	15889.68
614.517	15594.77
614.712	15811.85
614.907	15662.35
615.103	15820.05
615.298	15402.26
615.493	15555.86
615.688	15258.9
615.884	15527.19
616.079	15121.69
616.274	15437.08
616.47	15541.52
616.665	15445.27
616.86	15322.39
617.055	15000.86
617.25	15084.83
617.445	15338.77
617.641	15164.7
617.836	15148.31
618.031	15027.48
618.226	15004.96
618.421	14789.92
618.616	14998.81
618.811	14851.36
619.006	14742.82
619.201	14603.55
619.396	14863.65
619.591	14574.88
619.786	14650.66
619.981	14531.87
620.176	14525.73
620.371	14404.9
620.566	14564.64
620.761	14011.69
620.956	14214.44
621.151	14066.99
621.346	14040.36
621.541	13837.61
621.735	14109.99
621.93	13901.1
622.125	13763.89
622.32	13559.09
622.515	13681.97
622.709	13546.8
622.904	13352.24
623.099	13477.17
623.294	13641.01
623.488	13331.76
623.683	13354.29
623.878	13147.45
624.072	13231.41
624.267	12975.42
624.462	13174.07
624.656	12662.08
624.851	13036.86
625.046	12965.18
625.24	12903.74
625.435	12846.4
625.629	12623.17
625.824	12629.31
626.018	12518.72
626.213	12436.8
626.407	12340.55
626.602	12311.88
626.796	12236.1
626.991	12205.38
627.185	12221.77
627.38	12012.87
627.574	12088.65
627.768	11924.81
627.963	11990.35
628.157	11570.51
628.352	11752.78
628.546	11709.77
628.74	11951.43
628.935	11554.13
629.129	11421.01
629.323	11492.69
629.517	11441.49
629.712	11363.67
629.906	11371.86
630.1	11083.09
630.294	11208.02
630.489	11068.76
630.683	11119.96
630.877	10976.6
631.071	10915.16
631.265	10964.31
631.459	10839.39
631.653	10587.49
631.848	10546.53
632.042	10636.64
632.236	10757.47
632.43	10480.99
632.624	10691.93
632.818	10519.9
633.012	10401.12
633.206	10440.03
633.4	10331.49
633.594	10216.8
633.788	10177.89
633.982	10030.44
634.176	10102.12
634.369	10136.93
634.563	9874.79
634.757	9889.13
634.951	9889.13
635.145	9966.95
635.339	9825.64
635.533	9889.13
635.726	9684.33
635.92	9768.3
636.114	9698.67
636.308	9547.12
636.501	9549.17
636.695	9368.95
636.889	9450.86
637.083	9373.04
637.276	9176.44
637.47	9332.08
637.664	9080.18
637.857	9262.45
638.051	9010.55
638.244	8932.73
638.438	8926.58
638.632	8930.68
638.825	8861.05
639.019	8985.97
639.212	8744.31
639.406	8703.36
639.599	8639.87
639.793	8766.84
639.986	8480.13
640.18	8668.54
640.373	8422.78
640.567	8404.35
640.76	8494.46
640.954	8406.4
641.147	8367.49
641.34	8332.67
641.534	8220.03
641.727	8392.06
641.92	8242.56
642.114	8201.6
642.307	8205.7
642.5	8258.95
642.694	7914.89
642.887	7828.87
643.08	7927.18
643.273	7859.59
643.467	7796.11
643.66	7781.77
643.853	7918.98
644.046	7488.91
644.239	7712.14
644.432	7587.21
644.626	7667.08
644.819	7497.1
645.012	7546.25
645.205	7478.67
645.398	7456.14
645.591	7314.83
645.784	7431.57
645.977	7120.28
646.17	7296.4
646.363	7331.22
646.556	7161.23
646.749	7148.95
646.942	7161.23
647.135	7114.13
647.328	7153.04
647.521	7122.32
647.714	6860.18
647.907	6981.01
648.099	6985.11
648.292	6948.25
648.485	6862.23
648.678	6778.26
648.871	6720.92
649.064	6677.91
649.256	6931.86
649.449	6581.66
649.642	6503.84
649.835	6489.5
650.027	6673.82
650.22	6655.39
650.413	6426.01
650.605	6481.31
650.798	6495.64
650.991	6350.24
651.183	6323.62
651.376	6401.44
651.568	6442.4
651.761	6448.54
651.954	6378.91
652.146	6262.18
652.339	6213.03
652.531	6215.07
652.724	6055.33
652.916	6094.24
653.109	5969.32
653.301	6131.11
653.494	6084
653.686	5989.8
653.879	5965.22
654.071	5887.4
654.263	5854.63
654.456	5875.11
654.648	5832.1
654.84	5797.29
655.033	5731.75
655.225	5625.26
655.417	5698.99
655.61	5713.32
655.802	5821.86
655.994	5602.73
656.186	5539.24
656.379	5682.6
656.571	5717.42
656.763	5475.76
656.955	5363.12
657.148	5504.43
657.34	5447.08
657.532	5320.11
657.724	5313.97
657.916	5500.33
658.108	5297.58
658.3	5273.01
658.492	5240.24
658.684	5254.58
658.876	5227.95
659.068	5260.72
659.26	5115.31
659.452	5225.9
659.644	5080.5
659.836	4978.1
660.028	5137.84
660.22	4990.39
660.412	4900.28
660.604	4881.85
660.796	4892.09
660.988	4955.57
661.18	4965.81
661.372	4806.07
661.563	4933.04
661.755	4830.65
661.947	4804.02
662.139	4806.07
662.331	4699.58
662.522	4613.56
662.714	4642.23
662.906	4615.61
663.097	4615.61
663.289	4679.1
663.481	4433.34
663.673	4560.31
663.864	4525.5
664.056	4527.55
664.247	4558.27
664.439	4466.11
664.631	4494.78
664.822	4472.25
665.014	4515.26
665.205	4335.04
665.397	4289.98
665.588	4404.67
665.78	4390.33
665.971	4269.5
666.163	4294.08
666.354	4345.28
666.546	4337.09
666.737	4154.82
666.929	4210.11
667.12	4199.87
667.311	4273.6
667.503	4128.19
667.694	4126.15
667.885	4179.39
668.077	4093.38
668.268	3966.4
668.459	4138.43
668.651	3941.83
668.842	3974.6
669.033	4023.75
669.224	3978.69
669.416	4251.07
669.607	4042.18
669.798	4163.01
669.989	3995.08
670.18	4007.36
670.371	3845.57
670.563	3892.68
670.754	3868.1
670.945	3859.91
671.136	3921.35
671.327	3876.29
671.518	3982.79
671.709	3773.89
671.9	3763.65
672.091	3937.73
672.282	3714.5
672.473	3728.84
672.664	3726.79
672.855	3716.55
673.046	3706.31
673.237	3864.01
673.428	3700.17
673.619	3687.88
673.809	3591.63
674	3622.34
674.191	3663.3
674.382	3519.95
674.573	3616.2
674.764	3640.78
674.954	3694.02
675.145	3585.48
675.336	3460.56
675.527	3534.28
675.717	3569.1
675.908	3616.2
676.099	3515.85
676.289	3454.41
676.48	3499.47
676.671	3468.75
676.861	3368.4
677.052	3540.43
677.243	3489.23
677.433	3302.86
677.624	3544.52
677.814	3425.74
678.005	3460.56
678.195	3485.13
678.386	3298.77
678.576	3517.9
678.767	3352.01
678.957	3706.31
679.148	3403.21
679.338	3294.67
679.529	3407.31
679.719	3352.01
679.909	3448.27
680.1	3376.59
680.29	3388.88
680.481	3212.75
680.671	3352.01
680.861	3304.91
681.052	3311.05
681.242	3433.93
681.432	3253.71
681.622	3261.9
681.813	3358.16
682.003	3272.14
682.193	3241.42
682.383	3212.75
682.573	3288.53
682.764	3284.43
682.954	3208.66
683.144	3165.65
683.334	3059.15
683.524	3229.13
683.714	3261.9
683.904	3163.6
684.094	3257.81
684.284	3179.98
684.474	3241.42
684.664	3173.84
684.854	3169.74
685.044	3149.26
685.234	3206.61
685.424	3202.51
685.614	3098.06
685.804	3149.26
685.994	2993.62
686.184	3100.11
686.374	3110.35
686.564	3132.88
686.753	3204.56
686.943	3001.81
687.133	3030.48
687.323	3053.01
687.513	3026.39
687.702	3057.11
687.892	2950.61
688.082	2977.23
688.272	2979.28
688.461	2930.13
688.651	2938.32
688.841	2921.94
689.03	2940.37
689.22	2917.84
689.41	2887.12
689.599	2876.88
689.789	2893.27
689.979	2762.2
690.168	2880.98
690.358	2878.93
690.547	2852.31
690.737	2745.81
690.926	2831.83
691.116	2737.62
691.305	2809.3
691.495	2786.77
691.684	2692.57
691.874	2682.33
692.063	2696.66
692.252	2801.11
692.442	2862.55
692.631	2647.51
692.82	2661.85
693.01	2725.33
693.199	2547.16
693.388	2692.57
693.578	2649.56
693.767	2512.35
693.956	2667.99
694.146	2606.55
694.335	2600.41
694.524	2516.44
694.713	2559.45
694.902	2532.83
695.092	2506.2
695.281	2455
695.47	2516.44
695.659	2534.87
695.848	2475.48
696.037	2512.35
696.226	2649.56
696.415	2438.62
696.604	2549.21
696.793	2534.87
696.982	2516.44
697.171	2541.02
697.36	2432.47
697.549	2387.42
697.738	2297.31
697.927	2289.12
698.116	2479.58
698.305	2500.06
698.494	2504.15
698.683	2549.21
698.872	2368.99
699.061	2541.02
699.25	2330.08
699.438	2426.33
699.627	2471.39
699.816	2444.76
700.005	2463.19
700.193	2307.55
700.382	2393.56
700.571	2442.71
700.76	2493.91
700.948	2418.14
701.137	2412
701.326	2280.93
701.514	2317.79
701.703	2446.81
701.892	2334.17
702.08	2498.01
702.269	2412
702.457	2278.88
702.646	2309.6
702.834	2336.22
703.023	2426.33
703.212	2412
703.4	2385.37
703.589	2371.04
703.777	2319.84
703.965	2321.88
704.154	2319.84
704.342	2426.33
704.531	2319.84
704.719	2295.26
704.907	2336.22
705.096	2254.3
705.284	2391.52
705.472	2325.98
705.661	2338.27
705.849	2360.8
706.037	2401.76
706.226	2295.26
706.414	2299.36
706.602	2291.17
706.79	2258.4
706.979	2315.74
707.167	2237.92
707.355	2297.31
707.543	2180.57
707.731	2373.08
707.919	2244.06
708.107	2270.69
708.296	2278.88
708.484	2229.73
708.672	2325.98
708.86	2178.53
709.048	2313.69
709.236	2311.64
709.424	2250.21
709.612	2246.11
709.8	2250.21
709.988	2252.25
710.176	2297.31
710.364	2233.82
710.551	2174.43
710.739	2250.21
710.927	2278.88
711.115	2184.67
711.303	2223.58
711.491	2274.78
711.679	2229.73
711.866	2303.45
712.054	2235.87
712.242	2297.31
712.43	2315.74
712.617	2237.92
712.805	2229.73
712.993	2285.02
713.181	2090.46
713.368	2235.87
713.556	2174.43
713.744	2254.3
713.931	2272.73
714.119	2237.92
714.306	2237.92
714.494	2301.4
714.682	2213.34
714.869	2190.81
715.057	2266.59
715.244	2223.58
715.432	2303.45
715.619	2174.43
715.807	2213.34
715.994	2285.02
716.182	2242.01
716.369	2352.6
716.556	2254.3
716.744	2184.67
716.931	2199.01
717.119	2239.97
717.306	2334.17
717.493	2196.96
717.681	2278.88
717.868	2188.77
718.055	2293.21
718.242	2166.24
718.43	2196.96
718.617	2139.62
718.804	2188.77
718.991	2207.2
719.179	2221.53
719.366	2211.29
719.553	2223.58
719.74	2213.34
719.927	2182.62
720.114	2229.73
720.301	2176.48
720.488	2174.43
720.676	2217.44
720.863	2127.33
721.05	2242.01
721.237	2156
721.424	2246.11
721.611	2201.05
721.798	2172.38
721.985	2180.57
722.172	2166.24
722.358	2059.74
722.545	2196.96
722.732	2123.23
722.919	2213.34
723.106	2086.37
723.293	2237.92
723.48	2135.52
723.667	2100.7
723.853	2074.08
724.04	2186.72
724.227	2139.62
724.414	2151.9
724.6	2082.27
724.787	2117.09
724.974	2115.04
725.161	2053.6
725.347	2123.23
725.534	2196.96
725.72	2184.67
725.907	2080.22
726.094	2225.63
726.28	2166.24
726.467	2151.9
726.653	2090.46
726.84	2090.46
727.027	2139.62
727.213	2125.28
727.4	2209.25
727.586	2139.62
727.773	2149.86
727.959	2160.1
728.145	2188.77
728.332	2094.56
728.518	2156
728.705	2192.86
728.891	2143.71
729.077	2106.85
729.264	2131.42
729.45	2201.05
729.636	2121.18
729.823	2112.99
730.009	2133.47
730.195	2151.9
730.382	2119.14
730.568	2076.13
730.754	2213.34
730.94	2184.67
731.126	2180.57
731.313	2164.19
731.499	2108.9
731.685	2227.68
731.871	2119.14
732.057	2129.38
732.243	2180.57
732.429	2141.66
732.615	2143.71
732.801	2172.38
732.987	2061.79
733.173	2139.62
733.359	2045.41
733.545	2127.33
733.731	2078.18
733.917	2086.37
734.103	2160.1
734.289	2207.2
734.475	2008.55
734.661	2188.77
734.847	2115.04
735.033	2205.15
735.219	2184.67
735.404	2076.13
735.59	1994.21
735.776	2168.29
735.962	2008.55
736.148	1967.59
736.333	2156
736.519	2059.74
736.705	2080.22
736.89	1998.31
737.076	2020.83
737.262	2106.85
737.447	2086.37
737.633	2029.03
737.819	2065.89
738.004	2047.46
738.19	2192.86
738.375	2053.6
738.561	2018.79
738.747	2053.6
738.932	2018.79
739.118	2055.65
739.303	2049.5
739.489	2092.51
739.674	1930.72
739.859	1986.02
740.045	2033.12
740.23	2102.75
740.416	2037.22
740.601	1979.87
740.786	1983.97
740.972	2037.22
741.157	1986.02
741.342	1854.95
741.528	1900
741.713	1922.53
741.898	2047.46
742.084	2020.83
742.269	1811.94
742.454	1951.2
742.639	2029.03
742.824	1963.49
743.01	1912.29
743.195	1986.02
743.38	1846.76
743.565	1891.81
743.75	1934.82
743.935	1824.23
744.12	1979.87
744.305	1811.94
744.49	1832.42
744.675	1859.04
744.86	1834.47
745.045	1912.29
745.23	1738.21
745.415	1805.8
745.6	1689.06
745.785	1807.84
745.97	1838.56
746.155	1721.83
746.34	1644.01
746.525	1795.56
746.71	1857
746.895	1592.81
747.079	1770.98
747.264	1639.91
747.449	1766.89
747.634	1768.93
747.819	1699.3
748.003	1660.39
748.188	1738.21
748.373	1631.72
748.557	1625.58
748.742	1689.06
748.927	1641.96
749.111	1676.77
749.296	1557.99
749.481	1623.53
749.665	1633.77
749.85	1531.37
750.034	1529.32
750.219	1545.7
750.404	1586.66
750.588	1582.57
750.773	1492.46
750.957	1627.62
751.141	1437.16
751.326	1492.46
751.51	1551.85
751.695	1492.46
751.879	1490.41
752.064	1498.6
752.248	1492.46
752.432	1433.07
752.617	1453.55
752.801	1502.7
752.985	1428.97
753.17	1443.31
753.354	1443.31
753.538	1428.97
753.722	1293.8
753.907	1351.15
754.091	1340.91
754.275	1324.52
754.459	1428.97
754.643	1224.17
754.828	1353.2
755.012	1353.2
755.196	1136.11
755.38	1326.57
755.564	1304.04
755.748	1234.41
755.932	1357.29
756.116	1213.93
756.3	1111.54
756.484	1156.59
756.668	1279.47
756.852	1154.54
757.036	1148.4
757.22	1175.02
757.404	1191.41
757.588	1152.49
757.772	1172.97
757.956	1197.55
758.14	1123.82
758.323	1058.29
758.507	1164.78
758.691	1140.21
758.875	1115.63
759.059	1156.59
759.242	1082.86
759.426	1043.95
759.61	1084.91
759.794	1031.66
759.977	1025.52
760.161	1121.77
760.345	1103.34
760.528	1050.1
760.712	1127.92
760.895	1060.34
761.079	1027.57
761.263	959.99
761.446	949.75
761.63	1041.9
761.813	1002.99
761.997	939.51
762.18	1043.95
762.364	1039.86
762.547	982.51
762.731	931.31
762.914	921.07
763.098	968.18
763.281	986.61
763.464	966.13
763.648	912.88
763.831	1007.09
764.015	966.13
764.198	959.99
764.381	906.74
764.564	914.93
764.748	1015.28
764.931	892.4
765.114	884.21
765.297	886.26
765.481	890.35
765.664	837.11
765.847	919.03
766.03	976.37
766.213	861.68
766.397	839.16
766.58	820.72
766.763	828.92
766.946	882.16
767.129	830.96
767.312	927.22
767.495	902.64
767.678	888.31
767.861	886.26
768.044	796.15
768.227	912.88
768.41	837.11
768.593	828.92
768.776	837.11
768.959	910.83
769.142	773.62
769.324	787.96
769.507	818.68
769.69	749.04
769.873	865.78
770.056	806.39
770.239	742.9
770.421	792.05
770.604	837.11
770.787	669.17
770.97	779.76
771.152	833.01
771.335	777.72
771.518	755.19
771.7	771.57
771.883	839.16
772.066	771.57
772.248	665.08
772.431	800.24
772.613	798.2
772.796	787.96
772.978	814.58
773.161	755.19
773.343	718.33
773.526	667.13
773.708	747
773.891	683.51
774.073	599.54
774.256	683.51
774.438	749.04
774.621	691.7
774.803	747
774.985	665.08
775.168	755.19
775.35	632.31
775.532	706.04
775.715	671.22
775.897	644.6
776.079	658.93
776.261	603.64
776.444	628.21
776.626	691.7
776.808	611.83
776.99	630.26
777.173	632.31
777.355	587.26
777.537	642.55
777.719	560.63
777.901	480.76
778.083	599.54
778.265	554.49
778.447	648.69
778.629	536.06
778.811	525.82
778.993	613.88
779.175	609.78
779.357	517.62
779.539	525.82
779.721	552.44
779.903	542.2
780.085	550.39
780.267	509.43
780.449	519.67
780.631	620.02
780.812	513.53
780.994	519.67
781.176	503.29
781.358	443.9
781.54	519.67
781.721	452.09
781.903	525.82
782.085	497.14
782.267	560.63
782.448	435.71
782.63	501.24
782.812	501.24
782.993	527.86
783.175	505.34
783.357	542.2
783.538	421.37
783.72	452.09
783.901	468.47
784.083	421.37
784.264	480.76
784.446	462.33
784.627	439.8
784.809	392.7
784.99	415.23
785.172	493.05
785.353	407.03
785.535	480.76
785.716	396.79
785.897	474.62
786.079	376.31
786.26	411.13
786.441	339.45
786.623	316.92
786.804	431.61
786.985	361.98
787.167	409.08
787.348	329.21
787.529	411.13
787.71	429.56
787.891	398.84
788.073	413.18
788.254	308.73
788.435	374.27
788.616	333.31
788.797	349.69
788.978	359.93
789.159	357.88
789.34	378.36
789.522	306.68
789.703	325.12
789.884	325.12
790.065	296.44
790.246	396.79
790.427	413.18
790.607	329.21
790.788	355.83
790.969	273.92
791.15	341.5
791.331	261.63
791.512	349.69
791.693	271.87
791.874	345.59
792.054	349.69
792.235	321.02
792.416	284.16
792.597	269.82
792.778	263.68
792.958	361.98
793.139	292.35
793.32	288.25
793.5	251.39
793.681	312.83
793.862	292.35
794.042	282.11
794.223	286.2
794.404	251.39
794.584	159.23
794.765	218.62
794.945	280.06
795.126	267.77
795.306	331.26
795.487	263.68
795.667	302.59
795.848	222.72
796.028	251.39
796.209	251.39
796.389	192
796.57	265.72
796.75	216.57
796.93	271.87
797.111	282.11
797.291	263.68
797.471	275.96
797.652	302.59
797.832	214.52
798.012	194.05
798.192	257.53
798.373	175.61
798.553	212.48
798.733	241.15
798.913	155.13
799.093	292.35
799.274	222.72
799.454	288.25
799.634	232.96
799.814	304.64
799.994	210.43
800.174	232.96
800.354	202.24
800.534	165.37
800.714	235
800.894	126.46
801.074	232.96
801.254	216.57
801.434	198.14
801.614	235
801.794	202.24
801.974	818.68
802.154	196.09
802.334	204.28
802.514	226.81
802.693	226.81
802.873	159.23
803.053	224.76
803.233	177.66
803.413	167.42
803.592	192
803.772	116.22
803.952	214.52
804.131	212.48
804.311	230.91
804.491	171.52
804.67	230.91
804.85	198.14
805.03	161.28
805.209	230.91
805.389	200.19
805.568	239.1
805.748	230.91
805.928	177.66
806.107	208.38
806.287	132.61
806.466	116.22
806.646	140.8
806.825	165.37
807.004	148.99
807.184	208.38
807.363	265.72
807.543	146.94
807.722	175.61
807.901	202.24
808.081	226.81
808.26	124.41
808.439	161.28
808.619	146.94
808.798	222.72
808.977	155.13
809.156	218.62
809.336	165.37
809.515	169.47
809.694	157.18
809.873	138.75
810.052	173.57
810.231	198.14
810.411	159.23
810.59	185.85
810.769	179.71
810.948	171.52
811.127	116.22
811.306	77.31
811.485	103.93
811.664	165.37
811.843	146.94
812.022	110.08
812.201	91.65
812.38	165.37
812.559	122.37
812.737	224.76
812.916	116.22
813.095	134.65
813.274	181.76
813.453	151.04
813.632	151.04
813.811	91.65
813.989	77.31
814.168	169.47
814.347	-10.75
814.526	140.8
814.704	159.23
814.883	214.52
815.062	108.03
815.24	167.42
815.419	46.59
815.598	161.28
815.776	91.65
815.955	108.03
816.133	85.5
816.312	173.57
816.49	173.57
816.669	101.89
816.847	75.26
817.026	132.61
817.204	200.19
817.383	65.02
817.561	153.09
817.74	163.33
817.918	142.85
818.097	128.51
818.275	148.99
818.453	167.42
818.632	132.61
818.81	140.8
818.988	140.8
819.167	99.84
819.345	120.32
819.523	198.14
819.701	132.61
819.879	126.46
820.058	118.27
820.236	132.61
820.414	56.83
820.592	134.65
820.77	50.69
820.948	67.07
821.127	142.85
821.305	153.09
821.483	69.12
821.661	103.93
821.839	91.65
822.017	128.51
822.195	140.8
822.373	99.84
822.551	108.03
822.729	91.65
822.907	71.17
823.085	159.23
823.262	116.22
823.44	79.36
823.618	71.17
823.796	134.65
823.974	34.3
824.152	71.17
824.329	17.92
824.507	118.27
824.685	89.6
824.863	81.41
825.04	99.84
825.218	116.22
825.396	142.85
825.574	128.51
825.751	110.08
825.929	138.75
826.107	58.88
826.284	95.74
826.462	52.74
826.639	153.09
826.817	77.31
826.994	202.24
827.172	140.8
827.349	144.89
827.527	148.99
827.704	40.45
827.882	34.3
828.059	85.5
828.237	67.07
828.414	155.13
828.591	60.93
828.769	161.28
828.946	140.8
829.124	83.45
829.301	44.54
829.478	112.13
829.655	165.37
829.833	34.3
830.01	24.06
830.187	173.57
830.364	42.5
830.542	67.07
830.719	56.83
830.896	69.12
831.073	151.04
831.25	56.83
831.427	71.17
831.604	79.36
831.782	58.88
831.959	128.51
832.136	114.17
832.313	136.7
832.49	140.8
832.667	153.09
832.844	34.3
833.021	177.66
833.198	87.55
833.374	50.69
833.551	65.02
833.728	-12.8
833.905	75.26
834.082	32.26
834.259	58.88
834.436	101.89
834.612	34.3
834.789	155.13
834.966	40.45
835.143	116.22
835.319	28.16
835.496	79.36
835.673	93.69
835.85	124.41
836.026	99.84
836.203	89.6
836.38	99.84
836.556	-4.61
836.733	9.73
836.909	103.93
837.086	3.58
837.262	36.35
837.439	79.36
837.616	73.21
837.792	67.07
837.968	77.31
838.145	77.31
838.321	34.3
838.498	79.36
838.674	110.08
838.851	71.17
839.027	50.69
839.203	73.21
839.38	161.28
839.556	5.63
839.732	62.98
839.909	132.61
840.085	99.84
840.261	91.65
840.437	11.78
840.614	73.21
840.79	77.31
840.966	69.12
841.142	-6.66
841.318	26.11
841.494	-2.56
841.671	-51.71
841.847	87.55
842.023	93.69
842.199	85.5
842.375	77.31
842.551	-4.61
842.727	77.31
842.903	116.22
843.079	34.3
843.255	167.42
843.431	58.88
843.607	69.12
843.783	26.11
843.959	52.74
844.134	19.97
844.31	116.22
844.486	50.69
844.662	67.07
844.838	5.63
845.013	120.32
845.189	142.85
845.365	-14.85
845.541	28.16
845.716	93.69
845.892	56.83
846.068	108.03
846.244	-6.66
846.419	62.98
846.595	58.88
846.77	17.92
846.946	79.36
847.122	58.88
847.297	-23.04
847.473	103.93
847.648	-55.81
847.824	36.35
847.999	34.3
848.175	62.98
848.35	71.17
848.526	71.17
848.701	54.78
848.876	36.35
849.052	99.84
849.227	79.36
849.403	5.63
849.578	67.07
849.753	-25.09
849.929	30.21
850.104	75.26
850.279	101.89
850.454	46.59
850.63	67.07
850.805	9.73
850.98	67.07
851.155	36.35
851.33	132.61
851.505	54.78
851.681	50.69
851.856	26.11
852.031	28.16
852.206	13.82
852.381	1.54
852.556	-23.04
852.731	-27.14
852.906	-78.33
853.081	11.78
853.256	42.5
853.431	42.5
853.606	26.11
853.781	116.22
853.956	91.65
854.131	101.89
854.305	9.73
854.48	83.45
854.655	-4.61
854.83	38.4
855.005	52.74
855.18	38.4
855.354	93.69
855.529	67.07
855.704	26.11
855.879	103.93
856.053	24.06
856.228	38.4
856.403	11.78
856.577	3.58
856.752	-10.75
856.926	-4.61
857.101	13.82
857.276	17.92
857.45	26.11
857.625	28.16
857.799	30.21
857.974	46.59
858.148	58.88
858.323	46.59
858.497	-23.04
858.672	-2.56
858.846	9.73
859.02	91.65
859.195	26.11
859.369	-10.75
859.543	24.06
859.718	28.16
859.892	3.58
860.066	38.4
860.241	-33.28
860.415	42.5
860.589	17.92
860.763	34.3
860.938	-29.18
861.112	19.97
861.286	67.07
861.46	42.5
861.634	17.92
861.808	148.99
861.982	34.3
862.157	60.93
862.331	44.54
862.505	34.3
862.679	-37.38
862.853	-18.94
863.027	5.63
863.201	101.89
863.375	-27.14
863.549	52.74
863.722	42.5
863.896	101.89
864.07	-49.66
864.244	120.32
864.418	46.59
864.592	13.82
864.766	28.16
864.939	17.92
865.113	69.12
865.287	56.83
865.461	54.78
865.634	3.58
865.808	26.11
865.982	26.11
866.156	75.26
866.329	-53.76
866.503	38.4
866.676	40.45
866.85	28.16
867.024	19.97
867.197	67.07
867.371	3.58
867.544	-12.8
867.718	54.78
867.891	26.11
868.065	58.88
868.238	-6.66
868.412	42.5
868.585	-35.33
868.759	5.63
868.932	36.35
869.105	54.78
869.279	48.64
869.452	-8.7
869.625	22.02
869.799	69.12
869.972	-6.66
870.145	60.93
870.319	34.3
870.492	17.92
870.665	83.45
870.838	-31.23
871.011	-6.66
871.185	17.92
871.358	28.16
871.531	-16.9
871.704	65.02
871.877	5.63
872.05	26.11
872.223	5.63
872.396	93.69
872.569	71.17
872.742	-41.47
872.915	44.54
873.088	-31.23
873.261	9.73
873.434	9.73
873.607	34.3
873.78	42.5
873.953	-6.66
874.126	42.5
874.299	19.97
874.471	-8.7
874.644	67.07
874.817	83.45
874.99	54.78
875.163	56.83
875.335	26.11
875.508	11.78
875.681	17.92
875.853	-47.62
876.026	52.74
876.199	110.08
876.371	42.5
876.544	38.4
876.717	9.73
876.889	9.73
877.062	13.82
877.234	5.63
877.407	-14.85
877.579	-33.28
877.752	28.16
877.924	30.21
878.097	42.5
878.269	28.16
878.442	3.58
878.614	3.58
878.786	28.16
878.959	54.78
879.131	17.92
879.303	-35.33
879.476	34.3
879.648	73.21
879.82	-18.94
879.993	-33.28
880.165	83.45
880.337	-4.61
880.509	56.83
880.681	28.16
880.854	7.68
881.026	9.73
881.198	38.4
881.37	58.88
881.542	34.3
881.714	-51.71
881.886	-43.52
882.058	3.58
882.23	11.78
882.402	-86.53
882.574	-10.75
882.746	46.59
882.918	134.65
883.09	48.64
883.262	32.26
883.434	19.97
883.606	17.92
883.778	97.79
883.95	136.7
884.122	-25.09
884.293	83.45
884.465	38.4
884.637	58.88
884.809	-31.23
884.98	-2.56
885.152	-8.7
885.324	60.93
885.496	95.74
885.667	-27.14
885.839	-51.71
886.011	85.5
886.182	81.41
886.354	17.92
886.525	-6.66
886.697	9.73
886.869	-6.66
887.04	-45.57
887.212	69.12
887.383	110.08
887.555	-27.14
887.726	-80.38
887.897	5.63
888.069	42.5
888.24	42.5
888.412	108.03
888.583	52.74
888.754	42.5
888.926	-41.47
889.097	-47.62
889.268	-14.85
889.44	19.97
889.611	-27.14
889.782	69.12
889.953	-29.18
890.125	101.89
890.296	-80.38
890.467	-2.56
890.638	67.07
890.809	-20.99
890.98	44.54
891.151	-12.8
891.323	60.93
891.494	30.21
891.665	3.58
891.836	-29.18
892.007	40.45
892.178	13.82
892.349	60.93
892.52	-66.05
892.691	-18.94
892.862	26.11
893.032	32.26
893.203	-20.99
893.374	-6.66
893.545	54.78
893.716	50.69
893.887	30.21
894.057	-66.05
894.228	11.78
894.399	-64
894.57	26.11
894.74	-18.94
894.911	77.31
895.082	-43.52
895.253	75.26
895.423	13.82
895.594	-4.61
895.764	36.35
895.935	-47.62
896.106	62.98
896.276	-2.56
896.447	19.97
896.617	50.69
896.788	3.58
896.958	22.02
897.129	36.35
897.299	-47.62
897.47	-10.75
897.64	50.69
897.81	5.63
897.981	30.21
898.151	-8.7
898.322	-0.51
898.492	-4.61
898.662	-23.04
898.832	-43.52
899.003	-37.38
899.173	67.07
899.343	58.88
899.513	-39.42
