Data from USB4F104151__88__14-17-51-983.txt Node

Date: Thu Mar 13 14:17:51 EDT 2025
User: louis
Spectrometer: USB4F10415
Trigger mode: 4
Integration Time (sec): 2.000000E-2
Scans to average: 1
Electric dark correction enabled: true
Nonlinearity correction enabled: false
Boxcar width: 0
XAxis mode: Wavelengths
Number of Pixels in Spectrum: 3648
>>>>>Begin Spectral Data<<<<<
178.204	-104.96
178.424	-104.96
178.644	-104.96
178.864	-178.69
179.084	-174.59
179.304	11.78
179.524	-6.66
179.744	22.02
179.964	69.12
180.184	-37.38
180.404	1.54
180.624	3.58
180.844	-6.66
181.064	-43.52
181.283	42.5
181.503	-74.24
181.723	17.92
181.943	-18.94
182.163	50.69
182.383	-4.61
182.602	28.16
182.822	-4.61
183.042	1.54
183.262	22.02
183.482	28.16
183.701	-6.66
183.921	-6.66
184.141	-18.94
184.361	5.63
184.58	40.45
184.8	3.58
185.02	3.58
185.239	105.98
185.459	-33.28
185.679	81.41
185.898	17.92
186.118	-14.85
186.338	40.45
186.557	40.45
186.777	34.3
186.997	17.92
187.216	34.3
187.436	17.92
187.655	13.82
187.875	46.59
188.095	40.45
188.314	36.35
188.534	36.35
188.753	67.07
188.973	-18.94
189.192	42.5
189.412	73.21
189.631	17.92
189.851	13.82
190.07	17.92
190.29	-6.66
190.509	34.3
190.729	-2.56
190.948	42.5
191.168	116.22
191.387	38.4
191.607	-23.04
191.826	-18.94
192.045	30.21
192.265	1.54
192.484	13.82
192.704	58.88
192.923	30.21
193.142	99.84
193.362	44.54
193.581	81.41
193.8	36.35
194.02	44.54
194.239	-2.56
194.458	108.03
194.678	-6.66
194.897	44.54
195.116	-14.85
195.335	67.07
195.555	42.5
195.774	-4.61
195.993	56.83
196.212	93.69
196.432	-55.81
196.651	-14.85
196.87	5.63
197.089	93.69
197.308	50.69
197.528	-12.8
197.747	-12.8
197.966	-4.61
198.185	-12.8
198.404	-25.09
198.623	9.73
198.842	28.16
199.062	52.74
199.281	42.5
199.5	26.11
199.719	75.26
199.938	128.51
200.157	44.54
200.376	26.11
200.595	22.02
200.814	50.69
201.033	58.88
201.252	58.88
201.471	30.21
201.69	95.74
201.909	54.78
202.128	110.08
202.347	69.12
202.566	5.63
202.785	-4.61
203.004	22.02
203.223	101.89
203.442	30.21
203.661	-12.8
203.879	34.3
204.098	22.02
204.317	-43.52
204.536	83.45
204.755	-2.56
204.974	34.3
205.193	142.85
205.411	1.54
205.63	19.97
205.849	83.45
206.068	-14.85
206.287	75.26
206.505	32.26
206.724	71.17
206.943	3.58
207.162	-23.04
207.381	-23.04
207.599	36.35
207.818	5.63
208.037	85.5
208.255	-10.75
208.474	36.35
208.693	-14.85
208.911	91.65
209.13	22.02
209.349	-6.66
209.567	42.5
209.786	81.41
210.005	-8.7
210.223	28.16
210.442	26.11
210.661	-47.62
210.879	38.4
211.098	54.78
211.316	28.16
211.535	62.98
211.753	17.92
211.972	58.88
212.191	42.5
212.409	87.55
212.628	-2.56
212.846	34.3
213.065	52.74
213.283	46.59
213.502	44.54
213.72	3.58
213.938	28.16
214.157	19.97
214.375	13.82
214.594	58.88
214.812	91.65
215.031	44.54
215.249	38.4
215.467	48.64
215.686	52.74
215.904	42.5
216.122	24.06
216.341	50.69
216.559	30.21
216.778	54.78
216.996	58.88
217.214	67.07
217.432	-8.7
217.651	62.98
217.869	-35.33
218.087	22.02
218.306	28.16
218.524	93.69
218.742	15.87
218.96	173.57
219.179	-37.38
219.397	-6.66
219.615	75.26
219.833	7.68
220.051	22.02
220.27	85.5
220.488	75.26
220.706	38.4
220.924	54.78
221.142	-4.61
221.36	22.02
221.578	77.31
221.796	56.83
222.015	-8.7
222.233	69.12
222.451	97.79
222.669	-27.14
222.887	112.13
223.105	85.5
223.323	9.73
223.541	9.73
223.759	48.64
223.977	9.73
224.195	157.18
224.413	83.45
224.631	58.88
224.849	99.84
225.067	93.69
225.285	-74.24
225.503	42.5
225.721	13.82
225.939	77.31
226.157	77.31
226.375	101.89
226.592	-14.85
226.81	28.16
227.028	46.59
227.246	87.55
227.464	34.3
227.682	69.12
227.9	110.08
228.117	79.36
228.335	34.3
228.553	65.02
228.771	87.55
228.989	50.69
229.206	38.4
229.424	67.07
229.642	-20.99
229.86	42.5
230.077	116.22
230.295	11.78
230.513	75.26
230.731	67.07
230.948	44.54
231.166	5.63
231.384	48.64
231.601	1.54
231.819	50.69
232.037	30.21
232.254	-2.56
232.472	-23.04
232.689	24.06
232.907	42.5
233.125	46.59
233.342	9.73
233.56	13.82
233.777	17.92
233.995	71.17
234.213	19.97
234.43	67.07
234.648	69.12
234.865	30.21
235.083	-16.9
235.3	30.21
235.518	9.73
235.735	34.3
235.953	58.88
236.17	40.45
236.388	52.74
236.605	24.06
236.822	42.5
237.04	108.03
237.257	-18.94
237.475	19.97
237.692	26.11
237.909	-20.99
238.127	9.73
238.344	69.12
238.562	50.69
238.779	81.41
238.996	11.78
239.214	99.84
239.431	42.5
239.648	-39.42
239.865	77.31
240.083	7.68
240.3	15.87
240.517	17.92
240.735	40.45
240.952	87.55
241.169	34.3
241.386	62.98
241.603	-27.14
241.821	17.92
242.038	44.54
242.255	44.54
242.472	-29.18
242.689	42.5
242.907	83.45
243.124	32.26
243.341	1.54
243.558	3.58
243.775	22.02
243.992	30.21
244.209	56.83
244.426	60.93
244.643	87.55
244.86	38.4
245.078	-47.62
245.295	19.97
245.512	48.64
245.729	-14.85
245.946	91.65
246.163	24.06
246.38	46.59
246.597	56.83
246.814	11.78
247.031	28.16
247.248	42.5
247.464	118.27
247.681	91.65
247.898	38.4
248.115	5.63
248.332	-25.09
248.549	-12.8
248.766	132.61
248.983	42.5
249.2	24.06
249.417	22.02
249.633	-31.23
249.85	60.93
250.067	5.63
250.284	83.45
250.501	42.5
250.717	26.11
250.934	85.5
251.151	26.11
251.368	126.46
251.585	75.26
251.801	28.16
252.018	38.4
252.235	69.12
252.451	83.45
252.668	-23.04
252.885	132.61
253.102	54.78
253.318	75.26
253.535	-61.95
253.752	19.97
253.968	-6.66
254.185	-47.62
254.401	85.5
254.618	79.36
254.835	3.58
255.051	19.97
255.268	7.68
255.484	-12.8
255.701	50.69
255.917	144.89
256.134	-53.76
256.351	22.02
256.567	34.3
256.784	58.88
257	-2.56
257.217	75.26
257.433	81.41
257.65	-14.85
257.866	11.78
258.082	-78.33
258.299	81.41
258.515	58.88
258.732	50.69
258.948	1.54
259.165	5.63
259.381	17.92
259.597	7.68
259.814	44.54
260.03	13.82
260.246	157.18
260.463	38.4
260.679	91.65
260.895	28.16
261.112	-29.18
261.328	114.17
261.544	42.5
261.761	124.41
261.977	50.69
262.193	77.31
262.409	50.69
262.626	58.88
262.842	71.17
263.058	-10.75
263.274	67.07
263.49	56.83
263.707	99.84
263.923	9.73
264.139	-18.94
264.355	91.65
264.571	28.16
264.787	13.82
265.004	11.78
265.22	-53.76
265.436	54.78
265.652	46.59
265.868	60.93
266.084	62.98
266.3	52.74
266.516	62.98
266.732	79.36
266.948	15.87
267.164	60.93
267.38	42.5
267.596	-20.99
267.812	54.78
268.028	38.4
268.244	9.73
268.46	91.65
268.676	17.92
268.892	60.93
269.108	32.26
269.324	60.93
269.54	79.36
269.756	38.4
269.972	13.82
270.188	-2.56
270.403	3.58
270.619	77.31
270.835	60.93
271.051	32.26
271.267	26.11
271.483	26.11
271.698	50.69
271.914	101.89
272.13	-23.04
272.346	26.11
272.562	9.73
272.777	28.16
272.993	-4.61
273.209	-2.56
273.425	13.82
273.64	75.26
273.856	48.64
274.072	34.3
274.287	-27.14
274.503	36.35
274.719	89.6
274.934	67.07
275.15	26.11
275.366	42.5
275.581	11.78
275.797	-4.61
276.012	15.87
276.228	-23.04
276.444	48.64
276.659	-10.75
276.875	36.35
277.09	26.11
277.306	62.98
277.521	60.93
277.737	54.78
277.952	-12.8
278.168	54.78
278.383	50.69
278.599	-4.61
278.814	36.35
279.03	62.98
279.245	22.02
279.461	34.3
279.676	65.02
279.892	83.45
280.107	-6.66
280.322	-4.61
280.538	11.78
280.753	5.63
280.969	138.75
281.184	85.5
281.399	46.59
281.615	34.3
281.83	26.11
282.045	24.06
282.26	9.73
282.476	71.17
282.691	67.07
282.906	11.78
283.122	58.88
283.337	5.63
283.552	28.16
283.767	42.5
283.983	75.26
284.198	69.12
284.413	-2.56
284.628	-23.04
284.843	58.88
285.058	91.65
285.274	22.02
285.489	52.74
285.704	44.54
285.919	65.02
286.134	19.97
286.349	50.69
286.564	-10.75
286.779	52.74
286.995	58.88
287.21	17.92
287.425	101.89
287.64	11.78
287.855	34.3
288.07	-12.8
288.285	48.64
288.5	62.98
288.715	48.64
288.93	28.16
289.145	-4.61
289.36	7.68
289.575	17.92
289.79	87.55
290.004	-8.7
290.219	-23.04
290.434	71.17
290.649	-35.33
290.864	13.82
291.079	-47.62
291.294	36.35
291.509	11.78
291.724	-6.66
291.938	17.92
292.153	118.27
292.368	38.4
292.583	99.84
292.798	15.87
293.012	36.35
293.227	108.03
293.442	62.98
293.657	85.5
293.871	103.93
294.086	22.02
294.301	95.74
294.516	-20.99
294.73	-10.75
294.945	50.69
295.16	42.5
295.374	71.17
295.589	36.35
295.804	44.54
296.018	97.79
296.233	50.69
296.447	67.07
296.662	9.73
296.877	58.88
297.091	-16.9
297.306	-18.94
297.52	-2.56
297.735	34.3
297.949	17.92
298.164	32.26
298.378	44.54
298.593	-6.66
298.807	5.63
299.022	7.68
299.236	108.03
299.451	46.59
299.665	22.02
299.88	-14.85
300.094	36.35
300.309	54.78
300.523	46.59
300.737	65.02
300.952	91.65
301.166	24.06
301.381	62.98
301.595	-20.99
301.809	95.74
302.024	26.11
302.238	-18.94
302.452	34.3
302.667	-4.61
302.881	132.61
303.095	62.98
303.309	67.07
303.524	34.3
303.738	58.88
303.952	-4.61
304.166	38.4
304.381	44.54
304.595	103.93
304.809	42.5
305.023	22.02
305.237	-10.75
305.452	3.58
305.666	89.6
305.88	58.88
306.094	-47.62
306.308	34.3
306.522	11.78
306.736	75.26
306.95	87.55
307.164	58.88
307.379	17.92
307.593	116.22
307.807	79.36
308.021	-18.94
308.235	73.21
308.449	-47.62
308.663	103.93
308.877	75.26
309.091	69.12
309.305	65.02
309.519	19.97
309.733	44.54
309.947	36.35
310.161	42.5
310.374	144.89
310.588	95.74
310.802	5.63
311.016	60.93
311.23	65.02
311.444	9.73
311.658	-55.81
311.872	17.92
312.085	46.59
312.299	13.82
312.513	91.65
312.727	52.74
312.941	28.16
313.154	108.03
313.368	58.88
313.582	28.16
313.796	46.59
314.009	62.98
314.223	50.69
314.437	17.92
314.651	83.45
314.864	95.74
315.078	71.17
315.292	26.11
315.505	34.3
315.719	56.83
315.933	34.3
316.146	-29.18
316.36	19.97
316.573	108.03
316.787	3.58
317.001	95.74
317.214	-23.04
317.428	83.45
317.641	-20.99
317.855	87.55
318.068	34.3
318.282	19.97
318.495	99.84
318.709	105.98
318.922	9.73
319.136	69.12
319.349	46.59
319.563	-45.57
319.776	95.74
319.99	-23.04
320.203	42.5
320.417	-59.9
320.63	44.54
320.843	91.65
321.057	67.07
321.27	17.92
321.483	77.31
321.697	81.41
321.91	48.64
322.124	118.27
322.337	5.63
322.55	-31.23
322.763	26.11
322.977	50.69
323.19	9.73
323.403	46.59
323.617	116.22
323.83	52.74
324.043	1.54
324.256	34.3
324.469	-20.99
324.683	110.08
324.896	30.21
325.109	89.6
325.322	5.63
325.535	126.46
325.748	73.21
325.962	-55.81
326.175	81.41
326.388	60.93
326.601	148.99
326.814	9.73
327.027	54.78
327.24	34.3
327.453	-47.62
327.666	36.35
327.879	67.07
328.092	124.41
328.305	46.59
328.518	112.13
328.731	9.73
328.944	108.03
329.157	58.88
329.37	46.59
329.583	50.69
329.796	132.61
330.009	30.21
330.222	19.97
330.435	-10.75
330.648	54.78
330.861	103.93
331.073	28.16
331.286	52.74
331.499	50.69
331.712	52.74
331.925	28.16
332.138	40.45
332.35	103.93
332.563	54.78
332.776	32.26
332.989	75.26
333.202	19.97
333.414	26.11
333.627	93.69
333.84	103.93
334.053	38.4
334.265	-4.61
334.478	-6.66
334.691	46.59
334.903	89.6
335.116	-20.99
335.329	42.5
335.541	22.02
335.754	91.65
335.966	17.92
336.179	-23.04
336.392	28.16
336.604	-2.56
336.817	108.03
337.029	62.98
337.242	52.74
337.454	19.97
337.667	19.97
337.88	71.17
338.092	46.59
338.305	28.16
338.517	5.63
338.729	38.4
338.942	56.83
339.154	38.4
339.367	38.4
339.579	81.41
339.792	-23.04
340.004	50.69
340.217	103.93
340.429	75.26
340.641	42.5
340.854	40.45
341.066	36.35
341.278	48.64
341.491	112.13
341.703	28.16
341.915	28.16
342.128	71.17
342.34	42.5
342.552	26.11
342.764	69.12
342.977	75.26
343.189	46.59
343.401	58.88
343.613	-27.14
343.826	19.97
344.038	44.54
344.25	17.92
344.462	79.36
344.674	1.54
344.886	11.78
345.099	122.37
345.311	19.97
345.523	42.5
345.735	40.45
345.947	34.3
346.159	112.13
346.371	44.54
346.583	-16.9
346.795	-37.38
347.007	34.3
347.219	67.07
347.431	-4.61
347.643	9.73
347.855	34.3
348.067	44.54
348.279	48.64
348.491	34.3
348.703	5.63
348.915	-4.61
349.127	15.87
349.339	46.59
349.551	67.07
349.763	26.11
349.975	15.87
350.187	81.41
350.399	50.69
350.61	85.5
350.822	52.74
351.034	93.69
351.246	32.26
351.458	-18.94
351.669	132.61
351.881	112.13
352.093	58.88
352.305	7.68
352.517	38.4
352.728	142.85
352.94	136.7
353.152	-0.51
353.363	-14.85
353.575	50.69
353.787	144.89
353.999	75.26
354.21	167.42
354.422	91.65
354.633	108.03
354.845	36.35
355.057	73.21
355.268	108.03
355.48	101.89
355.692	62.98
355.903	-39.42
356.115	40.45
356.326	22.02
356.538	75.26
356.749	58.88
356.961	28.16
357.172	42.5
357.384	-14.85
357.595	103.93
357.807	46.59
358.018	38.4
358.23	91.65
358.441	83.45
358.653	48.64
358.864	-14.85
359.075	81.41
359.287	17.92
359.498	48.64
359.709	83.45
359.921	58.88
360.132	17.92
360.344	48.64
360.555	50.69
360.766	3.58
360.977	11.78
361.189	75.26
361.4	-6.66
361.611	62.98
361.823	69.12
362.034	99.84
362.245	26.11
362.456	-25.09
362.667	93.69
362.879	75.26
363.09	67.07
363.301	-16.9
363.512	93.69
363.723	1.54
363.935	9.73
364.146	95.74
364.357	95.74
364.568	97.79
364.779	19.97
364.99	50.69
365.201	62.98
365.412	69.12
365.623	62.98
365.834	60.93
366.045	52.74
366.256	69.12
366.467	44.54
366.678	24.06
366.889	9.73
367.1	69.12
367.311	28.16
367.522	28.16
367.733	87.55
367.944	17.92
368.155	-6.66
368.366	95.74
368.577	42.5
368.788	42.5
368.999	5.63
369.209	26.11
369.42	132.61
369.631	114.17
369.842	-29.18
370.053	58.88
370.264	50.69
370.474	34.3
370.685	19.97
370.896	67.07
371.107	144.89
371.317	30.21
371.528	101.89
371.739	62.98
371.95	103.93
372.16	99.84
372.371	67.07
372.582	44.54
372.792	95.74
373.003	58.88
373.214	30.21
373.424	60.93
373.635	-23.04
373.846	134.65
374.056	58.88
374.267	79.36
374.477	58.88
374.688	-12.8
374.898	-6.66
375.109	52.74
375.319	5.63
375.53	71.17
375.74	103.93
375.951	40.45
376.161	38.4
376.372	44.54
376.582	32.26
376.793	-20.99
377.003	13.82
377.214	-23.04
377.424	22.02
377.635	157.18
377.845	1.54
378.055	67.07
378.266	-20.99
378.476	19.97
378.686	40.45
378.897	19.97
379.107	30.21
379.317	44.54
379.528	-8.7
379.738	140.8
379.948	19.97
380.158	93.69
380.369	73.21
380.579	38.4
380.789	28.16
380.999	50.69
381.21	75.26
381.42	101.89
381.63	34.3
381.84	87.55
382.05	50.69
382.261	67.07
382.471	89.6
382.681	3.58
382.891	103.93
383.101	28.16
383.311	60.93
383.521	87.55
383.731	83.45
383.941	75.26
384.151	101.89
384.361	11.78
384.571	85.5
384.781	19.97
384.991	144.89
385.201	120.32
385.411	28.16
385.621	71.17
385.831	91.65
386.041	116.22
386.251	40.45
386.461	58.88
386.671	44.54
386.881	83.45
387.091	116.22
387.301	130.56
387.511	95.74
387.72	83.45
387.93	79.36
388.14	38.4
388.35	83.45
388.56	91.65
388.769	67.07
388.979	26.11
389.189	60.93
389.399	67.07
389.609	87.55
389.818	116.22
390.028	40.45
390.238	159.23
390.447	38.4
390.657	48.64
390.867	85.5
391.076	116.22
391.286	50.69
391.496	32.26
391.705	62.98
391.915	101.89
392.125	118.27
392.334	83.45
392.544	62.98
392.753	101.89
392.963	11.78
393.172	67.07
393.382	-4.61
393.591	38.4
393.801	75.26
394.01	99.84
394.22	148.99
394.429	99.84
394.639	65.02
394.848	44.54
395.058	112.13
395.267	87.55
395.477	126.46
395.686	157.18
395.895	110.08
396.105	206.33
396.314	136.7
396.524	116.22
396.733	132.61
396.942	81.41
397.152	95.74
397.361	155.13
397.57	85.5
397.78	108.03
397.989	151.04
398.198	157.18
398.407	36.35
398.617	116.22
398.826	140.8
399.035	91.65
399.244	110.08
399.453	103.93
399.663	69.12
399.872	151.04
400.081	83.45
400.29	62.98
400.499	83.45
400.708	187.9
400.917	144.89
401.127	62.98
401.336	75.26
401.545	144.89
401.754	42.5
401.963	136.7
402.172	108.03
402.381	169.47
402.59	99.84
402.799	124.41
403.008	120.32
403.217	148.99
403.426	228.86
403.635	173.57
403.844	144.89
404.053	230.91
404.262	120.32
404.471	173.57
404.68	89.6
404.888	132.61
405.097	105.98
405.306	159.23
405.515	124.41
405.724	171.52
405.933	204.28
406.142	192
406.35	177.66
406.559	196.09
406.768	200.19
406.977	263.68
407.185	163.33
407.394	271.87
407.603	159.23
407.812	202.24
408.02	198.14
408.229	169.47
408.438	183.81
408.646	103.93
408.855	220.67
409.064	255.48
409.272	202.24
409.481	306.68
409.69	206.33
409.898	235
410.107	298.49
410.315	298.49
410.524	259.58
410.733	306.68
410.941	249.34
411.15	280.06
411.358	339.45
411.567	314.88
411.775	409.08
411.984	314.88
412.192	472.57
412.401	335.35
412.609	468.47
412.818	411.13
413.026	452.09
413.234	439.8
413.443	415.23
413.651	366.07
413.86	503.29
414.068	536.06
414.276	536.06
414.485	525.82
414.693	591.35
414.901	624.12
415.11	589.3
415.318	732.66
415.526	644.6
415.734	663.03
415.943	660.98
416.151	740.85
416.359	708.09
416.567	669.17
416.776	790
416.984	845.3
417.192	849.4
417.4	775.67
417.608	706.04
417.817	775.67
418.025	894.45
418.233	980.47
418.441	923.12
418.649	990.7
418.857	1076.72
419.065	1082.86
419.273	988.66
419.481	1121.77
419.689	1181.17
419.897	1279.47
420.105	1265.13
420.313	1250.8
420.521	1265.13
420.729	1394.15
420.937	1385.96
421.145	1398.25
421.353	1484.27
421.561	1689.06
421.769	1680.87
421.977	1736.17
422.185	1721.83
422.393	1844.71
422.601	1957.35
422.809	2026.98
423.017	1885.67
423.224	1861.09
423.432	1996.26
423.64	1955.3
423.848	2422.24
424.056	2090.46
424.263	2328.03
424.471	2321.88
424.679	2334.17
424.887	2438.62
425.094	2622.94
425.302	2639.32
425.51	2745.81
425.718	2758.1
425.925	2790.87
426.133	2821.59
426.341	3083.73
426.548	3190.22
426.756	3163.6
426.964	3155.41
427.171	3450.32
427.379	3347.92
427.586	3767.75
427.794	3714.5
428.001	3818.95
428.209	3990.98
428.417	3868.1
428.624	4326.85
428.832	4279.74
429.039	4310.46
429.247	4206.02
429.454	4666.81
429.662	4914.61
429.869	4621.75
430.076	4920.76
430.284	4881.85
430.491	4951.48
430.699	5305.78
430.906	5270.96
431.114	5268.91
431.321	5457.32
431.528	5563.82
431.736	5825.96
431.943	6335.9
432.15	6227.36
432.358	6047.14
432.565	6501.79
432.772	6481.31
432.979	6725.02
433.187	7136.66
433.394	7067.03
433.601	7384.46
433.808	7445.9
434.016	7431.57
434.223	7644.56
434.43	8295.81
434.637	7925.13
434.844	8701.31
435.052	8480.13
435.259	8576.38
435.466	8756.6
435.673	8572.29
435.88	9063.8
436.087	9602.41
436.294	9647.47
436.501	9457.01
436.708	9555.31
436.915	10028.39
437.122	10605.92
437.329	10454.37
437.537	10665.31
437.743	10892.63
437.95	10943.83
438.157	11345.23
438.364	11582.8
438.571	11822.41
438.778	11857.23
438.985	12676.41
439.192	12160.33
439.399	12596.54
439.606	12492.1
439.813	13092.15
440.02	13901.1
440.227	13772.08
440.433	13454.64
440.64	13800.75
440.847	13849.9
441.054	14218.54
441.261	15426.84
441.467	15025.43
441.674	15281.43
441.881	15801.61
442.088	15936.78
442.294	15598.87
442.501	15981.84
442.708	16426.25
442.914	17235.19
443.121	17632.5
443.328	17237.24
443.534	18509.03
443.741	17876.21
443.948	17730.8
444.154	18986.21
444.361	19053.79
444.568	18853.09
444.774	18906.34
444.981	19137.76
445.187	19576.02
445.394	20655.3
445.6	20413.64
445.807	22508.71
446.013	21445.82
446.22	21697.72
446.426	22680.74
446.633	22678.69
446.839	23788.69
447.046	22596.78
447.252	23829.65
447.459	23964.82
447.665	23567.51
447.871	24847.49
448.078	26059.89
448.284	24695.94
448.491	25470.08
448.697	26246.26
448.903	27090.02
449.11	26578.03
449.316	26608.75
449.522	26815.59
449.728	27708.51
449.935	27767.9
450.141	28040.28
450.347	28361.81
450.553	27743.32
450.76	28216.4
450.966	28734.54
451.172	28636.24
451.378	29432.89
451.584	28703.82
451.791	29383.74
451.997	29701.18
452.203	29760.57
452.409	29772.86
452.615	29862.97
452.821	28556.36
453.027	28380.24
453.233	29965.37
453.44	28290.13
453.646	28724.3
453.852	29199.43
454.058	29889.59
454.264	28630.09
454.47	29686.84
454.676	28681.29
454.882	29555.77
455.088	27247.71
455.294	27477.08
455.5	27927.64
455.705	28157.01
455.911	27341.92
456.117	26459.24
456.323	26395.76
456.529	24657.03
456.735	25949.3
456.941	25056.39
457.147	25144.45
457.352	24147.09
457.558	23772.31
457.764	24251.53
457.97	23532.7
458.176	23071.9
458.381	22914.21
458.587	21810.36
458.793	21978.29
458.999	20907.2
459.204	22473.9
459.41	21681.33
459.616	20020.43
459.821	20374.73
460.027	20315.34
460.233	19950.8
460.438	18740.45
460.644	19107.04
460.85	18199.79
461.055	17990.89
461.261	17980.65
461.466	16751.87
461.672	16059.66
461.878	17302.78
462.083	16057.61
462.289	15897.87
462.494	15484.18
462.7	15045.91
462.905	14548.26
463.111	14812.45
463.316	15050.01
463.522	14685.47
463.727	14898.46
463.932	14834.97
464.138	14513.44
464.343	14611.75
464.549	14361.89
464.754	14589.22
464.959	14656.8
465.165	14550.31
465.37	13806.89
465.575	13669.68
465.781	14374.18
465.986	13958.44
466.191	13530.42
466.397	13309.24
466.602	12883.26
466.807	13192.5
467.012	13262.13
467.218	13327.67
467.423	12975.42
467.628	13206.84
467.833	13448.5
468.038	13262.13
468.244	12649.79
468.449	13190.45
468.654	12772.67
468.859	12711.23
469.064	12625.22
469.269	12189
469.474	12361.03
469.679	12641.6
469.885	12057.93
470.09	12141.89
470.295	12477.76
470.5	11726.16
470.705	12076.36
470.91	11660.62
471.115	11752.78
471.32	11918.67
471.525	11933
471.73	11461.97
471.935	11537.74
472.139	10952.02
472.344	11498.83
472.549	11154.77
472.754	11218.26
472.959	10726.75
473.164	10464.61
473.369	10423.65
473.574	10886.49
473.778	10526.05
473.983	10622.3
474.188	10667.36
474.393	10255.72
474.598	10206.56
474.802	10085.73
475.007	10005.86
475.212	10042.73
475.417	9655.66
475.621	9850.22
475.826	9704.81
476.031	9358.71
476.235	9344.37
476.44	9291.12
476.645	9168.24
476.849	9375.09
477.054	9178.48
477.259	8924.54
477.463	9069.94
477.668	8883.58
477.872	9069.94
478.077	8840.57
478.282	8471.93
478.486	8750.46
478.691	8519.04
478.895	8320.39
479.1	8437.12
479.304	8654.2
479.509	8353.15
479.713	8226.18
479.918	8086.92
480.122	7990.66
480.326	8062.34
480.531	8308.1
480.735	8179.08
480.94	8031.62
481.144	8252.8
481.348	7857.54
481.553	7974.28
481.757	7771.53
481.961	7857.54
482.166	7976.33
482.37	7701.9
482.574	7830.92
482.778	7769.48
482.983	7873.93
483.187	7759.24
483.391	7908.74
483.595	7843.21
483.8	7728.52
484.004	7816.58
484.208	7857.54
484.412	7816.58
484.616	8007.05
484.821	8033.67
485.025	7802.25
485.229	7697.8
485.433	7792.01
485.637	7835.02
485.841	7667.08
486.045	7796.11
486.249	7802.25
486.453	7937.41
486.657	7972.23
486.861	7933.32
487.065	7642.51
487.269	7814.54
487.473	7673.23
487.677	7976.33
487.881	7955.85
488.085	7841.16
488.289	7882.12
488.493	7841.16
488.697	7857.54
488.901	7800.2
489.105	7929.22
489.309	7980.42
489.512	8142.21
489.716	7935.37
489.92	7949.7
490.124	7974.28
490.328	7988.61
490.531	8050.05
490.735	8078.72
490.939	8209.79
491.143	8029.57
491.346	7980.42
491.55	8193.41
491.754	8209.79
491.958	8312.19
492.161	8050.05
492.365	8385.92
492.569	8277.38
492.772	8215.94
492.976	8535.42
493.18	8516.99
493.383	8451.46
493.587	8443.26
493.79	8570.24
493.994	8678.78
494.197	8641.92
494.401	8715.64
494.605	8789.37
494.808	8803.71
495.012	8820.09
495.215	8914.3
495.419	9080.18
495.622	8990.07
495.825	9262.45
496.029	9084.28
496.232	9315.7
496.436	9438.58
496.639	9454.96
496.843	9442.67
497.046	9819.5
497.249	9876.84
497.453	9717.1
497.656	9925.99
497.859	9995.62
498.063	10173.8
498.266	10257.76
498.469	10175.84
498.673	10306.91
498.876	10405.22
499.079	10513.76
499.282	10603.87
499.485	11009.37
499.689	10995.03
499.892	10943.83
500.095	11029.85
500.298	11177.3
500.501	11242.84
500.705	11404.63
500.908	11560.27
501.111	11908.43
501.314	11881.8
501.517	12174.66
501.72	12137.8
501.923	12182.85
502.126	12412.23
502.329	12621.12
502.532	12582.21
502.735	12520.77
502.938	12862.78
503.141	13120.82
503.344	13432.12
503.547	13274.42
503.75	13503.79
503.953	13780.27
504.156	13436.21
504.359	13948.2
504.562	14142.76
504.765	14624.03
504.968	14337.32
505.17	14421.28
505.373	14427.43
505.576	14986.52
505.779	14961.95
505.982	14939.42
506.185	15269.14
506.387	15138.07
506.59	15574.29
506.793	15985.93
506.996	15875.34
507.198	16205.06
507.401	16157.96
507.604	16518.4
507.807	16686.34
508.009	16719.1
508.212	17157.37
508.415	17337.59
508.617	17394.93
508.82	17603.83
509.022	17341.69
509.225	18078.96
509.428	18154.73
509.63	18214.12
509.833	18019.57
510.035	18685.15
510.238	18627.81
510.44	19078.36
510.643	18902.24
510.845	19434.71
511.048	19148
511.25	19856.59
511.453	19539.16
511.655	20432.07
511.858	20440.26
512.06	20393.16
512.262	20628.68
512.465	20677.83
512.667	21212.35
512.87	21017.79
513.072	21165.25
513.274	21699.76
513.477	21714.1
513.679	22023.34
513.881	22068.4
514.084	22381.74
514.286	22338.73
514.488	22723.75
514.69	23628.95
514.893	23368.86
515.095	23518.36
515.297	23526.55
515.499	23846.04
515.701	23983.25
515.904	24327.31
516.106	24413.32
516.308	24505.48
516.51	25078.91
516.712	24829.06
516.914	25166.98
517.116	25740.41
517.318	25500.79
517.52	25820.28
517.722	26035.31
517.925	26401.9
518.127	26670.19
518.329	26762.34
518.531	26616.94
518.733	27323.49
518.935	27303.01
519.136	27497.56
519.338	27911.25
519.54	27862.1
519.742	28367.95
519.944	28238.93
520.146	28626
520.348	29115.46
520.55	29185.09
520.752	28953.67
520.954	29893.69
521.155	29574.2
521.357	30262.32
521.559	30319.67
521.761	30669.87
521.963	30606.38
522.164	30557.23
522.366	30964.78
522.568	31335.46
522.77	31128.61
522.971	31886.36
523.173	31343.65
523.375	32072.73
523.576	32072.73
523.778	32003.1
523.98	32635.92
524.181	32629.77
524.383	32332.82
524.584	32775.18
524.786	32877.58
524.988	33195.01
525.189	33469.44
525.391	33784.83
525.592	33569.79
525.794	33969.15
525.995	33985.53
526.197	34094.07
526.398	33838.08
526.6	34464.75
526.801	34685.93
527.003	34550.77
527.204	34696.17
527.406	34970.6
527.607	34790.38
527.808	35036.14
528.01	34647.02
528.211	34778.09
528.412	35873.76
528.614	35517.41
528.815	35232.74
529.016	35847.13
529.218	35253.22
529.419	35935.2
529.62	35806.17
529.822	35656.67
530.023	36092.89
530.224	35787.74
530.425	35914.72
530.626	35871.71
530.828	35664.86
531.029	36709.33
531.23	36469.72
531.431	36226.01
531.632	36101.08
531.833	36449.24
532.035	36445.14
532.236	36455.38
532.437	36715.47
532.638	36113.37
532.839	36385.75
533.04	36533.2
533.241	36121.56
533.442	37192.65
533.643	37028.81
533.844	36621.27
534.045	36703.18
534.246	36447.19
534.447	36862.93
534.648	36512.72
534.849	36934.6
535.05	36871.12
535.251	36869.07
535.451	36826.06
535.652	37178.31
535.853	36598.74
536.054	36994
536.255	36840.4
536.456	36555.73
536.657	37166.02
536.857	36504.53
537.058	36860.88
537.259	36969.42
537.46	36871.12
537.66	36840.4
537.861	36942.8
538.062	36289.49
538.263	36838.35
538.463	36271.06
538.664	36787.15
538.865	36875.21
539.065	36729.81
539.266	36565.97
539.466	37108.68
539.667	36244.44
539.868	37219.27
540.068	36821.97
540.269	36916.17
540.469	37514.18
540.67	36426.71
540.87	36590.55
541.071	36852.69
541.271	37086.15
541.472	36821.97
541.672	36463.57
541.873	36778.96
542.073	36350.93
542.274	36967.37
542.474	36668.37
542.675	36527.06
542.875	36879.31
543.075	36713.42
543.276	36240.34
543.476	36926.41
543.676	36766.67
543.877	36776.91
544.077	36561.87
544.277	36684.75
544.478	36756.43
544.678	37067.72
544.878	36541.39
545.078	36449.24
545.279	36522.96
545.479	36522.96
545.679	36631.51
545.879	36834.25
546.079	36860.88
546.28	36522.96
546.48	36324.31
546.68	36713.42
546.88	36535.25
547.08	36660.18
547.28	36873.17
547.48	35847.13
547.68	36821.97
547.88	36369.37
548.081	36748.24
548.281	36377.56
548.481	36332.5
548.681	36572.11
548.881	36625.36
549.081	36578.26
549.28	36252.63
549.48	36455.38
549.68	36271.06
549.88	36572.11
550.08	36217.82
550.28	36502.48
550.48	36189.14
550.68	36742.1
550.88	36316.12
551.08	36303.83
551.279	36477.91
551.479	36115.42
551.679	36119.51
551.879	36252.63
552.079	36541.39
552.278	36158.42
552.478	36340.69
552.678	36740.05
552.878	36555.73
553.077	36148.18
553.277	36226.01
553.477	36525.01
553.676	36297.69
553.876	36430.8
554.076	36418.52
554.275	36402.13
554.475	36213.72
554.674	36586.45
554.874	36348.89
555.074	35916.76
555.273	36271.06
555.473	36338.65
555.672	35810.27
555.872	36137.94
556.071	36205.53
556.271	36189.14
556.47	35916.76
556.67	35834.85
556.869	36000.73
557.068	36160.47
557.268	35533.79
557.467	35908.57
557.667	35828.7
557.866	35820.51
558.065	36031.45
558.265	35576.8
558.464	35609.57
558.663	36076.51
558.863	35525.6
559.062	35978.2
559.261	35384.29
559.461	36215.77
559.66	35128.3
559.859	35871.71
560.058	35177.45
560.258	35613.66
560.457	35226.6
560.656	35699.68
560.855	35388.39
561.054	35380.2
561.253	35107.82
561.453	35234.79
561.652	35390.44
561.851	35333.09
562.05	35300.33
562.249	34888.68
562.448	35292.13
562.647	35191.78
562.846	35070.95
563.045	35202.02
563.244	34704.37
563.443	35251.17
563.642	34470.9
563.841	34943.98
564.04	34659.31
564.239	35103.72
564.438	34595.82
564.637	34892.78
564.836	34370.55
565.035	34472.95
565.234	34823.15
565.432	34376.69
565.631	34366.45
565.83	34612.21
566.029	34423.79
566.228	34132.98
566.427	34130.94
566.625	34040.82
566.824	33747.97
567.023	34139.13
567.222	33387.52
567.42	34253.81
567.619	33997.82
567.818	33598.46
568.016	33811.45
568.215	33797.12
568.414	33690.62
568.612	33926.14
568.811	33346.56
569.01	33491.97
569.208	33117.19
569.407	33401.86
569.605	32779.28
569.804	33420.29
570.002	32797.71
570.201	33207.3
570.4	32865.29
570.598	32967.69
570.797	32732.17
570.995	33006.6
571.193	32590.86
571.392	32582.67
571.59	32304.15
571.789	32474.13
571.987	32207.89
572.186	32508.94
572.384	32261.14
572.582	32431.12
572.781	32232.47
572.979	31927.32
573.177	32128.02
573.376	32191.51
573.574	31945.75
573.772	31716.38
573.971	31902.75
574.169	31456.29
574.367	31609.89
574.565	31652.89
574.763	31740.96
574.962	31472.67
575.16	31357.99
575.358	31456.29
575.556	31257.64
575.754	31519.78
575.952	31050.79
576.151	31261.73
576.349	31046.69
576.547	30884.9
576.745	31208.48
576.943	31026.21
577.141	30508.08
577.339	30807.08
577.537	30428.21
577.735	30647.34
577.933	30460.98
578.131	30655.53
578.329	30366.77
578.527	30331.95
578.725	30133.3
578.923	30379.06
579.121	30518.32
579.319	30086.2
579.516	29854.78
579.714	30039.09
579.912	29574.2
580.11	29699.13
580.308	29854.78
580.506	29824.06
580.704	29148.23
580.901	29520.96
581.099	29557.82
581.297	29226.05
581.495	29475.9
581.692	29230.15
581.89	29117.51
582.088	29295.68
582.285	28886.09
582.483	29043.78
582.681	28988.49
582.878	28855.37
583.076	28836.94
583.274	28879.94
583.471	28472.4
583.669	28578.89
583.866	28324.94
584.064	28683.34
584.262	28443.73
584.459	28417.1
584.657	28130.39
584.854	28392.53
585.052	27585.63
585.249	28122.19
585.447	28185.68
585.644	27870.29
585.841	28091.48
586.039	27882.58
586.236	27739.22
586.434	27233.38
586.631	27661.4
586.828	27395.17
587.026	27782.23
587.223	27460.7
587.42	26958.95
587.618	27446.37
587.815	27104.35
588.012	27118.69
588.21	26928.23
588.407	27307.1
588.604	26870.89
588.801	26868.84
588.999	26737.77
589.196	26561.64
589.393	26637.42
589.59	26561.64
589.787	26115.19
589.984	26178.67
590.182	26242.16
590.379	26653.8
590.576	26066.03
590.773	26188.91
590.97	25965.68
591.167	25922.68
591.364	25685.11
591.561	25908.34
591.758	25515.13
591.955	25678.97
592.152	25848.95
592.349	25351.29
592.546	25504.89
592.743	25678.97
592.94	25123.97
593.137	25502.84
593.334	25228.42
593.531	25078.91
593.727	25148.54
593.924	24941.7
594.121	24867.97
594.318	25113.73
594.515	24511.63
594.712	24636.55
594.908	24564.87
595.105	24663.18
595.302	24353.93
595.499	24450.19
595.696	24495.24
595.892	24114.32
596.089	24538.25
596.286	24181.9
596.482	24159.38
596.679	23938.19
596.876	24229.01
597.072	23843.99
597.269	24288.4
597.466	23717.01
597.662	23448.73
597.859	23653.53
598.055	23893.14
598.252	23510.17
598.448	23680.15
598.645	23483.55
598.841	23252.13
599.038	23432.35
599.234	23368.86
599.431	23485.59
599.627	22789.28
599.824	23213.21
600.02	23110.82
600.217	22942.88
600.413	22906.02
600.609	22695.08
600.806	22654.12
601.002	22787.24
601.198	22688.93
601.395	22301.87
601.591	22594.73
601.787	22879.39
601.984	22138.03
602.18	22439.08
602.376	22361.26
602.572	22246.57
602.769	22342.83
602.965	22176.94
603.161	22092.97
603.357	21882.03
603.553	21947.57
603.75	22054.06
603.946	21564.6
604.142	22072.5
604.338	21507.26
604.534	21814.45
604.73	21621.94
604.926	21458.1
605.122	21632.18
605.318	21243.07
605.514	20995.26
605.71	21009.6
605.906	21333.18
606.102	21171.39
606.298	21415.1
606.494	21017.79
606.69	21083.33
606.886	21296.32
607.082	20610.25
607.278	20999.36
607.474	20550.85
607.67	20786.37
607.866	20595.91
608.062	20927.68
608.257	20774.08
608.453	20784.32
608.649	20645.06
608.845	20757.7
609.041	20720.84
609.236	20534.47
609.432	20393.16
609.628	20585.67
609.824	20344.01
610.019	20120.78
610.215	20419.78
610.411	20311.24
610.606	20192.46
610.802	20004.05
610.998	20147.4
611.193	20344.01
611.389	20309.19
611.584	19672.28
611.78	20026.57
611.976	20073.68
612.171	19911.89
612.367	19926.22
612.562	19961.04
612.758	19391.7
612.953	19596.5
613.149	19936.46
613.344	19647.7
613.539	19746
613.735	19696.85
613.93	19746
614.126	19518.68
614.321	19490.01
614.517	19750.1
614.712	19358.94
614.907	19113.18
615.103	19367.13
615.298	19191
615.493	19356.89
615.688	19432.66
615.884	19776.72
616.079	18996.45
616.274	19262.68
616.47	19158.24
616.665	19092.7
616.86	18863.33
617.055	18785.51
617.25	19000.54
617.445	18879.71
617.641	18558.18
617.836	18793.7
618.031	18695.39
618.226	18756.83
618.421	18560.23
618.616	18449.64
618.811	18371.82
619.006	18607.33
619.201	18261.23
619.396	18128.11
619.591	18238.7
619.786	18298.09
619.981	18015.47
620.176	18117.87
620.371	17870.06
620.566	17812.72
620.761	17738.99
620.956	17908.97
621.151	17618.16
621.346	17544.44
621.541	17505.52
621.735	17761.52
621.93	17308.92
622.125	17544.44
622.32	16975.1
622.515	17394.93
622.709	16944.38
622.904	16878.85
623.099	16915.71
623.294	17057.02
623.488	16641.28
623.683	16571.65
623.878	16442.63
624.072	16557.32
624.267	16424.2
624.462	16418.05
624.656	16280.84
624.851	16108.81
625.046	16110.86
625.24	16080.14
625.435	15916.3
625.629	15985.93
625.824	15705.36
626.018	15572.24
626.213	15373.59
626.407	15691.02
626.602	15398.17
626.796	15459.6
626.991	15318.29
627.185	15260.95
627.38	15107.35
627.574	15095.07
627.768	14884.12
627.963	14775.58
628.157	14568.74
628.352	14662.94
628.546	14550.31
628.74	14673.18
628.935	14435.62
629.129	14669.09
629.323	14339.37
629.517	14296.36
629.712	14134.57
629.906	14251.3
630.1	14062.89
630.294	14044.46
630.489	13862.19
630.683	14163.24
630.877	13751.6
631.071	13702.45
631.265	13731.12
631.459	13552.95
631.653	13479.22
631.848	13567.28
632.042	13362.48
632.236	13376.82
632.43	13321.52
632.624	13264.18
632.818	13174.07
633.012	12983.61
633.206	13069.62
633.4	13129.02
633.594	12932.41
633.788	12715.33
633.982	12703.04
634.176	12739.9
634.369	12535.1
634.563	12621.12
634.757	12291.4
634.951	12657.98
635.145	12361.03
635.339	12326.21
635.533	12434.75
635.726	12166.47
635.92	11849.04
636.114	12027.21
636.308	12045.64
636.501	11930.95
636.695	12076.36
636.889	11924.81
637.083	11699.53
637.276	11742.54
637.47	11748.68
637.664	11791.69
637.857	11709.77
638.051	11509.07
638.244	11355.47
638.438	11294.04
638.632	11269.46
638.825	11060.57
639.019	11142.49
639.212	11193.69
639.406	10941.79
639.599	10919.26
639.793	11072.86
639.986	10739.04
640.18	10898.78
640.373	10806.62
640.567	10841.43
640.76	10773.85
640.954	10636.64
641.147	10456.42
641.34	10270.05
641.534	10380.64
641.727	10372.45
641.92	10337.63
642.114	10200.42
642.307	10143.08
642.5	10018.15
642.694	10012.01
642.887	10028.39
643.08	9905.51
643.273	10052.97
643.467	9737.58
643.66	9835.88
643.853	9643.37
644.046	9708.91
644.239	9719.15
644.432	9598.32
644.626	9504.11
644.819	9520.49
645.012	9526.64
645.205	9366.9
645.398	9471.34
645.591	9383.28
645.784	9307.51
645.977	9047.41
646.17	9160.05
646.363	9135.48
646.556	9117.04
646.749	9094.52
646.942	9213.3
647.135	8893.82
647.328	8877.43
647.521	8834.43
647.714	8562.05
647.907	8680.83
648.099	8611.2
648.292	8533.37
648.485	8693.12
648.678	8486.27
648.871	8424.83
649.064	8357.25
649.256	8529.28
649.449	8349.06
649.642	8285.57
649.835	8281.47
650.027	8146.31
650.22	8234.37
650.413	8072.58
650.605	8105.35
650.798	8234.37
650.991	7873.93
651.183	7943.56
651.376	7826.82
651.568	7908.74
651.761	7921.03
651.954	7755.15
652.146	7742.86
652.339	7837.06
652.531	7734.67
652.724	7462.29
652.916	7574.92
653.109	7579.02
653.301	7683.47
653.494	7355.79
653.686	7292.3
653.879	7431.57
654.071	7333.26
654.263	7353.74
654.456	7292.3
654.648	7472.53
654.84	7196.05
655.033	7009.69
655.225	7261.59
655.417	6954.39
655.61	7183.76
655.802	7208.34
655.994	6981.01
656.186	7042.45
656.379	6964.63
656.571	6819.22
656.763	6743.45
656.955	6882.71
657.148	6843.8
657.34	6714.78
657.532	6524.32
657.724	6636.95
657.916	6784.41
658.108	6647.19
658.3	6555.04
658.492	6593.95
658.684	6456.73
658.876	6446.49
659.068	6483.36
659.26	6417.82
659.452	6546.84
659.644	6340
659.836	6264.22
660.028	6325.66
660.22	6100.39
660.412	6159.78
660.604	6049.19
660.796	6055.33
660.988	6092.2
661.18	6104.48
661.372	6004.13
661.563	5920.17
661.755	5854.63
661.947	5965.22
662.139	6047.14
662.331	5916.07
662.522	5850.53
662.714	5713.32
662.906	5936.55
663.097	5758.38
663.289	5653.93
663.481	5797.29
663.673	5668.27
663.864	5686.7
664.056	5641.64
664.247	5682.6
664.439	5645.74
664.631	5574.06
664.822	5547.44
665.014	5436.85
665.205	5318.06
665.397	5486
665.588	5422.51
665.78	5410.22
665.971	5428.65
666.163	5391.79
666.354	5371.31
666.546	5262.77
666.737	5225.9
666.929	5162.42
667.12	5207.47
667.311	5281.2
667.503	5076.4
667.694	5236.14
667.885	5045.68
668.077	5148.08
668.268	5027.25
668.459	5107.12
668.651	4982.2
668.842	4974
669.033	5047.73
669.224	4855.22
669.416	4996.53
669.607	4943.28
669.798	4832.69
669.989	4844.98
670.18	4853.17
670.371	4828.6
670.563	4785.59
670.754	4797.88
670.945	4615.61
671.136	4654.52
671.327	4799.93
671.518	4625.85
671.709	4675
671.9	4597.18
672.091	4642.23
672.282	4527.55
672.473	4593.08
672.664	4574.65
672.855	4533.69
673.046	4656.57
673.237	4566.46
673.428	4478.4
673.619	4498.88
673.809	4566.46
674	4419
674.191	4482.49
674.382	4400.57
674.573	4437.44
674.764	4402.62
674.954	4179.39
675.145	4345.28
675.336	4318.65
675.527	4382.14
675.717	4228.54
675.908	4277.69
676.099	4169.15
676.289	4296.13
676.48	4187.58
676.671	4122.05
676.861	4130.24
677.052	4171.2
677.243	4019.65
677.433	4101.57
677.624	4261.31
677.814	4167.1
678.005	4167.1
678.195	4195.78
678.386	4120
678.576	4089.28
678.767	4025.79
678.957	4144.58
679.148	4050.37
679.338	4044.23
679.529	4128.19
679.719	3958.21
679.909	4007.36
680.1	3933.64
680.29	3952.07
680.481	4056.51
680.671	4009.41
680.861	3993.03
681.052	4144.58
681.242	3941.83
681.432	4058.56
681.622	3720.65
681.813	3796.42
682.003	3857.86
682.193	3794.37
682.383	3896.77
682.573	3956.16
682.764	3843.53
682.954	3829.19
683.144	3796.42
683.334	3745.22
683.524	3724.74
683.714	3821
683.904	3698.12
684.094	3761.61
684.284	3722.7
684.474	3802.57
684.664	3691.98
684.854	3702.22
685.044	3624.39
685.234	3667.4
685.424	3698.12
685.614	3491.27
685.804	3755.46
685.994	3745.22
686.184	3618.25
686.374	3648.97
686.564	3655.11
686.753	3538.38
686.943	3632.58
687.133	3581.39
687.323	3651.02
687.513	3540.43
687.702	3521.99
687.892	3524.04
688.082	3491.27
688.272	3646.92
688.461	3501.51
688.651	3524.04
688.841	3483.08
689.03	3509.71
689.22	3468.75
689.41	3433.93
689.599	3284.43
689.789	3364.3
689.979	3315.15
690.168	3425.74
690.358	3233.23
690.547	3319.25
690.737	3321.29
690.926	3292.62
691.116	3196.37
691.305	3356.11
691.495	3288.53
691.684	3210.7
691.874	3212.75
692.063	3161.55
692.252	3382.73
692.442	3184.08
692.631	3177.94
692.82	3130.83
693.01	3098.06
693.199	3122.64
693.388	3112.4
693.578	3136.98
693.767	3225.04
693.956	3112.4
694.146	3116.5
694.335	3081.68
694.524	2901.46
694.713	3179.98
694.902	3050.96
695.092	3149.26
695.281	2971.09
695.47	3034.58
695.659	2897.36
695.848	2889.17
696.037	2854.36
696.226	3081.68
696.415	2960.85
696.604	3096.02
696.793	2930.13
696.982	2928.08
697.171	3016.15
697.36	2921.94
697.549	2923.99
697.738	2870.74
697.927	2946.52
698.116	2862.55
698.305	2983.38
698.494	2872.79
698.683	2938.32
698.872	2823.64
699.061	2901.46
699.25	2889.17
699.438	2926.04
699.627	2745.81
699.816	2852.31
700.005	2745.81
700.193	2737.62
700.382	2878.93
700.571	2811.35
700.76	2840.02
700.948	2749.91
701.137	2813.4
701.326	2756.05
701.514	2682.33
701.703	2856.4
701.892	2790.87
702.08	2852.31
702.269	2741.72
702.457	2647.51
702.646	2717.14
702.834	2778.58
703.023	2708.95
703.212	2659.8
703.4	2647.51
703.589	2573.78
703.777	2770.39
703.965	2733.53
704.154	2526.68
704.342	2616.79
704.531	2651.61
704.719	2553.31
704.907	2788.82
705.096	2551.26
705.284	2622.94
705.472	2641.37
705.661	2657.75
705.849	2633.18
706.037	2608.6
706.226	2549.21
706.414	2491.87
706.602	2579.93
706.79	2618.84
706.979	2518.49
707.167	2608.6
707.355	2512.35
707.543	2514.39
707.731	2569.69
707.919	2557.4
708.107	2500.06
708.296	2450.91
708.484	2493.91
708.672	2508.25
708.86	2500.06
709.048	2500.06
709.236	2516.44
709.424	2483.67
709.612	2545.11
709.8	2368.99
709.988	2321.88
710.176	2434.52
710.364	2444.76
710.551	2461.15
710.739	2500.06
710.927	2368.99
711.115	2409.95
711.303	2559.45
711.491	2444.76
711.679	2426.33
711.866	2364.89
712.054	2444.76
712.242	2397.66
712.43	2319.84
712.617	2356.7
712.805	2270.69
712.993	2459.1
713.181	2360.8
713.368	2418.14
713.556	2491.87
713.744	2436.57
713.931	2422.24
714.119	2401.76
714.306	2405.85
714.494	2278.88
714.682	2225.63
714.869	2151.9
715.057	2246.11
715.244	2262.49
715.432	2256.35
715.619	2184.67
715.807	2293.21
715.994	2258.4
716.182	2223.58
716.369	2164.19
716.556	2219.49
716.744	2221.53
716.931	2285.02
717.119	2186.72
717.306	2235.87
717.493	2131.42
717.681	2221.53
717.868	2180.57
718.055	2344.41
718.242	2156
718.43	2086.37
718.617	2199.01
718.804	2106.85
718.991	2166.24
719.179	2139.62
719.366	2162.14
719.553	2188.77
719.74	2174.43
719.927	2086.37
720.114	2117.09
720.301	2172.38
720.488	2049.5
720.676	2074.08
720.863	2059.74
721.05	2156
721.237	2141.66
721.424	2051.55
721.611	2047.46
721.798	2012.64
721.985	2047.46
722.172	2112.99
722.358	2100.7
722.545	2108.9
722.732	2055.65
722.919	2020.83
723.106	1961.44
723.293	2139.62
723.48	2045.41
723.667	1945.06
723.853	2080.22
724.04	2049.5
724.227	2018.79
724.414	1910.24
724.6	2049.5
724.787	1975.78
724.974	2012.64
725.161	1959.39
725.347	1857
725.534	1873.38
725.72	1936.87
725.907	1973.73
726.094	1930.72
726.28	1791.46
726.467	1949.15
726.653	1992.16
726.84	1895.91
727.027	2045.41
727.213	1904.1
727.4	1840.61
727.586	1877.48
727.773	1887.72
727.959	1924.58
728.145	1992.16
728.332	1926.63
728.518	1836.52
728.705	1910.24
728.891	1877.48
729.077	1959.39
729.264	1838.56
729.45	1830.37
729.636	1953.25
729.823	1906.15
730.009	1887.72
730.195	1820.13
730.382	1871.33
730.568	1904.1
730.754	1795.56
730.94	1820.13
731.126	1752.55
731.313	1807.84
731.499	1904.1
731.685	1811.94
731.871	1820.13
732.057	1820.13
732.243	1762.79
732.429	1746.41
732.615	1818.08
732.801	1795.56
732.987	1813.99
733.173	1779.17
733.359	1832.42
733.545	1789.41
733.731	1703.4
733.917	1820.13
734.103	1836.52
734.289	1770.98
734.475	1742.31
734.661	1785.32
734.847	1644.01
735.033	1781.22
735.219	1680.87
735.404	1861.09
735.59	1697.25
735.776	1740.26
735.962	1754.6
736.148	1695.21
736.333	1713.64
736.519	1693.16
736.705	1738.21
736.89	1727.97
737.076	1801.7
737.262	1629.67
737.447	1748.45
737.633	1740.26
737.819	1754.6
738.004	1672.68
738.19	1787.36
738.375	1553.9
738.561	1691.11
738.747	1664.49
738.932	1578.47
739.118	1701.35
739.303	1574.38
739.489	1637.86
739.674	1574.38
739.859	1562.09
740.045	1527.27
740.23	1656.29
740.416	1617.38
740.601	1644.01
740.786	1627.62
740.972	1623.53
741.157	1519.08
741.342	1562.09
741.528	1510.89
741.713	1459.69
741.898	1562.09
742.084	1531.37
742.269	1500.65
742.454	1586.66
742.639	1455.59
742.824	1510.89
743.01	1541.61
743.195	1416.68
743.38	1476.07
743.565	1459.69
743.75	1469.93
743.935	1484.27
744.12	1431.02
744.305	1457.64
744.49	1371.63
744.675	1390.06
744.86	1461.74
745.045	1443.31
745.23	1363.44
745.415	1410.54
745.6	1402.35
745.785	1345
745.97	1345
746.155	1465.83
746.34	1361.39
746.525	1279.47
746.71	1471.98
746.895	1402.35
747.079	1381.87
747.264	1297.9
747.449	1394.15
747.634	1322.48
747.819	1258.99
748.003	1369.58
748.188	1218.03
748.373	1279.47
748.557	1320.43
748.742	1295.85
748.927	1209.84
749.111	1254.89
749.296	1269.23
749.481	1199.6
749.665	1240.56
749.85	1285.61
750.034	1183.21
750.219	1181.17
750.404	1070.58
750.588	1238.51
750.773	1187.31
750.957	1127.92
751.141	1168.88
751.326	1125.87
751.51	1117.68
751.695	1138.16
751.879	1205.74
752.064	1123.82
752.248	1170.93
752.432	1123.82
752.617	1093.1
752.801	1107.44
752.985	1029.62
753.17	1068.53
753.354	1041.9
753.538	1072.62
753.722	1058.29
753.907	984.56
754.091	1005.04
754.275	1093.1
754.459	1070.58
754.643	937.46
754.828	886.26
755.012	1033.71
755.196	984.56
755.38	980.47
755.564	955.89
755.748	959.99
755.932	1007.09
756.116	939.51
756.3	945.65
756.484	927.22
756.668	1007.09
756.852	923.12
757.036	884.21
757.22	871.92
757.404	923.12
757.588	910.83
757.772	937.46
757.956	902.64
758.14	914.93
758.323	916.98
758.507	828.92
758.691	902.64
758.875	898.55
759.059	843.25
759.242	867.83
759.426	869.87
759.61	800.24
759.794	779.76
759.977	900.59
760.161	878.07
760.345	812.53
760.528	828.92
760.712	769.52
760.895	867.83
761.079	765.43
761.263	837.11
761.446	763.38
761.63	732.66
761.813	683.51
761.997	742.9
762.18	867.83
762.364	845.3
762.547	667.13
762.731	716.28
762.914	699.89
763.098	785.91
763.281	761.33
763.464	706.04
763.648	779.76
763.831	757.24
764.015	732.66
764.198	712.18
764.381	716.28
764.564	742.9
764.748	689.65
764.931	775.67
765.114	683.51
765.297	716.28
765.481	628.21
765.664	681.46
765.847	648.69
766.03	751.09
766.213	685.56
766.397	693.75
766.58	624.12
766.763	720.37
766.946	685.56
767.129	722.42
767.312	683.51
767.495	722.42
767.678	677.37
767.861	699.89
768.044	716.28
768.227	607.73
768.41	730.61
768.593	677.37
768.776	650.74
768.959	667.13
769.142	724.47
769.324	611.83
769.507	689.65
769.69	603.64
769.873	634.36
770.056	787.96
770.239	613.88
770.421	679.41
770.604	681.46
770.787	572.92
770.97	642.55
771.152	683.51
771.335	642.55
771.518	609.78
771.7	628.21
771.883	742.9
772.066	636.41
772.248	726.52
772.431	529.91
772.613	652.79
772.796	566.78
772.978	626.17
773.161	656.89
773.343	556.54
773.526	609.78
773.708	648.69
773.891	562.68
774.073	587.26
774.256	505.34
774.438	648.69
774.621	548.34
774.803	517.62
774.985	570.87
775.168	538.1
775.35	525.82
775.532	550.39
775.715	503.29
775.897	566.78
776.079	501.24
776.261	534.01
776.444	534.01
776.626	517.62
776.808	558.58
776.99	529.91
777.173	538.1
777.355	534.01
777.537	511.48
777.719	550.39
777.901	419.32
778.083	452.09
778.265	544.25
778.447	452.09
778.629	361.98
778.811	462.33
778.993	394.75
779.175	460.28
779.357	458.23
779.539	452.09
779.721	478.71
779.903	462.33
780.085	468.47
780.267	417.27
780.449	486.9
780.631	372.22
780.812	517.62
780.994	421.37
781.176	386.55
781.358	394.75
781.54	423.42
781.721	380.41
781.903	431.61
782.085	364.03
782.267	411.13
782.448	339.45
782.63	382.46
782.812	398.84
782.993	384.51
783.175	454.14
783.357	366.07
783.538	413.18
783.72	280.06
783.901	396.79
784.083	470.52
784.264	419.32
784.446	333.31
784.627	321.02
784.809	409.08
784.99	368.12
785.172	372.22
785.353	386.55
785.535	271.87
785.716	368.12
785.897	290.3
786.079	341.5
786.26	353.79
786.441	392.7
786.623	341.5
786.804	333.31
786.985	292.35
787.167	321.02
787.348	288.25
787.529	333.31
787.71	368.12
787.891	273.92
788.073	259.58
788.254	265.72
788.435	267.77
788.616	374.27
788.797	253.44
788.978	255.48
789.159	261.63
789.34	304.64
789.522	251.39
789.703	345.59
789.884	308.73
790.065	304.64
790.246	280.06
790.427	341.5
790.607	318.97
790.788	343.55
790.969	257.53
791.15	331.26
791.331	275.96
791.512	273.92
791.693	273.92
791.874	235
792.054	228.86
792.235	239.1
792.416	239.1
792.597	232.96
792.778	275.96
792.958	259.58
793.139	288.25
793.32	282.11
793.5	249.34
793.681	271.87
793.862	286.2
794.042	177.66
794.223	206.33
794.404	232.96
794.584	173.57
794.765	259.58
794.945	269.82
795.126	251.39
795.306	245.24
795.487	288.25
795.667	259.58
795.848	339.45
796.028	189.95
796.209	235
796.389	214.52
796.57	216.57
796.75	194.05
796.93	263.68
797.111	181.76
797.291	263.68
797.471	214.52
797.652	222.72
797.832	173.57
798.012	257.53
798.192	257.53
798.373	214.52
798.553	114.17
798.733	222.72
798.913	189.95
799.093	208.38
799.274	140.8
799.454	210.43
799.634	257.53
799.814	251.39
799.994	222.72
800.174	187.9
800.354	181.76
800.534	175.61
800.714	232.96
800.894	157.18
801.074	204.28
801.254	230.91
801.434	189.95
801.614	196.09
801.794	165.37
801.974	755.19
802.154	224.76
802.334	185.85
802.514	140.8
802.693	161.28
802.873	181.76
803.053	257.53
803.233	173.57
803.413	163.33
803.592	148.99
803.772	132.61
803.952	230.91
804.131	140.8
804.311	171.52
804.491	206.33
804.67	151.04
804.85	161.28
805.03	189.95
805.209	167.42
805.389	103.93
805.568	112.13
805.748	118.27
805.928	148.99
806.107	185.85
806.287	114.17
806.466	144.89
806.646	83.45
806.825	140.8
807.004	120.32
807.184	173.57
807.363	163.33
807.543	136.7
807.722	93.69
807.901	124.41
808.081	210.43
808.26	177.66
808.439	194.05
808.619	118.27
808.798	163.33
808.977	101.89
809.156	185.85
809.336	101.89
809.515	120.32
809.694	142.85
809.873	126.46
810.052	103.93
810.231	151.04
810.411	99.84
810.59	173.57
810.769	126.46
810.948	99.84
811.127	128.51
811.306	142.85
811.485	108.03
811.664	142.85
811.843	142.85
812.022	112.13
812.201	155.13
812.38	148.99
812.559	93.69
812.737	175.61
812.916	26.11
813.095	99.84
813.274	126.46
813.453	124.41
813.632	165.37
813.811	153.09
813.989	126.46
814.168	67.07
814.347	108.03
814.526	110.08
814.704	110.08
814.883	194.05
815.062	54.78
815.24	116.22
815.419	58.88
815.598	126.46
815.776	161.28
815.955	151.04
816.133	89.6
816.312	116.22
816.49	91.65
816.669	52.74
816.847	173.57
817.026	103.93
817.204	112.13
817.383	83.45
817.561	40.45
817.74	71.17
817.918	85.5
818.097	95.74
818.275	142.85
818.453	200.19
818.632	101.89
818.81	151.04
818.988	60.93
819.167	60.93
819.345	93.69
819.523	124.41
819.701	19.97
819.879	95.74
820.058	67.07
820.236	95.74
820.414	95.74
820.592	118.27
820.77	48.64
820.948	122.37
821.127	112.13
821.305	103.93
821.483	26.11
821.661	132.61
821.839	103.93
822.017	28.16
822.195	26.11
822.373	54.78
822.551	108.03
822.729	151.04
822.907	136.7
823.085	132.61
823.262	99.84
823.44	128.51
823.618	36.35
823.796	83.45
823.974	58.88
824.152	60.93
824.329	30.21
824.507	171.52
824.685	93.69
824.863	87.55
825.04	75.26
825.218	87.55
825.396	95.74
825.574	130.56
825.751	24.06
825.929	87.55
826.107	83.45
826.284	83.45
826.462	126.46
826.639	67.07
826.817	81.41
826.994	144.89
827.172	103.93
827.349	169.47
827.527	44.54
827.704	26.11
827.882	91.65
828.059	58.88
828.237	89.6
828.414	112.13
828.591	26.11
828.769	30.21
828.946	34.3
829.124	44.54
829.301	85.5
829.478	67.07
829.655	56.83
829.833	132.61
830.01	9.73
830.187	130.56
830.364	17.92
830.542	99.84
830.719	34.3
830.896	60.93
831.073	120.32
831.25	75.26
831.427	138.75
831.604	34.3
831.782	-2.56
831.959	103.93
832.136	11.78
832.313	85.5
832.49	5.63
832.667	67.07
832.844	79.36
833.021	132.61
833.198	46.59
833.374	79.36
833.551	105.98
833.728	91.65
833.905	140.8
834.082	28.16
834.259	24.06
834.436	69.12
834.612	46.59
834.789	97.79
834.966	69.12
835.143	42.5
835.319	44.54
835.496	120.32
835.673	99.84
835.85	42.5
836.026	52.74
836.203	67.07
836.38	28.16
836.556	91.65
836.733	-61.95
836.909	83.45
837.086	-2.56
837.262	30.21
837.439	79.36
837.616	-2.56
837.792	30.21
837.968	52.74
838.145	28.16
838.321	69.12
838.498	89.6
838.674	60.93
838.851	-6.66
839.027	22.02
839.203	50.69
839.38	87.55
839.556	50.69
839.732	161.28
839.909	83.45
840.085	11.78
840.261	42.5
840.437	5.63
840.614	54.78
840.79	79.36
840.966	97.79
841.142	128.51
841.318	40.45
841.494	38.4
841.671	1.54
841.847	-12.8
842.023	24.06
842.199	71.17
842.375	91.65
842.551	-29.18
842.727	91.65
842.903	83.45
843.079	42.5
843.255	118.27
843.431	30.21
843.607	110.08
843.783	-61.95
843.959	75.26
844.134	-4.61
844.31	99.84
844.486	60.93
844.662	65.02
844.838	34.3
845.013	56.83
845.189	46.59
845.365	56.83
845.541	124.41
845.716	101.89
845.892	42.5
846.068	75.26
846.244	-12.8
846.419	42.5
846.595	132.61
846.77	83.45
846.946	42.5
847.122	22.02
847.297	19.97
847.473	54.78
847.648	5.63
847.824	52.74
847.999	-14.85
848.175	83.45
848.35	75.26
848.526	50.69
848.701	54.78
848.876	112.13
849.052	112.13
849.227	42.5
849.403	71.17
849.578	24.06
849.753	91.65
849.929	5.63
850.104	-20.99
850.279	26.11
850.454	5.63
850.63	73.21
850.805	38.4
850.98	44.54
851.155	42.5
851.33	-27.14
851.505	1.54
851.681	65.02
851.856	42.5
852.031	36.35
852.206	122.37
852.381	19.97
852.556	26.11
852.731	46.59
852.906	34.3
853.081	60.93
853.256	54.78
853.431	28.16
853.606	28.16
853.781	99.84
853.956	-16.9
854.131	52.74
854.305	58.88
854.48	-6.66
854.655	3.58
854.83	-31.23
855.005	13.82
855.18	91.65
855.354	-14.85
855.529	77.31
855.704	17.92
855.879	71.17
856.053	7.68
856.228	142.85
856.403	60.93
856.577	58.88
856.752	-41.47
856.926	-61.95
857.101	26.11
857.276	-66.05
857.45	42.5
857.625	54.78
857.799	-14.85
857.974	71.17
858.148	32.26
858.323	34.3
858.497	60.93
858.672	46.59
858.846	26.11
859.02	22.02
859.195	-0.51
859.369	75.26
859.543	26.11
859.718	58.88
859.892	91.65
860.066	54.78
860.241	-39.42
860.415	-45.57
860.589	-41.47
860.763	-6.66
860.938	9.73
861.112	58.88
861.286	19.97
861.46	3.58
861.634	28.16
861.808	-33.28
861.982	46.59
862.157	50.69
862.331	-0.51
862.505	22.02
862.679	3.58
862.853	-8.7
863.027	67.07
863.201	122.37
863.375	-25.09
863.549	22.02
863.722	-14.85
863.896	67.07
864.07	-2.56
864.244	67.07
864.418	93.69
864.592	62.98
864.766	75.26
864.939	42.5
865.113	7.68
865.287	38.4
865.461	65.02
865.634	67.07
865.808	99.84
865.982	-2.56
866.156	1.54
866.329	-2.56
866.503	30.21
866.676	69.12
866.85	91.65
867.024	-8.7
867.197	44.54
867.371	44.54
867.544	3.58
867.718	-14.85
867.891	5.63
868.065	108.03
868.238	60.93
868.412	93.69
868.585	-0.51
868.759	-35.33
868.932	5.63
869.105	36.35
869.279	28.16
869.452	42.5
869.625	-14.85
869.799	1.54
869.972	-41.47
870.145	11.78
870.319	-27.14
870.492	-18.94
870.665	87.55
870.838	9.73
871.011	1.54
871.185	42.5
871.358	11.78
871.531	24.06
871.704	19.97
871.877	42.5
872.05	62.98
872.223	77.31
872.396	13.82
872.569	30.21
872.742	-27.14
872.915	22.02
873.088	-10.75
873.261	-0.51
873.434	71.17
873.607	50.69
873.78	9.73
873.953	24.06
874.126	-0.51
874.299	-4.61
874.471	-47.62
874.644	5.63
874.817	-14.85
874.99	83.45
875.163	-45.57
875.335	46.59
875.508	-14.85
875.681	28.16
875.853	26.11
876.026	42.5
876.199	9.73
876.371	22.02
876.544	19.97
876.717	-59.9
876.889	42.5
877.062	50.69
877.234	50.69
877.407	-10.75
877.579	42.5
877.752	89.6
877.924	1.54
878.097	-4.61
878.269	34.3
878.442	17.92
878.614	-14.85
878.786	-43.52
878.959	-37.38
879.131	95.74
879.303	-0.51
879.476	-37.38
879.648	26.11
879.82	54.78
879.993	28.16
880.165	1.54
880.337	-31.23
880.509	-35.33
880.681	7.68
880.854	28.16
881.026	65.02
881.198	46.59
881.37	26.11
881.542	-31.23
881.714	-12.8
881.886	1.54
882.058	30.21
882.23	9.73
882.402	44.54
882.574	9.73
882.746	67.07
882.918	-6.66
883.09	50.69
883.262	52.74
883.434	26.11
883.606	-14.85
883.778	-16.9
883.95	79.36
884.122	26.11
884.293	13.82
884.465	-29.18
884.637	112.13
884.809	22.02
884.98	42.5
885.152	1.54
885.324	54.78
885.496	-23.04
885.667	34.3
885.839	-57.86
886.011	32.26
886.182	26.11
886.354	69.12
886.525	28.16
886.697	60.93
886.869	1.54
887.04	34.3
887.212	28.16
887.383	7.68
887.555	48.64
887.726	54.78
887.897	-59.9
888.069	9.73
888.24	-43.52
888.412	-31.23
888.583	-35.33
888.754	5.63
888.926	-23.04
889.097	28.16
889.268	24.06
889.44	26.11
889.611	-8.7
889.782	-25.09
889.953	-14.85
890.125	87.55
890.296	-39.42
890.467	50.69
890.638	-25.09
890.809	-6.66
890.98	-59.9
891.151	48.64
891.323	-10.75
891.494	5.63
891.665	17.92
891.836	-16.9
892.007	-16.9
892.178	1.54
892.349	-31.23
892.52	11.78
892.691	-107.01
892.862	-20.99
893.032	-31.23
893.203	19.97
893.374	36.35
893.545	-2.56
893.716	24.06
893.887	-29.18
894.057	-43.52
894.228	34.3
894.399	-27.14
894.57	58.88
894.74	-43.52
894.911	34.3
895.082	-72.19
895.253	-14.85
895.423	-6.66
895.594	60.93
895.764	36.35
895.935	11.78
896.106	83.45
896.276	17.92
896.447	-2.56
896.617	-10.75
896.788	62.98
896.958	60.93
897.129	9.73
897.299	9.73
897.47	34.3
897.64	44.54
897.81	-94.72
897.981	11.78
898.151	-70.14
898.322	60.93
898.492	26.11
898.662	-43.52
898.832	-12.8
899.003	19.97
899.173	40.45
899.343	-64
899.513	-8.7
