Data from USB4F104151__183__14-20-13-792.txt Node

Date: Thu Mar 13 14:20:13 EDT 2025
User: louis
Spectrometer: USB4F10415
Trigger mode: 4
Integration Time (sec): 2.000000E-2
Scans to average: 1
Electric dark correction enabled: true
Nonlinearity correction enabled: false
Boxcar width: 0
XAxis mode: Wavelengths
Number of Pixels in Spectrum: 3648
>>>>>Begin Spectral Data<<<<<
178.204	-142.68
178.424	-142.68
178.644	-142.68
178.864	-122.2
179.084	-36.18
179.304	31.4
179.524	-1.37
179.744	-17.75
179.964	10.92
180.184	74.41
180.404	-3.41
180.624	-46.42
180.844	-58.71
181.064	-77.14
181.283	21.16
181.503	-9.56
181.723	76.46
181.943	-56.66
182.163	-21.85
182.383	-1.37
182.602	66.22
182.822	101.03
183.042	82.6
183.262	19.11
183.482	2.73
183.701	10.92
183.921	-3.41
184.141	-25.94
184.361	74.41
184.58	35.5
184.8	125.61
185.02	0.68
185.239	33.45
185.459	-3.41
185.679	-44.37
185.898	-48.47
186.118	60.07
186.338	27.31
186.557	60.07
186.777	12.97
186.997	45.74
187.216	-50.52
187.436	107.18
187.655	25.26
187.875	25.26
188.095	94.89
188.314	80.55
188.534	92.84
188.753	-7.51
188.973	74.41
189.192	131.75
189.412	60.07
189.631	-11.61
189.851	45.74
190.07	33.45
190.29	49.83
190.509	49.83
190.729	-27.99
190.948	111.27
191.168	117.42
191.387	82.6
191.607	8.87
191.826	41.64
192.045	66.22
192.265	4.78
192.484	17.07
192.704	25.26
192.923	-13.65
193.142	68.27
193.362	0.68
193.581	78.51
193.8	45.74
194.02	2.73
194.239	94.89
194.458	8.87
194.678	88.75
194.897	60.07
195.116	53.93
195.335	8.87
195.555	119.46
195.774	15.02
195.993	33.45
196.212	12.97
196.432	37.55
196.651	-11.61
196.87	17.07
197.089	74.41
197.308	119.46
197.528	94.89
197.747	-36.18
197.966	35.5
198.185	51.88
198.404	-15.7
198.623	98.99
198.842	43.69
199.062	0.68
199.281	101.03
199.5	115.37
199.719	8.87
199.938	68.27
200.157	74.41
200.376	10.92
200.595	76.46
200.814	68.27
201.033	51.88
201.252	107.18
201.471	41.64
201.69	43.69
201.909	82.6
202.128	-23.89
202.347	60.07
202.566	10.92
202.785	82.6
203.004	51.88
203.223	49.83
203.442	47.79
203.661	66.22
203.879	25.26
204.098	94.89
204.317	12.97
204.536	90.79
204.755	43.69
204.974	-5.46
205.193	74.41
205.411	123.56
205.63	70.31
205.849	53.93
206.068	29.35
206.287	8.87
206.505	70.31
206.724	49.83
206.943	45.74
207.162	43.69
207.381	66.22
207.599	64.17
207.818	103.08
208.037	74.41
208.255	66.22
208.474	29.35
208.693	17.07
208.911	68.27
209.13	17.07
209.349	10.92
209.567	129.7
209.786	76.46
210.005	68.27
210.223	10.92
210.442	-21.85
210.661	43.69
210.879	-1.37
211.098	12.97
211.316	-17.75
211.535	35.5
211.753	-3.41
211.972	68.27
212.191	-7.51
212.409	60.07
212.628	-48.47
212.846	27.31
213.065	47.79
213.283	58.03
213.502	-15.7
213.72	58.03
213.938	68.27
214.157	19.11
214.375	8.87
214.594	-62.8
214.812	68.27
215.031	31.4
215.249	76.46
215.467	12.97
215.686	27.31
215.904	129.7
216.122	133.8
216.341	66.22
216.559	41.64
216.778	66.22
216.996	35.5
217.214	-3.41
217.432	58.03
217.651	33.45
217.869	2.73
218.087	37.55
218.306	6.83
218.524	131.75
218.742	-30.04
218.96	68.27
219.179	25.26
219.397	62.12
219.615	51.88
219.833	76.46
220.051	17.07
220.27	74.41
220.488	-7.51
220.706	33.45
220.924	-7.51
221.142	19.11
221.36	35.5
221.578	53.93
221.796	66.22
222.015	27.31
222.233	78.51
222.451	146.09
222.669	29.35
222.887	49.83
223.105	33.45
223.323	109.22
223.541	33.45
223.759	8.87
223.977	37.55
224.195	82.6
224.413	41.64
224.631	12.97
224.849	43.69
225.067	111.27
225.285	10.92
225.503	43.69
225.721	17.07
225.939	8.87
226.157	25.26
226.375	195.24
226.592	-1.37
226.81	21.16
227.028	68.27
227.246	98.99
227.464	33.45
227.682	94.89
227.9	98.99
228.117	15.02
228.335	41.64
228.553	76.46
228.771	-27.99
228.989	74.41
229.206	12.97
229.424	2.73
229.642	60.07
229.86	-58.71
230.077	21.16
230.295	45.74
230.513	45.74
230.731	58.03
230.948	55.98
231.166	115.37
231.384	33.45
231.601	60.07
231.819	33.45
232.037	62.12
232.254	27.31
232.472	129.7
232.689	-40.28
232.907	60.07
233.125	-7.51
233.342	119.46
233.56	117.42
233.777	33.45
233.995	19.11
234.213	90.79
234.43	62.12
234.648	0.68
234.865	109.22
235.083	101.03
235.3	62.12
235.518	35.5
235.735	17.07
235.953	96.94
236.17	23.21
236.388	-13.65
236.605	135.85
236.822	66.22
237.04	90.79
237.257	4.78
237.475	90.79
237.692	98.99
237.909	4.78
238.127	23.21
238.344	-21.85
238.562	41.64
238.779	-23.89
238.996	0.68
239.214	58.03
239.431	-3.41
239.648	58.03
239.865	10.92
240.083	27.31
240.3	-56.66
240.517	109.22
240.735	35.5
240.952	35.5
241.169	90.79
241.386	27.31
241.603	12.97
241.821	27.31
242.038	45.74
242.255	41.64
242.472	12.97
242.689	2.73
242.907	150.18
243.124	-40.28
243.341	27.31
243.558	17.07
243.775	70.31
243.992	6.83
244.209	21.16
244.426	82.6
244.643	105.13
244.86	49.83
245.078	62.12
245.295	-5.46
245.512	68.27
245.729	45.74
245.946	25.26
246.163	10.92
246.38	27.31
246.597	49.83
246.814	-7.51
247.031	-5.46
247.248	60.07
247.464	41.64
247.681	66.22
247.898	49.83
248.115	35.5
248.332	0.68
248.549	115.37
248.766	68.27
248.983	76.46
249.2	94.89
249.417	78.51
249.633	31.4
249.85	8.87
250.067	12.97
250.284	21.16
250.501	-17.75
250.717	98.99
250.934	35.5
251.151	-40.28
251.368	-23.89
251.585	78.51
251.801	80.55
252.018	-15.7
252.235	121.51
252.451	41.64
252.668	-25.94
252.885	96.94
253.102	-21.85
253.318	41.64
253.535	35.5
253.752	-5.46
253.968	29.35
254.185	-42.32
254.401	74.41
254.618	96.94
254.835	139.94
255.051	41.64
255.268	39.59
255.484	41.64
255.701	33.45
255.917	66.22
256.134	37.55
256.351	76.46
256.567	-15.7
256.784	10.92
257	0.68
257.217	45.74
257.433	58.03
257.65	49.83
257.866	25.26
258.082	-3.41
258.299	58.03
258.515	74.41
258.732	37.55
258.948	49.83
259.165	101.03
259.381	12.97
259.597	37.55
259.814	-5.46
260.03	49.83
260.246	53.93
260.463	84.65
260.679	76.46
260.895	2.73
261.112	33.45
261.328	37.55
261.544	94.89
261.761	92.84
261.977	41.64
262.193	78.51
262.409	76.46
262.626	60.07
262.842	60.07
263.058	33.45
263.274	39.59
263.49	98.99
263.707	19.11
263.923	-3.41
264.139	2.73
264.355	-1.37
264.571	164.52
264.787	10.92
265.004	98.99
265.22	49.83
265.436	47.79
265.652	33.45
265.868	68.27
266.084	-13.65
266.3	-3.41
266.516	10.92
266.732	127.66
266.948	66.22
267.164	41.64
267.38	92.84
267.596	35.5
267.812	60.07
268.028	43.69
268.244	19.11
268.46	10.92
268.676	58.03
268.892	33.45
269.108	-3.41
269.324	66.22
269.54	84.65
269.756	60.07
269.972	-13.65
270.188	43.69
270.403	76.46
270.619	68.27
270.835	35.5
271.051	49.83
271.267	58.03
271.483	2.73
271.698	66.22
271.914	80.55
272.13	27.31
272.346	-38.23
272.562	8.87
272.777	68.27
272.993	23.21
273.209	68.27
273.425	0.68
273.64	43.69
273.856	98.99
274.072	70.31
274.287	35.5
274.503	55.98
274.719	45.74
274.934	17.07
275.15	17.07
275.366	12.97
275.581	33.45
275.797	-44.37
276.012	17.07
276.228	55.98
276.444	49.83
276.659	66.22
276.875	25.26
277.09	21.16
277.306	37.55
277.521	103.08
277.737	51.88
277.952	90.79
278.168	111.27
278.383	115.37
278.599	90.79
278.814	41.64
279.03	39.59
279.245	35.5
279.461	43.69
279.676	51.88
279.892	-21.85
280.107	66.22
280.322	98.99
280.538	29.35
280.753	86.7
280.969	33.45
281.184	41.64
281.399	8.87
281.615	111.27
281.83	60.07
282.045	-44.37
282.26	0.68
282.476	21.16
282.691	41.64
282.906	37.55
283.122	72.36
283.337	25.26
283.552	-19.8
283.767	53.93
283.983	92.84
284.198	135.85
284.413	109.22
284.628	53.93
284.843	53.93
285.058	37.55
285.274	-15.7
285.489	90.79
285.704	80.55
285.919	115.37
286.134	35.5
286.349	-27.99
286.564	49.83
286.779	103.08
286.995	-19.8
287.21	0.68
287.425	58.03
287.64	25.26
287.855	144.04
288.07	17.07
288.285	98.99
288.5	66.22
288.715	103.08
288.93	66.22
289.145	25.26
289.36	76.46
289.575	15.02
289.79	62.12
290.004	-7.51
290.219	25.26
290.434	101.03
290.649	55.98
290.864	76.46
291.079	10.92
291.294	66.22
291.509	51.88
291.724	19.11
291.938	68.27
292.153	74.41
292.368	41.64
292.583	66.22
292.798	33.45
293.012	55.98
293.227	35.5
293.442	25.26
293.657	25.26
293.871	37.55
294.086	17.07
294.301	64.17
294.516	41.64
294.73	33.45
294.945	96.94
295.16	68.27
295.374	49.83
295.589	27.31
295.804	8.87
296.018	98.99
296.233	17.07
296.447	103.08
296.662	-11.61
296.877	133.8
297.091	76.46
297.306	90.79
297.52	43.69
297.735	76.46
297.949	58.03
298.164	-3.41
298.378	-42.32
298.593	33.45
298.807	62.12
299.022	84.65
299.236	25.26
299.451	37.55
299.665	8.87
299.88	-5.46
300.094	68.27
300.309	21.16
300.523	27.31
300.737	51.88
300.952	92.84
301.166	68.27
301.381	-9.56
301.595	49.83
301.809	37.55
302.024	27.31
302.238	-11.61
302.452	33.45
302.667	49.83
302.881	156.33
303.095	105.13
303.309	4.78
303.524	-11.61
303.738	101.03
303.952	0.68
304.166	68.27
304.381	53.93
304.595	125.61
304.809	43.69
305.023	66.22
305.237	74.41
305.452	27.31
305.666	92.84
305.88	45.74
306.094	70.31
306.308	86.7
306.522	111.27
306.736	17.07
306.95	37.55
307.164	29.35
307.379	12.97
307.593	58.03
307.807	-21.85
308.021	51.88
308.235	17.07
308.449	60.07
308.663	60.07
308.877	90.79
309.091	107.18
309.305	41.64
309.519	19.11
309.733	70.31
309.947	60.07
310.161	66.22
310.374	-17.75
310.588	98.99
310.802	23.21
311.016	21.16
311.23	33.45
311.444	43.69
311.658	21.16
311.872	19.11
312.085	80.55
312.299	49.83
312.513	90.79
312.727	49.83
312.941	-11.61
313.154	12.97
313.368	0.68
313.582	55.98
313.796	53.93
314.009	68.27
314.223	109.22
314.437	94.89
314.651	33.45
314.864	-34.13
315.078	131.75
315.292	-7.51
315.505	8.87
315.719	60.07
315.933	86.7
316.146	37.55
316.36	27.31
316.573	101.03
316.787	-11.61
317.001	35.5
317.214	31.4
317.428	17.07
317.641	37.55
317.855	43.69
318.068	19.11
318.282	17.07
318.495	47.79
318.709	82.6
318.922	127.66
319.136	146.09
319.349	84.65
319.563	74.41
319.776	-15.7
319.99	115.37
320.203	53.93
320.417	41.64
320.63	4.78
320.843	90.79
321.057	51.88
321.27	43.69
321.483	84.65
321.697	53.93
321.91	8.87
322.124	2.73
322.337	98.99
322.55	25.26
322.763	0.68
322.977	37.55
323.19	-23.89
323.403	41.64
323.617	51.88
323.83	74.41
324.043	66.22
324.256	92.84
324.469	27.31
324.683	58.03
324.896	27.31
325.109	51.88
325.322	-56.66
325.535	60.07
325.748	33.45
325.962	37.55
326.175	47.79
326.388	37.55
326.601	82.6
326.814	127.66
327.027	76.46
327.24	107.18
327.453	-21.85
327.666	-9.56
327.879	47.79
328.092	141.99
328.305	49.83
328.518	98.99
328.731	78.51
328.944	41.64
329.157	74.41
329.37	68.27
329.583	41.64
329.796	51.88
330.009	17.07
330.222	86.7
330.435	47.79
330.648	8.87
330.861	49.83
331.073	41.64
331.286	84.65
331.499	17.07
331.712	33.45
331.925	19.11
332.138	51.88
332.35	33.45
332.563	58.03
332.776	111.27
332.989	37.55
333.202	-13.65
333.414	82.6
333.627	-5.46
333.84	35.5
334.053	19.11
334.265	39.59
334.478	70.31
334.691	15.02
334.903	35.5
335.116	0.68
335.329	45.74
335.541	68.27
335.754	117.42
335.966	39.59
336.179	31.4
336.392	0.68
336.604	139.94
336.817	15.02
337.029	51.88
337.242	37.55
337.454	45.74
337.667	15.02
337.88	70.31
338.092	47.79
338.305	94.89
338.517	78.51
338.729	74.41
338.942	68.27
339.154	58.03
339.367	53.93
339.579	96.94
339.792	-32.08
340.004	37.55
340.217	62.12
340.429	21.16
340.641	58.03
340.854	25.26
341.066	101.03
341.278	111.27
341.491	49.83
341.703	31.4
341.915	-38.23
342.128	107.18
342.34	45.74
342.552	78.51
342.764	62.12
342.977	58.03
343.189	33.45
343.401	86.7
343.613	43.69
343.826	58.03
344.038	88.75
344.25	58.03
344.462	86.7
344.674	60.07
344.886	78.51
345.099	39.59
345.311	4.78
345.523	21.16
345.735	4.78
345.947	92.84
346.159	66.22
346.371	12.97
346.583	94.89
346.795	76.46
347.007	12.97
347.219	72.36
347.431	74.41
347.643	88.75
347.855	-23.89
348.067	66.22
348.279	10.92
348.491	60.07
348.703	37.55
348.915	60.07
349.127	25.26
349.339	33.45
349.551	49.83
349.763	94.89
349.975	96.94
350.187	92.84
350.399	70.31
350.61	119.46
350.822	12.97
351.034	127.66
351.246	101.03
351.458	21.16
351.669	92.84
351.881	21.16
352.093	76.46
352.305	17.07
352.517	58.03
352.728	162.47
352.94	58.03
353.152	146.09
353.363	47.79
353.575	53.93
353.787	23.21
353.999	74.41
354.21	135.85
354.422	-13.65
354.633	35.5
354.845	74.41
355.057	103.08
355.268	82.6
355.48	76.46
355.692	-21.85
355.903	-7.51
356.115	17.07
356.326	17.07
356.538	111.27
356.749	66.22
356.961	21.16
357.172	125.61
357.384	60.07
357.595	158.38
357.807	-5.46
358.018	58.03
358.23	90.79
358.441	123.56
358.653	107.18
358.864	66.22
359.075	33.45
359.287	-15.7
359.498	115.37
359.709	127.66
359.921	58.03
360.132	139.94
360.344	39.59
360.555	29.35
360.766	19.11
360.977	123.56
361.189	68.27
361.4	19.11
361.611	86.7
361.823	115.37
362.034	74.41
362.245	49.83
362.456	51.88
362.667	90.79
362.879	-15.7
363.09	-30.04
363.301	82.6
363.512	82.6
363.723	123.56
363.935	0.68
364.146	133.8
364.357	60.07
364.568	82.6
364.779	21.16
364.99	90.79
365.201	41.64
365.412	139.94
365.623	-3.41
365.834	62.12
366.045	-36.18
366.256	17.07
366.467	45.74
366.678	25.26
366.889	-13.65
367.1	72.36
367.311	76.46
367.522	0.68
367.733	27.31
367.944	109.22
368.155	53.93
368.366	49.83
368.577	60.07
368.788	115.37
368.999	74.41
369.209	25.26
369.42	139.94
369.631	74.41
369.842	51.88
370.053	-13.65
370.264	72.36
370.474	25.26
370.685	43.69
370.896	62.12
371.107	62.12
371.317	49.83
371.528	6.83
371.739	84.65
371.95	170.66
372.16	55.98
372.371	66.22
372.582	58.03
372.792	39.59
373.003	62.12
373.214	58.03
373.424	103.08
373.635	58.03
373.846	39.59
374.056	90.79
374.267	84.65
374.477	131.75
374.688	39.59
374.898	27.31
375.109	53.93
375.319	70.31
375.53	123.56
375.74	49.83
375.951	51.88
376.161	127.66
376.372	90.79
376.582	35.5
376.793	98.99
377.003	27.31
377.214	33.45
377.424	29.35
377.635	78.51
377.845	25.26
378.055	66.22
378.266	-23.89
378.476	84.65
378.686	78.51
378.897	66.22
379.107	96.94
379.317	27.31
379.528	0.68
379.738	178.86
379.948	29.35
380.158	33.45
380.369	62.12
380.579	119.46
380.789	45.74
380.999	29.35
381.21	88.75
381.42	84.65
381.63	8.87
381.84	68.27
382.05	39.59
382.261	152.23
382.471	80.55
382.681	49.83
382.891	39.59
383.101	-7.51
383.311	-5.46
383.521	8.87
383.731	64.17
383.941	49.83
384.151	127.66
384.361	49.83
384.571	8.87
384.781	86.7
384.991	37.55
385.201	66.22
385.411	74.41
385.621	10.92
385.831	92.84
386.041	58.03
386.251	58.03
386.461	49.83
386.671	76.46
386.881	58.03
387.091	68.27
387.301	152.23
387.511	58.03
387.72	92.84
387.93	131.75
388.14	33.45
388.35	135.85
388.56	107.18
388.769	43.69
388.979	84.65
389.189	53.93
389.399	27.31
389.609	74.41
389.818	131.75
390.028	45.74
390.238	49.83
390.447	78.51
390.657	127.66
390.867	78.51
391.076	12.97
391.286	117.42
391.496	4.78
391.705	66.22
391.915	25.26
392.125	141.99
392.334	19.11
392.544	92.84
392.753	33.45
392.963	39.59
393.172	125.61
393.382	66.22
393.591	101.03
393.801	60.07
394.01	164.52
394.22	88.75
394.429	92.84
394.639	119.46
394.848	123.56
395.058	195.24
395.267	27.31
395.477	43.69
395.686	117.42
395.895	82.6
396.105	139.94
396.314	51.88
396.524	123.56
396.733	80.55
396.942	178.86
397.152	115.37
397.361	66.22
397.57	98.99
397.78	98.99
397.989	76.46
398.198	164.52
398.407	111.27
398.617	148.14
398.826	141.99
399.035	98.99
399.244	82.6
399.453	74.41
399.663	84.65
399.872	172.71
400.081	101.03
400.29	90.79
400.499	174.76
400.708	152.23
400.917	141.99
401.127	123.56
401.336	98.99
401.545	150.18
401.754	109.22
401.963	60.07
402.172	146.09
402.381	55.98
402.59	123.56
402.799	176.81
403.008	158.38
403.217	156.33
403.426	105.13
403.635	58.03
403.844	115.37
404.053	166.57
404.262	98.99
404.471	178.86
404.68	98.99
404.888	185
405.097	168.62
405.306	174.76
405.515	168.62
405.724	213.67
405.933	213.67
406.142	172.71
406.35	303.78
406.559	164.52
406.768	168.62
406.977	287.4
407.185	193.19
407.394	303.78
407.603	203.43
407.812	185
408.02	230.06
408.229	352.93
408.438	211.62
408.646	285.35
408.855	209.58
409.064	275.11
409.272	271.01
409.481	320.17
409.69	262.82
409.898	320.17
410.107	256.68
410.315	443.04
410.524	350.89
410.733	354.98
410.941	397.99
411.15	408.23
411.358	324.26
411.567	412.32
411.775	336.55
411.984	383.65
412.192	422.56
412.401	453.28
412.609	481.96
412.818	451.24
413.026	584.35
413.234	549.54
413.443	535.2
413.651	584.35
413.86	682.66
414.068	584.35
414.276	615.07
414.485	596.64
414.693	649.89
414.901	680.61
415.11	725.66
415.318	664.22
415.526	797.34
415.734	723.62
415.943	764.58
416.151	836.25
416.359	821.92
416.567	909.98
416.776	864.93
416.984	823.97
417.192	1041.05
417.4	1002.14
417.608	983.71
417.817	1014.43
418.025	1067.67
418.233	1196.7
418.441	1102.49
418.649	1278.62
418.857	1245.85
419.065	1266.33
419.273	1325.72
419.481	1323.67
419.689	1446.55
419.897	1532.56
420.105	1520.28
420.313	1565.33
420.521	1532.56
420.729	1581.71
420.937	1641.11
421.145	1720.98
421.353	1862.29
421.561	1970.83
421.769	2099.85
421.977	1991.31
422.185	2017.93
422.393	2179.72
422.601	2349.7
422.809	2171.53
423.017	2247.3
423.224	2427.53
423.432	2452.1
423.64	2495.11
423.848	2622.08
424.056	2587.27
424.263	2867.84
424.471	2794.11
424.679	2900.61
424.887	2968.19
425.094	3007.1
425.302	3177.08
425.51	3326.58
425.718	3392.12
425.925	3369.59
426.133	3576.44
426.341	3662.45
426.548	3754.61
426.756	3736.18
426.964	3932.78
427.171	4203.11
427.379	4227.69
427.586	4211.31
427.794	4346.47
428.001	4571.75
428.209	4751.97
428.417	4637.28
428.624	5010.01
428.832	5071.45
429.039	5177.95
429.247	5050.97
429.454	5573.21
429.662	5911.12
429.869	5524.05
430.076	5993.04
430.284	5823.06
430.491	5898.83
430.699	6324.81
430.906	6333
431.114	6554.18
431.321	6523.46
431.528	6758.98
431.736	7309.88
431.943	7660.09
432.15	7389.75
432.358	7434.81
432.565	7817.78
432.772	7737.91
432.979	8223.28
433.187	8348.2
433.394	8376.87
433.601	9071.14
433.808	8839.72
434.016	8987.17
434.223	9171.49
434.43	9953.81
434.637	9818.64
434.844	10144.27
435.052	10435.08
435.259	10385.93
435.466	10349.07
435.673	10232.33
435.88	10926.6
436.087	11588.09
436.294	11448.83
436.501	11217.41
436.708	11473.4
436.915	11727.35
437.122	12456.43
437.329	12317.17
437.537	12610.03
437.743	13033.96
437.95	13003.24
438.157	13771.22
438.364	14205.39
438.571	13959.64
438.778	14076.37
438.985	15290.82
439.192	14664.14
439.399	15362.5
439.606	14787.02
439.813	15540.67
440.02	16826.79
440.227	16286.13
440.433	16226.74
440.64	16888.23
440.847	16779.69
441.054	17197.48
441.261	18028.95
441.467	17813.91
441.674	18278.8
441.881	19284.36
442.088	18858.38
442.294	18657.68
442.501	19382.66
442.708	19538.3
442.914	20132.22
443.121	21217.64
443.328	20685.17
443.534	22137.18
443.741	21274.98
443.948	21025.13
444.154	22604.11
444.361	22442.32
444.568	22800.72
444.774	22405.46
444.981	22755.66
445.187	23464.26
445.394	24740.15
445.6	24400.18
445.807	26595.6
446.013	25385.26
446.22	25807.14
446.426	27003.15
446.633	27091.21
446.839	28401.91
447.046	26976.53
447.252	28188.92
447.459	28393.72
447.665	28000.51
447.871	29458.67
448.078	30513.37
448.284	28961.01
448.491	29755.62
448.697	30986.45
448.903	31918.28
449.11	31682.76
449.316	31359.18
449.522	31856.84
449.728	33036.47
449.935	33118.39
450.141	33009.84
450.347	33595.56
450.553	32641.21
450.76	33484.97
450.966	34244.77
451.172	33894.57
451.378	34658.46
451.584	33958.05
451.791	34637.98
451.997	34951.32
452.203	35309.71
452.409	35336.34
452.615	35106.96
452.821	33788.07
453.027	33831.08
453.233	35541.13
453.44	34060.45
453.646	34039.97
453.852	34336.93
454.058	35203.22
454.264	33413.29
454.47	34277.54
454.676	33931.43
454.882	35098.77
455.088	31942.85
455.294	32604.35
455.5	32768.18
455.705	33020.08
455.911	31817.93
456.117	31267.02
456.323	30826.71
456.529	29262.06
456.735	30544.09
456.941	29636.84
457.147	29303.02
457.352	28686.58
457.558	28143.87
457.764	28352.76
457.97	27719.94
458.176	27099.41
458.381	27244.81
458.587	25755.94
458.793	26077.47
458.999	24572.21
459.204	26394.9
459.41	25755.94
459.616	23849.28
459.821	23976.25
460.027	24142.14
460.233	23071.05
460.438	22294.87
460.644	22419.8
460.85	21485.92
461.055	21125.48
461.261	20894.06
461.466	19665.28
461.672	18934.15
461.878	20420.98
462.083	19196.29
462.289	18491.79
462.494	18297.24
462.7	17664.41
462.905	17125.8
463.111	17770.91
463.316	17504.67
463.522	17381.79
463.727	17428.9
463.932	17377.7
464.138	17258.92
464.343	17314.21
464.549	16796.07
464.754	17095.08
464.959	17322.4
465.165	16859.56
465.37	16128.44
465.575	15868.34
465.781	16654.76
465.986	16527.79
466.191	15958.46
466.397	15659.45
466.602	14895.56
466.807	15528.38
467.012	15333.82
467.218	15559.1
467.423	14969.29
467.628	15305.15
467.833	15858.1
468.038	15385.02
468.244	14836.17
468.449	15350.21
468.654	14977.48
468.859	14934.47
469.064	14735.82
469.269	14279.12
469.474	14318.03
469.679	14719.43
469.885	14246.35
470.09	14442.96
470.295	14350.8
470.5	13918.68
470.705	13984.21
470.91	13652.44
471.115	13517.28
471.32	13892.05
471.525	13677.02
471.73	13507.04
471.935	13269.47
472.139	12804.58
472.344	13156.83
472.549	12902.89
472.754	12755.43
472.959	12583.4
473.164	12296.69
473.369	12014.07
473.574	12671.47
473.778	12296.69
473.983	12524.01
474.188	12354.03
474.393	11655.67
474.598	11725.3
474.802	11717.11
475.007	11571.71
475.212	11446.78
475.417	11096.58
475.621	11174.4
475.826	11366.91
476.031	11084.29
476.235	10875.4
476.44	10981.89
476.645	10871.3
476.849	10902.02
477.054	10588.68
477.259	10586.63
477.463	10537.48
477.668	10222.09
477.872	10449.42
478.077	10193.42
478.282	10021.39
478.486	10150.42
478.691	9622.04
478.895	9822.74
479.1	9849.36
479.304	9568.79
479.509	9482.78
479.713	9601.56
479.918	9282.08
480.122	9218.59
480.326	9142.82
480.531	9339.42
480.735	9198.11
480.94	9409.05
481.144	9368.09
481.348	9120.29
481.553	9325.08
481.757	8917.54
481.961	9030.18
482.166	9212.45
482.37	8698.41
482.574	8905.25
482.778	8989.22
482.983	9241.12
483.187	8819.24
483.391	8938.02
483.595	8931.87
483.8	8835.62
484.004	8909.35
484.208	9093.66
484.412	9118.24
484.616	9028.13
484.821	9118.24
485.025	8747.56
485.229	8839.72
485.433	8899.11
485.637	8913.44
485.841	8866.34
486.045	8882.72
486.249	9024.03
486.453	8811.04
486.657	8995.36
486.861	9026.08
487.065	8835.62
487.269	8987.17
487.473	8694.31
487.677	9036.32
487.881	9030.18
488.085	9003.55
488.289	8905.25
488.493	8841.76
488.697	9032.22
488.901	8970.79
489.105	9085.47
489.309	8991.27
489.512	9077.28
489.716	8970.79
489.92	9056.8
490.124	8757.8
490.328	9216.54
490.531	9265.69
490.735	9226.78
490.939	9128.48
491.143	9320.99
491.346	9198.11
491.55	9364
491.754	9286.17
491.958	9464.35
492.161	9286.17
492.365	9423.39
492.569	9519.64
492.772	9521.69
492.976	9327.13
493.18	9611.8
493.383	9605.66
493.587	9761.3
493.79	9828.88
493.994	9642.52
494.197	9808.41
494.401	10005.01
494.605	9996.82
494.808	9994.77
495.012	10170.9
495.215	10136.08
495.419	10408.46
495.622	10193.42
495.825	10375.69
496.029	10398.22
496.232	10582.54
496.436	10600.97
496.639	10981.89
496.843	10715.66
497.046	11016.71
497.249	11139.58
497.453	11170.3
497.656	11145.73
497.859	11328
498.063	11315.71
498.266	11813.37
498.469	11555.32
498.673	11604.47
498.876	11821.56
499.079	11969.01
499.282	11848.18
499.485	12491.24
499.689	12368.37
499.892	12321.26
500.095	12505.58
500.298	12777.96
500.501	12476.91
500.705	13122.02
500.908	12941.8
501.111	13263.33
501.314	13363.68
501.517	13484.51
501.72	13795.8
501.923	13691.35
502.126	13904.34
502.329	14131.67
502.532	14244.31
502.735	14318.03
502.938	14641.61
503.141	14838.22
503.344	14952.9
503.547	15040.97
503.75	15026.63
503.953	15440.32
504.156	15503.81
504.359	15770.04
504.562	15677.88
504.765	16224.69
504.968	16118.2
505.17	16333.23
505.373	16384.43
505.576	16839.08
505.779	17105.32
505.982	17136.04
506.185	17285.54
506.387	17187.24
506.59	17545.63
506.793	17928.6
506.996	17654.17
507.198	18282.9
507.401	18266.52
507.604	18108.82
507.807	18897.29
508.009	18839.95
508.212	19147.14
508.415	19095.94
508.617	19235.21
508.82	19464.58
509.022	19378.56
509.225	19769.72
509.428	20097.4
509.63	20359.54
509.833	20230.52
510.035	20859.24
510.238	20826.48
510.44	20830.57
510.643	21258.6
510.845	21354.85
511.048	21477.73
511.25	21578.08
511.453	21778.78
511.655	22552.91
511.858	22249.82
512.06	22681.94
512.262	23003.47
512.465	22575.44
512.667	23120.2
512.87	23451.97
513.072	23230.79
513.274	23804.22
513.477	24095.03
513.679	24135.99
513.881	24267.06
514.084	24688.95
514.286	24770.86
514.488	24916.27
514.69	25395.5
514.893	25379.11
515.095	25663.78
515.297	25755.94
515.499	25905.44
515.701	26540.31
515.904	26593.56
516.106	26726.67
516.308	26896.66
516.51	27037.97
516.712	27226.38
516.914	27668.74
517.116	28025.09
517.318	28092.67
517.52	28172.54
517.722	28334.33
517.925	28952.82
518.127	29188.33
518.329	28936.43
518.531	29112.56
518.733	29841.64
518.935	29966.56
519.136	30077.15
519.338	30357.72
519.54	30423.26
519.742	30996.69
519.944	30822.61
520.146	31357.13
520.348	31660.23
520.55	31703.24
520.752	31779.01
520.954	32309.44
521.155	32116.93
521.357	32702.65
521.559	32575.67
521.761	33212.59
521.963	33173.68
522.164	33482.92
522.366	33718.44
522.568	34191.52
522.77	33962.15
522.971	34779.29
523.173	33894.57
523.375	34666.65
523.576	34746.52
523.778	34803.86
523.98	35348.62
524.181	35371.15
524.383	35403.92
524.584	35639.43
524.786	35760.26
524.988	35696.78
525.189	36034.69
525.391	36096.13
525.592	36219.01
525.794	36642.94
525.995	36333.7
526.197	36722.81
526.398	36933.75
526.6	37126.26
526.801	37101.68
527.003	37329.01
527.204	37374.06
527.406	37564.53
527.607	37582.96
527.808	38307.94
528.01	37253.23
528.211	37859.43
528.412	38174.82
528.614	38266.98
528.815	38328.42
529.016	38436.96
529.218	38115.43
529.419	38408.29
529.62	38281.31
529.822	38727.77
530.023	38598.75
530.224	38797.4
530.425	38738.01
530.626	38502.5
530.828	38680.67
531.029	39700.56
531.23	38543.45
531.431	38721.63
531.632	38844.51
531.833	38721.63
532.035	39301.2
532.236	39147.61
532.437	39086.17
532.638	39129.17
532.839	39700.56
533.04	39522.38
533.241	39235.67
533.442	39659.6
533.643	39202.9
533.844	39237.72
534.045	39026.78
534.246	38916.18
534.447	39686.22
534.648	39239.76
534.849	39172.18
535.05	39120.98
535.251	39405.65
535.451	39270.48
535.652	39579.73
535.853	39540.82
536.054	39628.88
536.255	39483.47
536.456	38760.54
536.657	39469.14
536.857	38998.1
537.058	39370.83
537.259	39667.79
537.46	39712.84
537.66	39346.26
537.861	39362.64
538.062	39123.03
538.263	39688.27
538.463	39163.99
538.664	39125.08
538.865	39196.76
539.065	39825.48
539.266	39051.35
539.466	39600.21
539.667	39037.01
539.868	39456.85
540.068	38858.84
540.269	39467.09
540.469	39110.74
540.67	38887.51
540.87	39139.41
541.071	38994.01
541.271	39198.8
541.472	39125.08
541.672	39315.54
541.873	38840.41
542.073	38613.09
542.274	39131.22
542.474	39131.22
542.675	38697.05
542.875	39458.9
543.075	38783.07
543.276	38844.51
543.476	39051.35
543.676	38828.12
543.877	39090.26
544.077	39454.8
544.277	38563.93
544.478	39108.69
544.678	39188.56
544.878	38991.96
545.078	39125.08
545.279	38666.33
545.479	38641.76
545.679	38672.48
545.879	38432.86
546.079	38508.64
546.28	39000.15
546.48	38434.91
546.68	38918.23
546.88	38738.01
547.08	38858.84
547.28	38572.13
547.48	38330.47
547.68	38467.68
547.88	38336.61
548.081	38690.91
548.281	38496.35
548.481	38510.69
548.681	38805.59
548.881	38326.37
549.081	38318.18
549.28	38443.1
549.48	38469.73
549.68	38561.89
549.88	39096.41
550.08	38365.28
550.28	38713.44
550.48	38479.97
550.68	39022.68
550.88	38443.1
551.08	38291.55
551.279	38441.06
551.479	38209.64
551.679	38498.4
551.879	38690.91
552.079	38572.13
552.278	37910.63
552.478	38350.95
552.678	38398.05
552.878	38381.66
553.077	38377.57
553.277	37810.28
553.477	38486.11
553.676	37892.2
553.876	38201.44
554.076	38094.95
554.275	38352.99
554.475	37347.44
554.674	38484.06
554.874	37965.93
555.074	37843.05
555.273	38164.58
555.473	38074.47
555.672	38301.79
555.872	37974.12
556.071	38236.26
556.271	38064.23
556.47	37730.41
556.67	37853.29
556.869	37795.95
557.068	37841
557.268	37752.94
557.467	37814.38
557.667	37705.84
557.866	37652.59
558.065	37580.91
558.265	37488.75
558.464	37542
558.663	37589.1
558.863	37400.69
559.062	37740.65
559.261	37056.63
559.461	37701.74
559.66	36892.79
559.859	37099.64
560.058	36931.7
560.258	37175.41
560.457	36845.69
560.656	36950.13
560.855	36958.33
561.054	37718.12
561.253	36800.63
561.453	37015.67
561.652	37369.97
561.851	36911.22
562.05	36382.85
562.249	36442.24
562.448	36970.61
562.647	36452.48
562.846	36587.64
563.045	36739.19
563.244	36302.98
563.443	36851.83
563.642	36153.47
563.841	36593.79
564.04	36176
564.239	36491.39
564.438	36030.6
564.637	36311.17
564.836	36485.25
565.035	35784.84
565.234	36085.89
565.432	35768.46
565.631	36010.12
565.83	36040.84
566.029	35786.89
566.228	35596.43
566.427	35635.34
566.625	35569.8
566.824	35332.24
567.023	35518.6
567.222	35055.76
567.42	35575.95
567.619	35098.77
567.818	35094.68
568.016	35219.6
568.215	35610.76
568.414	35023
568.612	35807.37
568.811	34793.62
569.01	35113.11
569.208	34377.89
569.407	34947.22
569.605	34697.37
569.804	34662.55
570.002	34494.62
570.201	34726.04
570.4	34314.4
570.598	34437.28
570.797	33958.05
570.995	34003.11
571.193	34060.45
571.392	34455.71
571.59	33724.58
571.789	33759.4
571.987	33814.69
572.186	33820.84
572.384	33648.81
572.582	33802.41
572.781	33562.79
572.979	33235.12
573.177	33265.84
573.376	33616.04
573.574	33138.86
573.772	33296.56
573.971	33179.82
574.169	33044.66
574.367	32630.97
574.565	32891.06
574.763	32739.51
574.962	32716.98
575.16	32409.79
575.358	32757.94
575.556	32174.27
575.754	32569.53
575.952	32469.18
576.151	32688.31
576.349	32493.75
576.547	32379.07
576.745	32233.66
576.943	31912.13
577.141	31770.82
577.339	32092.35
577.537	31588.55
577.735	32213.18
577.933	31420.62
578.131	31701.19
578.329	31750.34
578.527	31236.3
578.725	31785.16
578.923	31496.39
579.121	31453.39
579.319	31336.65
579.516	31008.98
579.714	31076.56
579.912	30826.71
580.11	30718.17
580.308	31086.8
580.506	30654.68
580.704	30517.47
580.901	30322.91
581.099	31205.58
581.297	30529.75
581.495	30468.31
581.692	30511.32
581.89	30075.1
582.088	30279.9
582.285	30032.1
582.483	30275.8
582.681	30228.7
582.878	29872.35
583.076	29528.3
583.274	30257.37
583.471	29567.21
583.669	29679.85
583.866	29616.36
584.064	29882.59
584.262	29214.96
584.459	29589.74
584.657	29409.51
584.854	29401.32
585.052	28711.16
585.249	29288.68
585.447	29128.94
585.644	28905.71
585.841	28690.68
586.039	28987.63
586.236	28508.41
586.434	28580.09
586.631	28244.22
586.828	28535.03
587.026	28772.6
587.223	28176.64
587.42	28377.34
587.618	28178.68
587.815	28029.18
588.012	27918.59
588.21	28147.97
588.407	28582.13
588.604	27775.23
588.801	27820.29
588.999	27633.92
589.196	27752.71
589.393	27617.54
589.59	27748.61
589.787	27470.09
589.984	27248.91
590.182	27181.32
590.379	27480.33
590.576	27076.88
590.773	26810.64
590.97	26923.28
591.167	27117.84
591.364	26730.77
591.561	26886.42
591.758	26632.47
591.955	26351.9
592.152	26804.5
592.349	26298.65
592.546	26542.36
592.743	26442.01
592.94	26331.42
593.137	26231.07
593.334	26239.26
593.531	25657.64
593.727	25747.75
593.924	25889.06
594.121	25426.21
594.318	25350.44
594.515	25391.4
594.712	25856.29
594.908	25301.29
595.105	25856.29
595.302	25305.38
595.499	25243.95
595.696	25291.05
595.892	24951.09
596.089	25485.61
596.286	25137.45
596.482	24756.53
596.679	24754.48
596.876	24916.27
597.072	24576.31
597.269	24590.64
597.466	24652.08
597.662	24363.32
597.859	24686.9
598.055	24521.01
598.252	24101.18
598.448	24367.41
598.645	24297.78
598.841	23918.91
599.038	24174.91
599.234	24363.32
599.431	24068.41
599.627	23497.03
599.824	24080.7
600.02	23613.76
600.217	23726.4
600.413	23333.19
600.609	23517.51
600.806	23392.58
601.002	23789.89
601.198	23599.43
601.395	23109.96
601.591	23339.33
601.787	23169.35
601.984	23171.4
602.18	23101.77
602.376	22911.31
602.572	22669.65
602.769	22702.42
602.965	22632.79
603.161	22772.05
603.357	22632.79
603.553	22473.04
603.75	22743.38
603.946	22223.19
604.142	22417.75
604.338	21950.81
604.534	22354.26
604.73	22262.1
604.926	21805.41
605.122	21926.24
605.318	22034.78
605.514	21520.74
605.71	21522.79
605.906	21741.92
606.102	21829.98
606.298	21678.43
606.494	21612.9
606.69	21932.38
606.886	21670.24
607.082	21430.63
607.278	21440.87
607.474	21145.96
607.67	21330.28
607.866	21023.08
608.062	21391.72
608.257	20728.17
608.453	21365.09
608.649	20928.88
608.845	20857.2
609.041	21111.14
609.236	21227.88
609.432	21203.3
609.628	20707.69
609.824	21018.99
610.019	20816.24
610.215	20533.62
610.411	20593.01
610.606	20707.69
610.802	20756.85
610.998	20302.2
611.193	20746.61
611.389	20261.24
611.584	20396.4
611.78	20226.42
611.976	20703.6
612.171	20476.27
612.367	20513.14
612.562	20259.19
612.758	20171.13
612.953	20089.21
613.149	20396.4
613.344	20011.39
613.539	20468.08
613.735	20111.74
613.93	20031.86
614.126	19980.67
614.321	20113.78
614.517	20052.34
614.712	20003.19
614.907	19581.31
615.103	19513.73
615.298	19796.35
615.493	19970.43
615.688	19278.21
615.884	19796.35
616.079	19392.9
616.274	19657.09
616.47	19501.44
616.665	19624.32
616.86	19513.73
617.055	19319.17
617.25	19448.19
617.445	19554.69
617.641	19181.96
617.836	19345.8
618.031	19184.01
618.226	19116.42
618.421	18776.46
618.616	18987.4
618.811	18966.92
619.006	19100.04
619.201	18581.9
619.396	18778.51
619.591	18629.01
619.786	18641.29
619.981	18528.66
620.176	18866.57
620.371	18411.92
620.566	18559.38
620.761	18102.68
620.956	18280.85
621.151	17961.37
621.346	18096.53
621.541	17766.81
621.735	17961.37
621.93	17516.96
622.125	17807.77
622.32	17609.12
622.515	17506.72
622.709	17226.15
622.904	17521.06
623.099	17207.72
623.294	17377.7
623.488	16994.73
623.683	16898.47
623.878	16619.95
624.072	16781.74
624.267	16556.46
624.462	16656.81
624.656	16392.62
624.851	16912.81
625.046	16376.24
625.24	16413.1
625.435	16388.53
625.629	16128.44
625.824	16255.41
626.018	16081.33
626.213	15456.7
626.407	15729.08
626.602	15434.18
626.796	15692.22
626.991	15901.11
627.185	15653.31
627.38	15419.84
627.574	15321.54
627.768	15094.21
627.963	15122.88
628.157	15045.06
628.352	15192.51
628.546	14836.17
628.74	14836.17
628.935	14975.43
629.129	14789.06
629.323	14647.76
629.517	14576.08
629.712	14670.28
629.906	14272.98
630.1	14148.05
630.294	14369.23
630.489	14170.58
630.683	14442.96
630.877	14037.46
631.071	13904.34
631.265	13885.91
631.459	13922.77
631.653	13662.68
631.848	13593.05
632.042	13517.28
632.236	13599.2
632.43	13568.48
632.624	13720.03
632.818	13292
633.012	13087.2
633.206	13269.47
633.4	13009.38
633.594	12917.22
633.788	13050.34
633.982	13052.39
634.176	12960.23
634.369	12777.96
634.563	12745.19
634.757	12556.78
634.951	12706.28
635.145	12362.22
635.339	12642.79
635.533	12614.12
635.726	12370.41
635.92	12392.94
636.114	12388.85
636.308	12050.93
636.501	12040.69
636.695	12130.8
636.889	12050.93
637.083	11885.05
637.276	11911.67
637.47	11938.29
637.664	11473.4
637.857	11610.62
638.051	11698.68
638.244	11473.4
638.438	11461.12
638.632	11422.2
638.825	11354.62
639.019	11366.91
639.212	11276.8
639.406	11201.02
639.599	11178.5
639.793	11223.55
639.986	10967.56
640.18	11022.85
640.373	10930.69
640.567	10742.28
640.76	10744.33
640.954	10672.65
641.147	10678.79
641.34	10619.4
641.534	10461.71
641.727	10351.12
641.92	10678.79
642.114	10392.08
642.307	10273.29
642.5	10357.26
642.694	10181.14
642.887	10289.68
643.08	10281.49
643.273	10174.99
643.467	10076.69
643.66	10002.96
643.853	10211.85
644.046	9855.51
644.239	9964.05
644.432	9939.48
644.626	9736.73
644.819	9527.83
645.012	9699.86
645.205	9585.18
645.398	9439.77
645.591	9357.85
645.784	9431.58
645.977	9308.7
646.17	9300.51
646.363	9366.04
646.556	9318.94
646.749	9095.71
646.942	9271.84
647.135	9126.43
647.328	9011.75
647.521	8954.4
647.714	8847.91
647.907	8862.24
648.099	8802.85
648.292	8722.98
648.485	8825.38
648.678	8706.6
648.871	8612.39
649.064	8563.24
649.256	8639.01
649.449	8587.82
649.642	8485.42
649.835	8415.79
650.027	8538.66
650.22	8358.44
650.413	8495.66
650.605	8383.02
650.798	8266.28
650.991	8094.26
651.183	8032.82
651.376	7985.71
651.568	8020.53
651.761	8110.64
651.954	7950.9
652.146	7938.61
652.339	7807.54
652.531	7815.73
652.724	7768.63
652.916	7744.05
653.109	7723.57
653.301	7647.8
653.494	7813.68
653.686	7451.19
653.879	7508.54
654.071	7586.36
654.263	7465.53
654.456	7770.68
654.648	7383.61
654.84	7475.77
655.033	7287.36
655.225	7246.4
655.417	7103.04
655.61	7152.19
655.802	7168.57
655.994	7221.82
656.186	7199.29
656.379	7152.19
656.571	6947.39
656.763	6783.56
656.955	7225.92
657.148	7086.65
657.34	6951.49
657.532	6832.71
657.724	6775.36
657.916	6892.1
658.108	6818.37
658.3	6728.26
658.492	6720.07
658.684	6662.72
658.876	6851.14
659.068	6668.87
659.26	6625.86
659.452	6535.75
659.644	6363.72
659.836	6455.88
660.028	6328.91
660.22	6359.63
660.412	6472.26
660.604	6373.96
660.796	6345.29
660.988	6171.21
661.18	6263.37
661.372	6034
661.563	6394.44
661.755	6167.12
661.947	6224.46
662.139	5966.42
662.331	6218.32
662.522	5890.64
662.714	6038.09
662.906	6124.11
663.097	5952.08
663.289	5966.42
663.481	5886.54
663.673	5778
663.864	5794.39
664.056	5851.73
664.247	5618.26
664.439	5704.28
664.631	5882.45
664.822	5689.94
665.014	5689.94
665.205	5784.15
665.397	5718.61
665.588	5735
665.78	5481.05
665.971	5501.53
666.163	5577.3
666.354	5427.8
666.546	5530.2
666.737	5343.83
666.929	5448.28
667.12	5448.28
667.311	5374.55
667.503	5212.76
667.694	5485.14
667.885	5349.98
668.077	5366.36
668.268	5194.33
668.459	5278.3
668.651	5284.44
668.842	5141.08
669.033	5022.3
669.224	5292.63
669.416	5069.41
669.607	5214.81
669.798	5038.69
669.989	5042.78
670.18	4909.66
670.371	4948.58
670.563	5034.59
670.754	5034.59
670.945	5005.92
671.136	4823.65
671.327	4858.46
671.518	4905.57
671.709	4842.08
671.9	4915.81
672.091	4719.2
672.282	4522.6
672.473	4880.99
672.664	4835.94
672.855	4801.12
673.046	4772.45
673.237	4803.17
673.428	4690.53
673.619	4665.96
673.809	4663.91
674	4741.73
674.191	4637.28
674.382	4608.61
674.573	4657.76
674.764	4598.37
674.954	4770.4
675.145	4563.56
675.336	4530.79
675.527	4504.17
675.717	4428.39
675.908	4299.37
676.099	4477.54
676.289	4608.61
676.48	4362.86
676.671	4483.69
676.861	4418.15
677.052	4399.72
677.243	4446.82
677.433	4248.17
677.624	4424.3
677.814	4293.23
678.005	4342.38
678.195	4344.42
678.386	4252.27
678.576	4260.46
678.767	4246.12
678.957	4266.6
679.148	4391.53
679.338	4252.27
679.529	4369
679.719	4113
679.909	4137.58
680.1	4172.39
680.29	4125.29
680.481	4239.98
680.671	4186.73
680.861	4223.59
681.052	4244.07
681.242	4221.55
681.432	4121.2
681.622	4057.71
681.813	4229.74
682.003	4219.5
682.193	4029.04
682.383	4115.05
682.573	4166.25
682.764	4059.76
682.954	4059.76
683.144	4039.28
683.334	4067.95
683.524	3936.88
683.714	4110.96
683.904	4055.66
684.094	3908.21
684.284	4002.41
684.474	4088.43
684.664	3981.93
684.854	3883.63
685.044	3897.97
685.234	3910.25
685.424	3959.41
685.614	3959.41
685.804	3940.97
685.994	3818.1
686.184	3783.28
686.374	3775.09
686.564	3908.21
686.753	3701.36
686.943	3777.14
687.133	3750.51
687.323	3746.42
687.513	3814
687.702	3672.69
687.892	3703.41
688.082	3711.6
688.272	3721.84
688.461	3609.2
688.651	3596.92
688.841	3605.11
689.03	3717.75
689.22	3635.83
689.41	3498.61
689.599	3510.9
689.789	3519.09
689.979	3539.57
690.168	3572.34
690.358	3437.17
690.547	3469.94
690.737	3465.85
690.926	3525.24
691.116	3334.78
691.305	3539.57
691.495	3453.56
691.684	3467.89
691.874	3295.86
692.063	3342.97
692.252	3345.02
692.442	3502.71
692.631	3367.54
692.82	3291.77
693.01	3347.06
693.199	3285.62
693.388	3449.46
693.578	3148.41
693.767	3129.98
693.956	3121.79
694.146	3283.58
694.335	3211.9
694.524	3158.65
694.713	3091.07
694.902	3154.55
695.092	3197.56
695.281	3150.46
695.47	3187.32
695.659	3013.24
695.848	3080.83
696.037	3113.6
696.226	3138.17
696.415	3007.1
696.604	3166.84
696.793	3080.83
696.982	3080.83
697.171	2974.33
697.36	3041.92
697.549	2941.57
697.738	3097.21
697.927	2966.14
698.116	3037.82
698.305	2957.95
698.494	2972.29
698.683	2994.81
698.872	2955.9
699.061	3029.63
699.25	3021.44
699.438	2890.37
699.627	2984.57
699.816	3003
700.005	2873.98
700.193	2771.58
700.382	2914.94
700.571	2878.08
700.76	2960
700.948	2976.38
701.137	3031.68
701.326	3041.92
701.514	2810.5
701.703	3015.29
701.892	2892.41
702.08	2943.61
702.269	2873.98
702.457	2896.51
702.646	2927.23
702.834	2736.77
703.023	2953.85
703.212	2998.91
703.4	2855.55
703.589	2886.27
703.777	2820.74
703.965	2851.46
704.154	2828.93
704.342	2730.62
704.531	2804.35
704.719	2687.62
704.907	2814.59
705.096	2761.34
705.284	2783.87
705.472	2845.31
705.661	2665.09
705.849	2908.8
706.037	2830.98
706.226	2706.05
706.414	2671.23
706.602	2744.96
706.79	2744.96
706.979	2673.28
707.167	2804.35
707.355	2744.96
707.543	2773.63
707.731	2724.48
707.919	2779.78
708.107	2695.81
708.296	2648.71
708.484	2671.23
708.672	2785.92
708.86	2720.39
709.048	2798.21
709.236	2630.27
709.424	2785.92
709.612	2689.67
709.8	2695.81
709.988	2660.99
710.176	2751.1
710.364	2744.96
710.551	2701.95
710.739	2558.6
710.927	2630.27
711.115	2620.03
711.303	2712.19
711.491	2658.95
711.679	2632.32
711.866	2679.43
712.054	2626.18
712.242	2540.16
712.43	2587.27
712.617	2585.22
712.805	2564.74
712.993	2484.87
713.181	2507.4
713.368	2587.27
713.556	2630.27
713.744	2572.93
713.931	2638.47
714.119	2499.2
714.306	2554.5
714.494	2720.39
714.682	2552.45
714.869	2470.53
715.057	2601.6
715.244	2589.32
715.432	2654.85
715.619	2572.93
715.807	2589.32
715.994	2581.12
716.182	2540.16
716.369	2525.83
716.556	2624.13
716.744	2593.41
716.931	2431.62
717.119	2484.87
717.306	2589.32
717.493	2515.59
717.681	2544.26
717.868	2574.98
718.055	2540.16
718.242	2534.02
718.43	2534.02
718.617	2511.49
718.804	2617.99
718.991	2587.27
719.179	2609.79
719.366	2534.02
719.553	2531.97
719.74	2452.1
719.927	2466.44
720.114	2531.97
720.301	2478.72
720.488	2574.98
720.676	2648.71
720.863	2529.92
721.05	2429.57
721.237	2458.25
721.424	2491.01
721.611	2564.74
721.798	2413.19
721.985	2523.78
722.172	2435.72
722.358	2421.38
722.545	2493.06
722.732	2462.34
722.919	2529.92
723.106	2357.89
723.293	2499.2
723.48	2409.09
723.667	2583.17
723.853	2370.18
724.04	2548.36
724.227	2515.59
724.414	2298.5
724.6	2560.64
724.787	2462.34
724.974	2443.91
725.161	2462.34
725.347	2392.71
725.534	2380.42
725.72	2409.09
725.907	2523.78
726.094	2415.24
726.28	2419.33
726.467	2437.77
726.653	2321.03
726.84	2402.95
727.027	2435.72
727.213	2364.04
727.4	2474.63
727.586	2380.42
727.773	2437.77
727.959	2353.8
728.145	2441.86
728.332	2390.66
728.518	2417.29
728.705	2499.2
728.891	2466.44
729.077	2388.61
729.264	2245.26
729.45	2468.48
729.636	2458.25
729.823	2396.81
730.009	2450.05
730.195	2405
730.382	2427.53
730.568	2413.19
730.754	2376.33
730.94	2433.67
731.126	2583.17
731.313	2337.41
731.499	2335.37
731.685	2312.84
731.871	2304.65
732.057	2368.13
732.243	2466.44
732.429	2351.75
732.615	2355.85
732.801	2427.53
732.987	2331.27
733.173	2450.05
733.359	2204.3
733.545	2296.46
733.731	2359.94
733.917	2384.52
734.103	2296.46
734.289	2359.94
734.475	2437.77
734.661	2351.75
734.847	2478.72
735.033	2329.22
735.219	2355.85
735.404	2341.51
735.59	2271.88
735.776	2294.41
735.962	2335.37
736.148	2376.33
736.333	2316.94
736.519	2318.98
736.705	2163.34
736.89	2288.26
737.076	2278.02
737.262	2310.79
737.447	2294.41
737.633	2245.26
737.819	2265.74
738.004	2187.91
738.19	2265.74
738.375	2364.04
738.561	2339.46
738.747	2286.22
738.932	2247.3
739.118	2368.13
739.303	2159.24
739.489	2192.01
739.674	2185.87
739.859	2222.73
740.045	2101.9
740.23	2206.35
740.416	2179.72
740.601	2167.43
740.786	2173.58
740.972	2235.02
741.157	2048.65
741.342	2185.87
741.528	2241.16
741.713	2151.05
741.898	2224.78
742.084	2048.65
742.269	2189.96
742.454	2271.88
742.639	2226.82
742.824	2198.15
743.01	2099.85
743.195	2007.69
743.38	2081.42
743.565	2157.19
743.75	2187.91
743.935	2083.47
744.12	2024.08
744.305	2003.6
744.49	2038.41
744.675	2032.27
744.86	2087.56
745.045	1946.25
745.23	2073.23
745.415	2073.23
745.6	1991.31
745.785	2001.55
745.97	2050.7
746.155	1921.68
746.34	1954.44
746.525	1933.97
746.71	1950.35
746.895	1862.29
747.079	1868.43
747.264	1837.71
747.449	1983.12
747.634	1878.67
747.819	1864.33
748.003	1872.53
748.188	1772.18
748.373	1819.28
748.557	1821.33
748.742	1745.55
748.927	1677.97
749.111	1684.11
749.296	1680.02
749.481	1757.84
749.665	1706.64
749.85	1702.54
750.034	1786.51
750.219	1747.6
750.404	1725.07
750.588	1702.54
750.773	1729.17
750.957	1651.35
751.141	1634.96
751.326	1634.96
751.51	1602.19
751.695	1594
751.879	1610.39
752.064	1720.98
752.248	1616.53
752.432	1612.43
752.617	1536.66
752.801	1655.44
752.985	1491.6
753.17	1540.76
753.354	1524.37
753.538	1561.23
753.722	1399.45
753.907	1413.78
754.091	1368.73
754.275	1438.36
754.459	1583.76
754.643	1385.11
754.828	1479.32
755.012	1411.73
755.196	1426.07
755.38	1471.12
755.564	1325.72
755.748	1409.69
755.932	1387.16
756.116	1356.44
756.3	1270.42
756.484	1286.81
756.668	1415.83
756.852	1243.8
757.036	1335.96
757.22	1241.75
757.404	1321.62
757.588	1165.98
757.772	1264.28
757.956	1223.32
758.14	1319.57
758.323	1254.04
758.507	1323.67
758.691	1245.85
758.875	1217.18
759.059	1247.9
759.242	1204.89
759.426	1307.29
759.61	1297.05
759.794	1147.55
759.977	1135.26
760.161	1295
760.345	1204.89
760.528	1172.12
760.712	1159.83
760.895	1116.83
761.079	1213.08
761.263	1082.01
761.446	1172.12
761.63	1086.11
761.813	1057.43
761.997	979.61
762.18	1106.59
762.364	1143.45
762.547	1063.58
762.731	1100.44
762.914	1032.86
763.098	1116.83
763.281	1100.44
763.464	1047.19
763.648	1063.58
763.831	1026.71
764.015	987.8
764.198	1082.01
764.381	1043.1
764.564	1096.35
764.748	1002.14
764.931	1112.73
765.114	942.75
765.297	1049.24
765.481	928.41
765.664	897.69
765.847	920.22
766.03	1024.67
766.213	989.85
766.397	991.9
766.58	1045.15
766.763	975.52
766.946	940.7
767.129	952.99
767.312	905.88
767.495	903.84
767.678	950.94
767.861	965.28
768.044	950.94
768.227	967.32
768.41	1000.09
768.593	975.52
768.776	967.32
768.959	901.79
769.142	909.98
769.324	909.98
769.507	866.97
769.69	852.64
769.873	1002.14
770.056	952.99
770.239	862.88
770.421	971.42
770.604	879.26
770.787	895.64
770.97	889.5
771.152	787.1
771.335	836.25
771.518	912.03
771.7	856.73
771.883	795.29
772.066	834.21
772.248	823.97
772.431	879.26
772.613	740
772.796	832.16
772.978	793.25
773.161	840.35
773.343	791.2
773.526	731.81
773.708	715.42
773.891	717.47
774.073	696.99
774.256	729.76
774.438	817.82
774.621	707.23
774.803	762.53
774.985	772.77
775.168	813.73
775.35	643.74
775.532	731.81
775.715	635.55
775.897	672.42
776.079	719.52
776.261	729.76
776.444	754.34
776.626	731.81
776.808	668.32
776.99	649.89
777.173	639.65
777.355	643.74
777.537	680.61
777.719	680.61
777.901	713.38
778.083	699.04
778.265	688.8
778.447	690.85
778.629	641.7
778.811	672.42
778.993	631.46
779.175	559.78
779.357	520.87
779.539	561.83
779.721	586.4
779.903	664.22
780.085	576.16
780.267	623.27
780.449	606.88
780.631	549.54
780.812	547.49
780.994	541.35
781.176	608.93
781.358	512.67
781.54	508.58
781.721	449.19
781.903	584.35
782.085	580.26
782.267	604.83
782.448	549.54
782.63	516.77
782.812	549.54
782.993	479.91
783.175	615.07
783.357	498.34
783.538	494.24
783.72	451.24
783.901	520.87
784.083	529.06
784.264	553.63
784.446	453.28
784.627	524.96
784.809	459.43
784.99	463.52
785.172	465.57
785.353	443.04
785.535	445.09
785.716	484
785.897	514.72
786.079	471.72
786.26	397.99
786.441	422.56
786.623	430.76
786.804	527.01
786.985	387.75
787.167	434.85
787.348	361.13
787.529	492.2
787.71	510.63
787.891	473.76
788.073	365.22
788.254	369.32
788.435	379.56
788.616	428.71
788.797	369.32
788.978	438.95
789.159	389.8
789.34	348.84
789.522	426.66
789.703	369.32
789.884	402.08
790.065	344.74
790.246	406.18
790.427	416.42
790.607	406.18
790.788	340.65
790.969	307.88
791.15	352.93
791.331	326.31
791.512	303.78
791.693	393.89
791.874	326.31
792.054	397.99
792.235	354.98
792.416	311.97
792.597	228.01
792.778	418.47
792.958	320.17
793.139	328.36
793.32	330.41
793.5	316.07
793.681	346.79
793.862	406.18
794.042	307.88
794.223	287.4
794.404	375.46
794.584	283.3
794.765	291.49
794.945	307.88
795.126	350.89
795.306	305.83
795.487	311.97
795.667	232.1
795.848	316.07
796.028	289.45
796.209	350.89
796.389	316.07
796.57	266.92
796.75	238.25
796.93	320.17
797.111	248.49
797.291	246.44
797.471	279.21
797.652	311.97
797.832	256.68
798.012	287.4
798.192	221.86
798.373	316.07
798.553	203.43
798.733	322.21
798.913	240.29
799.093	303.78
799.274	338.6
799.454	250.53
799.634	244.39
799.814	342.69
799.994	275.11
800.174	307.88
800.354	262.82
800.534	271.01
800.714	299.69
800.894	199.34
801.074	215.72
801.254	250.53
801.434	254.63
801.614	234.15
801.794	203.43
801.974	828.06
802.154	279.21
802.334	373.41
802.514	203.43
802.693	289.45
802.873	254.63
803.053	262.82
803.233	197.29
803.413	219.82
803.592	197.29
803.772	240.29
803.952	191.14
804.131	176.81
804.311	230.06
804.491	209.58
804.67	240.29
804.85	189.1
805.03	287.4
805.209	307.88
805.389	180.9
805.568	164.52
805.748	238.25
805.928	250.53
806.107	178.86
806.287	301.73
806.466	166.57
806.646	148.14
806.825	172.71
807.004	156.33
807.184	256.68
807.363	182.95
807.543	250.53
807.722	205.48
807.901	221.86
808.081	221.86
808.26	119.46
808.439	185
808.619	180.9
808.798	148.14
808.977	262.82
809.156	213.67
809.336	150.18
809.515	205.48
809.694	168.62
809.873	131.75
810.052	205.48
810.231	164.52
810.411	217.77
810.59	223.91
810.769	172.71
810.948	119.46
811.127	141.99
811.306	129.7
811.485	213.67
811.664	160.42
811.843	232.1
812.022	164.52
812.201	150.18
812.38	144.04
812.559	217.77
812.737	213.67
812.916	162.47
813.095	115.37
813.274	146.09
813.453	115.37
813.632	164.52
813.811	185
813.989	144.04
814.168	150.18
814.347	164.52
814.526	164.52
814.704	131.75
814.883	205.48
815.062	107.18
815.24	223.91
815.419	141.99
815.598	131.75
815.776	146.09
815.955	182.95
816.133	115.37
816.312	148.14
816.49	109.22
816.669	119.46
816.847	53.93
817.026	68.27
817.204	217.77
817.383	135.85
817.561	141.99
817.74	133.8
817.918	144.04
818.097	156.33
818.275	156.33
818.453	131.75
818.632	156.33
818.81	49.83
818.988	141.99
819.167	94.89
819.345	164.52
819.523	139.94
819.701	90.79
819.879	234.15
820.058	191.14
820.236	172.71
820.414	148.14
820.592	172.71
820.77	150.18
820.948	164.52
821.127	119.46
821.305	92.84
821.483	92.84
821.661	158.38
821.839	94.89
822.017	115.37
822.195	74.41
822.373	90.79
822.551	98.99
822.729	96.94
822.907	78.51
823.085	199.34
823.262	109.22
823.44	82.6
823.618	66.22
823.796	131.75
823.974	86.7
824.152	160.42
824.329	115.37
824.507	148.14
824.685	64.17
824.863	121.51
825.04	135.85
825.218	107.18
825.396	156.33
825.574	84.65
825.751	62.12
825.929	156.33
826.107	27.31
826.284	160.42
826.462	148.14
826.639	131.75
826.817	60.07
826.994	111.27
827.172	4.78
827.349	135.85
827.527	137.9
827.704	123.56
827.882	66.22
828.059	62.12
828.237	84.65
828.414	101.03
828.591	51.88
828.769	168.62
828.946	25.26
829.124	150.18
829.301	123.56
829.478	152.23
829.655	70.31
829.833	107.18
830.01	33.45
830.187	162.47
830.364	117.42
830.542	94.89
830.719	119.46
830.896	135.85
831.073	45.74
831.25	98.99
831.427	111.27
831.604	98.99
831.782	80.55
831.959	10.92
832.136	49.83
832.313	139.94
832.49	96.94
832.667	76.46
832.844	98.99
833.021	119.46
833.198	25.26
833.374	115.37
833.551	92.84
833.728	215.72
833.905	109.22
834.082	98.99
834.259	88.75
834.436	148.14
834.612	47.79
834.789	66.22
834.966	90.79
835.143	-32.08
835.319	58.03
835.496	88.75
835.673	164.52
835.85	131.75
836.026	94.89
836.203	84.65
836.38	51.88
836.556	27.31
836.733	90.79
836.909	78.51
837.086	49.83
837.262	43.69
837.439	21.16
837.616	92.84
837.792	74.41
837.968	45.74
838.145	45.74
838.321	49.83
838.498	17.07
838.674	117.42
838.851	82.6
839.027	23.21
839.203	35.5
839.38	76.46
839.556	31.4
839.732	176.81
839.909	103.08
840.085	72.36
840.261	84.65
840.437	119.46
840.614	-7.51
840.79	101.03
840.966	170.66
841.142	62.12
841.318	17.07
841.494	98.99
841.671	23.21
841.847	70.31
842.023	53.93
842.199	90.79
842.375	107.18
842.551	8.87
842.727	12.97
842.903	45.74
843.079	70.31
843.255	139.94
843.431	51.88
843.607	66.22
843.783	-38.23
843.959	60.07
844.134	55.98
844.31	115.37
844.486	78.51
844.662	62.12
844.838	55.98
845.013	115.37
845.189	105.13
845.365	49.83
845.541	25.26
845.716	78.51
845.892	51.88
846.068	29.35
846.244	141.99
846.419	86.7
846.595	37.55
846.77	123.56
846.946	78.51
847.122	121.51
847.297	68.27
847.473	84.65
847.648	-40.28
847.824	80.55
847.999	-36.18
848.175	53.93
848.35	94.89
848.526	125.61
848.701	76.46
848.876	158.38
849.052	92.84
849.227	-23.89
849.403	31.4
849.578	66.22
849.753	33.45
849.929	0.68
850.104	62.12
850.279	86.7
850.454	0.68
850.63	66.22
850.805	76.46
850.98	133.8
851.155	33.45
851.33	74.41
851.505	23.21
851.681	84.65
851.856	92.84
852.031	41.64
852.206	96.94
852.381	-5.46
852.556	29.35
852.731	-30.04
852.906	19.11
853.081	133.8
853.256	76.46
853.431	0.68
853.606	47.79
853.781	109.22
853.956	-11.61
854.131	31.4
854.305	66.22
854.48	62.12
854.655	4.78
854.83	27.31
855.005	90.79
855.18	107.18
855.354	-5.46
855.529	17.07
855.704	4.78
855.879	101.03
856.053	37.55
856.228	41.64
856.403	39.59
856.577	150.18
856.752	78.51
856.926	70.31
857.101	17.07
857.276	-52.56
857.45	39.59
857.625	-25.94
857.799	29.35
857.974	41.64
858.148	19.11
858.323	-7.51
858.497	43.69
858.672	123.56
858.846	10.92
859.02	82.6
859.195	17.07
859.369	37.55
859.543	29.35
859.718	35.5
859.892	-1.37
860.066	74.41
860.241	21.16
860.415	49.83
860.589	-7.51
860.763	-5.46
860.938	27.31
861.112	43.69
861.286	-54.61
861.46	8.87
861.634	29.35
861.808	101.03
861.982	10.92
862.157	8.87
862.331	64.17
862.505	43.69
862.679	0.68
862.853	-17.75
863.027	31.4
863.201	92.84
863.375	2.73
863.549	21.16
863.722	27.31
863.896	144.04
864.07	23.21
864.244	27.31
864.418	4.78
864.592	25.26
864.766	39.59
864.939	62.12
865.113	4.78
865.287	47.79
865.461	33.45
865.634	84.65
865.808	41.64
865.982	66.22
866.156	74.41
866.329	8.87
866.503	-21.85
866.676	51.88
866.85	60.07
867.024	47.79
867.197	0.68
867.371	27.31
867.544	-38.23
867.718	43.69
867.891	109.22
868.065	70.31
868.238	88.75
868.412	45.74
868.585	8.87
868.759	66.22
868.932	17.07
869.105	-52.56
869.279	-75.09
869.452	25.26
869.625	51.88
869.799	21.16
869.972	-1.37
870.145	60.07
870.319	-25.94
870.492	35.5
870.665	64.17
870.838	25.26
871.011	19.11
871.185	10.92
871.358	-36.18
871.531	43.69
871.704	8.87
871.877	58.03
872.05	35.5
872.223	-48.47
872.396	19.11
872.569	2.73
872.742	-11.61
872.915	74.41
873.088	33.45
873.261	-40.28
873.434	92.84
873.607	90.79
873.78	98.99
873.953	41.64
874.126	60.07
874.299	68.27
874.471	-27.99
874.644	0.68
874.817	60.07
874.99	68.27
875.163	-13.65
875.335	90.79
875.508	19.11
875.681	37.55
875.853	66.22
876.026	-7.51
876.199	29.35
876.371	-17.75
876.544	92.84
876.717	53.93
876.889	-23.89
877.062	86.7
877.234	-7.51
877.407	58.03
877.579	-7.51
877.752	39.59
877.924	25.26
878.097	60.07
878.269	29.35
878.442	-46.42
878.614	17.07
878.786	25.26
878.959	17.07
879.131	-7.51
879.303	-27.99
879.476	72.36
879.648	41.64
879.82	-23.89
879.993	-5.46
880.165	21.16
880.337	-40.28
880.509	8.87
880.681	-32.08
880.854	98.99
881.026	70.31
881.198	98.99
881.37	68.27
881.542	45.74
881.714	19.11
881.886	15.02
882.058	-11.61
882.23	-11.61
882.402	17.07
882.574	43.69
882.746	64.17
882.918	37.55
883.09	45.74
883.262	68.27
883.434	68.27
883.606	-7.51
883.778	27.31
883.95	25.26
884.122	8.87
884.293	51.88
884.465	33.45
884.637	68.27
884.809	-21.85
884.98	19.11
885.152	35.5
885.324	-9.56
885.496	17.07
885.667	17.07
885.839	27.31
886.011	74.41
886.182	-42.32
886.354	84.65
886.525	55.98
886.697	-5.46
886.869	10.92
887.04	35.5
887.212	41.64
887.383	49.83
887.555	8.87
887.726	37.55
887.897	64.17
888.069	-25.94
888.24	37.55
888.412	37.55
888.583	-30.04
888.754	19.11
888.926	66.22
889.097	-23.89
889.268	-48.47
889.44	8.87
889.611	-48.47
889.782	-27.99
889.953	4.78
890.125	27.31
890.296	-32.08
890.467	8.87
890.638	23.21
890.809	2.73
890.98	27.31
891.151	21.16
891.323	109.22
891.494	-15.7
891.665	-11.61
891.836	27.31
892.007	37.55
892.178	17.07
892.349	6.83
892.52	15.02
892.691	4.78
892.862	68.27
893.032	-101.72
893.203	23.21
893.374	31.4
893.545	-3.41
893.716	23.21
893.887	74.41
894.057	45.74
894.228	27.31
894.399	8.87
894.57	74.41
894.74	35.5
894.911	2.73
895.082	-25.94
895.253	19.11
895.423	33.45
895.594	-17.75
895.764	74.41
895.935	49.83
896.106	-54.61
896.276	-44.37
896.447	-11.61
896.617	-34.13
896.788	-15.7
896.958	51.88
897.129	4.78
897.299	21.16
897.47	76.46
897.64	-15.7
897.81	68.27
897.981	51.88
898.151	21.16
898.322	60.07
898.492	84.65
898.662	19.11
898.832	-13.65
899.003	-1.37
899.173	19.11
899.343	41.64
899.513	12.97
