Data from USB4F104151__307__14-24-09-909.txt Node

Date: Thu Mar 13 14:24:09 EDT 2025
User: louis
Spectrometer: USB4F10415
Trigger mode: 4
Integration Time (sec): 2.000000E-2
Scans to average: 1
Electric dark correction enabled: true
Nonlinearity correction enabled: false
Boxcar width: 0
XAxis mode: Wavelengths
Number of Pixels in Spectrum: 3648
>>>>>Begin Spectral Data<<<<<
178.204	-115.37
178.424	-115.37
178.644	-115.37
178.864	-123.56
179.084	-115.37
179.304	23.89
179.524	19.8
179.744	27.99
179.964	66.9
180.184	-31.4
180.404	-41.64
180.624	-47.79
180.844	-17.07
181.064	-39.59
181.283	52.56
181.503	-70.31
181.723	56.66
181.943	-49.83
182.163	50.52
182.383	52.56
182.602	50.52
182.822	48.47
183.042	64.85
183.262	15.7
183.482	15.7
183.701	-23.21
183.921	9.56
184.141	17.75
184.361	114
184.58	48.47
184.8	66.9
185.02	-12.97
185.239	25.94
185.459	44.37
185.679	56.66
185.898	-96.94
186.118	116.05
186.338	3.41
186.557	93.52
186.777	36.18
186.997	-12.97
187.216	-15.02
187.436	60.76
187.655	-10.92
187.875	71
188.095	73.04
188.314	89.43
188.534	52.56
188.753	17.75
188.973	-0.68
189.192	48.47
189.412	124.24
189.631	50.52
189.851	-8.87
190.07	27.99
190.29	1.37
190.509	-39.59
190.729	66.9
190.948	75.09
191.168	169.3
191.387	-21.16
191.607	-23.21
191.826	21.85
192.045	-8.87
192.265	-10.92
192.484	97.62
192.704	-4.78
192.923	-53.93
193.142	25.94
193.362	32.08
193.581	52.56
193.8	107.86
194.02	56.66
194.239	-74.41
194.458	32.08
194.678	-23.21
194.897	9.56
195.116	-0.68
195.335	81.24
195.555	40.28
195.774	81.24
195.993	64.85
196.212	1.37
196.432	19.8
196.651	25.94
196.87	-0.68
197.089	77.14
197.308	-0.68
197.528	23.89
197.747	54.61
197.966	27.99
198.185	124.24
198.404	25.94
198.623	15.7
198.842	105.81
199.062	77.14
199.281	105.81
199.5	1.37
199.719	52.56
199.938	-0.68
200.157	36.18
200.376	50.52
200.595	56.66
200.814	13.65
201.033	-0.68
201.252	-17.07
201.471	48.47
201.69	40.28
201.909	40.28
202.128	30.04
202.347	-21.16
202.566	36.18
202.785	-53.93
203.004	50.52
203.223	91.48
203.442	64.85
203.661	56.66
203.879	-4.78
204.098	-8.87
204.317	56.66
204.536	66.9
204.755	-6.83
204.974	32.08
205.193	32.08
205.411	27.99
205.63	111.96
205.849	17.75
206.068	-10.92
206.287	5.46
206.505	7.51
206.724	75.09
206.943	40.28
207.162	17.75
207.381	52.56
207.599	52.56
207.818	40.28
208.037	83.28
208.255	32.08
208.474	73.04
208.693	79.19
208.911	85.33
209.13	52.56
209.349	9.56
209.567	91.48
209.786	64.85
210.005	-41.64
210.223	-8.87
210.442	15.7
210.661	89.43
210.879	9.56
211.098	36.18
211.316	1.37
211.535	105.81
211.753	48.47
211.972	-23.21
212.191	3.41
212.409	48.47
212.628	3.41
212.846	91.48
213.065	56.66
213.283	81.24
213.502	75.09
213.72	1.37
213.938	42.32
214.157	1.37
214.375	91.48
214.594	79.19
214.812	42.32
215.031	27.99
215.249	58.71
215.467	-21.16
215.686	40.28
215.904	95.57
216.122	25.94
216.341	91.48
216.559	-4.78
216.778	-0.68
216.996	56.66
217.214	25.94
217.432	68.95
217.651	42.32
217.869	23.89
218.087	52.56
218.306	15.7
218.524	77.14
218.742	-17.07
218.96	34.13
219.179	1.37
219.397	17.75
219.615	116.05
219.833	-12.97
220.051	56.66
220.27	-6.83
220.488	1.37
220.706	-25.26
220.924	58.71
221.142	-45.74
221.36	81.24
221.578	21.85
221.796	3.41
222.015	-25.26
222.233	7.51
222.451	71
222.669	11.61
222.887	101.72
223.105	-8.87
223.323	36.18
223.541	-17.07
223.759	44.37
223.977	-39.59
224.195	81.24
224.413	89.43
224.631	114
224.849	11.61
225.067	81.24
225.285	15.7
225.503	34.13
225.721	-19.11
225.939	58.71
226.157	15.7
226.375	68.95
226.592	-4.78
226.81	34.13
227.028	66.9
227.246	52.56
227.464	9.56
227.682	15.7
227.9	99.67
228.117	-17.07
228.335	-25.26
228.553	32.08
228.771	93.52
228.989	56.66
229.206	9.56
229.424	64.85
229.642	-15.02
229.86	30.04
230.077	40.28
230.295	56.66
230.513	32.08
230.731	60.76
230.948	1.37
231.166	38.23
231.384	81.24
231.601	42.32
231.819	23.89
232.037	-41.64
232.254	-23.21
232.472	-8.87
232.689	5.46
232.907	56.66
233.125	-23.21
233.342	-17.07
233.56	91.48
233.777	-2.73
233.995	36.18
234.213	114
234.43	34.13
234.648	-23.21
234.865	23.89
235.083	9.56
235.3	105.81
235.518	17.75
235.735	56.66
235.953	101.72
236.17	-0.68
236.388	77.14
236.605	130.39
236.822	-10.92
237.04	77.14
237.257	15.7
237.475	56.66
237.692	27.99
237.909	81.24
238.127	30.04
238.344	66.9
238.562	48.47
238.779	-0.68
238.996	64.85
239.214	97.62
239.431	48.47
239.648	40.28
239.865	32.08
240.083	34.13
240.3	44.37
240.517	83.28
240.735	32.08
240.952	19.8
241.169	81.24
241.386	-53.93
241.603	23.89
241.821	-4.78
242.038	48.47
242.255	56.66
242.472	-25.26
242.689	40.28
242.907	85.33
243.124	19.8
243.341	11.61
243.558	52.56
243.775	-25.26
243.992	-88.75
244.209	56.66
244.426	44.37
244.643	81.24
244.86	-47.79
245.078	48.47
245.295	44.37
245.512	99.67
245.729	3.41
245.946	42.32
246.163	15.7
246.38	1.37
246.597	23.89
246.814	15.7
247.031	5.46
247.248	11.61
247.464	89.43
247.681	-25.26
247.898	1.37
248.115	27.99
248.332	9.56
248.549	25.94
248.766	97.62
248.983	89.43
249.2	93.52
249.417	7.51
249.633	68.95
249.85	44.37
250.067	25.94
250.284	42.32
250.501	101.72
250.717	23.89
250.934	9.56
251.151	58.71
251.368	68.95
251.585	17.75
251.801	73.04
252.018	25.94
252.235	7.51
252.451	36.18
252.668	-45.74
252.885	73.04
253.102	44.37
253.318	81.24
253.535	50.52
253.752	-0.68
253.968	66.9
254.185	34.13
254.401	97.62
254.618	91.48
254.835	-0.68
255.051	89.43
255.268	32.08
255.484	-17.07
255.701	40.28
255.917	21.85
256.134	-21.16
256.351	50.52
256.567	-6.83
256.784	-31.4
257	7.51
257.217	11.61
257.433	75.09
257.65	15.7
257.866	120.15
258.082	-17.07
258.299	56.66
258.515	58.71
258.732	64.85
258.948	42.32
259.165	42.32
259.381	32.08
259.597	13.65
259.814	-29.35
260.03	3.41
260.246	97.62
260.463	66.9
260.679	-8.87
260.895	27.99
261.112	11.61
261.328	52.56
261.544	38.23
261.761	114
261.977	79.19
262.193	-12.97
262.409	25.94
262.626	73.04
262.842	17.75
263.058	11.61
263.274	54.61
263.49	-23.21
263.707	116.05
263.923	99.67
264.139	-37.55
264.355	-66.22
264.571	17.75
264.787	-8.87
265.004	34.13
265.22	50.52
265.436	85.33
265.652	50.52
265.868	114
266.084	5.46
266.3	-41.64
266.516	11.61
266.732	73.04
266.948	15.7
267.164	7.51
267.38	97.62
267.596	-21.16
267.812	93.52
268.028	11.61
268.244	48.47
268.46	50.52
268.676	-8.87
268.892	42.32
269.108	15.7
269.324	34.13
269.54	19.8
269.756	77.14
269.972	40.28
270.188	-41.64
270.403	15.7
270.619	56.66
270.835	36.18
271.051	56.66
271.267	36.18
271.483	64.85
271.698	25.94
271.914	27.99
272.13	9.56
272.346	27.99
272.562	91.48
272.777	36.18
272.993	48.47
273.209	15.7
273.425	48.47
273.64	1.37
273.856	75.09
274.072	-19.11
274.287	19.8
274.503	-25.26
274.719	132.44
274.934	-62.12
275.15	-33.45
275.366	40.28
275.581	15.7
275.797	-41.64
276.012	32.08
276.228	15.7
276.444	52.56
276.659	5.46
276.875	-33.45
277.09	52.56
277.306	48.47
277.521	64.85
277.737	71
277.952	60.76
278.168	32.08
278.383	77.14
278.599	-15.02
278.814	32.08
279.03	44.37
279.245	105.81
279.461	56.66
279.676	-23.21
279.892	-33.45
280.107	-6.83
280.322	3.41
280.538	75.09
280.753	-31.4
280.969	1.37
281.184	58.71
281.399	56.66
281.615	64.85
281.83	17.75
282.045	34.13
282.26	-12.97
282.476	13.65
282.691	25.94
282.906	48.47
283.122	32.08
283.337	17.75
283.552	56.66
283.767	17.75
283.983	73.04
284.198	23.89
284.413	23.89
284.628	13.65
284.843	85.33
285.058	38.23
285.274	27.99
285.489	5.46
285.704	42.32
285.919	-49.83
286.134	-8.87
286.349	-33.45
286.564	9.56
286.779	42.32
286.995	19.8
287.21	-17.07
287.425	-0.68
287.64	-0.68
287.855	-0.68
288.07	23.89
288.285	75.09
288.5	-37.55
288.715	48.47
288.93	75.09
289.145	1.37
289.36	56.66
289.575	34.13
289.79	-10.92
290.004	48.47
290.219	48.47
290.434	64.85
290.649	-25.26
290.864	19.8
291.079	62.8
291.294	56.66
291.509	85.33
291.724	32.08
291.938	23.89
292.153	66.9
292.368	30.04
292.583	15.7
292.798	-25.26
293.012	11.61
293.227	114
293.442	32.08
293.657	-10.92
293.871	83.28
294.086	23.89
294.301	107.86
294.516	52.56
294.73	23.89
294.945	-25.26
295.16	19.8
295.374	34.13
295.589	99.67
295.804	9.56
296.018	48.47
296.233	40.28
296.447	56.66
296.662	-8.87
296.877	116.05
297.091	77.14
297.306	-6.83
297.52	32.08
297.735	-25.26
297.949	1.37
298.164	7.51
298.378	64.85
298.593	-43.69
298.807	42.32
299.022	-68.27
299.236	15.7
299.451	13.65
299.665	87.38
299.88	60.76
300.094	97.62
300.309	25.94
300.523	64.85
300.737	44.37
300.952	34.13
301.166	38.23
301.381	15.7
301.595	56.66
301.809	42.32
302.024	122.2
302.238	9.56
302.452	68.95
302.667	54.61
302.881	81.24
303.095	58.71
303.309	56.66
303.524	3.41
303.738	48.47
303.952	19.8
304.166	75.09
304.381	-8.87
304.595	126.29
304.809	-23.21
305.023	64.85
305.237	40.28
305.452	75.09
305.666	-6.83
305.88	-17.07
306.094	21.85
306.308	7.51
306.522	71
306.736	60.76
306.95	-37.55
307.164	77.14
307.379	97.62
307.593	52.56
307.807	56.66
308.021	52.56
308.235	68.95
308.449	27.99
308.663	83.28
308.877	130.39
309.091	-41.64
309.305	42.32
309.519	-21.16
309.733	50.52
309.947	46.42
310.161	62.8
310.374	23.89
310.588	32.08
310.802	122.2
311.016	85.33
311.23	68.95
311.444	25.94
311.658	19.8
311.872	32.08
312.085	32.08
312.299	81.24
312.513	81.24
312.727	73.04
312.941	7.51
313.154	75.09
313.368	81.24
313.582	23.89
313.796	42.32
314.009	40.28
314.223	36.18
314.437	89.43
314.651	97.62
314.864	32.08
315.078	9.56
315.292	23.89
315.505	-21.16
315.719	60.76
315.933	19.8
316.146	7.51
316.36	48.47
316.573	3.41
316.787	17.75
317.001	-12.97
317.214	-33.45
317.428	83.28
317.641	32.08
317.855	30.04
318.068	34.13
318.282	48.47
318.495	126.29
318.709	97.62
318.922	17.75
319.136	66.9
319.349	50.52
319.563	15.7
319.776	60.76
319.99	-0.68
320.203	-23.21
320.417	134.48
320.63	64.85
320.843	93.52
321.057	83.28
321.27	11.61
321.483	-8.87
321.697	91.48
321.91	58.71
322.124	116.05
322.337	11.61
322.55	60.76
322.763	32.08
322.977	3.41
323.19	42.32
323.403	-23.21
323.617	3.41
323.83	44.37
324.043	27.99
324.256	91.48
324.469	34.13
324.683	83.28
324.896	48.47
325.109	34.13
325.322	-78.51
325.535	95.57
325.748	25.94
325.962	-4.78
326.175	-74.41
326.388	-0.68
326.601	71
326.814	83.28
327.027	77.14
327.24	23.89
327.453	-37.55
327.666	87.38
327.879	48.47
328.092	17.75
328.305	101.72
328.518	58.71
328.731	-4.78
328.944	75.09
329.157	81.24
329.37	1.37
329.583	60.76
329.796	17.75
330.009	-33.45
330.222	75.09
330.435	107.86
330.648	-0.68
330.861	48.47
331.073	83.28
331.286	23.89
331.499	7.51
331.712	3.41
331.925	128.34
332.138	19.8
332.35	146.77
332.563	-23.21
332.776	68.95
332.989	48.47
333.202	32.08
333.414	-23.21
333.627	-25.26
333.84	42.32
334.053	89.43
334.265	19.8
334.478	-12.97
334.691	-49.83
334.903	36.18
335.116	73.04
335.329	116.05
335.541	128.34
335.754	116.05
335.966	-12.97
336.179	56.66
336.392	40.28
336.604	-4.78
336.817	52.56
337.029	27.99
337.242	46.42
337.454	3.41
337.667	66.9
337.88	7.51
338.092	5.46
338.305	50.52
338.517	7.51
338.729	85.33
338.942	48.47
339.154	27.99
339.367	52.56
339.579	50.52
339.792	85.33
340.004	81.24
340.217	40.28
340.429	99.67
340.641	15.7
340.854	19.8
341.066	91.48
341.278	-17.07
341.491	15.7
341.703	-15.02
341.915	-17.07
342.128	34.13
342.34	25.94
342.552	-8.87
342.764	7.51
342.977	91.48
343.189	73.04
343.401	52.56
343.613	56.66
343.826	7.51
344.038	15.7
344.25	50.52
344.462	-72.36
344.674	83.28
344.886	42.32
345.099	23.89
345.311	68.95
345.523	48.47
345.735	-29.35
345.947	91.48
346.159	44.37
346.371	36.18
346.583	105.81
346.795	148.82
347.007	19.8
347.219	81.24
347.431	23.89
347.643	25.94
347.855	-0.68
348.067	60.76
348.279	27.99
348.491	-4.78
348.703	109.91
348.915	109.91
349.127	1.37
349.339	89.43
349.551	75.09
349.763	95.57
349.975	15.7
350.187	81.24
350.399	56.66
350.61	56.66
350.822	60.76
351.034	81.24
351.246	118.1
351.458	73.04
351.669	17.75
351.881	64.85
352.093	50.52
352.305	122.2
352.517	52.56
352.728	122.2
352.94	60.76
353.152	-29.35
353.363	-10.92
353.575	38.23
353.787	81.24
353.999	42.32
354.21	81.24
354.422	68.95
354.633	89.43
354.845	-31.4
355.057	50.52
355.268	75.09
355.48	89.43
355.692	-17.07
355.903	48.47
356.115	19.8
356.326	7.51
356.538	122.2
356.749	36.18
356.961	64.85
357.172	36.18
357.384	-21.16
357.595	75.09
357.807	7.51
358.018	27.99
358.23	7.51
358.441	68.95
358.653	56.66
358.864	34.13
359.075	25.94
359.287	25.94
359.498	124.24
359.709	118.1
359.921	58.71
360.132	34.13
360.344	58.71
360.555	-8.87
360.766	-0.68
360.977	58.71
361.189	48.47
361.4	-27.31
361.611	91.48
361.823	85.33
362.034	56.66
362.245	5.46
362.456	32.08
362.667	83.28
362.879	91.48
363.09	-8.87
363.301	-21.16
363.512	34.13
363.723	3.41
363.935	-23.21
364.146	95.57
364.357	19.8
364.568	42.32
364.779	15.7
364.99	101.72
365.201	-4.78
365.412	97.62
365.623	-8.87
365.834	48.47
366.045	60.76
366.256	30.04
366.467	73.04
366.678	77.14
366.889	62.8
367.1	73.04
367.311	60.76
367.522	-12.97
367.733	13.65
367.944	116.05
368.155	58.71
368.366	-10.92
368.577	30.04
368.788	46.42
368.999	83.28
369.209	48.47
369.42	111.96
369.631	64.85
369.842	93.52
370.053	77.14
370.264	13.65
370.474	-0.68
370.685	83.28
370.896	81.24
371.107	54.61
371.317	64.85
371.528	93.52
371.739	85.33
371.95	7.51
372.16	32.08
372.371	-21.16
372.582	32.08
372.792	81.24
373.003	36.18
373.214	73.04
373.424	1.37
373.635	-19.11
373.846	105.81
374.056	15.7
374.267	66.9
374.477	71
374.688	73.04
374.898	54.61
375.109	64.85
375.319	15.7
375.53	58.71
375.74	50.52
375.951	75.09
376.161	23.89
376.372	105.81
376.582	75.09
376.793	15.7
377.003	44.37
377.214	25.94
377.424	36.18
377.635	36.18
377.845	62.8
378.055	21.85
378.266	64.85
378.476	89.43
378.686	50.52
378.897	25.94
379.107	81.24
379.317	3.41
379.528	-15.02
379.738	91.48
379.948	-33.45
380.158	132.44
380.369	42.32
380.579	56.66
380.789	73.04
380.999	99.67
381.21	-23.21
381.42	32.08
381.63	58.71
381.84	32.08
382.05	15.7
382.261	87.38
382.471	7.51
382.681	83.28
382.891	79.19
383.101	89.43
383.311	-8.87
383.521	83.28
383.731	81.24
383.941	32.08
384.151	48.47
384.361	132.44
384.571	36.18
384.781	7.51
384.991	56.66
385.201	132.44
385.411	146.77
385.621	116.05
385.831	15.7
386.041	-23.21
386.251	15.7
386.461	54.61
386.671	19.8
386.881	19.8
387.091	40.28
387.301	32.08
387.511	42.32
387.72	48.47
387.93	52.56
388.14	40.28
388.35	42.32
388.56	83.28
388.769	38.23
388.979	36.18
389.189	56.66
389.399	44.37
389.609	7.51
389.818	48.47
390.028	97.62
390.238	48.47
390.447	48.47
390.657	107.86
390.867	81.24
391.076	19.8
391.286	46.42
391.496	23.89
391.705	15.7
391.915	101.72
392.125	99.67
392.334	9.56
392.544	132.44
392.753	34.13
392.963	-15.02
393.172	75.09
393.382	64.85
393.591	138.58
393.801	44.37
394.01	101.72
394.22	58.71
394.429	34.13
394.639	85.33
394.848	79.19
395.058	66.9
395.267	114
395.477	48.47
395.686	77.14
395.895	114
396.105	64.85
396.314	138.58
396.524	46.42
396.733	120.15
396.942	50.52
397.152	23.89
397.361	91.48
397.57	73.04
397.78	58.71
397.989	52.56
398.198	107.86
398.407	71
398.617	23.89
398.826	107.86
399.035	73.04
399.244	50.52
399.453	97.62
399.663	50.52
399.872	73.04
400.081	101.72
400.29	138.58
400.499	89.43
400.708	140.63
400.917	13.65
401.127	105.81
401.336	154.96
401.545	101.72
401.754	148.82
401.963	81.24
402.172	101.72
402.381	52.56
402.59	122.2
402.799	75.09
403.008	105.81
403.217	93.52
403.426	179.54
403.635	138.58
403.844	118.1
404.053	95.57
404.262	154.96
404.471	91.48
404.68	130.39
404.888	126.29
405.097	83.28
405.306	124.24
405.515	109.91
405.724	93.52
405.933	173.39
406.142	105.81
406.35	146.77
406.559	154.96
406.768	73.04
406.977	105.81
407.185	159.06
407.394	206.16
407.603	146.77
407.812	179.54
408.02	181.59
408.229	148.82
408.438	163.15
408.646	204.11
408.855	181.59
409.064	249.17
409.272	245.07
409.481	202.07
409.69	222.55
409.898	187.73
410.107	226.64
410.315	228.69
410.524	228.69
410.733	263.51
410.941	183.63
411.15	361.81
411.358	310.61
411.567	353.62
411.775	220.5
411.984	253.27
412.192	376.14
412.401	376.14
412.609	437.58
412.818	296.27
413.026	343.38
413.234	372.05
413.443	400.72
413.651	394.58
413.86	458.06
414.068	474.45
414.276	435.53
414.485	470.35
414.693	517.45
414.901	638.28
415.11	437.58
415.318	535.89
415.526	548.17
415.734	509.26
415.943	560.46
416.151	542.03
416.359	564.56
416.567	646.48
416.776	673.1
416.984	738.63
417.192	718.15
417.4	650.57
417.608	685.39
417.817	714.06
418.025	892.23
418.233	843.08
418.441	818.5
418.649	871.75
418.857	922.95
419.065	982.34
419.273	963.91
419.481	1064.26
419.689	1039.69
419.897	1092.93
420.105	1125.7
420.313	1148.23
420.521	1242.43
420.729	1160.52
420.937	1189.19
421.145	1355.07
421.353	1400.13
421.561	1443.14
421.769	1297.73
421.977	1475.9
422.185	1465.66
422.393	1549.63
422.601	1695.04
422.809	1625.4
423.017	1649.98
423.224	1793.34
423.432	1729.85
423.64	1764.67
423.848	2026.81
424.056	1944.89
424.263	2063.67
424.471	2063.67
424.679	2178.36
424.887	2309.43
425.094	2231.6
425.302	2311.47
425.51	2295.09
425.718	2428.21
425.925	2424.11
426.133	2506.03
426.341	2682.16
426.548	2802.99
426.756	2870.57
426.964	2786.6
427.171	2911.53
427.379	3161.38
427.586	3265.83
427.794	3267.88
428.001	3271.97
428.209	3595.55
428.417	3511.58
428.624	3697.95
428.832	3781.92
429.039	3554.59
429.247	3693.85
429.454	4019.48
429.662	4250.9
429.869	4015.38
430.076	4341.01
430.284	4234.52
430.491	4330.77
430.699	4533.52
430.906	4578.58
431.114	4695.31
431.321	4771.08
431.528	5086.47
431.736	5350.66
431.943	5496.07
432.15	5336.32
432.358	5422.34
432.565	5666.05
432.772	5563.65
432.979	5842.17
433.187	5965.05
433.394	6120.7
433.601	6438.13
433.808	6466.8
434.016	6591.73
434.223	6651.12
434.43	7257.32
434.637	6984.94
434.844	7511.27
435.052	7496.93
435.259	7513.31
435.466	7587.04
435.673	7421.16
435.88	8027.35
436.087	8402.13
436.294	8443.09
436.501	8162.52
436.708	8305.88
436.915	8676.56
437.122	9139.4
437.329	8860.88
437.537	9125.07
437.743	9393.35
437.95	9282.76
438.157	9931.97
438.364	10112.19
438.571	10009.79
438.778	10284.22
438.985	11150.51
439.192	10704.05
439.399	10929.33
439.606	10781.87
439.813	11457.7
440.02	11992.22
440.227	11730.08
440.433	11816.1
440.64	11990.17
440.847	12127.39
441.054	12278.94
441.261	13192.33
441.467	13116.56
441.674	13296.78
441.881	13651.08
442.088	13716.61
442.294	13780.1
442.501	13964.42
442.708	14369.91
442.914	14826.61
443.121	15039.6
443.328	15008.88
443.534	16039.01
443.741	15627.37
443.948	15285.36
444.154	16477.27
444.361	16204.89
444.568	16413.79
444.774	16415.83
444.981	16653.4
445.187	17255.5
445.394	17732.68
445.6	17579.08
445.807	19272.75
446.013	18244.67
446.22	18797.62
446.426	19414.06
446.633	19801.13
446.839	20343.84
447.046	19475.5
447.252	20573.21
447.459	20565.02
447.665	20286.5
447.871	21529.61
448.078	22283.27
448.284	21294.1
448.491	21699.59
448.697	22625.28
448.903	23161.84
449.11	23161.84
449.316	22785.02
449.522	23071.73
449.728	23722.99
449.935	23905.26
450.141	23825.39
450.347	24280.03
450.553	23954.41
450.76	24005.61
450.966	24861.66
451.172	24832.99
451.378	25271.25
451.584	24802.27
451.791	25377.75
451.997	25469.9
452.203	25709.52
452.409	25875.4
452.615	25693.13
452.821	24507.36
453.027	24546.27
453.233	25773
453.44	24953.82
453.646	25021.4
453.852	24871.9
454.058	25459.66
454.264	24589.28
454.47	25310.16
454.676	24538.08
454.882	25582.54
455.088	23200.76
455.294	23516.14
455.5	24181.73
455.705	24265.7
455.911	23067.64
456.117	22518.78
456.323	22469.63
456.529	21265.42
456.735	22354.94
456.941	21806.09
457.147	21537.8
457.352	20753.43
457.558	20519.96
457.764	20483.1
457.97	20450.33
458.176	19739.69
458.381	19770.41
458.587	18879.54
458.793	19006.52
458.999	17986.63
459.204	19086.39
459.41	18560.06
459.616	17505.35
459.821	17558.6
460.027	17398.86
460.233	16907.35
460.438	16313.44
460.644	16524.38
460.85	15594.6
461.055	14992.5
461.261	15158.38
461.466	14220.41
461.672	13796.48
461.878	15076.46
462.083	13892.74
462.289	13536.39
462.494	13362.31
462.7	12762.26
462.905	12565.65
463.111	12969.1
463.316	13065.36
463.522	12620.95
463.727	12760.21
463.932	12893.33
464.138	12668.05
464.343	12471.45
464.549	12049.57
464.754	12637.33
464.959	12567.7
465.165	12412.06
465.37	11674.79
465.575	11586.72
465.781	12231.83
465.986	12098.72
466.191	11732.13
466.397	11353.26
466.602	11031.72
466.807	11230.38
467.012	11324.58
467.218	11209.9
467.423	10949.81
467.628	11041.96
467.833	11615.4
468.038	11324.58
468.244	10894.51
468.449	11222.19
468.654	10929.33
468.859	11019.44
469.064	10933.42
469.269	10384.57
469.474	10609.84
469.679	10720.43
469.885	10398.9
470.09	10560.69
470.295	10489.01
470.5	10233.02
470.705	10337.46
470.91	9995.45
471.115	10149.05
471.32	10108.09
471.525	10089.66
471.73	9794.75
471.935	9772.22
472.139	9395.4
472.344	9596.1
472.549	9338.05
472.754	9766.08
472.959	9262.28
473.164	8977.61
473.369	9063.63
473.574	9141.45
473.778	9196.74
473.983	9063.63
474.188	9061.58
474.393	8588.5
474.598	8600.79
474.802	8547.54
475.007	8355.03
475.212	8264.92
475.417	8355.03
475.621	8305.88
475.826	8387.8
476.031	8051.93
476.235	8121.56
476.44	8078.55
476.645	7953.63
476.849	7970.01
477.054	7808.22
477.259	7927
477.463	7697.63
477.668	7550.18
477.872	7523.55
478.077	7503.07
478.282	7101.67
478.486	7290.09
478.691	7224.55
478.895	7259.37
479.1	7113.96
479.304	7070.95
479.509	7060.71
479.713	7329
479.918	6806.77
480.122	6870.25
480.326	7083.24
480.531	6888.68
480.735	6628.59
480.94	6814.96
481.144	7095.53
481.348	6556.91
481.553	6810.86
481.757	6503.67
481.961	6716.65
482.166	6716.65
482.37	6634.74
482.574	6657.26
482.778	6485.23
482.983	6819.05
483.187	6591.73
483.391	6563.06
483.595	6831.34
483.8	6636.78
484.004	6591.73
484.208	6698.22
484.412	6671.6
484.616	6583.54
484.821	6499.57
485.025	6528.24
485.229	6569.2
485.433	6497.52
485.637	6571.25
485.841	6651.12
486.045	6520.05
486.249	6604.02
486.453	6530.29
486.657	6677.74
486.861	6651.12
487.065	6495.47
487.269	6466.8
487.473	6401.27
487.677	6583.54
487.881	6880.49
488.085	6679.79
488.289	6636.78
488.493	6610.16
488.697	6696.18
488.901	6724.85
489.105	6561.01
489.309	6663.41
489.512	6636.78
489.716	6624.5
489.92	6825.2
490.124	6778.09
490.328	6724.85
490.531	6687.98
490.735	6753.52
490.939	6874.35
491.143	6929.64
491.346	6700.27
491.55	6956.27
491.754	6669.55
491.958	6743.28
492.161	6837.48
492.365	6984.94
492.569	6860.01
492.772	6933.74
492.976	7134.44
493.18	7048.43
493.383	7142.63
493.587	7202.02
493.79	7263.46
493.994	7232.74
494.197	7314.66
494.401	7294.18
494.605	7253.22
494.808	7584.99
495.012	7601.38
495.215	7664.86
495.419	7630.05
495.622	7433.44
495.825	7732.45
496.029	7740.64
496.232	7693.54
496.436	7773.41
496.639	7904.48
496.843	8043.74
497.046	8113.37
497.249	8219.86
497.453	8137.95
497.656	8226.01
497.859	8273.11
498.063	8383.7
498.266	8674.51
498.469	8694.99
498.673	8551.63
498.876	8772.82
499.079	8944.84
499.282	9004.24
499.485	9106.63
499.689	8977.61
499.892	9157.83
500.095	9194.7
500.298	9481.41
500.501	9204.94
500.705	9651.39
500.908	9739.46
501.111	9716.93
501.314	9880.77
501.517	9985.21
501.72	10142.91
501.923	10063.04
502.126	10271.93
502.329	10273.98
502.532	10460.34
502.735	10790.06
502.938	10669.23
503.141	10728.63
503.344	10910.89
503.547	11007.15
503.75	11119.79
503.953	11148.46
504.156	11320.49
504.359	11402.41
504.562	11508.9
504.765	11932.83
504.968	12010.65
505.17	11906.21
505.373	12024.99
505.576	12383.38
505.779	12434.58
505.982	12666
506.185	12637.33
506.387	12821.65
506.59	12885.14
506.793	13221
506.996	13081.74
507.198	13470.86
507.401	13458.57
507.604	13677.7
507.807	13778.05
508.009	13872.26
508.212	14357.63
508.415	14197.88
508.617	14568.57
508.82	14378.11
509.022	14236.8
509.225	14898.29
509.428	14812.28
509.63	14836.85
509.833	15311.98
510.035	15432.81
510.238	15162.48
510.44	15539.3
510.643	15828.07
510.845	15991.91
511.048	15965.28
511.25	16075.87
511.453	16305.24
511.655	16680.02
511.858	16598.1
512.06	16852.05
512.262	16800.85
512.465	17017.94
512.667	17167.44
512.87	17331.28
513.072	17587.27
513.274	17867.84
513.477	18076.74
513.679	17988.67
513.881	18287.68
514.084	18433.08
514.286	18414.65
514.488	18859.06
514.69	19129.39
514.893	19323.95
515.095	19164.21
515.297	19436.59
515.499	19487.79
515.701	19684.39
515.904	19760.17
516.106	20415.52
516.308	20282.4
516.51	20427.81
516.712	20827.16
516.914	20884.5
517.116	20771.86
517.318	20995.09
517.52	21408.78
517.722	21660.68
517.925	21859.34
518.127	21951.49
518.329	22039.56
518.531	21791.75
518.733	22428.67
518.935	22535.17
519.136	22651.9
519.338	23032.82
519.54	23225.33
519.742	23317.49
519.944	23294.96
520.146	23935.98
520.348	23688.17
520.55	23950.31
520.752	24116.2
520.954	24364
521.155	24103.91
521.357	24730.59
521.559	25058.26
521.761	25367.51
521.963	25265.11
522.164	25160.66
522.366	25281.49
522.568	25551.82
522.77	25979.85
522.971	25969.61
523.173	25992.14
523.375	26250.18
523.576	26176.45
523.778	26397.63
523.98	26702.78
524.181	26631.1
524.383	26985.4
524.584	27231.16
524.786	27460.53
524.988	27323.32
525.189	27655.09
525.391	27632.56
525.592	27704.24
525.794	27814.83
525.995	27923.37
526.197	27993
526.398	28318.63
526.6	28224.42
526.801	28427.17
527.003	28564.39
527.204	28615.58
527.406	28488.61
527.607	28871.58
527.808	28912.54
528.01	28539.81
528.211	28859.29
528.412	29543.31
528.614	29098.91
528.815	29539.22
529.016	29629.33
529.218	29457.3
529.419	29637.52
529.62	29516.69
529.822	29627.28
530.023	29547.41
530.224	29768.59
530.425	29877.13
530.626	29655.95
530.828	29596.56
531.029	30337.93
531.23	29832.08
531.431	29774.74
531.632	29860.75
531.833	30249.86
532.035	30028.68
532.236	30102.41
532.437	30493.57
532.638	29969.29
532.839	30073.74
533.04	30731.14
533.241	30030.73
533.442	30444.42
533.643	30245.77
533.844	30028.68
534.045	30307.21
534.246	30073.74
534.447	30542.72
534.648	30348.17
534.849	30294.92
535.05	29926.28
535.251	30090.12
535.451	30159.75
535.652	30573.44
535.853	30356.36
536.054	30284.68
536.255	30344.07
536.456	30104.46
536.657	30489.48
536.857	30571.39
537.058	29901.71
537.259	30870.4
537.46	30643.07
537.66	30190.47
537.861	30307.21
538.062	30135.18
538.263	30376.84
538.463	30313.35
538.664	29989.77
538.865	30421.89
539.065	30587.78
539.266	30278.54
539.466	30632.83
539.667	29596.56
539.868	30638.98
540.068	30147.47
540.269	30344.07
540.469	30440.32
540.67	30555.01
540.87	29973.39
541.071	30122.89
541.271	30477.19
541.472	30413.7
541.672	30262.15
541.873	29977.48
542.073	30012.3
542.274	30403.46
542.474	30108.55
542.675	29807.5
542.875	30114.7
543.075	30014.35
543.276	30002.06
543.476	30423.94
543.676	29770.64
543.877	30444.42
544.077	30028.68
544.277	30036.88
544.478	29946.76
544.678	29934.48
544.878	30065.55
545.078	30092.17
545.279	29819.79
545.479	29774.74
545.679	29780.88
545.879	29662.1
546.079	29782.93
546.28	29553.55
546.48	29907.85
546.68	29940.62
546.88	29987.72
547.08	30088.07
547.28	29977.48
547.48	29678.48
547.68	29848.46
547.88	29764.5
548.081	29993.87
548.281	29885.33
548.481	29356.95
548.681	29713.3
548.881	29903.76
549.081	29774.74
549.28	29584.27
549.48	29762.45
549.68	29543.31
549.88	29922.19
550.08	29471.64
550.28	29799.31
550.48	30012.3
550.68	30217.1
550.88	29789.07
551.08	29707.15
551.279	29748.11
551.479	29442.96
551.679	29549.46
551.879	29793.17
552.079	29488.02
552.278	29594.51
552.478	29744.02
552.678	29821.84
552.878	29832.08
553.077	29709.2
553.277	29664.14
553.477	29707.15
553.676	29528.98
553.876	29903.76
554.076	29313.94
554.275	29275.03
554.475	29404.05
554.674	29662.1
554.874	29309.85
555.074	29363.09
555.273	29588.37
555.473	29776.78
555.672	29150.1
555.872	29383.57
556.071	29420.44
556.271	29709.2
556.47	29148.06
556.67	28885.92
556.869	29207.45
557.068	29223.83
557.268	29109.15
557.467	29326.23
557.667	29399.96
557.866	29143.96
558.065	28808.09
558.265	28990.36
558.464	28541.86
558.663	28758.94
558.863	28582.82
559.062	29248.41
559.261	28746.65
559.461	29062.04
559.66	28638.11
559.859	28865.44
560.058	28771.23
560.258	28849.05
560.457	28461.99
560.656	29100.95
560.855	28617.63
561.054	28576.67
561.253	28289.96
561.453	28502.95
561.652	28627.87
561.851	28451.75
562.05	28373.92
562.249	28072.87
562.448	28160.94
562.647	28451.75
562.846	28179.37
563.045	28259.24
563.244	27984.81
563.443	28400.55
563.642	27825.07
563.841	28345.25
564.04	27689.9
564.239	28013.48
564.438	27906.99
564.637	27761.58
564.836	27859.88
565.035	27562.93
565.234	27915.18
565.432	27390.9
565.631	27595.7
565.83	27802.54
566.029	27091.9
566.228	27538.35
566.427	27665.33
566.625	27464.63
566.824	26940.35
567.023	27231.16
567.222	26545.09
567.42	27274.17
567.619	26764.22
567.818	27016.12
568.016	26719.17
568.215	26921.91
568.414	26907.58
568.612	26934.2
568.811	26610.62
569.01	26590.14
569.208	26205.13
569.407	26397.63
569.605	26168.26
569.804	26514.37
570.002	26364.87
570.201	26512.32
570.4	26282.95
570.598	26090.44
570.797	26002.38
570.995	26110.92
571.193	25658.32
571.392	26192.84
571.59	25504.72
571.789	25621.45
571.987	25641.93
572.186	25916.36
572.384	25596.88
572.582	25568.21
572.781	25672.65
572.979	24996.82
573.177	25134.04
573.376	25736.14
573.574	25037.78
573.772	25279.44
573.971	25416.66
574.169	24591.33
574.367	25097.17
574.565	25037.78
574.763	24665.05
574.962	24660.96
575.16	24620
575.358	24624.09
575.556	24353.76
575.754	24556.51
575.952	24333.28
576.151	24599.52
576.349	24421.34
576.547	24216.55
576.745	24398.82
576.943	24366.05
577.141	23938.02
577.339	24230.88
577.537	23831.53
577.735	23890.92
577.933	23919.59
578.131	23946.22
578.329	23849.96
578.527	23305.2
578.725	23806.95
578.923	23944.17
579.121	23487.47
579.319	23686.12
579.516	23360.5
579.714	23569.39
579.912	23266.29
580.11	23137.27
580.308	23202.8
580.506	23133.17
580.704	23075.83
580.901	23075.83
581.099	23161.84
581.297	22842.36
581.495	22588.41
581.692	22787.07
581.89	22481.92
582.088	23124.98
582.285	22803.45
582.483	22782.97
582.681	22674.43
582.878	22641.66
583.076	22248.45
583.274	22963.19
583.471	22141.96
583.669	22481.92
583.866	22236.16
584.064	22289.41
584.262	21812.23
584.459	22158.34
584.657	22055.94
584.854	21879.82
585.052	21259.28
585.249	21660.68
585.447	21980.17
585.644	21677.07
585.841	21677.07
586.039	21900.3
586.236	21695.5
586.434	21556.24
586.631	21453.84
586.828	21261.33
587.026	21552.14
587.223	21105.68
587.42	21064.72
587.618	21421.07
587.815	21029.91
588.012	21300.24
588.21	20880.41
588.407	21085.2
588.604	20786.2
588.801	20904.98
588.999	21046.29
589.196	20818.97
589.393	21005.33
589.59	20499.48
589.787	20599.83
589.984	20313.12
590.182	20528.16
590.379	20403.23
590.576	20431.9
590.773	20104.23
590.97	20116.51
591.167	20161.57
591.364	19837.99
591.561	20190.24
591.758	19928.1
591.955	19942.44
592.152	20098.08
592.349	19743.78
592.546	20089.89
592.743	19659.82
592.94	19227.7
593.137	19811.37
593.334	19762.22
593.531	19336.24
593.727	19373.1
593.924	19670.06
594.121	19389.49
594.318	19401.77
594.515	19125.3
594.712	19409.97
594.908	19364.91
595.105	19139.63
595.302	18996.28
595.499	19119.15
595.696	19098.67
595.892	18904.12
596.089	18857.01
596.286	19061.81
596.482	18971.7
596.679	18717.75
596.876	18953.27
597.072	18381.88
597.269	18871.35
597.466	18574.39
597.662	18623.55
597.859	18408.51
598.055	18414.65
598.252	18512.95
598.448	18361.41
598.645	18250.81
598.841	18121.79
599.038	18000.96
599.234	18082.88
599.431	17890.37
599.627	17859.65
599.824	17538.12
600.02	17800.26
600.217	17843.27
600.413	17579.08
600.609	17605.7
600.806	17376.33
601.002	17708.1
601.198	17628.23
601.395	17523.79
601.591	17488.97
601.787	17425.48
601.984	16985.17
602.18	17448.01
602.376	17198.16
602.572	17062.99
602.769	16968.79
602.965	16860.24
603.161	16790.61
603.357	16882.77
603.553	16866.39
603.75	17017.94
603.946	16786.52
604.142	16702.55
604.338	16669.78
604.534	16741.46
604.73	16763.99
604.926	16397.4
605.122	16651.35
605.318	16677.97
605.514	16366.68
605.71	16227.42
605.906	16536.67
606.102	16352.35
606.298	16436.31
606.494	16215.13
606.69	16313.44
606.886	16100.45
607.082	15936.61
607.278	16260.19
607.474	15942.75
607.67	16297.05
607.866	15666.28
608.062	15877.22
608.257	15950.95
608.453	15965.28
608.649	16026.72
608.845	15879.27
609.041	15965.28
609.236	15774.82
609.432	15932.51
609.628	15518.82
609.824	15574.12
610.019	15787.11
610.215	15547.5
610.411	15633.51
610.606	15391.85
610.802	15727.72
610.998	15455.34
611.193	15762.53
611.389	15391.85
611.584	15340.65
611.78	15414.38
611.976	15199.34
612.171	15146.09
612.367	15121.52
612.562	15199.34
612.758	15037.55
612.953	15082.61
613.149	15256.68
613.344	14914.67
613.539	15416.43
613.735	14937.2
613.93	15029.36
614.126	14851.19
614.321	15039.6
614.517	15107.18
614.712	14863.47
614.907	14718.07
615.103	14929.01
615.298	14863.47
615.493	15350.89
615.688	14543.99
615.884	14859.38
616.079	14644.34
616.274	14775.41
616.47	14527.61
616.665	14931.06
616.86	14662.77
617.055	14613.62
617.25	14470.26
617.445	14587
617.641	14314.62
617.836	14558.33
618.031	14353.53
618.226	14443.64
618.421	14396.54
618.616	14670.97
618.811	14247.04
619.006	14357.63
619.201	13935.74
619.396	14214.27
619.591	13917.31
619.786	14208.12
619.981	13999.23
620.176	13915.26
620.371	13739.14
620.566	13958.27
620.761	13593.73
620.956	13382.79
621.151	13565.06
621.346	13667.46
621.541	13431.94
621.735	13515.91
621.93	13257.87
622.125	13159.56
622.32	13059.21
622.515	13122.7
622.709	13196.43
622.904	13020.3
623.099	13048.97
623.294	12821.65
623.488	12926.1
623.683	12891.28
623.878	12354.71
624.072	12553.37
624.267	12567.7
624.462	12569.75
624.656	12453.02
624.851	12410.01
625.046	12098.72
625.24	12149.92
625.435	12092.57
625.629	11961.5
625.824	11914.4
626.018	11807.91
626.213	11648.16
626.407	11943.07
626.602	11609.25
626.796	11564.2
626.991	11818.14
627.185	11646.12
627.38	11519.14
627.574	11365.54
627.768	11314.34
627.963	11209.9
628.157	11257
628.352	11228.33
628.546	11037.87
628.74	11244.71
628.935	10980.53
629.129	11017.39
629.323	10927.28
629.517	10689.71
629.712	10806.45
629.906	10706.1
630.1	10773.68
630.294	10730.67
630.489	10550.45
630.683	10734.77
630.877	10200.25
631.071	10374.33
631.265	10362.04
631.459	10353.85
631.653	10099.9
631.848	10126.52
632.042	10112.19
632.236	9993.4
632.43	9858.24
632.624	10046.65
632.818	9927.87
633.012	9653.44
633.206	9833.66
633.4	10095.8
633.594	9649.35
633.788	9741.5
633.982	9712.83
634.176	9655.49
634.369	9528.52
634.563	9403.59
634.757	9436.36
634.951	9487.56
635.145	9223.37
635.339	9331.91
635.533	9092.3
635.726	9227.46
635.92	9043.15
636.114	9256.14
636.308	9026.76
636.501	9049.29
636.695	8838.35
636.889	8821.97
637.083	8651.99
637.276	8801.49
637.47	8830.16
637.664	8697.04
637.857	8623.31
638.051	8633.55
638.244	8539.35
638.438	8359.13
638.632	8467.67
638.825	8447.19
639.019	8510.68
639.212	8209.62
639.406	8244.44
639.599	8281.3
639.793	8340.69
639.986	8115.42
640.18	8242.39
640.373	8025.31
640.567	8039.64
640.76	8051.93
640.954	8043.74
641.147	7879.9
641.34	7965.92
641.534	7967.96
641.727	7898.33
641.92	7705.82
642.114	7677.15
642.307	7904.48
642.5	7857.37
642.694	7539.94
642.887	7372
643.08	7800.03
643.273	7496.93
643.467	7355.62
643.66	7257.32
643.853	7351.53
644.046	7347.43
644.239	7335.14
644.432	7251.17
644.626	7189.74
644.819	7253.22
645.012	7122.15
645.205	7236.84
645.398	7101.67
645.591	6898.92
645.784	6890.73
645.977	6868.2
646.17	6882.54
646.363	6937.84
646.556	6849.77
646.749	6806.77
646.942	6757.61
647.135	6837.48
647.328	6393.08
647.521	6642.93
647.714	6472.95
647.907	6513.91
648.099	6501.62
648.292	6642.93
648.485	6479.09
648.678	6411.51
648.871	6302.97
649.064	6333.68
649.256	6413.56
649.449	6309.11
649.642	6294.77
649.835	6257.91
650.027	6262.01
650.22	6270.2
650.413	6106.36
650.605	6139.13
650.798	6102.26
650.991	6102.26
651.183	6202.61
651.376	5987.58
651.568	5872.89
651.761	5840.12
651.954	5811.45
652.146	5815.55
652.339	5876.99
652.531	5739.77
652.724	5776.64
652.916	5727.49
653.109	5704.96
653.301	5532.93
653.494	5696.77
653.686	5594.37
653.879	5700.86
654.071	5653.76
654.263	5573.89
654.456	5426.43
654.648	5563.65
654.84	5405.95
655.033	5471.49
655.225	5365
655.417	5285.12
655.61	5332.23
655.802	5365
655.994	5362.95
656.186	5172.49
656.379	5311.75
656.571	5113.1
656.763	5172.49
656.955	5246.21
657.148	5088.52
657.34	5135.62
657.532	5041.42
657.724	5014.79
657.916	4973.83
658.108	4941.07
658.3	4848.91
658.492	5084.42
658.684	4906.25
658.876	4840.72
659.068	4881.67
659.26	4963.59
659.452	4857.1
659.644	4777.23
659.836	4805.9
660.028	4865.29
660.22	4637.97
660.412	4689.17
660.604	4572.43
660.796	4730.13
660.988	4640.01
661.18	4590.86
661.372	4650.25
661.563	4582.67
661.755	4656.4
661.947	4439.31
662.139	4621.58
662.331	4447.51
662.522	4435.22
662.714	4334.87
662.906	4248.85
663.097	4341.01
663.289	4244.76
663.481	4236.56
663.673	4328.72
663.864	4316.44
664.056	4357.39
664.247	4187.41
664.439	4357.39
664.631	4218.13
664.822	4316.44
665.014	4160.79
665.205	4119.83
665.397	4179.22
665.588	4150.55
665.78	4199.7
665.971	4072.73
666.163	4205.85
666.354	4177.17
666.546	3900.7
666.737	4072.73
666.929	3964.18
667.12	3867.93
667.311	4023.58
667.503	4050.2
667.694	3855.64
667.885	3996.95
668.077	3869.98
668.268	3775.77
668.459	3853.59
668.651	3857.69
668.842	3763.48
669.033	3829.02
669.224	3720.48
669.416	3876.12
669.607	3673.37
669.798	3808.54
669.989	3849.5
670.18	3702.04
670.371	3751.2
670.563	3702.04
670.754	3704.09
670.945	3677.47
671.136	3646.75
671.327	3628.32
671.518	3558.69
671.709	3611.93
671.9	3726.62
672.091	3595.55
672.282	3654.94
672.473	3513.63
672.664	3478.82
672.855	3460.38
673.046	3546.4
673.237	3534.11
673.428	3538.21
673.619	3575.07
673.809	3505.44
674	3431.71
674.191	3505.44
674.382	3538.21
674.573	3495.2
674.764	3431.71
674.954	3542.3
675.145	3368.23
675.336	3448.1
675.527	3409.19
675.717	3439.9
675.908	3462.43
676.099	3323.17
676.289	3351.84
676.48	3351.84
676.671	3317.03
676.861	3417.38
677.052	3179.81
677.243	3349.79
677.433	3327.27
677.624	3398.95
677.814	3360.03
678.005	3341.6
678.195	3337.51
678.386	3435.81
678.576	3341.6
678.767	3271.97
678.957	3253.54
679.148	3323.17
679.338	3165.48
679.529	3284.26
679.719	3298.59
679.909	3386.66
680.1	3237.16
680.29	3206.44
680.481	3194.15
680.671	3308.83
680.861	3194.15
681.052	3284.26
681.242	3210.53
681.432	3251.49
681.622	3259.68
681.813	3089.7
682.003	3267.88
682.193	3071.27
682.383	3161.38
682.573	3185.96
682.764	3194.15
682.954	3120.42
683.144	3247.4
683.334	3214.63
683.524	3024.17
683.714	3196.2
683.904	3171.62
684.094	3063.08
684.284	3079.46
684.474	3073.32
684.664	2997.54
684.854	3114.28
685.044	2993.45
685.234	3101.99
685.424	3087.65
685.614	2985.26
685.804	3167.52
685.994	3013.93
686.184	3116.33
686.374	2956.58
686.564	3128.61
686.753	3032.36
686.943	2932.01
687.133	3038.5
687.323	2942.25
687.513	3046.69
687.702	2823.47
687.892	2964.78
688.082	2903.34
688.272	3018.02
688.461	3214.63
688.651	3099.94
688.841	2956.58
689.03	2854.19
689.22	2825.51
689.41	2903.34
689.599	2852.14
689.789	2805.03
689.979	2856.23
690.168	2858.28
690.358	2870.57
690.547	2802.99
690.737	2788.65
690.926	2743.6
691.116	2817.32
691.305	2843.95
691.495	2727.21
691.684	2737.45
691.874	2755.88
692.063	2712.88
692.252	2923.82
692.442	2678.06
692.631	2735.4
692.82	2708.78
693.01	2643.24
693.199	2759.98
693.388	2620.72
693.578	2630.96
693.767	2608.43
693.956	2698.54
694.146	2637.1
694.335	2587.95
694.524	2592.05
694.713	2587.95
694.902	2534.7
695.092	2506.03
695.281	2489.65
695.47	2555.18
695.659	2501.94
695.848	2442.54
696.037	2456.88
696.226	2579.76
696.415	2622.77
696.604	2575.66
696.793	2546.99
696.982	2590
697.171	2538.8
697.36	2612.53
697.549	2514.22
697.738	2503.98
697.927	2442.54
698.116	2571.57
698.305	2475.31
698.494	2420.02
698.683	2444.59
698.872	2540.85
699.061	2497.84
699.25	2434.35
699.438	2526.51
699.627	2489.65
699.816	2585.9
700.005	2424.11
700.193	2510.13
700.382	2575.66
700.571	2489.65
700.76	2440.5
700.948	2518.32
701.137	2403.63
701.326	2442.54
701.514	2538.8
701.703	2540.85
701.892	2477.36
702.08	2475.31
702.269	2440.5
702.457	2465.07
702.646	2499.89
702.834	2460.98
703.023	2358.58
703.212	2555.18
703.4	2432.3
703.589	2497.84
703.777	2420.02
703.965	2391.34
704.154	2407.73
704.342	2514.22
704.531	2440.5
704.719	2516.27
704.907	2471.22
705.096	2448.69
705.284	2358.58
705.472	2280.75
705.661	2483.5
705.849	2374.96
706.037	2465.07
706.226	2489.65
706.414	2270.51
706.602	2374.96
706.79	2493.74
706.979	2360.63
707.167	2516.27
707.355	2383.15
707.543	2413.87
707.731	2469.17
707.919	2379.06
708.107	2342.19
708.296	2458.93
708.484	2391.34
708.672	2327.86
708.86	2409.78
709.048	2303.28
709.236	2356.53
709.424	2405.68
709.612	2385.2
709.8	2313.52
709.988	2385.2
710.176	2383.15
710.364	2309.43
710.551	2362.67
710.739	2358.58
710.927	2342.19
711.115	2393.39
711.303	2391.34
711.491	2409.78
711.679	2362.67
711.866	2231.6
712.054	2440.5
712.242	2383.15
712.43	2293.04
712.617	2424.11
712.805	2270.51
712.993	2315.57
713.181	2293.04
713.368	2456.88
713.556	2395.44
713.744	2374.96
713.931	2481.46
714.119	2415.92
714.306	2266.42
714.494	2458.93
714.682	2338.1
714.869	2354.48
715.057	2346.29
715.244	2272.56
715.432	2284.85
715.619	2325.81
715.807	2368.82
715.994	2293.04
716.182	2311.47
716.369	2407.73
716.556	2325.81
716.744	2301.23
716.931	2260.27
717.119	2334
717.306	2358.58
717.493	2272.56
717.681	2239.8
717.868	2309.43
718.055	2413.87
718.242	2329.91
718.43	2360.63
718.617	2327.86
718.804	2288.95
718.991	2346.29
719.179	2413.87
719.366	2331.95
719.553	2344.24
719.74	2176.31
719.927	2272.56
720.114	2385.2
720.301	2245.94
720.488	2303.28
720.676	2170.16
720.863	2260.27
721.05	2282.8
721.237	2344.24
721.424	2235.7
721.611	2293.04
721.798	2202.93
721.985	2284.85
722.172	2374.96
722.358	2258.23
722.545	2225.46
722.732	2309.43
722.919	2282.8
723.106	2350.39
723.293	2303.28
723.48	2239.8
723.667	2305.33
723.853	2192.69
724.04	2223.41
724.227	2123.06
724.414	2250.03
724.6	2243.89
724.787	2141.49
724.974	2297.14
725.161	2194.74
725.347	2143.54
725.534	2270.51
725.72	2196.79
725.907	2202.93
726.094	2260.27
726.28	2227.51
726.467	2198.84
726.653	2143.54
726.84	2116.92
727.027	2344.24
727.213	2213.17
727.4	2325.81
727.586	2139.44
727.773	2266.42
727.959	2184.5
728.145	2239.8
728.332	2213.17
728.518	2182.45
728.705	2280.75
728.891	2221.36
729.077	2297.14
729.264	2166.07
729.45	2104.63
729.636	2237.75
729.823	2213.17
730.009	2348.34
730.195	2286.9
730.382	2346.29
730.568	2164.02
730.754	2147.64
730.94	2204.98
731.126	2254.13
731.313	2254.13
731.499	2217.27
731.685	2225.46
731.871	2211.12
732.057	2262.32
732.243	2245.94
732.429	2157.88
732.615	2178.36
732.801	2213.17
732.987	2075.96
733.173	2268.47
733.359	2145.59
733.545	2121.01
733.731	2219.32
733.917	2239.8
734.103	2215.22
734.289	2176.31
734.475	2153.78
734.661	2211.12
734.847	2170.16
735.033	2145.59
735.219	2131.25
735.404	2090.29
735.59	2041.14
735.776	2153.78
735.962	2186.55
736.148	2080.05
736.333	2157.88
736.519	2100.53
736.705	2161.97
736.89	2067.77
737.076	2141.49
737.262	2104.63
737.447	2106.68
737.633	2080.05
737.819	2202.93
738.004	2022.71
738.19	2196.79
738.375	2125.11
738.561	2000.18
738.747	2080.05
738.932	2080.05
739.118	2141.49
739.303	2061.62
739.489	2012.47
739.674	2075.96
739.859	1930.55
740.045	2106.68
740.23	2014.52
740.416	1965.37
740.601	2102.58
740.786	2041.14
740.972	2014.52
741.157	1977.66
741.342	1951.03
741.528	2055.48
741.713	2016.57
741.898	1977.66
742.084	2030.9
742.269	2121.01
742.454	1951.03
742.639	1977.66
742.824	2010.42
743.01	1867.06
743.195	1979.7
743.38	2000.18
743.565	1875.26
743.75	1879.35
743.935	2041.14
744.12	1905.98
744.305	1916.22
744.49	1756.47
744.675	1875.26
744.86	1752.38
745.045	1779
745.23	1815.87
745.415	1877.3
745.6	1893.69
745.785	1760.57
745.97	1779
746.155	1858.87
746.34	1762.62
746.525	1686.84
746.71	1807.67
746.895	1768.76
747.079	1834.3
747.264	1758.52
747.449	1727.8
747.634	1711.42
747.819	1652.03
748.003	1684.8
748.188	1639.74
748.373	1735.99
748.557	1678.65
748.742	1656.12
748.927	1645.88
749.111	1645.88
749.296	1631.55
749.481	1611.07
749.665	1609.02
749.85	1559.87
750.034	1678.65
750.219	1582.4
750.404	1559.87
750.588	1506.62
750.773	1566.01
750.957	1490.24
751.141	1568.06
751.326	1385.79
751.51	1434.94
751.695	1480
751.879	1449.28
752.064	1461.57
752.248	1410.37
752.432	1496.38
752.617	1412.42
752.801	1449.28
752.985	1461.57
753.17	1371.46
753.354	1420.61
753.538	1400.13
753.722	1418.56
753.907	1346.88
754.091	1377.6
754.275	1434.94
754.459	1400.13
754.643	1400.13
754.828	1408.32
755.012	1295.68
755.196	1221.95
755.38	1224
755.564	1301.83
755.748	1199.43
755.932	1330.5
756.116	1303.87
756.3	1256.77
756.484	1236.29
756.668	1221.95
756.852	1187.14
757.036	1201.47
757.22	1137.99
757.404	1205.57
757.588	1219.91
757.772	1191.24
757.956	1203.52
758.14	1160.52
758.323	1119.56
758.507	1162.56
758.691	1115.46
758.875	1154.37
759.059	1027.4
759.242	1154.37
759.426	1082.69
759.61	1068.36
759.794	1068.36
759.977	1183.04
760.161	1219.91
760.345	1056.07
760.528	1039.69
760.712	974.15
760.895	1121.6
761.079	1058.12
761.263	1023.3
761.446	1017.16
761.63	978.25
761.813	1008.97
761.997	984.39
762.18	976.2
762.364	990.53
762.547	933.19
762.731	1006.92
762.914	984.39
763.098	947.53
763.281	982.34
763.464	986.44
763.648	1004.87
763.831	986.44
764.015	859.46
764.198	1045.83
764.381	877.9
764.564	888.14
764.748	910.66
764.931	861.51
765.114	918.86
765.297	908.62
765.481	841.03
765.664	908.62
765.847	881.99
766.03	941.38
766.213	941.38
766.397	828.74
766.58	826.7
766.763	974.15
766.946	925
767.129	841.03
767.312	818.5
767.495	838.98
767.678	877.9
767.861	875.85
768.044	916.81
768.227	752.97
768.41	777.55
768.593	879.94
768.776	779.59
768.959	802.12
769.142	804.17
769.324	771.4
769.507	761.16
769.69	800.07
769.873	802.12
770.056	738.63
770.239	781.64
770.421	834.89
770.604	793.93
770.787	785.74
770.97	806.22
771.152	769.35
771.335	822.6
771.518	781.64
771.7	773.45
771.883	771.4
772.066	783.69
772.248	830.79
772.431	761.16
772.613	761.16
772.796	658.76
772.978	769.35
773.161	761.16
773.343	736.59
773.526	722.25
773.708	638.28
773.891	695.63
774.073	681.29
774.256	646.48
774.438	705.87
774.621	615.76
774.803	757.07
774.985	646.48
775.168	664.91
775.35	617.8
775.532	613.71
775.715	679.24
775.897	664.91
776.079	650.57
776.261	621.9
776.444	613.71
776.626	640.33
776.808	671.05
776.99	552.27
777.173	630.09
777.355	585.04
777.537	634.19
777.719	646.48
777.901	523.6
778.083	554.32
778.265	572.75
778.447	509.26
778.629	582.99
778.811	605.52
778.993	525.65
779.175	582.99
779.357	531.79
779.539	507.21
779.721	597.32
779.903	503.12
780.085	615.76
780.267	501.07
780.449	539.98
780.631	585.04
780.812	441.68
780.994	556.36
781.176	523.6
781.358	550.22
781.54	484.69
781.721	542.03
781.903	501.07
782.085	507.21
782.267	574.8
782.448	509.26
782.63	527.69
782.812	533.84
782.993	466.25
783.175	468.3
783.357	421.2
783.538	417.1
783.72	388.43
783.901	384.34
784.083	453.97
784.264	419.15
784.446	417.1
784.627	349.52
784.809	406.86
784.99	363.86
785.172	386.38
785.353	451.92
785.535	451.92
785.716	476.49
785.897	367.95
786.079	408.91
786.26	376.14
786.441	443.73
786.623	376.14
786.804	380.24
786.985	388.43
787.167	343.38
787.348	367.95
787.529	320.85
787.71	396.62
787.891	365.9
788.073	425.29
788.254	312.66
788.435	419.15
788.616	326.99
788.797	351.57
788.978	445.77
789.159	288.08
789.34	265.55
789.522	320.85
789.703	347.47
789.884	361.81
790.065	314.7
790.246	310.61
790.427	408.91
790.607	365.9
790.788	326.99
790.969	279.89
791.15	355.66
791.331	253.27
791.512	247.12
791.693	322.9
791.874	302.42
792.054	316.75
792.235	384.34
792.416	302.42
792.597	255.31
792.778	318.8
792.958	261.46
793.139	234.83
793.32	228.69
793.5	298.32
793.681	324.94
793.862	343.38
794.042	286.03
794.223	269.65
794.404	337.23
794.584	245.07
794.765	273.75
794.945	288.08
795.126	275.79
795.306	245.07
795.487	351.57
795.667	269.65
795.848	273.75
796.028	253.27
796.209	269.65
796.389	269.65
796.57	261.46
796.75	236.88
796.93	376.14
797.111	193.87
797.291	279.89
797.471	165.2
797.652	167.25
797.832	247.12
798.012	300.37
798.192	167.25
798.373	226.64
798.553	253.27
798.733	206.16
798.913	220.5
799.093	146.77
799.274	261.46
799.454	212.31
799.634	236.88
799.814	275.79
799.994	216.4
800.174	271.7
800.354	185.68
800.534	173.39
800.714	277.84
800.894	210.26
801.074	154.96
801.254	189.78
801.434	263.51
801.614	195.92
801.794	154.96
801.974	658.76
802.154	169.3
802.334	302.42
802.514	189.78
802.693	187.73
802.873	193.87
803.053	288.08
803.233	224.59
803.413	185.68
803.592	240.98
803.772	167.25
803.952	236.88
804.131	154.96
804.311	189.78
804.491	114
804.67	109.91
804.85	150.87
805.03	251.22
805.209	191.83
805.389	150.87
805.568	187.73
805.748	220.5
805.928	154.96
806.107	187.73
806.287	195.92
806.466	150.87
806.646	163.15
806.825	152.91
807.004	75.09
807.184	148.82
807.363	220.5
807.543	126.29
807.722	138.58
807.901	216.4
808.081	138.58
808.26	101.72
808.439	159.06
808.619	118.1
808.798	122.2
808.977	165.2
809.156	206.16
809.336	154.96
809.515	161.11
809.694	157.01
809.873	173.39
810.052	183.63
810.231	187.73
810.411	216.4
810.59	191.83
810.769	124.24
810.948	175.44
811.127	114
811.306	140.63
811.485	179.54
811.664	259.41
811.843	128.34
812.022	138.58
812.201	179.54
812.38	138.58
812.559	161.11
812.737	195.92
812.916	146.77
813.095	157.01
813.274	91.48
813.453	132.44
813.632	122.2
813.811	224.59
813.989	75.09
814.168	140.63
814.347	93.52
814.526	132.44
814.704	148.82
814.883	163.15
815.062	91.48
815.24	163.15
815.419	165.2
815.598	189.78
815.776	32.08
815.955	146.77
816.133	89.43
816.312	124.24
816.49	85.33
816.669	187.73
816.847	111.96
817.026	81.24
817.204	144.72
817.383	101.72
817.561	114
817.74	93.52
817.918	105.81
818.097	60.76
818.275	132.44
818.453	189.78
818.632	116.05
818.81	140.63
818.988	66.9
819.167	64.85
819.345	179.54
819.523	216.4
819.701	114
819.879	107.86
820.058	118.1
820.236	163.15
820.414	105.81
820.592	167.25
820.77	181.59
820.948	91.48
821.127	93.52
821.305	101.72
821.483	15.7
821.661	138.58
821.839	58.71
822.017	101.72
822.195	71
822.373	130.39
822.551	101.72
822.729	99.67
822.907	157.01
823.085	40.28
823.262	130.39
823.44	81.24
823.618	95.57
823.796	97.62
823.974	85.33
824.152	75.09
824.329	118.1
824.507	124.24
824.685	77.14
824.863	107.86
825.04	148.82
825.218	109.91
825.396	136.53
825.574	81.24
825.751	97.62
825.929	7.51
826.107	83.28
826.284	105.81
826.462	116.05
826.639	50.52
826.817	81.24
826.994	114
827.172	89.43
827.349	114
827.527	105.81
827.704	64.85
827.882	114
828.059	27.99
828.237	89.43
828.414	71
828.591	105.81
828.769	91.48
828.946	89.43
829.124	42.32
829.301	81.24
829.478	15.7
829.655	25.94
829.833	75.09
830.01	40.28
830.187	122.2
830.364	132.44
830.542	130.39
830.719	122.2
830.896	138.58
831.073	73.04
831.25	154.96
831.427	73.04
831.604	42.32
831.782	79.19
831.959	187.73
832.136	56.66
832.313	91.48
832.49	97.62
832.667	83.28
832.844	109.91
833.021	109.91
833.198	44.37
833.374	64.85
833.551	32.08
833.728	40.28
833.905	60.76
834.082	9.56
834.259	66.9
834.436	136.53
834.612	64.85
834.789	77.14
834.966	50.52
835.143	75.09
835.319	23.89
835.496	91.48
835.673	126.29
835.85	81.24
836.026	75.09
836.203	50.52
836.38	17.75
836.556	73.04
836.733	89.43
836.909	93.52
837.086	75.09
837.262	87.38
837.439	73.04
837.616	48.47
837.792	126.29
837.968	144.72
838.145	23.89
838.321	3.41
838.498	107.86
838.674	68.95
838.851	118.1
839.027	48.47
839.203	140.63
839.38	34.13
839.556	87.38
839.732	34.13
839.909	66.9
840.085	91.48
840.261	50.52
840.437	85.33
840.614	75.09
840.79	71
840.966	85.33
841.142	23.89
841.318	-21.16
841.494	103.76
841.671	40.28
841.847	48.47
842.023	40.28
842.199	44.37
842.375	58.71
842.551	34.13
842.727	64.85
842.903	36.18
843.079	36.18
843.255	56.66
843.431	66.9
843.607	73.04
843.783	-4.78
843.959	116.05
844.134	42.32
844.31	40.28
844.486	85.33
844.662	97.62
844.838	75.09
845.013	40.28
845.189	89.43
845.365	163.15
845.541	81.24
845.716	-0.68
845.892	50.52
846.068	-0.68
846.244	36.18
846.419	111.96
846.595	56.66
846.77	27.99
846.946	44.37
847.122	103.76
847.297	9.56
847.473	64.85
847.648	23.89
847.824	42.32
847.999	30.04
848.175	83.28
848.35	15.7
848.526	75.09
848.701	30.04
848.876	15.7
849.052	42.32
849.227	-17.07
849.403	58.71
849.578	40.28
849.753	44.37
849.929	81.24
850.104	13.65
850.279	42.32
850.454	42.32
850.63	58.71
850.805	21.85
850.98	11.61
851.155	-0.68
851.33	122.2
851.505	-15.02
851.681	38.23
851.856	-4.78
852.031	122.2
852.206	-4.78
852.381	52.56
852.556	46.42
852.731	-0.68
852.906	-17.07
853.081	42.32
853.256	122.2
853.431	34.13
853.606	-10.92
853.781	52.56
853.956	48.47
854.131	62.8
854.305	19.8
854.48	48.47
854.655	66.9
854.83	66.9
855.005	34.13
855.18	81.24
855.354	19.8
855.529	95.57
855.704	3.41
855.879	54.61
856.053	75.09
856.228	105.81
856.403	-23.21
856.577	56.66
856.752	-8.87
856.926	46.42
857.101	64.85
857.276	-15.02
857.45	91.48
857.625	48.47
857.799	64.85
857.974	48.47
858.148	56.66
858.323	130.39
858.497	7.51
858.672	-2.73
858.846	-45.74
859.02	36.18
859.195	36.18
859.369	17.75
859.543	71
859.718	17.75
859.892	32.08
860.066	52.56
860.241	19.8
860.415	42.32
860.589	3.41
860.763	3.41
860.938	9.56
861.112	58.71
861.286	15.7
861.46	17.75
861.634	32.08
861.808	-0.68
861.982	-21.16
862.157	-29.35
862.331	-0.68
862.505	-17.07
862.679	-37.55
862.853	25.94
863.027	-66.22
863.201	114
863.375	23.89
863.549	93.52
863.722	50.52
863.896	120.15
864.07	-0.68
864.244	-15.02
864.418	116.05
864.592	15.7
864.766	60.76
864.939	5.46
865.113	60.76
865.287	144.72
865.461	-29.35
865.634	34.13
865.808	15.7
865.982	50.52
866.156	-105.13
866.329	38.23
866.503	38.23
866.676	40.28
866.85	50.52
867.024	38.23
867.197	34.13
867.371	42.32
867.544	73.04
867.718	15.7
867.891	-10.92
868.065	27.99
868.238	-41.64
868.412	36.18
868.585	-0.68
868.759	38.23
868.932	36.18
869.105	1.37
869.279	-10.92
869.452	40.28
869.625	-4.78
869.799	-72.36
869.972	-49.83
870.145	-6.83
870.319	32.08
870.492	42.32
870.665	27.99
870.838	-6.83
871.011	-41.64
871.185	-27.31
871.358	-39.59
871.531	36.18
871.704	-8.87
871.877	52.56
872.05	42.32
872.223	15.7
872.396	23.89
872.569	17.75
872.742	7.51
872.915	58.71
873.088	7.51
873.261	58.71
873.434	50.52
873.607	30.04
873.78	73.04
873.953	23.89
874.126	-47.79
874.299	15.7
874.471	81.24
874.644	56.66
874.817	68.95
874.99	58.71
875.163	-66.22
875.335	75.09
875.508	15.7
875.681	75.09
875.853	50.52
876.026	25.94
876.199	-25.26
876.371	64.85
876.544	-66.22
876.717	66.9
876.889	44.37
877.062	1.37
877.234	11.61
877.407	-23.21
877.579	27.99
877.752	64.85
877.924	64.85
878.097	23.89
878.269	48.47
878.442	17.75
878.614	71
878.786	68.95
878.959	-25.26
879.131	-6.83
879.303	-64.17
879.476	-25.26
879.648	58.71
879.82	60.76
879.993	-31.4
880.165	-37.55
880.337	-8.87
880.509	-43.69
880.681	-66.22
880.854	-43.69
881.026	81.24
881.198	50.52
881.37	36.18
881.542	27.99
881.714	48.47
881.886	7.51
882.058	17.75
882.23	-23.21
882.402	42.32
882.574	52.56
882.746	5.46
882.918	73.04
883.09	56.66
883.262	-6.83
883.434	9.56
883.606	3.41
883.778	48.47
883.95	89.43
884.122	-10.92
884.293	-15.02
884.465	-19.11
884.637	73.04
884.809	-53.93
884.98	-0.68
885.152	-2.73
885.324	85.33
885.496	-25.26
885.667	46.42
885.839	66.9
886.011	27.99
886.182	46.42
886.354	38.23
886.525	11.61
886.697	19.8
886.869	-8.87
887.04	13.65
887.212	40.28
887.383	58.71
887.555	32.08
887.726	32.08
887.897	34.13
888.069	87.38
888.24	27.99
888.412	-12.97
888.583	40.28
888.754	46.42
888.926	-68.27
889.097	-17.07
889.268	-33.45
889.44	44.37
889.611	-53.93
889.782	-25.26
889.953	48.47
890.125	36.18
890.296	-10.92
890.467	52.56
890.638	-8.87
890.809	48.47
890.98	-23.21
891.151	17.75
891.323	42.32
891.494	-12.97
891.665	-2.73
891.836	62.8
892.007	7.51
892.178	44.37
892.349	40.28
892.52	-25.26
892.691	54.61
892.862	34.13
893.032	17.75
893.203	32.08
893.374	-29.35
893.545	58.71
893.716	-23.21
893.887	91.48
894.057	3.41
894.228	66.9
894.399	21.85
894.57	36.18
894.74	48.47
894.911	23.89
895.082	-8.87
895.253	17.75
895.423	60.76
895.594	9.56
895.764	25.94
895.935	11.61
896.106	44.37
896.276	48.47
896.447	3.41
896.617	21.85
896.788	48.47
896.958	-47.79
897.129	-0.68
897.299	23.89
897.47	130.39
897.64	36.18
897.81	25.94
897.981	32.08
898.151	32.08
898.322	73.04
898.492	1.37
898.662	36.18
898.832	1.37
899.003	-25.26
899.173	64.85
899.343	44.37
899.513	-23.21
