Data from USB4F104151__146__14-19-23-230.txt Node

Date: Thu Mar 13 14:19:23 EDT 2025
User: louis
Spectrometer: USB4F10415
Trigger mode: 4
Integration Time (sec): 2.000000E-2
Scans to average: 1
Electric dark correction enabled: true
Nonlinearity correction enabled: false
Boxcar width: 0
XAxis mode: Wavelengths
Number of Pixels in Spectrum: 3648
>>>>>Begin Spectral Data<<<<<
178.204	-117.59
178.424	-117.59
178.644	-117.59
178.864	-193.36
179.084	-56.15
179.304	-0.85
179.524	48.3
179.744	7.34
179.964	1.19
180.184	-9.05
180.404	11.43
180.624	-17.24
180.844	-23.38
181.064	-31.57
181.283	-29.52
181.503	11.43
181.723	31.91
181.943	-29.52
182.163	48.3
182.383	-11.09
182.602	50.35
182.822	17.58
183.042	11.43
183.262	17.58
183.482	25.77
183.701	7.34
183.921	64.68
184.141	33.96
184.361	99.5
184.58	50.35
184.8	40.11
185.02	15.53
185.239	31.91
185.459	48.3
185.679	70.83
185.898	-56.15
186.118	91.31
186.338	-29.52
186.557	21.67
186.777	-29.52
186.997	42.15
187.216	29.87
187.436	70.83
187.655	95.4
187.875	64.68
188.095	31.91
188.314	27.82
188.534	25.77
188.753	81.07
188.973	101.55
189.192	74.92
189.412	66.73
189.631	42.15
189.851	-19.29
190.07	44.2
190.29	-11.09
190.509	23.72
190.729	33.96
190.948	85.16
191.168	122.02
191.387	81.07
191.607	21.67
191.826	58.54
192.045	81.07
192.265	3.24
192.484	107.69
192.704	13.48
192.923	-15.19
193.142	89.26
193.362	33.96
193.581	115.88
193.8	60.59
194.02	74.92
194.239	13.48
194.458	25.77
194.678	-37.72
194.897	11.43
195.116	3.24
195.335	23.72
195.555	152.74
195.774	-2.9
195.993	15.53
196.212	23.72
196.432	25.77
196.651	146.6
196.87	-33.62
197.089	99.5
197.308	56.49
197.528	101.55
197.747	-13.14
197.966	-23.38
198.185	91.31
198.404	40.11
198.623	25.77
198.842	91.31
199.062	54.44
199.281	72.87
199.5	-9.05
199.719	-2.9
199.938	29.87
200.157	91.31
200.376	52.39
200.595	99.5
200.814	-9.05
201.033	1.19
201.252	83.11
201.471	48.3
201.69	72.87
201.909	44.2
202.128	81.07
202.347	48.3
202.566	58.54
202.785	48.3
203.004	9.39
203.223	64.68
203.442	40.11
203.661	-35.67
203.879	36.01
204.098	72.87
204.317	17.58
204.536	38.06
204.755	72.87
204.974	74.92
205.193	68.78
205.411	122.02
205.63	19.63
205.849	23.72
206.068	25.77
206.287	58.54
206.505	42.15
206.724	107.69
206.943	52.39
207.162	44.2
207.381	109.74
207.599	-52.05
207.818	-41.81
208.037	9.39
208.255	42.15
208.474	23.72
208.693	7.34
208.911	9.39
209.13	99.5
209.349	70.83
209.567	36.01
209.786	48.3
210.005	74.92
210.223	17.58
210.442	36.01
210.661	3.24
210.879	93.35
211.098	44.2
211.316	68.78
211.535	15.53
211.753	29.87
211.972	66.73
212.191	31.91
212.409	48.3
212.628	-9.05
212.846	31.91
213.065	11.43
213.283	85.16
213.502	7.34
213.72	99.5
213.938	48.3
214.157	33.96
214.375	-17.24
214.594	64.68
214.812	19.63
215.031	85.16
215.249	60.59
215.467	-9.05
215.686	15.53
215.904	17.58
216.122	62.63
216.341	1.19
216.559	89.26
216.778	1.19
216.996	70.83
217.214	17.58
217.432	87.21
217.651	15.53
217.869	-23.38
218.087	72.87
218.306	7.34
218.524	46.25
218.742	1.19
218.96	54.44
219.179	40.11
219.397	-35.67
219.615	17.58
219.833	64.68
220.051	64.68
220.27	31.91
220.488	144.55
220.706	15.53
220.924	31.91
221.142	62.63
221.36	-58.2
221.578	60.59
221.796	29.87
222.015	42.15
222.233	25.77
222.451	36.01
222.669	-27.48
222.887	52.39
223.105	72.87
223.323	105.64
223.541	50.35
223.759	58.54
223.977	52.39
224.195	81.07
224.413	107.69
224.631	3.24
224.849	-39.76
225.067	130.22
225.285	21.67
225.503	-25.43
225.721	40.11
225.939	36.01
226.157	109.74
226.375	91.31
226.592	25.77
226.81	50.35
227.028	44.2
227.246	1.19
227.464	42.15
227.682	7.34
227.9	52.39
228.117	36.01
228.335	23.72
228.553	42.15
228.771	74.92
228.989	-25.43
229.206	66.73
229.424	62.63
229.642	1.19
229.86	23.72
230.077	38.06
230.295	31.91
230.513	72.87
230.731	56.49
230.948	81.07
231.166	36.01
231.384	93.35
231.601	1.19
231.819	81.07
232.037	56.49
232.254	3.24
232.472	-33.62
232.689	31.91
232.907	42.15
233.125	40.11
233.342	68.78
233.56	81.07
233.777	81.07
233.995	64.68
234.213	89.26
234.43	44.2
234.648	15.53
234.865	-4.95
235.083	113.83
235.3	-47.96
235.518	11.43
235.735	76.97
235.953	25.77
236.17	31.91
236.388	48.3
236.605	15.53
236.822	136.36
237.04	72.87
237.257	81.07
237.475	-0.85
237.692	68.78
237.909	-17.24
238.127	9.39
238.344	7.34
238.562	29.87
238.779	13.48
238.996	23.72
239.214	31.91
239.431	21.67
239.648	-11.09
239.865	7.34
240.083	74.92
240.3	64.68
240.517	27.82
240.735	52.39
240.952	23.72
241.169	15.53
241.386	11.43
241.603	-17.24
241.821	25.77
242.038	-25.43
242.255	101.55
242.472	13.48
242.689	66.73
242.907	52.39
243.124	83.11
243.341	31.91
243.558	-41.81
243.775	-37.72
243.992	72.87
244.209	81.07
244.426	117.93
244.643	56.49
244.86	81.07
245.078	58.54
245.295	7.34
245.512	68.78
245.729	15.53
245.946	56.49
246.163	27.82
246.38	72.87
246.597	-0.85
246.814	64.68
247.031	81.07
247.248	113.83
247.464	115.88
247.681	56.49
247.898	7.34
248.115	23.72
248.332	-7
248.549	64.68
248.766	81.07
248.983	97.45
249.2	93.35
249.417	56.49
249.633	33.96
249.85	150.7
250.067	89.26
250.284	113.83
250.501	1.19
250.717	19.63
250.934	-39.76
251.151	1.19
251.368	95.4
251.585	72.87
251.801	-15.19
252.018	56.49
252.235	72.87
252.451	25.77
252.668	76.97
252.885	66.73
253.102	31.91
253.318	64.68
253.535	68.78
253.752	19.63
253.968	9.39
254.185	27.82
254.401	54.44
254.618	33.96
254.835	56.49
255.051	138.41
255.268	15.53
255.484	68.78
255.701	81.07
255.917	56.49
256.134	-31.57
256.351	-0.85
256.567	-17.24
256.784	17.58
257	-4.95
257.217	-41.81
257.433	29.87
257.65	81.07
257.866	70.83
258.082	-7
258.299	17.58
258.515	42.15
258.732	91.31
258.948	-17.24
259.165	44.2
259.381	11.43
259.597	56.49
259.814	81.07
260.03	23.72
260.246	105.64
260.463	66.73
260.679	42.15
260.895	107.69
261.112	91.31
261.328	38.06
261.544	25.77
261.761	105.64
261.977	87.21
262.193	40.11
262.409	64.68
262.626	40.11
262.842	93.35
263.058	109.74
263.274	36.01
263.49	-9.05
263.707	126.12
263.923	25.77
264.139	-23.38
264.355	7.34
264.571	62.63
264.787	33.96
265.004	122.02
265.22	64.68
265.436	15.53
265.652	15.53
265.868	138.41
266.084	64.68
266.3	40.11
266.516	1.19
266.732	-21.33
266.948	101.55
267.164	25.77
267.38	109.74
267.596	113.83
267.812	105.64
268.028	64.68
268.244	31.91
268.46	36.01
268.676	3.24
268.892	11.43
269.108	5.29
269.324	21.67
269.54	-25.43
269.756	66.73
269.972	7.34
270.188	31.91
270.403	91.31
270.619	64.68
270.835	-4.95
271.051	23.72
271.267	-41.81
271.483	-9.05
271.698	-0.85
271.914	9.39
272.13	56.49
272.346	-23.38
272.562	54.44
272.777	89.26
272.993	87.21
273.209	-4.95
273.425	60.59
273.64	48.3
273.856	1.19
274.072	54.44
274.287	-37.72
274.503	97.45
274.719	33.96
274.934	58.54
275.15	1.19
275.366	83.11
275.581	36.01
275.797	101.55
276.012	25.77
276.228	72.87
276.444	42.15
276.659	76.97
276.875	-33.62
277.09	68.78
277.306	105.64
277.521	-9.05
277.737	-54.1
277.952	89.26
278.168	58.54
278.383	56.49
278.599	-0.85
278.814	91.31
279.03	7.34
279.245	15.53
279.461	44.2
279.676	76.97
279.892	-25.43
280.107	64.68
280.322	95.4
280.538	-13.14
280.753	-33.62
280.969	97.45
281.184	5.29
281.399	64.68
281.615	64.68
281.83	105.64
282.045	25.77
282.26	-25.43
282.476	105.64
282.691	64.68
282.906	3.24
283.122	-0.85
283.337	33.96
283.552	31.91
283.767	27.82
283.983	113.83
284.198	54.44
284.413	79.02
284.628	54.44
284.843	36.01
285.058	60.59
285.274	31.91
285.489	-11.09
285.704	50.35
285.919	64.68
286.134	56.49
286.349	64.68
286.564	31.91
286.779	72.87
286.995	91.31
287.21	29.87
287.425	107.69
287.64	81.07
287.855	83.11
288.07	72.87
288.285	42.15
288.5	146.6
288.715	60.59
288.93	-54.1
289.145	27.82
289.36	126.12
289.575	109.74
289.79	146.6
290.004	17.58
290.219	44.2
290.434	44.2
290.649	19.63
290.864	31.91
291.079	1.19
291.294	31.91
291.509	44.2
291.724	97.45
291.938	23.72
292.153	15.53
292.368	25.77
292.583	50.35
292.798	87.21
293.012	101.55
293.227	76.97
293.442	17.58
293.657	48.3
293.871	64.68
294.086	48.3
294.301	48.3
294.516	7.34
294.73	74.92
294.945	31.91
295.16	50.35
295.374	19.63
295.589	60.59
295.804	40.11
296.018	72.87
296.233	56.49
296.447	81.07
296.662	-0.85
296.877	97.45
297.091	31.91
297.306	85.16
297.52	130.22
297.735	-9.05
297.949	33.96
298.164	76.97
298.378	68.78
298.593	31.91
298.807	38.06
299.022	48.3
299.236	72.87
299.451	-17.24
299.665	-33.62
299.88	11.43
300.094	113.83
300.309	33.96
300.523	72.87
300.737	52.39
300.952	31.91
301.166	113.83
301.381	7.34
301.595	68.78
301.809	50.35
302.024	38.06
302.238	107.69
302.452	58.54
302.667	15.53
302.881	9.39
303.095	50.35
303.309	91.31
303.524	-39.76
303.738	91.31
303.952	72.87
304.166	83.11
304.381	23.72
304.595	64.68
304.809	-2.9
305.023	52.39
305.237	25.77
305.452	72.87
305.666	7.34
305.88	81.07
306.094	89.26
306.308	105.64
306.522	72.87
306.736	-0.85
306.95	27.82
307.164	15.53
307.379	81.07
307.593	105.64
307.807	89.26
308.021	76.97
308.235	25.77
308.449	19.63
308.663	23.72
308.877	119.98
309.091	48.3
309.305	74.92
309.519	-9.05
309.733	-4.95
309.947	-15.19
310.161	-7
310.374	-9.05
310.588	183.46
310.802	15.53
311.016	60.59
311.23	62.63
311.444	29.87
311.658	25.77
311.872	91.31
312.085	50.35
312.299	101.55
312.513	72.87
312.727	113.83
312.941	-66.39
313.154	-23.38
313.368	33.96
313.582	33.96
313.796	5.29
314.009	72.87
314.223	42.15
314.437	60.59
314.651	56.49
314.864	64.68
315.078	17.58
315.292	23.72
315.505	99.5
315.719	81.07
315.933	130.22
316.146	64.68
316.36	85.16
316.573	-23.38
316.787	31.91
317.001	93.35
317.214	7.34
317.428	113.83
317.641	-54.1
317.855	31.91
318.068	124.07
318.282	91.31
318.495	83.11
318.709	79.02
318.922	64.68
319.136	97.45
319.349	81.07
319.563	64.68
319.776	60.59
319.99	-0.85
320.203	56.49
320.417	21.67
320.63	40.11
320.843	154.79
321.057	105.64
321.27	17.58
321.483	101.55
321.697	17.58
321.91	122.02
322.124	97.45
322.337	7.34
322.55	-9.05
322.763	21.67
322.977	173.22
323.19	17.58
323.403	89.26
323.617	60.59
323.83	72.87
324.043	27.82
324.256	56.49
324.469	3.24
324.683	31.91
324.896	-9.05
325.109	81.07
325.322	-56.15
325.535	60.59
325.748	58.54
325.962	91.31
326.175	81.07
326.388	72.87
326.601	101.55
326.814	113.83
327.027	40.11
327.24	113.83
327.453	-11.09
327.666	85.16
327.879	9.39
328.092	87.21
328.305	89.26
328.518	66.73
328.731	76.97
328.944	-15.19
329.157	79.02
329.37	-11.09
329.583	81.07
329.796	74.92
330.009	89.26
330.222	97.45
330.435	93.35
330.648	79.02
330.861	36.01
331.073	15.53
331.286	68.78
331.499	66.73
331.712	42.15
331.925	-9.05
332.138	25.77
332.35	74.92
332.563	-0.85
332.776	31.91
332.989	52.39
333.202	56.49
333.414	70.83
333.627	-4.95
333.84	-47.96
334.053	62.63
334.265	9.39
334.478	27.82
334.691	33.96
334.903	27.82
335.116	72.87
335.329	17.58
335.541	85.16
335.754	101.55
335.966	101.55
336.179	7.34
336.392	29.87
336.604	50.35
336.817	52.39
337.029	33.96
337.242	40.11
337.454	36.01
337.667	-37.72
337.88	64.68
338.092	103.59
338.305	56.49
338.517	48.3
338.729	72.87
338.942	17.58
339.154	31.91
339.367	15.53
339.579	13.48
339.792	52.39
340.004	36.01
340.217	50.35
340.429	64.68
340.641	95.4
340.854	44.2
341.066	19.63
341.278	56.49
341.491	124.07
341.703	87.21
341.915	31.91
342.128	36.01
342.34	91.31
342.552	31.91
342.764	40.11
342.977	-4.95
343.189	85.16
343.401	58.54
343.613	25.77
343.826	7.34
344.038	-88.92
344.25	17.58
344.462	1.19
344.674	48.3
344.886	31.91
345.099	85.16
345.311	25.77
345.523	83.11
345.735	-27.48
345.947	56.49
346.159	9.39
346.371	46.25
346.583	42.15
346.795	44.2
347.007	36.01
347.219	74.92
347.431	40.11
347.643	76.97
347.855	23.72
348.067	50.35
348.279	-4.95
348.491	50.35
348.703	23.72
348.915	27.82
349.127	-4.95
349.339	17.58
349.551	-41.81
349.763	19.63
349.975	74.92
350.187	115.88
350.399	162.98
350.61	81.07
350.822	-43.86
351.034	9.39
351.246	74.92
351.458	48.3
351.669	42.15
351.881	105.64
352.093	132.26
352.305	58.54
352.517	19.63
352.728	40.11
352.94	81.07
353.152	48.3
353.363	44.2
353.575	72.87
353.787	81.07
353.999	122.02
354.21	97.45
354.422	64.68
354.633	60.59
354.845	126.12
355.057	-41.81
355.268	-23.38
355.48	27.82
355.692	62.63
355.903	83.11
356.115	64.68
356.326	23.72
356.538	42.15
356.749	17.58
356.961	81.07
357.172	-4.95
357.384	1.19
357.595	148.65
357.807	56.49
358.018	-7
358.23	58.54
358.441	128.17
358.653	165.03
358.864	40.11
359.075	60.59
359.287	40.11
359.498	89.26
359.709	23.72
359.921	31.91
360.132	36.01
360.344	-23.38
360.555	11.43
360.766	50.35
360.977	113.83
361.189	68.78
361.4	19.63
361.611	46.25
361.823	44.2
362.034	3.24
362.245	31.91
362.456	15.53
362.667	31.91
362.879	70.83
363.09	-33.62
363.301	107.69
363.512	72.87
363.723	56.49
363.935	66.73
364.146	60.59
364.357	107.69
364.568	62.63
364.779	25.77
364.99	56.49
365.201	-31.57
365.412	115.88
365.623	7.34
365.834	33.96
366.045	68.78
366.256	76.97
366.467	-0.85
366.678	56.49
366.889	40.11
367.1	56.49
367.311	134.31
367.522	103.59
367.733	115.88
367.944	1.19
368.155	105.64
368.366	128.17
368.577	160.94
368.788	64.68
368.999	-15.19
369.209	64.68
369.42	81.07
369.631	146.6
369.842	56.49
370.053	52.39
370.264	56.49
370.474	56.49
370.685	95.4
370.896	1.19
371.107	171.18
371.317	15.53
371.528	33.96
371.739	91.31
371.95	122.02
372.16	58.54
372.371	3.24
372.582	52.39
372.792	-4.95
373.003	29.87
373.214	132.26
373.424	113.83
373.635	7.34
373.846	171.18
374.056	64.68
374.267	-31.57
374.477	-25.43
374.688	70.83
374.898	56.49
375.109	40.11
375.319	40.11
375.53	58.54
375.74	97.45
375.951	64.68
376.161	115.88
376.372	146.6
376.582	40.11
376.793	97.45
377.003	87.21
377.214	138.41
377.424	40.11
377.635	-0.85
377.845	17.58
378.055	97.45
378.266	36.01
378.476	101.55
378.686	81.07
378.897	117.93
379.107	11.43
379.317	72.87
379.528	56.49
379.738	21.67
379.948	3.24
380.158	44.2
380.369	13.48
380.579	81.07
380.789	7.34
380.999	122.02
381.21	87.21
381.42	97.45
381.63	17.58
381.84	72.87
382.05	81.07
382.261	42.15
382.471	48.3
382.681	33.96
382.891	111.78
383.101	64.68
383.311	38.06
383.521	60.59
383.731	146.6
383.941	60.59
384.151	46.25
384.361	113.83
384.571	105.64
384.781	56.49
384.991	97.45
385.201	85.16
385.411	83.11
385.621	50.35
385.831	25.77
386.041	97.45
386.251	-7
386.461	115.88
386.671	-9.05
386.881	79.02
387.091	13.48
387.301	146.6
387.511	109.74
387.72	33.96
387.93	60.59
388.14	81.07
388.35	97.45
388.56	93.35
388.769	115.88
388.979	87.21
389.189	29.87
389.399	64.68
389.609	31.91
389.818	83.11
390.028	107.69
390.238	97.45
390.447	-7
390.657	64.68
390.867	91.31
391.076	81.07
391.286	124.07
391.496	19.63
391.705	89.26
391.915	97.45
392.125	115.88
392.334	89.26
392.544	113.83
392.753	89.26
392.963	72.87
393.172	142.5
393.382	105.64
393.591	115.88
393.801	72.87
394.01	117.93
394.22	68.78
394.429	64.68
394.639	93.35
394.848	122.02
395.058	99.5
395.267	126.12
395.477	99.5
395.686	85.16
395.895	210.09
396.105	122.02
396.314	134.31
396.524	48.3
396.733	91.31
396.942	171.18
397.152	115.88
397.361	124.07
397.57	70.83
397.78	103.59
397.989	66.73
398.198	113.83
398.407	93.35
398.617	162.98
398.826	130.22
399.035	130.22
399.244	58.54
399.453	113.83
399.663	89.26
399.872	105.64
400.081	19.63
400.29	146.6
400.499	23.72
400.708	187.56
400.917	101.55
401.127	124.07
401.336	130.22
401.545	105.64
401.754	154.79
401.963	146.6
402.172	122.02
402.381	122.02
402.59	134.31
402.799	115.88
403.008	146.6
403.217	93.35
403.426	97.45
403.635	216.23
403.844	62.63
404.053	136.36
404.262	89.26
404.471	203.94
404.68	173.22
404.888	140.46
405.097	126.12
405.306	199.85
405.515	205.99
405.724	117.93
405.933	238.76
406.142	214.18
406.35	310.44
406.559	165.03
406.768	287.91
406.977	220.33
407.185	228.52
407.394	253.09
407.603	175.27
407.812	255.14
408.02	279.72
408.229	308.39
408.438	265.38
408.646	263.33
408.855	253.09
409.064	289.96
409.272	246.95
409.481	375.97
409.69	310.44
409.898	261.29
410.107	312.49
410.315	367.78
410.524	386.21
410.733	380.07
410.941	373.92
411.15	414.88
411.358	451.75
411.567	433.32
411.775	355.49
411.984	414.88
412.192	468.13
412.401	425.12
412.609	591.01
412.818	529.57
413.026	552.1
413.234	552.1
413.443	527.52
413.651	662.69
413.86	560.29
414.068	631.97
414.276	658.59
414.485	726.18
414.693	636.06
414.901	765.09
415.11	730.27
415.318	705.7
415.526	728.22
415.734	763.04
415.943	785.57
416.151	826.53
416.359	861.34
416.567	896.16
416.776	978.08
416.984	1008.8
417.192	1037.47
417.4	965.79
417.608	1027.23
417.817	1051.8
418.025	1139.87
418.233	1158.3
418.441	1154.2
418.649	1311.89
418.857	1299.61
419.065	1354.9
419.273	1301.65
419.481	1496.21
419.689	1539.22
419.897	1602.71
420.105	1506.45
420.313	1561.75
420.521	1674.39
420.729	1660.05
420.937	1705.1
421.145	1850.51
421.353	1911.95
421.561	2024.59
421.769	2018.44
421.977	2086.03
422.185	2161.8
422.393	2180.23
422.601	2376.84
422.809	2268.3
423.017	2401.41
423.224	2530.44
423.432	2571.4
423.64	2477.19
423.848	2774.14
424.056	2688.13
424.263	2958.46
424.471	2907.26
424.679	2901.12
424.887	3138.68
425.094	3353.72
425.302	3202.17
425.51	3316.86
425.718	3499.13
425.925	3538.04
426.133	3603.57
426.341	3787.89
426.548	3900.53
426.756	4086.89
426.964	4086.89
427.171	4189.29
427.379	4482.15
427.586	4578.4
427.794	4486.25
428.001	4820.07
428.209	5104.73
428.417	4949.09
428.624	5252.19
428.832	5192.8
429.039	5289.05
429.247	5327.96
429.454	5667.92
429.662	6061.13
429.869	5868.63
430.076	5975.12
430.284	5921.87
430.491	6104.14
430.699	6440.01
430.906	6603.85
431.114	6609.99
431.321	6653
431.528	7029.82
431.736	7425.08
431.943	7756.85
432.15	7631.93
432.358	7763
432.565	8094.77
432.772	8088.62
432.979	8324.14
433.187	8553.51
433.394	8741.93
433.601	9329.69
433.808	9311.26
434.016	9174.05
434.223	9688.09
434.43	10191.89
434.637	9903.12
434.844	10624.01
435.052	10925.06
435.259	10746.89
435.466	10742.79
435.673	10740.74
435.88	11523.07
436.087	11873.27
436.294	11916.28
436.501	11619.32
436.708	11840.5
436.915	12286.96
437.122	12991.46
437.329	12708.84
437.537	13239.26
437.743	13435.87
437.95	13356
438.157	14013.4
438.364	14232.53
438.571	14504.91
438.778	14437.33
438.985	16018.36
439.192	15082.44
439.399	15807.42
439.606	15465.41
439.813	16137.14
440.02	17066.92
440.227	17173.41
440.433	16530.35
440.64	17290.15
440.847	17118.12
441.054	17449.89
441.261	18754.44
441.467	18367.38
441.674	18828.17
441.881	19655.55
442.088	19528.58
442.294	19186.57
442.501	19760
442.708	20093.82
442.914	21066.6
443.121	21685.09
443.328	21474.15
443.534	22889.29
443.741	22027.1
443.948	21863.26
444.154	22940.49
444.361	23350.09
444.568	23391.05
444.774	23292.74
444.981	23685.95
445.187	24034.11
445.394	25236.27
445.6	25156.39
445.807	27419.4
446.013	26004.25
446.22	26829.59
446.426	27896.58
446.633	28089.09
446.839	28668.66
447.046	27456.26
447.252	29426.41
447.459	29401.83
447.665	29127.41
447.871	30319.32
448.078	31361.74
448.284	30221.02
448.491	30763.73
448.697	32578.23
448.903	32664.25
449.11	32539.32
449.316	32187.07
449.522	32955.06
449.728	33696.42
449.935	33737.38
450.141	33942.18
450.347	34681.5
450.553	33800.87
450.76	33940.13
450.966	35318.42
451.172	34478.75
451.378	35707.53
451.584	34792.09
451.791	35527.31
451.997	36004.49
452.203	36438.65
452.409	36506.24
452.615	35785.35
452.821	34984.6
453.027	34579.1
453.233	36098.69
453.44	34671.26
453.646	35590.8
453.852	35191.44
454.058	36059.78
454.264	34976.4
454.47	35893.89
454.676	34601.63
454.882	36102.79
455.088	32678.58
455.294	33192.62
455.5	33604.27
455.705	34001.57
455.911	32852.66
456.117	32357.05
456.323	31572.68
456.529	29952.74
456.735	31673.03
456.941	30755.54
457.147	30374.62
457.352	29307.63
457.558	29008.62
457.764	29252.33
457.97	28316.41
458.176	28005.12
458.381	28041.98
458.587	26522.39
458.793	26553.11
458.999	25551.65
459.204	27302.67
459.41	26319.64
459.616	24253.24
459.821	24636.21
460.027	24478.52
460.233	23921.47
460.438	22834
460.644	22866.77
460.85	22211.42
461.055	21687.14
461.261	21607.26
461.466	19977.08
461.672	19424.13
461.878	20865.9
462.083	19852.16
462.289	19311.49
462.494	18811.79
462.7	18107.29
462.905	17488.8
463.111	18461.58
463.316	18385.81
463.522	17728.41
463.727	17933.21
463.932	17968.02
464.138	17652.64
464.343	17750.94
464.549	17103.78
464.754	17750.94
464.959	17822.62
465.165	17517.47
465.37	16778.15
465.575	16413.62
465.781	16782.25
465.986	17046.44
466.191	16311.22
466.397	15999.93
466.602	15406.02
466.807	15958.97
467.012	16151.48
467.218	15690.68
467.423	15707.07
467.628	15793.08
467.833	16378.8
468.038	15885.24
468.244	15317.95
468.449	16120.76
468.654	15532.99
468.859	15471.55
469.064	15090.63
469.269	14658.51
469.474	14719.95
469.679	14982.09
469.885	14629.84
470.09	14654.41
470.295	14832.58
470.5	14218.19
470.705	14343.12
470.91	14027.73
471.115	14017.49
471.32	14068.69
471.525	13986.77
471.73	13765.59
471.935	13679.58
472.139	13192.16
472.344	13122.53
472.549	13417.44
472.754	13097.95
472.959	12686.31
473.164	12508.14
473.369	12389.36
473.574	12819.43
473.778	12686.31
473.983	12440.56
474.188	12395.5
474.393	11996.15
474.598	12155.89
474.802	12018.68
475.007	11817.97
475.212	11697.14
475.417	11363.33
475.621	11432.96
475.826	11498.49
476.031	11215.87
476.235	11117.57
476.44	11320.32
476.645	11080.71
476.849	11127.81
477.054	10808.33
477.259	10714.12
477.463	10816.52
477.668	10339.34
477.872	10904.58
478.077	10214.41
478.282	9933.84
478.486	10216.46
478.691	9929.75
478.895	9878.55
479.1	9946.13
479.304	9806.87
479.509	9503.77
479.713	9698.33
479.918	9649.18
480.122	9411.61
480.326	9440.28
480.531	9501.72
480.735	9454.62
480.94	9393.18
481.144	9622.55
481.348	9165.85
481.553	9233.44
481.757	9053.22
481.961	9530.39
482.166	9315.36
482.37	9196.57
482.574	8926.24
482.778	9008.16
482.983	9481.24
483.187	9247.77
483.391	9241.63
483.595	9126.94
483.8	8862.76
484.004	8993.83
484.208	9247.77
484.412	9159.71
484.616	9247.77
484.821	9059.36
485.025	9155.61
485.229	9100.32
485.433	9126.94
485.637	9120.8
485.841	9053.22
486.045	9122.85
486.249	9153.57
486.453	8883.24
486.657	9323.55
486.861	9370.65
487.065	8969.25
487.269	9010.21
487.473	8883.24
487.677	9126.94
487.881	9010.21
488.085	9047.07
488.289	9092.13
488.493	9135.14
488.697	9225.25
488.901	9155.61
489.105	8940.58
489.309	9104.42
489.512	9059.36
489.716	9194.53
489.92	9196.57
490.124	9002.02
490.328	9161.76
490.531	9247.77
490.735	9223.2
490.939	9454.62
491.143	9323.55
491.346	9413.66
491.55	9493.53
491.754	9534.49
491.958	9569.3
492.161	9370.65
492.365	9460.76
492.569	9389.08
492.772	9753.62
492.976	9692.18
493.18	9487.39
493.383	9804.82
493.587	9786.39
493.79	9964.56
493.994	9780.25
494.197	10075.15
494.401	10132.5
494.605	9907.22
494.808	9952.27
495.012	10243.09
495.215	10325.01
495.419	10525.71
495.622	10378.25
495.825	10552.33
496.029	10501.13
496.232	10644.49
496.436	10402.83
496.639	10886.15
496.843	10722.31
497.046	10955.78
497.249	11238.4
497.453	11250.69
497.656	11285.5
497.859	11394.04
498.063	11635.71
498.266	11883.51
498.469	11566.07
498.673	12014.58
498.876	12057.59
499.079	12260.34
499.282	11901.94
499.485	12403.69
499.689	12368.88
499.892	12411.89
500.095	12631.02
500.298	12870.63
500.501	12661.74
500.705	13059.04
500.908	13409.25
501.111	13302.75
501.314	13525.98
501.517	13867.99
501.72	13816.79
501.923	13843.42
502.126	14070.74
502.329	14357.46
502.532	14463.95
502.735	14502.86
502.938	14826.44
503.141	14730.19
503.344	15143.88
503.547	15244.23
503.75	15217.6
503.953	15416.26
504.156	15653.82
504.359	15694.78
504.562	15797.18
504.765	16368.56
504.968	16389.04
505.17	16513.97
505.373	16497.58
505.576	16616.37
505.779	16970.66
505.982	17052.58
506.185	17154.98
506.387	17599.39
506.59	17521.57
506.793	18080.66
506.996	18039.7
507.198	18355.09
507.401	18176.92
507.604	18650
507.807	18635.66
508.009	19094.41
508.212	18838.41
508.415	19422.08
508.617	19598.21
508.82	19565.44
509.022	19526.53
509.225	20013.95
509.428	20257.65
509.63	20292.47
509.833	20540.27
510.035	21064.55
510.238	20882.28
510.44	21009.26
510.643	21658.46
510.845	21646.18
511.048	21441.38
511.25	22111.07
511.453	21898.08
511.655	22838.09
511.858	22606.67
512.06	22866.77
512.262	22848.33
512.465	23139.15
512.667	23550.79
512.87	23753.54
513.072	23337.8
513.274	24142.65
513.477	24468.28
513.679	24451.89
513.881	24716.08
514.084	24873.78
514.286	24849.2
514.488	24994.61
514.69	25727.78
514.893	25924.38
515.095	25885.47
515.297	26100.51
515.499	26254.11
515.701	26575.64
515.904	26571.54
516.106	26977.04
516.308	27405.06
516.51	27644.68
516.712	27339.53
516.914	28066.56
517.116	28480.25
517.318	28424.95
517.52	28588.79
517.722	28736.24
517.925	28973.81
518.127	29573.86
518.329	29428.46
518.531	29377.26
518.733	29901.54
518.935	30298.84
519.136	30309.08
519.338	30782.16
519.54	30823.12
519.742	31005.39
519.944	31146.7
520.146	32066.24
520.348	32252.61
520.55	32217.79
520.752	32250.56
520.954	32608.95
521.155	32893.62
521.357	33143.47
521.559	33241.78
521.761	33376.94
521.963	33610.41
522.164	33751.72
522.366	33852.07
522.568	34081.44
522.77	34206.37
522.971	34957.97
523.173	34499.23
523.375	34761.37
523.576	34927.25
523.778	35426.96
523.98	35920.52
524.181	35484.3
524.383	35947.14
524.584	36573.82
524.786	36381.31
524.988	35938.95
525.189	36692.6
525.391	36678.27
525.592	36840.06
525.794	37038.71
525.995	37235.31
526.197	37184.12
526.398	37487.21
526.6	37663.34
526.801	37866.09
527.003	37974.63
527.204	37888.62
527.406	38273.63
527.607	38271.59
527.808	38556.25
528.01	38021.73
528.211	38261.35
528.412	38955.61
528.614	38744.67
528.815	38701.66
529.016	39221.84
529.218	38894.17
529.419	39051.86
529.62	39279.19
529.822	38986.33
530.023	39119.45
530.224	39160.41
530.425	39182.93
530.626	39178.84
530.828	39027.29
531.029	39721.55
531.23	39440.98
531.431	39434.83
531.632	39703.12
531.833	39932.49
532.035	39858.76
532.236	39864.91
532.437	40092.23
532.638	39860.81
532.839	39909.96
533.04	40002.12
533.241	39588.43
533.442	40507.97
533.643	39887.43
533.844	39932.49
534.045	40354.37
534.246	39989.83
534.447	40323.65
534.648	40376.9
534.849	40497.73
535.05	39946.83
535.251	40073.8
535.451	39483.98
535.652	40125
535.853	39871.05
536.054	39897.67
536.255	40284.74
536.456	39801.42
536.657	40307.27
536.857	39940.68
537.058	39699.02
537.259	40475.2
537.46	40223.3
537.66	40227.4
537.861	40364.61
538.062	39715.4
538.263	40170.05
538.463	40055.37
538.664	40192.58
538.865	40161.86
539.065	40270.4
539.266	39617.1
539.466	40284.74
539.667	39623.25
539.868	40450.63
540.068	39701.07
540.269	39780.94
540.469	40073.8
540.67	39928.39
540.87	40094.28
541.071	39805.52
541.271	39950.92
541.472	39955.02
541.672	39801.42
541.873	39844.43
542.073	39395.92
542.274	40350.27
542.474	39682.64
542.675	39778.89
542.875	40045.13
543.075	39875.15
543.276	39524.94
543.476	39905.87
543.676	39357.01
543.877	39705.16
544.077	39709.26
544.277	39742.03
544.478	39340.63
544.678	39613.01
544.878	39207.51
545.078	39936.59
545.279	39170.64
545.479	39322.19
545.679	39529.04
545.879	39346.77
546.079	39709.26
546.28	39660.11
546.48	39031.38
546.68	39879.24
546.88	39387.73
547.08	39346.77
547.28	39416.4
547.48	39152.21
547.68	39629.39
547.88	39230.04
548.081	39158.36
548.281	39402.07
548.481	39023.19
548.681	39471.7
548.881	39473.74
549.081	39250.52
549.28	38986.33
549.48	39668.3
549.68	39141.97
549.88	39983.69
550.08	38933.08
550.28	39449.17
550.48	39447.12
550.68	39688.78
550.88	38933.08
551.08	39203.41
551.279	39137.88
551.479	38898.27
551.679	39121.49
551.879	39152.21
552.079	39088.73
552.278	38754.91
552.478	39006.81
552.678	39086.68
552.878	39281.24
553.077	39232.08
553.277	38578.78
553.477	39338.58
553.676	38834.78
553.876	38455.9
554.076	38462.05
554.275	38928.98
554.475	38400.61
554.674	39033.43
554.874	39123.54
555.074	38783.58
555.273	38384.22
555.473	38953.56
555.672	38560.35
555.872	38818.39
556.071	38576.73
556.271	38892.12
556.47	38705.76
556.67	37845.61
556.869	38400.61
557.068	38896.22
557.268	38081.13
557.467	38036.07
557.667	38386.27
557.866	38199.91
558.065	38277.73
558.265	38126.18
558.464	37720.68
558.663	38500.96
558.863	37847.66
559.062	38427.23
559.261	37599.85
559.461	38052.45
559.66	37350
559.859	37853.8
560.058	37720.68
560.258	37999.21
560.457	37538.41
560.656	37816.94
560.855	37522.03
561.054	37655.15
561.253	37620.33
561.453	37390.96
561.652	37395.06
561.851	37536.37
562.05	37300.85
562.249	37296.75
562.448	37565.04
562.647	36915.83
562.846	37407.34
563.045	37100.15
563.244	36723.32
563.443	37458.54
563.642	36604.54
563.841	36840.06
564.04	36809.34
564.239	37059.19
564.438	36440.7
564.637	36459.13
564.836	36758.14
565.035	36178.56
565.234	36346.5
565.432	36104.84
565.631	36336.26
565.83	36272.77
566.029	35932.81
566.228	35975.81
566.427	35842.7
566.625	35654.28
566.824	35553.93
567.023	36031.11
567.222	34828.95
567.42	36102.79
567.619	35658.38
567.818	35195.54
568.016	34951.83
568.215	35699.34
568.414	35226.26
568.612	35566.22
568.811	34943.64
569.01	35187.35
569.208	34890.39
569.407	35492.49
569.605	34808.47
569.804	34925.21
570.002	34562.72
570.201	35013.27
570.4	34646.68
570.598	34378.4
570.797	34505.37
570.995	34654.87
571.193	33688.23
571.392	34392.73
571.59	33706.66
571.789	33850.02
571.987	33755.82
572.186	33706.66
572.384	33856.17
572.582	33634.99
572.781	33952.42
572.979	33209.01
573.177	33503.92
573.376	33405.61
573.574	33141.42
573.772	33303.21
573.971	33020.59
574.169	33286.83
574.367	32559.8
574.565	32926.39
574.763	33036.98
574.962	33002.16
575.16	32463.55
575.358	32809.65
575.556	32262.85
575.754	33149.62
575.952	31967.94
576.151	32686.78
576.349	31779.53
576.547	31984.32
576.745	32078.53
576.943	32012.99
577.141	31935.17
577.339	31718.09
577.537	31820.49
577.735	31724.23
577.933	31437.51
578.131	31587.02
578.329	31257.29
578.527	31414.99
578.725	31386.32
578.923	31535.82
579.121	30999.25
579.319	31202
579.516	30907.09
579.714	30976.72
579.912	30888.66
580.11	30534.36
580.308	30624.47
580.506	30792.4
580.704	30118.62
580.901	30571.22
581.099	30960.34
581.297	30565.08
581.495	30309.08
581.692	30694.1
581.89	29975.27
582.088	30216.93
582.285	29856.48
582.483	30106.34
582.681	29747.94
582.878	29600.49
583.076	29594.34
583.274	30122.72
583.471	29416.17
583.669	29700.84
583.866	29489.9
584.064	29369.07
584.262	28891.89
584.459	29281
584.657	29332.2
584.854	29084.4
585.052	28746.48
585.249	28965.62
585.447	29291.24
585.644	28361.47
585.841	29061.87
586.039	28728.05
586.236	28238.59
586.434	28744.44
586.631	28416.76
586.828	28427
587.026	28523.26
587.223	28228.35
587.42	27970.3
587.618	27833.09
587.815	28093.18
588.012	27532.04
588.21	27949.82
588.407	27755.27
588.604	27648.77
588.801	27351.82
588.999	27601.67
589.196	27441.93
589.393	27286.28
589.59	27097.87
589.787	26651.41
589.984	26856.21
590.182	26815.25
590.379	26868.5
590.576	26690.32
590.773	26712.85
590.97	26721.04
591.167	26757.91
591.364	26506.01
591.561	26651.41
591.758	26389.27
591.955	26120.99
592.152	26508.05
592.349	26026.78
592.546	26145.56
592.743	26176.28
592.94	25748.26
593.137	26376.98
593.334	25846.56
593.531	25445.16
593.727	25658.15
593.924	25805.6
594.121	25428.77
594.318	25828.13
594.515	25078.57
594.712	25623.33
594.908	25346.86
595.105	25178.92
595.302	25033.52
595.499	25084.72
595.696	25008.94
595.892	24613.68
596.089	24752.94
596.286	24732.47
596.482	24746.8
596.679	24773.42
596.876	24630.07
597.072	24126.27
597.269	24808.24
597.466	24161.08
597.662	24150.84
597.859	24109.88
598.055	24142.65
598.252	23950.14
598.448	24261.43
598.645	23939.9
598.841	23624.51
599.038	23681.86
599.234	23649.09
599.431	23436.1
599.627	23593.79
599.824	23542.6
600.02	23530.31
600.217	23505.73
600.413	23229.26
600.609	23632.71
600.806	23098.19
601.002	23264.07
601.198	22807.37
601.395	22666.06
601.591	22770.51
601.787	23008.08
601.984	22412.12
602.18	22973.26
602.376	22588.24
602.572	22784.85
602.769	22598.48
602.965	22207.32
603.161	22383.45
603.357	22322.01
603.553	22061.91
603.75	22133.59
603.946	22002.52
604.142	22135.64
604.338	21836.64
604.534	21787.49
604.73	21484.39
604.926	21476.19
605.122	21607.26
605.318	21719.9
605.514	21513.06
605.71	21445.48
605.906	21554.02
606.102	21363.56
606.298	21357.41
606.494	21476.19
606.69	21160.81
606.886	21322.6
607.082	20644.72
607.278	21062.51
607.474	20538.23
607.67	20978.54
607.866	20867.95
608.062	20990.83
608.257	20913
608.453	20996.97
608.649	20904.81
608.845	20345.72
609.041	20558.7
609.236	20829.04
609.432	20667.25
609.628	20583.28
609.824	20732.78
610.019	20493.17
610.215	20269.94
610.411	20216.69
610.606	20165.49
610.802	20388.72
610.998	20241.27
611.193	20224.89
611.389	20061.05
611.584	20026.23
611.78	19770.24
611.976	20120.44
612.171	20011.9
612.367	19837.82
612.562	19841.92
612.758	19483.52
612.953	19659.65
613.149	19913.59
613.344	19516.29
613.539	19755.9
613.735	19721.09
613.93	19377.03
614.126	19491.71
614.321	19702.65
614.517	19897.21
614.712	19297.16
614.907	19258.24
615.103	19565.44
615.298	19354.5
615.493	19567.49
615.688	19323.78
615.884	19432.32
616.079	19291.01
616.274	19196.81
616.47	18979.72
616.665	19327.88
616.86	19125.13
617.055	18946.95
617.25	18860.94
617.445	19202.95
617.641	18654.09
617.836	18840.46
618.031	18799.5
618.226	18807.69
618.421	18355.09
618.616	18586.51
618.811	18150.29
619.006	18711.44
619.201	18111.38
619.396	18414.48
619.591	17816.47
619.786	18277.27
619.981	17904.54
620.176	17986.46
620.371	17900.44
620.566	17904.54
620.761	17771.42
620.956	17787.8
621.151	17646.49
621.346	17724.32
621.541	17337.25
621.735	17666.97
621.93	17281.95
622.125	17316.77
622.32	16948.14
622.515	17193.89
622.709	16855.98
622.904	16972.71
623.099	16774.06
623.294	17058.73
623.488	16473.01
623.683	16759.72
623.878	16307.12
624.072	16382.9
624.267	16278.45
624.462	16524.21
624.656	16210.87
624.851	16196.53
625.046	15858.62
625.24	15928.25
625.435	15664.06
625.629	15760.31
625.824	15489.98
626.018	15653.82
626.213	15096.77
626.407	15389.63
626.602	15000.52
626.796	15584.19
626.991	15272.9
627.185	15170.5
627.38	15000.52
627.574	14906.31
627.768	14908.36
627.963	14928.84
628.157	14701.51
628.352	14648.27
628.546	14480.33
628.74	14568.4
628.935	14408.65
629.129	14457.81
629.323	14132.18
629.517	14107.6
629.712	13913.05
629.906	13798.36
630.1	13751.26
630.294	14123.99
630.489	13726.68
630.683	13794.26
630.877	13546.46
631.071	13345.76
631.265	13583.32
631.459	13360.09
631.653	13378.53
631.848	13372.38
632.042	13247.46
632.236	13175.78
632.43	13157.35
632.624	13106.15
632.818	12721.13
633.012	12807.14
633.206	12925.93
633.4	12747.75
633.594	12565.48
633.788	12436.46
633.982	12610.54
634.176	12628.97
634.369	12506.09
634.563	12469.23
634.757	12321.77
634.951	12239.86
635.145	12080.11
635.339	12215.28
635.533	11871.22
635.726	11953.14
635.92	11830.26
636.114	11828.21
636.308	11545.59
636.501	11883.51
636.695	11650.04
636.889	11643.9
637.083	11398.14
637.276	11500.54
637.47	11371.52
637.664	11289.6
637.857	11287.55
638.051	11303.93
638.244	11355.13
638.438	11234.3
638.632	11152.38
638.825	10906.63
639.019	10914.82
639.212	10789.89
639.406	10673.16
639.599	10880
639.793	10624.01
639.986	10628.1
640.18	10601.48
640.373	10460.17
640.567	10570.76
640.76	10611.72
640.954	10349.58
641.147	10302.48
641.34	10218.51
641.534	10114.06
641.727	10185.74
641.92	10320.91
642.114	10093.58
642.307	9960.47
642.5	9833.49
642.694	9767.96
642.887	9864.21
643.08	9833.49
643.273	9692.18
643.467	9634.84
643.66	9503.77
643.853	9559.06
644.046	9653.27
644.239	9395.23
644.432	9481.24
644.626	9524.25
644.819	9401.37
645.012	9292.83
645.205	9405.47
645.398	9194.53
645.591	9260.06
645.784	9149.47
645.977	9022.5
646.17	9141.28
646.363	8928.29
646.556	8766.5
646.749	8805.41
646.942	8899.62
647.135	8780.84
647.328	8655.91
647.521	8555.56
647.714	8741.93
647.907	8682.53
648.099	8426.54
648.292	8455.21
648.485	8326.19
648.678	8260.65
648.871	8301.61
649.064	8215.6
649.256	8313.9
649.449	8145.97
649.642	8246.32
649.835	8135.73
650.027	7951.41
650.22	8166.45
650.413	8139.82
650.605	7887.92
650.798	7900.21
650.991	7816.24
651.183	7914.55
651.376	7738.42
651.568	7756.85
651.761	7601.21
651.954	7615.54
652.146	7461.94
652.339	7672.89
652.531	7515.19
652.724	7578.68
652.916	7494.71
653.109	7414.84
653.301	7412.79
653.494	7345.21
653.686	7271.48
653.879	7257.15
654.071	7294.01
654.263	7322.68
654.456	7070.78
654.648	7132.22
654.84	6974.53
655.033	6995.01
655.225	6900.8
655.417	6933.57
655.61	6818.88
655.802	6839.36
655.994	6890.56
656.186	6782.02
656.379	6825.03
656.571	6669.38
656.763	6655.05
656.955	6560.84
657.148	6724.68
657.34	6677.57
657.532	6423.62
657.724	6257.74
657.916	6499.4
658.108	6671.43
658.3	6384.71
658.492	6356.04
658.684	6210.64
658.876	6329.42
659.068	6419.53
659.26	6249.55
659.452	6128.72
659.644	6298.7
659.836	6167.63
660.028	6204.49
660.22	6110.29
660.412	6054.99
660.604	6044.75
660.796	6069.33
660.988	5934.16
661.18	5815.38
661.372	5842
661.563	5925.97
661.755	5885.01
661.947	5852.24
662.139	5749.84
662.331	5858.39
662.522	5717.08
662.714	5643.35
662.906	5733.46
663.097	5905.49
663.289	5581.91
663.481	5577.81
663.673	5708.88
663.864	5440.6
664.056	5581.91
664.247	5450.84
664.439	5325.91
664.631	5438.55
664.822	5590.1
665.014	5375.06
665.205	5434.46
665.397	5340.25
665.588	5186.65
665.78	5184.6
665.971	5278.81
666.163	5325.91
666.354	5092.44
666.546	5082.21
666.737	5186.65
666.929	5041.25
667.12	5090.4
667.311	5102.68
667.503	5053.53
667.694	5162.08
667.885	5008.48
668.077	4996.19
668.268	4815.97
668.459	4899.94
668.651	5063.77
668.842	5039.2
669.033	4967.52
669.224	4883.55
669.416	4877.41
669.607	4830.3
669.798	4897.89
669.989	5033.05
670.18	4791.39
670.371	4670.56
670.563	4672.61
670.754	4471.91
670.945	4594.79
671.136	4744.29
671.327	4822.11
671.518	4713.57
671.709	4639.84
671.9	4623.46
672.091	4602.98
672.282	4459.62
672.473	4553.83
672.664	4547.69
672.855	4447.33
673.046	4631.65
673.237	4566.12
673.428	4408.42
673.619	4588.64
673.809	4459.62
674	4275.31
674.191	4447.33
674.382	4400.23
674.573	4281.45
674.764	4289.64
674.954	4383.85
675.145	4205.67
675.336	4416.62
675.527	4260.97
675.717	4303.98
675.908	4308.07
676.099	4217.96
676.289	4211.82
676.48	4144.24
676.671	4117.61
676.861	4320.36
677.052	3998.83
677.243	4140.14
677.433	4099.18
677.624	4095.08
677.814	4215.91
678.005	4160.62
678.195	4193.39
678.386	4177
678.576	3957.87
678.767	4084.84
678.957	3882.1
679.148	4146.28
679.338	4127.85
679.529	4109.42
679.719	4097.13
679.909	3951.73
680.1	4064.36
680.29	4023.41
680.481	4041.84
680.671	4066.41
680.861	3771.51
681.052	3865.71
681.242	3988.59
681.432	4056.17
681.622	3785.84
681.813	3964.01
682.003	3882.1
682.193	3857.52
682.383	3904.62
682.573	3822.7
682.764	3908.72
682.954	3820.66
683.144	3878
683.334	3802.22
683.524	3884.14
683.714	3837.04
683.904	3779.7
684.094	3818.61
684.284	3834.99
684.474	3783.79
684.664	3765.36
684.854	3675.25
685.044	3738.74
685.234	3624.05
685.424	3603.57
685.614	3742.83
685.804	3736.69
685.994	3708.02
686.184	3667.06
686.374	3685.49
686.564	3507.32
686.753	3630.2
686.943	3681.39
687.133	3583.09
687.323	3558.52
687.513	3673.2
687.702	3550.32
687.892	3525.75
688.082	3505.27
688.272	3615.86
688.461	3605.62
688.651	3460.21
688.841	3480.69
689.03	3476.6
689.22	3425.4
689.41	3392.63
689.599	3447.93
689.789	3466.36
689.979	3400.82
690.168	3345.53
690.358	3464.31
690.547	3341.43
690.737	3355.77
690.926	3310.71
691.116	3169.4
691.305	3210.36
691.495	3361.91
691.684	3222.65
691.874	3193.98
692.063	3253.37
692.252	3218.55
692.442	3251.32
692.631	3089.53
692.82	3214.46
693.01	3075.2
693.199	3161.21
693.388	3071.1
693.578	3124.35
693.767	3136.63
693.956	3153.02
694.146	2962.56
694.335	3083.39
694.524	3005.56
694.713	3021.95
694.902	3052.67
695.092	2884.73
695.281	3009.66
695.47	3019.9
695.659	3028.09
695.848	3071.1
696.037	2948.22
696.226	3009.66
696.415	2997.37
696.604	3048.57
696.793	2942.08
696.982	2956.41
697.171	3021.95
697.36	2976.89
697.549	2915.45
697.738	2825.34
697.927	2872.45
698.116	2888.83
698.305	2903.17
698.494	2858.11
698.683	2980.99
698.872	2856.06
699.061	2847.87
699.25	2794.62
699.438	2851.97
699.627	2788.48
699.816	2737.28
700.005	2745.47
700.193	2712.71
700.382	2839.68
700.571	2802.82
700.76	2811.01
700.948	2882.69
701.137	2876.54
701.326	2929.79
701.514	2831.49
701.703	2882.69
701.892	2686.08
702.08	2806.91
702.269	2727.04
702.457	2684.03
702.646	2716.8
702.834	2819.2
703.023	2681.99
703.212	2743.42
703.4	2698.37
703.589	2661.51
703.777	2686.08
703.965	2620.55
704.154	2661.51
704.342	2776.19
704.531	2727.04
704.719	2587.78
704.907	2772.1
705.096	2612.35
705.284	2645.12
705.472	2587.78
705.661	2624.64
705.849	2649.22
706.037	2751.62
706.226	2530.44
706.414	2638.98
706.602	2649.22
706.79	2722.95
706.979	2624.64
707.167	2653.31
707.355	2559.11
707.543	2669.7
707.731	2649.22
707.919	2612.35
708.107	2653.31
708.296	2507.91
708.484	2559.11
708.672	2606.21
708.86	2559.11
709.048	2585.73
709.236	2546.82
709.424	2595.97
709.612	2604.16
709.8	2542.72
709.988	2448.52
710.176	2540.68
710.364	2514.05
710.551	2612.35
710.739	2456.71
710.927	2417.8
711.115	2548.87
711.303	2505.86
711.491	2509.96
711.679	2528.39
711.866	2452.61
712.054	2610.31
712.242	2532.48
712.43	2487.43
712.617	2456.71
712.805	2524.29
712.993	2673.79
713.181	2432.13
713.368	2524.29
713.556	2647.17
713.744	2415.75
713.931	2430.09
714.119	2436.23
714.306	2501.76
714.494	2428.04
714.682	2548.87
714.869	2321.54
715.057	2421.89
715.244	2425.99
715.432	2581.64
715.619	2456.71
715.807	2475.14
715.994	2475.14
716.182	2481.28
716.369	2423.94
716.556	2385.03
716.744	2368.65
716.931	2350.21
717.119	2331.78
717.306	2270.34
717.493	2407.56
717.681	2382.98
717.868	2391.17
718.055	2288.78
718.242	2333.83
718.43	2276.49
718.617	2370.69
718.804	2329.74
718.991	2473.09
719.179	2329.74
719.366	2378.89
719.553	2356.36
719.74	2315.4
719.927	2331.78
720.114	2331.78
720.301	2200.71
720.488	2360.45
720.676	2358.41
720.863	2210.95
721.05	2376.84
721.237	2448.52
721.424	2219.14
721.611	2477.19
721.798	2243.72
721.985	2301.06
722.172	2317.45
722.358	2382.98
722.545	2243.72
722.732	2292.87
722.919	2382.98
723.106	2401.41
723.293	2333.83
723.48	2303.11
723.667	2280.58
723.853	2227.34
724.04	2276.49
724.227	2417.8
724.414	2198.67
724.6	2260.1
724.787	2282.63
724.974	2262.15
725.161	2233.48
725.347	2237.58
725.534	2319.5
725.72	2251.91
725.907	2317.45
726.094	2235.53
726.28	2350.21
726.467	2223.24
726.653	2227.34
726.84	2276.49
727.027	2292.87
727.213	2243.72
727.4	2301.06
727.586	2253.96
727.773	2303.11
727.959	2182.28
728.145	2344.07
728.332	2311.3
728.518	2215.05
728.705	2319.5
728.891	2235.53
729.077	2284.68
729.264	2141.32
729.45	2278.54
729.636	2243.72
729.823	2231.43
730.009	2270.34
730.195	2129.03
730.382	2284.68
730.568	2178.19
730.754	2061.45
730.94	2247.82
731.126	2161.8
731.313	2215.05
731.499	2180.23
731.685	2204.81
731.871	2188.43
732.057	2213
732.243	2169.99
732.429	2178.19
732.615	2165.9
732.801	2153.61
732.987	2145.42
733.173	2258.06
733.359	2155.66
733.545	2067.6
733.731	2174.09
733.917	2104.46
734.103	2153.61
734.289	2231.43
734.475	2071.69
734.661	2153.61
734.847	2090.12
735.033	2174.09
735.219	2157.71
735.404	2143.37
735.59	2116.75
735.776	2194.57
735.962	2188.43
736.148	2098.31
736.333	2213
736.519	2063.5
736.705	2055.31
736.89	2227.34
737.076	2014.35
737.262	1975.44
737.447	2137.23
737.633	2045.07
737.819	2141.32
738.004	2018.44
738.19	2014.35
738.375	2116.75
738.561	2053.26
738.747	2079.88
738.932	2081.93
739.118	2165.9
739.303	1985.68
739.489	2038.92
739.674	1942.67
739.859	2000.01
740.045	2051.21
740.23	2061.45
740.416	2008.2
740.601	2096.27
740.786	2008.2
740.972	2083.98
741.157	1881.23
741.342	1942.67
741.528	1989.77
741.713	1991.82
741.898	1950.86
742.084	1881.23
742.269	1905.81
742.454	1868.94
742.639	1961.1
742.824	1936.53
743.01	2020.49
743.195	1938.57
743.38	1973.39
743.565	1911.95
743.75	1850.51
743.935	1858.7
744.12	1850.51
744.305	1864.85
744.49	1670.29
744.675	1787.02
744.86	1799.31
745.045	1948.81
745.23	1875.09
745.415	1817.74
745.6	1830.03
745.785	1713.3
745.97	1705.1
746.155	1787.02
746.34	1846.41
746.525	1752.21
746.71	1729.68
746.895	1678.48
747.079	1633.43
747.264	1664.15
747.449	1711.25
747.634	1797.26
747.819	1737.87
748.003	1701.01
748.188	1631.38
748.373	1621.14
748.557	1635.47
748.742	1576.08
748.927	1576.08
749.111	1600.66
749.296	1567.89
749.481	1584.27
749.665	1563.79
749.85	1533.08
750.034	1662.1
750.219	1645.71
750.404	1531.03
750.588	1608.85
750.773	1496.21
750.957	1498.26
751.141	1445.01
751.326	1557.65
751.51	1424.53
751.695	1457.3
751.879	1465.49
752.064	1418.39
752.248	1451.16
752.432	1402.01
752.617	1467.54
752.801	1432.72
752.985	1371.29
753.17	1414.29
753.354	1359
753.538	1381.53
753.722	1342.61
753.907	1387.67
754.091	1342.61
754.275	1291.41
754.459	1256.6
754.643	1303.7
754.828	1344.66
755.012	1318.04
755.196	1309.85
755.38	1242.26
755.564	1221.78
755.748	1215.64
755.932	1248.41
756.116	1211.54
756.3	1219.74
756.484	1211.54
756.668	1146.01
756.852	1229.98
757.036	1178.78
757.22	1178.78
757.404	1213.59
757.588	1068.19
757.772	1047.71
757.956	1195.16
758.14	1180.82
758.323	1084.57
758.507	1154.2
758.691	1059.99
758.875	1123.48
759.059	1137.82
759.242	1131.67
759.426	1074.33
759.61	1115.29
759.794	1084.57
759.977	1066.14
760.161	1039.51
760.345	933.02
760.528	1109.15
760.712	1055.9
760.895	1137.82
761.079	961.69
761.263	967.84
761.446	1043.61
761.63	990.36
761.813	1021.08
761.997	1076.38
762.18	1037.47
762.364	982.17
762.547	822.43
762.731	908.44
762.914	941.21
763.098	953.5
763.281	887.97
763.464	920.73
763.648	933.02
763.831	1066.14
764.015	933.02
764.198	820.38
764.381	904.35
764.564	953.5
764.748	947.36
764.931	867.49
765.114	928.92
765.297	953.5
765.481	918.68
765.664	861.34
765.847	756.9
766.03	982.17
766.213	873.63
766.397	951.45
766.58	810.14
766.763	924.83
766.946	851.1
767.129	877.73
767.312	777.37
767.495	892.06
767.678	844.96
767.861	869.53
768.044	847.01
768.227	834.72
768.41	836.77
768.593	844.96
768.776	793.76
768.959	781.47
769.142	855.2
769.324	728.22
769.507	785.57
769.69	842.91
769.873	687.26
770.056	859.29
770.239	752.8
770.421	799.9
770.604	816.29
770.787	687.26
770.97	765.09
771.152	711.84
771.335	795.81
771.518	664.74
771.7	722.08
771.883	791.71
772.066	726.18
772.248	750.75
772.431	711.84
772.613	701.6
772.796	775.33
772.978	787.61
773.161	724.13
773.343	654.5
773.526	679.07
773.708	707.74
773.891	720.03
774.073	732.32
774.256	660.64
774.438	695.46
774.621	576.67
774.803	715.94
774.985	689.31
775.168	681.12
775.35	609.44
775.532	644.26
775.715	613.54
775.897	681.12
776.079	629.92
776.261	601.25
776.444	662.69
776.626	664.74
776.808	593.06
776.99	623.78
777.173	631.97
777.355	668.83
777.537	629.92
777.719	574.63
777.901	629.92
778.083	631.97
778.265	525.47
778.447	513.19
778.629	640.16
778.811	580.77
778.993	615.59
779.175	697.5
779.357	580.77
779.539	566.43
779.721	513.19
779.903	613.54
780.085	498.85
780.267	558.24
780.449	466.08
780.631	515.23
780.812	545.95
780.994	507.04
781.176	466.08
781.358	572.58
781.54	552.1
781.721	511.14
781.903	441.51
782.085	548
782.267	545.95
782.448	449.7
782.63	474.28
782.812	488.61
782.993	539.81
783.175	439.46
783.357	429.22
783.538	449.7
783.72	398.5
783.901	355.49
784.083	474.28
784.264	498.85
784.446	418.98
784.627	384.16
784.809	478.37
784.99	408.74
785.172	359.59
785.353	375.97
785.535	453.8
785.716	361.64
785.897	322.73
786.079	339.11
786.26	330.92
786.441	375.97
786.623	404.64
786.804	380.07
786.985	375.97
787.167	384.16
787.348	335.01
787.529	343.21
787.71	408.74
787.891	425.12
788.073	382.12
788.254	316.58
788.435	351.4
788.616	335.01
788.797	318.63
788.978	320.68
789.159	298.15
789.34	400.55
789.522	306.34
789.703	418.98
789.884	367.78
790.065	277.67
790.246	441.51
790.427	285.86
790.607	375.97
790.788	281.77
790.969	292.01
791.15	236.71
791.331	349.35
791.512	351.4
791.693	351.4
791.874	283.81
792.054	316.58
792.235	326.82
792.416	310.44
792.597	330.92
792.778	310.44
792.958	347.3
793.139	195.75
793.32	269.48
793.5	189.61
793.681	316.58
793.862	310.44
794.042	228.52
794.223	246.95
794.404	310.44
794.584	187.56
794.765	310.44
794.945	267.43
795.126	349.35
795.306	279.72
795.487	294.05
795.667	302.25
795.848	244.9
796.028	222.38
796.209	222.38
796.389	347.3
796.57	228.52
796.75	212.14
796.93	253.09
797.111	330.92
797.291	187.56
797.471	195.75
797.652	208.04
797.832	208.04
798.012	257.19
798.192	205.99
798.373	181.42
798.553	228.52
798.733	201.9
798.913	216.23
799.093	253.09
799.274	210.09
799.454	308.39
799.634	218.28
799.814	240.81
799.994	113.83
800.174	228.52
800.354	228.52
800.534	244.9
800.714	277.67
800.894	197.8
801.074	132.26
801.254	146.6
801.434	246.95
801.614	126.12
801.794	255.14
801.974	697.5
802.154	216.23
802.334	179.37
802.514	146.6
802.693	181.42
802.873	232.62
803.053	242.85
803.233	210.09
803.413	220.33
803.592	173.22
803.772	171.18
803.952	195.75
804.131	246.95
804.311	214.18
804.491	222.38
804.67	171.18
804.85	173.22
805.03	187.56
805.209	222.38
805.389	171.18
805.568	132.26
805.748	251.05
805.928	189.61
806.107	216.23
806.287	222.38
806.466	171.18
806.646	154.79
806.825	212.14
807.004	177.32
807.184	212.14
807.363	208.04
807.543	195.75
807.722	134.31
807.901	191.66
808.081	193.7
808.26	105.64
808.439	177.32
808.619	187.56
808.798	179.37
808.977	138.41
809.156	138.41
809.336	105.64
809.515	183.46
809.694	156.84
809.873	138.41
810.052	195.75
810.231	199.85
810.411	122.02
810.59	220.33
810.769	177.32
810.948	257.19
811.127	122.02
811.306	218.28
811.485	214.18
811.664	214.18
811.843	208.04
812.022	212.14
812.201	128.17
812.38	154.79
812.559	154.79
812.737	179.37
812.916	144.55
813.095	154.79
813.274	138.41
813.453	132.26
813.632	111.78
813.811	185.51
813.989	93.35
814.168	195.75
814.347	68.78
814.526	124.07
814.704	199.85
814.883	179.37
815.062	197.8
815.24	134.31
815.419	119.98
815.598	156.84
815.776	17.58
815.955	130.22
816.133	79.02
816.312	150.7
816.49	91.31
816.669	156.84
816.847	99.5
817.026	74.92
817.204	134.31
817.383	107.69
817.561	122.02
817.74	107.69
817.918	158.89
818.097	132.26
818.275	124.07
818.453	109.74
818.632	160.94
818.81	154.79
818.988	87.21
819.167	42.15
819.345	148.65
819.523	146.6
819.701	138.41
819.879	132.26
820.058	122.02
820.236	56.49
820.414	138.41
820.592	115.88
820.77	56.49
820.948	91.31
821.127	85.16
821.305	132.26
821.483	115.88
821.661	154.79
821.839	150.7
822.017	105.64
822.195	113.83
822.373	140.46
822.551	58.54
822.729	109.74
822.907	113.83
823.085	81.07
823.262	44.2
823.44	50.35
823.618	72.87
823.796	50.35
823.974	132.26
824.152	81.07
824.329	87.21
824.507	134.31
824.685	148.65
824.863	132.26
825.04	158.89
825.218	132.26
825.396	146.6
825.574	66.73
825.751	101.55
825.929	91.31
826.107	113.83
826.284	109.74
826.462	181.42
826.639	124.07
826.817	177.32
826.994	56.49
827.172	74.92
827.349	138.41
827.527	171.18
827.704	113.83
827.882	95.4
828.059	107.69
828.237	105.64
828.414	103.59
828.591	36.01
828.769	124.07
828.946	60.59
829.124	76.97
829.301	5.29
829.478	89.26
829.655	91.31
829.833	93.35
830.01	31.91
830.187	58.54
830.364	44.2
830.542	130.22
830.719	64.68
830.896	72.87
831.073	101.55
831.25	107.69
831.427	60.59
831.604	115.88
831.782	17.58
831.959	132.26
832.136	42.15
832.313	119.98
832.49	85.16
832.667	99.5
832.844	126.12
833.021	33.96
833.198	107.69
833.374	64.68
833.551	89.26
833.728	50.35
833.905	72.87
834.082	23.72
834.259	74.92
834.436	85.16
834.612	113.83
834.789	56.49
834.966	130.22
835.143	122.02
835.319	56.49
835.496	158.89
835.673	70.83
835.85	162.98
836.026	113.83
836.203	156.84
836.38	103.59
836.556	117.93
836.733	138.41
836.909	76.97
837.086	36.01
837.262	74.92
837.439	44.2
837.616	1.19
837.792	93.35
837.968	66.73
838.145	64.68
838.321	36.01
838.498	58.54
838.674	31.91
838.851	119.98
839.027	13.48
839.203	56.49
839.38	76.97
839.556	-23.38
839.732	72.87
839.909	70.83
840.085	124.07
840.261	33.96
840.437	52.39
840.614	64.68
840.79	19.63
840.966	107.69
841.142	62.63
841.318	15.53
841.494	109.74
841.671	91.31
841.847	15.53
842.023	50.35
842.199	76.97
842.375	81.07
842.551	99.5
842.727	7.34
842.903	113.83
843.079	9.39
843.255	140.46
843.431	134.31
843.607	89.26
843.783	83.11
843.959	107.69
844.134	-19.29
844.31	31.91
844.486	21.67
844.662	56.49
844.838	56.49
845.013	50.35
845.189	105.64
845.365	113.83
845.541	21.67
845.716	-45.91
845.892	58.54
846.068	56.49
846.244	-43.86
846.419	44.2
846.595	50.35
846.77	40.11
846.946	42.15
847.122	27.82
847.297	-17.24
847.473	66.73
847.648	56.49
847.824	58.54
847.999	15.53
848.175	95.4
848.35	50.35
848.526	56.49
848.701	54.44
848.876	56.49
849.052	72.87
849.227	89.26
849.403	54.44
849.578	124.07
849.753	15.53
849.929	58.54
850.104	-13.14
850.279	107.69
850.454	97.45
850.63	50.35
850.805	91.31
850.98	19.63
851.155	-7
851.33	13.48
851.505	-9.05
851.681	117.93
851.856	60.59
852.031	66.73
852.206	105.64
852.381	-23.38
852.556	-25.43
852.731	33.96
852.906	44.2
853.081	-0.85
853.256	97.45
853.431	58.54
853.606	1.19
853.781	-58.2
853.956	101.55
854.131	89.26
854.305	42.15
854.48	66.73
854.655	7.34
854.83	66.73
855.005	-27.48
855.18	-52.05
855.354	68.78
855.529	31.91
855.704	74.92
855.879	97.45
856.053	23.72
856.228	83.11
856.403	93.35
856.577	76.97
856.752	48.3
856.926	56.49
857.101	-9.05
857.276	62.63
857.45	62.63
857.625	-17.24
857.799	72.87
857.974	113.83
858.148	7.34
858.323	21.67
858.497	93.35
858.672	64.68
858.846	-9.05
859.02	33.96
859.195	-52.05
859.369	40.11
859.543	7.34
859.718	23.72
859.892	7.34
860.066	40.11
860.241	40.11
860.415	23.72
860.589	23.72
860.763	-37.72
860.938	3.24
861.112	70.83
861.286	11.43
861.46	85.16
861.634	42.15
861.808	3.24
861.982	27.82
862.157	81.07
862.331	31.91
862.505	46.25
862.679	27.82
862.853	76.97
863.027	21.67
863.201	23.72
863.375	-21.33
863.549	19.63
863.722	-33.62
863.896	29.87
864.07	-41.81
864.244	1.19
864.418	46.25
864.592	93.35
864.766	48.3
864.939	27.82
865.113	70.83
865.287	89.26
865.461	72.87
865.634	13.48
865.808	58.54
865.982	36.01
866.156	-0.85
866.329	15.53
866.503	-11.09
866.676	52.39
866.85	25.77
867.024	54.44
867.197	36.01
867.371	54.44
867.544	-39.76
867.718	1.19
867.891	83.11
868.065	-56.15
868.238	38.06
868.412	29.87
868.585	5.29
868.759	40.11
868.932	-21.33
869.105	48.3
869.279	-29.52
869.452	29.87
869.625	23.72
869.799	68.78
869.972	-0.85
870.145	5.29
870.319	7.34
870.492	87.21
870.665	29.87
870.838	46.25
871.011	56.49
871.185	36.01
871.358	40.11
871.531	27.82
871.704	25.77
871.877	-9.05
872.05	-33.62
872.223	-37.72
872.396	25.77
872.569	50.35
872.742	-9.05
872.915	31.91
873.088	-29.52
873.261	-17.24
873.434	36.01
873.607	42.15
873.78	64.68
873.953	38.06
874.126	54.44
874.299	124.07
874.471	42.15
874.644	13.48
874.817	31.91
874.99	89.26
875.163	-0.85
875.335	7.34
875.508	-58.2
875.681	50.35
875.853	36.01
876.026	-56.15
876.199	44.2
876.371	68.78
876.544	3.24
876.717	-23.38
876.889	-2.9
877.062	64.68
877.234	40.11
877.407	31.91
877.579	31.91
877.752	-7
877.924	-0.85
878.097	72.87
878.269	21.67
878.442	33.96
878.614	23.72
878.786	27.82
878.959	21.67
879.131	25.77
879.303	42.15
879.476	-21.33
879.648	-9.05
879.82	70.83
879.993	33.96
880.165	1.19
880.337	-82.77
880.509	38.06
880.681	38.06
880.854	109.74
881.026	-0.85
881.198	99.5
881.37	-50
881.542	-31.57
881.714	27.82
881.886	-15.19
882.058	83.11
882.23	-0.85
882.402	36.01
882.574	-25.43
882.746	33.96
882.918	81.07
883.09	3.24
883.262	19.63
883.434	7.34
883.606	11.43
883.778	-0.85
883.95	64.68
884.122	38.06
884.293	60.59
884.465	40.11
884.637	64.68
884.809	23.72
884.98	-17.24
885.152	-9.05
885.324	31.91
885.496	-17.24
885.667	1.19
885.839	40.11
886.011	81.07
886.182	36.01
886.354	99.5
886.525	13.48
886.697	31.91
886.869	19.63
887.04	-41.81
887.212	-7
887.383	74.92
887.555	19.63
887.726	1.19
887.897	11.43
888.069	23.72
888.24	48.3
888.412	9.39
888.583	-0.85
888.754	-21.33
888.926	-11.09
889.097	3.24
889.268	-72.53
889.44	40.11
889.611	3.24
889.782	1.19
889.953	-23.38
890.125	109.74
890.296	64.68
890.467	1.19
890.638	-70.48
890.809	15.53
890.98	-50
891.151	-19.29
891.323	62.63
891.494	7.34
891.665	-37.72
891.836	40.11
892.007	-35.67
892.178	38.06
892.349	-39.76
892.52	-23.38
892.691	19.63
892.862	29.87
893.032	1.19
893.203	-25.43
893.374	-0.85
893.545	31.91
893.716	19.63
893.887	-33.62
894.057	33.96
894.228	31.91
894.399	9.39
894.57	66.73
894.74	-19.29
894.911	56.49
895.082	-27.48
895.253	15.53
895.423	40.11
895.594	1.19
895.764	74.92
895.935	-25.43
896.106	19.63
896.276	33.96
896.447	56.49
896.617	42.15
896.788	-56.15
896.958	48.3
897.129	-25.43
897.299	36.01
897.47	3.24
897.64	60.59
897.81	7.34
897.981	-29.52
898.151	-47.96
898.322	52.39
898.492	11.43
898.662	-33.62
898.832	42.15
899.003	-0.85
899.173	-17.24
899.343	-13.14
899.513	-35.67
