Data from USB4F104151__66__14-17-18-335.txt Node

Date: Thu Mar 13 14:17:18 EDT 2025
User: louis
Spectrometer: USB4F10415
Trigger mode: 4
Integration Time (sec): 2.000000E-2
Scans to average: 1
Electric dark correction enabled: true
Nonlinearity correction enabled: false
Boxcar width: 0
XAxis mode: Wavelengths
Number of Pixels in Spectrum: 3648
>>>>>Begin Spectral Data<<<<<
178.204	-40.11
178.424	-40.11
178.644	-40.11
178.864	-99.5
179.084	-119.98
179.304	-95.4
179.524	25.43
179.744	25.43
179.964	25.43
180.184	7
180.404	39.76
180.624	-113.83
180.844	15.19
181.064	-44.2
181.283	58.2
181.503	23.38
181.723	33.62
181.943	-38.06
182.163	66.39
182.383	-33.96
182.602	-9.39
182.822	72.53
183.042	23.38
183.262	-23.72
183.482	4.95
183.701	-36.01
183.921	52.05
184.141	19.29
184.361	13.14
184.58	64.34
184.8	39.76
185.02	-1.19
185.239	84.82
185.459	0.85
185.679	43.86
185.898	-21.67
186.118	86.87
186.338	-15.53
186.557	-25.77
186.777	-42.15
186.997	39.76
187.216	-33.96
187.436	88.92
187.655	7
187.875	-15.53
188.095	23.38
188.314	45.91
188.534	0.85
188.753	-17.58
188.973	50
189.192	13.14
189.412	99.16
189.631	43.86
189.851	70.48
190.07	47.96
190.29	35.67
190.509	2.9
190.729	17.24
190.948	50
191.168	150.36
191.387	-29.87
191.607	7
191.826	29.52
192.045	19.29
192.265	45.91
192.484	31.57
192.704	72.53
192.923	7
193.142	99.16
193.362	62.29
193.581	80.72
193.8	15.19
194.02	52.05
194.239	11.09
194.458	31.57
194.678	25.43
194.897	-1.19
195.116	0.85
195.335	52.05
195.555	88.92
195.774	7
195.993	25.43
196.212	88.92
196.432	-23.72
196.651	88.92
196.87	7
197.089	99.16
197.308	129.88
197.528	93.01
197.747	9.05
197.966	-42.15
198.185	64.34
198.404	35.67
198.623	88.92
198.842	97.11
199.062	58.2
199.281	66.39
199.5	41.81
199.719	23.38
199.938	11.09
200.157	31.57
200.376	93.01
200.595	29.52
200.814	109.4
201.033	64.34
201.252	107.35
201.471	95.06
201.69	9.05
201.909	23.38
202.128	64.34
202.347	11.09
202.566	52.05
202.785	-25.77
203.004	23.38
203.223	105.3
203.442	-1.19
203.661	15.19
203.879	-19.63
204.098	-3.24
204.317	-31.91
204.536	25.43
204.755	52.05
204.974	68.44
205.193	33.62
205.411	66.39
205.63	72.53
205.849	54.1
206.068	47.96
206.287	35.67
206.505	121.68
206.724	52.05
206.943	23.38
207.162	35.67
207.381	68.44
207.599	-9.39
207.818	15.19
208.037	56.15
208.255	35.67
208.474	-46.25
208.693	72.53
208.911	74.58
209.13	-13.48
209.349	39.76
209.567	23.38
209.786	72.53
210.005	107.35
210.223	31.57
210.442	17.24
210.661	-17.58
210.879	39.76
211.098	72.53
211.316	80.72
211.535	25.43
211.753	66.39
211.972	-21.67
212.191	39.76
212.409	-29.87
212.628	60.24
212.846	117.59
213.065	70.48
213.283	133.97
213.502	17.24
213.72	-27.82
213.938	62.29
214.157	9.05
214.375	-38.06
214.594	72.53
214.812	-23.72
215.031	27.48
215.249	-62.63
215.467	54.1
215.686	47.96
215.904	25.43
216.122	39.76
216.341	90.96
216.559	-27.82
216.778	82.77
216.996	50
217.214	-19.63
217.432	80.72
217.651	-9.39
217.869	58.2
218.087	56.15
218.306	-5.29
218.524	43.86
218.742	58.2
218.96	50
219.179	-44.2
219.397	70.48
219.615	70.48
219.833	66.39
220.051	60.24
220.27	43.86
220.488	25.43
220.706	74.58
220.924	37.72
221.142	50
221.36	35.67
221.578	27.48
221.796	13.14
222.015	-1.19
222.233	17.24
222.451	113.49
222.669	7
222.887	17.24
223.105	7
223.323	43.86
223.541	58.2
223.759	56.15
223.977	17.24
224.195	117.59
224.413	129.88
224.631	72.53
224.849	23.38
225.067	29.52
225.285	17.24
225.503	64.34
225.721	13.14
225.939	84.82
226.157	33.62
226.375	90.96
226.592	-33.96
226.81	129.88
227.028	2.9
227.246	45.91
227.464	-70.83
227.682	66.39
227.9	74.58
228.117	47.96
228.335	-31.91
228.553	19.29
228.771	9.05
228.989	7
229.206	4.95
229.424	41.81
229.642	-5.29
229.86	27.48
230.077	35.67
230.295	-7.34
230.513	-29.87
230.731	113.49
230.948	74.58
231.166	0.85
231.384	56.15
231.601	15.19
231.819	64.34
232.037	-5.29
232.254	11.09
232.472	31.57
232.689	-38.06
232.907	21.33
233.125	-44.2
233.342	93.01
233.56	64.34
233.777	43.86
233.995	-7.34
234.213	58.2
234.43	43.86
234.648	52.05
234.865	4.95
235.083	-11.43
235.3	15.19
235.518	19.29
235.735	54.1
235.953	133.97
236.17	39.76
236.388	52.05
236.605	-7.34
236.822	39.76
237.04	37.72
237.257	25.43
237.475	15.19
237.692	58.2
237.909	25.43
238.127	23.38
238.344	88.92
238.562	25.43
238.779	31.57
238.996	-17.58
239.214	35.67
239.431	52.05
239.648	19.29
239.865	9.05
240.083	64.34
240.3	58.2
240.517	70.48
240.735	-7.34
240.952	99.16
241.169	90.96
241.386	33.62
241.603	-17.58
241.821	50
242.038	121.68
242.255	45.91
242.472	-7.34
242.689	29.52
242.907	45.91
243.124	0.85
243.341	72.53
243.558	68.44
243.775	31.57
243.992	7
244.209	82.77
244.426	56.15
244.643	170.83
244.86	0.85
245.078	64.34
245.295	142.16
245.512	7
245.729	90.96
245.946	80.72
246.163	56.15
246.38	13.14
246.597	60.24
246.814	31.57
247.031	-56.49
247.248	58.2
247.464	35.67
247.681	11.09
247.898	17.24
248.115	70.48
248.332	-7.34
248.549	80.72
248.766	84.82
248.983	97.11
249.2	23.38
249.417	101.2
249.633	56.15
249.85	97.11
250.067	27.48
250.284	52.05
250.501	-1.19
250.717	-9.39
250.934	-33.96
251.151	29.52
251.368	41.81
251.585	31.57
251.801	31.57
252.018	-7.34
252.235	47.96
252.451	-11.43
252.668	64.34
252.885	9.05
253.102	19.29
253.318	60.24
253.535	68.44
253.752	-64.68
253.968	23.38
254.185	-23.72
254.401	56.15
254.618	0.85
254.835	-25.77
255.051	146.26
255.268	39.76
255.484	72.53
255.701	15.19
255.917	37.72
256.134	15.19
256.351	43.86
256.567	0.85
256.784	9.05
257	33.62
257.217	47.96
257.433	64.34
257.65	113.49
257.866	68.44
258.082	39.76
258.299	-19.63
258.515	33.62
258.732	9.05
258.948	29.52
259.165	15.19
259.381	13.14
259.597	74.58
259.814	7
260.03	0.85
260.246	17.24
260.463	76.63
260.679	15.19
260.895	68.44
261.112	19.29
261.328	-1.19
261.544	15.19
261.761	17.24
261.977	47.96
262.193	31.57
262.409	109.4
262.626	74.58
262.842	74.58
263.058	7
263.274	129.88
263.49	88.92
263.707	19.29
263.923	0.85
264.139	-7.34
264.355	41.81
264.571	31.57
264.787	39.76
265.004	47.96
265.22	-17.58
265.436	70.48
265.652	23.38
265.868	74.58
266.084	17.24
266.3	37.72
266.516	-33.96
266.732	72.53
266.948	-25.77
267.164	-9.39
267.38	47.96
267.596	19.29
267.812	50
268.028	33.62
268.244	41.81
268.46	35.67
268.676	54.1
268.892	41.81
269.108	2.9
269.324	7
269.54	21.33
269.756	-7.34
269.972	23.38
270.188	72.53
270.403	-13.48
270.619	27.48
270.835	56.15
271.051	58.2
271.267	-40.11
271.483	11.09
271.698	80.72
271.914	105.3
272.13	56.15
272.346	70.48
272.562	88.92
272.777	17.24
272.993	-70.83
273.209	-1.19
273.425	76.63
273.64	7
273.856	62.29
274.072	66.39
274.287	2.9
274.503	101.2
274.719	72.53
274.934	7
275.15	64.34
275.366	11.09
275.581	50
275.797	-56.49
276.012	23.38
276.228	52.05
276.444	31.57
276.659	97.11
276.875	-81.07
277.09	58.2
277.306	35.67
277.521	78.68
277.737	-3.24
277.952	76.63
278.168	33.62
278.383	62.29
278.599	105.3
278.814	72.53
279.03	60.24
279.245	121.68
279.461	101.2
279.676	17.24
279.892	15.19
280.107	-13.48
280.322	-46.25
280.538	11.09
280.753	31.57
280.969	64.34
281.184	72.53
281.399	19.29
281.615	50
281.83	-9.39
282.045	93.01
282.26	74.58
282.476	68.44
282.691	138.07
282.906	47.96
283.122	47.96
283.337	35.67
283.552	66.39
283.767	25.43
283.983	9.05
284.198	-40.11
284.413	68.44
284.628	-46.25
284.843	-40.11
285.058	74.58
285.274	82.77
285.489	27.48
285.704	29.52
285.919	29.52
286.134	138.07
286.349	15.19
286.564	66.39
286.779	29.52
286.995	56.15
287.21	-17.58
287.425	37.72
287.64	9.05
287.855	39.76
288.07	15.19
288.285	-42.15
288.5	31.57
288.715	74.58
288.93	50
289.145	-62.63
289.36	72.53
289.575	52.05
289.79	115.54
290.004	56.15
290.219	29.52
290.434	31.57
290.649	2.9
290.864	39.76
291.079	33.62
291.294	31.57
291.509	80.72
291.724	7
291.938	52.05
292.153	90.96
292.368	80.72
292.583	76.63
292.798	80.72
293.012	50
293.227	50
293.442	31.57
293.657	74.58
293.871	99.16
294.086	7
294.301	62.29
294.516	39.76
294.73	-29.87
294.945	41.81
295.16	60.24
295.374	86.87
295.589	80.72
295.804	-42.15
296.018	-11.43
296.233	39.76
296.447	72.53
296.662	19.29
296.877	21.33
297.091	-15.53
297.306	19.29
297.52	-29.87
297.735	131.92
297.949	45.91
298.164	80.72
298.378	23.38
298.593	39.76
298.807	47.96
299.022	19.29
299.236	50
299.451	86.87
299.665	7
299.88	15.19
300.094	90.96
300.309	25.43
300.523	7
300.737	35.67
300.952	47.96
301.166	56.15
301.381	-23.72
301.595	25.43
301.809	-17.58
302.024	25.43
302.238	-5.29
302.452	117.59
302.667	45.91
302.881	168.79
303.095	15.19
303.309	78.68
303.524	72.53
303.738	23.38
303.952	39.76
304.166	39.76
304.381	43.86
304.595	109.4
304.809	74.58
305.023	84.82
305.237	39.76
305.452	-1.19
305.666	70.48
305.88	107.35
306.094	31.57
306.308	39.76
306.522	60.24
306.736	4.95
306.95	50
307.164	-13.48
307.379	23.38
307.593	9.05
307.807	56.15
308.021	56.15
308.235	9.05
308.449	-42.15
308.663	19.29
308.877	142.16
309.091	15.19
309.305	23.38
309.519	-15.53
309.733	17.24
309.947	9.05
310.161	119.64
310.374	39.76
310.588	72.53
310.802	4.95
311.016	15.19
311.23	7
311.444	68.44
311.658	41.81
311.872	7
312.085	56.15
312.299	23.38
312.513	15.19
312.727	-5.29
312.941	54.1
313.154	23.38
313.368	64.34
313.582	19.29
313.796	23.38
314.009	56.15
314.223	58.2
314.437	11.09
314.651	56.15
314.864	58.2
315.078	-33.96
315.292	41.81
315.505	25.43
315.719	105.3
315.933	56.15
316.146	50
316.36	-9.39
316.573	117.59
316.787	15.19
317.001	45.91
317.214	-21.67
317.428	52.05
317.641	19.29
317.855	19.29
318.068	58.2
318.282	23.38
318.495	80.72
318.709	105.3
318.922	109.4
319.136	113.49
319.349	56.15
319.563	-17.58
319.776	101.2
319.99	97.11
320.203	86.87
320.417	15.19
320.63	58.2
320.843	41.81
321.057	19.29
321.27	50
321.483	117.59
321.697	90.96
321.91	17.24
322.124	136.02
322.337	56.15
322.55	27.48
322.763	33.62
322.977	50
323.19	35.67
323.403	80.72
323.617	70.48
323.83	50
324.043	105.3
324.256	74.58
324.469	-7.34
324.683	97.11
324.896	41.81
325.109	7
325.322	-1.19
325.535	43.86
325.748	39.76
325.962	47.96
326.175	97.11
326.388	35.67
326.601	88.92
326.814	17.24
327.027	119.64
327.24	56.15
327.453	-81.07
327.666	33.62
327.879	39.76
328.092	37.72
328.305	15.19
328.518	11.09
328.731	47.96
328.944	25.43
329.157	90.96
329.37	29.52
329.583	56.15
329.796	90.96
330.009	25.43
330.222	62.29
330.435	78.68
330.648	78.68
330.861	9.05
331.073	43.86
331.286	37.72
331.499	17.24
331.712	15.19
331.925	54.1
332.138	74.58
332.35	43.86
332.563	-50.35
332.776	56.15
332.989	-25.77
333.202	72.53
333.414	56.15
333.627	76.63
333.84	-1.19
334.053	78.68
334.265	19.29
334.478	74.58
334.691	56.15
334.903	35.67
335.116	33.62
335.329	31.57
335.541	74.58
335.754	58.2
335.966	-5.29
336.179	33.62
336.392	21.33
336.604	43.86
336.817	115.54
337.029	62.29
337.242	37.72
337.454	52.05
337.667	-40.11
337.88	60.24
338.092	68.44
338.305	68.44
338.517	56.15
338.729	68.44
338.942	68.44
339.154	15.19
339.367	9.05
339.579	105.3
339.792	41.81
340.004	31.57
340.217	74.58
340.429	39.76
340.641	99.16
340.854	47.96
341.066	101.2
341.278	84.82
341.491	105.3
341.703	52.05
341.915	17.24
342.128	15.19
342.34	15.19
342.552	101.2
342.764	74.58
342.977	33.62
343.189	2.9
343.401	66.39
343.613	54.1
343.826	64.34
344.038	-17.58
344.25	117.59
344.462	-31.91
344.674	66.39
344.886	50
345.099	103.25
345.311	11.09
345.523	93.01
345.735	-58.54
345.947	80.72
346.159	27.48
346.371	31.57
346.583	50
346.795	133.97
347.007	9.05
347.219	52.05
347.431	23.38
347.643	113.49
347.855	23.38
348.067	113.49
348.279	70.48
348.491	113.49
348.703	9.05
348.915	19.29
349.127	0.85
349.339	52.05
349.551	56.15
349.763	60.24
349.975	62.29
350.187	41.81
350.399	58.2
350.61	29.52
350.822	33.62
351.034	56.15
351.246	90.96
351.458	72.53
351.669	97.11
351.881	66.39
352.093	82.77
352.305	39.76
352.517	47.96
352.728	121.68
352.94	58.2
353.152	47.96
353.363	2.9
353.575	58.2
353.787	54.1
353.999	7
354.21	115.54
354.422	52.05
354.633	-7.34
354.845	52.05
355.057	86.87
355.268	-23.72
355.48	41.81
355.692	-9.39
355.903	60.24
356.115	117.59
356.326	-42.15
356.538	138.07
356.749	45.91
356.961	80.72
357.172	35.67
357.384	93.01
357.595	107.35
357.807	72.53
358.018	-1.19
358.23	82.77
358.441	121.68
358.653	25.43
358.864	60.24
359.075	0.85
359.287	97.11
359.498	-5.29
359.709	39.76
359.921	-25.77
360.132	7
360.344	2.9
360.555	72.53
360.766	99.16
360.977	-3.24
361.189	58.2
361.4	-13.48
361.611	129.88
361.823	113.49
362.034	9.05
362.245	31.57
362.456	33.62
362.667	39.76
362.879	-27.82
363.09	39.76
363.301	39.76
363.512	7
363.723	9.05
363.935	13.14
364.146	47.96
364.357	47.96
364.568	80.72
364.779	-29.87
364.99	72.53
365.201	60.24
365.412	-5.29
365.623	17.24
365.834	21.33
366.045	27.48
366.256	58.2
366.467	97.11
366.678	7
366.889	50
367.1	23.38
367.311	56.15
367.522	52.05
367.733	60.24
367.944	56.15
368.155	35.67
368.366	23.38
368.577	93.01
368.788	41.81
368.999	7
369.209	72.53
369.42	152.4
369.631	88.92
369.842	66.39
370.053	19.29
370.264	60.24
370.474	31.57
370.685	45.91
370.896	7
371.107	58.2
371.317	64.34
371.528	11.09
371.739	45.91
371.95	-21.67
372.16	41.81
372.371	7
372.582	33.62
372.792	90.96
373.003	105.3
373.214	72.53
373.424	129.88
373.635	52.05
373.846	27.48
374.056	58.2
374.267	86.87
374.477	7
374.688	62.29
374.898	76.63
375.109	123.73
375.319	4.95
375.53	103.25
375.74	64.34
375.951	78.68
376.161	29.52
376.372	129.88
376.582	105.3
376.793	66.39
377.003	-1.19
377.214	43.86
377.424	70.48
377.635	35.67
377.845	56.15
378.055	97.11
378.266	-13.48
378.476	66.39
378.686	-9.39
378.897	15.19
379.107	86.87
379.317	101.2
379.528	84.82
379.738	88.92
379.948	2.9
380.158	39.76
380.369	62.29
380.579	84.82
380.789	47.96
380.999	-15.53
381.21	140.12
381.42	125.78
381.63	-5.29
381.84	103.25
382.05	138.07
382.261	131.92
382.471	66.39
382.681	39.76
382.891	31.57
383.101	74.58
383.311	56.15
383.521	9.05
383.731	0.85
383.941	60.24
384.151	136.02
384.361	56.15
384.571	50
384.781	58.2
384.991	101.2
385.201	123.73
385.411	31.57
385.621	7
385.831	25.43
386.041	58.2
386.251	97.11
386.461	82.77
386.671	70.48
386.881	103.25
387.091	66.39
387.301	39.76
387.511	45.91
387.72	84.82
387.93	105.3
388.14	29.52
388.35	15.19
388.56	31.57
388.769	84.82
388.979	113.49
389.189	35.67
389.399	97.11
389.609	39.76
389.818	15.19
390.028	121.68
390.238	15.19
390.447	35.67
390.657	129.88
390.867	84.82
391.076	-64.68
391.286	31.57
391.496	117.59
391.705	88.92
391.915	107.35
392.125	84.82
392.334	68.44
392.544	113.49
392.753	72.53
392.963	-9.39
393.172	99.16
393.382	80.72
393.591	113.49
393.801	101.2
394.01	129.88
394.22	72.53
394.429	168.79
394.639	101.2
394.848	99.16
395.058	25.43
395.267	82.77
395.477	109.4
395.686	93.01
395.895	181.07
396.105	88.92
396.314	27.48
396.524	95.06
396.733	72.53
396.942	138.07
397.152	101.2
397.361	129.88
397.57	133.97
397.78	121.68
397.989	164.69
398.198	170.83
398.407	101.2
398.617	164.69
398.826	60.24
399.035	117.59
399.244	68.44
399.453	146.26
399.663	56.15
399.872	113.49
400.081	80.72
400.29	183.12
400.499	74.58
400.708	142.16
400.917	105.3
401.127	68.44
401.336	88.92
401.545	187.22
401.754	115.54
401.963	113.49
402.172	86.87
402.381	97.11
402.59	160.59
402.799	105.3
403.008	162.64
403.217	138.07
403.426	199.51
403.635	176.98
403.844	127.83
404.053	211.79
404.262	162.64
404.471	228.18
404.68	162.64
404.888	154.45
405.097	119.64
405.306	207.7
405.515	187.22
405.724	217.94
405.933	197.46
406.142	123.73
406.35	299.86
406.559	219.99
406.768	236.37
406.977	301.9
407.185	156.5
407.394	213.84
407.603	154.45
407.812	199.51
408.02	162.64
408.229	244.56
408.438	242.51
408.646	262.99
408.855	297.81
409.064	232.27
409.272	297.81
409.481	293.71
409.69	289.62
409.898	285.52
410.107	342.86
410.315	306
410.524	320.34
410.733	289.62
410.941	363.34
411.15	420.69
411.358	224.08
411.567	447.31
411.775	330.58
411.984	359.25
412.192	510.8
412.401	467.79
412.609	584.52
412.818	508.75
413.026	437.07
413.234	484.17
413.443	500.56
413.651	525.13
413.86	572.24
414.068	625.48
414.276	705.35
414.485	623.44
414.693	621.39
414.901	684.87
415.11	727.88
415.318	699.21
415.526	834.38
415.734	768.84
415.943	752.46
416.151	809.8
416.359	840.52
416.567	994.12
416.776	910.15
416.984	908.1
417.192	996.17
417.4	1020.74
417.608	1053.51
417.817	1076.04
418.025	1205.06
418.233	1174.34
418.441	1237.83
418.649	1182.53
418.857	1379.14
419.065	1350.46
419.273	1315.65
419.481	1377.09
419.689	1442.62
419.897	1477.44
420.105	1473.34
420.313	1616.7
420.521	1637.18
420.729	1706.81
420.937	1819.45
421.145	1817.4
421.353	1887.03
421.561	1987.38
421.769	2009.91
421.977	2108.21
422.185	2014.01
422.393	2169.65
422.601	2360.11
422.809	2280.24
423.017	2335.54
423.224	2480.94
423.432	2517.81
423.64	2532.14
423.848	2816.81
424.056	2755.37
424.263	2943.78
424.471	2890.54
424.679	2999.08
424.887	3042.09
425.094	3162.92
425.302	3185.44
425.51	3222.31
425.718	3384.1
425.925	3541.79
426.133	3463.97
426.341	3644.19
426.548	4102.93
426.756	3842.84
426.964	4090.65
427.171	4283.16
427.379	4494.1
427.586	4444.95
427.794	4545.3
428.001	4772.62
428.209	5053.19
428.417	4791.05
428.624	5307.14
428.832	5090.06
429.039	5137.16
429.247	5061.38
429.454	5659.39
429.662	6050.55
429.869	5677.82
430.076	6038.27
430.284	5942.01
430.491	6253.3
430.699	6478.58
430.906	6445.81
431.114	6583.02
431.321	6869.74
431.528	7109.35
431.736	7502.56
431.943	7611.11
432.15	7598.82
432.358	7647.97
432.565	8053.47
432.772	8131.29
432.979	8356.57
433.187	8610.51
433.394	8520.4
433.601	9216.71
433.808	8981.2
434.016	9042.64
434.223	9472.71
434.43	10066.62
434.637	9990.84
434.844	10623.67
435.052	10541.75
435.259	10529.46
435.466	10521.27
435.673	10662.58
435.88	11307.69
436.087	12049.05
436.294	11885.22
436.501	11649.7
436.708	11866.78
436.915	12290.71
437.122	12821.14
437.329	12683.92
437.537	13077.13
437.743	13417.1
437.95	13322.89
438.157	13812.35
438.364	14393.98
438.571	14256.76
438.778	14449.27
438.985	15774.31
439.192	15088.24
439.399	15721.06
439.606	15387.24
439.813	16425.56
440.02	17285.71
440.227	16929.36
440.433	16794.2
440.64	17384.01
440.847	17205.84
441.054	17545.8
441.261	18545.21
441.467	18584.12
441.674	18764.34
441.881	19585.58
442.088	19421.74
442.294	19380.78
442.501	19757.61
442.708	20091.43
442.914	21053.97
443.121	21651.98
443.328	21174.8
443.534	22876.66
443.741	22082.05
443.948	21633.55
444.154	23144.95
444.361	23228.91
444.568	23646.7
444.774	23632.36
444.981	23695.85
445.187	24412.64
445.394	25190.87
445.6	25117.14
445.807	27609.52
446.013	26526.14
446.22	27034.04
446.426	28039.59
446.633	28148.14
446.839	29223.32
447.046	28058.03
447.252	29450.64
447.459	29409.68
447.665	29475.22
447.871	30460.29
448.078	31842.67
448.284	30431.62
448.491	31142.27
448.697	32690.53
448.903	33001.82
449.11	33263.96
449.316	32573.8
449.522	32772.45
449.728	33980.75
449.935	34019.66
450.141	34152.78
450.347	34910.53
450.553	33962.32
450.76	34812.23
450.966	35486.01
451.172	34912.58
451.378	36092.21
451.584	34920.77
451.791	36374.83
451.997	36116.78
452.203	36798.76
452.409	36544.81
452.615	36536.62
452.821	34959.68
453.027	34648.39
453.233	36559.14
453.44	35158.33
453.646	35408.19
453.852	35889.46
454.058	36297
454.264	34715.97
454.47	35989.81
454.676	35037.5
454.882	36155.69
455.088	33374.55
455.294	33247.58
455.5	34163.02
455.705	34621.77
455.911	32784.74
456.117	32643.43
456.323	32401.77
456.529	30255.5
456.735	32057.71
456.941	30998.91
457.147	30759.3
457.352	29702.54
457.558	29366.68
457.764	29405.59
457.97	29024.67
458.176	28242.34
458.381	28268.97
458.587	26702.27
458.793	27011.51
458.999	25442.77
459.204	27382.2
459.41	26573.25
459.616	25139.67
459.821	24758.75
460.027	24779.23
460.233	24228.32
460.438	23278.07
460.644	23503.34
460.85	22133.25
461.055	22000.13
461.261	22110.72
461.466	20185.63
461.672	19655.21
461.878	21139.99
462.083	19554.86
462.289	19237.42
462.494	18883.13
462.7	18399.8
462.905	17984.07
463.111	18444.86
463.316	18373.18
463.522	17979.97
463.727	18031.17
463.932	18051.65
464.138	17709.64
464.343	17832.52
464.549	17138.26
464.754	17738.31
464.959	17791.56
465.165	17599.05
465.37	17080.91
465.575	16493.15
465.781	17234.51
465.986	17195.6
466.191	16771.67
466.397	16566.87
466.602	15321.71
466.807	16300.64
467.012	16343.64
467.218	16018.02
467.423	15741.54
467.628	15948.39
467.833	16626.26
468.038	15737.45
468.244	15569.51
468.449	16128.61
468.654	15753.83
468.859	15465.07
469.064	15405.67
469.269	14727.8
469.474	14934.64
469.679	15172.21
469.885	14840.43
470.09	15135.34
470.295	14809.72
470.5	14441.08
470.705	14709.36
470.91	14375.55
471.115	14226.04
471.32	14379.64
471.525	14209.66
471.73	13994.62
471.935	14023.3
472.139	13212.3
472.344	13646.47
472.549	13451.91
472.754	13507.21
472.959	13195.92
473.164	12814.99
473.369	12628.63
473.574	13077.13
473.778	12925.58
473.983	12870.29
474.188	12755.6
474.393	12245.66
474.598	12403.35
474.802	12016.29
475.007	12157.6
475.212	12042.91
475.417	11528.87
475.621	11623.08
475.826	11745.95
476.031	11674.28
476.235	11197.1
476.44	11547.3
476.645	11158.19
476.849	11129.52
477.054	11086.51
477.259	10814.13
477.463	10769.07
477.668	10609.33
477.872	10689.2
478.077	10674.87
478.282	10404.53
478.486	10320.57
478.691	10289.85
478.895	10259.13
479.1	10255.03
479.304	10123.96
479.509	9964.22
479.713	10015.42
479.918	9927.36
480.122	9855.68
480.326	9902.78
480.531	9939.65
480.735	9726.66
480.94	9724.61
481.144	9992.89
481.348	9495.24
481.553	9497.28
481.757	9372.36
481.961	9511.62
482.166	9704.13
482.37	9503.43
482.574	9276.1
482.778	9392.84
482.983	9638.59
483.187	9247.43
483.391	9542.34
483.595	9407.17
483.8	9239.24
484.004	9497.28
484.208	9646.79
484.412	9333.45
484.616	9308.87
484.821	9521.86
485.025	9245.38
485.229	9398.98
485.433	9472.71
485.637	9487.04
485.841	9147.08
486.045	9312.97
486.249	9411.27
486.453	9315.02
486.657	9353.93
486.861	9534.15
487.065	9321.16
487.269	9511.62
487.473	9177.8
487.677	9593.54
487.881	9505.48
488.085	9485
488.289	9536.2
488.493	9108.17
488.697	9597.63
488.901	9489.09
489.105	9558.72
489.309	9577.16
489.512	9638.59
489.716	9677.51
489.92	9485
490.124	9636.55
490.328	9728.7
490.531	9542.34
490.735	9689.79
490.939	9657.03
491.143	9487.04
491.346	9790.14
491.55	9743.04
491.754	9833.15
491.958	9913.02
492.161	9771.71
492.365	9953.98
492.569	9974.46
492.772	9994.94
492.976	9986.75
493.18	10144.44
493.383	10220.22
493.587	10173.11
493.79	10429.11
493.994	10209.98
494.197	10353.34
494.401	10312.38
494.605	10537.65
494.808	10556.08
495.012	10586.8
495.215	10717.87
495.419	10797.74
495.622	10681.01
495.825	11156.14
496.029	11139.76
496.232	11131.56
496.436	11072.17
496.639	11287.21
496.843	11289.26
497.046	11557.54
497.249	11618.98
497.453	11690.66
497.656	11815.59
497.859	11967.13
498.063	12026.53
498.266	12372.63
498.469	12307.1
498.673	12401.3
498.876	12642.96
499.079	12716.69
499.282	12653.2
499.485	12858
499.689	12976.78
499.892	13251.21
500.095	13187.72
500.298	13474.44
500.501	13408.9
500.705	13705.86
500.908	13834.88
501.111	14033.54
501.314	14213.76
501.517	14367.35
501.72	14602.87
501.923	14393.98
502.126	14879.35
502.329	15034.99
502.532	15030.9
502.735	15207.02
502.938	15491.69
503.141	15362.67
503.344	15905.38
503.547	15925.86
503.75	16286.3
503.953	16419.42
504.156	16413.27
504.359	16636.5
504.562	16538.2
504.765	17273.42
504.968	17078.86
505.17	17279.57
505.373	17629.77
505.576	17726.02
505.779	17932.87
505.982	17920.58
506.185	18549.31
506.387	18395.71
506.59	18453.05
506.793	19214.9
506.996	19208.75
507.198	19462.7
507.401	19386.93
507.604	19565.1
507.807	19919.4
508.009	20011.56
508.212	20169.25
508.415	20331.04
508.617	20740.63
508.82	20732.44
509.022	20714.01
509.225	21420.56
509.428	21236.24
509.63	21754.38
509.833	21729.8
510.035	22088.2
510.238	22129.16
510.44	22182.4
510.643	22753.79
510.845	22989.3
511.048	22612.48
511.25	23435.76
511.453	23532.01
511.655	24084.97
511.858	23806.44
512.06	24367.59
512.262	24535.52
512.465	24482.27
512.667	24904.15
512.87	24963.54
513.072	25233.88
513.274	25496.02
513.477	25809.36
513.679	26018.25
513.881	26323.4
514.084	26651.07
514.286	26558.91
514.488	27027.9
514.69	27546.03
514.893	27410.87
515.095	27740.59
515.297	28101.03
515.499	28064.17
515.701	28342.69
515.904	28846.49
516.106	29084.06
516.308	29077.91
516.51	29680.02
516.712	29360.53
516.914	29815.18
517.116	30615.94
517.318	30452.1
517.52	30876.03
517.722	30890.37
517.925	31426.93
518.127	31760.75
518.329	31349.11
518.531	31416.69
518.733	32219.5
518.935	32510.31
519.136	32551.27
519.338	33116.51
519.54	33093.98
519.742	33423.7
519.944	33382.74
520.146	34081.1
520.348	34206.03
520.55	34361.67
520.752	34601.29
520.954	35479.86
521.155	34695.49
521.357	35488.06
521.559	35496.25
521.761	36079.92
521.963	35709.24
522.164	36337.96
522.366	36639.01
522.568	36878.63
522.77	37058.85
522.971	37507.35
523.173	37198.11
523.375	37732.63
523.576	37611.8
523.778	37841.17
523.98	38193.42
524.181	38744.33
524.383	38869.25
524.584	38985.99
524.786	39045.38
524.988	38875.4
525.189	39557.37
525.391	39424.25
525.592	39581.95
525.794	40278.25
525.995	40024.31
526.197	40016.11
526.398	40216.82
526.6	40503.53
526.801	41023.72
527.003	40493.29
527.204	40712.42
527.406	41226.46
527.607	41390.3
527.808	41523.42
528.01	40974.56
528.211	41611.48
528.412	42254.54
528.614	41717.98
528.815	42041.56
529.016	42356.94
529.218	42057.94
529.419	42064.08
529.62	42014.93
529.822	42301.65
530.023	42234.06
530.224	42322.13
530.425	42381.52
530.626	42371.28
530.828	42254.54
531.029	43002.05
531.23	42543.31
531.431	42709.19
531.632	42737.87
531.833	43153.6
532.035	43092.16
532.236	43225.28
532.437	43382.98
532.638	42690.76
532.839	43741.37
533.04	43190.47
533.241	42913.99
533.442	43837.62
533.643	43217.09
533.844	43487.42
534.045	43026.63
534.246	42717.39
534.447	43767.99
534.648	43108.55
534.849	43569.34
535.05	43126.98
535.251	43319.49
535.451	43241.67
535.652	43667.64
535.853	43538.62
536.054	43497.66
536.255	43444.41
536.456	43043.01
536.657	43882.68
536.857	43735.23
537.058	43274.43
537.259	43583.68
537.46	43976.89
537.66	43831.48
537.861	43600.06
538.062	43405.5
538.263	43700.41
538.463	43804.86
538.664	43643.07
538.865	43628.73
539.065	43589.82
539.266	42911.94
539.466	44023.99
539.667	43053.25
539.868	43817.14
540.068	43528.38
540.269	43294.91
540.469	43864.25
540.67	43094.21
540.87	43280.58
541.071	42987.72
541.271	43516.09
541.472	43249.86
541.672	42963.14
541.873	42821.83
542.073	42758.34
542.274	43552.96
542.474	43167.94
542.675	42946.76
542.875	43393.22
543.075	43282.62
543.276	42942.66
543.476	43702.46
543.676	43049.16
543.877	43497.66
544.077	43436.22
544.277	43133.12
544.478	43135.17
544.678	43380.93
544.878	43151.55
545.078	43319.49
545.279	43018.44
545.479	42975.43
545.679	43499.71
545.879	43491.52
546.079	43249.86
546.28	42830.02
546.48	42731.72
546.68	43180.23
546.88	43194.56
547.08	42879.18
547.28	42852.55
547.48	42551.5
547.68	43395.26
547.88	43004.1
548.081	43161.79
548.281	43196.61
548.481	42678.47
548.681	43165.89
548.881	42971.33
549.081	43122.88
549.28	42498.25
549.48	43223.23
549.68	42733.77
549.88	43684.03
550.08	42840.26
550.28	42967.24
550.48	42535.12
550.68	43423.93
550.88	42928.33
551.08	43032.77
551.279	43215.04
551.479	42281.17
551.679	42889.41
551.879	42793.16
552.079	42971.33
552.278	42348.75
552.478	43094.21
552.678	42832.07
552.878	42809.54
553.077	42756.3
553.277	42590.41
553.477	43083.97
553.676	42234.06
553.876	42639.56
554.076	42496.2
554.275	42635.47
554.475	42045.65
554.674	42580.17
554.874	42668.23
555.074	41930.97
555.273	42588.36
555.473	42627.27
555.672	42256.59
555.872	42395.85
556.071	42608.84
556.271	42281.17
556.47	42096.85
556.67	41625.82
556.869	42043.6
557.068	42107.09
557.268	41801.94
557.467	41935.06
557.667	41838.81
557.866	41890.01
558.065	41576.67
558.265	41677.02
558.464	41427.17
558.663	41801.94
558.863	41421.02
559.062	42078.42
559.261	41337.05
559.461	42035.41
559.66	41464.03
559.859	41672.92
560.058	41361.63
560.258	41724.12
560.457	40880.36
560.656	41124.07
560.855	41359.58
561.054	41269.47
561.253	41574.62
561.453	41048.29
561.652	41117.92
561.851	41195.74
562.05	41128.16
562.249	40849.64
562.448	41380.06
562.647	40534.25
562.846	40679.66
563.045	40755.43
563.244	40644.84
563.443	40630.51
563.642	40188.14
563.841	40708.33
564.04	40081.65
564.239	40710.38
564.438	39999.73
564.637	40503.53
564.836	40358.13
565.035	39620.86
565.234	40036.59
565.432	40120.56
565.631	39653.62
565.83	40091.89
566.029	39749.88
566.228	39837.94
566.427	39545.08
566.625	39057.67
566.824	39233.79
567.023	39596.28
567.222	38768.9
567.42	39461.12
567.619	39086.34
567.818	38940.93
568.016	39078.15
568.215	39153.92
568.414	38512.91
568.612	39145.73
568.811	38617.35
569.01	39026.95
569.208	38097.17
569.407	38635.78
569.605	37720.34
569.804	38727.94
570.002	38105.36
570.201	38174.99
570.4	38013.2
570.598	38023.44
570.797	37787.92
570.995	37884.18
571.193	37648.66
571.392	38033.68
571.59	37536.02
571.789	37626.14
571.987	37611.8
572.186	37331.23
572.384	37028.13
572.582	37427.48
572.781	37529.88
572.979	36831.52
573.177	36991.26
573.376	37204.25
573.574	36589.86
573.772	37081.38
573.971	36499.75
574.169	36421.93
574.367	36426.03
574.565	36161.84
574.763	36178.22
574.962	36589.86
575.16	35686.71
575.358	36032.82
575.556	35856.69
575.754	35877.17
575.952	35459.38
576.151	36041.01
576.349	35377.47
576.547	35516.73
576.745	35780.92
576.943	35617.08
577.141	35576.12
577.339	35426.62
577.537	35105.09
577.735	34728.26
577.933	34818.37
578.131	34947.39
578.329	34677.06
578.527	34398.54
578.725	34554.18
578.923	34679.11
579.121	34453.83
579.319	34689.35
579.516	34429.26
579.714	34396.49
579.912	34599.24
580.11	34169.16
580.308	34253.13
580.506	34519.37
580.704	33444.18
580.901	33878.35
581.099	33616.21
581.297	33378.65
581.495	33548.63
581.692	33726.8
581.89	33200.47
582.088	33626.45
582.285	33636.69
582.483	33493.33
582.681	33136.99
582.878	32721.25
583.076	32741.73
583.274	32993.63
583.471	32352.62
583.669	32964.96
583.866	32602.47
584.064	32805.22
584.262	32295.27
584.459	32473.45
584.657	32248.17
584.854	32360.81
585.052	31967.6
585.249	32010.6
585.447	31967.6
585.644	31748.46
585.841	31715.7
586.039	31928.69
586.236	31644.02
586.434	31611.25
586.631	31230.33
586.828	31297.91
587.026	31420.79
587.223	31408.5
587.42	30912.89
587.618	30986.62
587.815	30497.16
588.012	30837.12
588.21	30562.69
588.407	30853.5
588.604	30816.64
588.801	30433.67
588.999	30480.77
589.196	30302.6
589.393	30257.54
589.59	30177.67
589.787	30042.51
589.984	29948.3
590.182	29686.16
590.379	29827.47
590.576	29747.6
590.773	29862.29
590.97	29718.93
591.167	29473.17
591.364	29378.97
591.561	29340.05
591.758	28912.03
591.955	29346.2
592.152	29297.05
592.349	29219.22
592.546	28887.45
592.743	28494.24
592.94	28557.73
593.137	28860.83
593.334	28684.7
593.531	28273.06
593.727	28871.07
593.924	28479.91
594.121	27826.6
594.318	28565.92
594.515	27984.3
594.712	28696.99
594.908	27826.6
595.105	28232.1
595.302	27802.03
595.499	27828.65
595.696	27863.47
595.892	27595.18
596.089	27795.89
596.286	27963.82
596.482	27640.24
596.679	27376.05
596.876	27140.54
597.072	27173.3
597.269	27185.59
597.466	26718.65
597.662	27191.73
597.859	26958.27
598.055	26974.65
598.252	26886.59
598.448	26534.34
598.645	26624.45
598.841	26423.75
599.038	26386.88
599.234	26347.97
599.431	26202.57
599.627	25956.81
599.824	26272.2
600.02	25872.84
600.217	26057.16
600.413	26081.74
600.609	25500.11
600.806	25649.61
601.002	25670.09
601.198	25532.88
601.395	25485.78
601.591	25610.7
601.787	25410
601.984	25319.89
602.18	25508.3
602.376	25260.5
602.572	24990.17
602.769	25319.89
602.965	24693.21
603.161	24848.86
603.357	24752.6
603.553	24234.47
603.75	24594.91
603.946	24291.81
604.142	24721.88
604.338	24312.29
604.534	24556
604.73	24388.07
604.926	23753.19
605.122	24029.67
605.318	23849.45
605.514	23841.26
605.71	23841.26
605.906	23837.16
606.102	23747.05
606.298	23925.22
606.494	23638.51
606.69	23996.9
606.886	23691.76
607.082	23177.72
607.278	23446
607.474	23249.39
607.67	23431.66
607.866	23028.21
608.062	23427.57
608.257	23132.66
608.453	23044.6
608.649	23290.35
608.845	23069.17
609.041	22868.47
609.236	22979.06
609.432	23001.59
609.628	22768.12
609.824	22649.34
610.019	22712.83
610.215	22639.1
610.411	22864.38
610.606	22661.63
610.802	22620.67
610.998	22465.02
611.193	22526.46
611.389	22325.76
611.584	22190.59
611.78	22092.29
611.976	22069.76
612.171	22231.55
612.367	22149.64
612.562	22292.99
612.758	21733.9
612.953	21877.26
613.149	22002.18
613.344	21793.29
613.539	22317.57
613.735	21940.74
613.93	21991.94
614.126	21498.38
614.321	22080
614.517	21643.79
614.712	21682.7
614.907	21666.31
615.103	21948.93
615.298	21545.48
615.493	21981.7
615.688	21428.75
615.884	21645.84
616.079	20990.49
616.274	21377.55
616.47	21238.29
616.665	21522.96
616.86	20943.38
617.055	21174.8
617.25	20754.97
617.445	21293.58
617.641	20716.06
617.836	20912.66
618.031	20816.41
618.226	20955.67
618.421	20797.98
618.616	20757.02
618.811	20408.86
619.006	20638.23
619.201	20304.42
619.396	20185.63
619.591	19933.73
619.786	20150.82
619.981	19851.81
620.176	20204.07
620.371	19780.14
620.566	20140.58
620.761	19642.92
620.956	19608.11
621.151	19675.69
621.346	19569.19
621.541	19175.98
621.735	19378.73
621.93	18950.71
622.125	19362.35
622.32	18750.01
622.515	18987.57
622.709	18997.81
622.904	19010.1
623.099	18694.71
623.294	18942.52
623.488	18479.68
623.683	18735.67
623.878	18190.91
624.072	18186.82
624.267	18432.57
624.462	18127.42
624.656	17748.55
624.851	18160.19
625.046	17672.78
625.24	17576.52
625.435	17748.55
625.629	17611.34
625.824	17373.77
626.018	17365.58
626.213	17068.62
626.407	17111.63
626.602	16906.84
626.796	17132.11
626.991	17087.06
627.185	16835.16
627.38	16530.01
627.574	16702.04
627.768	16691.8
627.963	16587.35
628.157	16396.89
628.352	16126.56
628.546	15891.04
628.74	16333.4
628.935	16181.85
629.129	16190.05
629.323	16007.78
629.517	15946.34
629.712	15589.99
629.906	15821.41
630.1	15499.88
630.294	15561.32
630.489	15243.88
630.683	15452.78
630.877	15161.97
631.071	15153.77
631.265	15309.42
631.459	14989.94
631.653	14951.03
631.848	14879.35
632.042	14819.96
632.236	14551.67
632.43	14492.28
632.624	14672.5
632.818	14559.86
633.012	14322.3
633.206	14264.96
633.4	14310.01
633.594	14035.58
633.788	14201.47
633.982	13978.24
634.176	14060.16
634.369	13736.58
634.563	13755.01
634.757	13828.74
634.951	13763.2
635.145	13722.24
635.339	13621.89
635.533	13466.25
635.726	13472.39
635.92	13515.4
636.114	13132.43
636.308	13157
636.501	13361.8
636.695	13312.65
636.889	12901.01
637.083	12941.97
637.276	12862.1
637.47	12640.92
637.664	12634.77
637.857	12591.77
638.051	12728.98
638.244	12579.48
638.438	12503.7
638.632	12386.97
638.825	12122.78
639.019	12360.34
639.212	12120.73
639.406	12130.97
639.599	12016.29
639.793	12073.63
639.986	11897.5
640.18	11960.99
640.373	11735.71
640.567	11793.06
640.76	11836.06
640.954	11627.17
641.147	11455.14
641.34	11565.73
641.534	11629.22
641.727	11532.97
641.92	11453.09
642.114	11279.02
642.307	11082.41
642.5	11303.59
642.694	11037.36
642.887	10982.06
643.08	11053.74
643.273	11150
643.467	10910.38
643.66	10789.55
643.853	10873.52
644.046	10656.43
644.239	10623.67
644.432	10459.83
644.626	10443.45
644.819	10650.29
645.012	10295.99
645.205	10449.59
645.398	10445.49
645.591	10369.72
645.784	10054.33
645.977	10070.72
646.17	10402.49
646.363	9992.89
646.556	9847.49
646.749	9847.49
646.942	9855.68
647.135	9743.04
647.328	9693.89
647.521	9679.55
647.714	9669.31
647.907	9732.8
648.099	9523.91
648.292	9509.57
648.485	9509.57
648.678	9413.32
648.871	9321.16
649.064	9411.27
649.256	9278.15
649.449	9312.97
649.642	9052.88
649.835	9118.41
650.027	9112.27
650.22	8944.33
650.413	8995.53
650.605	8962.76
650.798	8848.08
650.991	8956.62
651.183	8774.35
651.376	8796.88
651.568	8614.61
651.761	8798.93
651.954	8725.2
652.146	8655.57
652.339	8577.75
652.531	8739.54
652.724	8418
652.916	8321.75
653.109	8456.92
653.301	8217.3
653.494	8370.9
653.686	8196.82
653.879	8379.09
654.071	8053.47
654.263	8018.65
654.456	8067.8
654.648	8010.46
654.84	8028.89
655.033	7779.04
655.225	7944.92
655.417	7946.97
655.61	7828.19
655.802	7723.74
655.994	7840.48
656.186	7838.43
656.379	7873.25
656.571	7699.17
656.763	7586.53
656.955	7488.23
657.148	7496.42
657.34	7590.63
657.532	7502.56
657.724	7400.16
657.916	7201.51
658.108	7340.77
658.3	7293.67
658.492	7355.11
658.684	7226.09
658.876	7125.74
659.068	7064.3
659.26	7193.32
659.452	7035.63
659.644	7066.35
659.836	6898.41
660.028	7054.06
660.22	6943.47
660.412	6996.71
660.604	6816.49
660.796	6855.4
660.988	6683.38
661.18	6677.23
661.372	6468.34
661.563	6669.04
661.755	6626.03
661.947	6597.36
662.139	6613.74
662.331	6529.78
662.522	6560.5
662.714	6675.18
662.906	6683.38
663.097	6241.01
663.289	6331.12
663.481	6521.59
663.673	6396.66
663.864	6460.15
664.056	6152.95
664.247	6167.29
664.439	6179.58
664.631	6021.88
664.822	6013.69
665.014	6130.42
665.205	6116.09
665.397	6003.45
665.588	6052.6
665.78	5815.04
665.971	5937.91
666.163	5964.54
666.354	5845.76
666.546	5815.04
666.737	5833.47
666.929	5907.2
667.12	5956.35
667.311	5804.8
667.503	5706.49
667.694	5696.25
667.885	5573.38
668.077	5722.88
668.268	5532.42
668.459	5600
668.651	5530.37
668.842	5569.28
669.033	5632.77
669.224	5513.99
669.416	5421.83
669.607	5430.02
669.798	5266.18
669.989	5423.87
670.18	5315.33
670.371	5458.69
670.563	5495.55
670.754	5190.41
670.945	5307.14
671.136	5411.59
671.327	5266.18
671.518	5245.7
671.709	5315.33
671.9	5268.23
672.091	5098.25
672.282	5102.34
672.473	5110.54
672.664	5045
672.855	5006.09
673.046	4997.9
673.237	5153.54
673.428	4989.71
673.619	4973.32
673.809	4870.92
674	5077.77
674.191	4995.85
674.382	5028.62
674.573	4887.31
674.764	4858.64
674.954	4899.59
675.145	4782.86
675.336	4866.83
675.527	4743.95
675.717	4815.63
675.908	4659.98
676.099	4743.95
676.289	4784.91
676.48	4709.13
676.671	4758.28
676.861	4743.95
677.052	4637.45
677.243	4719.37
677.433	4772.62
677.624	4746
677.814	4719.37
678.005	4514.58
678.195	4606.74
678.386	4512.53
678.576	4584.21
678.767	4594.45
678.957	4514.58
679.148	4467.47
679.338	4561.68
679.529	4582.16
679.719	4598.54
679.909	4684.56
680.1	4389.65
680.29	4301.59
680.481	4383.51
680.671	4420.37
680.861	4440.85
681.052	4500.24
681.242	4430.61
681.432	4406.03
681.622	4307.73
681.813	4279.06
682.003	4500.24
682.193	4266.77
682.383	4307.73
682.573	4281.11
682.764	4326.16
682.954	4397.84
683.144	4266.77
683.334	4236.05
683.524	4277.01
683.714	4277.01
683.904	4291.35
684.094	4143.89
684.284	4164.37
684.474	4285.2
684.664	4201.24
684.854	4203.29
685.044	4070.17
685.234	4143.89
685.424	4064.02
685.614	4260.63
685.804	4168.47
685.994	4125.46
686.184	4012.82
686.374	3998.49
686.564	4076.31
686.753	4031.26
686.943	4004.63
687.133	3984.15
687.323	4027.16
687.513	4010.78
687.702	3935
687.892	3840.79
688.082	3801.88
688.272	4004.63
688.461	3848.99
688.651	3824.41
688.841	3779.36
689.03	3906.33
689.22	3848.99
689.41	3881.75
689.599	3666.72
689.789	3758.88
689.979	3801.88
690.168	3799.84
690.358	3679.01
690.547	3726.11
690.737	3695.39
690.926	3676.96
691.116	3681.05
691.305	3662.62
691.495	3552.03
691.684	3537.7
691.874	3498.78
692.063	3652.38
692.252	3599.13
692.442	3595.04
692.631	3533.6
692.82	3547.94
693.01	3539.74
693.199	3572.51
693.388	3443.49
693.578	3541.79
693.767	3466.02
693.956	3390.24
694.146	3341.09
694.335	3390.24
694.524	3466.02
694.713	3406.63
694.902	3185.44
695.092	3351.33
695.281	3496.74
695.47	3377.95
695.659	3269.41
695.848	3328.8
696.037	3382.05
696.226	3265.32
696.415	3312.42
696.604	3363.62
696.793	3193.64
696.982	3312.42
697.171	3328.8
697.36	3257.12
697.549	3232.55
697.738	3207.97
697.927	3173.16
698.116	3343.14
698.305	3193.64
698.494	3265.32
698.683	3126.05
698.872	3263.27
699.061	3160.87
699.25	3175.2
699.438	3156.77
699.627	3119.91
699.816	3291.94
700.005	3140.39
700.193	3158.82
700.382	3076.9
700.571	3193.64
700.76	3181.35
700.948	3062.57
701.137	3001.13
701.326	3199.78
701.514	3113.77
701.703	3121.96
701.892	3091.24
702.08	3177.25
702.269	3105.57
702.457	2997.03
702.646	3130.15
702.834	3005.22
703.023	3078.95
703.212	3081
703.4	3101.48
703.589	2870.06
703.777	3140.39
703.965	3040.04
704.154	3048.23
704.342	3070.76
704.531	2980.65
704.719	2915.11
704.907	3035.94
705.096	2972.46
705.284	3027.75
705.472	2997.03
705.661	2984.74
705.849	3081
706.037	3037.99
706.226	2923.3
706.414	2982.7
706.602	2902.83
706.79	2997.03
706.979	2939.69
707.167	2941.74
707.355	2829.1
707.543	2870.06
707.731	2915.11
707.919	2870.06
708.107	2843.43
708.296	2915.11
708.484	2827.05
708.672	2921.26
708.86	3029.8
709.048	2849.58
709.236	2825
709.424	2947.88
709.612	2775.85
709.8	2767.66
709.988	2663.21
710.176	2894.63
710.364	2781.99
710.551	2798.38
710.739	2845.48
710.927	2661.16
711.115	2868.01
711.303	2906.92
711.491	2857.77
711.679	2738.99
711.866	2718.51
712.054	2876.2
712.242	2636.59
712.43	2857.77
712.617	2777.9
712.805	2761.52
712.993	2755.37
713.181	2612.01
713.368	2689.84
713.556	2648.88
713.744	2628.4
713.931	2794.28
714.119	2663.21
714.306	2784.04
714.494	2716.46
714.682	2728.75
714.869	2591.53
715.057	2747.18
715.244	2822.95
715.432	2695.98
715.619	2644.78
715.807	2663.21
715.994	2628.4
716.182	2669.36
716.369	2536.24
716.556	2757.42
716.744	2644.78
716.931	2741.04
717.119	2540.33
717.306	2577.2
717.493	2720.56
717.681	2638.64
717.868	2616.11
718.055	2609.97
718.242	2562.86
718.43	2577.2
718.617	2661.16
718.804	2458.42
718.991	2487.09
719.179	2605.87
719.366	2618.16
719.553	2526
719.74	2515.76
719.927	2485.04
720.114	2448.18
720.301	2468.66
720.488	2515.76
720.676	2591.53
720.863	2480.94
721.05	2540.33
721.237	2503.47
721.424	2513.71
721.611	2556.72
721.798	2390.83
721.985	2433.84
722.172	2501.42
722.358	2450.22
722.545	2579.25
722.732	2505.52
722.919	2433.84
723.106	2511.66
723.293	2474.8
723.48	2464.56
723.667	2507.57
723.853	2474.8
724.04	2382.64
724.227	2399.02
724.414	2435.89
724.6	2302.77
724.787	2466.61
724.974	2583.34
725.161	2390.83
725.347	2376.5
725.534	2349.87
725.72	2399.02
725.907	2458.42
726.094	2407.22
726.28	2403.12
726.467	2394.93
726.653	2439.98
726.84	2376.5
727.027	2337.59
727.213	2267.95
727.4	2374.45
727.586	2464.56
727.773	2415.41
727.959	2425.65
728.145	2372.4
728.332	2327.35
728.518	2278.19
728.705	2319.15
728.891	2341.68
729.077	2339.63
729.264	2333.49
729.45	2423.6
729.636	2392.88
729.823	2341.68
730.009	2360.11
730.195	2259.76
730.382	2294.58
730.568	2360.11
730.754	2267.95
730.94	2243.38
731.126	2212.66
731.313	2272.05
731.499	2237.24
731.685	2128.69
731.871	2272.05
732.057	2257.71
732.243	2376.5
732.429	2296.63
732.615	2214.71
732.801	2249.52
732.987	2181.94
733.173	2183.99
733.359	2200.37
733.545	2149.17
733.731	2188.08
733.917	2247.48
734.103	2247.48
734.289	2218.8
734.475	2280.24
734.661	2218.8
734.847	2229.04
735.033	2251.57
735.219	2095.93
735.404	2276.15
735.59	2112.31
735.776	2112.31
735.962	2136.88
736.148	2259.76
736.333	2253.62
736.519	2130.74
736.705	2163.51
736.89	2179.89
737.076	2157.36
737.262	2040.63
737.447	2067.25
737.633	2173.75
737.819	2085.69
738.004	2104.12
738.19	2069.3
738.375	2128.69
738.561	2061.11
738.747	2050.87
738.932	2038.58
739.118	2153.27
739.303	1979.19
739.489	2169.65
739.674	2124.6
739.859	2108.21
740.045	1930.04
740.23	2149.17
740.416	1958.71
740.601	2100.02
740.786	2095.93
740.972	2057.01
741.157	2030.39
741.342	1981.24
741.528	1977.14
741.713	2032.44
741.898	1991.48
742.084	2050.87
742.269	1844.03
742.454	1923.9
742.639	2054.97
742.824	1899.32
743.01	1987.38
743.195	1913.66
743.38	1880.89
743.565	2014.01
743.75	1956.66
743.935	2038.58
744.12	1919.8
744.305	1811.26
744.49	1846.07
744.675	1837.88
744.86	1821.5
745.045	1899.32
745.23	1874.74
745.415	1848.12
745.6	1841.98
745.785	1909.56
745.97	1715
746.155	1751.87
746.34	1727.29
746.525	1811.26
746.71	1770.3
746.895	1657.66
747.079	1817.4
747.264	1678.14
747.449	1784.63
747.634	1669.95
747.819	1776.44
748.003	1616.7
748.188	1610.56
748.373	1708.86
748.557	1674.04
748.742	1596.22
748.927	1624.89
749.111	1682.24
749.296	1649.47
749.481	1579.84
749.665	1538.88
749.85	1499.97
750.034	1522.49
750.219	1579.84
750.404	1495.87
750.588	1448.77
750.773	1489.73
750.957	1497.92
751.141	1575.74
751.326	1555.26
751.51	1391.42
751.695	1456.96
751.879	1407.81
752.064	1452.86
752.248	1327.94
752.432	1534.78
752.617	1444.67
752.801	1475.39
752.985	1432.38
753.17	1334.08
753.354	1389.38
753.538	1450.82
753.722	1366.85
753.907	1407.81
754.091	1317.7
754.275	1344.32
754.459	1346.37
754.643	1297.22
754.828	1329.99
755.012	1315.65
755.196	1239.87
755.38	1188.68
755.564	1229.63
755.748	1301.31
755.932	1237.83
756.116	1280.83
756.3	1286.98
756.484	1153.86
756.668	1231.68
756.852	1145.67
757.036	1071.94
757.22	1274.69
757.404	1262.4
757.588	1157.96
757.772	1186.63
757.956	1057.61
758.14	1174.34
758.323	1133.38
758.507	1145.67
758.691	1073.99
758.875	1129.28
759.059	1063.75
759.242	1076.04
759.426	1131.33
759.61	1164.1
759.794	1033.03
759.977	1125.19
760.161	1117
760.345	1112.9
760.528	1016.65
760.712	1067.85
760.895	1057.61
761.079	1065.8
761.263	1049.41
761.446	1053.51
761.63	1016.65
761.813	1071.94
761.997	1008.45
762.18	928.58
762.364	963.4
762.547	897.86
762.731	981.83
762.914	940.87
763.098	1006.41
763.281	926.54
763.464	983.88
763.648	1030.98
763.831	1028.93
764.015	920.39
764.198	838.47
764.381	914.25
764.564	863.05
764.748	920.39
764.931	904.01
765.114	875.34
765.297	936.78
765.481	891.72
765.664	928.58
765.847	926.54
766.03	940.87
766.213	858.95
766.397	815.94
766.58	826.18
766.763	883.53
766.946	846.66
767.129	854.86
767.312	879.43
767.495	932.68
767.678	768.84
767.861	895.82
768.044	826.18
768.227	942.92
768.41	885.58
768.593	844.62
768.776	840.52
768.959	861
769.142	863.05
769.324	727.88
769.507	787.27
769.69	746.31
769.873	688.97
770.056	852.81
770.239	836.42
770.421	836.42
770.604	768.84
770.787	817.99
770.97	852.81
771.152	811.85
771.335	789.32
771.518	762.7
771.7	719.69
771.883	721.74
772.066	785.23
772.248	754.51
772.431	785.23
772.613	734.03
772.796	672.59
772.978	809.8
773.161	752.46
773.343	736.07
773.526	717.64
773.708	723.79
773.891	629.58
774.073	707.4
774.256	660.3
774.438	721.74
774.621	613.2
774.803	734.03
774.985	635.72
775.168	654.16
775.35	709.45
775.532	678.73
775.715	641.87
775.897	633.68
776.079	701.26
776.261	531.28
776.444	543.57
776.626	617.29
776.808	727.88
776.99	572.24
777.173	572.24
777.355	621.39
777.537	652.11
777.719	564.04
777.901	555.85
778.083	648.01
778.265	547.66
778.447	662.35
778.629	557.9
778.811	574.28
778.993	580.43
779.175	570.19
779.357	547.66
779.539	549.71
779.721	557.9
779.903	557.9
780.085	586.57
780.267	555.85
780.449	645.96
780.631	426.83
780.812	592.72
780.994	525.13
781.176	525.13
781.358	564.04
781.54	473.93
781.721	531.28
781.903	578.38
782.085	506.7
782.267	521.04
782.448	449.36
782.63	523.09
782.812	437.07
782.993	543.57
783.175	490.32
783.357	498.51
783.538	545.61
783.72	424.78
783.901	490.32
784.083	494.41
784.264	441.17
784.446	498.51
784.627	424.78
784.809	426.83
784.99	408.4
785.172	488.27
785.353	455.5
785.535	475.98
785.716	439.12
785.897	420.69
786.079	502.61
786.26	473.93
786.441	375.63
786.623	408.4
786.804	377.68
786.985	408.4
787.167	432.97
787.348	314.19
787.529	404.3
787.71	430.93
787.891	387.92
788.073	418.64
788.254	387.92
788.435	367.44
788.616	344.91
788.797	303.95
788.978	297.81
789.159	424.78
789.34	367.44
789.522	344.91
789.703	318.29
789.884	392.02
790.065	371.54
790.246	371.54
790.427	334.67
790.607	383.82
790.788	279.38
790.969	289.62
791.15	318.29
791.331	285.52
791.512	346.96
791.693	279.38
791.874	252.75
792.054	351.06
792.235	312.14
792.416	314.19
792.597	328.53
792.778	265.04
792.958	400.21
793.139	256.85
793.32	342.86
793.5	279.38
793.681	318.29
793.862	271.19
794.042	252.75
794.223	254.8
794.404	281.43
794.584	254.8
794.765	246.61
794.945	279.38
795.126	340.82
795.306	301.9
795.487	285.52
795.667	195.41
795.848	238.42
796.028	228.18
796.209	252.75
796.389	234.32
796.57	279.38
796.75	228.18
796.93	246.61
797.111	287.57
797.291	260.95
797.471	232.27
797.652	281.43
797.832	269.14
798.012	289.62
798.192	215.89
798.373	191.31
798.553	232.27
798.733	203.6
798.913	238.42
799.093	238.42
799.274	244.56
799.454	265.04
799.634	224.08
799.814	203.6
799.994	213.84
800.174	260.95
800.354	217.94
800.534	203.6
800.714	195.41
800.894	203.6
801.074	183.12
801.254	148.31
801.434	260.95
801.614	142.16
801.794	217.94
801.974	799.56
802.154	209.75
802.334	252.75
802.514	191.31
802.693	174.93
802.873	162.64
803.053	195.41
803.233	244.56
803.413	172.88
803.592	164.69
803.772	213.84
803.952	195.41
804.131	213.84
804.311	187.22
804.491	236.37
804.67	164.69
804.85	142.16
805.03	191.31
805.209	164.69
805.389	185.17
805.568	148.31
805.748	166.74
805.928	230.23
806.107	260.95
806.287	197.46
806.466	113.49
806.646	211.79
806.825	138.07
807.004	138.07
807.184	205.65
807.363	183.12
807.543	156.5
807.722	207.7
807.901	207.7
808.081	211.79
808.26	105.3
808.439	207.7
808.619	146.26
808.798	133.97
808.977	219.99
809.156	203.6
809.336	162.64
809.515	146.26
809.694	88.92
809.873	123.73
810.052	170.83
810.231	197.46
810.411	170.83
810.59	197.46
810.769	230.23
810.948	228.18
811.127	138.07
811.306	125.78
811.485	195.41
811.664	199.51
811.843	95.06
812.022	146.26
812.201	174.93
812.38	154.45
812.559	179.03
812.737	158.55
812.916	103.25
813.095	148.31
813.274	133.97
813.453	176.98
813.632	154.45
813.811	170.83
813.989	-5.29
814.168	219.99
814.347	138.07
814.526	138.07
814.704	166.74
814.883	236.37
815.062	107.35
815.24	105.3
815.419	80.72
815.598	166.74
815.776	138.07
815.955	105.3
816.133	123.73
816.312	162.64
816.49	103.25
816.669	170.83
816.847	187.22
817.026	140.12
817.204	133.97
817.383	82.77
817.561	101.2
817.74	154.45
817.918	123.73
818.097	170.83
818.275	199.51
818.453	189.27
818.632	105.3
818.81	82.77
818.988	140.12
819.167	127.83
819.345	105.3
819.523	74.58
819.701	107.35
819.879	68.44
820.058	129.88
820.236	113.49
820.414	103.25
820.592	115.54
820.77	80.72
820.948	80.72
821.127	97.11
821.305	82.77
821.483	111.44
821.661	146.26
821.839	187.22
822.017	115.54
822.195	23.38
822.373	138.07
822.551	111.44
822.729	31.57
822.907	133.97
823.085	154.45
823.262	58.2
823.44	88.92
823.618	115.54
823.796	66.39
823.974	113.49
824.152	90.96
824.329	105.3
824.507	123.73
824.685	107.35
824.863	68.44
825.04	154.45
825.218	123.73
825.396	117.59
825.574	162.64
825.751	86.87
825.929	90.96
826.107	86.87
826.284	15.19
826.462	105.3
826.639	80.72
826.817	160.59
826.994	129.88
827.172	117.59
827.349	72.53
827.527	113.49
827.704	64.34
827.882	47.96
828.059	121.68
828.237	111.44
828.414	72.53
828.591	68.44
828.769	148.31
828.946	58.2
829.124	123.73
829.301	64.34
829.478	125.78
829.655	88.92
829.833	82.77
830.01	2.9
830.187	90.96
830.364	129.88
830.542	195.41
830.719	97.11
830.896	82.77
831.073	123.73
831.25	107.35
831.427	121.68
831.604	68.44
831.782	84.82
831.959	105.3
832.136	39.76
832.313	117.59
832.49	72.53
832.667	66.39
832.844	50
833.021	133.97
833.198	82.77
833.374	58.2
833.551	64.34
833.728	56.15
833.905	115.54
834.082	21.33
834.259	105.3
834.436	82.77
834.612	72.53
834.789	58.2
834.966	103.25
835.143	56.15
835.319	31.57
835.496	66.39
835.673	72.53
835.85	45.91
836.026	60.24
836.203	97.11
836.38	74.58
836.556	31.57
836.733	-23.72
836.909	131.92
837.086	33.62
837.262	82.77
837.439	64.34
837.616	52.05
837.792	93.01
837.968	148.31
838.145	111.44
838.321	88.92
838.498	146.26
838.674	-1.19
838.851	27.48
839.027	72.53
839.203	93.01
839.38	97.11
839.556	115.54
839.732	105.3
839.909	58.2
840.085	39.76
840.261	-31.91
840.437	74.58
840.614	52.05
840.79	129.88
840.966	60.24
841.142	39.76
841.318	-38.06
841.494	-17.58
841.671	56.15
841.847	82.77
842.023	33.62
842.199	13.14
842.375	68.44
842.551	-1.19
842.727	23.38
842.903	70.48
843.079	70.48
843.255	54.1
843.431	-66.73
843.607	-3.24
843.783	7
843.959	43.86
844.134	-13.48
844.31	66.39
844.486	72.53
844.662	31.57
844.838	35.67
845.013	39.76
845.189	2.9
845.365	99.16
845.541	19.29
845.716	113.49
845.892	133.97
846.068	56.15
846.244	66.39
846.419	97.11
846.595	31.57
846.77	47.96
846.946	17.24
847.122	56.15
847.297	64.34
847.473	88.92
847.648	4.95
847.824	-13.48
847.999	15.19
848.175	35.67
848.35	31.57
848.526	107.35
848.701	107.35
848.876	74.58
849.052	72.53
849.227	11.09
849.403	-21.67
849.578	-48.3
849.753	19.29
849.929	4.95
850.104	17.24
850.279	31.57
850.454	-9.39
850.63	-7.34
850.805	-1.19
850.98	74.58
851.155	33.62
851.33	84.82
851.505	-1.19
851.681	72.53
851.856	35.67
852.031	9.05
852.206	68.44
852.381	121.68
852.556	47.96
852.731	99.16
852.906	62.29
853.081	35.67
853.256	72.53
853.431	80.72
853.606	-31.91
853.781	39.76
853.956	-50.35
854.131	2.9
854.305	19.29
854.48	13.14
854.655	33.62
854.83	-13.48
855.005	31.57
855.18	23.38
855.354	-9.39
855.529	33.62
855.704	-31.91
855.879	86.87
856.053	-23.72
856.228	43.86
856.403	-48.3
856.577	47.96
856.752	35.67
856.926	158.55
857.101	-7.34
857.276	23.38
857.45	70.48
857.625	31.57
857.799	13.14
857.974	-13.48
858.148	15.19
858.323	-19.63
858.497	-42.15
858.672	39.76
858.846	-31.91
859.02	72.53
859.195	-7.34
859.369	37.72
859.543	41.81
859.718	-3.24
859.892	47.96
860.066	23.38
860.241	33.62
860.415	9.05
860.589	50
860.763	86.87
860.938	64.34
861.112	68.44
861.286	88.92
861.46	23.38
861.634	23.38
861.808	37.72
861.982	70.48
862.157	17.24
862.331	7
862.505	-9.39
862.679	2.9
862.853	7
863.027	15.19
863.201	2.9
863.375	-38.06
863.549	58.2
863.722	19.29
863.896	72.53
864.07	-15.53
864.244	-31.91
864.418	-1.19
864.592	41.81
864.766	47.96
864.939	76.63
865.113	-7.34
865.287	72.53
865.461	9.05
865.634	35.67
865.808	2.9
865.982	2.9
866.156	31.57
866.329	39.76
866.503	19.29
866.676	-13.48
866.85	7
867.024	31.57
867.197	80.72
867.371	72.53
867.544	15.19
867.718	7
867.891	7
868.065	68.44
868.238	37.72
868.412	0.85
868.585	19.29
868.759	52.05
868.932	-58.54
869.105	31.57
869.279	74.58
869.452	-25.77
869.625	-23.72
869.799	78.68
869.972	60.24
870.145	31.57
870.319	56.15
870.492	52.05
870.665	17.24
870.838	27.48
871.011	-19.63
871.185	15.19
871.358	41.81
871.531	-7.34
871.704	64.34
871.877	-25.77
872.05	11.09
872.223	54.1
872.396	23.38
872.569	31.57
872.742	-58.54
872.915	-11.43
873.088	19.29
873.261	80.72
873.434	80.72
873.607	39.76
873.78	25.43
873.953	7
874.126	13.14
874.299	82.77
874.471	23.38
874.644	4.95
874.817	84.82
874.99	72.53
875.163	39.76
875.335	56.15
875.508	88.92
875.681	105.3
875.853	27.48
876.026	39.76
876.199	35.67
876.371	45.91
876.544	7
876.717	31.57
876.889	80.72
877.062	52.05
877.234	-119.98
877.407	-13.48
877.579	72.53
877.752	31.57
877.924	174.93
878.097	41.81
878.269	-21.67
878.442	23.38
878.614	-25.77
878.786	17.24
878.959	-27.82
879.131	97.11
879.303	-33.96
879.476	47.96
879.648	27.48
879.82	43.86
879.993	33.62
880.165	2.9
880.337	7
880.509	-23.72
880.681	-56.49
880.854	33.62
881.026	-3.24
881.198	99.16
881.37	54.1
881.542	56.15
881.714	-25.77
881.886	21.33
882.058	84.82
882.23	-15.53
882.402	52.05
882.574	-9.39
882.746	43.86
882.918	41.81
883.09	56.15
883.262	47.96
883.434	-17.58
883.606	15.19
883.778	45.91
883.95	52.05
884.122	4.95
884.293	-1.19
884.465	29.52
884.637	33.62
884.809	2.9
884.98	21.33
885.152	90.96
885.324	39.76
885.496	-27.82
885.667	13.14
885.839	54.1
886.011	-9.39
886.182	35.67
886.354	72.53
886.525	52.05
886.697	-9.39
886.869	-33.96
887.04	-40.11
887.212	-1.19
887.383	84.82
887.555	50
887.726	-1.19
887.897	-9.39
888.069	56.15
888.24	88.92
888.412	58.2
888.583	-21.67
888.754	-42.15
888.926	-17.58
889.097	11.09
889.268	68.44
889.44	0.85
889.611	-33.96
889.782	-50.35
889.953	9.05
890.125	7
890.296	-58.54
890.467	31.57
890.638	35.67
890.809	-23.72
890.98	31.57
891.151	-1.19
891.323	-23.72
891.494	-17.58
891.665	2.9
891.836	-1.19
892.007	2.9
892.178	29.52
892.349	39.76
892.52	33.62
892.691	52.05
892.862	39.76
893.032	-66.73
893.203	43.86
893.374	-25.77
893.545	-23.72
893.716	-42.15
893.887	4.95
894.057	-1.19
894.228	105.3
894.399	9.05
894.57	37.72
894.74	0.85
894.911	76.63
895.082	17.24
895.253	72.53
895.423	43.86
895.594	15.19
895.764	25.43
895.935	17.24
896.106	35.67
896.276	-165.03
896.447	-46.25
896.617	35.67
896.788	-81.07
896.958	4.95
897.129	-83.11
897.299	9.05
897.47	15.19
897.64	9.05
897.81	19.29
897.981	19.29
898.151	19.29
898.322	35.67
898.492	7
898.662	2.9
898.832	11.09
899.003	-7.34
899.173	-46.25
899.343	-46.25
899.513	-50.35
