Data from USB4F104151__159__14-19-36-145.txt Node

Date: Thu Mar 13 14:19:36 EDT 2025
User: louis
Spectrometer: USB4F10415
Trigger mode: 4
Integration Time (sec): 2.000000E-2
Scans to average: 1
Electric dark correction enabled: true
Nonlinearity correction enabled: false
Boxcar width: 0
XAxis mode: Wavelengths
Number of Pixels in Spectrum: 3648
>>>>>Begin Spectral Data<<<<<
178.204	-59.39
178.424	-59.39
178.644	-59.39
178.864	-180.22
179.084	-32.77
179.304	40.96
179.524	-75.77
179.744	36.86
179.964	40.96
180.184	-24.58
180.404	-8.19
180.624	-10.24
180.844	22.53
181.064	-59.39
181.283	-26.62
181.503	47.1
181.723	16.38
181.943	-104.45
182.163	94.21
182.383	28.67
182.602	-8.19
182.822	77.82
183.042	55.3
183.262	2.05
183.482	-22.53
183.701	22.53
183.921	4.1
184.141	-92.16
184.361	129.02
184.58	22.53
184.8	24.58
185.02	-45.06
185.239	-34.82
185.459	57.34
185.679	83.97
185.898	-67.58
186.118	43.01
186.338	24.58
186.557	73.73
186.777	6.14
186.997	-34.82
187.216	-16.38
187.436	47.1
187.655	-14.34
187.875	65.53
188.095	-2.05
188.314	40.96
188.534	38.91
188.753	-12.29
188.973	36.86
189.192	43.01
189.412	51.2
189.631	-26.62
189.851	36.86
190.07	24.58
190.29	-12.29
190.509	2.05
190.729	6.14
190.948	77.82
191.168	122.88
191.387	71.68
191.607	16.38
191.826	-18.43
192.045	6.14
192.265	-32.77
192.484	2.05
192.704	-4.1
192.923	-10.24
193.142	51.2
193.362	-6.14
193.581	4.1
193.8	-2.05
194.02	-40.96
194.239	36.86
194.458	14.34
194.678	51.2
194.897	49.15
195.116	47.1
195.335	47.1
195.555	65.53
195.774	22.53
195.993	-20.48
196.212	-10.24
196.432	-16.38
196.651	-81.92
196.87	-2.05
197.089	137.21
197.308	-4.1
197.528	16.38
197.747	34.82
197.966	65.53
198.185	47.1
198.404	-14.34
198.623	51.2
198.842	30.72
199.062	24.58
199.281	116.73
199.5	-18.43
199.719	-34.82
199.938	30.72
200.157	-49.15
200.376	4.1
200.595	34.82
200.814	22.53
201.033	-8.19
201.252	36.86
201.471	6.14
201.69	59.39
201.909	49.15
202.128	90.11
202.347	71.68
202.566	-14.34
202.785	10.24
203.004	-18.43
203.223	131.07
203.442	24.58
203.661	16.38
203.879	-43.01
204.098	88.06
204.317	-26.62
204.536	47.1
204.755	38.91
204.974	6.14
205.193	71.68
205.411	79.87
205.63	-2.05
205.849	55.3
206.068	22.53
206.287	-22.53
206.505	120.83
206.724	43.01
206.943	98.3
207.162	-43.01
207.381	43.01
207.599	-8.19
207.818	-2.05
208.037	55.3
208.255	-30.72
208.474	96.25
208.693	-0
208.911	126.97
209.13	47.1
209.349	-2.05
209.567	8.19
209.786	69.63
210.005	104.45
210.223	90.11
210.442	-43.01
210.661	22.53
210.879	-22.53
211.098	-30.72
211.316	32.77
211.535	55.3
211.753	75.77
211.972	38.91
212.191	-0
212.409	30.72
212.628	55.3
212.846	10.24
213.065	-2.05
213.283	67.58
213.502	14.34
213.72	63.49
213.938	26.62
214.157	38.91
214.375	55.3
214.594	22.53
214.812	114.69
215.031	-51.2
215.249	71.68
215.467	30.72
215.686	32.77
215.904	63.49
216.122	-0
216.341	-26.62
216.559	-10.24
216.778	57.34
216.996	96.25
217.214	34.82
217.432	-104.45
217.651	16.38
217.869	51.2
218.087	-24.58
218.306	-47.1
218.524	2.05
218.742	55.3
218.96	8.19
219.179	-0
219.397	-10.24
219.615	88.06
219.833	20.48
220.051	-14.34
220.27	67.58
220.488	2.05
220.706	30.72
220.924	22.53
221.142	26.62
221.36	65.53
221.578	6.14
221.796	6.14
222.015	63.49
222.233	55.3
222.451	71.68
222.669	2.05
222.887	112.64
223.105	-36.86
223.323	30.72
223.541	8.19
223.759	106.49
223.977	-26.62
224.195	49.15
224.413	104.45
224.631	131.07
224.849	47.1
225.067	104.45
225.285	-0
225.503	47.1
225.721	6.14
225.939	8.19
226.157	45.06
226.375	88.06
226.592	34.82
226.81	55.3
227.028	38.91
227.246	55.3
227.464	-26.62
227.682	-38.91
227.9	73.73
228.117	16.38
228.335	30.72
228.553	30.72
228.771	57.34
228.989	-0
229.206	71.68
229.424	71.68
229.642	55.3
229.86	59.39
230.077	-6.14
230.295	49.15
230.513	59.39
230.731	12.29
230.948	-8.19
231.166	96.25
231.384	-18.43
231.601	-26.62
231.819	67.58
232.037	10.24
232.254	20.48
232.472	49.15
232.689	38.91
232.907	-2.05
233.125	-24.58
233.342	63.49
233.56	16.38
233.777	47.1
233.995	71.68
234.213	120.83
234.43	26.62
234.648	32.77
234.865	57.34
235.083	40.96
235.3	75.77
235.518	-2.05
235.735	100.35
235.953	157.69
236.17	-18.43
236.388	34.82
236.605	104.45
236.822	40.96
237.04	67.58
237.257	10.24
237.475	63.49
237.692	43.01
237.909	-0
238.127	34.82
238.344	-2.05
238.562	67.58
238.779	-18.43
238.996	-18.43
239.214	30.72
239.431	36.86
239.648	22.53
239.865	-20.48
240.083	30.72
240.3	40.96
240.517	-0
240.735	18.43
240.952	100.35
241.169	96.25
241.386	34.82
241.603	-47.1
241.821	69.63
242.038	65.53
242.255	-18.43
242.472	106.49
242.689	51.2
242.907	40.96
243.124	79.87
243.341	45.06
243.558	-2.05
243.775	100.35
243.992	-40.96
244.209	30.72
244.426	81.92
244.643	49.15
244.86	14.34
245.078	-2.05
245.295	-12.29
245.512	22.53
245.729	-16.38
245.946	34.82
246.163	83.97
246.38	49.15
246.597	18.43
246.814	-12.29
247.031	53.25
247.248	-12.29
247.464	-16.38
247.681	16.38
247.898	32.77
248.115	75.77
248.332	38.91
248.549	98.3
248.766	38.91
248.983	38.91
249.2	-18.43
249.417	81.92
249.633	67.58
249.85	139.26
250.067	10.24
250.284	26.62
250.501	-10.24
250.717	47.1
250.934	2.05
251.151	36.86
251.368	24.58
251.585	22.53
251.801	61.44
252.018	59.39
252.235	36.86
252.451	8.19
252.668	49.15
252.885	-12.29
253.102	45.06
253.318	-2.05
253.535	-6.14
253.752	-26.62
253.968	-0
254.185	-10.24
254.401	-14.34
254.618	51.2
254.835	73.73
255.051	40.96
255.268	49.15
255.484	-14.34
255.701	98.3
255.917	79.87
256.134	43.01
256.351	-2.05
256.567	100.35
256.784	38.91
257	30.72
257.217	8.19
257.433	112.64
257.65	-16.38
257.866	32.77
258.082	-0
258.299	98.3
258.515	75.77
258.732	-34.82
258.948	-16.38
259.165	22.53
259.381	-10.24
259.597	57.34
259.814	-26.62
260.03	88.06
260.246	14.34
260.463	32.77
260.679	30.72
260.895	53.25
261.112	63.49
261.328	20.48
261.544	26.62
261.761	79.87
261.977	-28.67
262.193	-26.62
262.409	-34.82
262.626	6.14
262.842	79.87
263.058	-6.14
263.274	40.96
263.49	73.73
263.707	63.49
263.923	-26.62
264.139	-30.72
264.355	22.53
264.571	32.77
264.787	26.62
265.004	-0
265.22	32.77
265.436	34.82
265.652	24.58
265.868	40.96
266.084	73.73
266.3	55.3
266.516	-63.49
266.732	20.48
266.948	20.48
267.164	-26.62
267.38	-14.34
267.596	-0
267.812	106.49
268.028	55.3
268.244	-14.34
268.46	-26.62
268.676	73.73
268.892	8.19
269.108	90.11
269.324	65.53
269.54	22.53
269.756	24.58
269.972	75.77
270.188	14.34
270.403	-12.29
270.619	104.45
270.835	-18.43
271.051	20.48
271.267	10.24
271.483	65.53
271.698	-8.19
271.914	-18.43
272.13	49.15
272.346	8.19
272.562	32.77
272.777	53.25
272.993	32.77
273.209	14.34
273.425	34.82
273.64	-14.34
273.856	14.34
274.072	59.39
274.287	-0
274.503	90.11
274.719	18.43
274.934	71.68
275.15	6.14
275.366	55.3
275.581	43.01
275.797	2.05
276.012	75.77
276.228	-10.24
276.444	63.49
276.659	24.58
276.875	-45.06
277.09	30.72
277.306	57.34
277.521	71.68
277.737	12.29
277.952	88.06
278.168	-32.77
278.383	32.77
278.599	55.3
278.814	32.77
279.03	59.39
279.245	92.16
279.461	51.2
279.676	28.67
279.892	14.34
280.107	-34.82
280.322	-6.14
280.538	26.62
280.753	98.3
280.969	-0
281.184	65.53
281.399	79.87
281.615	45.06
281.83	114.69
282.045	59.39
282.26	67.58
282.476	38.91
282.691	69.63
282.906	59.39
283.122	6.14
283.337	-47.1
283.552	71.68
283.767	4.1
283.983	65.53
284.198	18.43
284.413	26.62
284.628	-2.05
284.843	38.91
285.058	57.34
285.274	-20.48
285.489	-24.58
285.704	40.96
285.919	81.92
286.134	2.05
286.349	-0
286.564	-6.14
286.779	71.68
286.995	38.91
287.21	-53.25
287.425	2.05
287.64	10.24
287.855	14.34
288.07	49.15
288.285	92.16
288.5	-24.58
288.715	55.3
288.93	14.34
289.145	-32.77
289.36	63.49
289.575	-18.43
289.79	63.49
290.004	14.34
290.219	-6.14
290.434	34.82
290.649	22.53
290.864	-6.14
291.079	-32.77
291.294	86.01
291.509	-8.19
291.724	26.62
291.938	14.34
292.153	65.53
292.368	-30.72
292.583	122.88
292.798	14.34
293.012	24.58
293.227	-10.24
293.442	63.49
293.657	116.73
293.871	102.4
294.086	8.19
294.301	49.15
294.516	47.1
294.73	38.91
294.945	65.53
295.16	47.1
295.374	55.3
295.589	-73.73
295.804	8.19
296.018	47.1
296.233	26.62
296.447	43.01
296.662	38.91
296.877	63.49
297.091	100.35
297.306	14.34
297.52	32.77
297.735	40.96
297.949	14.34
298.164	30.72
298.378	18.43
298.593	-2.05
298.807	24.58
299.022	92.16
299.236	10.24
299.451	40.96
299.665	-40.96
299.88	26.62
300.094	34.82
300.309	24.58
300.523	61.44
300.737	34.82
300.952	30.72
301.166	18.43
301.381	10.24
301.595	-14.34
301.809	51.2
302.024	24.58
302.238	2.05
302.452	-24.58
302.667	88.06
302.881	131.07
303.095	49.15
303.309	-0
303.524	49.15
303.738	14.34
303.952	22.53
304.166	73.73
304.381	-0
304.595	34.82
304.809	71.68
305.023	-16.38
305.237	-16.38
305.452	38.91
305.666	55.3
305.88	75.77
306.094	47.1
306.308	10.24
306.522	32.77
306.736	30.72
306.95	73.73
307.164	22.53
307.379	24.58
307.593	104.45
307.807	-14.34
308.021	22.53
308.235	47.1
308.449	-65.54
308.663	32.77
308.877	63.49
309.091	32.77
309.305	71.68
309.519	-36.86
309.733	36.86
309.947	26.62
310.161	32.77
310.374	18.43
310.588	-16.38
310.802	98.3
311.016	51.2
311.23	75.77
311.444	67.58
311.658	43.01
311.872	108.54
312.085	45.06
312.299	4.1
312.513	26.62
312.727	57.34
312.941	-22.53
313.154	14.34
313.368	88.06
313.582	94.21
313.796	-18.43
314.009	8.19
314.223	81.92
314.437	90.11
314.651	51.2
314.864	14.34
315.078	40.96
315.292	-63.49
315.505	-10.24
315.719	22.53
315.933	-36.86
316.146	92.16
316.36	-34.82
316.573	88.06
316.787	65.53
317.001	10.24
317.214	24.58
317.428	77.82
317.641	-43.01
317.855	32.77
318.068	57.34
318.282	104.45
318.495	51.2
318.709	73.73
318.922	10.24
319.136	145.41
319.349	49.15
319.563	110.59
319.776	49.15
319.99	40.96
320.203	14.34
320.417	-6.14
320.63	71.68
320.843	67.58
321.057	73.73
321.27	28.67
321.483	53.25
321.697	96.25
321.91	16.38
322.124	116.73
322.337	38.91
322.55	71.68
322.763	6.14
322.977	79.87
323.19	24.58
323.403	6.14
323.617	67.58
323.83	-8.19
324.043	26.62
324.256	4.1
324.469	22.53
324.683	10.24
324.896	71.68
325.109	71.68
325.322	-14.34
325.535	61.44
325.748	143.36
325.962	22.53
326.175	6.14
326.388	24.58
326.601	40.96
326.814	-36.86
327.027	-8.19
327.24	24.58
327.453	-28.67
327.666	59.39
327.879	55.3
328.092	90.11
328.305	-24.58
328.518	-26.62
328.731	-34.82
328.944	102.4
329.157	18.43
329.37	34.82
329.583	81.92
329.796	36.86
330.009	10.24
330.222	98.3
330.435	51.2
330.648	20.48
330.861	59.39
331.073	8.19
331.286	38.91
331.499	24.58
331.712	24.58
331.925	47.1
332.138	38.91
332.35	49.15
332.563	18.43
332.776	102.4
332.989	30.72
333.202	30.72
333.414	30.72
333.627	14.34
333.84	47.1
334.053	47.1
334.265	22.53
334.478	-10.24
334.691	59.39
334.903	116.73
335.116	38.91
335.329	10.24
335.541	90.11
335.754	98.3
335.966	73.73
336.179	81.92
336.392	81.92
336.604	83.97
336.817	79.87
337.029	10.24
337.242	92.16
337.454	96.25
337.667	14.34
337.88	75.77
338.092	36.86
338.305	40.96
338.517	14.34
338.729	102.4
338.942	18.43
339.154	-26.62
339.367	10.24
339.579	77.82
339.792	-0
340.004	71.68
340.217	63.49
340.429	61.44
340.641	47.1
340.854	104.45
341.066	20.48
341.278	55.3
341.491	30.72
341.703	120.83
341.915	40.96
342.128	124.93
342.34	43.01
342.552	16.38
342.764	137.21
342.977	-14.34
343.189	22.53
343.401	55.3
343.613	-22.53
343.826	43.01
344.038	116.73
344.25	120.83
344.462	-26.62
344.674	36.86
344.886	38.91
345.099	120.83
345.311	-2.05
345.523	14.34
345.735	47.1
345.947	63.49
346.159	43.01
346.371	-26.62
346.583	-49.15
346.795	71.68
347.007	8.19
347.219	96.25
347.431	88.06
347.643	90.11
347.855	57.34
348.067	20.48
348.279	75.77
348.491	10.24
348.703	38.91
348.915	71.68
349.127	14.34
349.339	47.1
349.551	-43.01
349.763	92.16
349.975	106.49
350.187	30.72
350.399	34.82
350.61	96.25
350.822	92.16
351.034	32.77
351.246	55.3
351.458	79.87
351.669	45.06
351.881	34.82
352.093	75.77
352.305	71.68
352.517	57.34
352.728	67.58
352.94	49.15
353.152	112.64
353.363	79.87
353.575	6.14
353.787	81.92
353.999	104.45
354.21	73.73
354.422	38.91
354.633	10.24
354.845	104.45
355.057	24.58
355.268	63.49
355.48	71.68
355.692	38.91
355.903	30.72
356.115	6.14
356.326	-14.34
356.538	49.15
356.749	71.68
356.961	147.45
357.172	40.96
357.384	-0
357.595	155.65
357.807	120.83
358.018	14.34
358.23	26.62
358.441	63.49
358.653	92.16
358.864	32.77
359.075	-18.43
359.287	98.3
359.498	43.01
359.709	96.25
359.921	18.43
360.132	61.44
360.344	24.58
360.555	28.67
360.766	12.29
360.977	61.44
361.189	65.53
361.4	40.96
361.611	81.92
361.823	38.91
362.034	32.77
362.245	38.91
362.456	57.34
362.667	135.17
362.879	8.19
363.09	-10.24
363.301	34.82
363.512	-2.05
363.723	22.53
363.935	96.25
364.146	153.6
364.357	63.49
364.568	34.82
364.779	26.62
364.99	102.4
365.201	12.29
365.412	75.77
365.623	47.1
365.834	38.91
366.045	129.02
366.256	30.72
366.467	38.91
366.678	-22.53
366.889	30.72
367.1	-2.05
367.311	73.73
367.522	-8.19
367.733	77.82
367.944	34.82
368.155	51.2
368.366	40.96
368.577	47.1
368.788	145.41
368.999	38.91
369.209	69.63
369.42	88.06
369.631	57.34
369.842	81.92
370.053	71.68
370.264	145.41
370.474	45.06
370.685	55.3
370.896	51.2
371.107	139.26
371.317	-0
371.528	73.73
371.739	36.86
371.95	32.77
372.16	40.96
372.371	51.2
372.582	65.53
372.792	38.91
373.003	96.25
373.214	10.24
373.424	47.1
373.635	100.35
373.846	83.97
374.056	106.49
374.267	-2.05
374.477	47.1
374.688	57.34
374.898	86.01
375.109	12.29
375.319	45.06
375.53	73.73
375.74	-2.05
375.951	10.24
376.161	67.58
376.372	83.97
376.582	67.58
376.793	120.83
377.003	55.3
377.214	81.92
377.424	10.24
377.635	24.58
377.845	6.14
378.055	110.59
378.266	47.1
378.476	63.49
378.686	77.82
378.897	-26.62
379.107	49.15
379.317	88.06
379.528	67.58
379.738	59.39
379.948	55.3
380.158	47.1
380.369	79.87
380.579	106.49
380.789	57.34
380.999	45.06
381.21	32.77
381.42	34.82
381.63	30.72
381.84	94.21
382.05	55.3
382.261	38.91
382.471	63.49
382.681	-2.05
382.891	55.3
383.101	47.1
383.311	88.06
383.521	34.82
383.731	71.68
383.941	69.63
384.151	49.15
384.361	118.78
384.571	43.01
384.781	73.73
384.991	83.97
385.201	104.45
385.411	51.2
385.621	8.19
385.831	106.49
386.041	24.58
386.251	112.64
386.461	120.83
386.671	83.97
386.881	8.19
387.091	30.72
387.301	124.93
387.511	45.06
387.72	129.02
387.93	86.01
388.14	63.49
388.35	38.91
388.56	71.68
388.769	79.87
388.979	79.87
389.189	8.19
389.399	112.64
389.609	126.97
389.818	88.06
390.028	114.69
390.238	55.3
390.447	49.15
390.657	88.06
390.867	79.87
391.076	71.68
391.286	157.69
391.496	98.3
391.705	38.91
391.915	32.77
392.125	124.93
392.334	81.92
392.544	100.35
392.753	106.49
392.963	18.43
393.172	88.06
393.382	79.87
393.591	182.27
393.801	73.73
394.01	34.82
394.22	108.54
394.429	98.3
394.639	161.79
394.848	114.69
395.058	108.54
395.267	129.02
395.477	137.21
395.686	108.54
395.895	96.25
396.105	143.36
396.314	100.35
396.524	114.69
396.733	83.97
396.942	131.07
397.152	137.21
397.361	155.65
397.57	122.88
397.78	114.69
397.989	112.64
398.198	139.26
398.407	133.12
398.617	96.25
398.826	176.13
399.035	137.21
399.244	153.6
399.453	155.65
399.663	163.84
399.872	104.45
400.081	90.11
400.29	112.64
400.499	63.49
400.708	221.18
400.917	131.07
401.127	77.82
401.336	161.79
401.545	169.98
401.754	133.12
401.963	147.45
402.172	18.43
402.381	122.88
402.59	161.79
402.799	126.97
403.008	163.84
403.217	276.48
403.426	204.8
403.635	124.93
403.844	124.93
404.053	73.73
404.262	155.65
404.471	262.14
404.68	194.56
404.888	169.98
405.097	217.08
405.306	120.83
405.515	284.67
405.724	182.27
405.933	274.43
406.142	165.89
406.35	249.85
406.559	286.72
406.768	182.27
406.977	296.96
407.185	237.56
407.394	286.72
407.603	262.14
407.812	317.44
408.02	292.86
408.229	210.94
408.438	292.86
408.646	288.76
408.855	309.24
409.064	319.48
409.272	342.01
409.481	442.36
409.69	348.15
409.898	374.78
410.107	450.55
410.315	446.46
410.524	364.54
410.733	464.89
410.941	419.83
411.15	487.42
411.358	522.23
411.567	595.96
411.775	522.23
411.984	538.62
412.192	532.47
412.401	671.73
412.609	657.4
412.818	681.97
413.026	757.75
413.234	722.93
413.443	684.02
413.651	784.37
413.86	780.28
414.068	833.52
414.276	825.33
414.485	894.96
414.693	897.01
414.901	1038.32
415.11	1005.55
415.318	1015.79
415.526	1005.55
415.734	1046.51
415.943	1038.32
416.151	1169.39
416.359	1185.77
416.567	1173.49
416.776	1308.65
416.984	1275.88
417.192	1288.17
417.4	1331.18
417.608	1378.28
417.817	1458.15
418.025	1685.48
418.233	1695.72
418.441	1607.66
418.649	1730.53
418.857	1767.4
419.065	1931.23
419.273	1810.4
419.481	1896.42
419.689	2058.21
419.897	2097.12
420.105	2119.65
420.313	2201.57
420.521	2246.62
420.729	2301.92
420.937	2416.6
421.145	2490.33
421.353	2668.5
421.561	2758.61
421.769	2815.96
421.977	2717.65
422.185	2799.57
422.393	3082.19
422.601	3160.02
422.809	3143.63
423.017	3108.82
423.224	3381.2
423.432	3502.03
423.64	3579.85
423.848	3919.81
424.056	3758.02
424.263	3983.3
424.471	4036.55
424.679	3987.4
424.887	4356.03
425.094	4405.18
425.302	4495.29
425.51	4691.9
425.718	4763.58
425.925	4921.27
426.133	4923.32
426.341	5152.69
426.548	5398.45
426.756	5509.04
426.964	5449.64
427.171	5932.97
427.379	6021.03
427.586	6084.52
427.794	6414.24
428.001	6623.13
428.209	6911.89
428.417	6672.28
428.624	7296.91
428.832	7141.27
429.039	7143.31
429.247	7184.27
429.454	7853.96
429.662	8443.78
429.869	7931.78
430.076	8343.42
430.284	8300.42
430.491	8630.14
430.699	9043.83
430.906	9013.11
431.114	9246.58
431.321	9408.37
431.528	9770.86
431.736	10239.84
431.943	10461.02
432.15	10323.81
432.358	10551.13
432.565	10960.73
432.772	10792.8
432.979	11493.2
433.187	11777.87
433.394	12015.43
433.601	12832.57
433.808	12744.51
434.016	12699.45
434.223	13252.41
434.43	13948.72
434.637	13901.61
434.844	14589.73
435.052	14823.2
435.259	14753.57
435.466	14982.94
435.673	14673.7
435.88	15558.42
436.087	16549.64
436.294	16422.66
436.501	16119.56
436.708	16482.05
436.915	16910.08
437.122	17590
437.329	17673.97
437.537	18212.59
437.743	18448.1
437.95	18294.5
438.157	19539.67
438.364	19955.41
438.571	19789.52
438.778	20070.09
438.985	22279.85
439.192	21100.22
439.399	21698.23
439.606	21259.96
439.813	22171.31
440.02	23279.26
440.227	23383.71
440.433	22875.81
440.64	23781.01
440.847	23664.28
441.054	24352.4
441.261	25493.11
441.467	25169.54
441.674	26099.31
441.881	26789.48
442.088	27072.1
442.294	26433.13
442.501	27903.57
442.708	27647.58
442.914	28943.94
443.121	30029.37
443.328	29087.3
443.534	31292.96
443.741	30451.25
443.948	30223.92
444.154	32175.64
444.361	31837.72
444.568	32171.54
444.774	32312.85
444.981	32626.19
445.187	33361.41
445.394	34821.61
445.6	34348.53
445.807	37377.48
446.013	36363.73
446.22	36623.83
446.426	38002.11
446.633	38172.09
446.839	39581.09
447.046	38018.49
447.252	39906.72
447.459	39871.9
447.665	39998.88
447.871	41440.65
448.078	43402.6
448.284	41180.56
448.491	42196.35
448.697	44148.06
448.903	44895.57
449.11	44428.63
449.316	44184.93
449.522	45059.41
449.728	46353.72
449.935	46310.72
450.141	46728.5
450.347	47529.26
450.553	45913.41
450.76	46464.31
450.966	48035.11
451.172	47224.11
451.378	48467.23
451.584	47519.02
451.791	48717.08
451.997	48702.74
452.203	49675.53
452.409	49433.87
452.615	49386.77
452.821	47621.42
453.027	47183.15
453.233	49376.53
453.44	47353.13
453.646	48160.03
453.852	48825.62
454.058	49024.28
454.264	47418.67
454.47	48411.93
454.676	47269.17
454.882	49171.73
455.088	44987.73
455.294	45618.5
455.5	46413.12
455.705	46927.16
455.911	44744.02
456.117	44078.43
456.323	43312.49
456.529	40994.19
456.735	42796.4
456.941	42134.91
457.147	41510.28
457.352	40017.31
457.558	39818.66
457.764	39681.44
457.97	39077.29
458.176	38081.98
458.381	37897.66
458.587	36271.57
458.793	36464.08
458.999	34674.16
459.204	37182.92
459.41	35904.99
459.616	33342.98
459.821	33705.47
460.027	33512.96
460.233	32943.63
460.438	31190.56
460.644	31837.72
460.85	29904.44
461.055	29941.3
461.261	29726.27
461.466	27166.31
461.672	26910.31
461.878	28425.81
462.083	26740.33
462.289	26189.42
462.494	25628.28
462.7	24561.29
462.905	24182.41
463.111	24921.73
463.316	24888.96
463.522	24475.27
463.727	24364.68
463.932	24235.66
464.138	24139.41
464.343	24149.65
464.549	23514.78
464.754	24428.17
464.959	24364.68
465.165	24120.98
465.37	23166.62
465.575	22527.66
465.781	23273.12
465.986	23406.23
466.191	22412.97
466.397	22097.58
466.602	20963.01
466.807	21870.26
467.012	21872.31
467.218	21448.38
467.423	21345.98
467.628	21536.44
467.833	22306.48
468.038	21515.96
468.244	20889.28
468.449	21716.66
468.654	20948.67
468.859	20702.92
469.064	20723.4
469.269	19928.78
469.474	20070.09
469.679	20553.41
469.885	19881.68
470.09	20061.9
470.295	20072.14
470.5	19588.82
470.705	19750.61
470.91	19021.53
471.115	19255
471.32	19300.06
471.525	19113.69
471.73	18757.35
471.935	18708.19
472.139	17868.53
472.344	18196.2
472.549	18188.01
472.754	17723.12
472.959	17387.25
473.164	17012.48
473.369	17098.49
473.574	17454.84
473.778	17434.36
473.983	17123.07
474.188	17082.11
474.393	16492.29
474.598	16287.5
474.802	16361.22
475.007	16365.32
475.212	16060.17
475.417	15529.75
475.621	15759.12
475.826	15982.35
476.031	15114.01
476.235	15124.25
476.44	15232.79
476.645	15048.47
476.849	15015.71
477.054	14927.64
477.259	14380.84
477.463	14647.07
477.668	14307.11
477.872	14294.82
478.077	13969.19
478.282	13920.04
478.486	13766.45
478.691	13731.63
478.895	13645.62
479.1	13500.21
479.304	13614.9
479.509	12937.02
479.713	13154.1
479.918	13162.3
480.122	12896.06
480.326	13125.43
480.531	13117.24
480.735	12783.42
480.94	12668.73
481.144	12891.96
481.348	12656.45
481.553	12613.44
481.757	12541.76
481.961	12504.9
482.166	12820.28
482.37	12531.52
482.574	12580.67
482.778	12504.9
482.983	12885.82
483.187	12490.56
483.391	12838.72
483.595	12482.37
483.8	12482.37
484.004	12572.48
484.208	12670.78
484.412	12441.41
484.616	12400.45
484.821	12560.19
485.025	12046.15
485.229	12650.3
485.433	12554.05
485.637	12404.55
485.841	12240.71
486.045	12244.81
486.249	12705.6
486.453	12183.37
486.657	12433.22
486.861	12261.19
487.065	12265.28
487.269	12427.07
487.473	12031.82
487.677	12402.5
487.881	12453.7
488.085	12138.31
488.289	12422.98
488.493	12310.34
488.697	12560.19
488.901	12457.79
489.105	12416.83
489.309	12347.2
489.512	12502.85
489.716	12400.45
489.92	12420.93
490.124	12631.87
490.328	12824.38
490.531	12570.43
490.735	12750.65
490.939	12732.22
491.143	12441.41
491.346	12506.95
491.55	12900.16
491.754	12785.47
491.958	12853.05
492.161	12930.87
492.365	12887.87
492.569	12969.79
492.772	12885.82
492.976	13225.78
493.18	13100.86
493.383	13293.37
493.587	13326.13
493.79	13467.44
493.994	13307.7
494.197	13518.64
494.401	13700.91
494.605	13670.19
494.808	14073.64
495.012	13934.38
495.215	13891.37
495.419	14229.29
495.622	13975.34
495.825	14337.83
496.029	14077.74
496.232	14622.5
496.436	14415.65
496.639	14939.93
496.843	14606.11
497.046	14890.78
497.249	15017.75
497.453	15251.22
497.656	15236.89
497.859	15240.98
498.063	15640.34
498.266	15832.85
498.469	15847.18
498.673	16156.43
498.876	16297.74
499.079	16563.97
499.282	16432.9
499.485	16723.71
499.689	16797.44
499.892	16944.89
500.095	16971.52
500.298	17643.25
500.501	17368.82
500.705	18079.47
500.908	18104.04
501.111	18206.44
501.314	18231.02
501.517	18583.27
501.72	18859.74
501.923	18749.15
502.126	18931.42
502.329	19228.38
502.532	19298.01
502.735	19449.56
502.938	20147.92
503.141	19951.31
503.344	20127.44
503.547	20324.04
503.75	20782.79
503.953	20709.06
504.156	20975.3
504.359	21610.17
504.562	21374.65
504.765	21778.1
504.968	21976.75
505.17	22505.13
505.373	22066.86
505.576	22560.42
505.779	23142.05
505.982	22904.48
506.185	23578.26
506.387	23852.69
506.59	23893.65
506.793	24159.89
506.996	23842.45
507.198	24579.72
507.401	24327.82
507.604	24768.13
507.807	25427.58
508.009	25333.37
508.212	25646.71
508.415	25828.98
508.617	26330.73
508.82	26316.4
509.022	26482.28
509.225	27240.03
509.428	27197.02
509.63	27549.28
509.833	27713.11
510.035	28040.79
510.238	27922.01
510.44	28503.63
510.643	28618.32
510.845	28991.05
511.048	28991.05
511.25	29189.7
511.453	29617.72
511.655	30565.93
511.858	30213.68
512.06	29883.96
512.262	30787.11
512.465	30912.04
512.667	31057.45
512.87	31616.54
513.072	31589.92
513.274	31976.98
513.477	32550.42
513.679	32687.63
513.881	33029.64
514.084	33582.59
514.286	33017.35
514.488	33799.68
514.69	34485.75
514.893	34225.65
515.095	34287.09
515.297	34610.67
515.499	34926.06
515.701	35464.67
515.904	36013.53
516.106	35874.27
516.308	36333.01
516.51	36797.9
516.712	36873.68
516.914	37217.74
517.116	38053.31
517.318	37703.1
517.52	38051.26
517.722	37938.62
517.925	38577.59
518.127	39259.56
518.329	39089.58
518.531	39112.11
518.733	39851.42
518.935	40344.98
519.136	40238.49
519.338	40881.55
519.54	40846.74
519.742	40908.18
519.944	41461.13
520.146	41885.06
520.348	41719.17
520.55	42405.24
520.752	42362.23
520.954	43175.28
521.155	42919.28
521.357	43300.2
521.559	43756.9
521.761	44694.87
521.963	44158.3
522.164	44395.87
522.366	44969.3
522.568	44991.83
522.77	45509.96
522.971	45837.64
523.173	45911.36
523.375	46144.83
523.576	46384.44
523.778	46218.56
523.98	46955.83
524.181	46583.1
524.383	46892.34
524.584	47641.9
524.786	47600.94
524.988	47457.58
525.189	48043.3
525.391	48198.94
525.592	48125.22
525.794	48717.08
525.995	48418.08
526.197	48796.95
526.398	48555.29
526.6	49130.77
526.801	49272.08
527.003	49487.12
527.204	49511.69
527.406	49782.02
527.607	49546.51
527.808	50273.54
528.01	49220.88
528.211	49843.46
528.412	51096.82
528.614	50285.82
528.815	50425.09
529.016	50664.7
529.218	50230.53
529.419	50623.74
529.62	50590.97
529.822	50832.63
530.023	51176.69
530.224	50920.69
530.425	50785.53
530.626	50562.3
530.828	50855.16
531.029	51692.78
531.23	50683.13
531.431	51268.85
531.632	51375.34
531.833	51436.78
532.035	51285.23
532.236	51791.08
532.437	51225.84
532.638	51479.79
532.839	51510.51
533.04	51625.2
533.241	51221.75
533.442	52444.38
533.643	51555.57
533.844	51752.17
534.045	52047.08
534.246	51487.98
534.447	51766.51
534.648	51662.06
534.849	52018.41
535.05	51432.69
535.251	51926.25
535.451	51324.14
535.652	51750.12
535.853	51594.48
536.054	52163.81
536.255	51750.12
536.456	51096.82
536.657	52157.67
536.857	51399.92
537.058	51410.16
537.259	51989.73
537.46	51438.83
537.66	51205.36
537.861	51424.5
538.062	51467.5
538.263	51469.55
538.463	51248.37
538.664	51455.21
538.865	51809.51
539.065	51371.25
539.266	51195.12
539.466	51946.73
539.667	50846.97
539.868	52372.7
540.068	51322.1
540.269	51105.01
540.469	51545.33
540.67	51043.57
540.87	51070.2
541.071	51080.44
541.271	51670.25
541.472	51303.67
541.672	51154.16
541.873	51066.1
542.073	50668.79
542.274	51205.36
542.474	50932.98
542.675	50928.89
542.875	51479.79
543.075	50955.51
543.276	50629.88
543.476	51340.53
543.676	51100.92
543.877	51373.3
544.077	50801.91
544.277	50695.42
544.478	50906.36
544.678	51428.59
544.878	51027.19
545.078	51289.33
545.279	50892.02
545.479	50470.14
545.679	50652.41
545.879	50277.63
546.079	50521.34
546.28	50314.5
546.48	50384.13
546.68	50797.82
546.88	50695.42
547.08	50828.54
547.28	50572.54
547.48	49728.78
547.68	50719.99
547.88	50218.24
548.081	51016.95
548.281	50408.7
548.481	50126.08
548.681	50746.62
548.881	50529.53
549.081	50603.26
549.28	50183.43
549.48	50547.96
549.68	50107.65
549.88	51031.29
550.08	50408.7
550.28	50556.16
550.48	50552.06
550.68	50308.35
550.88	50263.3
551.08	50406.65
551.279	50269.44
551.479	49890.57
551.679	50121.99
551.879	49980.68
552.079	50255.11
552.278	50097.41
552.478	50349.31
552.678	49929.48
552.878	50029.83
553.077	49810.7
553.277	49741.06
553.477	50496.77
553.676	49632.52
553.876	49546.51
554.076	49808.65
554.275	49845.51
554.475	48819.48
554.674	49321.23
554.874	50046.21
555.074	49247.5
555.273	49382.67
555.473	49962.25
555.672	49163.54
555.872	49546.51
556.071	49794.31
556.271	49835.27
556.47	49331.47
556.67	49186.07
556.869	48844.05
557.068	49177.87
557.268	49067.28
557.467	49102.1
557.667	48815.38
557.866	49218.83
558.065	48874.77
558.265	48938.26
558.464	48407.84
558.663	49050.9
558.863	48604.44
559.062	49540.36
559.261	48319.77
559.461	49032.47
559.66	48385.31
559.859	48583.96
560.058	48291.1
560.258	48293.15
560.457	48014.63
560.656	48198.94
560.855	47910.18
561.054	48194.85
561.253	47826.21
561.453	48551.2
561.652	47983.91
561.851	48604.44
562.05	47732.01
562.249	47631.66
562.448	47861.03
562.647	47811.88
562.846	47476.01
563.045	47682.86
563.244	47168.82
563.443	47562.03
563.642	46867.76
563.841	47242.54
564.04	47187.25
564.239	47865.13
564.438	46865.72
564.637	46882.1
564.836	46943.54
565.035	46646.58
565.234	47158.58
565.432	46705.98
565.631	46759.22
565.83	46607.67
566.029	46163.26
566.228	46570.81
566.427	46247.23
566.625	46466.36
566.824	45747.53
567.023	46296.38
567.222	45546.82
567.42	46282.05
567.619	45772.1
567.818	46107.97
568.016	45456.71
568.215	46124.35
568.414	45790.53
568.612	45892.93
568.811	45497.67
569.01	45389.13
569.208	44813.65
569.407	45843.78
569.605	44922.19
569.804	45534.54
570.002	44834.13
570.201	45227.34
570.4	44385.63
570.598	44422.49
570.797	44182.88
570.995	44524.89
571.193	44092.77
571.392	44778.84
571.59	44297.56
571.789	44457.31
571.987	44012.9
572.186	44252.51
572.384	43771.24
572.582	43912.55
572.781	44201.31
572.979	43648.36
573.177	43666.79
573.376	43601.25
573.574	43134.32
573.772	43717.99
573.971	43072.88
574.169	43056.49
574.367	42689.91
574.565	43107.69
574.763	43050.35
574.962	42919.28
575.16	42583.41
575.358	42474.87
575.556	42050.94
575.754	42718.58
575.952	41848.19
576.151	42112.38
576.349	42046.85
576.547	41928.06
576.745	42143.1
576.943	41868.67
577.141	41749.89
577.339	41958.78
577.537	41465.22
577.735	41751.94
577.933	41344.39
578.131	41586.05
578.329	41143.69
578.527	41127.31
578.725	41321.87
578.923	41440.65
579.121	40689.04
579.319	40684.95
579.516	41147.79
579.714	40660.37
579.912	40576.4
580.11	40433.05
580.308	40652.18
580.506	40326.55
580.704	39800.22
580.901	40211.87
581.099	40390.04
581.297	39929.25
581.495	39601.57
581.692	40162.72
581.89	39476.65
582.088	40097.18
582.285	39554.47
582.483	39720.35
582.681	39095.72
582.878	39597.48
583.076	38981.04
583.274	39015.85
583.471	38553.01
583.669	39298.47
583.866	38385.08
584.064	38749.62
584.262	38532.53
584.459	38913.45
584.657	38499.76
584.854	38260.15
585.052	37938.62
585.249	37998.01
585.447	38061.5
585.644	37856.7
585.841	37912
586.039	37899.71
586.236	37381.57
586.434	37696.96
586.631	37209.54
586.828	37492.16
587.026	37481.92
587.223	37336.52
587.42	37148.11
587.618	37103.05
587.815	36515.28
588.012	37037.51
588.21	36509.14
588.407	37037.51
588.604	36560.34
588.801	36220.38
588.999	36376.02
589.196	36079.07
589.393	36247
589.59	35966.43
589.787	36064.73
589.984	35550.69
590.182	35577.31
590.379	35786.21
590.576	35339.75
590.773	35479.01
590.97	35569.12
591.167	35454.43
591.364	34885.1
591.561	35395.04
591.758	34563.57
591.955	34620.91
592.152	35020.27
592.349	34352.63
592.546	34854.38
592.743	34584.05
592.94	34321.91
593.137	34356.72
593.334	34338.29
593.531	34033.14
593.727	34504.18
593.924	33695.23
594.121	33744.38
594.318	34151.93
594.515	33322.5
594.712	33474.05
594.908	33285.64
595.105	33394.18
595.302	33185.29
595.499	33809.92
595.696	33099.27
595.892	32673.29
596.089	33021.45
596.286	33000.97
596.482	33072.65
596.679	32988.68
596.876	32921.1
597.072	32108.05
597.269	32445.97
597.466	32081.43
597.662	32015.9
597.859	31905.31
598.055	32228.88
598.252	31784.47
598.448	32067.09
598.645	31583.77
598.841	31405.6
599.038	31618.59
599.234	31483.42
599.431	31159.84
599.627	31231.52
599.824	31319.59
600.02	31137.32
600.217	31252
600.413	31149.6
600.609	30699.05
600.806	30819.88
601.002	30885.42
601.198	30125.62
601.395	30674.48
601.591	30570.03
601.787	30256.69
601.984	30426.67
602.18	30107.19
602.376	29816.38
602.572	29840.95
602.769	29918.78
602.965	29509.18
603.161	29765.18
603.357	29630.01
603.553	29646.4
603.75	29138.5
603.946	29369.92
604.142	29670.97
604.338	28956.23
604.534	29183.55
604.73	29003.33
604.926	28677.71
605.122	28712.52
605.318	28655.18
605.514	28460.62
605.71	28423.76
605.906	28132.95
606.102	28497.49
606.298	28628.56
606.494	28274.26
606.69	28200.53
606.886	28266.06
607.082	27891.29
607.278	28026.45
607.474	27723.35
607.67	28014.16
607.866	27524.7
608.062	27909.72
608.257	27616.86
608.453	28083.8
608.649	27709.02
608.845	27391.58
609.041	27737.69
609.236	27493.98
609.432	27352.67
609.628	27293.28
609.824	27385.44
610.019	27061.86
610.215	27041.38
610.411	27121.25
610.606	26906.21
610.802	27348.57
610.998	27080.29
611.193	27000.42
611.389	26998.37
611.584	26574.44
611.78	26584.68
611.976	26744.42
612.171	26637.93
612.367	26639.98
612.562	26295.92
612.758	25927.28
612.953	26046.07
613.149	26592.87
613.344	26289.77
613.539	26484.33
613.735	26394.22
613.93	26379.89
614.126	26263.15
614.321	26781.29
614.517	26109.55
614.712	26119.79
614.907	25900.66
615.103	26140.27
615.298	25798.26
615.493	26134.13
615.688	25482.88
615.884	26035.83
616.079	25409.15
616.274	25521.79
616.47	25437.82
616.665	25659
616.86	25261.69
617.055	25542.27
617.25	25507.45
617.445	25521.79
617.641	25130.62
617.836	25224.83
618.031	25130.62
618.226	25351.81
618.421	24757.89
618.616	24891.01
618.811	24440.46
619.006	24968.83
619.201	24209.04
619.396	24831.62
619.591	24102.54
619.786	24553.1
619.981	23867.03
620.176	24333.96
620.371	23832.21
620.566	24067.73
620.761	23920.27
620.956	23836.31
621.151	23379.61
621.346	23770.77
621.541	23287.45
621.735	23211.68
621.93	22992.55
622.125	23096.99
622.32	22599.34
622.515	22732.45
622.709	22814.37
622.904	22589.1
623.099	22253.23
623.294	22691.49
623.488	22380.2
623.683	22255.28
623.878	21724.85
624.072	22259.37
624.267	21864.11
624.462	21526.2
624.656	21329.59
624.851	21370.55
625.046	21249.72
625.24	21202.62
625.435	20872.9
625.629	21165.76
625.824	20989.63
626.018	20948.67
626.213	20467.4
626.407	20715.2
626.602	20428.49
626.796	20424.39
626.991	20491.98
627.185	20090.57
627.38	20117.2
627.574	19949.26
627.768	19865.3
627.963	19961.55
628.157	19707.6
628.352	19543.77
628.546	19279.58
628.74	19478.23
628.935	19132.12
629.129	19105.5
629.323	18859.74
629.517	18951.9
629.712	18558.69
629.906	18599.65
630.1	18452.2
630.294	18603.75
630.489	18128.62
630.683	18222.83
630.877	18177.77
631.071	18132.72
631.265	18452.2
631.459	18048.75
631.653	17794.8
631.848	17790.7
632.042	17503.99
632.236	17825.52
632.43	17442.55
632.624	17409.78
632.818	17147.64
633.012	17123.07
633.206	17088.25
633.4	17127.16
633.594	16858.88
633.788	16920.32
633.982	16758.53
634.176	16574.21
634.369	16484.1
634.563	16379.65
634.757	16328.45
634.951	16344.84
635.145	16131.85
635.339	16375.56
635.533	15951.63
635.726	16105.23
635.92	15779.6
636.114	15935.24
636.308	15253.27
636.501	15636.24
636.695	15628.05
636.889	15415.06
637.083	15331.09
637.276	15343.38
637.47	15079.19
637.664	15425.3
637.857	15005.47
638.051	14898.97
638.244	14950.17
638.438	15015.71
638.632	14817.05
638.825	14563.11
639.019	14733.09
639.212	14667.55
639.406	14565.15
639.599	14669.6
639.793	14237.48
639.986	14260.01
640.18	14493.47
640.373	13913.9
640.567	14028.59
640.76	14079.79
640.954	13842.22
641.147	13975.34
641.34	13727.53
641.534	13557.55
641.727	13653.81
641.92	13635.38
642.114	13440.82
642.307	13387.57
642.5	13176.63
642.694	13043.51
642.887	13080.38
643.08	13242.17
643.273	13188.92
643.467	13109.05
643.66	12752.7
643.853	12861.24
644.046	12656.45
644.239	12754.75
644.432	12494.66
644.626	12642.11
644.819	12488.51
645.012	12592.96
645.205	12480.32
645.398	12343.11
645.591	12085.06
645.784	12390.21
645.977	12021.58
646.17	12035.91
646.363	12021.58
646.556	11884.36
646.749	11775.82
646.942	11718.48
647.135	11706.19
647.328	11556.69
647.521	11505.49
647.714	11540.3
647.907	11519.82
648.099	11435.86
648.292	11315.03
648.485	11200.34
648.678	11237.2
648.871	10954.58
649.064	11190.1
649.256	11089.75
649.449	11073.37
649.642	10856.28
649.835	11200.34
650.027	10694.49
650.22	10547.04
650.413	10712.92
650.605	10606.43
650.798	10657.63
650.991	10573.66
651.183	10727.26
651.376	10477.41
651.568	10471.26
651.761	10319.71
651.954	10418.02
652.146	10241.89
652.339	10303.33
652.531	10329.95
652.724	10274.66
652.916	9873.26
653.109	9996.14
653.301	9967.46
653.494	9953.13
653.686	9779.05
653.879	9863.02
654.071	9652.08
654.263	9734
654.456	9666.41
654.648	9619.31
654.84	9394.03
655.033	9348.98
655.225	9615.21
655.417	9289.59
655.61	9521.01
655.802	9451.38
655.994	9332.59
656.186	9195.38
656.379	9230.2
656.571	9115.51
656.763	9191.28
656.955	9068.41
657.148	8851.32
657.34	8861.56
657.532	8830.84
657.724	8728.44
657.916	8910.71
658.108	8763.26
658.3	8738.68
658.492	8734.59
658.684	8576.89
658.876	8517.5
659.068	8624
659.26	8472.45
659.452	8544.13
659.644	8435.58
659.836	8439.68
660.028	8497.02
660.22	8314.75
660.412	8157.06
660.604	8093.57
660.796	8185.73
660.988	8247.17
661.18	8175.49
661.372	7896.97
661.563	7985.03
661.755	7849.86
661.947	7946.12
662.139	7798.66
662.331	7845.77
662.522	7788.43
662.714	7980.93
662.906	7753.61
663.097	7600.01
663.289	7753.61
663.481	7559.05
663.673	7571.34
663.864	7444.37
664.056	7413.65
664.247	7278.48
664.439	7233.43
664.631	7276.43
664.822	7411.6
665.014	7227.28
665.205	7212.95
665.397	7165.84
665.588	7153.55
665.78	6983.57
665.971	7092.12
666.163	7233.43
666.354	7061.4
666.546	6846.36
666.737	6911.89
666.929	6952.85
667.12	7067.54
667.311	7004.05
667.503	6854.55
667.694	6805.4
667.885	6846.36
668.077	6748.06
668.268	6770.58
668.459	6723.48
668.651	6780.82
668.842	6625.18
669.033	6428.57
669.224	6502.3
669.416	6526.88
669.607	6467.49
669.798	6406.05
669.989	6641.56
670.18	6438.81
670.371	6430.62
670.563	6176.67
670.754	6387.61
670.945	6213.54
671.136	6379.42
671.327	6166.43
671.518	6346.66
671.709	6207.39
671.9	6191.01
672.091	6092.71
672.282	6201.25
672.473	5867.43
672.664	6133.67
672.855	5924.77
673.046	6002.6
673.237	6078.37
673.428	5988.26
673.619	5986.21
673.809	5975.97
674	5986.21
674.191	5824.42
674.382	5855.14
674.573	5793.7
674.764	5840.81
674.954	5822.38
675.145	5793.7
675.336	5742.5
675.527	5719.98
675.717	5803.94
675.908	5736.36
676.099	5627.82
676.289	5638.06
676.48	5564.33
676.671	5646.25
676.861	5662.63
677.052	5625.77
677.243	5691.31
677.433	5425.07
677.624	5449.64
677.814	5453.74
678.005	5535.66
678.195	5302.19
678.386	5412.78
678.576	5527.47
678.767	5439.4
678.957	5250.99
679.148	5375.92
679.338	5390.25
679.529	5226.42
679.719	5404.59
679.909	5207.98
680.1	5271.47
680.29	5199.79
680.481	5199.79
680.671	5226.42
680.861	5369.77
681.052	5414.83
681.242	5199.79
681.432	5095.35
681.622	5109.68
681.813	5212.08
682.003	5052.34
682.193	5081.01
682.383	5162.93
682.573	4935.6
682.764	5081.01
682.954	5019.57
683.144	5232.56
683.334	4878.26
683.524	5027.76
683.714	4990.9
683.904	4958.13
684.094	5119.92
684.284	4941.75
684.474	5046.19
684.664	4947.89
684.854	4935.6
685.044	4841.4
685.234	4822.97
685.424	4915.12
685.614	4634.55
685.804	4859.83
685.994	4831.16
686.184	4708.28
686.374	4679.61
686.564	4790.2
686.753	4767.67
686.943	4702.14
687.133	4667.32
687.323	4616.12
687.513	4951.99
687.702	4593.59
687.892	4534.2
688.082	4597.69
688.272	4569.02
688.461	4458.43
688.651	4521.91
688.841	4495.29
689.03	4548.54
689.22	4458.43
689.41	4573.11
689.599	4325.31
689.789	4452.28
689.979	4415.42
690.168	4372.41
690.358	4374.46
690.547	4298.69
690.737	4292.54
690.926	4220.86
691.116	4341.69
691.305	4364.22
691.495	4286.4
691.684	4071.36
691.874	4165.57
692.063	4249.54
692.252	4020.16
692.442	4036.55
692.631	4071.36
692.82	4130.75
693.01	3899.33
693.199	3997.63
693.388	4057.03
693.578	4028.35
693.767	4030.4
693.956	4005.83
694.146	3897.28
694.335	3885
694.524	3940.29
694.713	3829.7
694.902	3868.61
695.092	3917.76
695.281	3932.1
695.47	3930.05
695.659	3841.99
695.848	3719.11
696.037	3659.72
696.226	3839.94
696.415	3864.52
696.604	3684.3
696.793	3811.27
696.982	3794.89
697.171	3801.03
697.36	3792.84
697.549	3635.14
697.738	3678.15
697.927	3622.86
698.116	3678.15
698.305	3727.3
698.494	3739.59
698.683	3676.1
698.872	3694.54
699.061	3588.04
699.25	3665.86
699.438	3549.13
699.627	3463.12
699.816	3563.47
700.005	3581.9
700.193	3594.19
700.382	3633.1
700.571	3524.55
700.76	3598.28
700.948	3450.83
701.137	3459.02
701.326	3262.41
701.514	3426.25
701.703	3477.45
701.892	3428.3
702.08	3532.75
702.269	3497.93
702.457	3459.02
702.646	3352.52
702.834	3264.46
703.023	3325.9
703.212	3383.24
703.4	3340.24
703.589	3440.59
703.777	3340.24
703.965	3227.6
704.154	3401.68
704.342	3266.51
704.531	3135.44
704.719	3358.67
704.907	3364.81
705.096	3227.6
705.284	3235.79
705.472	3186.64
705.661	3225.55
705.849	3313.61
706.037	3350.48
706.226	3250.13
706.414	3295.18
706.602	3272.65
706.79	3215.31
706.979	3071.95
707.167	3229.65
707.355	3219.41
707.543	3170.26
707.731	3164.11
707.919	2992.08
708.107	3135.44
708.296	3090.38
708.484	3203.02
708.672	3127.25
708.86	3022.8
709.048	3094.48
709.236	3074
709.424	3106.77
709.612	3141.58
709.8	3123.15
709.988	3067.86
710.176	3020.75
710.364	3074
710.551	3024.85
710.739	3010.51
710.927	3012.56
711.115	2901.97
711.303	2940.88
711.491	2901.97
711.679	3051.47
711.866	2959.31
712.054	3020.75
712.242	2908.12
712.43	2971.6
712.617	2834.39
712.805	2955.22
712.993	2865.11
713.181	2885.59
713.368	2967.51
713.556	2793.43
713.744	2815.96
713.931	2879.44
714.119	2947.03
714.306	2750.42
714.494	2973.65
714.682	2791.38
714.869	2791.38
715.057	2865.11
715.244	2858.96
715.432	2979.79
715.619	2840.53
715.807	2725.85
715.994	2924.5
716.182	2717.65
716.369	2832.34
716.556	2799.57
716.744	2766.81
716.931	2908.12
717.119	2815.96
717.306	2738.13
717.493	2686.93
717.681	2844.63
717.868	2801.62
718.055	2719.7
718.242	2688.98
718.43	2684.89
718.617	2678.74
718.804	2664.41
718.991	2695.13
719.179	2629.59
719.366	2701.27
719.553	2693.08
719.74	2715.61
719.927	2666.46
720.114	2580.44
720.301	2506.71
720.488	2568.15
720.676	2578.39
720.863	2631.64
721.05	2654.17
721.237	2736.09
721.424	2711.51
721.611	2621.4
721.798	2525.15
721.985	2510.81
722.172	2631.64
722.358	2580.44
722.545	2623.45
722.732	2523.1
722.919	2557.91
723.106	2539.48
723.293	2482.14
723.48	2447.32
723.667	2547.67
723.853	2500.57
724.04	2648.02
724.227	2656.22
724.414	2586.58
724.6	2457.56
724.787	2449.37
724.974	2514.91
725.161	2471.9
725.347	2566.1
725.534	2582.49
725.72	2492.38
725.907	2357.21
726.094	2514.91
726.28	2402.27
726.467	2439.13
726.653	2416.6
726.84	2428.89
727.027	2529.24
727.213	2414.56
727.4	2410.46
727.586	2435.03
727.773	2373.6
727.959	2484.19
728.145	2562.01
728.332	2414.56
728.518	2443.23
728.705	2367.45
728.891	2410.46
729.077	2244.57
729.264	2385.88
729.45	2422.75
729.636	2346.97
729.823	2316.25
730.009	2418.65
730.195	2416.6
730.382	2242.53
730.568	2308.06
730.754	2308.06
730.94	2291.68
731.126	2353.12
731.313	2281.44
731.499	2389.98
731.685	2310.11
731.871	2191.33
732.057	2394.08
732.243	2383.84
732.429	2201.57
732.615	2373.6
732.801	2283.49
732.987	2197.47
733.173	2252.77
733.359	2326.49
733.545	2308.06
733.731	2201.57
733.917	2316.25
734.103	2269.15
734.289	2324.44
734.475	2228.19
734.661	2250.72
734.847	2279.39
735.033	2142.18
735.219	2293.72
735.404	2263.01
735.59	2166.75
735.776	2207.71
735.962	2215.9
736.148	2217.95
736.333	2213.85
736.519	2201.57
736.705	2203.61
736.89	2211.81
737.076	2131.94
737.262	2111.46
737.447	2115.55
737.633	2127.84
737.819	2197.47
738.004	2209.76
738.19	2078.69
738.375	2185.18
738.561	2154.46
738.747	2168.8
738.932	2129.89
739.118	2113.5
739.303	2095.07
739.489	2111.46
739.674	2140.13
739.859	2115.55
740.045	2074.59
740.23	2033.63
740.416	2047.97
740.601	2047.97
740.786	2176.99
740.972	2031.58
741.157	2043.87
741.342	2029.54
741.528	1861.6
741.713	1986.53
741.898	1980.39
742.084	1908.71
742.269	2045.92
742.454	2060.26
742.639	1980.39
742.824	1966.05
743.01	1984.48
743.195	1980.39
743.38	1902.56
743.565	1853.41
743.75	1796.07
743.935	1953.76
744.12	1908.71
744.305	1820.64
744.49	1935.33
744.675	1990.63
744.86	1853.41
745.045	1869.8
745.23	1837.03
745.415	1794.02
745.6	1884.13
745.785	1808.36
745.97	1818.6
746.155	1810.4
746.34	1865.7
746.525	1701.86
746.71	1824.74
746.895	1716.2
747.079	1755.11
747.264	1703.91
747.449	1693.67
747.634	1689.57
747.819	1824.74
748.003	1701.86
748.188	1599.46
748.373	1624.04
748.557	1703.91
748.742	1658.85
748.927	1679.33
749.111	1630.18
749.296	1566.7
749.481	1603.56
749.665	1587.18
749.85	1601.51
750.034	1687.53
750.219	1617.9
750.404	1452.01
750.588	1511.4
750.773	1578.98
750.957	1527.78
751.141	1538.02
751.326	1611.75
751.51	1497.07
751.695	1433.58
751.879	1363.95
752.064	1509.35
752.248	1484.78
752.432	1456.11
752.617	1411.05
752.801	1423.34
752.985	1400.81
753.17	1404.91
753.354	1435.63
753.538	1505.26
753.722	1390.57
753.907	1349.61
754.091	1341.42
754.275	1325.04
754.459	1366
754.643	1275.88
754.828	1296.36
755.012	1277.93
755.196	1216.49
755.38	1361.9
755.564	1312.75
755.748	1308.65
755.932	1257.45
756.116	1269.74
756.3	1183.73
756.484	1294.32
756.668	1193.97
756.852	1239.02
757.036	1230.83
757.22	1161.2
757.404	1138.67
757.588	1230.83
757.772	1087.47
757.956	1095.66
758.14	1118.19
758.323	1138.67
758.507	1099.76
758.691	1023.98
758.875	1189.87
759.059	1148.91
759.242	1132.53
759.426	1112.05
759.61	1179.63
759.794	1118.19
759.977	1085.42
760.161	1081.33
760.345	1079.28
760.528	1136.62
760.712	1034.22
760.895	1073.14
761.079	1026.03
761.263	1028.08
761.446	1015.79
761.63	956.4
761.813	915.44
761.997	1132.53
762.18	1046.51
762.364	956.4
762.547	970.74
762.731	1034.22
762.914	983.02
763.098	997.36
763.281	890.87
763.464	886.77
763.648	944.11
763.831	905.2
764.015	968.69
764.198	942.07
764.381	933.87
764.564	909.3
764.748	923.63
764.931	978.93
765.114	907.25
765.297	882.67
765.481	952.31
765.664	845.81
765.847	915.44
766.03	931.83
766.213	792.56
766.397	874.48
766.58	849.91
766.763	894.96
766.946	815.09
767.129	868.34
767.312	935.92
767.495	854
767.678	798.71
767.861	854
768.044	833.52
768.227	845.81
768.41	813.04
768.593	851.95
768.776	808.95
768.959	806.9
769.142	843.76
769.324	778.23
769.507	892.91
769.69	724.98
769.873	858.1
770.056	888.82
770.239	800.76
770.421	882.67
770.604	784.37
770.787	821.24
770.97	874.48
771.152	761.84
771.335	774.13
771.518	821.24
771.7	802.8
771.883	733.17
772.066	739.32
772.248	747.51
772.431	825.33
772.613	833.52
772.796	665.59
772.978	686.07
773.161	731.12
773.343	702.45
773.526	804.85
773.708	727.03
773.891	706.55
774.073	702.45
774.256	677.88
774.438	729.08
774.621	618.49
774.803	694.26
774.985	794.61
775.168	700.41
775.35	704.5
775.532	843.76
775.715	632.82
775.897	675.83
776.079	667.64
776.261	702.45
776.444	626.68
776.626	686.07
776.808	575.48
776.99	630.77
777.173	684.02
777.355	569.34
777.537	620.53
777.719	622.58
777.901	606.2
778.083	628.73
778.265	600.05
778.447	692.21
778.629	530.42
778.811	628.73
778.993	604.15
779.175	595.96
779.357	612.34
779.539	524.28
779.721	530.42
779.903	563.19
780.085	557.05
780.267	565.24
780.449	593.91
780.631	491.51
780.812	573.43
780.994	544.76
781.176	532.47
781.358	487.42
781.54	425.98
781.721	526.33
781.903	528.38
782.085	540.66
782.267	550.9
782.448	507.9
782.63	511.99
782.812	546.81
782.993	419.83
783.175	497.66
783.357	399.35
783.538	491.51
783.72	479.22
783.901	505.85
784.083	509.94
784.264	514.04
784.446	430.07
784.627	419.83
784.809	561.14
784.99	491.51
785.172	417.79
785.353	450.55
785.535	468.98
785.716	415.74
785.897	423.93
786.079	483.32
786.26	391.16
786.441	436.22
786.623	342.01
786.804	399.35
786.985	483.32
787.167	395.26
787.348	464.89
787.529	335.87
787.71	407.55
787.891	389.11
788.073	389.11
788.254	350.2
788.435	380.92
788.616	452.6
788.797	372.73
788.978	403.45
789.159	301.05
789.34	352.25
789.522	407.55
789.703	286.72
789.884	337.91
790.065	337.91
790.246	413.69
790.427	389.11
790.607	311.29
790.788	376.83
790.969	337.91
791.15	331.77
791.331	321.53
791.512	370.68
791.693	256
791.874	294.91
792.054	319.48
792.235	333.82
792.416	333.82
792.597	305.15
792.778	284.67
792.958	333.82
793.139	370.68
793.32	307.2
793.5	276.48
793.681	407.55
793.862	294.91
794.042	317.44
794.223	188.41
794.404	301.05
794.584	272.38
794.765	276.48
794.945	251.9
795.126	278.52
795.306	321.53
795.487	292.86
795.667	339.96
795.848	243.71
796.028	253.95
796.209	247.8
796.389	247.8
796.57	231.42
796.75	223.23
796.93	178.17
797.111	237.56
797.291	241.66
797.471	278.52
797.652	258.04
797.832	231.42
798.012	217.08
798.192	239.61
798.373	241.66
798.553	251.9
798.733	256
798.913	223.23
799.093	260.09
799.274	215.04
799.454	243.71
799.634	251.9
799.814	256
799.994	260.09
800.174	223.23
800.354	217.08
800.534	268.28
800.714	235.52
800.894	186.37
801.074	174.08
801.254	182.27
801.434	284.67
801.614	243.71
801.794	161.79
801.974	811
802.154	172.03
802.334	198.65
802.514	147.45
802.693	286.72
802.873	231.42
803.053	212.99
803.233	180.22
803.413	204.8
803.592	157.69
803.772	276.48
803.952	247.8
804.131	169.98
804.311	231.42
804.491	198.65
804.67	169.98
804.85	182.27
805.03	210.94
805.209	194.56
805.389	178.17
805.568	96.25
805.748	215.04
805.928	215.04
806.107	165.89
806.287	223.23
806.466	256
806.646	122.88
806.825	155.65
807.004	221.18
807.184	131.07
807.363	217.08
807.543	151.55
807.722	122.88
807.901	157.69
808.081	202.75
808.26	112.64
808.439	169.98
808.619	221.18
808.798	178.17
808.977	206.84
809.156	149.5
809.336	169.98
809.515	172.03
809.694	79.87
809.873	149.5
810.052	75.77
810.231	198.65
810.411	182.27
810.59	190.46
810.769	73.73
810.948	112.64
811.127	106.49
811.306	169.98
811.485	149.5
811.664	202.75
811.843	65.53
812.022	155.65
812.201	157.69
812.38	151.55
812.559	88.06
812.737	155.65
812.916	14.34
813.095	96.25
813.274	253.95
813.453	186.37
813.632	163.84
813.811	169.98
813.989	57.34
814.168	131.07
814.347	114.69
814.526	167.93
814.704	178.17
814.883	208.89
815.062	88.06
815.24	167.93
815.419	153.6
815.598	147.45
815.776	190.46
815.955	155.65
816.133	143.36
816.312	174.08
816.49	145.41
816.669	157.69
816.847	116.73
817.026	153.6
817.204	75.77
817.383	98.3
817.561	38.91
817.74	75.77
817.918	129.02
818.097	145.41
818.275	88.06
818.453	120.83
818.632	104.45
818.81	124.93
818.988	145.41
819.167	161.79
819.345	137.21
819.523	151.55
819.701	108.54
819.879	90.11
820.058	110.59
820.236	202.75
820.414	114.69
820.592	149.5
820.77	83.97
820.948	90.11
821.127	90.11
821.305	145.41
821.483	63.49
821.661	147.45
821.839	157.69
822.017	79.87
822.195	157.69
822.373	77.82
822.551	126.97
822.729	155.65
822.907	73.73
823.085	124.93
823.262	155.65
823.44	139.26
823.618	49.15
823.796	145.41
823.974	63.49
824.152	147.45
824.329	83.97
824.507	65.53
824.685	122.88
824.863	129.02
825.04	73.73
825.218	114.69
825.396	63.49
825.574	22.53
825.751	88.06
825.929	131.07
826.107	57.34
826.284	79.87
826.462	81.92
826.639	118.78
826.817	137.21
826.994	202.75
827.172	61.44
827.349	169.98
827.527	88.06
827.704	34.82
827.882	110.59
828.059	120.83
828.237	38.91
828.414	67.58
828.591	8.19
828.769	38.91
828.946	129.02
829.124	79.87
829.301	83.97
829.478	98.3
829.655	104.45
829.833	59.39
830.01	57.34
830.187	24.58
830.364	47.1
830.542	81.92
830.719	135.17
830.896	24.58
831.073	75.77
831.25	83.97
831.427	43.01
831.604	129.02
831.782	88.06
831.959	124.93
832.136	18.43
832.313	75.77
832.49	100.35
832.667	22.53
832.844	71.68
833.021	59.39
833.198	88.06
833.374	81.92
833.551	59.39
833.728	81.92
833.905	28.67
834.082	-36.86
834.259	133.12
834.436	118.78
834.612	45.06
834.789	120.83
834.966	-43.01
835.143	120.83
835.319	18.43
835.496	49.15
835.673	73.73
835.85	61.44
836.026	106.49
836.203	137.21
836.38	104.45
836.556	88.06
836.733	-30.72
836.909	104.45
837.086	92.16
837.262	-8.19
837.439	32.77
837.616	36.86
837.792	83.97
837.968	96.25
838.145	28.67
838.321	71.68
838.498	79.87
838.674	38.91
838.851	24.58
839.027	4.1
839.203	-24.58
839.38	96.25
839.556	47.1
839.732	53.25
839.909	28.67
840.085	79.87
840.261	47.1
840.437	8.19
840.614	65.53
840.79	83.97
840.966	32.77
841.142	40.96
841.318	-20.48
841.494	73.73
841.671	75.77
841.847	-10.24
842.023	2.05
842.199	126.97
842.375	102.4
842.551	-10.24
842.727	-6.14
842.903	104.45
843.079	32.77
843.255	20.48
843.431	24.58
843.607	18.43
843.783	-10.24
843.959	73.73
844.134	16.38
844.31	75.77
844.486	53.25
844.662	81.92
844.838	36.86
845.013	57.34
845.189	47.1
845.365	24.58
845.541	63.49
845.716	79.87
845.892	75.77
846.068	32.77
846.244	-10.24
846.419	20.48
846.595	73.73
846.77	14.34
846.946	8.19
847.122	2.05
847.297	40.96
847.473	106.49
847.648	34.82
847.824	30.72
847.999	8.19
848.175	18.43
848.35	22.53
848.526	32.77
848.701	24.58
848.876	49.15
849.052	34.82
849.227	75.77
849.403	83.97
849.578	53.25
849.753	22.53
849.929	124.93
850.104	-30.72
850.279	90.11
850.454	22.53
850.63	90.11
850.805	8.19
850.98	81.92
851.155	81.92
851.33	-32.77
851.505	-6.14
851.681	104.45
851.856	38.91
852.031	63.49
852.206	51.2
852.381	57.34
852.556	-65.54
852.731	30.72
852.906	8.19
853.081	-22.53
853.256	-6.14
853.431	47.1
853.606	38.91
853.781	-0
853.956	-34.82
854.131	108.54
854.305	-0
854.48	2.05
854.655	-28.67
854.83	-26.62
855.005	22.53
855.18	51.2
855.354	-30.72
855.529	43.01
855.704	-40.96
855.879	73.73
856.053	6.14
856.228	73.73
856.403	18.43
856.577	49.15
856.752	-59.39
856.926	18.43
857.101	63.49
857.276	86.01
857.45	86.01
857.625	112.64
857.799	6.14
857.974	53.25
858.148	-71.68
858.323	18.43
858.497	18.43
858.672	-0
858.846	26.62
859.02	55.3
859.195	14.34
859.369	47.1
859.543	-38.91
859.718	49.15
859.892	30.72
860.066	75.77
860.241	26.62
860.415	22.53
860.589	43.01
860.763	-32.77
860.938	67.58
861.112	-4.1
861.286	112.64
861.46	22.53
861.634	-20.48
861.808	43.01
861.982	-2.05
862.157	6.14
862.331	53.25
862.505	-28.67
862.679	30.72
862.853	69.63
863.027	14.34
863.201	77.82
863.375	-0
863.549	38.91
863.722	-0
863.896	43.01
864.07	34.82
864.244	6.14
864.418	14.34
864.592	71.68
864.766	79.87
864.939	106.49
865.113	-86.01
865.287	59.39
865.461	-0
865.634	55.3
865.808	-43.01
865.982	49.15
866.156	38.91
866.329	26.62
866.503	49.15
866.676	55.3
866.85	51.2
867.024	10.24
867.197	8.19
867.371	86.01
867.544	88.06
867.718	16.38
867.891	24.58
868.065	6.14
868.238	49.15
868.412	55.3
868.585	-47.1
868.759	24.58
868.932	-16.38
869.105	-51.2
869.279	-59.39
869.452	-43.01
869.625	38.91
869.799	14.34
869.972	38.91
870.145	30.72
870.319	90.11
870.492	-0
870.665	-12.29
870.838	-55.3
871.011	6.14
871.185	6.14
871.358	-100.35
871.531	-10.24
871.704	-18.43
871.877	51.2
872.05	-32.77
872.223	-10.24
872.396	116.73
872.569	100.35
872.742	-45.06
872.915	57.34
873.088	-59.39
873.261	-20.48
873.434	43.01
873.607	24.58
873.78	30.72
873.953	36.86
874.126	38.91
874.299	32.77
874.471	-26.62
874.644	30.72
874.817	34.82
874.99	-14.34
875.163	-32.77
875.335	14.34
875.508	24.58
875.681	88.06
875.853	-26.62
876.026	16.38
876.199	6.14
876.371	18.43
876.544	-12.29
876.717	55.3
876.889	-30.72
877.062	67.58
877.234	-2.05
877.407	-18.43
877.579	4.1
877.752	-2.05
877.924	2.05
878.097	-49.15
878.269	-18.43
878.442	-18.43
878.614	-2.05
878.786	47.1
878.959	-22.53
879.131	38.91
879.303	14.34
879.476	-65.54
879.648	-2.05
879.82	6.14
879.993	-34.82
880.165	24.58
880.337	-24.58
880.509	12.29
880.681	-24.58
880.854	-34.82
881.026	-10.24
881.198	55.3
881.37	-2.05
881.542	24.58
881.714	14.34
881.886	34.82
882.058	-0
882.23	47.1
882.402	-57.34
882.574	22.53
882.746	-63.49
882.918	34.82
883.09	-47.1
883.262	-18.43
883.434	10.24
883.606	38.91
883.778	63.49
883.95	88.06
884.122	-30.72
884.293	34.82
884.465	-26.62
884.637	40.96
884.809	-57.34
884.98	-18.43
885.152	-2.05
885.324	-2.05
885.496	-32.77
885.667	-2.05
885.839	6.14
886.011	104.45
886.182	6.14
886.354	14.34
886.525	28.67
886.697	-43.01
886.869	43.01
887.04	22.53
887.212	28.67
887.383	-10.24
887.555	-24.58
887.726	63.49
887.897	-94.21
888.069	16.38
888.24	38.91
888.412	10.24
888.583	-30.72
888.754	14.34
888.926	53.25
889.097	-34.82
889.268	-40.96
889.44	104.45
889.611	-10.24
889.782	-51.2
889.953	-28.67
890.125	14.34
890.296	-0
890.467	-32.77
890.638	-10.24
890.809	-26.62
890.98	-26.62
891.151	14.34
891.323	-8.19
891.494	16.38
891.665	-65.54
891.836	-20.48
892.007	-55.3
892.178	-18.43
892.349	24.58
892.52	-63.49
892.691	14.34
892.862	18.43
893.032	-100.35
893.203	-73.73
893.374	61.44
893.545	24.58
893.716	24.58
893.887	63.49
894.057	-4.1
894.228	-10.24
894.399	-4.1
894.57	6.14
894.74	10.24
894.911	53.25
895.082	6.14
895.253	47.1
895.423	38.91
895.594	43.01
895.764	43.01
895.935	6.14
896.106	16.38
896.276	-22.53
896.447	-92.16
896.617	-75.77
896.788	-10.24
896.958	-40.96
897.129	-28.67
897.299	-32.77
897.47	14.34
897.64	63.49
897.81	-36.86
897.981	32.77
898.151	-10.24
898.322	51.2
898.492	-61.44
898.662	-40.96
898.832	16.38
899.003	-18.43
899.173	-2.05
899.343	10.24
899.513	-10.24
