Data from USB4F104151__198__14-20-30-974.txt Node

Date: Thu Mar 13 14:20:30 EDT 2025
User: louis
Spectrometer: USB4F10415
Trigger mode: 4
Integration Time (sec): 2.000000E-2
Scans to average: 1
Electric dark correction enabled: true
Nonlinearity correction enabled: false
Boxcar width: 0
XAxis mode: Wavelengths
Number of Pixels in Spectrum: 3648
>>>>>Begin Spectral Data<<<<<
178.204	-192.68
178.424	-192.68
178.644	-192.68
178.864	-123.05
179.084	-200.87
179.304	1.88
179.524	44.88
179.744	-16.55
179.964	26.45
180.184	-45.23
180.404	16.21
180.624	12.12
180.844	-12.46
181.064	-114.86
181.283	67.41
181.503	-45.23
181.723	65.36
181.943	-32.94
182.163	77.65
182.383	81.75
182.602	81.75
182.822	63.32
183.042	59.22
183.262	-37.03
183.482	12.12
183.701	10.07
183.921	-0.17
184.141	-57.51
184.361	-16.55
184.58	-26.79
184.8	18.26
185.02	-22.7
185.239	26.45
185.459	26.45
185.679	77.65
185.898	-8.36
186.118	24.4
186.338	-16.55
186.557	106.32
186.777	-55.47
186.997	24.4
187.216	-26.79
187.436	22.36
187.655	57.17
187.875	32.6
188.095	59.22
188.314	16.21
188.534	-18.6
188.753	10.07
188.973	24.4
189.192	36.69
189.412	26.45
189.631	38.74
189.851	3.93
190.07	32.6
190.29	-59.56
190.509	-2.22
190.729	24.4
190.948	79.7
191.168	104.28
191.387	40.79
191.607	-2.22
191.826	20.31
192.045	77.65
192.265	34.64
192.484	-12.46
192.704	-0.17
192.923	-16.55
193.142	51.03
193.362	48.98
193.581	12.12
193.8	40.79
194.02	98.13
194.239	-8.36
194.458	18.26
194.678	-32.94
194.897	20.31
195.116	75.6
195.335	32.6
195.555	28.5
195.774	-47.27
195.993	-0.17
196.212	28.5
196.432	24.4
196.651	3.93
196.87	5.97
197.089	114.52
197.308	57.17
197.528	24.4
197.747	-22.7
197.966	-16.55
198.185	57.17
198.404	96.08
198.623	-24.75
198.842	1.88
199.062	-6.31
199.281	73.56
199.5	-2.22
199.719	100.18
199.938	38.74
200.157	67.41
200.376	42.84
200.595	79.7
200.814	34.64
201.033	20.31
201.252	12.12
201.471	22.36
201.69	36.69
201.909	18.26
202.128	-0.17
202.347	-0.17
202.566	22.36
202.785	57.17
203.004	10.07
203.223	130.9
203.442	14.17
203.661	-6.31
203.879	51.03
204.098	3.93
204.317	-0.17
204.536	85.84
204.755	40.79
204.974	38.74
205.193	53.08
205.411	98.13
205.63	57.17
205.849	-6.31
206.068	65.36
206.287	24.4
206.505	63.32
206.724	24.4
206.943	-28.84
207.162	51.03
207.381	28.5
207.599	18.26
207.818	16.21
208.037	65.36
208.255	20.31
208.474	22.36
208.693	46.93
208.911	16.21
209.13	30.55
209.349	32.6
209.567	10.07
209.786	28.5
210.005	59.22
210.223	53.08
210.442	-6.31
210.661	28.5
210.879	-65.71
211.098	8.02
211.316	73.56
211.535	-71.85
211.753	34.64
211.972	-8.36
212.191	-57.51
212.409	32.6
212.628	36.69
212.846	-32.94
213.065	-26.79
213.283	28.5
213.502	8.02
213.72	44.88
213.938	46.93
214.157	-24.75
214.375	8.02
214.594	24.4
214.812	28.5
215.031	65.36
215.249	3.93
215.467	10.07
215.686	-22.7
215.904	44.88
216.122	-22.7
216.341	16.21
216.559	63.32
216.778	32.6
216.996	77.65
217.214	-4.27
217.432	10.07
217.651	42.84
217.869	53.08
218.087	48.98
218.306	22.36
218.524	-28.84
218.742	-32.94
218.96	8.02
219.179	20.31
219.397	24.4
219.615	-41.13
219.833	5.97
220.051	26.45
220.27	102.23
220.488	106.32
220.706	67.41
220.924	26.45
221.142	-6.31
221.36	-6.31
221.578	106.32
221.796	10.07
222.015	20.31
222.233	40.79
222.451	20.31
222.669	67.41
222.887	106.32
223.105	-26.79
223.323	30.55
223.541	-4.27
223.759	5.97
223.977	20.31
224.195	18.26
224.413	-4.27
224.631	16.21
224.849	51.03
225.067	89.94
225.285	32.6
225.503	42.84
225.721	-43.18
225.939	51.03
226.157	20.31
226.375	-0.17
226.592	-41.13
226.81	8.02
227.028	-22.7
227.246	98.13
227.464	-16.55
227.682	-6.31
227.9	1.88
228.117	3.93
228.335	16.21
228.553	20.31
228.771	-14.51
228.989	32.6
229.206	26.45
229.424	63.32
229.642	-71.85
229.86	24.4
230.077	59.22
230.295	-24.75
230.513	173.91
230.731	-4.27
230.948	-8.36
231.166	102.23
231.384	-8.36
231.601	48.98
231.819	24.4
232.037	-55.47
232.254	48.98
232.472	87.89
232.689	57.17
232.907	24.4
233.125	-53.42
233.342	-20.65
233.56	-53.42
233.777	32.6
233.995	-53.42
234.213	3.93
234.43	48.98
234.648	63.32
234.865	-4.27
235.083	108.37
235.3	40.79
235.518	8.02
235.735	40.79
235.953	12.12
236.17	18.26
236.388	-12.46
236.605	40.79
236.822	55.12
237.04	40.79
237.257	34.64
237.475	63.32
237.692	89.94
237.909	-34.99
238.127	-24.75
238.344	69.46
238.562	24.4
238.779	61.27
238.996	32.6
239.214	3.93
239.431	-0.17
239.648	44.88
239.865	48.98
240.083	100.18
240.3	55.12
240.517	-37.03
240.735	28.5
240.952	75.6
241.169	89.94
241.386	28.5
241.603	48.98
241.821	36.69
242.038	48.98
242.255	-16.55
242.472	-0.17
242.689	34.64
242.907	91.99
243.124	3.93
243.341	-24.75
243.558	14.17
243.775	-47.27
243.992	16.21
244.209	116.56
244.426	14.17
244.643	83.8
244.86	-24.75
245.078	20.31
245.295	94.04
245.512	-14.51
245.729	-16.55
245.946	38.74
246.163	59.22
246.38	-16.55
246.597	16.21
246.814	10.07
247.031	12.12
247.248	51.03
247.464	18.26
247.681	89.94
247.898	18.26
248.115	16.21
248.332	73.56
248.549	38.74
248.766	139.09
248.983	108.37
249.2	-20.65
249.417	48.98
249.633	-4.27
249.85	77.65
250.067	3.93
250.284	32.6
250.501	-12.46
250.717	48.98
250.934	12.12
251.151	65.36
251.368	-16.55
251.585	32.6
251.801	89.94
252.018	-4.27
252.235	44.88
252.451	-30.89
252.668	81.75
252.885	32.6
253.102	-12.46
253.318	51.03
253.535	-32.94
253.752	10.07
253.968	14.17
254.185	10.07
254.401	67.41
254.618	16.21
254.835	10.07
255.051	32.6
255.268	-0.17
255.484	24.4
255.701	-26.79
255.917	26.45
256.134	65.36
256.351	-10.41
256.567	48.98
256.784	98.13
257	79.7
257.217	59.22
257.433	-8.36
257.65	26.45
257.866	44.88
258.082	-2.22
258.299	16.21
258.515	89.94
258.732	18.26
258.948	22.36
259.165	26.45
259.381	36.69
259.597	8.02
259.814	-12.46
260.03	-8.36
260.246	-16.55
260.463	-0.17
260.679	67.41
260.895	77.65
261.112	65.36
261.328	18.26
261.544	-20.65
261.761	67.41
261.977	-10.41
262.193	-37.03
262.409	32.6
262.626	-39.08
262.842	151.38
263.058	-18.6
263.274	42.84
263.49	46.93
263.707	57.17
263.923	36.69
264.139	-8.36
264.355	-6.31
264.571	20.31
264.787	51.03
265.004	57.17
265.22	63.32
265.436	18.26
265.652	-8.36
265.868	-8.36
266.084	-20.65
266.3	-57.51
266.516	26.45
266.732	57.17
266.948	-12.46
267.164	53.08
267.38	-8.36
267.596	-20.65
267.812	81.75
268.028	94.04
268.244	44.88
268.46	26.45
268.676	-12.46
268.892	81.75
269.108	8.02
269.324	42.84
269.54	18.26
269.756	116.56
269.972	1.88
270.188	12.12
270.403	24.4
270.619	-16.55
270.835	-6.31
271.051	63.32
271.267	24.4
271.483	-14.51
271.698	20.31
271.914	32.6
272.13	-2.22
272.346	89.94
272.562	18.26
272.777	81.75
272.993	10.07
273.209	-4.27
273.425	77.65
273.64	-28.84
273.856	24.4
274.072	98.13
274.287	1.88
274.503	32.6
274.719	48.98
274.934	38.74
275.15	-39.08
275.366	16.21
275.581	28.5
275.797	-0.17
276.012	-8.36
276.228	44.88
276.444	-84.14
276.659	44.88
276.875	8.02
277.09	-4.27
277.306	16.21
277.521	16.21
277.737	-24.75
277.952	24.4
278.168	53.08
278.383	12.12
278.599	57.17
278.814	51.03
279.03	44.88
279.245	112.47
279.461	51.03
279.676	16.21
279.892	-6.31
280.107	-24.75
280.322	-26.79
280.538	44.88
280.753	24.4
280.969	14.17
281.184	8.02
281.399	57.17
281.615	-41.13
281.83	63.32
282.045	-0.17
282.26	69.46
282.476	28.5
282.691	-24.75
282.906	75.6
283.122	59.22
283.337	16.21
283.552	32.6
283.767	79.7
283.983	40.79
284.198	24.4
284.413	46.93
284.628	1.88
284.843	57.17
285.058	3.93
285.274	-43.18
285.489	-73.9
285.704	-0.17
285.919	-39.08
286.134	-0.17
286.349	24.4
286.564	24.4
286.779	73.56
286.995	12.12
287.21	-28.84
287.425	96.08
287.64	12.12
287.855	1.88
288.07	10.07
288.285	57.17
288.5	67.41
288.715	135
288.93	77.65
289.145	5.97
289.36	-22.7
289.575	-12.46
289.79	48.98
290.004	24.4
290.219	71.51
290.434	10.07
290.649	-26.79
290.864	-8.36
291.079	40.79
291.294	-4.27
291.509	24.4
291.724	36.69
291.938	12.12
292.153	81.75
292.368	-30.89
292.583	34.64
292.798	18.26
293.012	65.36
293.227	8.02
293.442	8.02
293.657	32.6
293.871	-20.65
294.086	81.75
294.301	65.36
294.516	48.98
294.73	36.69
294.945	18.26
295.16	-0.17
295.374	16.21
295.589	53.08
295.804	-0.17
296.018	57.17
296.233	63.32
296.447	12.12
296.662	1.88
296.877	-12.46
297.091	61.27
297.306	63.32
297.52	32.6
297.735	30.55
297.949	-2.22
298.164	24.4
298.378	18.26
298.593	-16.55
298.807	14.17
299.022	48.98
299.236	44.88
299.451	57.17
299.665	57.17
299.88	67.41
300.094	75.6
300.309	42.84
300.523	59.22
300.737	55.12
300.952	-20.65
301.166	98.13
301.381	46.93
301.595	-8.36
301.809	5.97
302.024	77.65
302.238	24.4
302.452	75.6
302.667	32.6
302.881	73.56
303.095	73.56
303.309	44.88
303.524	57.17
303.738	16.21
303.952	-12.46
304.166	34.64
304.381	-28.84
304.595	42.84
304.809	59.22
305.023	34.64
305.237	-20.65
305.452	-20.65
305.666	42.84
305.88	36.69
306.094	94.04
306.308	100.18
306.522	36.69
306.736	65.36
306.95	16.21
307.164	16.21
307.379	-24.75
307.593	102.23
307.807	10.07
308.021	85.84
308.235	8.02
308.449	-73.9
308.663	30.55
308.877	89.94
309.091	-20.65
309.305	20.31
309.519	-39.08
309.733	91.99
309.947	3.93
310.161	10.07
310.374	59.22
310.588	98.13
310.802	-32.94
311.016	8.02
311.23	26.45
311.444	-12.46
311.658	73.56
311.872	75.6
312.085	83.8
312.299	77.65
312.513	102.23
312.727	48.98
312.941	18.26
313.154	122.71
313.368	28.5
313.582	18.26
313.796	-20.65
314.009	48.98
314.223	40.79
314.437	77.65
314.651	106.32
314.864	67.41
315.078	34.64
315.292	14.17
315.505	26.45
315.719	1.88
315.933	73.56
316.146	-71.85
316.36	22.36
316.573	-16.55
316.787	77.65
317.001	42.84
317.214	28.5
317.428	-0.17
317.641	16.21
317.855	26.45
318.068	10.07
318.282	51.03
318.495	61.27
318.709	1.88
318.922	44.88
319.136	57.17
319.349	77.65
319.563	48.98
319.776	18.26
319.99	-14.51
320.203	-20.65
320.417	42.84
320.63	36.69
320.843	124.76
321.057	36.69
321.27	-0.17
321.483	-26.79
321.697	-6.31
321.91	-8.36
322.124	10.07
322.337	36.69
322.55	20.31
322.763	-16.55
322.977	34.64
323.19	-14.51
323.403	91.99
323.617	57.17
323.83	67.41
324.043	71.51
324.256	139.09
324.469	44.88
324.683	89.94
324.896	-0.17
325.109	55.12
325.322	8.02
325.535	65.36
325.748	48.98
325.962	-4.27
326.175	18.26
326.388	-32.94
326.601	16.21
326.814	42.84
327.027	34.64
327.24	73.56
327.453	8.02
327.666	-2.22
327.879	12.12
328.092	94.04
328.305	30.55
328.518	-12.46
328.731	59.22
328.944	106.32
329.157	10.07
329.37	1.88
329.583	42.84
329.796	73.56
330.009	24.4
330.222	98.13
330.435	77.65
330.648	73.56
330.861	42.84
331.073	32.6
331.286	94.04
331.499	36.69
331.712	-4.27
331.925	69.46
332.138	20.31
332.35	91.99
332.563	12.12
332.776	73.56
332.989	14.17
333.202	10.07
333.414	8.02
333.627	51.03
333.84	36.69
334.053	73.56
334.265	18.26
334.478	32.6
334.691	32.6
334.903	73.56
335.116	-18.6
335.329	-16.55
335.541	-16.55
335.754	20.31
335.966	40.79
336.179	46.93
336.392	65.36
336.604	106.32
336.817	53.08
337.029	87.89
337.242	24.4
337.454	94.04
337.667	28.5
337.88	44.88
338.092	18.26
338.305	65.36
338.517	-4.27
338.729	55.12
338.942	98.13
339.154	55.12
339.367	1.88
339.579	163.67
339.792	48.98
340.004	-24.75
340.217	89.94
340.429	51.03
340.641	-2.22
340.854	67.41
341.066	118.61
341.278	77.65
341.491	100.18
341.703	22.36
341.915	26.45
342.128	24.4
342.34	79.7
342.552	-0.17
342.764	55.12
342.977	1.88
343.189	8.02
343.401	81.75
343.613	-2.22
343.826	16.21
344.038	34.64
344.25	67.41
344.462	32.6
344.674	57.17
344.886	3.93
345.099	91.99
345.311	44.88
345.523	69.46
345.735	16.21
345.947	20.31
346.159	96.08
346.371	85.84
346.583	32.6
346.795	108.37
347.007	28.5
347.219	48.98
347.431	24.4
347.643	57.17
347.855	-34.99
348.067	79.7
348.279	-32.94
348.491	32.6
348.703	-0.17
348.915	77.65
349.127	34.64
349.339	77.65
349.551	-12.46
349.763	116.56
349.975	65.36
350.187	63.32
350.399	32.6
350.61	48.98
350.822	22.36
351.034	28.5
351.246	118.61
351.458	36.69
351.669	44.88
351.881	48.98
352.093	67.41
352.305	59.22
352.517	69.46
352.728	67.41
352.94	67.41
353.152	102.23
353.363	26.45
353.575	42.84
353.787	65.36
353.999	85.84
354.21	100.18
354.422	-8.36
354.633	100.18
354.845	8.02
355.057	-4.27
355.268	61.27
355.48	69.46
355.692	83.8
355.903	-106.67
356.115	48.98
356.326	16.21
356.538	94.04
356.749	89.94
356.961	83.8
357.172	36.69
357.384	-12.46
357.595	96.08
357.807	34.64
358.018	5.97
358.23	51.03
358.441	91.99
358.653	77.65
358.864	89.94
359.075	122.71
359.287	89.94
359.498	48.98
359.709	-4.27
359.921	73.56
360.132	28.5
360.344	40.79
360.555	-16.55
360.766	65.36
360.977	20.31
361.189	79.7
361.4	18.26
361.611	8.02
361.823	83.8
362.034	89.94
362.245	34.64
362.456	34.64
362.667	98.13
362.879	40.79
363.09	57.17
363.301	65.36
363.512	51.03
363.723	-8.36
363.935	81.75
364.146	87.89
364.357	24.4
364.568	171.86
364.779	-0.17
364.99	65.36
365.201	16.21
365.412	67.41
365.623	40.79
365.834	28.5
366.045	42.84
366.256	81.75
366.467	67.41
366.678	65.36
366.889	91.99
367.1	34.64
367.311	-26.79
367.522	18.26
367.733	3.93
367.944	89.94
368.155	8.02
368.366	32.6
368.577	40.79
368.788	-6.31
368.999	16.21
369.209	91.99
369.42	81.75
369.631	130.9
369.842	44.88
370.053	67.41
370.264	44.88
370.474	10.07
370.685	94.04
370.896	63.32
371.107	36.69
371.317	118.61
371.528	-14.51
371.739	102.23
371.95	85.84
372.16	110.42
372.371	-6.31
372.582	40.79
372.792	73.56
373.003	34.64
373.214	26.45
373.424	51.03
373.635	77.65
373.846	32.6
374.056	102.23
374.267	51.03
374.477	57.17
374.688	16.21
374.898	42.84
375.109	102.23
375.319	40.79
375.53	77.65
375.74	-32.94
375.951	44.88
376.161	32.6
376.372	106.32
376.582	-45.23
376.793	34.64
377.003	51.03
377.214	63.32
377.424	73.56
377.635	44.88
377.845	-24.75
378.055	67.41
378.266	65.36
378.476	16.21
378.686	42.84
378.897	69.46
379.107	89.94
379.317	44.88
379.528	67.41
379.738	42.84
379.948	34.64
380.158	73.56
380.369	63.32
380.579	48.98
380.789	167.76
380.999	98.13
381.21	126.8
381.42	73.56
381.63	57.17
381.84	87.89
382.05	22.36
382.261	89.94
382.471	40.79
382.681	42.84
382.891	98.13
383.101	34.64
383.311	40.79
383.521	71.51
383.731	57.17
383.941	124.76
384.151	5.97
384.361	36.69
384.571	106.32
384.781	71.51
384.991	135
385.201	98.13
385.411	51.03
385.621	83.8
385.831	12.12
386.041	77.65
386.251	-2.22
386.461	124.76
386.671	22.36
386.881	75.6
387.091	48.98
387.301	112.47
387.511	77.65
387.72	124.76
387.93	24.4
388.14	1.88
388.35	98.13
388.56	51.03
388.769	51.03
388.979	32.6
389.189	51.03
389.399	71.51
389.609	81.75
389.818	106.32
390.028	77.65
390.238	73.56
390.447	42.84
390.657	59.22
390.867	10.07
391.076	26.45
391.286	112.47
391.496	30.55
391.705	32.6
391.915	147.28
392.125	36.69
392.334	36.69
392.544	98.13
392.753	53.08
392.963	145.24
393.172	26.45
393.382	122.71
393.591	53.08
393.801	114.52
394.01	102.23
394.22	108.37
394.429	61.27
394.639	20.31
394.848	135
395.058	67.41
395.267	163.67
395.477	155.47
395.686	139.09
395.895	124.76
396.105	128.85
396.314	81.75
396.524	110.42
396.733	83.8
396.942	155.47
397.152	91.99
397.361	180.05
397.57	91.99
397.78	147.28
397.989	89.94
398.198	212.82
398.407	180.05
398.617	89.94
398.826	114.52
399.035	171.86
399.244	132.95
399.453	143.19
399.663	77.65
399.872	98.13
400.081	135
400.29	159.57
400.499	118.61
400.708	149.33
400.917	108.37
401.127	128.85
401.336	155.47
401.545	155.47
401.754	184.15
401.963	188.24
402.172	143.19
402.381	98.13
402.59	94.04
402.799	163.67
403.008	130.9
403.217	132.95
403.426	155.47
403.635	124.76
403.844	159.57
404.053	141.14
404.262	214.87
404.471	196.43
404.68	214.87
404.888	143.19
405.097	130.9
405.306	255.83
405.515	167.76
405.724	208.72
405.933	233.3
406.142	233.3
406.35	229.2
406.559	286.54
406.768	194.39
406.977	288.59
407.185	290.64
407.394	319.31
407.603	135
407.812	247.63
408.02	311.12
408.229	247.63
408.438	288.59
408.646	247.63
408.855	362.32
409.064	370.51
409.272	327.5
409.481	360.27
409.69	302.93
409.898	352.08
410.107	440.14
410.315	368.46
410.524	354.13
410.733	368.46
410.941	477.01
411.15	581.45
411.358	401.23
411.567	569.16
411.775	520.01
411.984	597.84
412.192	612.17
412.401	558.92
412.609	638.8
412.818	599.88
413.026	634.7
413.234	638.8
413.443	745.29
413.651	778.06
413.86	649.04
414.068	761.67
414.276	862.02
414.485	796.49
414.693	773.96
414.901	962.37
415.11	884.55
415.318	993.09
415.526	964.42
415.734	999.24
415.943	1079.11
416.151	1126.21
416.359	1165.12
416.567	1148.74
416.776	1191.75
416.984	1263.43
417.192	1253.19
417.4	1179.46
417.608	1212.23
417.817	1320.77
418.025	1496.89
418.233	1482.56
418.441	1386.3
418.649	1558.33
418.857	1648.44
419.065	1740.6
419.273	1613.63
419.481	1754.94
419.689	1888.06
419.897	1967.93
420.105	1900.34
420.313	1914.68
420.521	2144.05
420.729	2099
420.937	2205.49
421.145	2268.98
421.353	2506.54
421.561	2426.67
421.769	2656.04
421.977	2711.34
422.185	2645.8
422.393	2791.21
422.601	2891.56
422.809	2963.24
423.017	2928.42
423.224	3104.55
423.432	3323.68
423.64	3381.03
423.848	3680.03
424.056	3456.8
424.263	3766.04
424.471	3688.22
424.679	3778.33
424.887	3991.32
425.094	4108.05
425.302	4206.36
425.51	4280.08
425.718	4425.49
425.925	4542.22
426.133	4613.9
426.341	4925.19
426.548	5054.22
426.756	5082.89
426.964	5111.56
427.171	5381.89
427.379	5480.19
427.586	5783.29
427.794	5897.98
428.001	5998.33
428.209	6563.57
428.417	6389.49
428.624	6631.15
428.832	6833.9
429.039	6610.67
429.247	6819.57
429.454	7241.45
429.662	7911.13
429.869	7452.39
430.076	7864.03
430.284	7503.59
430.491	7757.53
430.699	8478.42
430.906	8345.3
431.114	8490.71
431.321	8898.25
431.528	9051.85
431.736	9592.51
431.943	10211
432.15	9748.16
432.358	9838.27
432.565	10460.85
432.772	10454.71
432.979	10835.63
433.187	10954.41
433.394	11251.37
433.601	11843.23
433.808	11935.39
434.016	11880.1
434.223	12369.56
434.43	13233.8
434.637	12750.48
434.844	13704.84
435.052	13952.64
435.259	13915.78
435.466	13631.11
435.673	13682.31
435.88	14577.27
436.087	15548.01
436.294	15425.13
436.501	14952.05
436.708	15281.77
436.915	16082.53
437.122	16563.8
437.329	16586.33
437.537	17094.22
437.743	17536.59
437.95	17210.96
438.157	18071.11
438.364	18904.63
438.571	18636.34
438.778	18734.65
438.985	20735.51
439.192	19877.41
439.399	20389.41
439.606	19736.1
439.813	20608.54
440.02	22240.77
440.227	21956.1
440.433	21495.31
440.64	22427.14
440.847	22091.27
441.054	22877.69
441.261	24167.91
441.467	24192.48
441.674	24499.68
441.881	25239
442.088	25208.28
442.294	25075.16
442.501	25697.74
442.708	26129.86
442.914	27022.78
443.121	28308.9
443.328	27805.1
443.534	29275.54
443.741	28509.6
443.948	28192.17
444.154	30324.1
444.361	29865.36
444.568	30213.51
444.774	30233.99
444.981	30496.13
445.187	31280.5
445.394	32875.87
445.6	32335.21
445.807	35083.58
446.013	34262.35
446.22	34301.26
446.426	35892.53
446.633	36052.27
446.839	37231.9
447.046	35904.82
447.252	37827.86
447.459	37956.88
447.665	37565.72
447.871	39202.05
448.078	40707.3
448.284	38802.69
448.491	39773.43
448.697	41721.05
448.903	42355.92
449.11	42263.76
449.316	41592.03
449.522	42095.83
449.728	43400.38
449.935	43650.24
450.141	43738.3
450.347	44668.08
450.553	43785.4
450.76	43830.46
450.966	45407.39
451.172	44782.76
451.378	46040.21
451.584	45223.08
451.791	46208.15
451.997	46173.33
452.203	46623.89
452.409	46812.3
452.615	46744.72
452.821	44907.69
453.027	44215.47
453.233	46664.85
453.44	45128.87
453.646	45450.4
453.852	45499.55
454.058	46275.73
454.264	44836.01
454.47	45810.84
454.676	44690.6
454.882	46232.72
455.088	42067.16
455.294	42935.49
455.5	43121.86
455.705	44072.12
455.911	42235.09
456.117	41391.33
456.323	40774.89
456.529	38489.35
456.735	40287.47
456.941	39611.64
457.147	38982.91
457.352	38016.27
457.558	37149.98
457.764	37453.08
457.97	36558.12
458.176	35820.85
458.381	35947.82
458.587	34280.78
458.793	34276.68
458.999	32605.54
459.204	34856.26
459.41	33764.69
459.616	31903.09
459.821	31677.81
460.027	31849.84
460.233	30901.63
460.438	29961.61
460.644	29775.25
460.85	28261.8
461.055	27954.6
461.261	27733.42
461.466	26164.68
461.672	24905.18
461.878	26856.89
462.083	25120.21
462.289	24444.38
462.494	24362.47
462.7	23223.79
462.905	22738.43
463.111	23510.51
463.316	23520.75
463.522	23027.19
463.727	23084.53
463.932	23121.4
464.138	22476.29
464.343	22676.99
464.549	22060.55
464.754	22955.51
464.959	23094.77
465.165	22449.66
465.37	21747.21
465.575	21073.43
465.781	22070.79
465.986	22119.94
466.191	21163.54
466.397	20672.03
466.602	19846.69
466.807	20856.34
467.012	20524.57
467.218	20340.25
467.423	20035.11
467.628	20459.04
467.833	21159.44
468.038	20241.95
468.244	19627.56
468.449	20610.59
468.654	19797.54
468.859	20131.36
469.064	19672.62
469.269	18943.54
469.474	18939.44
469.679	19285.55
469.885	18910.77
470.09	19004.98
470.295	19174.96
470.5	18531.9
470.705	18581.05
470.91	18210.37
471.115	18062.91
471.32	18316.86
471.525	18318.91
471.73	17845.83
471.935	17784.39
472.139	17083.98
472.344	17440.33
472.549	17161.81
472.754	17172.05
472.959	16832.08
473.164	16125.54
473.369	16023.14
473.574	16799.32
473.778	16422.49
473.983	16313.95
474.188	16270.94
474.393	15502.95
474.598	15388.27
474.802	15494.76
475.007	15412.84
475.212	15461.99
475.417	14743.16
475.621	14687.86
475.826	14745.2
476.031	14544.5
476.235	14505.59
476.44	14589.56
476.645	14057.09
476.849	14182.01
477.054	14171.77
477.259	13860.48
477.463	13803.14
477.668	13516.42
477.872	13635.21
478.077	13598.34
478.282	13082.25
478.486	12953.23
478.691	12799.63
478.895	13082.25
479.1	12705.43
479.304	12820.11
479.509	12431
479.713	12879.5
479.918	12379.8
480.122	12306.07
480.326	12471.96
480.531	12537.49
480.735	12308.12
480.94	12369.56
481.144	12359.32
481.348	11814.56
481.553	12322.46
481.757	11738.79
481.961	11937.44
482.166	12091.04
482.37	12162.72
482.574	11882.14
482.778	11785.89
482.983	11884.19
483.187	11853.47
483.391	11916.96
483.595	11689.63
483.8	11841.18
484.004	12011.17
484.208	11943.58
484.412	11927.2
484.616	12056.22
484.821	12005.02
485.025	11679.4
485.229	11962.01
485.433	12013.21
485.637	11630.24
485.841	11697.83
486.045	11646.63
486.249	11665.06
486.453	11710.11
486.657	11751.07
486.861	11804.32
487.065	11630.24
487.269	11706.02
487.473	11517.61
487.677	11771.55
487.881	11931.3
488.085	11673.25
488.289	11804.32
488.493	11744.93
488.697	12033.69
488.901	12107.42
489.105	11914.91
489.309	11818.66
489.512	11923.1
489.716	11919.01
489.92	11919.01
490.124	11992.73
490.328	12285.59
490.531	11980.45
490.735	12215.96
490.939	12232.35
491.143	12115.61
491.346	12117.66
491.55	12207.77
491.754	12332.7
491.958	12443.29
492.161	12197.53
492.365	12367.51
492.569	12568.21
492.772	12529.3
492.976	12744.34
493.18	12594.84
493.383	12717.72
493.587	12887.7
493.79	12897.94
493.994	12854.93
494.197	12992.14
494.401	13123.21
494.605	13125.26
494.808	13377.16
495.012	13280.91
495.215	13330.06
495.419	13450.89
495.622	13573.77
495.825	13565.57
496.029	13762.18
496.232	14202.49
496.436	13749.89
496.639	14257.79
496.843	13960.83
497.046	14519.93
497.249	14675.57
497.453	14573.17
497.656	14741.11
497.859	14624.37
498.063	15148.65
498.266	15414.89
498.469	15025.78
498.673	15453.8
498.876	15750.76
499.079	15638.12
499.282	15617.64
499.485	15844.96
499.689	16291.42
499.892	16475.74
500.095	16694.87
500.298	16842.32
500.501	16881.24
500.705	17276.49
500.908	17493.58
501.111	17593.93
501.314	17688.14
501.517	17712.71
501.72	17878.6
501.923	17989.19
502.126	18406.97
502.329	18765.37
502.532	18894.39
502.735	18835
502.938	19318.32
503.141	19058.23
503.344	19375.66
503.547	19717.67
503.75	19664.43
503.953	20088.35
504.156	20461.09
504.359	20710.94
504.562	20626.97
504.765	21116.44
504.968	21509.65
505.17	21566.99
505.373	21554.7
505.576	22068.74
505.779	21904.9
505.982	22257.15
506.185	22724.09
506.387	22621.69
506.59	22736.38
506.793	23205.36
506.996	23092.72
507.198	23854.57
507.401	23406.06
507.604	23981.54
507.807	24634.85
508.009	24440.29
508.212	24684
508.415	25159.13
508.617	25437.65
508.82	25556.43
509.022	25470.42
509.225	25892.3
509.428	26056.14
509.63	26199.49
509.833	26703.29
510.035	26961.34
510.238	27041.21
510.44	27438.51
510.643	27700.65
510.845	28102.06
511.048	27741.61
511.25	28329.38
511.453	28474.79
511.655	29558.16
511.858	29210.01
512.06	29072.79
512.262	29738.38
512.465	30021
512.667	30096.78
512.87	30436.74
513.072	30602.63
513.274	31018.36
513.477	31163.77
513.679	31749.49
513.881	31706.48
514.084	32087.4
514.286	32075.12
514.488	32599.4
514.69	33185.11
514.893	33346.9
515.095	33072.48
515.297	33953.1
515.499	33799.51
515.701	33869.14
515.904	34731.33
516.106	34729.28
516.308	35388.73
516.51	35548.47
516.712	35499.32
516.914	35929.39
517.116	36177.2
517.318	36191.53
517.52	36349.23
517.722	36644.13
517.925	37209.37
518.127	37524.76
518.329	37694.74
518.531	37883.16
518.733	38370.57
518.935	38317.32
519.136	38245.65
519.338	38980.87
519.54	39288.06
519.742	39957.75
519.944	39734.52
520.146	40389.87
520.348	40441.07
520.55	40414.44
520.752	40774.89
520.954	41708.76
521.155	41405.66
521.357	41837.78
521.559	41897.17
521.761	43105.48
521.963	42413.26
522.164	42753.22
522.366	42906.82
522.568	42831.05
522.77	43701.43
522.971	44276.91
523.173	43617.47
523.375	44229.81
523.576	44428.46
523.778	44438.7
523.98	44754.09
524.181	44905.64
524.383	45335.71
524.584	45499.55
524.786	45515.93
524.988	45266.08
525.189	45882.52
525.391	46365.84
525.592	46154.9
525.794	46564.49
525.995	46711.95
526.197	47101.06
526.398	46695.56
526.6	47078.53
526.801	47518.85
527.003	47576.19
527.204	47520.9
527.406	47932.54
527.607	47838.33
527.808	47776.89
528.01	47699.07
528.211	47731.84
528.412	48741.49
528.614	48764.01
528.815	47998.07
529.016	48915.56
529.218	48217.21
529.419	48647.28
529.62	48342.13
529.822	48712.81
530.023	48725.1
530.224	48794.73
530.425	48962.67
530.626	48544.88
530.828	48454.77
531.029	49433.7
531.23	49103.98
531.431	48913.51
531.632	49433.7
531.833	49814.62
532.035	49460.32
532.236	49331.3
532.437	49677.41
532.638	49140.84
532.839	49386.6
533.04	49820.77
533.241	49097.83
533.442	49919.07
533.643	49650.78
533.844	49554.53
534.045	49677.41
534.246	49290.34
534.447	49648.74
534.648	49704.03
534.849	49878.11
535.05	49380.45
535.251	49747.04
535.451	49286.25
535.652	49206.37
535.853	49538.15
536.054	49552.48
536.255	49884.25
536.456	48852.08
536.657	50125.91
536.857	49327.2
537.058	49103.98
537.259	50119.77
537.46	49763.42
537.66	49613.92
537.861	49462.37
538.062	49302.63
538.263	49552.48
538.463	49577.06
538.664	49507.43
538.865	49933.4
539.065	49679.46
539.266	49169.51
539.466	50009.18
539.667	49294.44
539.868	49816.67
540.068	49775.71
540.269	49269.86
540.469	49370.21
540.67	49396.84
540.87	49251.43
541.071	49536.1
541.271	49622.11
541.472	49222.76
541.672	49362.02
541.873	48813.16
542.073	48667.76
542.274	49429.6
542.474	49222.76
542.675	48741.49
542.875	49237.09
543.075	49386.6
543.276	48737.39
543.476	49562.72
543.676	48841.84
543.877	49327.2
544.077	49108.07
544.277	49022.06
544.478	49036.39
544.678	49331.3
544.878	48864.36
545.078	48919.66
545.279	48452.72
545.479	48858.22
545.679	49271.91
545.879	48718.96
546.079	48706.67
546.28	48981.1
546.48	48555.12
546.68	48735.34
546.88	49106.02
547.08	48800.88
547.28	48389.23
547.48	48067.7
547.68	48721.01
547.88	48491.63
548.081	48985.19
548.281	48847.98
548.481	48252.02
548.681	48866.41
548.881	48573.55
549.081	48581.74
549.28	48690.29
549.48	48925.8
549.68	48571.5
549.88	48972.91
550.08	48495.73
550.28	48528.5
550.48	48925.8
550.68	48714.86
550.88	48499.83
551.08	48368.76
551.279	48350.32
551.479	48108.66
551.679	48311.41
551.879	48110.71
552.079	48602.22
552.278	48204.92
552.478	47842.43
552.678	48362.61
552.878	48209.01
553.077	48268.4
553.277	47697.02
553.477	48471.15
553.676	48116.86
553.876	48338.04
554.076	47991.93
554.275	48368.76
554.475	47158.41
554.674	48098.42
554.874	47764.6
555.074	47817.85
555.273	47912.06
555.473	48213.11
555.672	47553.66
555.872	47793.28
556.071	48014.46
556.271	47856.76
556.47	47766.65
556.67	47477.89
556.869	47330.44
557.068	47959.16
557.268	47445.12
557.467	47475.84
557.667	47510.66
557.866	47543.42
558.065	47346.82
558.265	46869.64
558.464	47527.04
558.663	47828.09
558.863	46670.99
559.062	47826.04
559.261	46879.88
559.461	47568
559.66	46814.35
559.859	47164.55
560.058	46976.14
560.258	47096.97
560.457	46904.46
560.656	47404.16
560.855	46857.35
561.054	46978.18
561.253	46421.14
561.453	46789.77
561.652	46879.88
561.851	46978.18
562.05	46173.33
562.249	46412.95
562.448	47137.93
562.647	46748.81
562.846	46007.45
563.045	46517.39
563.244	45520.03
563.443	46335.12
563.642	45397.15
563.841	45843.61
564.04	45550.75
564.239	46191.76
564.438	45859.99
564.637	45960.34
564.836	45870.23
565.035	45632.67
565.234	45675.68
565.432	45311.14
565.631	45337.76
565.83	45593.76
566.029	45184.16
566.228	45298.85
566.427	45077.67
566.625	45020.33
566.824	44463.28
567.023	45272.23
567.222	44465.33
567.42	45145.25
567.619	45063.33
567.818	44678.32
568.016	44905.64
568.215	45024.42
568.414	44577.97
568.612	44600.49
568.811	44438.7
569.01	44559.53
569.208	43877.56
569.407	44244.15
569.605	43603.13
569.804	44399.79
570.002	43656.38
570.201	43807.93
570.4	43101.38
570.598	43447.49
570.797	43340.99
570.995	43420.86
571.193	42906.82
571.392	43859.13
571.59	43226.31
571.789	43134.15
571.987	43001.03
572.186	43209.92
572.384	42810.57
572.582	43179.2
572.781	42986.69
572.979	42110.16
573.177	42962.12
573.376	42872.01
573.574	42532.04
573.772	42716.36
573.971	42267.86
574.169	42005.72
574.367	41858.26
574.565	42319.06
574.763	41979.09
574.962	41899.22
575.16	41733.34
575.358	42142.93
575.556	41501.92
575.754	42058.96
575.952	41487.58
576.151	41723.1
576.349	40615.15
576.547	41381.09
576.745	41327.84
576.943	41362.65
577.141	40934.63
577.339	40783.08
577.537	41022.69
577.735	40957.16
577.933	40699.11
578.131	40854.76
578.329	40565.99
578.527	40203.5
578.725	40330.48
578.923	40248.56
579.121	40277.23
579.319	39755
579.516	40606.95
579.714	40185.07
579.912	39982.32
580.11	39531.77
580.308	39597.31
580.506	39533.82
580.704	39341.31
580.901	39558.39
581.099	39509.24
581.297	39169.28
581.495	39349.5
581.692	38964.48
581.89	39027.97
582.088	39206.14
582.285	38571.27
582.483	39218.43
582.681	38597.9
582.878	38434.06
583.076	38157.58
583.274	38507.79
583.471	37997.84
583.669	38432.01
583.866	37829.91
584.064	38702.34
584.262	37772.56
584.459	38268.17
584.657	37827.86
584.854	38049.04
585.052	37072.16
585.249	37625.11
585.447	37305.63
585.644	37342.49
585.841	37264.67
586.039	37893.4
586.236	36609.32
586.434	36902.18
586.631	36936.99
586.828	36740.39
587.026	36846.88
587.223	36414.76
587.42	36539.69
587.618	36492.58
587.815	36001.07
588.012	36314.41
588.21	36324.65
588.407	36228.4
588.604	35980.59
588.801	35738.93
588.999	35861.81
589.196	35521.85
589.393	35988.78
589.59	35880.24
589.787	35110.21
589.984	35081.53
590.182	35265.85
590.379	35517.75
590.576	34639.17
590.773	35216.7
590.97	34714.95
591.167	34905.41
591.364	34641.22
591.561	34673.99
591.758	34372.94
591.955	34309.45
592.152	34487.62
592.349	34395.46
592.546	34370.89
592.743	34475.34
592.94	33682.77
593.137	34352.46
593.334	34264.39
593.531	33688.92
593.727	33844.56
593.924	33561.94
594.121	33295.71
594.318	33598.8
594.515	33129.82
594.712	33563.99
594.908	32941.41
595.105	32955.74
595.302	32898.4
595.499	33056.09
595.696	32925.02
595.892	32417.13
596.089	32785.76
596.286	32623.97
596.482	32415.08
596.679	32478.57
596.876	32286.06
597.072	31909.23
597.269	31833.46
597.466	31974.77
597.662	31882.61
597.859	32044.4
598.055	31575.41
598.252	31419.77
598.448	31513.97
598.645	31481.2
598.841	31356.28
599.038	31303.03
599.234	31356.28
599.431	30852.48
599.627	30940.54
599.824	31194.49
600.02	30934.4
600.217	31153.53
600.413	30842.24
600.609	30621.06
600.806	30750.08
601.002	30619.01
601.198	30240.14
601.395	30004.62
601.591	30053.77
601.787	30113.16
601.984	29982.09
602.18	30049.67
602.376	29521.3
602.572	29396.37
602.769	29799.82
602.965	29359.51
603.161	29734.29
603.357	29228.44
603.553	29205.91
603.75	29386.13
603.946	29021.59
604.142	29402.52
604.338	28786.08
604.534	28892.57
604.73	28636.58
604.926	28622.24
605.122	28628.38
605.318	28208.55
605.514	28257.7
605.71	28020.14
605.906	28573.09
606.102	28253.61
606.298	28151.21
606.494	28190.12
606.69	28171.69
606.886	28380.58
607.082	27993.51
607.278	28030.38
607.474	27557.3
607.67	27698.61
607.866	27252.15
608.062	27805.1
608.257	27467.19
608.453	27258.29
608.649	27745.71
608.845	27377.08
609.041	27182.52
609.236	27526.58
609.432	27039.16
609.628	27381.17
609.824	27385.27
610.019	26955.19
610.215	26736.06
610.411	27100.6
610.606	26666.43
610.802	26875.32
610.998	26940.86
611.193	27067.83
611.389	26705.34
611.584	26836.41
611.78	26287.56
611.976	26641.85
612.171	26254.79
612.367	26361.28
612.562	26262.98
612.758	26054.09
612.953	26588.61
613.149	26598.85
613.344	25943.5
613.539	26449.35
613.735	26289.6
613.93	26138.05
614.126	25873.87
614.321	26293.7
614.517	25900.49
614.712	25880.01
614.907	25732.56
615.103	26086.86
615.298	25464.27
615.493	26279.36
615.688	25140.69
615.884	25615.82
616.079	25443.79
616.274	25720.27
616.47	25714.12
616.665	25484.75
616.86	25517.52
617.055	25150.93
617.25	25226.71
617.445	25480.66
617.641	24864.22
617.836	25214.42
618.031	24530.4
618.226	25191.89
618.421	24810.97
618.616	24980.95
618.811	24419.81
619.006	24669.66
619.201	24217.06
619.396	24462.82
619.591	24172
619.786	24671.71
619.981	23924.2
620.176	24280.55
620.371	23799.27
620.566	23862.76
620.761	23895.53
620.956	23973.35
621.151	23236.08
621.346	23608.81
621.541	23236.08
621.735	23477.74
621.93	22818.3
622.125	23318
622.32	22509.05
622.515	22767.1
622.709	22750.71
622.904	22658.56
623.099	22496.77
623.294	22507.01
623.488	22228.48
623.683	22083.08
623.878	21902.86
624.072	21892.62
624.267	21968.39
624.462	21802.5
624.656	21618.19
624.851	21564.94
625.046	21169.68
625.24	21474.83
625.435	21239.31
625.629	21184.02
625.824	20911.64
626.018	20878.87
626.213	20454.94
626.407	20612.63
626.602	20543
626.796	20444.7
626.991	20289.06
627.185	20192.8
627.38	19981.86
627.574	19766.82
627.768	19805.74
627.963	19746.34
628.157	19318.32
628.352	19705.38
628.546	19258.93
628.74	19703.34
628.935	19150.39
629.129	19136.05
629.323	18939.44
629.517	18972.21
629.712	18812.47
629.906	18789.94
630.1	18587.19
630.294	18878.01
630.489	18671.16
630.683	18695.74
630.877	18316.86
631.071	17909.32
631.265	18148.93
631.459	18101.83
631.653	18017.86
631.848	17837.64
632.042	17733.19
632.236	17600.07
632.43	17428.04
632.624	17677.9
632.818	17190.48
633.012	17294.93
633.206	17208.91
633.4	16959.06
633.594	16680.53
633.788	16926.29
633.982	17002.07
634.176	16813.65
634.369	16500.31
634.563	16666.2
634.757	16610.9
634.951	16547.42
635.145	16303.71
635.339	16471.64
635.533	16211.55
635.726	16281.18
635.92	15918.69
636.114	15867.49
636.308	16053.86
636.501	15488.62
636.695	15720.04
636.889	15816.29
637.083	15595.11
637.276	15476.33
637.47	15367.79
637.664	15429.23
637.857	15232.62
638.051	15162.99
638.244	14886.51
638.438	15126.13
638.632	15091.31
638.825	14640.76
639.019	14882.42
639.212	14544.5
639.406	14741.11
639.599	14661.24
639.793	14601.85
639.986	14161.53
640.18	14345.85
640.373	14347.9
640.567	13995.65
640.76	14114.43
640.954	14093.95
641.147	13971.07
641.34	13973.12
641.534	13825.67
641.727	13813.38
641.92	13751.94
642.114	13805.19
642.307	13602.44
642.5	13436.55
642.694	13115.02
642.887	13309.58
643.08	13282.95
643.273	13162.12
643.467	13295.24
643.66	13057.68
643.853	13145.74
644.046	13065.87
644.239	12881.55
644.432	12928.66
644.626	12805.78
644.819	12723.86
645.012	12873.36
645.205	12478.1
645.398	12658.32
645.591	12529.3
645.784	12381.85
645.977	12412.57
646.17	12215.96
646.363	12132
646.556	12123.8
646.749	12084.89
646.942	12242.59
647.135	11951.77
647.328	12045.98
647.521	11835.04
647.714	11681.44
647.907	11718.31
648.099	11667.11
648.292	11628.2
648.485	11673.25
648.678	11325.1
648.871	11357.86
649.064	11368.1
649.256	11417.26
649.449	11337.38
649.642	11058.86
649.835	11087.53
650.027	11167.4
650.22	11124.4
650.413	10882.74
650.605	10925.74
650.798	10888.88
650.991	10708.66
651.183	10854.06
651.376	10481.33
651.568	10501.81
651.761	10653.36
651.954	10596.02
652.146	10475.19
652.339	10366.65
652.531	10276.54
652.724	10178.23
652.916	10239.67
653.109	10153.66
653.301	10217.15
653.494	10305.21
653.686	9791.17
653.879	10151.61
654.071	9928.38
654.263	9883.33
654.456	9838.27
654.648	9946.81
654.84	9469.64
655.033	9623.23
655.225	9666.24
655.417	9699.01
655.61	9762.5
655.802	9592.51
655.994	9443.01
656.186	9340.61
656.379	9242.31
656.571	9227.98
656.763	9203.4
656.955	9019.08
657.148	9219.78
657.34	9207.5
657.532	9027.28
657.724	8904.4
657.916	8943.31
658.108	8814.29
658.3	8785.62
658.492	8953.55
658.684	8867.53
658.876	8763.09
659.068	8908.49
659.26	8396.5
659.452	8507.09
659.644	8564.43
659.836	8623.83
660.028	8601.3
660.22	8324.82
660.412	8269.53
660.604	8216.28
660.796	8513.24
660.988	8369.88
661.18	8034.01
661.372	7864.03
661.563	8101.59
661.755	8333.01
661.947	8189.66
662.139	8015.58
662.331	7984.86
662.522	7915.23
662.714	7880.41
662.906	7864.03
663.097	7640.8
663.289	7780.06
663.481	7724.77
663.673	7601.89
663.864	7407.33
664.056	7552.74
664.247	7479.01
664.439	7536.35
664.631	7567.07
664.822	7505.63
665.014	7433.96
665.205	7409.38
665.397	7243.49
665.588	7284.45
665.78	7257.83
665.971	7317.22
666.163	7237.35
666.354	7188.2
666.546	7118.57
666.737	6881
666.929	7126.76
667.12	7184.1
667.311	6901.48
667.503	6928.11
667.694	6987.5
667.885	6717.17
668.077	6842.09
668.268	6737.65
668.459	6708.97
668.651	6768.37
668.842	6657.78
669.033	6835.95
669.224	6631.15
669.416	6702.83
669.607	6670.06
669.798	6520.56
669.989	6751.98
670.18	6598.38
670.371	6577.9
670.563	6364.92
670.754	6569.71
670.945	6457.07
671.136	6412.02
671.327	6219.51
671.518	6305.53
671.709	6342.39
671.9	6299.38
672.091	6293.24
672.282	6178.55
672.473	6037.24
672.664	6147.83
672.855	6076.15
673.046	6137.59
673.237	6219.51
673.428	6070.01
673.619	6000.38
673.809	5932.79
674	5826.3
674.191	5877.5
674.382	5938.94
674.573	5940.99
674.764	5891.84
674.954	5889.79
675.145	5897.98
675.336	5818.11
675.527	5832.44
675.717	5844.73
675.908	5635.84
676.099	5816.06
676.289	5734.14
676.48	5785.34
676.671	5558.02
676.861	5732.09
677.052	5447.43
677.243	5390.08
677.433	5592.83
677.624	5568.26
677.814	5545.73
678.005	5472
678.195	5455.62
678.386	5478.15
678.576	5457.67
678.767	5275.4
678.957	5453.57
679.148	5431.04
679.338	5373.7
679.529	5320.45
679.719	5357.32
679.909	5400.32
680.1	5242.63
680.29	5275.4
680.481	5349.12
680.671	5324.55
680.861	5392.13
681.052	5353.22
681.242	5082.89
681.432	5256.97
681.622	5005.06
681.813	5148.42
682.003	5117.7
682.193	5046.02
682.383	5144.33
682.573	4919.05
682.764	5019.4
682.954	4955.91
683.144	5209.86
683.334	4931.34
683.524	5117.7
683.714	5013.26
683.904	5048.07
684.094	5064.46
684.284	4830.99
684.474	5136.13
684.664	4951.82
684.854	4826.89
685.044	4835.08
685.234	4607.76
685.424	4794.12
685.614	4833.04
685.804	4759.31
685.994	4792.08
686.184	4835.08
686.374	4816.65
686.564	4794.12
686.753	4667.15
686.943	4687.63
687.133	4796.17
687.323	4626.19
687.513	4611.85
687.702	4550.42
687.892	4529.94
688.082	4540.18
688.272	4601.62
688.461	4644.62
688.651	4464.4
688.841	4445.97
689.03	4464.4
689.22	4343.57
689.41	4423.44
689.599	4531.98
689.789	4333.33
689.979	4378.39
690.168	4198.17
690.358	4366.1
690.547	4259.6
690.737	4425.49
690.926	4333.33
691.116	4218.64
691.305	4259.6
691.495	4224.79
691.684	4198.17
691.874	4308.76
692.063	4192.02
692.252	3983.13
692.442	4194.07
692.631	4028.18
692.82	4087.57
693.01	4024.09
693.199	4063
693.388	4028.18
693.578	4005.66
693.767	3933.98
693.956	3956.5
694.146	3827.48
694.335	4046.62
694.524	3895.07
694.713	3993.37
694.902	3952.41
695.092	3931.93
695.281	3895.07
695.47	3804.96
695.659	3780.38
695.848	3700.51
696.037	3819.29
696.226	3731.23
696.415	3731.23
696.604	3757.85
696.793	3825.43
696.982	3665.69
697.171	3786.52
697.36	3643.17
697.549	3669.79
697.738	3696.41
697.927	3583.77
698.116	3708.7
698.305	3737.37
698.494	3637.02
698.683	3546.91
698.872	3653.41
699.061	3649.31
699.25	3557.15
699.438	3624.73
699.627	3551.01
699.816	3696.41
700.005	3598.11
700.193	3530.53
700.382	3485.47
700.571	3487.52
700.76	3551.01
700.948	3497.76
701.137	3458.85
701.326	3546.91
701.514	3464.99
701.703	3499.81
701.892	3409.7
702.08	3485.47
702.269	3297.06
702.457	3229.48
702.646	3335.97
702.834	3344.16
703.023	3471.14
703.212	3399.46
703.4	3276.58
703.589	3307.3
703.777	3317.54
703.965	3305.25
704.154	3376.93
704.342	3350.31
704.531	3276.58
704.719	3309.35
704.907	3204.9
705.096	3383.07
705.284	3292.96
705.472	3389.22
705.661	3403.55
705.849	3352.35
706.037	3274.53
706.226	3254.05
706.414	3268.39
706.602	3192.61
706.79	3194.66
706.979	3200.8
707.167	3188.52
707.355	3311.39
707.543	3184.42
707.731	3190.56
707.919	3147.56
708.107	3114.79
708.296	3204.9
708.484	2936.62
708.672	3131.17
708.86	3030.82
709.048	3252
709.236	3127.08
709.424	3174.18
709.612	3071.78
709.8	3039.01
709.988	3217.19
710.176	3122.98
710.364	3114.79
710.551	3114.79
710.739	3174.18
710.927	3030.82
711.115	3071.78
711.303	2977.58
711.491	3137.32
711.679	2981.67
711.866	3024.68
712.054	3163.94
712.242	2973.48
712.43	3092.26
712.617	3051.3
712.805	3016.49
712.993	3047.21
713.181	2862.89
713.368	2940.71
713.556	2957.1
713.744	2891.56
713.931	2934.57
714.119	2926.38
714.306	3030.82
714.494	2834.22
714.682	2932.52
714.869	2869.03
715.057	3055.4
715.244	2836.27
715.432	3051.3
715.619	2875.18
715.807	2977.58
715.994	2916.14
716.182	2828.07
716.369	2924.33
716.556	2998.06
716.744	2834.22
716.931	2828.07
717.119	2877.23
717.306	2938.66
717.493	2889.51
717.681	2793.26
717.868	2834.22
718.055	2858.79
718.242	2885.42
718.43	2830.12
718.617	2891.56
718.804	2809.64
718.991	2709.29
719.179	2809.64
719.366	2807.59
719.553	2805.55
719.74	2891.56
719.927	2709.29
720.114	2766.64
720.301	2823.98
720.488	2721.58
720.676	2866.99
720.863	2875.18
721.05	2873.13
721.237	2674.48
721.424	2809.64
721.611	2797.35
721.798	2608.94
721.985	2760.49
722.172	2662.19
722.358	2756.4
722.545	2625.33
722.732	2688.81
722.919	2551.6
723.106	2717.48
723.293	2588.46
723.48	2643.76
723.667	2656.04
723.853	2727.72
724.04	2703.15
724.227	2785.07
724.414	2715.44
724.6	2746.16
724.787	2570.03
724.974	2651.95
725.161	2584.37
725.347	2731.82
725.534	2742.06
725.72	2522.93
725.907	2633.52
726.094	2649.9
726.28	2719.53
726.467	2567.98
726.653	2672.43
726.84	2627.37
727.027	2608.94
727.213	2621.23
727.4	2604.85
727.586	2688.81
727.773	2524.97
727.959	2598.7
728.145	2629.42
728.332	2574.13
728.518	2537.26
728.705	2494.26
728.891	2664.24
729.077	2430.77
729.264	2555.69
729.45	2590.51
729.636	2512.69
729.823	2457.39
730.009	2565.93
730.195	2496.3
730.382	2457.39
730.568	2596.65
730.754	2512.69
730.94	2600.75
731.126	2465.58
731.313	2533.17
731.499	2441.01
731.685	2508.59
731.871	2580.27
732.057	2443.06
732.243	2490.16
732.429	2445.1
732.615	2420.53
732.801	2451.25
732.987	2387.76
733.173	2441.01
733.359	2402.1
733.545	2490.16
733.731	2400.05
733.917	2582.32
734.103	2467.63
734.289	2492.21
734.475	2445.1
734.661	2486.06
734.847	2441.01
735.033	2400.05
735.219	2586.41
735.404	2492.21
735.59	2463.54
735.776	2395.95
735.962	2484.02
736.148	2496.3
736.333	2400.05
736.519	2373.43
736.705	2412.34
736.89	2260.79
737.076	2367.28
737.262	2367.28
737.447	2283.31
737.633	2400.05
737.819	2404.14
738.004	2332.47
738.19	2334.51
738.375	2295.6
738.561	2320.18
738.747	2305.84
738.932	2281.27
739.118	2449.2
739.303	2314.03
739.489	2283.31
739.674	2238.26
739.859	2154.29
740.045	2338.61
740.23	2195.25
740.416	2311.99
740.601	2311.99
740.786	2240.31
740.972	2189.11
741.157	2170.68
741.342	2146.1
741.528	2131.76
741.713	2234.16
741.898	2213.68
742.084	2228.02
742.269	2219.83
742.454	2234.16
742.639	2367.28
742.824	2139.96
743.01	2133.81
743.195	2164.53
743.38	2080.57
743.565	2074.42
743.75	2162.48
743.935	2113.33
744.12	2107.19
744.305	2107.19
744.49	2074.42
744.675	2002.74
744.86	2033.46
745.045	2029.37
745.23	1976.12
745.415	2055.99
745.6	1978.17
745.785	1883.96
745.97	1871.67
746.155	1951.54
746.34	1974.07
746.525	1959.74
746.71	1961.78
746.895	2021.17
747.079	1924.92
747.264	1820.47
747.449	1965.88
747.634	1793.85
747.819	1883.96
748.003	1863.48
748.188	1869.62
748.373	1834.81
748.557	1908.54
748.742	1730.36
748.927	1787.71
749.111	1810.23
749.296	1802.04
749.481	1701.69
749.665	1746.75
749.85	1789.75
750.034	1730.36
750.219	1668.92
750.404	1646.4
750.588	1652.54
750.773	1695.55
750.957	1705.79
751.141	1705.79
751.326	1537.85
751.51	1611.58
751.695	1654.59
751.879	1621.82
752.064	1615.68
752.248	1523.52
752.432	1664.83
752.617	1523.52
752.801	1507.13
752.985	1576.77
753.17	1400.64
753.354	1537.85
753.538	1455.94
753.722	1433.41
753.907	1544
754.091	1400.64
754.275	1496.89
754.459	1474.37
754.643	1380.16
754.828	1556.29
755.012	1439.55
755.196	1392.45
755.38	1486.65
755.564	1457.98
755.748	1400.64
755.932	1406.78
756.116	1421.12
756.3	1288
756.484	1392.45
756.668	1363.78
756.852	1285.95
757.036	1279.81
757.22	1279.81
757.404	1302.34
757.588	1224.51
757.772	1306.43
757.956	1249.09
758.14	1259.33
758.323	1294.15
758.507	1343.3
758.691	1298.24
758.875	1265.47
759.059	1230.66
759.242	1226.56
759.426	1195.84
759.61	1144.64
759.794	1156.93
759.977	1191.75
760.161	1201.99
760.345	1335.1
760.528	1146.69
760.712	1085.25
760.895	1140.55
761.079	1050.44
761.263	1124.16
761.446	1068.87
761.63	1107.78
761.813	1122.12
761.997	1146.69
762.18	1081.16
762.364	1126.21
762.547	1032.01
762.731	1040.2
762.914	1150.79
763.098	1058.63
763.281	1081.16
763.464	1040.2
763.648	1029.96
763.831	1042.25
764.015	1001.29
764.198	1009.48
764.381	1070.92
764.564	1001.29
764.748	1034.05
764.931	1089.35
765.114	999.24
765.297	1056.58
765.481	945.99
765.664	911.18
765.847	1021.77
766.03	945.99
766.213	843.59
766.397	911.18
766.58	1048.39
766.763	999.24
766.946	954.18
767.129	978.76
767.312	970.57
767.495	950.09
767.678	900.94
767.861	925.51
768.044	925.51
768.227	911.18
768.41	1017.67
768.593	929.61
768.776	925.51
768.959	982.85
769.142	929.61
769.324	945.99
769.507	878.41
769.69	898.89
769.873	857.93
770.056	974.66
770.239	800.59
770.421	913.22
770.604	878.41
770.787	937.8
770.97	845.64
771.152	769.87
771.335	925.51
771.518	798.54
771.7	868.17
771.883	882.5
772.066	868.17
772.248	855.88
772.431	831.3
772.613	884.55
772.796	876.36
772.978	837.45
773.161	792.39
773.343	753.48
773.526	800.59
773.708	649.04
773.891	804.68
774.073	851.78
774.256	810.82
774.438	802.63
774.621	765.77
774.803	659.28
774.985	673.61
775.168	823.11
775.35	714.57
775.532	757.58
775.715	728.91
775.897	794.44
776.079	712.52
776.261	714.57
776.444	653.13
776.626	597.84
776.808	626.51
776.99	657.23
777.173	730.95
777.355	646.99
777.537	700.23
777.719	642.89
777.901	712.52
778.083	651.08
778.265	651.08
778.447	712.52
778.629	597.84
778.811	630.6
778.993	614.22
779.175	673.61
779.357	638.8
779.539	540.49
779.721	634.7
779.903	651.08
780.085	608.08
780.267	606.03
780.449	569.16
780.631	728.91
780.812	583.5
780.994	587.6
781.176	526.16
781.358	503.63
781.54	526.16
781.721	540.49
781.903	526.16
782.085	454.48
782.267	491.34
782.448	489.29
782.63	507.73
782.812	427.85
782.993	493.39
783.175	567.12
783.357	460.62
783.538	524.11
783.72	452.43
783.901	532.3
784.083	538.45
784.264	468.81
784.446	395.09
784.627	442.19
784.809	540.49
784.99	421.71
785.172	499.53
785.353	417.61
785.535	485.2
785.716	450.38
785.897	333.65
786.079	483.15
786.26	464.72
786.441	444.24
786.623	360.27
786.804	470.86
786.985	438.09
787.167	450.38
787.348	319.31
787.529	393.04
787.71	528.21
787.891	417.61
788.073	450.38
788.254	356.18
788.435	440.14
788.616	390.99
788.797	360.27
788.978	438.09
789.159	284.5
789.34	378.7
789.522	376.66
789.703	329.55
789.884	419.66
790.065	331.6
790.246	438.09
790.427	347.98
790.607	477.01
790.788	409.42
790.969	315.22
791.15	302.93
791.331	274.26
791.512	405.33
791.693	276.31
791.874	362.32
792.054	362.32
792.235	409.42
792.416	311.12
792.597	388.94
792.778	335.7
792.958	302.93
793.139	362.32
793.32	288.59
793.5	276.31
793.681	311.12
793.862	319.31
794.042	419.66
794.223	231.25
794.404	264.02
794.584	257.87
794.765	343.89
794.945	261.97
795.126	276.31
795.306	313.17
795.487	280.4
795.667	278.35
795.848	241.49
796.028	278.35
796.209	362.32
796.389	325.46
796.57	280.4
796.75	233.3
796.93	300.88
797.111	296.78
797.291	294.74
797.471	249.68
797.652	259.92
797.832	276.31
798.012	272.21
798.192	243.54
798.373	200.53
798.553	264.02
798.733	253.78
798.913	175.95
799.093	302.93
799.274	253.78
799.454	257.87
799.634	298.83
799.814	282.45
799.994	204.63
800.174	251.73
800.354	235.35
800.534	186.19
800.714	298.83
800.894	204.63
801.074	216.91
801.254	184.15
801.434	296.78
801.614	165.71
801.794	233.3
801.974	810.82
802.154	204.63
802.334	286.54
802.514	231.25
802.693	249.68
802.873	247.63
803.053	239.44
803.233	173.91
803.413	253.78
803.592	184.15
803.772	255.83
803.952	221.01
804.131	143.19
804.311	192.34
804.491	270.16
804.67	243.54
804.85	188.24
805.03	190.29
805.209	210.77
805.389	196.43
805.568	245.59
805.748	196.43
805.928	196.43
806.107	233.3
806.287	128.85
806.466	245.59
806.646	239.44
806.825	229.2
807.004	208.72
807.184	208.72
807.363	229.2
807.543	137.04
807.722	141.14
807.901	257.87
808.081	198.48
808.26	143.19
808.439	212.82
808.619	157.52
808.798	198.48
808.977	155.47
809.156	196.43
809.336	151.38
809.515	186.19
809.694	171.86
809.873	180.05
810.052	212.82
810.231	214.87
810.411	261.97
810.59	163.67
810.769	106.32
810.948	171.86
811.127	126.8
811.306	124.76
811.485	139.09
811.664	116.56
811.843	192.34
812.022	194.39
812.201	135
812.38	214.87
812.559	143.19
812.737	182.1
812.916	114.52
813.095	98.13
813.274	114.52
813.453	171.86
813.632	184.15
813.811	171.86
813.989	108.37
814.168	106.32
814.347	169.81
814.526	135
814.704	120.66
814.883	173.91
815.062	130.9
815.24	112.47
815.419	157.52
815.598	147.28
815.776	163.67
815.955	130.9
816.133	139.09
816.312	81.75
816.49	155.47
816.669	196.43
816.847	139.09
817.026	171.86
817.204	147.28
817.383	147.28
817.561	149.33
817.74	214.87
817.918	40.79
818.097	94.04
818.275	147.28
818.453	118.61
818.632	65.36
818.81	16.21
818.988	89.94
819.167	116.56
819.345	130.9
819.523	65.36
819.701	147.28
819.879	81.75
820.058	147.28
820.236	124.76
820.414	147.28
820.592	116.56
820.77	98.13
820.948	108.37
821.127	126.8
821.305	188.24
821.483	141.14
821.661	171.86
821.839	216.91
822.017	100.18
822.195	85.84
822.373	83.8
822.551	69.46
822.729	59.22
822.907	130.9
823.085	122.71
823.262	65.36
823.44	147.28
823.618	61.27
823.796	180.05
823.974	81.75
824.152	106.32
824.329	81.75
824.507	126.8
824.685	102.23
824.863	104.28
825.04	102.23
825.218	65.36
825.396	65.36
825.574	114.52
825.751	87.89
825.929	159.57
826.107	26.45
826.284	122.71
826.462	182.1
826.639	104.28
826.817	61.27
826.994	114.52
827.172	81.75
827.349	169.81
827.527	98.13
827.704	106.32
827.882	139.09
828.059	116.56
828.237	16.21
828.414	77.65
828.591	8.02
828.769	188.24
828.946	122.71
829.124	69.46
829.301	135
829.478	77.65
829.655	44.88
829.833	135
830.01	32.6
830.187	139.09
830.364	120.66
830.542	81.75
830.719	69.46
830.896	102.23
831.073	108.37
831.25	89.94
831.427	20.31
831.604	77.65
831.782	98.13
831.959	32.6
832.136	8.02
832.313	110.42
832.49	44.88
832.667	151.38
832.844	57.17
833.021	106.32
833.198	32.6
833.374	67.41
833.551	67.41
833.728	104.28
833.905	94.04
834.082	8.02
834.259	151.38
834.436	83.8
834.612	28.5
834.789	114.52
834.966	75.6
835.143	120.66
835.319	61.27
835.496	67.41
835.673	104.28
835.85	94.04
836.026	8.02
836.203	98.13
836.38	-14.51
836.556	69.46
836.733	73.56
836.909	102.23
837.086	108.37
837.262	57.17
837.439	69.46
837.616	61.27
837.792	57.17
837.968	38.74
838.145	34.64
838.321	32.6
838.498	-57.51
838.674	1.88
838.851	65.36
839.027	67.41
839.203	42.84
839.38	57.17
839.556	57.17
839.732	100.18
839.909	10.07
840.085	87.89
840.261	26.45
840.437	65.36
840.614	22.36
840.79	89.94
840.966	57.17
841.142	42.84
841.318	81.75
841.494	34.64
841.671	114.52
841.847	42.84
842.023	16.21
842.199	57.17
842.375	69.46
842.551	20.31
842.727	18.26
842.903	163.67
843.079	67.41
843.255	83.8
843.431	3.93
843.607	89.94
843.783	34.64
843.959	57.17
844.134	32.6
844.31	118.61
844.486	-0.17
844.662	20.31
844.838	3.93
845.013	106.32
845.189	44.88
845.365	79.7
845.541	44.88
845.716	48.98
845.892	40.79
846.068	40.79
846.244	-4.27
846.419	57.17
846.595	-0.17
846.77	48.98
846.946	22.36
847.122	10.07
847.297	-8.36
847.473	32.6
847.648	16.21
847.824	57.17
847.999	16.21
848.175	26.45
848.35	-32.94
848.526	42.84
848.701	59.22
848.876	42.84
849.052	51.03
849.227	44.88
849.403	18.26
849.578	89.94
849.753	34.64
849.929	53.08
850.104	-47.27
850.279	139.09
850.454	-8.36
850.63	55.12
850.805	89.94
850.98	46.93
851.155	24.4
851.33	85.84
851.505	61.27
851.681	106.32
851.856	34.64
852.031	48.98
852.206	22.36
852.381	26.45
852.556	-47.27
852.731	20.31
852.906	71.51
853.081	40.79
853.256	91.99
853.431	16.21
853.606	40.79
853.781	-4.27
853.956	-32.94
854.131	34.64
854.305	22.36
854.48	-8.36
854.655	12.12
854.83	65.36
855.005	-8.36
855.18	61.27
855.354	-0.17
855.529	32.6
855.704	48.98
855.879	3.93
856.053	-49.32
856.228	77.65
856.403	20.31
856.577	75.6
856.752	-12.46
856.926	53.08
857.101	65.36
857.276	20.31
857.45	-37.03
857.625	-4.27
857.799	48.98
857.974	28.5
858.148	32.6
858.323	73.56
858.497	-6.31
858.672	3.93
858.846	-41.13
859.02	65.36
859.195	3.93
859.369	65.36
859.543	-2.22
859.718	24.4
859.892	16.21
860.066	48.98
860.241	18.26
860.415	1.88
860.589	-32.94
860.763	24.4
860.938	67.41
861.112	83.8
861.286	69.46
861.46	44.88
861.634	48.98
861.808	34.64
861.982	-8.36
862.157	1.88
862.331	48.98
862.505	65.36
862.679	-10.41
862.853	-10.41
863.027	18.26
863.201	65.36
863.375	-8.36
863.549	65.36
863.722	10.07
863.896	100.18
864.07	-30.89
864.244	32.6
864.418	57.17
864.592	75.6
864.766	28.5
864.939	3.93
865.113	-14.51
865.287	100.18
865.461	-6.31
865.634	53.08
865.808	12.12
865.982	5.97
866.156	-6.31
866.329	-0.17
866.503	10.07
866.676	48.98
866.85	32.6
867.024	-2.22
867.197	-2.22
867.371	8.02
867.544	18.26
867.718	-59.56
867.891	32.6
868.065	-39.08
868.238	28.5
868.412	24.4
868.585	-18.6
868.759	-47.27
868.932	-10.41
869.105	57.17
869.279	16.21
869.452	-22.7
869.625	48.98
869.799	-8.36
869.972	-53.42
870.145	-34.99
870.319	-22.7
870.492	42.84
870.665	-39.08
870.838	-12.46
871.011	-45.23
871.185	-12.46
871.358	-6.31
871.531	40.79
871.704	36.69
871.877	48.98
872.05	3.93
872.223	36.69
872.396	26.45
872.569	14.17
872.742	14.17
872.915	1.88
873.088	-0.17
873.261	14.17
873.434	65.36
873.607	57.17
873.78	44.88
873.953	-47.27
874.126	-45.23
874.299	81.75
874.471	71.51
874.644	83.8
874.817	34.64
874.99	44.88
875.163	16.21
875.335	8.02
875.508	40.79
875.681	20.31
875.853	22.36
876.026	34.64
876.199	34.64
876.371	75.6
876.544	3.93
876.717	38.74
876.889	-6.31
877.062	22.36
877.234	-63.66
877.407	-0.17
877.579	-20.65
877.752	-14.51
877.924	40.79
878.097	-20.65
878.269	16.21
878.442	-22.7
878.614	10.07
878.786	34.64
878.959	10.07
879.131	-0.17
879.303	-24.75
879.476	-0.17
879.648	28.5
879.82	-0.17
879.993	-41.13
880.165	-98.47
880.337	-0.17
880.509	1.88
880.681	-43.18
880.854	-69.8
881.026	65.36
881.198	-49.32
881.37	-30.89
881.542	-8.36
881.714	-51.37
881.886	32.6
882.058	-16.55
882.23	1.88
882.402	65.36
882.574	34.64
882.746	8.02
882.918	8.02
883.09	26.45
883.262	-34.99
883.434	-51.37
883.606	-10.41
883.778	-32.94
883.95	65.36
884.122	-73.9
884.293	-12.46
884.465	32.6
884.637	8.02
884.809	24.4
884.98	53.08
885.152	48.98
885.324	10.07
885.496	-30.89
885.667	-22.7
885.839	-30.89
886.011	57.17
886.182	-20.65
886.354	-8.36
886.525	-0.17
886.697	26.45
886.869	3.93
887.04	24.4
887.212	44.88
887.383	94.04
887.555	12.12
887.726	57.17
887.897	10.07
888.069	-8.36
888.24	-0.17
888.412	81.75
888.583	-30.89
888.754	-43.18
888.926	16.21
889.097	-0.17
889.268	-45.23
889.44	-39.08
889.611	-55.47
889.782	-8.36
889.953	-47.27
890.125	65.36
890.296	-14.51
890.467	-16.55
890.638	24.4
890.809	48.98
890.98	22.36
891.151	10.07
891.323	-32.94
891.494	-32.94
891.665	-0.17
891.836	26.45
892.007	14.17
892.178	36.69
892.349	71.51
892.52	-12.46
892.691	-47.27
892.862	12.12
893.032	63.32
893.203	-18.6
893.374	-51.37
893.545	-8.36
893.716	1.88
893.887	-28.84
894.057	38.74
894.228	-20.65
894.399	20.31
894.57	-73.9
894.74	8.02
894.911	26.45
895.082	8.02
895.253	-4.27
895.423	3.93
895.594	18.26
895.764	44.88
895.935	5.97
896.106	-10.41
896.276	22.36
896.447	-32.94
896.617	12.12
896.788	18.26
896.958	-55.47
897.129	-8.36
897.299	-0.17
897.47	16.21
897.64	18.26
897.81	10.07
897.981	8.02
898.151	-32.94
898.322	89.94
898.492	-14.51
898.662	22.36
898.832	28.5
899.003	24.4
899.173	-28.84
899.343	-118.95
899.513	-65.71
