Data from USB4F104151__35__14-16-39-271.txt Node

Date: Thu Mar 13 14:16:39 EDT 2025
User: louis
Spectrometer: USB4F10415
Trigger mode: 4
Integration Time (sec): 2.000000E-2
Scans to average: 1
Electric dark correction enabled: true
Nonlinearity correction enabled: false
Boxcar width: 0
XAxis mode: Wavelengths
Number of Pixels in Spectrum: 3648
>>>>>Begin Spectral Data<<<<<
178.204	-117.93
178.424	-117.93
178.644	-117.93
178.864	-142.5
179.084	-117.93
179.304	54.1
179.524	-5.29
179.744	-11.43
179.964	15.19
180.184	4.95
180.404	-9.39
180.624	-44.2
180.844	4.95
181.064	-46.25
181.283	19.29
181.503	-27.82
181.723	45.91
181.943	-130.22
182.163	78.68
182.383	78.68
182.602	21.33
182.822	17.24
183.042	37.72
183.262	41.81
183.482	-3.24
183.701	-7.34
183.921	-5.29
184.141	4.95
184.361	74.58
184.58	105.3
184.8	43.86
185.02	103.25
185.239	115.54
185.459	45.91
185.679	62.29
185.898	-56.49
186.118	45.91
186.338	58.2
186.557	45.91
186.777	-60.59
186.997	23.38
187.216	23.38
187.436	60.24
187.655	41.81
187.875	31.57
188.095	-7.34
188.314	19.29
188.534	23.38
188.753	64.34
188.973	21.33
189.192	13.14
189.412	-7.34
189.631	21.33
189.851	-21.67
190.07	111.44
190.29	-38.06
190.509	11.09
190.729	86.87
190.948	-11.43
191.168	45.91
191.387	7
191.607	29.52
191.826	0.85
192.045	-15.53
192.265	39.76
192.484	29.52
192.704	7
192.923	-19.63
193.142	103.25
193.362	70.48
193.581	29.52
193.8	11.09
194.02	74.58
194.239	7
194.458	58.2
194.678	50
194.897	62.29
195.116	31.57
195.335	0.85
195.555	62.29
195.774	-17.58
195.993	-91.31
196.212	33.62
196.432	25.43
196.651	-19.63
196.87	-3.24
197.089	84.82
197.308	82.77
197.528	43.86
197.747	-36.01
197.966	-5.29
198.185	39.76
198.404	72.53
198.623	37.72
198.842	15.19
199.062	54.1
199.281	68.44
199.5	25.43
199.719	64.34
199.938	105.3
200.157	78.68
200.376	-9.39
200.595	17.24
200.814	-3.24
201.033	-11.43
201.252	74.58
201.471	27.48
201.69	54.1
201.909	62.29
202.128	-50.35
202.347	37.72
202.566	60.24
202.785	33.62
203.004	-9.39
203.223	37.72
203.442	-38.06
203.661	-44.2
203.879	95.06
204.098	2.9
204.317	9.05
204.536	99.16
204.755	23.38
204.974	33.62
205.193	2.9
205.411	86.87
205.63	62.29
205.849	64.34
206.068	54.1
206.287	29.52
206.505	103.25
206.724	45.91
206.943	-27.82
207.162	-31.91
207.381	-19.63
207.599	-40.11
207.818	33.62
208.037	56.15
208.255	64.34
208.474	33.62
208.693	68.44
208.911	-7.34
209.13	37.72
209.349	66.39
209.567	86.87
209.786	162.64
210.005	29.52
210.223	74.58
210.442	9.05
210.661	45.91
210.879	4.95
211.098	29.52
211.316	70.48
211.535	7
211.753	45.91
211.972	-21.67
212.191	58.2
212.409	7
212.628	64.34
212.846	70.48
213.065	74.58
213.283	35.67
213.502	21.33
213.72	2.9
213.938	27.48
214.157	25.43
214.375	13.14
214.594	35.67
214.812	-7.34
215.031	43.86
215.249	39.76
215.467	-3.24
215.686	35.67
215.904	11.09
216.122	-72.87
216.341	2.9
216.559	4.95
216.778	72.53
216.996	27.48
217.214	29.52
217.432	54.1
217.651	-76.97
217.869	54.1
218.087	39.76
218.306	25.43
218.524	78.68
218.742	78.68
218.96	56.15
219.179	-25.77
219.397	35.67
219.615	66.39
219.833	33.62
220.051	15.19
220.27	0.85
220.488	119.64
220.706	0.85
220.924	17.24
221.142	95.06
221.36	58.2
221.578	45.91
221.796	-23.72
222.015	54.1
222.233	78.68
222.451	138.07
222.669	76.63
222.887	37.72
223.105	7
223.323	-36.01
223.541	-36.01
223.759	-19.63
223.977	56.15
224.195	80.72
224.413	7
224.631	45.91
224.849	56.15
225.067	138.07
225.285	-11.43
225.503	-15.53
225.721	50
225.939	-29.87
226.157	29.52
226.375	62.29
226.592	-40.11
226.81	41.81
227.028	72.53
227.246	45.91
227.464	54.1
227.682	97.11
227.9	15.19
228.117	80.72
228.335	109.4
228.553	62.29
228.771	-44.2
228.989	62.29
229.206	23.38
229.424	37.72
229.642	45.91
229.86	33.62
230.077	31.57
230.295	37.72
230.513	15.19
230.731	23.38
230.948	60.24
231.166	45.91
231.384	23.38
231.601	37.72
231.819	13.14
232.037	7
232.254	19.29
232.472	41.81
232.689	31.57
232.907	70.48
233.125	101.2
233.342	33.62
233.56	78.68
233.777	43.86
233.995	58.2
234.213	86.87
234.43	0.85
234.648	99.16
234.865	76.63
235.083	39.76
235.3	-38.06
235.518	72.53
235.735	78.68
235.953	70.48
236.17	68.44
236.388	-25.77
236.605	-11.43
236.822	15.19
237.04	-3.24
237.257	58.2
237.475	21.33
237.692	47.96
237.909	-48.3
238.127	-33.96
238.344	29.52
238.562	-11.43
238.779	64.34
238.996	39.76
239.214	35.67
239.431	7
239.648	9.05
239.865	23.38
240.083	70.48
240.3	82.77
240.517	23.38
240.735	37.72
240.952	88.92
241.169	97.11
241.386	58.2
241.603	78.68
241.821	29.52
242.038	15.19
242.255	-3.24
242.472	31.57
242.689	-42.15
242.907	-19.63
243.124	56.15
243.341	-7.34
243.558	33.62
243.775	4.95
243.992	9.05
244.209	70.48
244.426	-1.19
244.643	29.52
244.86	4.95
245.078	13.14
245.295	-5.29
245.512	19.29
245.729	4.95
245.946	95.06
246.163	70.48
246.38	101.2
246.597	21.33
246.814	-19.63
247.031	64.34
247.248	111.44
247.464	72.53
247.681	-25.77
247.898	21.33
248.115	66.39
248.332	-3.24
248.549	107.35
248.766	37.72
248.983	23.38
249.2	-19.63
249.417	64.34
249.633	-15.53
249.85	7
250.067	33.62
250.284	62.29
250.501	86.87
250.717	56.15
250.934	17.24
251.151	-19.63
251.368	7
251.585	58.2
251.801	45.91
252.018	52.05
252.235	72.53
252.451	43.86
252.668	35.67
252.885	52.05
253.102	9.05
253.318	52.05
253.535	37.72
253.752	-44.2
253.968	21.33
254.185	37.72
254.401	84.82
254.618	86.87
254.835	-52.39
255.051	62.29
255.268	66.39
255.484	105.3
255.701	52.05
255.917	2.9
256.134	29.52
256.351	66.39
256.567	0.85
256.784	4.95
257	-25.77
257.217	107.35
257.433	19.29
257.65	58.2
257.866	21.33
258.082	-11.43
258.299	13.14
258.515	15.19
258.732	41.81
258.948	4.95
259.165	-1.19
259.381	37.72
259.597	11.09
259.814	29.52
260.03	70.48
260.246	54.1
260.463	39.76
260.679	68.44
260.895	54.1
261.112	17.24
261.328	37.72
261.544	-19.63
261.761	160.59
261.977	33.62
262.193	2.9
262.409	62.29
262.626	47.96
262.842	17.24
263.058	45.91
263.274	74.58
263.49	-31.91
263.707	82.77
263.923	54.1
264.139	4.95
264.355	43.86
264.571	131.92
264.787	29.52
265.004	39.76
265.22	25.43
265.436	0.85
265.652	17.24
265.868	84.82
266.084	2.9
266.3	25.43
266.516	109.4
266.732	-19.63
266.948	37.72
267.164	56.15
267.38	62.29
267.596	45.91
267.812	62.29
268.028	50
268.244	-66.73
268.46	97.11
268.676	47.96
268.892	47.96
269.108	-3.24
269.324	13.14
269.54	-60.59
269.756	82.77
269.972	-7.34
270.188	29.52
270.403	50
270.619	0.85
270.835	37.72
271.051	37.72
271.267	80.72
271.483	64.34
271.698	93.01
271.914	66.39
272.13	56.15
272.346	-1.19
272.562	54.1
272.777	72.53
272.993	62.29
273.209	-64.68
273.425	74.58
273.64	52.05
273.856	133.97
274.072	86.87
274.287	33.62
274.503	72.53
274.719	58.2
274.934	70.48
275.15	23.38
275.366	39.76
275.581	4.95
275.797	56.15
276.012	15.19
276.228	64.34
276.444	66.39
276.659	121.68
276.875	56.15
277.09	21.33
277.306	68.44
277.521	86.87
277.737	47.96
277.952	39.76
278.168	62.29
278.383	82.77
278.599	64.34
278.814	31.57
279.03	74.58
279.245	127.83
279.461	-3.24
279.676	105.3
279.892	23.38
280.107	13.14
280.322	47.96
280.538	72.53
280.753	86.87
280.969	95.06
281.184	4.95
281.399	119.64
281.615	29.52
281.83	80.72
282.045	-15.53
282.26	70.48
282.476	37.72
282.691	107.35
282.906	15.19
283.122	70.48
283.337	39.76
283.552	62.29
283.767	50
283.983	103.25
284.198	13.14
284.413	19.29
284.628	13.14
284.843	31.57
285.058	9.05
285.274	52.05
285.489	-7.34
285.704	15.19
285.919	54.1
286.134	76.63
286.349	70.48
286.564	-1.19
286.779	64.34
286.995	21.33
287.21	-50.35
287.425	17.24
287.64	35.67
287.855	33.62
288.07	-27.82
288.285	47.96
288.5	64.34
288.715	39.76
288.93	54.1
289.145	0.85
289.36	64.34
289.575	13.14
289.79	47.96
290.004	23.38
290.219	4.95
290.434	-19.63
290.649	66.39
290.864	39.76
291.079	17.24
291.294	105.3
291.509	43.86
291.724	0.85
291.938	41.81
292.153	58.2
292.368	47.96
292.583	35.67
292.798	37.72
293.012	4.95
293.227	82.77
293.442	54.1
293.657	144.21
293.871	39.76
294.086	35.67
294.301	70.48
294.516	4.95
294.73	39.76
294.945	62.29
295.16	13.14
295.374	131.92
295.589	62.29
295.804	45.91
296.018	-3.24
296.233	146.26
296.447	27.48
296.662	-31.91
296.877	111.44
297.091	99.16
297.306	72.53
297.52	-11.43
297.735	19.29
297.949	64.34
298.164	-13.48
298.378	33.62
298.593	66.39
298.807	-17.58
299.022	105.3
299.236	68.44
299.451	54.1
299.665	29.52
299.88	58.2
300.094	101.2
300.309	9.05
300.523	-1.19
300.737	62.29
300.952	21.33
301.166	80.72
301.381	9.05
301.595	4.95
301.809	33.62
302.024	37.72
302.238	-36.01
302.452	76.63
302.667	111.44
302.881	70.48
303.095	13.14
303.309	105.3
303.524	52.05
303.738	56.15
303.952	-27.82
304.166	-3.24
304.381	-19.63
304.595	62.29
304.809	56.15
305.023	29.52
305.237	45.91
305.452	23.38
305.666	41.81
305.88	58.2
306.094	117.59
306.308	37.72
306.522	78.68
306.736	58.2
306.95	111.44
307.164	78.68
307.379	39.76
307.593	13.14
307.807	37.72
308.021	62.29
308.235	62.29
308.449	29.52
308.663	21.33
308.877	101.2
309.091	54.1
309.305	62.29
309.519	21.33
309.733	125.78
309.947	13.14
310.161	95.06
310.374	66.39
310.588	97.11
310.802	-1.19
311.016	70.48
311.23	45.91
311.444	33.62
311.658	103.25
311.872	78.68
312.085	15.19
312.299	121.68
312.513	70.48
312.727	58.2
312.941	23.38
313.154	70.48
313.368	45.91
313.582	119.64
313.796	41.81
314.009	-17.58
314.223	113.49
314.437	58.2
314.651	74.58
314.864	17.24
315.078	-52.39
315.292	45.91
315.505	56.15
315.719	76.63
315.933	84.82
316.146	47.96
316.36	-3.24
316.573	103.25
316.787	31.57
317.001	13.14
317.214	-23.72
317.428	7
317.641	7
317.855	-9.39
318.068	62.29
318.282	39.76
318.495	37.72
318.709	58.2
318.922	56.15
319.136	99.16
319.349	50
319.563	45.91
319.776	64.34
319.99	50
320.203	99.16
320.417	60.24
320.63	17.24
320.843	47.96
321.057	-15.53
321.27	47.96
321.483	82.77
321.697	95.06
321.91	76.63
322.124	41.81
322.337	62.29
322.55	29.52
322.763	-33.96
322.977	37.72
323.19	13.14
323.403	13.14
323.617	33.62
323.83	121.68
324.043	23.38
324.256	21.33
324.469	62.29
324.683	86.87
324.896	-17.58
325.109	82.77
325.322	-3.24
325.535	78.68
325.748	56.15
325.962	72.53
326.175	35.67
326.388	125.78
326.601	88.92
326.814	29.52
327.027	-9.39
327.24	4.95
327.453	13.14
327.666	64.34
327.879	70.48
328.092	105.3
328.305	88.92
328.518	68.44
328.731	25.43
328.944	50
329.157	37.72
329.37	39.76
329.583	86.87
329.796	37.72
330.009	70.48
330.222	33.62
330.435	15.19
330.648	103.25
330.861	70.48
331.073	29.52
331.286	88.92
331.499	31.57
331.712	-64.68
331.925	13.14
332.138	45.91
332.35	105.3
332.563	21.33
332.776	52.05
332.989	13.14
333.202	39.76
333.414	37.72
333.627	-1.19
333.84	97.11
334.053	103.25
334.265	21.33
334.478	90.96
334.691	13.14
334.903	125.78
335.116	62.29
335.329	70.48
335.541	54.1
335.754	121.68
335.966	66.39
336.179	27.48
336.392	25.43
336.604	-36.01
336.817	78.68
337.029	113.49
337.242	29.52
337.454	21.33
337.667	15.19
337.88	41.81
338.092	17.24
338.305	103.25
338.517	60.24
338.729	25.43
338.942	101.2
339.154	23.38
339.367	111.44
339.579	64.34
339.792	13.14
340.004	86.87
340.217	21.33
340.429	76.63
340.641	-9.39
340.854	54.1
341.066	27.48
341.278	54.1
341.491	199.51
341.703	33.62
341.915	80.72
342.128	37.72
342.34	95.06
342.552	31.57
342.764	56.15
342.977	33.62
343.189	11.09
343.401	-7.34
343.613	21.33
343.826	52.05
344.038	21.33
344.25	15.19
344.462	29.52
344.674	152.4
344.886	80.72
345.099	50
345.311	0.85
345.523	52.05
345.735	70.48
345.947	105.3
346.159	15.19
346.371	-7.34
346.583	27.48
346.795	78.68
347.007	72.53
347.219	37.72
347.431	45.91
347.643	7
347.855	29.52
348.067	56.15
348.279	56.15
348.491	31.57
348.703	43.86
348.915	47.96
349.127	39.76
349.339	54.1
349.551	15.19
349.763	56.15
349.975	82.77
350.187	88.92
350.399	95.06
350.61	70.48
350.822	15.19
351.034	86.87
351.246	80.72
351.458	84.82
351.669	33.62
351.881	176.98
352.093	78.68
352.305	-1.19
352.517	58.2
352.728	115.54
352.94	82.77
353.152	52.05
353.363	4.95
353.575	60.24
353.787	111.44
353.999	86.87
354.21	58.2
354.422	64.34
354.633	4.95
354.845	39.76
355.057	66.39
355.268	-1.19
355.48	50
355.692	66.39
355.903	54.1
356.115	58.2
356.326	-64.68
356.538	95.06
356.749	125.78
356.961	119.64
357.172	154.45
357.384	25.43
357.595	160.59
357.807	64.34
358.018	23.38
358.23	13.14
358.441	82.77
358.653	74.58
358.864	103.25
359.075	25.43
359.287	27.48
359.498	105.3
359.709	13.14
359.921	-9.39
360.132	78.68
360.344	86.87
360.555	-9.39
360.766	107.35
360.977	-7.34
361.189	111.44
361.4	64.34
361.611	50
361.823	84.82
362.034	66.39
362.245	82.77
362.456	37.72
362.667	103.25
362.879	35.67
363.09	62.29
363.301	37.72
363.512	39.76
363.723	82.77
363.935	37.72
364.146	50
364.357	-9.39
364.568	84.82
364.779	82.77
364.99	113.49
365.201	86.87
365.412	113.49
365.623	-9.39
365.834	13.14
366.045	84.82
366.256	43.86
366.467	54.1
366.678	29.52
366.889	99.16
367.1	129.88
367.311	86.87
367.522	47.96
367.733	37.72
367.944	127.83
368.155	31.57
368.366	58.2
368.577	7
368.788	136.02
368.999	70.48
369.209	39.76
369.42	105.3
369.631	148.31
369.842	123.73
370.053	15.19
370.264	84.82
370.474	70.48
370.685	127.83
370.896	113.49
371.107	142.16
371.317	29.52
371.528	56.15
371.739	105.3
371.95	45.91
372.16	70.48
372.371	-15.53
372.582	13.14
372.792	68.44
373.003	54.1
373.214	54.1
373.424	86.87
373.635	17.24
373.846	13.14
374.056	72.53
374.267	15.19
374.477	35.67
374.688	25.43
374.898	168.79
375.109	62.29
375.319	144.21
375.53	166.74
375.74	78.68
375.951	62.29
376.161	45.91
376.372	68.44
376.582	54.1
376.793	82.77
377.003	25.43
377.214	37.72
377.424	56.15
377.635	66.39
377.845	43.86
378.055	76.63
378.266	84.82
378.476	80.72
378.686	66.39
378.897	86.87
379.107	113.49
379.317	62.29
379.528	93.01
379.738	-3.24
379.948	95.06
380.158	86.87
380.369	0.85
380.579	50
380.789	66.39
380.999	78.68
381.21	129.88
381.42	95.06
381.63	21.33
381.84	95.06
382.05	54.1
382.261	115.54
382.471	123.73
382.681	103.25
382.891	86.87
383.101	88.92
383.311	-3.24
383.521	23.38
383.731	41.81
383.941	52.05
384.151	125.78
384.361	70.48
384.571	33.62
384.781	86.87
384.991	191.31
385.201	109.4
385.411	66.39
385.621	105.3
385.831	45.91
386.041	121.68
386.251	146.26
386.461	58.2
386.671	50
386.881	99.16
387.091	84.82
387.301	54.1
387.511	93.01
387.72	93.01
387.93	70.48
388.14	23.38
388.35	136.02
388.56	86.87
388.769	113.49
388.979	103.25
389.189	-3.24
389.399	136.02
389.609	43.86
389.818	62.29
390.028	117.59
390.238	95.06
390.447	39.76
390.657	86.87
390.867	70.48
391.076	45.91
391.286	66.39
391.496	103.25
391.705	170.83
391.915	35.67
392.125	74.58
392.334	62.29
392.544	113.49
392.753	70.48
392.963	45.91
393.172	72.53
393.382	66.39
393.591	121.68
393.801	78.68
394.01	99.16
394.22	86.87
394.429	37.72
394.639	-19.63
394.848	95.06
395.058	47.96
395.267	125.78
395.477	62.29
395.686	86.87
395.895	133.97
396.105	168.79
396.314	127.83
396.524	150.36
396.733	82.77
396.942	205.65
397.152	131.92
397.361	136.02
397.57	111.44
397.78	144.21
397.989	162.64
398.198	136.02
398.407	127.83
398.617	144.21
398.826	58.2
399.035	152.4
399.244	123.73
399.453	146.26
399.663	115.54
399.872	111.44
400.081	144.21
400.29	129.88
400.499	70.48
400.708	193.36
400.917	78.68
401.127	113.49
401.336	105.3
401.545	209.75
401.754	97.11
401.963	213.84
402.172	176.98
402.381	164.69
402.59	138.07
402.799	146.26
403.008	150.36
403.217	168.79
403.426	258.9
403.635	185.17
403.844	127.83
404.053	219.99
404.262	189.27
404.471	187.22
404.68	195.41
404.888	176.98
405.097	164.69
405.306	267.09
405.515	252.75
405.724	234.32
405.933	185.17
406.142	265.04
406.35	207.7
406.559	240.47
406.768	234.32
406.977	250.71
407.185	269.14
407.394	289.62
407.603	269.14
407.812	289.62
408.02	334.67
408.229	293.71
408.438	295.76
408.646	324.43
408.855	344.91
409.064	381.78
409.272	258.9
409.481	334.67
409.69	394.06
409.898	297.81
410.107	439.12
410.315	478.03
410.524	418.64
410.733	426.83
410.941	408.4
411.15	426.83
411.358	473.93
411.567	516.94
411.775	400.21
411.984	566.09
412.192	580.43
412.401	596.81
412.609	629.58
412.818	623.44
413.026	645.96
413.234	693.07
413.443	627.53
413.651	717.64
413.86	766.79
414.068	703.31
414.276	828.23
414.485	803.66
414.693	795.47
414.901	953.16
415.11	850.76
415.318	881.48
415.526	975.69
415.734	1090.37
415.943	1026.89
416.151	1094.47
416.359	1057.61
416.567	1188.68
416.776	1260.35
416.984	1233.73
417.192	1225.54
417.4	1299.27
417.608	1256.26
417.817	1344.32
418.025	1385.28
418.233	1430.34
418.441	1368.9
418.649	1454.91
418.857	1647.42
419.065	1602.36
419.273	1626.94
419.481	1741.63
419.689	1839.93
419.897	1841.98
420.105	1919.8
420.313	2120.5
420.521	1999.67
420.729	1991.48
420.937	2200.37
421.145	2179.89
421.353	2394.93
421.561	2413.36
421.769	2435.89
421.977	2681.64
422.185	2659.12
422.393	2872.11
422.601	2978.6
422.809	2904.87
423.017	3001.13
423.224	3015.46
423.432	3269.41
423.64	3265.32
423.848	3603.23
424.056	3443.49
424.263	3736.35
424.471	3701.53
424.679	3683.1
424.887	3894.04
425.094	3994.39
425.302	4047.64
425.51	4174.61
425.718	4322.07
425.925	4373.27
426.133	4780.81
426.341	4731.66
426.548	5149.45
426.756	4993.8
426.964	5237.51
427.171	5499.65
427.379	5620.48
427.586	5591.81
427.794	5853.95
428.001	6042.36
428.209	6345.46
428.417	6109.94
428.624	6593.26
428.832	6632.18
429.039	6617.84
429.247	6568.69
429.454	7269.09
429.662	7768.8
429.869	7090.92
430.076	7635.68
430.284	7449.32
430.491	7799.52
430.699	8254.17
430.906	8356.57
431.114	8307.41
431.321	8694.48
431.528	8901.33
431.736	9528
431.943	9892.54
432.15	9470.66
432.358	9663.17
432.565	10295.99
432.772	10191.55
432.979	10400.44
433.187	11086.51
433.394	10945.2
433.601	11547.3
433.808	11739.81
434.016	11555.49
434.223	11942.56
434.43	13052.56
434.637	12722.84
434.844	13374.09
435.052	13376.14
435.259	13488.78
435.466	13505.16
435.673	13503.11
435.88	14285.44
436.087	15141.49
436.294	15219.31
436.501	14834.29
436.708	15063.66
436.915	15899.23
437.122	16384.6
437.329	16233.05
437.537	16841.3
437.743	17242.7
437.95	16992.85
438.157	17824.33
438.364	18258.49
438.571	18156.1
438.778	18508.35
438.985	19964.45
439.192	19294.77
439.399	19974.69
439.606	19401.26
439.813	20533.79
440.02	22204.93
440.227	21422.61
440.433	21342.74
440.64	21885.45
440.847	21819.91
441.054	22483.45
441.261	23718.38
441.467	23665.13
441.674	24068.58
441.881	24832.47
442.088	24967.64
442.294	24521.18
442.501	25207.25
442.708	25672.14
442.914	26638.78
443.121	27756.97
443.328	27156.92
443.534	28914.08
443.741	28049.83
443.948	27689.39
444.154	29837.71
444.361	29612.43
444.568	29989.26
444.774	29704.59
444.981	30083.47
445.187	30652.8
445.394	32172.39
445.6	31820.14
445.807	35103.04
446.013	33139.04
446.22	33919.31
446.426	35103.04
446.633	35717.43
446.839	36991.26
447.046	35322.17
447.252	37191.97
447.459	37038.37
447.665	36999.46
447.871	38533.39
448.078	40179.95
448.284	38408.46
448.491	39583.99
448.697	40995.04
448.903	41722.07
449.11	41529.56
449.316	41296.1
449.522	41773.27
449.728	43016.39
449.935	43425.98
450.141	42944.71
450.347	44038.33
450.553	42754.25
450.76	43452.61
450.966	44816.55
451.172	44150.96
451.378	45463.71
451.584	44533.93
451.791	45729.95
451.997	45299.87
452.203	46065.81
452.409	46135.45
452.615	46098.58
452.821	44507.31
453.027	43964.6
453.233	46348.43
453.44	44388.53
453.646	44728.49
453.852	44800.17
454.058	45885.59
454.264	44286.13
454.47	45248.67
454.676	44073.14
454.882	45338.79
455.088	41736.41
455.294	42387.66
455.5	43034.82
455.705	43657.4
455.911	41820.38
456.117	40904.93
456.323	40573.16
456.529	38316.3
456.735	40036.59
456.941	38887.68
457.147	38646.02
457.352	37130.53
457.558	37011.74
457.764	36669.73
457.97	36553
458.176	35215.68
458.381	35391.8
458.587	33734.99
458.793	33835.35
458.999	31981.93
459.204	34548.04
459.41	33534.29
459.616	31316.34
459.821	31027.58
460.027	31111.55
460.233	30323.08
460.438	29372.82
460.644	29325.72
460.85	28185
461.055	27498.93
461.261	27689.39
461.466	25518.54
461.672	24648.16
461.878	26577.34
462.083	24768.99
462.289	24230.37
462.494	24078.82
462.7	23200.24
462.905	22565.37
463.111	23050.74
463.316	23534.06
463.522	23095.8
463.727	22866.42
463.932	22827.51
464.138	22403.58
464.343	22632.96
464.549	21912.07
464.754	22682.11
464.959	22540.8
465.165	22249.99
465.37	21414.41
465.575	20660.76
465.781	21838.34
465.986	21694.99
466.191	21088.79
466.397	20898.33
466.602	19452.46
466.807	20279.84
467.012	20388.38
467.218	20191.78
467.423	19821.09
467.628	20136.48
467.833	21084.69
468.038	20173.35
468.244	19644.97
468.449	20382.24
468.654	19636.78
468.859	19601.96
469.064	19276.34
469.269	18739.77
469.474	18981.43
469.679	19481.13
469.885	18655.8
470.09	19100.21
470.295	18760.25
470.5	18010.69
470.705	18553.4
470.91	18164.29
471.115	18014.79
471.32	18403.9
471.525	17996.35
471.73	17549.9
471.935	17445.45
472.139	17003.09
472.344	17209.93
472.549	16808.53
472.754	17054.29
472.959	16634.46
473.164	16233.05
473.369	16065.12
473.574	16728.66
473.778	16548.44
473.983	16177.76
474.188	16255.58
474.393	15467.11
474.598	15592.04
474.802	15450.73
475.007	15252.08
475.212	15356.52
475.417	14723.7
475.621	14668.41
475.826	14897.78
476.031	14520.95
476.235	14197.37
476.44	14559.86
476.645	14369.4
476.849	14449.27
477.054	14035.58
477.259	13724.29
477.463	13693.57
477.668	13240.97
477.872	13591.17
478.077	13474.44
478.282	13253.26
478.486	12972.69
478.691	12901.01
478.895	12853.91
479.1	12761.75
479.304	12679.83
479.509	12472.98
479.713	12624.53
479.918	12505.75
480.122	12096.16
480.326	12446.36
480.531	12479.13
480.735	12038.81
480.94	12384.92
481.144	12442.26
481.348	11774.63
481.553	12333.72
481.757	11793.06
481.961	11797.15
482.166	12178.08
482.37	11915.94
482.574	11907.74
482.778	11649.7
482.983	12083.87
483.187	11958.94
483.391	12085.92
483.595	11651.75
483.8	11516.58
484.004	11954.85
484.208	12063.39
484.412	11928.22
484.616	11653.8
484.821	11702.95
485.025	11721.38
485.229	11745.95
485.433	11666.08
485.637	12024.48
485.841	11817.63
486.045	11864.74
486.249	11813.54
486.453	11752.1
486.657	12024.48
486.861	11631.27
487.065	11530.92
487.269	11965.09
487.473	11809.44
487.677	12059.29
487.881	11940.51
488.085	12032.67
488.289	11950.75
488.493	11987.61
488.697	11887.26
488.901	11905.7
489.105	11727.52
489.309	11909.79
489.512	12139.16
489.716	11889.31
489.92	11807.39
490.124	11999.9
490.328	12188.32
490.531	12120.73
490.735	12028.57
490.939	12366.49
491.143	12274.33
491.346	12307.1
491.55	12243.61
491.754	12419.74
491.958	12393.11
492.161	12366.49
492.365	12329.63
492.569	12419.74
492.772	12595.86
492.976	12487.32
493.18	12690.07
493.383	12692.12
493.587	13091.47
493.79	12997.26
493.994	12927.63
494.197	13046.41
494.401	13099.66
494.605	12890.77
494.808	13214.35
495.012	13505.16
495.215	13456.01
495.419	13730.44
495.622	13664.9
495.825	13554.31
496.029	13607.56
496.232	13939.33
496.436	14011.01
496.639	14324.35
496.843	14219.9
497.046	14383.74
497.249	14750.32
497.453	14799.48
497.656	14830.2
497.859	14914.16
498.063	14946.93
498.266	15440.49
498.469	15399.53
498.673	15626.85
498.876	15825.51
499.079	15825.51
499.282	15991.39
499.485	16251.49
499.689	16335.45
499.892	16532.06
500.095	16767.57
500.298	16898.64
500.501	16759.38
500.705	17424.97
500.908	17601.1
501.111	17586.76
501.314	17601.1
501.517	17859.14
501.72	18510.39
501.923	18025.03
502.126	18784.82
502.329	18868.79
502.532	19014.2
502.735	19292.72
502.938	19497.52
503.141	19491.37
503.344	19812.9
503.547	19847.72
503.75	20238.88
503.953	20742.68
504.156	20683.29
504.359	20900.37
504.562	21064.21
504.765	21156.37
504.968	21750.28
505.17	21740.04
505.373	21789.19
505.576	22356.48
505.779	22413.82
505.982	22524.41
506.185	23073.27
506.387	23048.69
506.59	23380.46
506.793	23996.9
506.996	23978.47
507.198	24474.08
507.401	24162.79
507.604	24818.14
507.807	25233.88
508.009	25156.05
508.212	25209.3
508.415	25655.76
508.617	26065.35
508.82	25895.37
509.022	25878.99
509.225	26714.56
509.428	27120.06
509.63	26999.23
509.833	27322.8
510.035	28053.93
510.238	27535.79
510.44	28696.99
510.643	28713.38
510.845	28869.02
511.048	28621.22
511.25	29395.35
511.453	29151.64
511.655	30308.74
511.858	29696.4
512.06	30376.33
512.262	30554.5
512.465	30484.87
512.667	31299.96
512.87	31388.02
513.072	31347.06
513.274	32076.14
513.477	32035.18
513.679	32434.53
513.881	32901.47
514.084	33089.88
514.286	33057.12
514.488	33509.72
514.69	34693.44
514.893	34586.95
515.095	34713.92
515.297	35047.74
515.499	35119.42
515.701	35557.69
515.904	35725.62
516.106	36317.48
516.308	36532.52
516.51	37046.56
516.712	36792.61
516.914	37450.01
517.116	37626.14
517.318	37878.04
517.52	38420.75
517.722	38263.05
517.925	39022.85
518.127	39436.54
518.329	39309.57
518.531	39569.66
518.733	40233.2
518.935	40364.27
519.136	40591.59
519.338	40827.11
519.54	41220.32
519.742	41625.82
519.944	41726.17
520.146	42811.59
520.348	42483.92
520.55	42576.08
520.752	42748.11
520.954	43299.01
521.155	43253.95
521.357	43378.88
521.559	44116.15
521.761	44837.03
521.963	44361.9
522.164	44908.71
522.366	45439.14
522.568	45615.26
522.77	45619.36
522.971	46270.61
523.173	45985.94
523.375	46782.6
523.576	46612.62
523.778	46755.98
523.98	47192.2
524.181	47433.86
524.383	47401.09
524.584	48357.49
524.786	47827.07
524.988	47917.18
525.189	48740.46
525.391	48717.93
525.592	49059.94
525.794	49119.34
525.995	49137.77
526.197	49141.86
526.398	49188.97
526.6	49829.98
526.801	49971.29
527.003	50036.83
527.204	49688.67
527.406	50647.12
527.607	50604.11
527.808	51069
528.01	49934.43
528.211	50788.43
528.412	51599.43
528.614	51243.08
528.815	51236.94
529.016	51849.28
529.218	51167.3
529.419	51748.93
529.62	51691.58
529.822	51759.17
530.023	51642.43
530.224	51738.69
530.425	51572.8
530.626	51431.49
530.828	51607.62
531.029	52693.04
531.23	52305.98
531.431	52160.57
531.632	52295.74
531.833	52779.06
532.035	52322.36
532.236	52463.67
532.437	52920.37
532.638	52252.73
532.839	52336.69
533.04	52951.09
533.241	51943.48
533.442	53041.2
533.643	52781.1
533.844	52521.01
534.045	52791.34
534.246	52547.64
534.447	52602.93
534.648	52631.6
534.849	52555.83
535.05	52299.83
535.251	52453.43
535.451	52582.45
535.652	52963.37
535.853	52764.72
536.054	52447.29
536.255	52871.21
536.456	52217.91
536.657	52951.09
536.857	52607.03
537.058	52561.97
537.259	53143.59
537.46	52787.25
537.66	52471.86
537.861	52979.76
538.062	52795.44
538.263	52404.28
538.463	52672.56
538.664	52369.46
538.865	52547.64
539.065	52971.57
539.266	52435
539.466	53258.28
539.667	51841.09
539.868	52625.46
540.068	52738.1
540.269	52326.45
540.469	53028.91
540.67	52217.91
540.87	52680.75
541.071	52441.14
541.271	52637.75
541.472	52494.39
541.672	52525.11
541.873	52398.13
542.073	51624
542.274	52566.07
542.474	51914.81
542.675	51685.44
542.875	52787.25
543.075	52432.95
543.276	51748.93
543.476	52701.23
543.676	51865.66
543.877	52688.95
544.077	52373.56
544.277	52273.21
544.478	51912.77
544.678	52283.45
544.878	51787.84
545.078	52109.37
545.279	51783.74
545.479	52160.57
545.679	52209.72
545.879	52373.56
546.079	52056.12
546.28	51996.73
546.48	51836.99
546.68	52127.8
546.88	52185.15
547.08	52138.04
547.28	51693.63
547.48	51402.82
547.68	52467.76
547.88	51738.69
548.081	51994.68
548.281	52033.6
548.481	51435.59
548.681	51994.68
548.881	51681.34
549.081	51996.73
549.28	51632.19
549.48	51888.19
549.68	51884.09
549.88	52142.14
550.08	51910.72
550.28	51787.84
550.48	51888.19
550.68	52168.76
550.88	51232.84
551.08	51755.07
551.279	51689.54
551.479	51316.81
551.679	51972.16
551.879	51671.1
552.079	51890.24
552.278	51890.24
552.478	51333.19
552.678	51970.11
552.878	52234.3
553.077	51447.88
553.277	51396.68
553.477	51888.19
553.676	51652.67
553.876	51650.63
554.076	51476.55
554.275	51615.81
554.475	51095.63
554.674	51720.26
554.874	51468.36
555.074	51552.32
555.273	51595.33
555.473	51716.16
555.672	50933.84
555.872	51071.05
556.071	51167.3
556.271	51413.06
556.47	51179.59
556.67	51095.63
556.869	51234.89
557.068	51195.98
557.268	50612.31
557.467	51109.96
557.667	50661.46
557.866	50935.88
558.065	51093.58
558.265	50602.07
558.464	50495.57
558.663	51048.52
558.863	50493.52
559.062	51365.96
559.261	50225.24
559.461	50970.7
559.66	50069.59
559.859	50575.44
560.058	50276.44
560.258	50575.44
560.457	50061.4
560.656	50667.6
560.855	50112.6
561.054	50042.97
561.253	50034.78
561.453	50292.82
561.652	50040.92
561.851	50186.33
562.05	49864.8
562.249	49721.44
562.448	50143.32
562.647	49956.96
562.846	49569.89
563.045	50036.83
563.244	49297.51
563.443	49875.04
563.642	49055.85
563.841	49465.44
564.04	49356.9
564.239	49334.37
564.438	49332.32
564.637	49418.34
564.836	49463.39
565.035	48461.94
565.234	48719.98
565.432	49004.65
565.631	48709.74
565.83	48734.32
566.029	48980.07
566.228	48879.72
566.427	48169.08
566.625	48136.31
566.824	47777.92
567.023	48668.78
567.222	47667.33
567.42	48576.62
567.619	48164.98
567.818	47810.68
568.016	47769.72
568.215	48242.81
568.414	47741.05
568.612	48119.93
568.811	47286.4
569.01	48107.64
569.208	47194.25
569.407	47712.38
569.605	46919.82
569.804	47396.99
570.002	46727.31
570.201	46985.35
570.4	46704.78
570.598	46702.73
570.797	46624.91
570.995	46706.83
571.193	46375.06
571.392	46721.16
571.59	46291.09
571.789	46123.16
571.987	45926.55
572.186	46137.49
572.384	45617.31
572.582	45912.22
572.781	46088.34
572.979	45166.76
573.177	45844.63
573.376	45672.6
573.574	45312.16
573.772	45463.71
573.971	45148.32
574.169	44845.23
574.367	44943.53
574.565	45332.64
574.763	44769.45
574.962	44959.91
575.16	44519.6
575.358	44808.36
575.556	44529.84
575.754	44882.09
575.952	44107.96
576.151	44599.47
576.349	43978.93
576.547	43960.5
576.745	44179.64
576.943	44179.64
577.141	43505.85
577.339	43882.68
577.537	44001.46
577.735	43753.66
577.933	43129.03
578.131	43305.15
578.329	42911.94
578.527	42981.57
578.725	43198.66
578.923	43221.19
579.121	43043.01
579.319	42698.95
579.516	43219.14
579.714	42813.64
579.912	42393.81
580.11	42189.01
580.308	42688.71
580.506	41943.25
580.704	41533.66
580.901	41933.01
581.099	42301.65
581.297	41517.28
581.495	41629.91
581.692	41654.49
581.89	41027.81
582.088	41994.45
582.285	41105.63
582.483	41621.72
582.681	41218.27
582.878	40728.81
583.076	40583.4
583.274	41261.28
583.471	40458.48
583.669	40868.07
583.866	40247.54
584.064	40575.21
584.262	40038.64
584.459	40708.33
584.657	40313.07
584.854	40282.35
585.052	39553.27
585.249	39420.16
585.447	40120.56
585.644	39461.12
585.841	39815.41
586.039	39934.2
586.236	39225.6
586.434	39317.76
586.631	39289.09
586.828	39289.09
587.026	39006.47
587.223	38545.67
587.42	38873.35
587.618	38809.86
587.815	38291.73
588.012	37966.1
588.21	37914.9
588.407	38725.89
588.604	38240.53
588.801	37828.88
588.999	37882.13
589.196	38222.09
589.393	37955.86
589.59	37495.07
589.787	37863.7
589.984	37423.39
590.182	37208.35
590.379	37605.66
590.576	37372.19
590.773	37433.63
590.97	36696.36
591.167	37140.77
591.364	36415.79
591.561	37073.18
591.758	36237.61
591.955	36227.37
592.152	36524.33
592.349	36505.9
592.546	36284.72
592.743	36718.89
592.94	35805.49
593.137	36055.34
593.334	35998
593.531	35537.21
593.727	35821.87
593.924	35717.43
594.121	35205.44
594.318	35531.06
594.515	35006.78
594.712	35461.43
594.908	35279.16
595.105	35297.59
595.302	35100.99
595.499	35195.2
595.696	34904.38
595.892	34373.96
596.089	34806.08
596.286	34732.36
596.482	34496.84
596.679	34615.62
596.876	34644.29
597.072	34007.37
597.269	33999.18
597.466	33495.38
597.662	33599.83
597.859	33794.39
598.055	33931.6
598.252	33241.43
598.448	33562.97
598.645	33306.97
598.841	33046.88
599.038	33306.97
599.234	33063.26
599.431	32962.91
599.627	32936.29
599.824	32960.86
600.02	32328.04
600.217	32715.11
600.413	32375.14
600.609	32676.19
600.806	32330.09
601.002	32653.67
601.198	31932.78
601.395	32184.68
601.591	32348.52
601.787	32145.77
601.984	31809.9
602.18	31801.71
602.376	31666.55
602.572	31512.95
602.769	31340.92
602.965	31220.09
603.161	31254.9
603.357	30833.02
603.553	31000.96
603.75	31162.75
603.946	30910.85
604.142	30976.38
604.338	30521.73
604.534	30851.45
604.73	30290.31
604.926	30284.17
605.122	30351.75
605.318	30325.13
605.514	30247.3
605.71	30194.06
605.906	30116.23
606.102	29985.16
606.298	30130.57
606.494	29522.32
606.69	30095.75
606.886	29878.67
607.082	29360.53
607.278	29843.85
607.474	29112.73
607.67	29550.99
607.866	29116.83
608.062	29673.87
608.257	29282.71
608.453	29399.44
608.649	29335.96
608.845	28750.24
609.041	29034.91
609.236	29325.72
609.432	28914.08
609.628	29018.52
609.824	28576.16
610.019	28647.84
610.215	28643.74
610.411	28733.85
610.606	28375.46
610.802	28498.34
610.998	28748.19
611.193	28252.58
611.389	28139.94
611.584	27898.28
611.78	27926.96
611.976	28156.33
612.171	28182.95
612.367	27732.4
612.562	27683.25
612.758	27724.21
612.953	27783.6
613.149	28162.47
613.344	27822.51
613.539	28037.55
613.735	27713.97
613.93	27464.11
614.126	27574.7
614.321	27720.11
614.517	27640.24
614.712	27310.52
614.907	27482.55
615.103	27572.66
615.298	27171.25
615.493	27171.25
615.688	27083.19
615.884	27623.86
616.079	26862.01
616.274	27099.58
616.47	27066.81
616.665	27056.57
616.86	26771.9
617.055	26999.23
617.25	26749.37
617.445	27003.32
617.641	26208.71
617.836	26651.07
618.031	26155.46
618.226	26419.65
618.421	26366.4
618.616	26446.27
618.811	26061.26
619.006	26413.51
619.201	25944.52
619.396	25989.58
619.591	25313.75
619.786	25637.33
619.981	25205.2
620.176	25573.84
620.371	25223.64
620.566	25391.57
620.761	25203.16
620.956	25285.08
621.151	24879.58
621.346	24947.16
621.541	24691.16
621.735	24773.08
621.93	24185.32
622.125	24289.76
622.32	24117.73
622.515	24322.53
622.709	24117.73
622.904	24080.87
623.099	23874.03
623.294	23839.21
623.488	23255.54
623.683	23601.65
623.878	23144.95
624.072	23304.69
624.267	23128.56
624.462	23093.75
624.656	22770.17
624.851	22960.63
625.046	22561.28
625.24	22579.71
625.435	22403.58
625.629	22452.73
625.824	22110.72
626.018	21985.8
626.213	21600.78
626.407	21737.99
626.602	21639.69
626.796	21545.48
626.991	21647.88
627.185	21424.65
627.38	21254.67
627.574	20865.56
627.768	21049.88
627.963	20718.11
628.157	20511.26
628.352	20929.05
628.546	20355.61
628.74	20652.57
628.935	20539.93
629.129	20197.92
629.323	19984.93
629.517	19892.77
629.712	19819.05
629.906	19821.09
630.1	19616.3
630.294	19749.42
630.489	19431.98
630.683	19581.48
630.877	19190.32
631.071	19298.86
631.265	19571.24
631.459	18963
631.653	18913.84
631.848	18864.69
632.042	18504.25
632.236	18688.57
632.43	18676.28
632.624	18688.57
632.818	18321.98
633.012	17941.06
633.206	18205.25
633.4	18303.55
633.594	18016.83
633.788	17982.02
633.982	18010.69
634.176	17799.75
634.369	17701.45
634.563	17574.47
634.757	17465.93
634.951	17613.38
635.145	17488.46
635.339	17539.66
635.533	17187.41
635.726	17123.92
635.92	16814.68
636.114	16831.06
636.308	17089.1
636.501	16831.06
636.695	16620.12
636.889	16435.8
637.083	16202.33
637.276	16523.87
637.47	15995.49
637.664	16212.57
637.857	16335.45
638.051	16101.98
638.244	15733.35
638.438	16007.78
638.632	15635.05
638.825	15669.86
639.019	15630.95
639.212	15409.77
639.406	15596.14
639.599	15516.26
639.793	15362.67
639.986	15235.69
640.18	15118.96
640.373	15065.71
640.567	14875.25
640.76	14652.02
640.954	14776.95
641.147	14424.7
641.34	14717.56
641.534	14525.05
641.727	14428.79
641.92	14271.1
642.114	14152.32
642.307	14588.53
642.5	14254.72
642.694	13929.09
642.887	13890.18
643.08	13957.76
643.273	13924.99
643.467	13863.55
643.66	13589.13
643.853	13697.67
644.046	13576.84
644.239	13515.4
644.432	13234.83
644.626	13341.32
644.819	13249.16
645.012	13247.12
645.205	13359.75
645.398	13107.85
645.591	13208.2
645.784	13036.17
645.977	12749.46
646.17	12976.78
646.363	12868.24
646.556	12640.92
646.749	12704.4
646.942	12579.48
647.135	12335.77
647.328	12374.68
647.521	12253.85
647.714	12317.34
647.907	12300.95
648.099	12298.91
648.292	12300.95
648.485	12079.77
648.678	11862.69
648.871	11858.59
649.064	11786.91
649.256	12063.39
649.449	11848.35
649.642	11702.95
649.835	11449
650.027	11512.49
650.22	11463.33
650.413	11414.18
650.605	11563.68
650.798	11236.01
650.991	11137.71
651.183	11451.05
651.376	10900.14
651.568	11143.85
651.761	10961.58
651.954	10879.66
652.146	10953.39
652.339	10834.61
652.531	10926.77
652.724	10836.66
652.916	10715.83
653.109	10666.67
653.301	10515.12
653.494	10468.02
653.686	10359.48
653.879	10760.88
654.071	10490.55
654.263	10095.29
654.456	10214.07
654.648	10117.82
654.84	10121.91
655.033	10091.2
655.225	10318.52
655.417	9796.29
655.61	9915.07
655.802	10109.63
655.994	9784
656.186	9822.91
656.379	9740.99
656.571	9657.03
656.763	9470.66
656.955	9499.33
657.148	9550.53
657.34	9661.12
657.532	9292.49
657.724	9382.6
657.916	9386.69
658.108	9423.56
658.3	9163.47
658.492	9231.05
658.684	9171.66
658.876	9030.35
659.068	8960.72
659.26	8938.19
659.452	9056.97
659.644	8880.85
659.836	8745.68
660.028	8805.07
660.22	8825.55
660.412	8803.02
660.604	8719.06
660.796	8602.32
660.988	8674
661.18	8483.54
661.372	8405.72
661.563	8501.97
661.755	8590.03
661.947	8336.09
662.139	8372.95
662.331	8266.46
662.522	8071.9
662.714	8317.65
662.906	8194.78
663.097	7946.97
663.289	8047.32
663.481	8008.41
663.673	8032.99
663.864	7961.31
664.056	8063.71
664.247	7824.09
664.439	7895.77
664.631	7764.7
664.822	7713.5
665.014	7707.36
665.205	7643.87
665.397	7561.95
665.588	7525.09
665.78	7576.29
665.971	7453.41
666.163	7672.54
666.354	7361.25
666.546	7404.26
666.737	7340.77
666.929	7430.88
667.12	7230.18
667.311	7199.46
667.503	7176.94
667.694	7152.36
667.885	7002.86
668.077	7080.68
668.268	7015.15
668.459	7246.57
668.651	7164.65
668.842	6828.78
669.033	6886.12
669.224	6947.56
669.416	6945.52
669.607	6732.53
669.798	6697.71
669.989	6806.25
670.18	6763.25
670.371	6660.85
670.563	6763.25
670.754	6789.87
670.945	6574.83
671.136	6599.41
671.327	6583.02
671.518	6585.07
671.709	6537.97
671.9	6599.41
672.091	6396.66
672.282	6492.91
672.473	6370.04
672.664	6558.45
672.855	6345.46
673.046	6386.42
673.237	6454
673.428	6300.41
673.619	6206.2
673.809	6167.29
674	6152.95
674.191	6122.23
674.382	6107.9
674.573	6214.39
674.764	6165.24
674.954	6230.77
675.145	6073.08
675.336	5933.82
675.527	5921.53
675.717	6216.44
675.908	5909.24
676.099	5856
676.289	5929.72
676.48	5843.71
676.671	5946.11
676.861	5808.89
677.052	5741.31
677.243	5780.22
677.433	5757.69
677.624	5726.97
677.814	5716.73
678.005	5712.64
678.195	5796.6
678.386	5591.81
678.576	5606.14
678.767	5518.08
678.957	5714.69
679.148	5591.81
679.338	5612.29
679.529	5530.37
679.719	5577.47
679.909	5505.79
680.1	5397.25
680.29	5518.08
680.481	5479.17
680.671	5505.79
680.861	5591.81
681.052	5370.63
681.242	5448.45
681.432	5542.66
681.622	5372.68
681.813	5249.8
682.003	5436.16
682.193	5307.14
682.383	5397.25
682.573	5194.5
682.764	5272.32
682.954	5208.84
683.144	5192.45
683.334	5192.45
683.524	5243.65
683.714	5165.83
683.904	5143.3
684.094	5100.3
684.284	5151.49
684.474	5190.41
684.664	5219.08
684.854	4961.03
685.044	5133.06
685.234	5028.62
685.424	5088.01
685.614	4985.61
685.804	5051.14
685.994	4885.26
686.184	4907.79
686.374	4922.12
686.564	4829.96
686.753	4864.78
686.943	4713.23
687.133	4723.47
687.323	4870.92
687.513	4899.59
687.702	4662.03
687.892	4715.28
688.082	4821.77
688.272	4789
688.461	4678.41
688.651	4604.69
688.841	4561.68
689.03	4592.4
689.22	4741.9
689.41	4666.13
689.599	4651.79
689.789	4698.89
689.979	4442.9
690.168	4479.76
690.358	4520.72
690.547	4412.18
690.737	4442.9
690.926	4420.37
691.116	4285.2
691.305	4438.8
691.495	4330.26
691.684	4285.2
691.874	4379.41
692.063	4229.91
692.252	4387.6
692.442	4301.59
692.631	4240.15
692.82	4100.89
693.01	4289.3
693.199	4266.77
693.388	4109.08
693.578	4129.56
693.767	4231.96
693.956	4041.5
694.146	4084.5
694.335	4102.93
694.524	4176.66
694.713	4082.46
694.902	4184.85
695.092	4125.46
695.281	4145.94
695.47	4072.22
695.659	4021.02
695.848	4045.59
696.037	4035.35
696.226	4070.17
696.415	3986.2
696.604	3889.95
696.793	4096.79
696.982	4010.78
697.171	3871.51
697.36	4045.59
697.549	3838.75
697.738	3881.75
697.927	3838.75
698.116	3857.18
698.305	3932.95
698.494	3887.9
698.683	3846.94
698.872	3865.37
699.061	3873.56
699.25	3867.42
699.438	3769.12
699.627	3629.85
699.816	3848.99
700.005	3719.96
700.193	3656.48
700.382	3777.31
700.571	3728.16
700.76	3644.19
700.948	3664.67
701.137	3719.96
701.326	3765.02
701.514	3537.7
701.703	3736.35
701.892	3748.64
702.08	3756.83
702.269	3703.58
702.457	3617.57
702.646	3613.47
702.834	3568.41
703.023	3611.42
703.212	3590.94
703.4	3658.53
703.589	3529.5
703.777	3537.7
703.965	3679.01
704.154	3502.88
704.342	3580.7
704.531	3521.31
704.719	3537.7
704.907	3584.8
705.096	3519.26
705.284	3447.58
705.472	3498.78
705.661	3410.72
705.849	3482.4
706.037	3330.85
706.226	3537.7
706.414	3488.54
706.602	3431.2
706.79	3453.73
706.979	3402.53
707.167	3439.39
707.355	3537.7
707.543	3334.95
707.731	3398.43
707.919	3320.61
708.107	3449.63
708.296	3461.92
708.484	3341.09
708.672	3300.13
708.86	3259.17
709.048	3328.8
709.236	3308.32
709.424	3285.8
709.612	3281.7
709.8	3230.5
709.988	3220.26
710.176	3142.44
710.364	3226.4
710.551	3357.47
710.739	3124.01
710.927	3283.75
711.115	3130.15
711.303	3222.31
711.491	3037.99
711.679	3191.59
711.866	3218.21
712.054	3232.55
712.242	3074.85
712.43	3265.32
712.617	3134.25
712.805	3076.9
712.993	3093.29
713.181	3121.96
713.368	3119.91
713.556	3148.58
713.744	2990.89
713.931	3191.59
714.119	3007.27
714.306	3126.05
714.494	3121.96
714.682	3060.52
714.869	3148.58
715.057	3025.7
715.244	3140.39
715.432	3035.94
715.619	2994.98
715.807	2972.46
715.994	3085.09
716.182	2908.97
716.369	3060.52
716.556	3013.42
716.744	2935.59
716.931	2833.19
717.119	2923.3
717.306	2949.93
717.493	2796.33
717.681	2831.15
717.868	2921.26
718.055	2855.72
718.242	2861.87
718.43	2888.49
718.617	2876.2
718.804	2896.68
718.991	2720.56
719.179	2829.1
719.366	2802.47
719.553	2798.38
719.74	2741.04
719.927	2745.13
720.114	2745.13
720.301	2759.47
720.488	2677.55
720.676	2759.47
720.863	2831.15
721.05	2769.71
721.237	2806.57
721.424	2667.31
721.611	2745.13
721.798	2644.78
721.985	2757.42
722.172	2679.6
722.358	2704.17
722.545	2655.02
722.732	2765.61
722.919	2673.45
723.106	2706.22
723.293	2601.77
723.48	2655.02
723.667	2605.87
723.853	2655.02
724.04	2681.64
724.227	2661.16
724.414	2794.28
724.6	2597.68
724.787	2671.4
724.974	2573.1
725.161	2544.43
725.347	2558.77
725.534	2667.31
725.72	2587.44
725.907	2620.21
726.094	2612.01
726.28	2458.42
726.467	2409.26
726.653	2528.05
726.84	2603.82
727.027	2634.54
727.213	2503.47
727.4	2571.05
727.586	2417.46
727.773	2519.85
727.959	2439.98
728.145	2478.9
728.332	2544.43
728.518	2487.09
728.705	2466.61
728.891	2474.8
729.077	2421.55
729.264	2370.35
729.45	2497.33
729.636	2407.22
729.823	2462.51
730.009	2474.8
730.195	2349.87
730.382	2394.93
730.568	2384.69
730.754	2452.27
730.94	2409.26
731.126	2458.42
731.313	2370.35
731.499	2435.89
731.685	2407.22
731.871	2337.59
732.057	2419.5
732.243	2415.41
732.429	2343.73
732.615	2323.25
732.801	2386.74
732.987	2276.15
733.173	2257.71
733.359	2325.3
733.545	2267.95
733.731	2278.19
733.917	2183.99
734.103	2284.34
734.289	2345.78
734.475	2366.26
734.661	2349.87
734.847	2360.11
735.033	2245.43
735.219	2315.06
735.404	2190.13
735.59	2183.99
735.776	2229.04
735.962	2204.47
736.148	2229.04
736.333	2368.31
736.519	2202.42
736.705	2227
736.89	2216.76
737.076	2122.55
737.262	2171.7
737.447	2161.46
737.633	2097.97
737.819	2192.18
738.004	2159.41
738.19	2200.37
738.375	2143.03
738.561	2224.95
738.747	2057.01
738.932	1938.23
739.118	2073.4
739.303	2081.59
739.489	2104.12
739.674	2048.82
739.859	2001.72
740.045	2093.88
740.23	2147.12
740.416	1913.66
740.601	2036.53
740.786	2036.53
740.972	2046.77
741.157	2073.4
741.342	2134.84
741.528	1948.47
741.713	2005.81
741.898	2046.77
742.084	1950.52
742.269	1899.32
742.454	1946.42
742.639	2050.87
742.824	2057.01
743.01	1825.59
743.195	1858.36
743.38	1917.75
743.565	1979.19
743.75	1907.51
743.935	1862.46
744.12	1971
744.305	1893.18
744.49	1780.54
744.675	1848.12
744.86	1882.94
745.045	1878.84
745.23	1862.46
745.415	1651.52
745.6	1772.35
745.785	1774.39
745.97	1807.16
746.155	1858.36
746.34	1839.93
746.525	1786.68
746.71	1844.03
746.895	1667.9
747.079	1739.58
747.264	1610.56
747.449	1717.05
747.634	1723.2
747.819	1729.34
748.003	1641.28
748.188	1657.66
748.373	1659.71
748.557	1747.77
748.742	1553.21
748.927	1690.43
749.111	1758.01
749.296	1614.65
749.481	1676.09
749.665	1559.36
749.85	1463.1
750.034	1424.19
750.219	1618.75
750.404	1532.73
750.588	1497.92
750.773	1489.73
750.957	1356.61
751.141	1520.45
751.326	1407.81
751.51	1528.64
751.695	1454.91
751.879	1538.88
752.064	1518.4
752.248	1446.72
752.432	1456.96
752.617	1499.97
752.801	1471.29
752.985	1428.29
753.17	1360.7
753.354	1344.32
753.538	1422.14
753.722	1372.99
753.907	1258.31
754.091	1401.66
754.275	1358.66
754.459	1266.5
754.643	1272.64
754.828	1362.75
755.012	1246.02
755.196	1250.11
755.38	1284.93
755.564	1276.74
755.748	1194.82
755.932	1194.82
756.116	1311.55
756.3	1217.35
756.484	1231.68
756.668	1239.87
756.852	1203.01
757.036	1243.97
757.22	1178.44
757.404	1100.61
757.588	1076.04
757.772	1160
757.956	1153.86
758.14	1102.66
758.323	1119.04
758.507	1082.18
758.691	1172.29
758.875	1102.66
759.059	1102.66
759.242	1100.61
759.426	1114.95
759.61	1119.04
759.794	1035.08
759.977	1110.85
760.161	1049.41
760.345	1055.56
760.528	1078.08
760.712	1014.6
760.895	1043.27
761.079	963.4
761.263	981.83
761.446	1008.45
761.63	1041.22
761.813	985.93
761.997	908.1
762.18	1022.79
762.364	985.93
762.547	985.93
762.731	1002.31
762.914	1010.5
763.098	987.97
763.281	1008.45
763.464	979.78
763.648	854.86
763.831	949.06
764.015	963.4
764.198	930.63
764.381	922.44
764.564	912.2
764.748	971.59
764.931	883.53
765.114	867.14
765.297	977.73
765.481	901.96
765.664	916.3
765.847	924.49
766.03	918.34
766.213	834.38
766.397	920.39
766.58	850.76
766.763	897.86
766.946	914.25
767.129	834.38
767.312	895.82
767.495	813.9
767.678	744.27
767.861	951.11
768.044	858.95
768.227	811.85
768.41	815.94
768.593	924.49
768.776	826.18
768.959	897.86
769.142	971.59
769.324	858.95
769.507	912.2
769.69	854.86
769.873	813.9
770.056	774.99
770.239	809.8
770.421	877.38
770.604	863.05
770.787	799.56
770.97	787.27
771.152	701.26
771.335	785.23
771.518	803.66
771.7	815.94
771.883	842.57
772.066	815.94
772.248	783.18
772.431	703.31
772.613	760.65
772.796	803.66
772.978	807.75
773.161	740.17
773.343	705.35
773.526	750.41
773.708	701.26
773.891	727.88
774.073	709.45
774.256	672.59
774.438	723.79
774.621	641.87
774.803	701.26
774.985	711.5
775.168	693.07
775.35	701.26
775.532	734.03
775.715	680.78
775.897	641.87
776.079	717.64
776.261	686.92
776.444	619.34
776.626	660.3
776.808	693.07
776.99	627.53
777.173	645.96
777.355	668.49
777.537	703.31
777.719	725.83
777.901	627.53
778.083	605
778.265	615.24
778.447	697.16
778.629	676.68
778.811	611.15
778.993	607.05
779.175	688.97
779.357	574.28
779.539	594.76
779.721	586.57
779.903	564.04
780.085	529.23
780.267	602.96
780.449	533.33
780.631	605
780.812	523.09
780.994	564.04
781.176	514.89
781.358	582.48
781.54	523.09
781.721	490.32
781.903	584.52
782.085	512.85
782.267	504.65
782.448	521.04
782.63	504.65
782.812	426.83
782.993	471.89
783.175	549.71
783.357	439.12
783.538	553.8
783.72	494.41
783.901	426.83
784.083	529.23
784.264	504.65
784.446	471.89
784.627	424.78
784.809	531.28
784.99	496.46
785.172	422.73
785.353	432.97
785.535	494.41
785.716	430.93
785.897	383.82
786.079	529.23
786.26	394.06
786.441	416.59
786.623	342.86
786.804	406.35
786.985	416.59
787.167	308.05
787.348	398.16
787.529	418.64
787.71	459.6
787.891	351.06
788.073	375.63
788.254	412.5
788.435	473.93
788.616	334.67
788.797	291.66
788.978	447.31
789.159	316.24
789.34	398.16
789.522	359.25
789.703	332.62
789.884	277.33
790.065	349.01
790.246	371.54
790.427	402.26
790.607	377.68
790.788	394.06
790.969	365.39
791.15	400.21
791.331	426.83
791.512	402.26
791.693	230.23
791.874	365.39
792.054	389.97
792.235	367.44
792.416	314.19
792.597	283.47
792.778	279.38
792.958	357.2
793.139	308.05
793.32	271.19
793.5	275.28
793.681	265.04
793.862	381.78
794.042	303.95
794.223	299.86
794.404	236.37
794.584	275.28
794.765	308.05
794.945	236.37
795.126	308.05
795.306	217.94
795.487	332.62
795.667	283.47
795.848	330.58
796.028	258.9
796.209	217.94
796.389	262.99
796.57	357.2
796.75	260.95
796.93	320.34
797.111	260.95
797.291	250.71
797.471	234.32
797.652	252.75
797.832	254.8
798.012	295.76
798.192	287.57
798.373	303.95
798.553	260.95
798.733	306
798.913	172.88
799.093	232.27
799.274	238.42
799.454	254.8
799.634	179.03
799.814	275.28
799.994	265.04
800.174	197.46
800.354	224.08
800.534	213.84
800.714	285.52
800.894	164.69
801.074	217.94
801.254	265.04
801.434	222.03
801.614	226.13
801.794	232.27
801.974	766.79
802.154	222.03
802.334	258.9
802.514	260.95
802.693	189.27
802.873	217.94
803.053	242.51
803.233	164.69
803.413	201.55
803.592	213.84
803.772	222.03
803.952	242.51
804.131	174.93
804.311	199.51
804.491	242.51
804.67	162.64
804.85	176.98
805.03	123.73
805.209	267.09
805.389	207.7
805.568	138.07
805.748	252.75
805.928	269.14
806.107	222.03
806.287	185.17
806.466	136.02
806.646	187.22
806.825	240.47
807.004	160.59
807.184	172.88
807.363	228.18
807.543	138.07
807.722	209.75
807.901	258.9
808.081	246.61
808.26	93.01
808.439	262.99
808.619	250.71
808.798	144.21
808.977	209.75
809.156	254.8
809.336	162.64
809.515	193.36
809.694	82.77
809.873	228.18
810.052	232.27
810.231	209.75
810.411	148.31
810.59	123.73
810.769	140.12
810.948	222.03
811.127	138.07
811.306	121.68
811.485	230.23
811.664	230.23
811.843	174.93
812.022	152.4
812.201	179.03
812.38	121.68
812.559	170.83
812.737	230.23
812.916	123.73
813.095	142.16
813.274	187.22
813.453	179.03
813.632	222.03
813.811	217.94
813.989	129.88
814.168	144.21
814.347	121.68
814.526	105.3
814.704	201.55
814.883	205.65
815.062	203.6
815.24	136.02
815.419	97.11
815.598	226.13
815.776	133.97
815.955	158.55
816.133	123.73
816.312	123.73
816.49	164.69
816.669	142.16
816.847	119.64
817.026	144.21
817.204	82.77
817.383	97.11
817.561	176.98
817.74	115.54
817.918	95.06
818.097	138.07
818.275	138.07
818.453	70.48
818.632	131.92
818.81	127.83
818.988	78.68
819.167	103.25
819.345	125.78
819.523	160.59
819.701	129.88
819.879	101.2
820.058	170.83
820.236	127.83
820.414	84.82
820.592	127.83
820.77	154.45
820.948	111.44
821.127	107.35
821.305	95.06
821.483	37.72
821.661	136.02
821.839	127.83
822.017	172.88
822.195	129.88
822.373	111.44
822.551	99.16
822.729	146.26
822.907	136.02
823.085	31.57
823.262	62.29
823.44	107.35
823.618	90.96
823.796	136.02
823.974	82.77
824.152	66.39
824.329	117.59
824.507	119.64
824.685	156.5
824.863	56.15
825.04	107.35
825.218	97.11
825.396	70.48
825.574	82.77
825.751	86.87
825.929	95.06
826.107	113.49
826.284	129.88
826.462	129.88
826.639	88.92
826.817	129.88
826.994	80.72
827.172	-5.29
827.349	82.77
827.527	37.72
827.704	103.25
827.882	72.53
828.059	62.29
828.237	90.96
828.414	33.62
828.591	7
828.769	115.54
828.946	111.44
829.124	70.48
829.301	78.68
829.478	56.15
829.655	119.64
829.833	123.73
830.01	47.96
830.187	66.39
830.364	-5.29
830.542	52.05
830.719	97.11
830.896	193.36
831.073	70.48
831.25	54.1
831.427	47.96
831.604	50
831.782	88.92
831.959	72.53
832.136	29.52
832.313	115.54
832.49	127.83
832.667	-1.19
832.844	70.48
833.021	140.12
833.198	56.15
833.374	121.68
833.551	56.15
833.728	62.29
833.905	144.21
834.082	60.24
834.259	78.68
834.436	127.83
834.612	64.34
834.789	123.73
834.966	66.39
835.143	95.06
835.319	99.16
835.496	54.1
835.673	0.85
835.85	136.02
836.026	136.02
836.203	88.92
836.38	86.87
836.556	56.15
836.733	45.91
836.909	121.68
837.086	17.24
837.262	29.52
837.439	115.54
837.616	4.95
837.792	-19.63
837.968	62.29
838.145	58.2
838.321	9.05
838.498	62.29
838.674	103.25
838.851	11.09
839.027	45.91
839.203	-9.39
839.38	62.29
839.556	113.49
839.732	74.58
839.909	62.29
840.085	58.2
840.261	54.1
840.437	127.83
840.614	45.91
840.79	39.76
840.966	82.77
841.142	82.77
841.318	31.57
841.494	123.73
841.671	99.16
841.847	-7.34
842.023	9.05
842.199	47.96
842.375	62.29
842.551	80.72
842.727	-3.24
842.903	80.72
843.079	72.53
843.255	58.2
843.431	74.58
843.607	82.77
843.783	15.19
843.959	119.64
844.134	54.1
844.31	142.16
844.486	70.48
844.662	21.33
844.838	37.72
845.013	31.57
845.189	66.39
845.365	88.92
845.541	-3.24
845.716	78.68
845.892	84.82
846.068	43.86
846.244	107.35
846.419	82.77
846.595	60.24
846.77	41.81
846.946	150.36
847.122	23.38
847.297	105.3
847.473	41.81
847.648	-23.72
847.824	70.48
847.999	-29.87
848.175	70.48
848.35	60.24
848.526	148.31
848.701	50
848.876	66.39
849.052	93.01
849.227	43.86
849.403	21.33
849.578	39.76
849.753	84.82
849.929	82.77
850.104	111.44
850.279	31.57
850.454	23.38
850.63	4.95
850.805	54.1
850.98	72.53
851.155	31.57
851.33	37.72
851.505	-3.24
851.681	136.02
851.856	47.96
852.031	45.91
852.206	68.44
852.381	-42.15
852.556	-1.19
852.731	84.82
852.906	58.2
853.081	56.15
853.256	7
853.431	66.39
853.606	70.48
853.781	39.76
853.956	13.14
854.131	74.58
854.305	0.85
854.48	-9.39
854.655	0.85
854.83	2.9
855.005	97.11
855.18	146.26
855.354	70.48
855.529	-21.67
855.704	-7.34
855.879	21.33
856.053	29.52
856.228	37.72
856.403	82.77
856.577	62.29
856.752	21.33
856.926	62.29
857.101	17.24
857.276	129.88
857.45	54.1
857.625	56.15
857.799	60.24
857.974	-15.53
858.148	-13.48
858.323	9.05
858.497	-40.11
858.672	64.34
858.846	-9.39
859.02	74.58
859.195	-31.91
859.369	-19.63
859.543	-19.63
859.718	-1.19
859.892	66.39
860.066	60.24
860.241	105.3
860.415	-36.01
860.589	-3.24
860.763	82.77
860.938	-25.77
861.112	33.62
861.286	-1.19
861.46	37.72
861.634	0.85
861.808	78.68
861.982	-3.24
862.157	66.39
862.331	7
862.505	11.09
862.679	-81.07
862.853	-11.43
863.027	58.2
863.201	76.63
863.375	-23.72
863.549	47.96
863.722	-19.63
863.896	97.11
864.07	54.1
864.244	23.38
864.418	33.62
864.592	0.85
864.766	-48.3
864.939	95.06
865.113	-11.43
865.287	93.01
865.461	45.91
865.634	74.58
865.808	62.29
865.982	-38.06
866.156	-11.43
866.329	-33.96
866.503	84.82
866.676	-11.43
866.85	56.15
867.024	-21.67
867.197	84.82
867.371	9.05
867.544	-29.87
867.718	-7.34
867.891	-3.24
868.065	4.95
868.238	29.52
868.412	9.05
868.585	7
868.759	78.68
868.932	4.95
869.105	62.29
869.279	82.77
869.452	-50.35
869.625	23.38
869.799	0.85
869.972	-1.19
870.145	7
870.319	37.72
870.492	33.62
870.665	41.81
870.838	72.53
871.011	-36.01
871.185	54.1
871.358	-11.43
871.531	-3.24
871.704	19.29
871.877	-27.82
872.05	-5.29
872.223	29.52
872.396	-7.34
872.569	99.16
872.742	-48.3
872.915	78.68
873.088	9.05
873.261	23.38
873.434	103.25
873.607	13.14
873.78	-23.72
873.953	23.38
874.126	27.48
874.299	45.91
874.471	21.33
874.644	9.05
874.817	-3.24
874.99	37.72
875.163	50
875.335	39.76
875.508	-19.63
875.681	13.14
875.853	39.76
876.026	7
876.199	-17.58
876.371	-33.96
876.544	35.67
876.717	88.92
876.889	-52.39
877.062	47.96
877.234	-3.24
877.407	4.95
877.579	-3.24
877.752	33.62
877.924	31.57
878.097	-27.82
878.269	13.14
878.442	45.91
878.614	76.63
878.786	84.82
878.959	-36.01
879.131	29.52
879.303	45.91
879.476	-11.43
879.648	27.48
879.82	-7.34
879.993	-3.24
880.165	-40.11
880.337	23.38
880.509	13.14
880.681	-21.67
880.854	-29.87
881.026	-46.25
881.198	72.53
881.37	58.2
881.542	-17.58
881.714	-50.35
881.886	9.05
882.058	27.48
882.23	54.1
882.402	7
882.574	13.14
882.746	45.91
882.918	62.29
883.09	62.29
883.262	35.67
883.434	39.76
883.606	37.72
883.778	-89.26
883.95	99.16
884.122	31.57
884.293	4.95
884.465	93.01
884.637	-9.39
884.809	-56.49
884.98	21.33
885.152	64.34
885.324	54.1
885.496	9.05
885.667	-44.2
885.839	4.95
886.011	56.15
886.182	21.33
886.354	-3.24
886.525	33.62
886.697	35.67
886.869	-9.39
887.04	13.14
887.212	109.4
887.383	64.34
887.555	-60.59
887.726	-31.91
887.897	54.1
888.069	45.91
888.24	13.14
888.412	37.72
888.583	-21.67
888.754	-76.97
888.926	-81.07
889.097	33.62
889.268	-21.67
889.44	-1.19
889.611	-25.77
889.782	9.05
889.953	9.05
890.125	78.68
890.296	2.9
890.467	41.81
890.638	27.48
890.809	-50.35
890.98	-19.63
891.151	29.52
891.323	-36.01
891.494	72.53
891.665	2.9
891.836	29.52
892.007	17.24
892.178	9.05
892.349	31.57
892.52	15.19
892.691	93.01
892.862	50
893.032	35.67
893.203	-17.58
893.374	39.76
893.545	13.14
893.716	-7.34
893.887	-33.96
894.057	21.33
894.228	15.19
894.399	2.9
894.57	31.57
894.74	-13.48
894.911	54.1
895.082	-21.67
895.253	7
895.423	-27.82
895.594	-48.3
895.764	-5.29
895.935	31.57
896.106	19.29
896.276	-27.82
896.447	-7.34
896.617	-36.01
896.788	-3.24
896.958	-9.39
897.129	62.29
897.299	-64.68
897.47	86.87
897.64	29.52
897.81	-7.34
897.981	56.15
898.151	-11.43
898.322	9.05
898.492	2.9
898.662	-1.19
898.832	41.81
899.003	17.24
899.173	27.48
899.343	-52.39
899.513	-48.3
