Data from USB4F104151__39__14-16-41-208.txt Node

Date: Thu Mar 13 14:16:41 EDT 2025
User: louis
Spectrometer: USB4F10415
Trigger mode: 4
Integration Time (sec): 2.000000E-2
Scans to average: 1
Electric dark correction enabled: true
Nonlinearity correction enabled: false
Boxcar width: 0
XAxis mode: Wavelengths
Number of Pixels in Spectrum: 3648
>>>>>Begin Spectral Data<<<<<
178.204	-118.1
178.424	-118.1
178.644	-118.1
178.864	-118.1
179.084	-85.33
179.304	-3.41
179.524	-75.09
179.744	-3.41
179.964	-7.51
180.184	58.03
180.404	47.79
180.624	31.4
180.844	-44.37
181.064	-25.94
181.283	-21.84
181.503	15.02
181.723	29.35
181.943	-60.76
182.163	127.66
182.383	78.51
182.602	-50.52
182.822	62.12
183.042	62.12
183.262	88.75
183.482	62.12
183.701	31.4
183.921	98.99
184.141	-19.8
184.361	115.37
184.58	0.68
184.8	29.35
185.02	37.55
185.239	37.55
185.459	72.36
185.679	70.31
185.898	45.74
186.118	58.03
186.338	15.02
186.557	45.74
186.777	21.16
186.997	-42.32
187.216	21.16
187.436	115.37
187.655	96.94
187.875	29.35
188.095	-17.75
188.314	-3.41
188.534	92.84
188.753	12.97
188.973	74.41
189.192	35.5
189.412	131.75
189.631	-9.56
189.851	107.18
190.07	113.32
190.29	-19.8
190.509	6.83
190.729	-34.13
190.948	17.07
191.168	150.18
191.387	82.6
191.607	51.88
191.826	43.69
192.045	-3.41
192.265	6.83
192.484	37.55
192.704	45.74
192.923	-19.8
193.142	80.55
193.362	88.75
193.581	47.79
193.8	2.73
194.02	70.31
194.239	-36.18
194.458	78.51
194.678	8.87
194.897	-30.04
195.116	29.35
195.335	29.35
195.555	53.93
195.774	-36.18
195.993	12.97
196.212	31.4
196.432	12.97
196.651	86.7
196.87	-19.8
197.089	41.64
197.308	45.74
197.528	55.98
197.747	-44.37
197.966	-3.41
198.185	53.93
198.404	4.78
198.623	68.27
198.842	45.74
199.062	107.18
199.281	96.94
199.5	41.64
199.719	53.93
199.938	53.93
200.157	86.7
200.376	58.03
200.595	8.87
200.814	29.35
201.033	17.07
201.252	92.84
201.471	4.78
201.69	53.93
201.909	-15.7
202.128	31.4
202.347	103.08
202.566	78.51
202.785	55.98
203.004	33.45
203.223	96.94
203.442	74.41
203.661	45.74
203.879	94.89
204.098	39.59
204.317	-19.8
204.536	53.93
204.755	37.55
204.974	53.93
205.193	8.87
205.411	135.85
205.63	49.83
205.849	23.21
206.068	-15.7
206.287	41.64
206.505	66.22
206.724	72.36
206.943	47.79
207.162	88.75
207.381	35.5
207.599	12.97
207.818	12.97
208.037	8.87
208.255	-21.84
208.474	86.7
208.693	66.22
208.911	-11.61
209.13	119.46
209.349	31.4
209.567	45.74
209.786	12.97
210.005	135.85
210.223	103.08
210.442	-44.37
210.661	70.31
210.879	82.6
211.098	103.08
211.316	127.66
211.535	45.74
211.753	41.64
211.972	88.75
212.191	0.68
212.409	72.36
212.628	-9.56
212.846	19.11
213.065	23.21
213.283	66.22
213.502	31.4
213.72	55.98
213.938	45.74
214.157	72.36
214.375	78.51
214.594	23.21
214.812	53.93
215.031	80.55
215.249	70.31
215.467	8.87
215.686	72.36
215.904	103.08
216.122	-30.04
216.341	88.75
216.559	74.41
216.778	19.11
216.996	12.97
217.214	-54.61
217.432	15.02
217.651	21.16
217.869	29.35
218.087	-27.99
218.306	41.64
218.524	121.51
218.742	70.31
218.96	49.83
219.179	62.12
219.397	-9.56
219.615	86.7
219.833	8.87
220.051	4.78
220.27	94.89
220.488	23.21
220.706	8.87
220.924	-40.28
221.142	84.65
221.36	43.69
221.578	15.02
221.796	-7.51
222.015	49.83
222.233	53.93
222.451	41.64
222.669	17.07
222.887	84.65
223.105	-77.14
223.323	17.07
223.541	29.35
223.759	66.22
223.977	37.55
224.195	90.79
224.413	2.73
224.631	96.94
224.849	101.03
225.067	185
225.285	41.64
225.503	15.02
225.721	74.41
225.939	74.41
226.157	15.02
226.375	82.6
226.592	-11.61
226.81	86.7
227.028	31.4
227.246	37.55
227.464	-42.32
227.682	62.12
227.9	49.83
228.117	39.59
228.335	49.83
228.553	23.21
228.771	4.78
228.989	109.23
229.206	37.55
229.424	33.45
229.642	45.74
229.86	-5.46
230.077	29.35
230.295	45.74
230.513	4.78
230.731	111.27
230.948	74.41
231.166	39.59
231.384	78.51
231.601	90.79
231.819	86.7
232.037	-11.61
232.254	-19.8
232.472	66.22
232.689	2.73
232.907	0.68
233.125	49.83
233.342	78.51
233.56	70.31
233.777	51.88
233.995	12.97
234.213	74.41
234.43	88.75
234.648	113.32
234.865	58.03
235.083	45.74
235.3	39.59
235.518	51.88
235.735	45.74
235.953	51.88
236.17	53.93
236.388	27.31
236.605	41.64
236.822	92.84
237.04	45.74
237.257	12.97
237.475	-56.66
237.692	62.12
237.909	88.75
238.127	53.93
238.344	6.83
238.562	62.12
238.779	17.07
238.996	41.64
239.214	60.07
239.431	127.66
239.648	31.4
239.865	86.7
240.083	98.99
240.3	-19.8
240.517	-44.37
240.735	64.17
240.952	146.09
241.169	47.79
241.386	23.21
241.603	-1.37
241.821	51.88
242.038	37.55
242.255	6.83
242.472	58.03
242.689	41.64
242.907	72.36
243.124	0.68
243.341	21.16
243.558	17.07
243.775	15.02
243.992	80.55
244.209	39.59
244.426	58.03
244.643	-19.8
244.86	15.02
245.078	55.98
245.295	15.02
245.512	-3.41
245.729	74.41
245.946	86.7
246.163	29.35
246.38	43.69
246.597	49.83
246.814	31.4
247.031	64.17
247.248	15.02
247.464	15.02
247.681	6.83
247.898	70.31
248.115	47.79
248.332	29.35
248.549	98.99
248.766	98.99
248.983	12.97
249.2	8.87
249.417	58.03
249.633	49.83
249.85	82.6
250.067	70.31
250.284	8.87
250.501	58.03
250.717	43.69
250.934	29.35
251.151	29.35
251.368	60.07
251.585	94.89
251.801	39.59
252.018	-3.41
252.235	-3.41
252.451	8.87
252.668	49.83
252.885	49.83
253.102	66.22
253.318	17.07
253.535	64.17
253.752	-42.32
253.968	29.35
254.185	64.17
254.401	17.07
254.618	35.5
254.835	64.17
255.051	119.46
255.268	29.35
255.484	12.97
255.701	39.59
255.917	88.75
256.134	49.83
256.351	23.21
256.567	33.45
256.784	45.74
257	0.68
257.217	53.93
257.433	86.7
257.65	31.4
257.866	62.12
258.082	-21.84
258.299	51.88
258.515	37.55
258.732	39.59
258.948	55.98
259.165	39.59
259.381	-3.41
259.597	37.55
259.814	60.07
260.03	4.78
260.246	45.74
260.463	53.93
260.679	47.79
260.895	27.31
261.112	152.23
261.328	-23.89
261.544	-19.8
261.761	127.66
261.977	-34.13
262.193	6.83
262.409	86.7
262.626	25.26
262.842	6.83
263.058	29.35
263.274	62.12
263.49	53.93
263.707	39.59
263.923	41.64
264.139	51.88
264.355	12.97
264.571	72.36
264.787	17.07
265.004	25.26
265.22	-7.51
265.436	-17.75
265.652	6.83
265.868	60.07
266.084	60.07
266.3	-13.65
266.516	-7.51
266.732	37.55
266.948	45.74
267.164	-11.61
267.38	47.79
267.596	21.16
267.812	135.85
268.028	113.32
268.244	74.41
268.46	115.37
268.676	115.37
268.892	41.64
269.108	43.69
269.324	-27.99
269.54	27.31
269.756	53.93
269.972	2.73
270.188	17.07
270.403	-9.56
270.619	17.07
270.835	21.16
271.051	4.78
271.267	-5.46
271.483	78.51
271.698	25.26
271.914	58.03
272.13	35.5
272.346	31.4
272.562	-40.28
272.777	21.16
272.993	2.73
273.209	21.16
273.425	103.08
273.64	6.83
273.856	15.02
274.072	0.68
274.287	27.31
274.503	103.08
274.719	12.97
274.934	45.74
275.15	4.78
275.366	-9.56
275.581	10.92
275.797	-11.61
276.012	37.55
276.228	-3.41
276.444	70.31
276.659	53.93
276.875	-15.7
277.09	29.35
277.306	137.9
277.521	78.51
277.737	-97.62
277.952	160.42
278.168	2.73
278.383	88.75
278.599	55.98
278.814	55.98
279.03	23.21
279.245	162.47
279.461	74.41
279.676	53.93
279.892	-54.61
280.107	-30.04
280.322	23.21
280.538	43.69
280.753	72.36
280.969	78.51
281.184	78.51
281.399	78.51
281.615	49.83
281.83	27.31
282.045	21.16
282.26	29.35
282.476	103.08
282.691	51.88
282.906	-13.65
283.122	111.27
283.337	-3.41
283.552	98.99
283.767	12.97
283.983	37.55
284.198	17.07
284.413	47.79
284.628	27.31
284.843	96.94
285.058	47.79
285.274	8.87
285.489	45.74
285.704	31.4
285.919	41.64
286.134	55.98
286.349	41.64
286.564	94.89
286.779	88.75
286.995	39.59
287.21	29.35
287.425	74.41
287.64	31.4
287.855	66.22
288.07	43.69
288.285	66.22
288.5	33.45
288.715	35.5
288.93	86.7
289.145	62.12
289.36	33.45
289.575	-7.51
289.79	70.31
290.004	-11.61
290.219	43.69
290.434	43.69
290.649	-25.94
290.864	60.07
291.079	131.75
291.294	45.74
291.509	80.55
291.724	101.03
291.938	86.7
292.153	37.55
292.368	-27.99
292.583	47.79
292.798	-7.51
293.012	12.97
293.227	66.22
293.442	-25.94
293.657	64.17
293.871	64.17
294.086	49.83
294.301	98.99
294.516	31.4
294.73	109.23
294.945	43.69
295.16	64.17
295.374	66.22
295.589	39.59
295.804	8.87
296.018	80.55
296.233	135.85
296.447	64.17
296.662	51.88
296.877	62.12
297.091	8.87
297.306	23.21
297.52	127.66
297.735	17.07
297.949	-19.8
298.164	23.21
298.378	39.59
298.593	53.93
298.807	-19.8
299.022	66.22
299.236	111.27
299.451	23.21
299.665	123.56
299.88	51.88
300.094	39.59
300.309	37.55
300.523	60.07
300.737	80.55
300.952	51.88
301.166	60.07
301.381	27.31
301.595	6.83
301.809	29.35
302.024	70.31
302.238	49.83
302.452	62.12
302.667	119.46
302.881	58.03
303.095	78.51
303.309	127.66
303.524	39.59
303.738	27.31
303.952	37.55
304.166	66.22
304.381	-23.89
304.595	39.59
304.809	29.35
305.023	82.6
305.237	66.22
305.452	66.22
305.666	-19.8
305.88	45.74
306.094	37.55
306.308	49.83
306.522	33.45
306.736	78.51
306.95	4.78
307.164	39.59
307.379	47.79
307.593	62.12
307.807	64.17
308.021	-5.46
308.235	66.22
308.449	29.35
308.663	39.59
308.877	72.36
309.091	60.07
309.305	29.35
309.519	33.45
309.733	94.89
309.947	70.31
310.161	-40.28
310.374	86.7
310.588	58.03
310.802	8.87
311.016	58.03
311.23	64.17
311.444	31.4
311.658	55.98
311.872	66.22
312.085	17.07
312.299	98.99
312.513	74.41
312.727	55.98
312.941	109.23
313.154	6.83
313.368	41.64
313.582	103.08
313.796	80.55
314.009	45.74
314.223	55.98
314.437	4.78
314.651	109.23
314.864	109.23
315.078	21.16
315.292	31.4
315.505	47.79
315.719	94.89
315.933	72.36
316.146	-27.99
316.36	-7.51
316.573	41.64
316.787	58.03
317.001	86.7
317.214	47.79
317.428	37.55
317.641	-1.37
317.855	88.75
318.068	-5.46
318.282	43.69
318.495	135.85
318.709	78.51
318.922	27.31
319.136	49.83
319.349	68.27
319.563	49.83
319.776	70.31
319.99	33.45
320.203	0.68
320.417	86.7
320.63	64.17
320.843	72.36
321.057	86.7
321.27	29.35
321.483	21.16
321.697	86.7
321.91	-1.37
322.124	47.79
322.337	49.83
322.55	23.21
322.763	10.92
322.977	64.17
323.19	8.87
323.403	-17.75
323.617	-9.56
323.83	70.31
324.043	-3.41
324.256	17.07
324.469	45.74
324.683	31.4
324.896	53.93
325.109	62.12
325.322	-34.13
325.535	90.79
325.748	62.12
325.962	78.51
326.175	53.93
326.388	41.64
326.601	58.03
326.814	152.23
327.027	23.21
327.24	72.36
327.453	12.97
327.666	78.51
327.879	39.59
328.092	45.74
328.305	29.35
328.518	-11.61
328.731	12.97
328.944	90.79
329.157	43.69
329.37	64.17
329.583	68.27
329.796	133.8
330.009	-52.56
330.222	98.99
330.435	78.51
330.648	78.51
330.861	90.79
331.073	31.4
331.286	66.22
331.499	49.83
331.712	-19.8
331.925	47.79
332.138	47.79
332.35	37.55
332.563	37.55
332.776	111.27
332.989	-3.41
333.202	37.55
333.414	10.92
333.627	4.78
333.84	101.03
334.053	107.18
334.265	70.31
334.478	17.07
334.691	51.88
334.903	41.64
335.116	53.93
335.329	58.03
335.541	70.31
335.754	12.97
335.966	-17.75
336.179	37.55
336.392	70.31
336.604	98.99
336.817	-11.61
337.029	92.84
337.242	58.03
337.454	88.75
337.667	94.89
337.88	74.41
338.092	4.78
338.305	53.93
338.517	-15.7
338.729	105.13
338.942	29.35
339.154	-15.7
339.367	58.03
339.579	47.79
339.792	66.22
340.004	113.32
340.217	41.64
340.429	37.55
340.641	29.35
340.854	0.68
341.066	15.02
341.278	137.9
341.491	80.55
341.703	12.97
341.915	-25.94
342.128	70.31
342.34	39.59
342.552	45.74
342.764	86.7
342.977	135.85
343.189	78.51
343.401	53.93
343.613	53.93
343.826	58.03
344.038	0.68
344.25	27.31
344.462	72.36
344.674	74.41
344.886	-11.61
345.099	33.45
345.311	51.88
345.523	41.64
345.735	4.78
345.947	45.74
346.159	4.78
346.371	90.79
346.583	-3.41
346.795	41.64
347.007	72.36
347.219	105.13
347.431	35.5
347.643	47.79
347.855	51.88
348.067	109.23
348.279	49.83
348.491	74.41
348.703	84.65
348.915	-3.41
349.127	60.07
349.339	103.08
349.551	64.17
349.763	98.99
349.975	74.41
350.187	41.64
350.399	49.83
350.61	64.17
350.822	37.55
351.034	96.94
351.246	58.03
351.458	-19.8
351.669	15.02
351.881	21.16
352.093	82.6
352.305	21.16
352.517	12.97
352.728	53.93
352.94	103.08
353.152	62.12
353.363	37.55
353.575	78.51
353.787	98.99
353.999	94.89
354.21	37.55
354.422	82.6
354.633	12.97
354.845	80.55
355.057	-30.04
355.268	49.83
355.48	-32.08
355.692	55.98
355.903	70.31
356.115	53.93
356.326	47.79
356.538	64.17
356.749	53.93
356.961	60.07
357.172	41.64
357.384	4.78
357.595	113.32
357.807	98.99
358.018	4.78
358.23	33.45
358.441	117.42
358.653	195.24
358.864	58.03
359.075	78.51
359.287	43.69
359.498	80.55
359.709	58.03
359.921	72.36
360.132	51.88
360.344	17.07
360.555	25.26
360.766	78.51
360.977	55.98
361.189	82.6
361.4	62.12
361.611	80.55
361.823	19.11
362.034	-3.41
362.245	2.73
362.456	74.41
362.667	17.07
362.879	90.79
363.09	125.61
363.301	62.12
363.512	70.31
363.723	-7.51
363.935	17.07
364.146	55.98
364.357	4.78
364.568	53.93
364.779	-11.61
364.99	146.09
365.201	105.13
365.412	66.22
365.623	-13.65
365.834	111.27
366.045	-1.37
366.256	60.07
366.467	58.03
366.678	33.45
366.889	70.31
367.1	94.89
367.311	113.32
367.522	27.31
367.733	53.93
367.944	37.55
368.155	37.55
368.366	107.18
368.577	121.51
368.788	107.18
368.999	12.97
369.209	96.94
369.42	148.14
369.631	98.99
369.842	113.32
370.053	25.26
370.264	113.32
370.474	96.94
370.685	68.27
370.896	86.7
371.107	90.79
371.317	131.75
371.528	-36.18
371.739	146.09
371.95	129.7
372.16	139.94
372.371	64.17
372.582	17.07
372.792	15.02
373.003	-11.61
373.214	70.31
373.424	96.94
373.635	12.97
373.846	66.22
374.056	45.74
374.267	-44.37
374.477	33.45
374.688	-25.94
374.898	82.6
375.109	115.37
375.319	2.73
375.53	37.55
375.74	66.22
375.951	51.88
376.161	70.31
376.372	164.52
376.582	37.55
376.793	-11.61
377.003	68.27
377.214	105.13
377.424	119.46
377.635	47.79
377.845	23.21
378.055	72.36
378.266	23.21
378.476	84.65
378.686	51.88
378.897	78.51
379.107	12.97
379.317	45.74
379.528	21.16
379.738	55.98
379.948	90.79
380.158	74.41
380.369	49.83
380.579	96.94
380.789	76.46
380.999	66.22
381.21	90.79
381.42	103.08
381.63	86.7
381.84	90.79
382.05	88.75
382.261	51.88
382.471	156.33
382.681	109.23
382.891	-3.41
383.101	119.46
383.311	58.03
383.521	-9.56
383.731	37.55
383.941	78.51
384.151	76.46
384.361	98.99
384.571	60.07
384.781	101.03
384.991	4.78
385.201	82.6
385.411	66.22
385.621	90.79
385.831	58.03
386.041	150.18
386.251	72.36
386.461	45.74
386.671	78.51
386.881	68.27
387.091	29.35
387.301	41.64
387.511	15.02
387.72	62.12
387.93	111.27
388.14	49.83
388.35	88.75
388.56	72.36
388.769	78.51
388.979	45.74
389.189	72.36
389.399	31.4
389.609	119.46
389.818	86.7
390.028	92.84
390.238	135.85
390.447	62.12
390.657	98.99
390.867	62.12
391.076	84.65
391.286	144.04
391.496	60.07
391.705	53.93
391.915	139.94
392.125	53.93
392.334	86.7
392.544	70.31
392.753	76.46
392.963	47.79
393.172	152.23
393.382	84.65
393.591	92.84
393.801	113.32
394.01	78.51
394.22	103.08
394.429	168.62
394.639	31.4
394.848	80.55
395.058	103.08
395.267	107.18
395.477	86.7
395.686	41.64
395.895	121.51
396.105	80.55
396.314	101.03
396.524	78.51
396.733	82.6
396.942	101.03
397.152	92.84
397.361	137.9
397.57	144.04
397.78	121.51
397.989	154.28
398.198	127.66
398.407	8.87
398.617	80.55
398.826	105.13
399.035	133.8
399.244	58.03
399.453	197.29
399.663	135.85
399.872	150.18
400.081	45.74
400.29	129.7
400.499	19.11
400.708	96.94
400.917	152.23
401.127	135.85
401.336	72.36
401.545	127.66
401.754	182.95
401.963	225.96
402.172	47.79
402.381	98.99
402.59	137.9
402.799	144.04
403.008	86.7
403.217	137.9
403.426	180.9
403.635	76.46
403.844	105.13
404.053	176.81
404.262	158.38
404.471	172.71
404.68	209.58
404.888	129.7
405.097	180.9
405.306	156.33
405.515	152.23
405.724	154.28
405.933	191.14
406.142	135.85
406.35	238.25
406.559	225.96
406.768	197.29
406.977	281.25
407.185	232.1
407.394	230.06
407.603	172.71
407.812	230.06
408.02	283.3
408.229	316.07
408.438	213.67
408.646	242.34
408.855	301.73
409.064	268.97
409.272	295.59
409.481	316.07
409.69	363.17
409.898	311.97
410.107	303.78
410.315	430.76
410.524	350.89
410.733	363.17
410.941	268.97
411.15	393.89
411.358	428.71
411.567	406.18
411.775	504.48
411.984	436.9
412.192	471.72
412.401	512.67
412.609	514.72
412.818	512.67
413.026	479.91
413.234	529.06
413.443	447.14
413.651	488.1
413.86	588.45
414.068	596.64
414.276	717.47
414.485	705.18
414.693	688.8
414.901	740
415.11	676.51
415.318	729.76
415.526	711.33
415.734	711.33
415.943	766.62
416.151	891.55
416.359	832.16
416.567	887.45
416.776	938.65
416.984	1022.62
417.192	979.61
417.4	1032.86
417.608	1045.15
417.817	1114.78
418.025	1131.16
418.233	1192.6
418.441	1227.42
418.649	1241.75
418.857	1352.34
419.065	1417.88
419.273	1307.29
419.481	1319.57
419.689	1481.36
419.897	1473.17
420.105	1346.2
420.313	1561.23
420.521	1555.09
420.729	1575.57
420.937	1688.21
421.145	1745.55
421.353	1804.94
421.561	1919.63
421.769	1903.25
421.977	2044.56
422.185	2028.17
422.393	2114.19
422.601	2220.68
422.809	2204.3
423.017	2316.94
423.224	2339.46
423.432	2443.91
423.64	2454.15
423.848	2728.58
424.056	2683.52
424.263	2828.93
424.471	2769.54
424.679	2962.05
424.887	2904.7
425.094	3140.22
425.302	3105.4
425.51	3234.43
425.718	3373.69
425.925	3414.65
426.133	3504.76
426.341	3701.36
426.548	3797.62
426.756	3682.93
426.964	3865.2
427.171	4180.59
427.379	4315.75
427.586	4381.29
427.794	4395.62
428.001	4641.38
428.209	5005.92
428.417	4723.3
428.624	4995.68
428.832	5151.32
429.039	5007.97
429.247	4948.58
429.454	5497.43
429.662	5868.11
429.869	5456.47
430.076	5962.32
430.284	5753.43
430.491	5943.89
430.699	6357.58
430.906	6394.44
431.114	6464.07
431.321	6664.77
431.528	6713.92
431.736	7144
431.943	7598.65
432.15	7383.61
432.358	7279.16
432.565	7625.27
432.772	7758.39
432.979	8106.54
433.187	8292.91
433.394	8370.73
433.601	8905.25
433.808	8935.97
434.016	8741.41
434.223	9257.5
434.43	9540.12
434.637	9525.79
434.844	10111.5
435.052	10330.64
435.259	10430.99
435.466	10656.26
435.673	10293.77
435.88	11065.86
436.087	11407.87
436.294	11653.62
436.501	11358.72
436.708	11485.69
436.915	11977.2
437.122	12286.45
437.329	12229.1
437.537	12810.73
437.743	12904.93
437.95	12896.74
438.157	13529.56
438.364	14045.65
438.571	14135.76
438.778	14000.6
438.985	15507.9
439.192	14668.23
439.399	15301.06
439.606	14897.61
439.813	16021.94
440.02	16769.45
440.227	16318.9
440.433	16269.75
440.64	16894.38
440.847	16894.38
441.054	17070.5
441.261	18207.12
441.467	17908.12
441.674	18373.01
441.881	19173.77
442.088	18772.36
442.294	19028.36
442.501	19239.3
442.708	19546.5
442.914	20535.67
443.121	21299.56
443.328	20572.53
443.534	21993.82
443.741	21651.81
443.948	21313.89
444.154	22847.82
444.361	22593.87
444.568	22712.66
444.774	22487.38
444.981	23394.63
445.187	23857.47
445.394	24381.75
445.6	24453.43
445.807	26458.39
446.013	25239.85
446.22	25889.06
446.426	27066.64
446.633	27220.24
446.839	28250.36
447.046	27080.97
447.252	28590.33
447.459	28270.84
447.665	28465.4
447.871	29919.46
448.078	30718.17
448.284	29565.16
448.491	30572.76
448.697	31275.21
448.903	32073.92
449.11	32196.8
449.316	31551.69
449.522	32067.78
449.728	33122.48
449.935	33058.99
450.141	32981.17
450.347	33798.31
450.553	33196.21
450.76	33378.48
450.966	34693.27
451.172	33859.75
451.378	34914.45
451.584	33933.48
451.791	35186.83
451.997	35006.61
452.203	35635.34
452.409	35594.38
452.615	35395.73
452.821	34021.54
453.027	33824.93
453.233	35645.58
453.44	34203.81
453.646	34416.8
453.852	34652.31
454.058	34922.65
454.264	34085.03
454.47	35422.35
454.676	33573.03
454.882	35283.09
455.088	31758.53
455.294	32469.18
455.5	33157.3
455.705	33579.18
455.911	32387.26
456.117	31627.46
456.323	30955.73
456.529	29456.62
456.735	30847.19
456.941	29872.35
457.147	29892.83
457.352	29018.35
457.558	28180.73
457.764	28344.57
457.97	28170.49
458.176	27347.21
458.381	27312.39
458.587	25760.03
458.793	26059.04
458.999	24709.43
459.204	26614.04
459.41	25764.13
459.616	24111.42
459.821	24039.74
460.027	23923.01
460.233	23417.16
460.438	22526.29
460.644	22597.97
460.85	21444.96
461.055	21283.17
461.261	21004.65
461.466	19626.37
461.672	18860.43
461.878	20234.61
462.083	19190.15
462.289	18913.67
462.494	18485.65
462.7	17865.11
462.905	17359.27
463.111	17797.53
463.316	17938.84
463.522	17396.13
463.727	17394.08
463.932	17398.18
464.138	17017.25
464.343	17318.31
464.549	16718.25
464.754	17652.13
464.959	17365.41
465.165	17084.84
465.37	16382.38
465.575	15872.44
465.781	16576.94
465.986	16705.96
466.191	15987.13
466.397	15636.92
466.602	15151.56
466.807	15583.68
467.012	15704.51
467.218	15638.97
467.423	15380.93
467.628	15464.89
467.833	16128.44
468.038	15630.78
468.244	14989.77
468.449	15509.95
468.654	15247.81
468.859	15092.16
469.064	15008.2
469.269	14172.63
469.474	14518.73
469.679	14543.31
469.885	14385.62
470.09	14422.48
470.295	14537.16
470.5	13988.31
470.705	14299.6
470.91	13902.29
471.115	13814.23
471.32	14016.98
471.525	13820.38
471.73	13533.66
471.935	13580.76
472.139	13234.66
472.344	13208.03
472.549	13195.75
472.754	13111.78
472.959	12866.02
473.164	12564.97
473.369	12286.45
473.574	12669.42
473.778	12556.78
473.983	12454.38
474.188	12442.09
474.393	11831.8
474.598	11907.57
474.802	11690.49
475.007	11592.19
475.212	11682.3
475.417	11135.49
475.621	11325.95
475.826	11291.13
476.031	11198.98
476.235	11057.67
476.44	11061.76
476.645	10992.13
476.849	10996.23
477.054	10633.74
477.259	10793.48
477.463	10584.59
477.668	10297.87
477.872	10433.04
478.077	10248.72
478.282	9933.33
478.486	10039.83
478.691	9853.46
478.895	9929.24
479.1	9880.08
479.304	9822.74
479.509	9552.41
479.713	9728.53
479.918	9452.06
480.122	9351.71
480.326	9560.6
480.531	9452.06
480.735	9388.57
480.94	9179.68
481.144	9562.65
481.348	9077.28
481.553	9167.39
481.757	9122.34
481.961	9312.8
482.166	9351.71
482.37	9282.08
482.574	8978.98
482.778	9034.27
482.983	9175.58
483.187	9206.3
483.391	9280.03
483.595	9110.05
483.8	8919.59
484.004	9173.53
484.208	9251.36
484.412	9159.2
484.616	9179.68
484.821	9146.91
485.025	8901.15
485.229	9157.15
485.433	9212.45
485.637	8940.07
485.841	9077.28
486.045	8999.46
486.249	9099.81
486.453	8935.97
486.657	9042.46
486.861	9097.76
487.065	8833.57
487.269	9026.08
487.473	8860.2
487.677	9046.56
487.881	9202.21
488.085	9064.99
488.289	9323.04
488.493	9062.94
488.697	9064.99
488.901	8872.48
489.105	9245.21
489.309	9128.48
489.512	9116.19
489.716	9142.82
489.92	9261.6
490.124	9079.33
490.328	9374.24
490.531	9458.2
490.735	9419.29
490.939	9224.73
491.143	9290.27
491.346	9224.73
491.55	9433.63
491.754	9273.89
491.958	9591.32
492.161	9599.51
492.365	9396.76
492.569	9501.21
492.772	9542.17
492.976	9609.75
493.18	9763.35
493.383	10033.68
493.587	9984.53
493.79	9914.9
493.994	9798.17
494.197	9968.15
494.401	10019.35
494.605	9906.71
494.808	10138.13
495.012	10183.18
495.215	10000.91
495.419	10555.91
495.622	10517
495.825	10709.51
496.029	10605.06
496.232	10818.05
496.436	10770.95
496.639	11104.77
496.843	10840.58
497.046	11170.3
497.249	11190.78
497.453	11377.15
497.656	11407.87
497.859	11663.86
498.063	11600.38
498.266	11751.93
498.469	11876.85
498.673	11815.41
498.876	12014.07
499.079	11936.24
499.282	11956.72
499.485	12591.59
499.689	12579.31
499.892	12632.55
500.095	12859.88
500.298	13134.31
500.501	13062.63
500.705	13414.88
500.908	13629.91
501.111	13500.89
501.314	13730.27
501.517	13732.31
501.72	14000.6
501.923	14096.85
502.126	13955.54
502.329	14563.79
502.532	14633.42
502.735	14627.28
502.938	14922.18
503.141	15129.03
503.344	15260.1
503.547	15321.54
503.75	15530.43
503.953	15583.68
504.156	15997.37
504.359	15888.82
504.562	16026.04
504.765	16427.44
504.968	16671.15
505.17	16943.53
505.373	16597.42
505.576	17097.13
505.779	17394.08
505.982	17570.21
506.185	17639.84
506.387	17568.16
506.59	17881.5
506.793	18430.35
506.996	18327.95
507.198	18796.94
507.401	18538.9
507.604	18825.61
507.807	19167.62
508.009	19560.83
508.212	19827.07
508.415	19927.42
508.617	19902.84
508.82	20078.97
509.022	20128.12
509.225	20400.5
509.428	20922.73
509.63	20683.12
509.833	20873.58
510.035	21750.11
510.238	21483.87
510.44	21711.2
510.643	22180.18
510.845	22176.09
511.048	22083.93
511.25	22260.05
511.453	22569.3
511.655	23558.47
511.858	22982.99
512.06	23361.86
512.262	23621.95
512.465	23542.08
512.667	23849.28
512.87	24602.93
513.072	24492.34
513.274	24854.83
513.477	25272.62
513.679	25389.35
513.881	25325.86
514.084	25747.75
514.286	25917.73
514.488	26206.49
514.69	26896.66
514.893	26747.15
515.095	26749.2
515.297	27005.2
515.499	27185.42
515.701	27724.04
515.904	28127.49
516.106	28035.33
516.308	28477.69
516.51	28363
516.712	28754.16
516.914	28854.51
517.116	29446.38
517.318	29518.06
517.52	29718.76
517.722	29876.45
517.925	30329.05
518.127	30517.46
518.329	30882
518.531	30636.25
518.733	31414.48
518.935	31406.28
519.136	31584.46
519.338	32041.15
519.54	32073.92
519.742	32594.11
519.944	32280.77
520.146	33175.73
520.348	33226.93
520.55	33366.19
520.752	33581.23
520.954	33927.33
521.155	33554.6
521.357	34484.38
521.559	34781.34
521.761	34955.41
521.963	35033.24
522.164	35338.38
522.366	35319.95
522.568	36044.93
522.77	35932.29
522.971	36417.66
523.173	36380.8
523.375	36638.84
523.576	36612.22
523.778	36782.2
523.98	37003.38
524.181	37412.98
524.383	37474.41
524.584	37992.55
524.786	37625.96
524.988	37763.18
525.189	38144.1
525.391	38586.46
525.592	38676.57
525.794	39022.68
525.995	38860.89
526.197	38645.85
526.398	39120.98
526.6	39321.68
526.801	39305.3
527.003	39710.8
527.204	39567.44
527.406	39989.32
527.607	39891.02
527.808	39995.46
528.01	39809.1
528.211	40196.17
528.412	41130.04
528.614	40521.79
528.815	40749.12
529.016	40970.3
529.218	40861.76
529.419	40777.79
529.62	41164.85
529.822	40853.56
530.023	40917.05
530.224	40933.43
530.425	41404.47
530.626	41070.65
530.828	40607.81
531.029	41865.26
531.23	41453.62
531.431	41496.63
531.632	41560.11
531.833	41623.6
532.035	41711.66
532.236	41631.79
532.437	41742.38
532.638	41486.39
532.839	41678.89
533.04	41846.83
533.241	41441.33
533.442	42332.2
533.643	41992.23
533.844	41732.14
534.045	42315.81
534.246	41570.35
534.447	42328.1
534.648	41609.26
534.849	41789.49
535.05	41816.11
535.251	41912.36
535.451	42115.11
535.652	42307.62
535.853	41738.29
536.054	42420.26
536.255	42014.76
536.456	42010.67
536.657	42504.23
536.857	41971.75
537.058	41625.65
537.259	42340.39
537.46	42145.83
537.66	41508.91
537.861	42002.47
538.062	41742.38
538.263	41809.96
538.463	41965.61
538.664	41863.21
538.865	42029.1
539.065	42029.1
539.266	41736.24
539.466	42194.98
539.667	41068.6
539.868	42061.86
540.068	41803.82
540.269	41742.38
540.469	42027.05
540.67	41609.26
540.87	41779.25
541.071	41977.9
541.271	41875.5
541.472	41891.88
541.672	41422.9
541.873	41433.14
542.073	41185.33
542.274	41543.73
542.474	41914.41
542.675	41226.29
542.875	41871.4
543.075	41549.87
543.276	41078.84
543.476	41707.57
543.676	41885.74
543.877	41881.64
544.077	41797.68
544.277	41525.3
544.478	41494.58
544.678	42119.21
544.878	41619.5
545.078	41777.2
545.279	41115.7
545.479	41097.27
545.679	41834.54
545.879	41465.91
546.079	41590.83
546.28	41502.77
546.48	41175.09
546.68	41502.77
546.88	41132.09
547.08	41650.22
547.28	41726
547.48	41281.59
547.68	41441.33
547.88	40966.2
548.081	41576.5
548.281	41775.15
548.481	41084.98
548.681	41590.83
548.881	41605.17
549.081	41488.43
549.28	40919.1
549.48	41275.44
549.68	41703.47
549.88	41822.25
550.08	41150.52
550.28	41639.98
550.48	41345.08
550.68	41404.47
550.88	41072.7
551.08	41535.54
551.279	41433.14
551.479	40738.88
551.679	41592.88
551.879	41056.31
552.079	41406.51
552.278	41107.51
552.478	41259.06
552.678	40845.37
552.878	41289.78
553.077	41074.74
553.277	40906.81
553.477	41517.11
553.676	40767.55
553.876	41187.38
554.076	41187.38
554.275	40912.95
554.475	41029.69
554.674	41205.81
554.874	41154.61
555.074	40804.41
555.273	40976.44
555.473	41050.17
555.672	40892.47
555.872	40585.28
556.071	40976.44
556.271	41056.31
556.47	40898.62
556.67	40501.31
556.869	40669.25
557.068	41068.6
557.268	40362.05
557.467	40663.1
557.667	40773.69
557.866	40640.57
558.065	40443.97
558.265	39985.22
558.464	40251.46
558.663	40556.61
558.863	40179.78
559.062	40937.53
559.261	39983.18
559.461	40624.19
559.66	40075.34
559.859	40136.77
560.058	40192.07
560.258	40681.53
560.457	39917.64
560.656	40228.93
560.855	40038.47
561.054	40120.39
561.253	39579.73
561.453	39725.13
561.652	39770.19
561.851	40054.86
562.05	39442.51
562.249	39120.98
562.448	39579.73
562.647	39575.63
562.846	39444.56
563.045	39538.77
563.244	38912.09
563.443	39684.17
563.642	38983.77
563.841	39319.63
564.04	39055.45
564.239	39716.94
564.438	38848.6
564.637	39200.85
564.836	39327.83
565.035	38674.52
565.234	39006.3
565.432	38625.37
565.631	38420.58
565.83	38553.69
566.029	38551.65
566.228	38660.19
566.427	38625.37
566.625	38131.81
566.824	38043.75
567.023	38414.43
567.222	37679.21
567.42	38522.97
567.619	38025.32
567.818	37861.48
568.016	37820.52
568.215	38332.51
568.414	37703.79
568.612	37939.3
568.811	37261.43
569.01	37189.75
569.208	37265.52
569.407	37578.86
569.605	37261.43
569.804	37554.29
570.002	37142.64
570.201	37247.09
570.4	36778.11
570.598	36724.86
570.797	36849.78
570.995	36814.97
571.193	36462.72
571.392	36839.54
571.59	36417.66
571.789	36485.25
571.987	36653.18
572.186	36454.53
572.384	35901.57
572.582	36092.04
572.781	36520.06
572.979	35672.2
573.177	36083.84
573.376	36038.79
573.574	35604.62
573.772	35895.43
573.971	35500.17
574.169	35336.34
574.367	35377.29
574.565	35688.59
574.763	35172.5
574.962	35164.31
575.16	35139.73
575.358	35334.29
575.556	34855.06
575.754	35143.83
575.952	34652.31
576.151	34877.59
576.349	34236.58
576.547	34533.53
576.745	34789.53
576.943	34562.2
577.141	34562.2
577.339	34406.56
577.537	34082.98
577.735	34115.75
577.933	33618.09
578.131	34117.79
578.329	33853.61
578.527	33714.34
578.725	33816.74
578.923	33837.22
579.121	33562.79
579.319	33419.44
579.516	33632.43
579.714	33929.38
579.912	32934.07
580.11	33271.98
580.308	33349.81
580.506	33124.53
580.704	32721.08
580.901	32843.96
581.099	33347.76
581.297	32422.08
581.495	32841.91
581.692	32643.26
581.89	32411.84
582.088	32938.16
582.285	32125.12
582.483	32303.29
582.681	32307.39
582.878	32364.73
583.076	32067.78
583.274	32168.13
583.471	31766.73
583.669	31944.9
583.866	31434.95
584.064	31985.86
584.262	31127.76
584.459	31813.83
584.657	31221.97
584.854	31557.83
585.052	30933.2
585.249	31412.43
585.447	30912.72
585.644	30732.5
585.841	30603.48
586.039	31088.85
586.236	30746.84
586.434	30654.68
586.631	30511.32
586.828	30533.85
587.026	30662.87
587.223	30230.75
587.42	30478.55
587.618	30292.19
587.815	30140.64
588.012	29878.5
588.21	29825.25
588.407	30193.89
588.604	29915.36
588.801	29706.47
588.999	29679.85
589.196	29509.86
589.393	29849.83
589.59	29405.42
589.787	29442.28
589.984	29352.17
590.182	28926.19
590.379	29061.36
590.576	29114.61
590.773	29153.52
590.97	28694.77
591.167	28809.46
591.364	28641.53
591.561	28893.43
591.758	28537.08
591.955	28557.56
592.152	28426.49
592.349	28301.56
592.546	28246.27
592.743	28406.01
592.94	27818.24
593.137	28242.17
593.334	28272.89
593.531	27760.9
593.727	27986.18
593.924	27965.7
594.121	27754.76
594.318	27803.91
594.515	27482.38
594.712	27566.34
594.908	27285.77
595.105	27334.92
595.302	26640.66
595.499	27173.13
595.696	26859.79
595.892	26857.74
596.089	27031.82
596.286	27048.21
596.482	26657.04
596.679	26499.35
596.876	26921.23
597.072	26542.36
597.269	26562.84
597.466	26704.15
597.662	26206.49
597.859	26358.04
598.055	26231.07
598.252	26169.63
598.448	26173.72
598.645	25917.73
598.841	25688.35
599.038	25952.54
599.234	25891.1
599.431	25561.38
599.627	25800.99
599.824	25510.18
600.02	25387.3
600.217	25565.48
600.413	25266.47
600.609	25141.55
600.806	25125.16
601.002	25381.16
601.198	24979.76
601.395	24969.52
601.591	24996.14
601.787	25059.63
601.984	24910.13
602.18	24891.69
602.376	24600.88
602.572	24613.17
602.769	24715.57
602.965	24312.12
603.161	24584.5
603.357	24332.6
603.553	24322.36
603.75	24209.72
603.946	24215.87
604.142	23992.64
604.338	23632.19
604.534	24332.6
604.73	23720.26
604.926	24138.04
605.122	23822.66
605.318	23394.63
605.514	23265.61
605.71	23519.56
605.906	23294.28
606.102	23406.92
606.298	23460.16
606.494	23155.02
606.69	23368.01
606.886	23415.11
607.082	22798.67
607.278	23359.81
607.474	22694.22
607.67	22853.97
607.866	22733.14
608.062	23226.7
608.257	22505.81
608.453	22706.51
608.649	22868.3
608.845	22495.57
609.041	22458.71
609.236	22595.92
609.432	22374.74
609.628	22303.06
609.824	22163.8
610.019	22253.91
610.215	22503.76
610.411	22620.5
610.606	22079.83
610.802	22081.88
610.998	22188.38
611.193	22389.08
611.389	21741.92
611.584	21989.72
611.78	21862.75
611.976	21700.96
612.171	21862.75
612.367	21803.36
612.562	21748.06
612.758	21436.77
612.953	21469.54
613.149	21502.31
613.344	21625.18
613.539	21614.94
613.735	21412.2
613.93	21379.43
614.126	21252.45
614.321	21512.55
614.517	21143.91
614.712	21211.49
614.907	20990.31
615.103	21518.69
615.298	21078.38
615.493	21313.89
615.688	21102.95
615.884	21502.31
616.079	20820.33
616.274	21160.3
616.47	21016.94
616.665	20908.4
616.86	20791.66
617.055	20488.56
617.25	20787.57
617.445	21051.75
617.641	20386.16
617.836	20429.17
618.031	20242.81
618.226	20463.99
618.421	20418.93
618.616	20246.9
618.811	20222.33
619.006	20357.49
619.201	19722.62
619.396	19945.85
619.591	19808.64
619.786	19995
619.981	19534.21
620.176	19825.02
620.371	19497.35
620.566	19732.86
620.761	19325.32
620.956	19405.19
621.151	19227.01
621.346	19468.67
621.541	19147.14
621.735	19339.65
621.93	18878.86
622.125	18985.35
622.32	18583.95
622.515	18598.29
622.709	18805.13
622.904	18430.35
623.099	18510.22
623.294	18485.65
623.488	18010.52
623.683	18360.72
623.878	17936.79
624.072	18127.25
624.267	17951.13
624.462	17611.17
624.656	17633.69
624.851	17775
625.046	17506.72
625.24	17424.8
625.435	17430.94
625.629	17383.84
625.824	17355.17
626.018	17086.89
626.213	16699.82
626.407	16914.86
626.602	16699.82
626.796	16691.63
626.991	16527.79
627.185	16533.93
627.38	16429.49
627.574	16464.3
627.768	16140.72
627.963	16091.57
628.157	16224.69
628.352	16103.86
628.546	15677.88
628.74	15970.74
628.935	15532.48
629.129	15630.78
629.323	15425.98
629.517	15399.36
629.712	15528.38
629.906	15311.3
630.1	15137.22
630.294	15219.14
630.489	15206.85
630.683	15327.68
630.877	14817.74
631.071	14928.33
631.265	14850.5
631.459	14817.74
631.653	14461.39
631.848	14823.88
632.042	14594.51
632.236	14348.75
632.43	14512.59
632.624	14342.61
632.818	14109.14
633.012	14152.15
633.206	14193.11
633.4	13967.83
633.594	13922.77
633.788	14000.6
633.982	14010.84
634.176	13898.2
634.369	13756.89
634.563	13541.85
634.757	13513.18
634.951	13400.54
635.145	13484.51
635.339	13543.9
635.533	13302.24
635.726	13572.57
635.92	13021.67
636.114	13308.38
636.308	13238.75
636.501	12978.66
636.695	12929.51
636.889	12814.82
637.083	12655.08
637.276	12642.79
637.47	12493.29
637.664	12673.51
637.857	12302.83
638.051	12419.57
638.244	12403.18
638.438	12325.36
638.632	12231.15
638.825	12349.93
639.019	12124.66
639.212	11700.73
639.406	11780.6
639.599	11862.52
639.793	11821.56
639.986	11792.89
640.18	11782.65
640.373	11780.6
640.567	11588.09
640.76	11475.45
640.954	11377.15
641.147	11346.43
641.34	11262.46
641.534	11278.85
641.727	11235.84
641.92	11076.1
642.114	11137.54
642.307	11063.81
642.5	11024.9
642.694	11035.14
642.887	10676.74
643.08	10983.94
643.273	10637.83
643.467	10869.25
643.66	10484.23
643.853	10535.43
644.046	10541.58
644.239	10473.99
644.432	10414.6
644.626	10310.16
644.819	10248.72
645.012	10211.85
645.205	10473.99
645.398	10146.32
645.591	9972.24
645.784	10082.83
645.977	9925.14
646.17	9732.63
646.363	9943.57
646.556	9613.85
646.749	9845.27
646.942	9929.24
647.135	9648.66
647.328	9540.12
647.521	9499.16
647.714	9652.76
647.907	9503.26
648.099	9253.41
648.292	9509.4
648.485	9359.9
648.678	9376.28
648.871	9204.25
649.064	9212.45
649.256	8989.22
649.449	9245.21
649.642	8942.11
649.835	9151.01
650.027	8958.5
650.22	8876.58
650.413	8854.05
650.605	8671.78
650.798	8667.69
650.991	8854.05
651.183	8626.73
651.376	8647.21
651.568	8729.13
651.761	8735.27
651.954	8395.31
652.146	8503.85
652.339	8280.62
652.531	8419.88
652.724	8229.42
652.916	8196.65
653.109	8135.21
653.301	8262.19
653.494	8233.52
653.686	8210.99
653.879	8237.61
654.071	8069.68
654.263	8014.38
654.456	8014.38
654.648	7983.66
654.84	7742
655.033	7737.91
655.225	7631.41
655.417	7658.04
655.61	7789.11
655.802	7629.37
655.994	7619.13
656.186	7674.42
656.379	7576.12
656.571	7412.28
656.763	7426.62
656.955	7395.9
657.148	7402.04
657.34	7371.32
657.532	7197.24
657.724	7270.97
657.916	7268.92
658.108	7221.82
658.3	7195.2
658.492	7152.19
658.684	6998.59
658.876	7160.38
659.068	6853.19
659.26	7047.74
659.452	7103.04
659.644	6933.06
659.836	6730.31
660.028	6838.85
660.22	6808.13
660.412	6701.64
660.604	6593.09
660.796	6855.23
660.988	6664.77
661.18	6552.13
661.372	6402.63
661.563	6644.29
661.755	6509.13
661.947	6599.24
662.139	6326.86
662.331	6451.78
662.522	6435.4
662.714	6455.88
662.906	6371.91
663.097	6163.02
663.289	6148.68
663.481	6238.8
663.673	6152.78
663.864	6216.27
664.056	6023.76
664.247	6165.07
664.439	5980.75
664.631	5958.22
664.822	6134.35
665.014	5884.5
665.205	5886.54
665.397	6034
665.588	5804.63
665.78	5988.94
665.971	5790.29
666.163	5857.87
666.354	5831.25
666.546	5696.08
666.737	5638.74
666.929	5601.88
667.12	5800.53
667.311	5585.49
667.503	5526.1
667.694	5556.82
667.885	5538.39
668.077	5648.98
668.268	5413.46
668.459	5321.31
668.651	5573.21
668.842	5300.83
669.033	5272.15
669.224	5370.46
669.416	5378.65
669.607	5257.82
669.798	5100.12
669.989	5388.89
670.18	5173.85
670.371	5249.63
670.563	5225.05
670.754	5315.16
670.945	5141.08
671.136	5304.92
671.327	5120.6
671.518	5134.94
671.709	5050.97
671.9	4991.58
672.091	5102.17
672.282	4977.25
672.473	4803.17
672.664	4985.44
672.855	4934.24
673.046	4960.86
673.237	4946.53
673.428	4977.25
673.619	4971.1
673.809	4921.95
674	4880.99
674.191	4794.98
674.382	4797.03
674.573	4610.66
674.764	4801.12
674.954	4909.66
675.145	4620.9
675.336	4663.91
675.527	4670.05
675.717	4713.06
675.908	4749.92
676.099	4510.31
676.289	4649.57
676.48	4620.9
676.671	4584.04
676.861	4594.28
677.052	4500.07
677.243	4342.38
677.433	4473.45
677.624	4444.77
677.814	4528.74
678.005	4428.39
678.195	4510.31
678.386	4426.34
678.576	4571.75
678.767	4461.16
678.957	4379.24
679.148	4442.73
679.338	4422.25
679.529	4389.48
679.719	4334.18
679.909	4432.49
680.1	4364.9
680.29	4250.22
680.481	4258.41
680.671	4354.66
680.861	4303.47
681.052	4280.94
681.242	4346.47
681.432	4387.43
681.622	4311.66
681.813	4285.03
682.003	4194.92
682.193	4045.42
682.383	4323.94
682.573	4002.41
682.764	4133.48
682.954	4282.99
683.144	4059.76
683.334	4149.87
683.524	4082.28
683.714	4129.39
683.904	4094.57
684.094	4215.4
684.284	4143.72
684.474	4006.51
684.664	4061.8
684.854	3938.93
685.044	4004.46
685.234	4029.04
685.424	4024.94
685.614	3981.93
685.804	3994.22
685.994	3785.33
686.184	4106.86
686.374	3947.12
686.564	3916.4
686.753	3693.17
686.943	3871.34
687.133	3816.05
687.323	3949.17
687.513	3916.4
687.702	3848.82
687.892	3854.96
688.082	3863.15
688.272	3904.11
688.461	3863.15
688.651	3914.35
688.841	3670.64
689.03	3590.77
689.22	3719.79
689.41	3793.52
689.599	3650.16
689.789	3699.31
689.979	3611.25
690.168	3562.1
690.358	3635.83
690.547	3592.82
690.737	3496.57
690.926	3527.28
691.116	3463.8
691.305	3594.87
691.495	3570.29
691.684	3353.21
691.874	3494.52
692.063	3519.09
692.252	3478.13
692.442	3451.51
692.631	3424.89
692.82	3373.69
693.01	3486.33
693.199	3363.45
693.388	3412.6
693.578	3445.37
693.767	3394.17
693.956	3363.45
694.146	3379.83
694.335	3297.91
694.524	3359.35
694.713	3357.3
694.902	3289.72
695.092	3248.76
695.281	3340.92
695.47	3347.06
695.659	3261.05
695.848	3234.43
696.037	3310.2
696.226	3234.43
696.415	3142.27
696.604	3218.04
696.793	3209.85
696.982	3207.8
697.171	3224.19
697.36	3183.23
697.549	3117.69
697.738	3152.51
697.927	3185.27
698.116	3046.01
698.305	3078.78
698.494	3172.99
698.683	3052.16
698.872	3125.88
699.061	3146.36
699.25	3209.85
699.438	3080.83
699.627	3019.39
699.816	3097.21
700.005	2990.72
700.193	3048.06
700.382	3146.36
700.571	3058.3
700.76	3119.74
700.948	3113.6
701.137	3148.41
701.326	3054.2
701.514	3060.35
701.703	3029.63
701.892	3003
702.08	3019.39
702.269	3074.68
702.457	3023.48
702.646	3035.77
702.834	2994.81
703.023	2947.71
703.212	2996.86
703.4	2890.37
703.589	2937.47
703.777	3125.88
703.965	2855.55
704.154	3019.39
704.342	2896.51
704.531	3138.17
704.719	2886.27
704.907	2962.05
705.096	2785.92
705.284	2830.98
705.472	2912.89
705.661	2853.5
705.849	2937.47
706.037	2880.13
706.226	2841.22
706.414	2914.94
706.602	2912.89
706.79	2939.52
706.979	2773.63
707.167	2888.32
707.355	2751.1
707.543	2853.5
707.731	2943.61
707.919	2871.93
708.107	2777.73
708.296	2726.53
708.484	2798.21
708.672	2693.76
708.86	2740.86
709.048	2871.93
709.236	2855.55
709.424	2822.78
709.612	2761.34
709.8	2806.4
709.988	2695.81
710.176	2656.9
710.364	2736.77
710.551	2814.59
710.739	2757.25
710.927	2646.66
711.115	2734.72
711.303	2667.14
711.491	2742.91
711.679	2644.61
711.866	2718.34
712.054	2710.15
712.242	2732.67
712.43	2730.62
712.617	2628.23
712.805	2665.09
712.993	2693.76
713.181	2585.22
713.368	2654.85
713.556	2642.56
713.744	2636.42
713.931	2728.58
714.119	2601.6
714.306	2712.19
714.494	2568.84
714.682	2581.12
714.869	2554.5
715.057	2560.64
715.244	2529.92
715.432	2525.83
715.619	2654.85
715.807	2507.4
715.994	2499.2
716.182	2468.49
716.369	2534.02
716.556	2454.15
716.744	2499.2
716.931	2405
717.119	2579.08
717.306	2486.92
717.493	2456.2
717.681	2491.01
717.868	2474.63
718.055	2464.39
718.242	2390.66
718.43	2577.03
718.617	2384.52
718.804	2536.07
718.991	2361.99
719.179	2448.01
719.366	2388.61
719.553	2431.62
719.74	2433.67
719.927	2374.28
720.114	2366.09
720.301	2308.74
720.488	2249.35
720.676	2439.81
720.863	2374.28
721.05	2507.4
721.237	2294.41
721.424	2458.25
721.611	2405
721.798	2425.48
721.985	2355.85
722.172	2257.54
722.358	2298.5
722.545	2335.37
722.732	2302.6
722.919	2325.13
723.106	2261.64
723.293	2294.41
723.48	2396.81
723.667	2204.3
723.853	2347.65
724.04	2278.02
724.227	2318.98
724.414	2204.3
724.6	2296.46
724.787	2163.34
724.974	2216.58
725.161	2292.36
725.347	2126.47
725.534	2267.78
725.72	2249.35
725.907	2138.76
726.094	2161.29
726.28	2138.76
726.467	2292.36
726.653	2142.86
726.84	2224.78
727.027	2235.02
727.213	2083.47
727.4	2151.05
727.586	2060.94
727.773	2208.39
727.959	2226.82
728.145	2101.9
728.332	2075.27
728.518	2075.27
728.705	2224.78
728.891	2110.09
729.077	2110.09
729.264	2077.32
729.45	2093.71
729.636	2155.15
729.823	1983.12
730.009	2151.05
730.195	2192.01
730.382	2224.78
730.568	2253.45
730.754	1993.36
730.94	2077.32
731.126	2030.22
731.313	2071.18
731.499	2144.91
731.685	2003.6
731.871	2198.15
732.057	2085.51
732.243	2087.56
732.429	2038.41
732.615	2003.6
732.801	1997.45
732.987	2011.79
733.173	2022.03
733.359	2054.8
733.545	2001.55
733.731	1972.88
733.917	1976.97
734.103	2052.75
734.289	2019.98
734.475	1950.35
734.661	2062.99
734.847	2167.43
735.033	1970.83
735.219	2062.99
735.404	1995.4
735.59	1942.16
735.776	2019.98
735.962	1931.92
736.148	1913.49
736.333	2036.36
736.519	1948.3
736.705	1942.16
736.89	1913.49
737.076	1974.92
737.262	1964.68
737.447	1886.86
737.633	1839.76
737.819	1972.88
738.004	1925.77
738.19	1907.34
738.375	1886.86
738.561	1948.3
738.747	1905.29
738.932	1802.9
739.118	1847.95
739.303	1938.06
739.489	1911.44
739.674	1899.15
739.859	1827.47
740.045	1831.57
740.23	1950.35
740.416	1847.95
740.601	1915.53
740.786	1835.66
740.972	1794.7
741.157	1784.46
741.342	1692.3
741.528	1612.43
741.713	1815.18
741.898	1708.69
742.084	1743.5
742.269	1710.74
742.454	1731.22
742.639	1659.54
742.824	1778.32
743.01	1776.27
743.195	1850
743.38	1706.64
743.565	1702.54
743.75	1694.35
743.935	1669.78
744.12	1768.08
744.305	1596.05
744.49	1766.03
744.675	1616.53
744.86	1667.73
745.045	1639.06
745.23	1639.06
745.415	1585.81
745.6	1659.54
745.785	1589.91
745.97	1598.1
746.155	1514.13
746.34	1630.87
746.525	1577.62
746.71	1530.52
746.895	1464.98
747.079	1479.32
747.264	1483.41
747.449	1446.55
747.634	1538.71
747.819	1473.17
748.003	1598.1
748.188	1446.55
748.373	1446.55
748.557	1493.65
748.742	1557.14
748.927	1421.97
749.111	1489.56
749.296	1399.45
749.481	1426.07
749.665	1407.64
749.85	1405.59
750.034	1344.15
750.219	1426.07
750.404	1297.05
750.588	1340.05
750.773	1378.97
750.957	1356.44
751.141	1268.38
751.326	1395.35
751.51	1381.01
751.695	1276.57
751.879	1311.38
752.064	1305.24
752.248	1364.63
752.432	1391.25
752.617	1311.38
752.801	1251.99
752.985	1217.18
753.17	1315.48
753.354	1256.09
753.538	1309.33
753.722	1245.85
753.907	1110.68
754.091	1163.93
754.275	1192.6
754.459	1098.39
754.643	1208.98
754.828	1114.78
755.012	1225.37
755.196	1182.36
755.38	1131.16
755.564	1082.01
755.748	983.71
755.932	1082.01
756.116	1137.31
756.3	1125.02
756.484	1147.55
756.668	1151.64
756.852	1012.38
757.036	1036.95
757.22	1149.59
757.404	1008.28
757.588	1127.07
757.772	1055.39
757.956	1051.29
758.14	1086.11
758.323	981.66
758.507	957.08
758.691	1057.43
758.875	1039
759.059	1026.71
759.242	1004.19
759.426	1006.24
759.61	981.66
759.794	858.78
759.977	1004.19
760.161	1069.72
760.345	961.18
760.528	967.32
760.712	918.17
760.895	799.39
761.079	938.65
761.263	918.17
761.446	869.02
761.63	883.36
761.813	909.98
761.997	823.97
762.18	930.46
762.364	936.6
762.547	852.64
762.731	996
762.914	844.45
763.098	836.25
763.281	914.08
763.464	826.01
763.648	889.5
763.831	922.27
764.015	774.81
764.198	826.01
764.381	764.58
764.564	799.39
764.748	819.87
764.931	889.5
765.114	785.05
765.297	926.36
765.481	733.86
765.664	860.83
765.847	817.82
766.03	836.25
766.213	768.67
766.397	801.44
766.58	705.18
766.763	750.24
766.946	760.48
767.129	783.01
767.312	746.14
767.495	701.09
767.678	785.05
767.861	701.09
768.044	774.81
768.227	735.9
768.41	801.44
768.593	703.14
768.776	844.45
768.959	735.9
769.142	899.74
769.324	653.98
769.507	735.9
769.69	735.9
769.873	729.76
770.056	785.05
770.239	707.23
770.421	760.48
770.604	670.37
770.787	725.66
770.97	696.99
771.152	680.61
771.335	680.61
771.518	696.99
771.7	752.29
771.883	729.76
772.066	680.61
772.248	696.99
772.431	719.52
772.613	586.4
772.796	717.47
772.978	662.18
773.161	610.98
773.343	699.04
773.526	656.03
773.708	660.13
773.891	576.16
774.073	594.59
774.256	619.17
774.438	789.15
774.621	645.79
774.803	731.81
774.985	696.99
775.168	631.46
775.35	592.55
775.532	637.6
775.715	615.07
775.897	656.03
776.079	567.97
776.261	651.94
776.444	615.07
776.626	660.13
776.808	633.51
776.99	524.96
777.173	508.58
777.355	547.49
777.537	533.15
777.719	541.35
777.901	563.87
778.083	539.3
778.265	527.01
778.447	561.83
778.629	582.31
778.811	539.3
778.993	535.2
779.175	578.21
779.357	529.06
779.539	463.52
779.721	541.35
779.903	504.48
780.085	541.35
780.267	445.09
780.449	488.1
780.631	520.87
780.812	496.29
780.994	504.48
781.176	395.94
781.358	471.72
781.54	461.48
781.721	463.52
781.903	516.77
782.085	481.96
782.267	385.7
782.448	430.76
782.63	481.96
782.812	451.24
782.993	445.09
783.175	537.25
783.357	455.33
783.538	293.54
783.72	455.33
783.901	350.89
784.083	406.18
784.264	381.6
784.446	393.89
784.627	432.8
784.809	443.04
784.99	481.96
785.172	432.8
785.353	441
785.535	404.13
785.716	410.28
785.897	357.03
786.079	359.08
786.26	408.23
786.441	365.22
786.623	340.65
786.804	332.45
786.985	340.65
787.167	348.84
787.348	430.76
787.529	422.56
787.71	357.03
787.891	361.13
788.073	381.6
788.254	336.55
788.435	416.42
788.616	424.61
788.797	295.59
788.978	326.31
789.159	350.89
789.34	357.03
789.522	338.6
789.703	350.89
789.884	422.56
790.065	348.84
790.246	268.97
790.427	180.9
790.607	369.32
790.788	311.97
790.969	238.25
791.15	324.26
791.331	324.26
791.512	314.02
791.693	303.78
791.874	332.45
792.054	311.97
792.235	250.53
792.416	283.3
792.597	268.97
792.778	287.4
792.958	293.54
793.139	217.77
793.32	393.89
793.5	197.29
793.681	285.35
793.862	385.7
794.042	332.45
794.223	201.38
794.404	299.69
794.584	279.21
794.765	234.15
794.945	225.96
795.126	264.87
795.306	283.3
795.487	246.44
795.667	219.82
795.848	238.25
796.028	281.25
796.209	252.58
796.389	266.92
796.57	260.77
796.75	326.31
796.93	258.73
797.111	291.49
797.291	205.48
797.471	244.39
797.652	207.53
797.832	215.72
798.012	242.34
798.192	203.43
798.373	262.82
798.553	234.15
798.733	234.15
798.913	275.11
799.093	285.35
799.274	258.73
799.454	285.35
799.634	258.73
799.814	254.63
799.994	242.34
800.174	221.86
800.354	242.34
800.534	146.09
800.714	236.2
800.894	160.42
801.074	201.38
801.254	244.39
801.434	238.25
801.614	193.19
801.794	191.14
801.974	748.19
802.154	211.62
802.334	234.15
802.514	168.62
802.693	238.25
802.873	242.34
803.053	246.44
803.233	170.66
803.413	176.81
803.592	189.1
803.772	225.96
803.952	199.34
804.131	113.32
804.311	203.43
804.491	215.72
804.67	164.52
804.85	111.27
805.03	203.43
805.209	197.29
805.389	164.52
805.568	176.81
805.748	234.15
805.928	299.69
806.107	189.1
806.287	209.58
806.466	197.29
806.646	168.62
806.825	131.75
807.004	248.49
807.184	158.38
807.363	256.68
807.543	139.94
807.722	148.14
807.901	213.67
808.081	201.38
808.26	111.27
808.439	197.29
808.619	103.08
808.798	121.51
808.977	135.85
809.156	228.01
809.336	162.47
809.515	187.05
809.694	113.32
809.873	127.66
810.052	152.23
810.231	189.1
810.411	135.85
810.59	201.38
810.769	144.04
810.948	139.94
811.127	152.23
811.306	129.7
811.485	137.9
811.664	297.64
811.843	103.08
812.022	129.7
812.201	103.08
812.38	129.7
812.559	170.66
812.737	213.67
812.916	125.61
813.095	72.36
813.274	209.58
813.453	242.34
813.632	103.08
813.811	154.28
813.989	121.51
814.168	148.14
814.347	103.08
814.526	125.61
814.704	211.62
814.883	172.71
815.062	127.66
815.24	139.94
815.419	33.45
815.598	141.99
815.776	105.13
815.955	31.4
816.133	86.7
816.312	92.84
816.49	129.7
816.669	121.51
816.847	131.75
817.026	156.33
817.204	94.89
817.383	144.04
817.561	121.51
817.74	150.18
817.918	119.46
818.097	103.08
818.275	111.27
818.453	135.85
818.632	185
818.81	105.13
818.988	96.94
819.167	174.76
819.345	103.08
819.523	111.27
819.701	68.27
819.879	127.66
820.058	131.75
820.236	166.57
820.414	80.55
820.592	62.12
820.77	144.04
820.948	55.98
821.127	25.26
821.305	88.75
821.483	58.03
821.661	121.51
821.839	144.04
822.017	105.13
822.195	37.55
822.373	121.51
822.551	135.85
822.729	115.37
822.907	29.35
823.085	131.75
823.262	88.75
823.44	86.7
823.618	195.24
823.796	62.12
823.974	72.36
824.152	152.23
824.329	82.6
824.507	121.51
824.685	144.04
824.863	53.93
825.04	164.52
825.218	94.89
825.396	80.55
825.574	137.9
825.751	144.04
825.929	197.29
826.107	78.51
826.284	113.32
826.462	72.36
826.639	105.13
826.817	94.89
826.994	80.55
827.172	12.97
827.349	170.66
827.527	127.66
827.704	172.71
827.882	58.03
828.059	62.12
828.237	86.7
828.414	78.51
828.591	37.55
828.769	82.6
828.946	90.79
829.124	113.32
829.301	58.03
829.478	94.89
829.655	90.79
829.833	86.7
830.01	6.83
830.187	103.08
830.364	88.75
830.542	111.27
830.719	111.27
830.896	47.79
831.073	62.12
831.25	94.89
831.427	37.55
831.604	103.08
831.782	107.18
831.959	70.31
832.136	92.84
832.313	62.12
832.49	94.89
832.667	119.46
832.844	29.35
833.021	111.27
833.198	55.98
833.374	92.84
833.551	92.84
833.728	70.31
833.905	80.55
834.082	-36.18
834.259	33.45
834.436	60.07
834.612	45.74
834.789	45.74
834.966	62.12
835.143	39.59
835.319	53.93
835.496	96.94
835.673	64.17
835.85	162.47
836.026	-1.37
836.203	78.51
836.38	80.55
836.556	74.41
836.733	72.36
836.909	123.56
837.086	76.46
837.262	66.22
837.439	39.59
837.616	12.97
837.792	70.31
837.968	4.78
838.145	21.16
838.321	37.55
838.498	109.23
838.674	131.75
838.851	86.7
839.027	70.31
839.203	29.35
839.38	80.55
839.556	90.79
839.732	105.13
839.909	123.56
840.085	139.94
840.261	39.59
840.437	62.12
840.614	0.68
840.79	115.37
840.966	37.55
841.142	103.08
841.318	4.78
841.494	152.23
841.671	15.02
841.847	88.75
842.023	33.45
842.199	92.84
842.375	45.74
842.551	-1.37
842.727	68.27
842.903	-11.61
843.079	47.79
843.255	72.36
843.431	55.98
843.607	70.31
843.783	-42.32
843.959	64.17
844.134	-11.61
844.31	117.42
844.486	33.45
844.662	-27.99
844.838	43.69
845.013	64.17
845.189	45.74
845.365	45.74
845.541	-23.89
845.716	78.51
845.892	49.83
846.068	23.21
846.244	80.55
846.419	53.93
846.595	62.12
846.77	86.7
846.946	21.16
847.122	72.36
847.297	37.55
847.473	78.51
847.648	27.31
847.824	4.78
847.999	41.64
848.175	76.46
848.35	6.83
848.526	53.93
848.701	29.35
848.876	109.23
849.052	78.51
849.227	68.27
849.403	23.21
849.578	96.94
849.753	64.17
849.929	78.51
850.104	0.68
850.279	43.69
850.454	78.51
850.63	51.88
850.805	94.89
850.98	-25.94
851.155	51.88
851.33	45.74
851.505	-15.7
851.681	64.17
851.856	101.03
852.031	-3.41
852.206	146.09
852.381	62.12
852.556	47.79
852.731	39.59
852.906	37.55
853.081	96.94
853.256	107.18
853.431	64.17
853.606	90.79
853.781	6.83
853.956	12.97
854.131	96.94
854.305	86.7
854.48	6.83
854.655	37.55
854.83	66.22
855.005	41.64
855.18	103.08
855.354	53.93
855.529	12.97
855.704	51.88
855.879	4.78
856.053	70.31
856.228	37.55
856.403	41.64
856.577	25.26
856.752	29.35
856.926	58.03
857.101	31.4
857.276	4.78
857.45	-21.84
857.625	58.03
857.799	45.74
857.974	-1.37
858.148	21.16
858.323	33.45
858.497	-1.37
858.672	70.31
858.846	6.83
859.02	105.13
859.195	31.4
859.369	90.79
859.543	-17.75
859.718	55.98
859.892	45.74
860.066	58.03
860.241	80.55
860.415	17.07
860.589	43.69
860.763	86.7
860.938	58.03
861.112	66.22
861.286	0.68
861.46	64.17
861.634	-50.52
861.808	62.12
861.982	-62.8
862.157	-9.56
862.331	0.68
862.505	-25.94
862.679	43.69
862.853	17.07
863.027	-1.37
863.201	78.51
863.375	-19.8
863.549	6.83
863.722	41.64
863.896	33.45
864.07	15.02
864.244	45.74
864.418	27.31
864.592	37.55
864.766	-7.51
864.939	-56.66
865.113	4.78
865.287	47.79
865.461	-9.56
865.634	21.16
865.808	74.41
865.982	45.74
866.156	-124.24
866.329	-15.7
866.503	0.68
866.676	29.35
866.85	47.79
867.024	-52.56
867.197	-1.37
867.371	53.93
867.544	33.45
867.718	31.4
867.891	39.59
868.065	23.21
868.238	-9.56
868.412	66.22
868.585	-9.56
868.759	-27.99
868.932	-36.18
869.105	-3.41
869.279	19.11
869.452	4.78
869.625	12.97
869.799	-19.8
869.972	21.16
870.145	4.78
870.319	41.64
870.492	-34.13
870.665	-5.46
870.838	-60.76
871.011	-36.18
871.185	-23.89
871.358	37.55
871.531	29.35
871.704	-32.08
871.877	35.5
872.05	0.68
872.223	-3.41
872.396	74.41
872.569	12.97
872.742	45.74
872.915	80.55
873.088	25.26
873.261	-17.75
873.434	55.98
873.607	-17.75
873.78	78.51
873.953	21.16
874.126	62.12
874.299	-68.95
874.471	-15.7
874.644	-25.94
874.817	37.55
874.99	45.74
875.163	2.73
875.335	37.55
875.508	86.7
875.681	111.27
875.853	-15.7
876.026	8.87
876.199	55.98
876.371	43.69
876.544	37.55
876.717	19.11
876.889	4.78
877.062	39.59
877.234	39.59
877.407	-36.18
877.579	-40.28
877.752	-64.85
877.924	-11.61
878.097	37.55
878.269	-3.41
878.442	66.22
878.614	60.07
878.786	4.78
878.959	-25.94
879.131	-9.56
879.303	-27.99
879.476	-48.47
879.648	4.78
879.82	25.26
879.993	23.21
880.165	33.45
880.337	-56.66
880.509	-68.95
880.681	-1.37
880.854	66.22
881.026	74.41
881.198	84.65
881.37	-17.75
881.542	12.97
881.714	29.35
881.886	-25.94
882.058	66.22
882.23	-19.8
882.402	41.64
882.574	21.16
882.746	76.46
882.918	-3.41
883.09	4.78
883.262	70.31
883.434	53.93
883.606	4.78
883.778	8.87
883.95	35.5
884.122	62.12
884.293	60.07
884.465	88.75
884.637	-23.89
884.809	62.12
884.98	-13.65
885.152	0.68
885.324	-11.61
885.496	31.4
885.667	-27.99
885.839	-27.99
886.011	4.78
886.182	76.46
886.354	-34.13
886.525	37.55
886.697	64.17
886.869	12.97
887.04	-75.09
887.212	39.59
887.383	47.79
887.555	-3.41
887.726	-15.7
887.897	-5.46
888.069	78.51
888.24	45.74
888.412	45.74
888.583	-11.61
888.754	53.93
888.926	-25.94
889.097	-52.56
889.268	-7.51
889.44	64.17
889.611	33.45
889.782	70.31
889.953	35.5
890.125	21.16
890.296	4.78
890.467	45.74
890.638	-19.8
890.809	-58.71
890.98	-1.37
891.151	-23.89
891.323	49.83
891.494	55.98
891.665	21.16
891.836	-27.99
892.007	-11.61
892.178	-30.04
892.349	0.68
892.52	-9.56
892.691	53.93
892.862	0.68
893.032	-58.71
893.203	-27.99
893.374	45.74
893.545	0.68
893.716	4.78
893.887	15.02
894.057	33.45
894.228	55.98
894.399	17.07
894.57	62.12
894.74	6.83
894.911	-19.8
895.082	21.16
895.253	27.31
895.423	82.6
895.594	15.02
895.764	70.31
895.935	-23.89
896.106	86.7
896.276	12.97
896.447	21.16
896.617	-58.71
896.788	-42.32
896.958	64.17
897.129	31.4
897.299	86.7
897.47	41.64
897.64	47.79
897.81	-19.8
897.981	4.78
898.151	-3.41
898.322	-1.37
898.492	-5.46
898.662	45.74
898.832	37.55
899.003	49.83
899.173	6.83
899.343	10.92
899.513	-30.04
