Data from USB4F104151__194__14-20-25-248.txt Node

Date: Thu Mar 13 14:20:25 EDT 2025
User: louis
Spectrometer: USB4F10415
Trigger mode: 4
Integration Time (sec): 2.000000E-2
Scans to average: 1
Electric dark correction enabled: true
Nonlinearity correction enabled: false
Boxcar width: 0
XAxis mode: Wavelengths
Number of Pixels in Spectrum: 3648
>>>>>Begin Spectral Data<<<<<
178.204	-160.08
178.424	-160.08
178.644	-160.08
178.864	-178.51
179.084	-92.5
179.304	-2.39
179.524	36.52
179.744	-31.06
179.964	85.67
180.184	-51.54
180.404	-16.73
180.624	-37.2
180.844	-20.82
181.064	-72.02
181.283	9.9
181.503	38.57
181.723	61.1
181.943	-20.82
182.163	20.14
182.383	-39.25
182.602	11.95
182.822	-18.77
183.042	-10.58
183.262	44.71
183.482	-4.44
183.701	7.85
183.921	-16.73
184.141	-20.82
184.361	-24.92
184.58	-2.39
184.8	112.3
185.02	63.15
185.239	52.91
185.459	40.62
185.679	61.1
185.898	5.8
186.118	30.38
186.338	-43.35
186.557	-8.53
186.777	-26.96
186.997	44.71
187.216	-8.53
187.436	61.1
187.655	52.91
187.875	40.62
188.095	-8.53
188.314	54.95
188.534	63.15
188.753	28.33
188.973	61.1
189.192	-16.73
189.412	-24.92
189.631	93.87
189.851	5.8
190.07	-4.44
190.29	11.95
190.509	13.99
190.729	40.62
190.948	-2.39
191.168	69.29
191.387	48.81
191.607	-33.11
191.826	-35.16
192.045	32.43
192.265	-29.01
192.484	-12.63
192.704	69.29
192.923	22.19
193.142	87.72
193.362	22.19
193.581	11.95
193.8	-10.58
194.02	-33.11
194.239	11.95
194.458	-16.73
194.678	46.76
194.897	-35.16
195.116	24.23
195.335	20.14
195.555	-86.36
195.774	24.23
195.993	22.19
196.212	46.76
196.432	-45.4
196.651	-0.34
196.87	-33.11
197.089	-12.63
197.308	28.33
197.528	-2.39
197.747	-59.73
197.966	40.62
198.185	44.71
198.404	46.76
198.623	-12.63
198.842	-4.44
199.062	77.48
199.281	20.14
199.5	-12.63
199.719	40.62
199.938	-45.4
200.157	48.81
200.376	7.85
200.595	77.48
200.814	46.76
201.033	13.99
201.252	7.85
201.471	5.8
201.69	5.8
201.909	54.95
202.128	32.43
202.347	13.99
202.566	20.14
202.785	30.38
203.004	42.67
203.223	93.87
203.442	28.33
203.661	18.09
203.879	3.75
204.098	13.99
204.317	22.19
204.536	1.71
204.755	42.67
204.974	28.33
205.193	-20.82
205.411	3.75
205.63	30.38
205.849	-41.3
206.068	85.67
206.287	-12.63
206.505	36.52
206.724	-12.63
206.943	-4.44
207.162	22.19
207.381	50.86
207.599	-41.3
207.818	71.34
208.037	-2.39
208.255	-35.16
208.474	-53.59
208.693	11.95
208.911	-69.97
209.13	50.86
209.349	-26.96
209.567	28.33
209.786	85.67
210.005	28.33
210.223	-74.07
210.442	28.33
210.661	-41.3
210.879	48.81
211.098	61.1
211.316	-8.53
211.535	38.57
211.753	-106.84
211.972	7.85
212.191	-16.73
212.409	32.43
212.628	-2.39
212.846	28.33
213.065	-33.11
213.283	79.53
213.502	1.71
213.72	9.9
213.938	16.04
214.157	63.15
214.375	18.09
214.594	-57.68
214.812	7.85
215.031	-0.34
215.249	-31.06
215.467	11.95
215.686	16.04
215.904	44.71
216.122	20.14
216.341	-43.35
216.559	-2.39
216.778	57
216.996	73.39
217.214	85.67
217.432	28.33
217.651	44.71
217.869	54.95
218.087	-41.3
218.306	38.57
218.524	73.39
218.742	-26.96
218.96	120.49
219.179	-29.01
219.397	-18.77
219.615	100.01
219.833	-4.44
220.051	-0.34
220.27	120.49
220.488	-20.82
220.706	26.28
220.924	28.33
221.142	30.38
221.36	59.05
221.578	61.1
221.796	71.34
222.015	77.48
222.233	3.75
222.451	52.91
222.669	22.19
222.887	52.91
223.105	-43.35
223.323	20.14
223.541	-43.35
223.759	42.67
223.977	5.8
224.195	85.67
224.413	61.1
224.631	36.52
224.849	-20.82
225.067	30.38
225.285	-24.92
225.503	57
225.721	7.85
225.939	18.09
226.157	81.58
226.375	40.62
226.592	5.8
226.81	-49.49
227.028	11.95
227.246	38.57
227.464	24.23
227.682	26.28
227.9	28.33
228.117	24.23
228.335	13.99
228.553	-24.92
228.771	44.71
228.989	5.8
229.206	52.91
229.424	50.86
229.642	7.85
229.86	-43.35
230.077	87.72
230.295	36.52
230.513	44.71
230.731	32.43
230.948	5.8
231.166	77.48
231.384	11.95
231.601	-22.87
231.819	85.67
232.037	-0.34
232.254	40.62
232.472	11.95
232.689	54.95
232.907	52.91
233.125	-18.77
233.342	-29.01
233.56	1.71
233.777	52.91
233.995	63.15
234.213	3.75
234.43	48.81
234.648	73.39
234.865	44.71
235.083	34.47
235.3	30.38
235.518	83.63
235.735	3.75
235.953	65.19
236.17	-26.96
236.388	-8.53
236.605	-4.44
236.822	48.81
237.04	46.76
237.257	69.29
237.475	7.85
237.692	3.75
237.909	52.91
238.127	-6.49
238.344	87.72
238.562	-31.06
238.779	32.43
238.996	-2.39
239.214	36.52
239.431	-6.49
239.648	-61.78
239.865	13.99
240.083	-12.63
240.3	44.71
240.517	-18.77
240.735	22.19
240.952	44.71
241.169	9.9
241.386	30.38
241.603	28.33
241.821	-10.58
242.038	65.19
242.255	44.71
242.472	-43.35
242.689	30.38
242.907	71.34
243.124	16.04
243.341	-76.12
243.558	11.95
243.775	-4.44
243.992	-8.53
244.209	16.04
244.426	63.15
244.643	13.99
244.86	3.75
245.078	30.38
245.295	26.28
245.512	54.95
245.729	-6.49
245.946	61.1
246.163	69.29
246.38	-10.58
246.597	-65.88
246.814	16.04
247.031	26.28
247.248	71.34
247.464	-26.96
247.681	-67.92
247.898	28.33
248.115	1.71
248.332	-2.39
248.549	112.3
248.766	71.34
248.983	28.33
249.2	-0.34
249.417	5.8
249.633	40.62
249.85	32.43
250.067	42.67
250.284	77.48
250.501	38.57
250.717	46.76
250.934	20.14
251.151	46.76
251.368	-12.63
251.585	-4.44
251.801	16.04
252.018	-29.01
252.235	11.95
252.451	20.14
252.668	-8.53
252.885	-4.44
253.102	-20.82
253.318	20.14
253.535	-10.58
253.752	28.33
253.968	11.95
254.185	69.29
254.401	-37.2
254.618	11.95
254.835	69.29
255.051	61.1
255.268	42.67
255.484	22.19
255.701	1.71
255.917	-24.92
256.134	18.09
256.351	65.19
256.567	-63.83
256.784	-4.44
257	-29.01
257.217	28.33
257.433	24.23
257.65	46.76
257.866	44.71
258.082	22.19
258.299	-18.77
258.515	44.71
258.732	16.04
258.948	-4.44
259.165	13.99
259.381	42.67
259.597	-12.63
259.814	36.52
260.03	-37.2
260.246	-16.73
260.463	18.09
260.679	52.91
260.895	7.85
261.112	44.71
261.328	-4.44
261.544	20.14
261.761	89.77
261.977	13.99
262.193	59.05
262.409	11.95
262.626	44.71
262.842	-37.2
263.058	-41.3
263.274	26.28
263.49	20.14
263.707	44.71
263.923	-0.34
264.139	-8.53
264.355	40.62
264.571	3.75
264.787	-45.4
265.004	65.19
265.22	65.19
265.436	5.8
265.652	46.76
265.868	-18.77
266.084	-35.16
266.3	-26.96
266.516	1.71
266.732	22.19
266.948	-6.49
267.164	-74.07
267.38	3.75
267.596	30.38
267.812	32.43
268.028	40.62
268.244	-18.77
268.46	-37.2
268.676	-16.73
268.892	-4.44
269.108	16.04
269.324	-57.68
269.54	16.04
269.756	52.91
269.972	-29.01
270.188	77.48
270.403	-10.58
270.619	-10.58
270.835	5.8
271.051	114.34
271.267	-20.82
271.483	52.91
271.698	-4.44
271.914	3.75
272.13	63.15
272.346	-80.21
272.562	9.9
272.777	-0.34
272.993	52.91
273.209	9.9
273.425	44.71
273.64	57
273.856	-18.77
274.072	26.28
274.287	-26.96
274.503	44.71
274.719	81.58
274.934	36.52
275.15	-45.4
275.366	-18.77
275.581	-12.63
275.797	24.23
276.012	54.95
276.228	-22.87
276.444	65.19
276.659	32.43
276.875	5.8
277.09	28.33
277.306	38.57
277.521	-76.12
277.737	28.33
277.952	108.2
278.168	1.71
278.383	44.71
278.599	-16.73
278.814	-10.58
279.03	11.95
279.245	79.53
279.461	-16.73
279.676	44.71
279.892	-82.26
280.107	40.62
280.322	-69.97
280.538	65.19
280.753	-33.11
280.969	3.75
281.184	3.75
281.399	93.87
281.615	20.14
281.83	22.19
282.045	-2.39
282.26	-16.73
282.476	9.9
282.691	57
282.906	81.58
283.122	-12.63
283.337	-65.88
283.552	95.91
283.767	-43.35
283.983	46.76
284.198	40.62
284.413	85.67
284.628	3.75
284.843	52.91
285.058	-31.06
285.274	44.71
285.489	-20.82
285.704	73.39
285.919	11.95
286.134	-16.73
286.349	73.39
286.564	-8.53
286.779	110.25
286.995	11.95
287.21	-45.4
287.425	28.33
287.64	48.81
287.855	48.81
288.07	26.28
288.285	30.38
288.5	65.19
288.715	22.19
288.93	36.52
289.145	7.85
289.36	75.43
289.575	-29.01
289.79	69.29
290.004	3.75
290.219	-12.63
290.434	50.86
290.649	-16.73
290.864	28.33
291.079	61.1
291.294	-57.68
291.509	46.76
291.724	-0.34
291.938	-55.64
292.153	36.52
292.368	-41.3
292.583	38.57
292.798	85.67
293.012	106.15
293.227	-12.63
293.442	16.04
293.657	40.62
293.871	54.95
294.086	7.85
294.301	5.8
294.516	67.24
294.73	57
294.945	-65.88
295.16	20.14
295.374	11.95
295.589	-12.63
295.804	24.23
296.018	22.19
296.233	65.19
296.447	61.1
296.662	73.39
296.877	40.62
297.091	30.38
297.306	36.52
297.52	5.8
297.735	20.14
297.949	65.19
298.164	69.29
298.378	36.52
298.593	52.91
298.807	-20.82
299.022	16.04
299.236	44.71
299.451	73.39
299.665	30.38
299.88	36.52
300.094	75.43
300.309	36.52
300.523	-12.63
300.737	67.24
300.952	3.75
301.166	79.53
301.381	-29.01
301.595	-49.49
301.809	-8.53
302.024	13.99
302.238	-49.49
302.452	77.48
302.667	36.52
302.881	18.09
303.095	-10.58
303.309	9.9
303.524	-10.58
303.738	5.8
303.952	-69.97
304.166	89.77
304.381	-10.58
304.595	69.29
304.809	20.14
305.023	-12.63
305.237	-69.97
305.452	3.75
305.666	61.1
305.88	30.38
306.094	40.62
306.308	16.04
306.522	44.71
306.736	-29.01
306.95	32.43
307.164	-22.87
307.379	-0.34
307.593	52.91
307.807	34.47
308.021	81.58
308.235	32.43
308.449	52.91
308.663	11.95
308.877	24.23
309.091	-18.77
309.305	20.14
309.519	-76.12
309.733	44.71
309.947	-2.39
310.161	22.19
310.374	-2.39
310.588	95.91
310.802	-35.16
311.016	79.53
311.23	-0.34
311.444	-12.63
311.658	-10.58
311.872	28.33
312.085	-4.44
312.299	61.1
312.513	36.52
312.727	-6.49
312.941	-14.68
313.154	-4.44
313.368	79.53
313.582	28.33
313.796	-4.44
314.009	13.99
314.223	59.05
314.437	48.81
314.651	-12.63
314.864	16.04
315.078	61.1
315.292	-41.3
315.505	9.9
315.719	-53.59
315.933	-4.44
316.146	36.52
316.36	11.95
316.573	3.75
316.787	28.33
317.001	65.19
317.214	-16.73
317.428	34.47
317.641	73.39
317.855	57
318.068	22.19
318.282	59.05
318.495	97.96
318.709	13.99
318.922	36.52
319.136	24.23
319.349	-24.92
319.563	24.23
319.776	7.85
319.99	-74.07
320.203	42.67
320.417	22.19
320.63	-29.01
320.843	-16.73
321.057	38.57
321.27	-14.68
321.483	38.57
321.697	36.52
321.91	110.25
322.124	65.19
322.337	38.57
322.55	5.8
322.763	32.43
322.977	16.04
323.19	32.43
323.403	-0.34
323.617	24.23
323.83	28.33
324.043	46.76
324.256	36.52
324.469	5.8
324.683	61.1
324.896	30.38
325.109	50.86
325.322	-57.68
325.535	61.1
325.748	30.38
325.962	28.33
326.175	26.28
326.388	30.38
326.601	11.95
326.814	36.52
327.027	28.33
327.24	20.14
327.453	-24.92
327.666	11.95
327.879	59.05
328.092	22.19
328.305	61.1
328.518	-16.73
328.731	16.04
328.944	3.75
329.157	44.71
329.37	61.1
329.583	69.29
329.796	71.34
330.009	-33.11
330.222	20.14
330.435	77.48
330.648	28.33
330.861	-12.63
331.073	71.34
331.286	28.33
331.499	16.04
331.712	32.43
331.925	48.81
332.138	9.9
332.35	48.81
332.563	24.23
332.776	42.67
332.989	-20.82
333.202	-4.44
333.414	24.23
333.627	118.44
333.84	-18.77
334.053	63.15
334.265	40.62
334.478	-12.63
334.691	26.28
334.903	54.95
335.116	-29.01
335.329	-2.39
335.541	-2.39
335.754	63.15
335.966	44.71
336.179	-4.44
336.392	26.28
336.604	38.57
336.817	89.77
337.029	13.99
337.242	9.9
337.454	57
337.667	11.95
337.88	-4.44
338.092	85.67
338.305	36.52
338.517	-20.82
338.729	22.19
338.942	36.52
339.154	-37.2
339.367	24.23
339.579	69.29
339.792	-8.53
340.004	-37.2
340.217	16.04
340.429	20.14
340.641	48.81
340.854	-22.87
341.066	-43.35
341.278	85.67
341.491	36.52
341.703	-20.82
341.915	20.14
342.128	22.19
342.34	16.04
342.552	-59.73
342.764	-59.73
342.977	73.39
343.189	73.39
343.401	22.19
343.613	28.33
343.826	65.19
344.038	-2.39
344.25	-0.34
344.462	-10.58
344.674	-59.73
344.886	22.19
345.099	77.48
345.311	-8.53
345.523	-53.59
345.735	32.43
345.947	-29.01
346.159	-18.77
346.371	24.23
346.583	20.14
346.795	59.05
347.007	3.75
347.219	20.14
347.431	93.87
347.643	30.38
347.855	87.72
348.067	65.19
348.279	-4.44
348.491	22.19
348.703	44.71
348.915	20.14
349.127	3.75
349.339	-43.35
349.551	46.76
349.763	30.38
349.975	-37.2
350.187	30.38
350.399	20.14
350.61	24.23
350.822	65.19
351.034	11.95
351.246	11.95
351.458	-8.53
351.669	89.77
351.881	138.92
352.093	28.33
352.305	91.82
352.517	54.95
352.728	110.25
352.94	7.85
353.152	61.1
353.363	-4.44
353.575	32.43
353.787	20.14
353.999	28.33
354.21	61.1
354.422	61.1
354.633	38.57
354.845	46.76
355.057	-0.34
355.268	44.71
355.48	46.76
355.692	54.95
355.903	18.09
356.115	-43.35
356.326	24.23
356.538	130.73
356.749	11.95
356.961	93.87
357.172	5.8
357.384	13.99
357.595	75.43
357.807	-51.54
358.018	48.81
358.23	69.29
358.441	44.71
358.653	-2.39
358.864	48.81
359.075	7.85
359.287	83.63
359.498	16.04
359.709	36.52
359.921	16.04
360.132	73.39
360.344	71.34
360.555	20.14
360.766	36.52
360.977	-37.2
361.189	24.23
361.4	38.57
361.611	24.23
361.823	48.81
362.034	52.91
362.245	-53.59
362.456	20.14
362.667	110.25
362.879	28.33
363.09	34.47
363.301	20.14
363.512	34.47
363.723	38.57
363.935	36.52
364.146	108.2
364.357	50.86
364.568	38.57
364.779	-24.92
364.99	153.26
365.201	24.23
365.412	52.91
365.623	48.81
365.834	63.15
366.045	-72.02
366.256	52.91
366.467	11.95
366.678	-20.82
366.889	3.75
367.1	24.23
367.311	20.14
367.522	42.67
367.733	69.29
367.944	63.15
368.155	26.28
368.366	11.95
368.577	46.76
368.788	-2.39
368.999	26.28
369.209	7.85
369.42	71.34
369.631	52.91
369.842	52.91
370.053	13.99
370.264	20.14
370.474	13.99
370.685	20.14
370.896	30.38
371.107	97.96
371.317	102.06
371.528	11.95
371.739	116.39
371.95	-20.82
372.16	77.48
372.371	-8.53
372.582	52.91
372.792	20.14
373.003	57
373.214	-10.58
373.424	61.1
373.635	38.57
373.846	18.09
374.056	-2.39
374.267	42.67
374.477	61.1
374.688	-14.68
374.898	61.1
375.109	20.14
375.319	44.71
375.53	16.04
375.74	149.16
375.951	5.8
376.161	57
376.372	28.33
376.582	13.99
376.793	61.1
377.003	30.38
377.214	30.38
377.424	87.72
377.635	120.49
377.845	-4.44
378.055	85.67
378.266	-2.39
378.476	-14.68
378.686	5.8
378.897	24.23
379.107	-37.2
379.317	89.77
379.528	-45.4
379.738	16.04
379.948	-18.77
380.158	73.39
380.369	44.71
380.579	54.95
380.789	69.29
380.999	44.71
381.21	83.63
381.42	46.76
381.63	36.52
381.84	30.38
382.05	5.8
382.261	44.71
382.471	-29.01
382.681	38.57
382.891	102.06
383.101	73.39
383.311	34.47
383.521	42.67
383.731	40.62
383.941	24.23
384.151	-37.2
384.361	114.34
384.571	30.38
384.781	71.34
384.991	61.1
385.201	153.26
385.411	54.95
385.621	22.19
385.831	75.43
386.041	30.38
386.251	13.99
386.461	112.3
386.671	-10.58
386.881	-4.44
387.091	122.54
387.301	16.04
387.511	83.63
387.72	95.91
387.93	52.91
388.14	-4.44
388.35	20.14
388.56	61.1
388.769	77.48
388.979	-10.58
389.189	24.23
389.399	-20.82
389.609	11.95
389.818	73.39
390.028	46.76
390.238	36.52
390.447	-59.73
390.657	-2.39
390.867	-12.63
391.076	38.57
391.286	44.71
391.496	102.06
391.705	77.48
391.915	102.06
392.125	63.15
392.334	22.19
392.544	32.43
392.753	46.76
392.963	16.04
393.172	61.1
393.382	-12.63
393.591	95.91
393.801	54.95
394.01	83.63
394.22	91.82
394.429	54.95
394.639	48.81
394.848	97.96
395.058	79.53
395.267	36.52
395.477	83.63
395.686	89.77
395.895	77.48
396.105	46.76
396.314	126.63
396.524	77.48
396.733	13.99
396.942	143.02
397.152	102.06
397.361	61.1
397.57	44.71
397.78	3.75
397.989	165.54
398.198	138.92
398.407	89.77
398.617	73.39
398.826	87.72
399.035	93.87
399.244	40.62
399.453	52.91
399.663	167.59
399.872	130.73
400.081	108.2
400.29	112.3
400.499	79.53
400.708	161.45
400.917	77.48
401.127	134.82
401.336	-10.58
401.545	126.63
401.754	54.95
401.963	112.3
402.172	114.34
402.381	52.91
402.59	102.06
402.799	69.29
403.008	122.54
403.217	79.53
403.426	179.88
403.635	95.91
403.844	95.91
404.053	69.29
404.262	97.96
404.471	159.4
404.68	210.6
404.888	153.26
405.097	100.01
405.306	138.92
405.515	179.88
405.724	155.3
405.933	126.63
406.142	220.84
406.35	110.25
406.559	163.5
406.768	175.78
406.977	206.5
407.185	179.88
407.394	241.32
407.603	169.64
407.812	192.17
408.02	179.88
408.229	188.07
408.438	247.46
408.646	196.26
408.855	249.51
409.064	286.37
409.272	210.6
409.481	265.89
409.69	259.75
409.898	216.74
410.107	249.51
410.315	241.32
410.524	298.66
410.733	423.59
410.941	278.18
411.15	343.72
411.358	325.29
411.567	370.34
411.775	380.58
411.984	339.62
412.192	374.44
412.401	382.63
412.609	487.08
412.818	503.46
413.026	513.7
413.234	519.84
413.443	476.84
413.651	515.75
413.86	505.51
414.068	593.57
414.276	618.15
414.485	571.04
414.693	667.3
414.901	747.17
415.11	722.59
415.318	712.35
415.526	683.68
415.734	738.98
415.943	749.22
416.151	857.76
416.359	888.48
416.567	804.51
416.776	849.57
416.984	980.64
417.192	939.68
417.4	929.44
417.608	997.02
417.817	941.72
418.025	1113.75
418.233	1154.71
418.441	1134.23
418.649	1197.72
418.857	1183.38
419.065	1406.61
419.273	1253.02
419.481	1357.46
419.689	1353.37
419.897	1441.43
420.105	1455.76
420.313	1562.26
420.521	1568.4
420.729	1625.75
420.937	1693.33
421.145	1756.82
421.353	1773.2
421.561	1912.46
421.769	1939.09
421.977	1986.19
422.185	2002.57
422.393	2129.55
422.601	2266.76
422.809	2244.23
423.017	2176.65
423.224	2279.05
423.432	2473.6
423.64	2449.03
423.848	2610.82
424.056	2576
424.263	2926.21
424.471	2700.93
424.679	2844.29
424.887	3061.37
425.094	3139.19
425.302	3049.08
425.51	3239.55
425.718	3284.6
425.925	3397.24
426.133	3518.07
426.341	3591.8
426.548	3763.83
426.756	3722.87
426.964	3788.4
427.171	4126.32
427.379	4257.39
427.586	4320.87
427.794	4419.18
428.001	4681.32
428.209	4681.32
428.417	4712.03
428.624	4968.03
428.832	5070.43
429.039	4974.17
429.247	5008.99
429.454	5434.97
429.662	5977.68
429.869	5410.39
430.076	5832.27
430.284	5656.15
430.491	6045.26
430.699	6346.31
430.906	6336.07
431.114	6315.59
431.321	6628.93
431.528	6786.63
431.736	7237.18
431.943	7501.37
432.15	7331.39
432.358	7329.34
432.565	7728.69
432.772	7759.41
432.979	8023.6
433.187	8322.6
433.394	8379.95
433.601	8762.92
433.808	8846.88
434.016	8779.3
434.223	9260.57
434.43	9766.42
434.637	9479.71
434.844	10116.62
435.052	10176.02
435.259	10122.77
435.466	10507.79
435.673	10108.43
435.88	10851.85
436.087	11615.74
436.294	11310.59
436.501	11275.77
436.708	11281.92
436.915	11886.07
437.122	12328.43
437.329	12223.98
437.537	12801.51
437.743	12938.73
437.95	12735.98
438.157	13372.89
438.364	13798.87
438.571	14132.69
438.778	13860.31
438.985	15240.64
439.192	14613.96
439.399	15087.04
439.606	14687.69
439.813	15871.42
440.02	16573.87
440.227	16133.56
440.433	16092.6
440.64	16676.27
440.847	16373.17
441.054	16967.08
441.261	18025.88
441.467	17790.36
441.674	18363.79
441.881	19209.61
442.088	18941.32
442.294	18382.23
442.501	19115.4
442.708	19563.9
442.914	20096.38
443.121	21237.09
443.328	20542.83
443.534	21943.64
443.741	21443.94
443.948	20829.55
444.154	22512.98
444.361	22422.87
444.568	22642
444.774	22541.65
444.981	22807.89
445.187	23500.1
445.394	24538.42
445.6	24155.45
445.807	26381.59
446.013	25351.46
446.22	25615.65
446.426	26719.51
446.633	26848.53
446.839	28069.12
447.046	26977.55
447.252	28341.5
447.459	28206.33
447.665	28105.98
447.871	29342.95
448.078	30526.68
448.284	29134.06
448.491	30043.36
448.697	31167.7
448.903	31644.87
449.11	31601.86
449.316	31286.48
449.522	31941.83
449.728	32543.93
449.935	32568.51
450.141	33012.91
450.347	33791.14
450.553	32584.89
450.76	33043.63
450.966	34479.26
451.172	33496.24
451.378	34608.28
451.584	33993.89
451.791	34690.2
451.997	34464.92
452.203	34903.19
452.409	35169.43
452.615	35202.19
452.821	33662.12
453.027	33436.84
453.233	35126.42
453.44	33809.57
453.646	34161.83
453.852	34391.2
454.058	35083.41
454.264	33756.33
454.47	34610.33
454.676	33553.58
454.882	34851.99
455.088	31907.01
455.294	31960.26
455.5	32779.45
455.705	33150.13
455.911	31839.43
456.117	31179.98
456.323	30588.12
456.529	28949.74
456.735	30248.16
456.941	29596.9
457.147	29070.58
457.352	28208.38
457.558	28026.11
457.764	28028.16
457.97	27446.54
458.176	27002.13
458.381	26944.78
458.587	25802.02
458.793	25580.84
458.999	24227.13
459.204	26144.03
459.41	25285.93
459.616	23512.39
459.821	23733.57
460.027	23682.37
460.233	23145.8
460.438	22091.1
460.644	22130.01
460.85	21097.83
461.055	21015.91
461.261	21095.78
461.466	19389.83
461.672	18824.59
461.878	19948.92
462.083	18859.4
462.289	18369.94
462.494	18290.07
462.7	17454.5
462.905	17001.9
463.111	17391.01
463.316	17657.25
463.522	17253.8
463.727	16962.98
463.932	17558.94
464.138	17163.68
464.343	17247.65
464.549	16407.98
464.754	17241.51
464.959	17053.09
465.165	16805.29
465.37	16262.58
465.575	15828.41
465.781	16393.65
465.986	16526.77
466.191	15936.95
466.397	15453.63
466.602	14722.51
466.807	15330.75
467.012	15179.2
467.218	15300.03
467.423	14974.41
467.628	15195.59
467.833	15775.16
468.038	15277.51
468.244	14704.07
468.449	15601.08
468.654	15072.71
468.859	14712.27
469.064	14593.48
469.269	14110.16
469.474	14210.51
469.679	14650.83
469.885	14114.26
470.09	14454.22
470.295	14355.92
470.5	13739.48
470.705	13790.68
470.91	13376.99
471.115	13487.58
471.32	13819.35
471.525	13659.61
471.73	13262.3
471.935	13151.71
472.139	12856.81
472.344	13057.51
472.549	12789.22
472.754	12643.82
472.959	12398.06
473.164	12355.05
473.369	11996.66
473.574	12391.92
473.778	12473.84
473.983	12062.19
474.188	12168.69
474.393	11646.46
474.598	11800.05
474.802	11775.48
475.007	11439.61
475.212	11435.52
475.417	11113.99
475.621	11040.26
475.826	11339.26
476.031	10808.84
476.235	10739.21
476.44	10974.72
476.645	10657.29
476.849	10718.73
477.054	10589.71
477.259	10462.73
477.463	10479.11
477.668	10180.11
477.872	10491.4
478.077	10106.38
478.282	9917.97
478.486	9702.93
478.691	9612.82
478.895	9471.51
479.1	9752.09
479.304	9461.27
479.509	9360.92
479.713	9676.31
479.918	9293.34
480.122	9279.01
480.326	9422.36
480.531	9344.54
480.735	9109.02
480.94	9213.47
481.144	9410.08
481.348	8838.69
481.553	9084.45
481.757	8762.92
481.961	9072.16
482.166	9127.46
482.37	9080.35
482.574	8959.52
482.778	8840.74
482.983	9113.12
483.187	9010.72
483.391	9080.35
483.595	8830.5
483.8	8893.99
484.004	8834.6
484.208	8887.84
484.412	8724.01
484.616	9051.68
484.821	9109.02
485.025	8699.43
485.229	8924.71
485.433	8881.7
485.637	8980
485.841	8801.83
486.045	8965.67
486.249	8953.38
486.453	8789.54
486.657	8936.99
486.861	8883.75
487.065	8789.54
487.269	8820.26
487.473	8674.85
487.677	8810.02
487.881	8863.27
488.085	8760.87
488.289	8959.52
488.493	9031.2
488.697	9047.58
488.901	9016.87
489.105	8924.71
489.309	8857.12
489.512	9076.26
489.716	9113.12
489.92	8934.95
490.124	8869.41
490.328	9152.03
490.531	9041.44
490.735	9047.58
490.939	9252.38
491.143	8975.91
491.346	9041.44
491.55	9188.89
491.754	9147.94
491.958	9332.25
492.161	9238.05
492.365	9539.1
492.569	9395.74
492.772	9291.29
492.976	9467.42
493.18	9451.03
493.383	9645.59
493.587	9598.49
493.79	9899.54
493.994	9711.13
494.197	9684.5
494.401	9719.32
494.605	9815.57
494.808	10085.9
495.012	9870.87
495.215	10020.37
495.419	10309.13
495.622	10143.25
495.825	10018.32
496.029	10376.72
496.232	10575.37
496.436	10515.98
496.639	10849.8
496.843	10677.77
497.046	10829.32
497.249	11001.35
497.453	11019.78
497.656	11044.35
497.859	11007.49
498.063	11304.45
498.266	11615.74
498.469	11402.75
498.673	11609.59
498.876	11935.22
499.079	11908.6
499.282	12092.91
499.485	12228.08
499.689	12117.49
499.892	12611.05
500.095	12322.29
500.298	12701.16
500.501	12586.47
500.705	13039.08
500.908	13120.99
501.111	13211.11
501.314	13354.46
501.517	13471.2
501.72	13526.49
501.923	13534.68
502.126	13936.09
502.329	14159.31
502.532	14274
502.735	14235.09
502.938	14536.14
503.141	14683.59
503.344	14863.82
503.547	14642.64
503.75	15068.61
503.953	15113.67
504.156	15461.82
504.359	15668.67
504.562	15596.99
504.765	15685.05
504.968	16084.41
505.17	16364.98
505.373	16305.59
505.576	16526.77
505.779	16545.2
505.982	16833.96
506.185	17388.96
506.387	17208.74
506.59	17343.91
506.793	17841.56
506.996	17698.2
507.198	18208.15
507.401	17794.46
507.604	18292.12
507.807	18775.44
508.009	18546.06
508.212	18802.06
508.415	19125.64
508.617	19148.17
508.82	19498.37
509.022	19389.83
509.225	19727.74
509.428	19641.73
509.63	20123
509.833	20116.86
510.035	20393.33
510.238	20456.82
510.44	20903.28
510.643	21087.59
510.845	21046.63
511.048	21095.78
511.25	21761.37
511.453	21726.56
511.655	22488.4
511.858	22107.48
512.06	22320.47
512.262	22476.12
512.465	22490.45
512.667	23039.31
512.87	23072.07
513.072	23651.65
513.274	23743.81
513.477	23729.47
513.679	24247.61
513.881	24470.84
514.084	24364.34
514.286	24626.48
514.488	24896.81
514.69	25490.73
514.893	25597.22
515.095	25672.99
515.297	26035.49
515.499	25799.97
515.701	26055.97
515.904	26613.01
516.106	26367.26
516.308	27034.89
516.51	27168.01
516.712	27243.79
516.914	27516.17
517.116	28083.45
517.318	28036.35
517.52	28099.84
517.722	28130.56
517.925	28603.64
518.127	29025.52
518.329	29017.33
518.531	29170.93
518.733	29635.81
518.935	29631.72
519.136	29836.52
519.338	30485.72
519.54	30647.51
519.742	30358.75
519.944	30674.13
520.146	31413.45
520.348	31171.79
520.55	31616.2
520.752	31608.01
520.954	32345.28
521.155	32025.79
521.357	32455.87
521.559	32992.44
521.761	33273.01
521.963	33111.22
522.164	33105.07
522.366	33471.66
522.568	33582.25
522.77	33879.21
522.971	34303.14
523.173	34290.85
523.375	34411.68
523.576	34757.78
523.778	34423.97
523.98	34854.04
524.181	35181.71
524.383	35353.74
524.584	35275.92
524.786	35425.42
524.988	35380.37
525.189	36078.72
525.391	35959.94
525.592	36273.28
525.794	35968.13
525.995	36854.9
526.197	36189.31
526.398	36572.28
526.6	36715.64
526.801	36977.78
527.003	37141.62
527.204	37319.79
527.406	36990.07
527.607	37305.46
527.808	37690.48
528.01	37090.42
528.211	37266.55
528.412	38218.85
528.614	37862.5
528.815	37817.45
529.016	38448.22
529.218	37907.56
529.419	38231.14
529.62	38186.08
529.822	38227.04
530.023	38220.9
530.224	38587.49
530.425	38603.87
530.626	38044.77
530.828	38333.54
531.029	38892.63
531.23	38628.45
531.431	38685.79
531.632	38704.22
531.833	38900.83
532.035	38976.6
532.236	38941.78
532.437	38921.3
532.638	38839.39
532.839	39152.73
533.04	39052.37
533.241	38747.23
533.442	39474.26
533.643	38929.5
533.844	39156.82
534.045	38927.45
534.246	38550.62
534.447	39025.75
534.648	39003.22
534.849	38794.33
535.05	38524
535.251	39035.99
535.451	38911.06
535.652	39240.79
535.853	38978.65
536.054	39298.13
536.255	39355.47
536.456	39091.29
536.657	39724.11
536.857	38730.84
537.058	39001.18
537.259	39384.15
537.46	38929.5
537.66	39408.72
537.861	39105.62
538.062	38872.15
538.263	39226.45
538.463	38978.65
538.664	39185.49
538.865	39005.27
539.065	38943.83
539.266	38661.21
539.466	39449.68
539.667	38620.25
539.868	38958.17
540.068	39044.18
540.269	38966.36
540.469	39128.15
540.67	38775.9
540.87	38620.25
541.071	38726.75
541.271	39318.61
541.472	38773.85
541.672	38667.36
541.873	38790.23
542.073	38401.12
542.274	39122.01
542.474	38804.57
542.675	38820.95
542.875	38745.18
543.075	38442.08
543.276	38448.22
543.476	38892.63
543.676	38470.75
543.877	38859.87
544.077	38521.95
544.277	38724.7
544.478	38292.58
544.678	38743.13
544.878	38700.12
545.078	38804.57
545.279	38034.53
545.479	38798.43
545.679	38741.08
545.879	38616.16
546.079	38610.01
546.28	38503.52
546.48	38358.11
546.68	38745.18
546.88	38837.34
547.08	38829.15
547.28	38487.14
547.48	38100.07
547.68	38421.6
547.88	38343.78
548.081	38509.66
548.281	38394.98
548.481	38026.34
548.681	38538.33
548.881	38435.94
549.081	38593.63
549.28	38349.92
549.48	38474.85
549.68	38317.15
549.88	38786.14
550.08	38337.63
550.28	38190.18
550.48	37960.81
550.68	38509.66
550.88	38159.46
551.08	38190.18
551.279	38452.32
551.479	38214.76
551.679	38274.15
551.879	38036.58
552.079	38448.22
552.278	37825.64
552.478	38468.7
552.678	38270.05
552.878	38415.46
553.077	38069.35
553.277	37641.32
553.477	38521.95
553.676	37964.9
553.876	37639.28
554.076	37874.79
554.275	37954.66
554.475	37756.01
554.674	37733.48
554.874	37616.75
555.074	37667.95
555.273	38114.41
555.473	37821.55
555.672	37577.84
555.872	37442.67
556.071	37860.46
556.271	38108.26
556.47	37385.33
556.67	37336.18
556.869	37633.13
557.068	37604.46
557.268	37104.76
557.467	37626.99
557.667	37489.77
557.866	37338.22
558.065	37626.99
558.265	37323.89
558.464	37223.54
558.663	37426.29
558.863	37022.84
559.062	37706.86
559.261	36590.72
559.461	37692.52
559.66	36807.8
559.859	37102.71
560.058	36883.58
560.258	37305.46
560.457	36758.65
560.656	37379.18
560.855	36990.07
561.054	36961.4
561.253	36539.52
561.453	36818.04
561.652	36768.89
561.851	37004.41
562.05	36361.34
562.249	36453.5
562.448	36848.76
562.647	36797.56
562.846	36347.01
563.045	36588.67
563.244	36201.6
563.443	37143.67
563.642	36078.72
563.841	36428.93
564.04	36070.53
564.239	36185.22
564.438	36064.39
564.637	36351.1
564.836	36277.38
565.035	35683.47
565.234	35828.87
565.432	36105.35
565.631	35347.6
565.83	35619.98
566.029	35708.04
566.228	35310.74
566.427	35728.52
566.625	35316.88
566.824	35097.75
567.023	35693.71
567.222	35013.78
567.42	35142.8
567.619	35132.56
567.818	35208.34
568.016	34843.8
568.215	34808.98
568.414	34815.13
568.612	35107.99
568.811	34962.58
569.01	34958.49
569.208	34493.6
569.407	34698.39
569.605	34282.66
569.804	34776.22
570.002	34217.12
570.201	34653.34
570.4	34737.3
570.598	33930.4
570.797	34067.62
570.995	34333.85
571.193	33490.09
571.392	34266.27
571.59	33866.92
571.789	33875.11
571.987	33871.01
572.186	33502.38
572.384	33514.67
572.582	33803.43
572.781	33600.68
572.979	33064.11
573.177	33674.41
573.376	33504.43
573.574	33389.74
573.772	33436.84
573.971	32869.56
574.169	33117.36
574.367	32951.48
574.565	33219.76
574.763	33131.7
574.962	32593.08
575.16	32396.48
575.358	32808.12
575.556	32451.77
575.754	32631.99
575.952	32490.68
576.151	32498.87
576.349	32027.84
576.547	32163.01
576.745	32105.66
576.943	31970.5
577.141	32146.62
577.339	31886.53
577.537	31628.49
577.735	31823.05
577.933	31501.51
578.131	31864
578.329	31575.24
578.527	31517.9
578.725	31374.54
578.923	31382.73
579.121	31032.53
579.319	31190.22
579.516	31286.48
579.714	31413.45
579.912	31032.53
580.11	30725.33
580.308	30973.14
580.506	30778.58
580.704	30360.8
580.901	30772.44
581.099	30887.12
581.297	30528.73
581.495	30407.9
581.692	30557.4
581.89	30196.96
582.088	30860.5
582.285	30160.09
582.483	30377.18
582.681	30151.9
582.878	30147.81
583.076	29795.56
583.274	30264.54
583.471	29379.82
583.669	29615.33
583.866	29445.35
584.064	29584.62
584.262	29474.02
584.459	29332.72
584.657	29375.72
584.854	29453.55
585.052	28953.84
585.249	28853.49
585.447	29052.14
585.644	28830.96
585.841	28835.06
586.039	29080.81
586.236	28574.97
586.434	28644.6
586.631	28806.39
586.828	28665.08
587.026	28306.68
587.223	28568.82
587.42	28314.87
587.618	28329.21
587.815	27766.02
588.012	28114.17
588.21	27835.65
588.407	27962.62
588.604	27645.19
588.801	27518.21
588.999	27495.69
589.196	27622.66
589.393	27847.94
589.59	27237.64
589.787	27196.68
589.984	27450.63
590.182	26705.17
590.379	27383.05
590.576	27278.6
590.773	27149.58
590.97	26848.53
591.167	27104.53
591.364	27012.37
591.561	26944.78
591.758	26600.72
591.955	26412.31
592.152	26838.29
592.349	26764.56
592.546	26400.02
592.743	26766.61
592.94	26234.14
593.137	26410.26
593.334	26363.16
593.531	25732.39
593.727	26227.99
593.924	25802.02
594.121	25810.21
594.318	26076.44
594.515	25474.34
594.712	25748.77
594.908	25636.13
595.105	25828.64
595.302	25519.4
595.499	25298.22
595.696	25457.96
595.892	24943.92
596.089	25185.58
596.286	25054.51
596.482	24884.53
596.679	25232.68
596.876	25034.03
597.072	24882.48
597.269	24573.24
597.466	24696.11
597.662	24737.07
597.859	24487.22
598.055	24694.07
598.252	24474.93
598.448	24388.92
598.645	24298.81
598.841	23973.18
599.038	24266.04
599.234	23774.53
599.431	23668.03
599.627	23715.14
599.824	23631.17
600.02	23815.49
600.217	23784.77
600.413	23778.62
600.609	23801.15
600.806	23514.44
601.002	23768.38
601.198	23459.14
601.395	23311.69
601.591	23244.1
601.787	23469.38
601.984	22873.42
602.18	23352.65
602.376	22932.81
602.572	23014.73
602.769	22691.15
602.965	22771.02
603.161	22588.75
603.357	22639.95
603.553	22748.5
603.75	22699.34
603.946	22398.29
604.142	22580.56
604.338	22418.77
604.534	22175.06
604.73	22037.85
604.926	22097.24
605.122	22302.04
605.318	21763.42
605.514	21785.95
605.71	22003.03
605.906	21886.3
606.102	21962.08
606.298	21962.08
606.494	21755.23
606.69	22209.88
606.886	21460.32
607.082	21286.25
607.278	21658.98
607.474	21167.46
607.67	21331.3
607.866	21241.19
608.062	21605.73
608.257	21419.36
608.453	21187.94
608.649	21505.38
608.845	20991.34
609.041	21351.78
609.236	21280.1
609.432	20923.76
609.628	20802.93
609.824	20751.73
610.019	20872.56
610.215	20839.79
610.411	20870.51
610.606	20645.23
610.802	20714.86
610.998	20641.14
611.193	20444.53
611.389	20620.66
611.584	20413.81
611.78	20407.67
611.976	20569.46
612.171	20340.08
612.367	20561.26
612.562	20131.19
612.758	20088.18
612.953	20149.62
613.149	20430.19
613.344	20063.61
613.539	20534.64
613.735	20149.62
613.93	20098.42
614.126	20008.31
614.321	20014.46
614.517	20090.23
614.712	19799.42
614.907	19676.54
615.103	20237.69
615.298	19920.25
615.493	19973.5
615.688	19545.47
615.884	19944.83
616.079	19713.41
616.274	19785.08
616.47	19647.87
616.665	19762.56
616.86	19432.83
617.055	19408.26
617.25	19461.51
617.445	19582.34
617.641	18912.65
617.836	19242.37
618.031	18935.18
618.226	19209.61
618.421	19250.56
618.616	19361.16
618.811	18959.75
619.006	19277.19
619.201	18695.57
619.396	19015.05
619.591	18673.04
619.786	18877.83
619.981	18281.88
620.176	18898.31
620.371	18394.51
620.566	18396.56
620.761	18234.77
620.956	18503.06
621.151	17745.31
621.346	18171.29
621.541	17862.04
621.735	17900.95
621.93	17872.28
622.125	17989.02
622.32	17747.36
622.515	17673.63
622.709	17567.13
622.904	17405.35
623.099	17368.48
623.294	17276.32
623.488	17124.77
623.683	17186.21
623.878	17087.91
624.072	16977.32
624.267	16762.28
624.462	16797.1
624.656	16627.12
624.851	16768.43
625.046	16434.61
625.24	16616.88
625.435	16031.16
625.629	16215.48
625.824	16197.04
626.018	16373.17
626.213	15754.68
626.407	16043.45
626.602	15664.57
626.796	15576.51
626.991	15781.31
627.185	15635.9
627.38	15330.75
627.574	15261.12
627.768	15246.79
627.963	15119.81
628.157	14865.86
628.352	15062.47
628.546	15074.76
628.74	15113.67
628.935	14857.67
629.129	14859.72
629.323	14785.99
629.517	14405.07
629.712	14575.05
629.906	14368.21
630.1	14415.31
630.294	14415.31
630.489	14194.13
630.683	14314.96
630.877	14032.34
631.071	13845.98
631.265	13733.34
631.459	13987.29
631.653	13862.36
631.848	13598.17
632.042	13559.26
632.236	13741.53
632.43	13565.4
632.624	13561.31
632.818	13346.27
633.012	13286.88
633.206	13458.91
633.4	13057.51
633.594	13106.66
633.788	12885.48
633.982	13012.45
634.176	12955.11
634.369	13014.5
634.563	12873.19
634.757	12807.66
634.951	12568.04
635.145	12684.78
635.339	12594.67
635.533	12492.27
635.726	12447.21
635.92	12412.4
636.114	12348.91
636.308	12285.42
636.501	12090.87
636.695	12209.65
636.889	12170.74
637.083	12049.91
637.276	12162.55
637.47	11810.29
637.664	11693.56
637.857	11744.76
638.051	11705.85
638.244	11740.66
638.438	11652.6
638.632	11677.18
638.825	11347.45
639.019	11296.25
639.212	11253.25
639.406	11431.42
639.599	11195.9
639.793	11161.09
639.986	11042.31
640.18	10919.43
640.373	10984.96
640.567	10849.8
640.76	10892.8
640.954	10716.68
641.147	10896.9
641.34	10706.44
641.534	10632.71
641.727	10685.96
641.92	10636.81
642.114	10489.35
642.307	10556.94
642.5	10374.67
642.694	10094.1
642.887	10276.37
643.08	10356.24
643.273	9995.79
643.467	10221.07
643.66	10173.97
643.853	9930.26
644.046	9975.31
644.239	10038.8
644.432	9805.33
644.626	9811.48
644.819	9602.58
645.012	9909.78
645.205	9645.59
645.398	9762.33
645.591	9623.06
645.784	9520.67
645.977	9309.72
646.17	9350.68
646.363	9352.73
646.556	9195.04
646.749	9080.35
646.942	9371.16
647.135	8982.05
647.328	9123.36
647.521	9139.74
647.714	8871.46
647.907	8875.56
648.099	9029.15
648.292	8875.56
648.485	8773.16
648.678	8850.98
648.871	8703.53
649.064	8541.74
649.256	8695.33
649.449	8582.7
649.642	8541.74
649.835	8609.32
650.027	8363.56
650.22	8648.23
650.413	8427.05
650.605	8416.81
650.798	8398.38
650.991	8166.96
651.183	8257.07
651.376	8136.24
651.568	8195.63
651.761	8082.99
651.954	8039.98
652.146	7960.11
652.339	7845.43
652.531	7976.5
652.724	7945.78
652.916	7738.93
653.109	7773.75
653.301	7796.28
653.494	7779.89
653.686	7640.63
653.879	7734.84
654.071	7482.94
654.263	7548.47
654.456	7673.4
654.648	7568.95
654.84	7386.68
655.033	7415.35
655.225	7441.98
655.417	7478.84
655.61	7417.4
655.802	7228.99
655.994	7224.89
656.186	7245.37
656.379	7257.66
656.571	7173.69
656.763	7104.06
656.955	6977.09
657.148	6927.94
657.34	6938.18
657.532	7059.01
657.724	6784.58
657.916	6880.83
658.108	6903.36
658.3	6757.96
658.492	6733.38
658.684	6848.07
658.876	6739.52
659.068	6690.37
659.26	6594.12
659.452	6448.71
659.644	6508.1
659.836	6592.07
660.028	6590.02
660.22	6266.44
660.412	6336.07
660.604	6417.99
660.796	6559.3
660.988	6145.61
661.18	6233.68
661.372	6270.54
661.563	6311.5
661.755	6174.28
661.947	6237.77
662.139	6147.66
662.331	6207.05
662.522	5957.2
662.714	6006.35
662.906	6032.97
663.097	5987.92
663.289	6024.78
663.481	5969.49
663.673	5891.66
663.864	5596.76
664.056	5815.89
664.247	5731.92
664.439	5625.43
664.631	5682.77
664.822	5836.37
665.014	5656.15
665.205	5693.01
665.397	5502.55
665.588	5715.54
665.78	5631.57
665.971	5664.34
666.163	5627.48
666.354	5557.85
666.546	5541.46
666.737	5467.74
666.929	5453.4
667.12	5582.42
667.311	5373.53
667.503	5385.82
667.694	5500.5
667.885	5205.6
668.077	5226.07
668.268	5121.63
668.459	5209.69
668.651	5213.79
668.842	5226.07
669.033	5176.92
669.224	5090.91
669.416	5092.96
669.607	5058.14
669.798	5084.77
669.989	5095
670.18	5101.15
670.371	5172.83
670.563	5215.84
670.754	5043.81
670.945	4918.88
671.136	4873.82
671.327	4976.22
671.518	4873.82
671.709	4927.07
671.9	4951.65
672.091	5017.18
672.282	4793.95
672.473	4816.48
672.664	4681.32
672.855	4677.22
673.046	4779.62
673.237	4689.51
673.428	4656.74
673.619	4793.95
673.809	4703.84
674	4613.73
674.191	4587.11
674.382	4511.33
674.573	4691.56
674.764	4474.47
674.954	4476.52
675.145	4445.8
675.336	4398.7
675.527	4572.77
675.717	4527.72
675.908	4470.37
676.099	4435.56
676.289	4415.08
676.48	4468.33
676.671	4421.22
676.861	4482.66
677.052	4304.49
677.243	4386.41
677.433	4353.64
677.624	4410.98
677.814	4402.79
678.005	4331.11
678.195	4427.37
678.386	4304.49
678.576	4238.95
678.767	4279.91
678.957	4128.36
679.148	4271.72
679.338	4304.49
679.529	4189.8
679.719	4187.75
679.909	4265.58
680.1	4093.55
680.29	4339.3
680.481	4355.69
680.671	4277.87
680.861	3995.25
681.052	4091.5
681.242	4247.15
681.432	4095.6
681.622	4015.73
681.813	4085.36
682.003	3964.53
682.193	4017.77
682.383	4163.18
682.573	3974.77
682.764	3948.14
682.954	4034.16
683.144	4130.41
683.334	3970.67
683.524	3976.81
683.714	3966.57
683.904	4009.58
684.094	3896.94
684.284	4038.25
684.474	4025.97
684.664	3989.1
684.854	3946.09
685.044	3872.37
685.234	3898.99
685.424	3870.32
685.614	3704.43
685.804	3896.94
685.994	3948.14
686.184	3872.37
686.374	3780.21
686.564	3812.98
686.753	3812.98
686.943	3774.07
687.133	3819.12
687.323	3669.62
687.513	3690.1
687.702	3706.48
687.892	3733.11
688.082	3610.23
688.272	3780.21
688.461	3567.22
688.651	3747.44
688.841	3544.69
689.03	3651.19
689.22	3569.27
689.41	3518.07
689.599	3542.64
689.789	3556.98
689.979	3511.93
690.168	3528.31
690.358	3538.55
690.547	3552.88
690.737	3567.22
690.926	3464.82
691.116	3354.23
691.305	3489.4
691.495	3380.86
691.684	3497.59
691.874	3329.66
692.063	3239.55
692.252	3411.57
692.442	3387
692.631	3337.85
692.82	3276.41
693.01	3270.26
693.199	3182.2
693.388	3100.28
693.578	3237.5
693.767	3399.29
693.956	3210.87
694.146	3204.73
694.335	3051.13
694.524	3202.68
694.713	3026.56
694.902	3116.67
695.092	3112.57
695.281	3253.88
695.47	3178.11
695.659	3012.22
695.848	3022.46
696.037	3108.48
696.226	3088
696.415	3026.56
696.604	3018.36
696.793	2985.6
696.982	3067.52
697.171	3059.32
697.36	3075.71
697.549	3004.03
697.738	2993.79
697.927	3073.66
698.116	2891.39
698.305	3028.6
698.494	2907.77
698.683	3026.56
698.872	3006.08
699.061	2879.1
699.25	2868.86
699.438	2956.93
699.627	2838.14
699.816	2932.35
700.005	2948.73
700.193	2911.87
700.382	2872.96
700.571	2956.93
700.76	2809.47
700.948	2870.91
701.137	2866.81
701.326	2864.77
701.514	2854.53
701.703	2829.95
701.892	2846.34
702.08	2805.38
702.269	2840.19
702.457	2872.96
702.646	2805.38
702.834	2815.62
703.023	2780.8
703.212	2932.35
703.4	2793.09
703.589	2772.61
703.777	2846.34
703.965	2788.99
704.154	2829.95
704.342	2715.27
704.531	2764.42
704.719	2698.88
704.907	2756.22
705.096	2682.5
705.284	2780.8
705.472	2881.15
705.661	2709.12
705.849	2719.36
706.037	2809.47
706.226	2651.78
706.414	2803.33
706.602	2619.01
706.79	2823.81
706.979	2791.04
707.167	2707.07
707.355	2674.31
707.543	2717.31
707.731	2651.78
707.919	2645.63
708.107	2655.87
708.296	2670.21
708.484	2600.58
708.672	2645.63
708.86	2729.6
709.048	2641.54
709.236	2530.95
709.424	2635.39
709.612	2659.97
709.8	2659.97
709.988	2616.96
710.176	2584.2
710.364	2662.02
710.551	2633.35
710.739	2619.01
710.927	2563.72
711.115	2518.66
711.303	2662.02
711.491	2504.32
711.679	2709.12
711.866	2602.63
712.054	2696.83
712.242	2543.24
712.43	2522.76
712.617	2635.39
712.805	2641.54
712.993	2512.52
713.181	2561.67
713.368	2571.91
713.556	2614.91
713.744	2481.8
713.931	2596.48
714.119	2543.24
714.306	2516.61
714.494	2526.85
714.682	2578.05
714.869	2326.15
715.057	2592.39
715.244	2424.45
715.432	2559.62
715.619	2469.51
715.807	2535.04
715.994	2563.72
716.182	2555.52
716.369	2457.22
716.556	2498.18
716.744	2469.51
716.931	2535.04
717.119	2428.55
717.306	2510.47
717.493	2422.41
717.681	2426.5
717.868	2557.57
718.055	2412.17
718.242	2455.17
718.43	2578.05
718.617	2549.38
718.804	2530.95
718.991	2414.21
719.179	2514.56
719.366	2414.21
719.553	2492.04
719.74	2363.01
719.927	2289.29
720.114	2342.53
720.301	2379.4
720.488	2471.56
720.676	2391.69
720.863	2479.75
721.05	2383.49
721.237	2492.04
721.424	2420.36
721.611	2434.69
721.798	2371.21
721.985	2338.44
722.172	2367.11
722.358	2309.77
722.545	2479.75
722.732	2412.17
722.919	2442.89
723.106	2504.32
723.293	2371.21
723.48	2334.34
723.667	2315.91
723.853	2420.36
724.04	2406.02
724.227	2344.58
724.414	2444.93
724.6	2256.52
724.787	2342.53
724.974	2438.79
725.161	2324.1
725.347	2305.67
725.534	2260.62
725.72	2166.41
725.907	2301.58
726.094	2248.33
726.28	2330.25
726.467	2334.34
726.653	2270.86
726.84	2317.96
727.027	2285.19
727.213	2248.33
727.4	2408.07
727.586	2305.67
727.773	2266.76
727.959	2365.06
728.145	2289.29
728.332	2248.33
728.518	2334.34
728.705	2367.11
728.891	2379.4
729.077	2158.22
729.264	2260.62
729.45	2250.38
729.636	2322.06
729.823	2291.34
730.009	2150.03
730.195	2301.58
730.382	2346.63
730.568	2281.1
730.754	2215.56
730.94	2143.88
731.126	2307.72
731.313	2313.86
731.499	2242.18
731.685	2242.18
731.871	2221.7
732.057	2297.48
732.243	2334.34
732.429	2293.38
732.615	2279.05
732.801	2328.2
732.987	2178.7
733.173	2287.24
733.359	2158.22
733.545	2178.7
733.731	2139.79
733.917	2242.18
734.103	2236.04
734.289	2150.03
734.475	2236.04
734.661	2215.56
734.847	2199.18
735.033	2283.14
735.219	2205.32
735.404	2178.7
735.59	2150.03
735.776	2143.88
735.962	2199.18
736.148	2207.37
736.333	2215.56
736.519	2293.38
736.705	2201.23
736.89	2207.37
737.076	2109.07
737.262	2190.99
737.447	2186.89
737.633	2193.03
737.819	2203.27
738.004	2182.79
738.19	2252.42
738.375	2037.39
738.561	2209.42
738.747	2088.59
738.932	2193.03
739.118	2133.64
739.303	2139.79
739.489	2160.27
739.674	2139.79
739.859	2059.92
740.045	2012.81
740.23	2100.87
740.416	2174.6
740.601	2027.15
740.786	2066.06
740.972	2100.87
741.157	2080.39
741.342	2074.25
741.528	2092.68
741.713	1912.46
741.898	1986.19
742.084	2035.34
742.269	2012.81
742.454	2037.39
742.639	2104.97
742.824	1986.19
743.01	2006.67
743.195	1996.43
743.38	1959.56
743.565	1908.37
743.75	1963.66
743.935	2064.01
744.12	1873.55
744.305	1922.7
744.49	1910.41
744.675	1953.42
744.86	1971.85
745.045	1838.73
745.23	1818.25
745.415	1891.98
745.6	1978
745.785	1855.12
745.97	1889.93
746.155	1836.69
746.34	1881.74
746.525	1699.47
746.71	1902.22
746.895	1801.87
747.079	1904.27
747.264	1750.67
747.449	1748.62
747.634	1635.99
747.819	1752.72
748.003	1797.78
748.188	1791.63
748.373	1742.48
748.557	1758.86
748.742	1627.79
748.927	1640.08
749.111	1642.13
749.296	1627.79
749.481	1683.09
749.665	1572.5
749.85	1584.79
750.034	1570.45
750.219	1644.18
750.404	1584.79
750.588	1590.93
750.773	1562.26
750.957	1617.55
751.141	1609.36
751.326	1552.02
751.51	1554.07
751.695	1531.54
751.879	1513.11
752.064	1552.02
752.248	1457.81
752.432	1447.57
752.617	1545.88
752.801	1457.81
752.985	1470.1
753.17	1420.95
753.354	1398.42
753.538	1441.43
753.722	1375.89
753.907	1341.08
754.091	1429.14
754.275	1363.61
754.459	1324.69
754.643	1273.5
754.828	1339.03
755.012	1298.07
755.196	1263.26
755.38	1300.12
755.564	1269.4
755.748	1330.84
755.932	1316.5
756.116	1285.78
756.3	1259.16
756.484	1279.64
756.668	1281.69
756.852	1183.38
757.036	1187.48
757.22	1160.86
757.404	1314.45
757.588	1216.15
757.772	1240.73
757.956	1169.05
758.14	1255.06
758.323	1152.67
758.507	1138.33
758.691	1207.96
758.875	1093.27
759.059	1183.38
759.242	1078.94
759.426	1011.36
759.61	1080.99
759.794	1109.66
759.977	1070.75
760.161	1068.7
760.345	1101.47
760.528	1148.57
760.712	990.88
760.895	1150.62
761.079	980.64
761.263	1060.51
761.446	1019.55
761.63	1027.74
761.813	1068.7
761.997	1005.21
762.18	1017.5
762.364	1076.89
762.547	1011.36
762.731	986.78
762.914	1003.16
763.098	1062.55
763.281	941.72
763.464	958.11
763.648	974.49
763.831	954.01
764.015	943.77
764.198	974.49
764.381	954.01
764.564	1044.12
764.748	968.35
764.931	976.54
765.114	911
765.297	956.06
765.481	829.09
765.664	806.56
765.847	937.63
766.03	865.95
766.213	839.33
766.397	835.23
766.58	921.24
766.763	994.97
766.946	839.33
767.129	888.48
767.312	902.81
767.495	876.19
767.678	872.09
767.861	913.05
768.044	808.61
768.227	855.71
768.41	816.8
768.593	874.14
768.776	898.72
768.959	872.09
769.142	874.14
769.324	841.37
769.507	835.23
769.69	855.71
769.873	816.8
770.056	814.75
770.239	724.64
770.421	816.8
770.604	759.46
770.787	794.27
770.97	761.5
771.152	759.46
771.335	798.37
771.518	698.02
771.7	687.78
771.883	847.52
772.066	814.75
772.248	818.85
772.431	779.93
772.613	765.6
772.796	683.68
772.978	724.64
773.161	724.64
773.343	695.97
773.526	702.11
773.708	718.5
773.891	659.1
774.073	667.3
774.256	743.07
774.438	732.83
774.621	558.75
774.803	798.37
774.985	716.45
775.168	698.02
775.35	607.91
775.532	745.12
775.715	632.48
775.897	589.47
776.079	667.3
776.261	650.91
776.444	661.15
776.626	663.2
776.808	573.09
776.99	614.05
777.173	663.2
777.355	554.66
777.537	568.99
777.719	675.49
777.901	552.61
778.083	659.1
778.265	573.09
778.447	618.15
778.629	655.01
778.811	612
778.993	536.23
779.175	650.91
779.357	550.56
779.539	468.64
779.721	478.88
779.903	612
780.085	517.79
780.267	511.65
780.449	532.13
780.631	513.7
780.812	450.21
780.994	480.93
781.176	505.51
781.358	577.19
781.54	482.98
781.721	554.66
781.903	511.65
782.085	435.88
782.267	511.65
782.448	431.78
782.63	521.89
782.812	444.07
782.993	503.46
783.175	487.08
783.357	433.83
783.538	462.5
783.72	450.21
783.901	540.32
784.083	462.5
784.264	468.64
784.446	458.4
784.627	315.05
784.809	429.73
784.99	388.77
785.172	450.21
785.353	425.64
785.535	423.59
785.716	497.32
785.897	323.24
786.079	446.12
786.26	478.88
786.441	405.16
786.623	431.78
786.804	446.12
786.985	341.67
787.167	388.77
787.348	315.05
787.529	376.48
787.71	421.54
787.891	421.54
788.073	351.91
788.254	349.86
788.435	421.54
788.616	347.81
788.797	401.06
788.978	349.86
789.159	370.34
789.34	315.05
789.522	339.62
789.703	335.53
789.884	356.01
790.065	380.58
790.246	339.62
790.427	304.81
790.607	360.1
790.788	298.66
790.969	325.29
791.15	347.81
791.331	317.09
791.512	323.24
791.693	253.61
791.874	353.96
792.054	356.01
792.235	356.01
792.416	372.39
792.597	251.56
792.778	212.65
792.958	298.66
793.139	282.28
793.32	284.33
793.5	306.85
793.681	265.89
793.862	333.48
794.042	286.37
794.223	249.51
794.404	343.72
794.584	288.42
794.765	302.76
794.945	245.41
795.126	300.71
795.306	265.89
795.487	237.22
795.667	253.61
795.848	218.79
796.028	286.37
796.209	317.09
796.389	290.47
796.57	323.24
796.75	243.37
796.93	204.46
797.111	292.52
797.291	233.13
797.471	229.03
797.652	306.85
797.832	192.17
798.012	290.47
798.192	290.47
798.373	226.98
798.553	210.6
798.733	290.47
798.913	222.89
799.093	263.85
799.274	249.51
799.454	288.42
799.634	208.55
799.814	257.7
799.994	218.79
800.174	192.17
800.354	179.88
800.534	200.36
800.714	243.37
800.894	220.84
801.074	136.87
801.254	233.13
801.434	261.8
801.614	149.16
801.794	183.98
801.974	683.68
802.154	220.84
802.334	202.41
802.514	128.68
802.693	186.02
802.873	165.54
803.053	179.88
803.233	224.94
803.413	257.7
803.592	163.5
803.772	216.74
803.952	136.87
804.131	143.02
804.311	188.07
804.491	239.27
804.67	175.78
804.85	159.4
805.03	190.12
805.209	235.18
805.389	192.17
805.568	192.17
805.748	124.58
805.928	151.21
806.107	114.34
806.287	186.02
806.466	171.69
806.646	188.07
806.825	136.87
807.004	208.55
807.184	130.73
807.363	208.55
807.543	183.98
807.722	171.69
807.901	198.31
808.081	157.35
808.26	169.64
808.439	134.82
808.619	136.87
808.798	177.83
808.977	167.59
809.156	194.22
809.336	143.02
809.515	128.68
809.694	122.54
809.873	155.3
810.052	143.02
810.231	208.55
810.411	171.69
810.59	134.82
810.769	104.11
810.948	155.3
811.127	114.34
811.306	126.63
811.485	175.78
811.664	210.6
811.843	122.54
812.022	79.53
812.201	130.73
812.38	226.98
812.559	104.11
812.737	143.02
812.916	112.3
813.095	38.57
813.274	134.82
813.453	138.92
813.632	163.5
813.811	194.22
813.989	81.58
814.168	177.83
814.347	108.2
814.526	83.63
814.704	167.59
814.883	120.49
815.062	69.29
815.24	155.3
815.419	77.48
815.598	122.54
815.776	102.06
815.955	183.98
816.133	100.01
816.312	167.59
816.49	118.44
816.669	102.06
816.847	175.78
817.026	143.02
817.204	110.25
817.383	59.05
817.561	48.81
817.74	143.02
817.918	136.87
818.097	97.96
818.275	143.02
818.453	79.53
818.632	126.63
818.81	22.19
818.988	153.26
819.167	89.77
819.345	112.3
819.523	81.58
819.701	77.48
819.879	140.97
820.058	67.24
820.236	145.06
820.414	79.53
820.592	44.71
820.77	54.95
820.948	124.58
821.127	102.06
821.305	54.95
821.483	69.29
821.661	171.69
821.839	50.86
822.017	7.85
822.195	71.34
822.373	171.69
822.551	52.91
822.729	116.39
822.907	85.67
823.085	122.54
823.262	87.72
823.44	46.76
823.618	54.95
823.796	89.77
823.974	30.38
824.152	61.1
824.329	71.34
824.507	106.15
824.685	167.59
824.863	20.14
825.04	71.34
825.218	102.06
825.396	93.87
825.574	-20.82
825.751	114.34
825.929	77.48
826.107	73.39
826.284	77.48
826.462	59.05
826.639	16.04
826.817	44.71
826.994	59.05
827.172	46.76
827.349	73.39
827.527	87.72
827.704	77.48
827.882	54.95
828.059	100.01
828.237	112.3
828.414	89.77
828.591	69.29
828.769	85.67
828.946	75.43
829.124	61.1
829.301	93.87
829.478	108.2
829.655	52.91
829.833	54.95
830.01	118.44
830.187	38.57
830.364	120.49
830.542	61.1
830.719	52.91
830.896	11.95
831.073	24.23
831.25	63.15
831.427	110.25
831.604	48.81
831.782	-2.39
831.959	77.48
832.136	85.67
832.313	28.33
832.49	65.19
832.667	3.75
832.844	87.72
833.021	132.78
833.198	30.38
833.374	93.87
833.551	110.25
833.728	5.8
833.905	48.81
834.082	77.48
834.259	13.99
834.436	69.29
834.612	36.52
834.789	65.19
834.966	44.71
835.143	118.44
835.319	57
835.496	61.1
835.673	65.19
835.85	69.29
836.026	61.1
836.203	-26.96
836.38	54.95
836.556	24.23
836.733	69.29
836.909	13.99
837.086	38.57
837.262	24.23
837.439	87.72
837.616	54.95
837.792	16.04
837.968	77.48
838.145	30.38
838.321	11.95
838.498	-20.82
838.674	63.15
838.851	87.72
839.027	32.43
839.203	89.77
839.38	73.39
839.556	42.67
839.732	95.91
839.909	18.09
840.085	36.52
840.261	59.05
840.437	44.71
840.614	79.53
840.79	38.57
840.966	69.29
841.142	11.95
841.318	-14.68
841.494	65.19
841.671	61.1
841.847	30.38
842.023	11.95
842.199	44.71
842.375	89.77
842.551	-4.44
842.727	18.09
842.903	112.3
843.079	-0.34
843.255	79.53
843.431	30.38
843.607	28.33
843.783	-41.3
843.959	85.67
844.134	7.85
844.31	73.39
844.486	28.33
844.662	36.52
844.838	28.33
845.013	97.96
845.189	145.06
845.365	57
845.541	-8.53
845.716	54.95
845.892	-4.44
846.068	3.75
846.244	32.43
846.419	61.1
846.595	-39.25
846.77	7.85
846.946	40.62
847.122	-43.35
847.297	20.14
847.473	50.86
847.648	-0.34
847.824	57
847.999	26.28
848.175	22.19
848.35	-10.58
848.526	77.48
848.701	26.28
848.876	5.8
849.052	77.48
849.227	-10.58
849.403	22.19
849.578	46.76
849.753	-39.25
849.929	65.19
850.104	11.95
850.279	42.67
850.454	36.52
850.63	38.57
850.805	20.14
850.98	-12.63
851.155	38.57
851.33	3.75
851.505	36.52
851.681	69.29
851.856	40.62
852.031	61.1
852.206	-61.78
852.381	95.91
852.556	20.14
852.731	112.3
852.906	24.23
853.081	52.91
853.256	30.38
853.431	36.52
853.606	11.95
853.781	24.23
853.956	-12.63
854.131	11.95
854.305	69.29
854.48	-51.54
854.655	-45.4
854.83	-2.39
855.005	52.91
855.18	48.81
855.354	-4.44
855.529	-12.63
855.704	-98.64
855.879	52.91
856.053	-74.07
856.228	28.33
856.403	36.52
856.577	-10.58
856.752	-45.4
856.926	44.71
857.101	-20.82
857.276	-2.39
857.45	5.8
857.625	13.99
857.799	-24.92
857.974	32.43
858.148	-4.44
858.323	81.58
858.497	-8.53
858.672	13.99
858.846	-41.3
859.02	18.09
859.195	3.75
859.369	-18.77
859.543	-4.44
859.718	-0.34
859.892	52.91
860.066	28.33
860.241	-26.96
860.415	-4.44
860.589	11.95
860.763	-47.44
860.938	54.95
861.112	52.91
861.286	-53.59
861.46	13.99
861.634	1.71
861.808	124.58
861.982	-24.92
862.157	5.8
862.331	32.43
862.505	22.19
862.679	-43.35
862.853	-18.77
863.027	-8.53
863.201	65.19
863.375	-12.63
863.549	30.38
863.722	67.24
863.896	79.53
864.07	13.99
864.244	63.15
864.418	46.76
864.592	34.47
864.766	20.14
864.939	18.09
865.113	-24.92
865.287	81.58
865.461	-14.68
865.634	-119.12
865.808	-29.01
865.982	13.99
866.156	3.75
866.329	-53.59
866.503	-12.63
866.676	126.63
866.85	-24.92
867.024	-37.2
867.197	30.38
867.371	-0.34
867.544	-2.39
867.718	-31.06
867.891	44.71
868.065	-10.58
868.238	-22.87
868.412	79.53
868.585	40.62
868.759	-98.64
868.932	28.33
869.105	-10.58
869.279	-6.49
869.452	16.04
869.625	40.62
869.799	13.99
869.972	-45.4
870.145	44.71
870.319	-41.3
870.492	7.85
870.665	-45.4
870.838	63.15
871.011	13.99
871.185	-22.87
871.358	-29.01
871.531	52.91
871.704	28.33
871.877	7.85
872.05	-92.5
872.223	-26.96
872.396	-8.53
872.569	-18.77
872.742	-16.73
872.915	-4.44
873.088	-26.96
873.261	36.52
873.434	69.29
873.607	69.29
873.78	-2.39
873.953	18.09
874.126	54.95
874.299	22.19
874.471	-61.78
874.644	-12.63
874.817	50.86
874.99	22.19
875.163	13.99
875.335	61.1
875.508	-53.59
875.681	42.67
875.853	-47.44
876.026	-18.77
876.199	5.8
876.371	24.23
876.544	-10.58
876.717	75.43
876.889	42.67
877.062	89.77
877.234	-4.44
877.407	-31.06
877.579	61.1
877.752	9.9
877.924	-35.16
878.097	36.52
878.269	-45.4
878.442	-12.63
878.614	5.8
878.786	-49.49
878.959	-2.39
879.131	9.9
879.303	-59.73
879.476	3.75
879.648	-35.16
879.82	-2.39
879.993	-45.4
880.165	20.14
880.337	-94.55
880.509	-29.01
880.681	-43.35
880.854	36.52
881.026	20.14
881.198	30.38
881.37	-10.58
881.542	18.09
881.714	-0.34
881.886	3.75
882.058	3.75
882.23	3.75
882.402	5.8
882.574	-2.39
882.746	-29.01
882.918	30.38
883.09	26.28
883.262	32.43
883.434	40.62
883.606	40.62
883.778	-53.59
883.95	52.91
884.122	3.75
884.293	61.1
884.465	-49.49
884.637	50.86
884.809	-37.2
884.98	11.95
885.152	65.19
885.324	61.1
885.496	-26.96
885.667	-41.3
885.839	34.47
886.011	3.75
886.182	36.52
886.354	38.57
886.525	40.62
886.697	-90.45
886.869	-37.2
887.04	-76.12
887.212	-8.53
887.383	11.95
887.555	50.86
887.726	44.71
887.897	-63.83
888.069	63.15
888.24	63.15
888.412	-61.78
888.583	-2.39
888.754	-35.16
888.926	11.95
889.097	-45.4
889.268	-4.44
889.44	5.8
889.611	-123.22
889.782	3.75
889.953	-49.49
890.125	-37.2
890.296	-16.73
890.467	-26.96
890.638	30.38
890.809	-12.63
890.98	-72.02
891.151	-41.3
891.323	50.86
891.494	38.57
891.665	-76.12
891.836	-4.44
892.007	-59.73
892.178	-8.53
892.349	52.91
892.52	-2.39
892.691	-0.34
892.862	61.1
893.032	16.04
893.203	1.71
893.374	38.57
893.545	-24.92
893.716	-24.92
893.887	-22.87
894.057	-49.49
894.228	3.75
894.399	-31.06
894.57	9.9
894.74	46.76
894.911	36.52
895.082	44.71
895.253	28.33
895.423	-74.07
895.594	61.1
895.764	42.67
895.935	-22.87
896.106	-20.82
896.276	36.52
896.447	13.99
896.617	-26.96
896.788	-4.44
896.958	-0.34
897.129	-24.92
897.299	22.19
897.47	52.91
897.64	44.71
897.81	44.71
897.981	11.95
898.151	-6.49
898.322	28.33
898.492	-29.01
898.662	11.95
898.832	-20.82
899.003	-20.82
899.173	57
899.343	-26.96
899.513	-31.06
