Data from USB4F104151__271__14-23-14-987.txt Node

Date: Thu Mar 13 14:23:14 EDT 2025
User: louis
Spectrometer: USB4F10415
Trigger mode: 4
Integration Time (sec): 2.000000E-2
Scans to average: 1
Electric dark correction enabled: true
Nonlinearity correction enabled: false
Boxcar width: 0
XAxis mode: Wavelengths
Number of Pixels in Spectrum: 3648
>>>>>Begin Spectral Data<<<<<
178.204	-103.76
178.424	-103.76
178.644	-103.76
178.864	-126.29
179.084	-95.57
179.304	-17.75
179.524	-75.09
179.744	72.36
179.964	41.64
180.184	21.16
180.404	25.26
180.624	-103.76
180.844	8.87
181.064	-5.46
181.283	17.07
181.503	-38.23
181.723	53.93
181.943	-32.08
182.163	0.68
182.383	-36.18
182.602	68.27
182.822	-5.46
183.042	6.83
183.262	-25.94
183.482	33.45
183.701	6.83
183.921	39.59
184.141	-17.75
184.361	19.11
184.58	43.69
184.8	10.92
185.02	-75.09
185.239	12.97
185.459	23.21
185.679	96.94
185.898	23.21
186.118	39.59
186.338	-7.51
186.557	64.17
186.777	25.26
186.997	88.75
187.216	-19.8
187.436	-17.75
187.655	19.11
187.875	80.55
188.095	111.27
188.314	33.45
188.534	25.26
188.753	-32.08
188.973	96.94
189.192	74.41
189.412	84.65
189.631	53.93
189.851	-27.99
190.07	15.02
190.29	10.92
190.509	23.21
190.729	-1.37
190.948	92.84
191.168	96.94
191.387	74.41
191.607	-23.89
191.826	-1.37
192.045	8.87
192.265	-79.19
192.484	82.6
192.704	-17.75
192.923	-40.28
193.142	51.88
193.362	23.21
193.581	6.83
193.8	31.4
194.02	23.21
194.239	-25.94
194.458	-17.75
194.678	-17.75
194.897	29.35
195.116	-1.37
195.335	39.59
195.555	35.5
195.774	-17.75
195.993	25.26
196.212	35.5
196.432	-5.46
196.651	-13.65
196.87	31.4
197.089	76.46
197.308	84.65
197.528	53.93
197.747	-7.51
197.966	51.88
198.185	27.31
198.404	6.83
198.623	107.18
198.842	70.31
199.062	88.75
199.281	43.69
199.5	15.02
199.719	-34.13
199.938	4.78
200.157	152.23
200.376	55.98
200.595	72.36
200.814	-11.61
201.033	6.83
201.252	27.31
201.471	41.64
201.69	55.98
201.909	146.09
202.128	76.46
202.347	43.69
202.566	8.87
202.785	-5.46
203.004	-27.99
203.223	113.32
203.442	15.02
203.661	51.88
203.879	47.79
204.098	47.79
204.317	23.21
204.536	62.12
204.755	-9.56
204.974	105.13
205.193	19.11
205.411	80.55
205.63	-30.04
205.849	41.64
206.068	107.18
206.287	84.65
206.505	96.94
206.724	80.55
206.943	-3.41
207.162	-13.65
207.381	39.59
207.599	19.11
207.818	49.83
208.037	8.87
208.255	2.73
208.474	31.4
208.693	25.26
208.911	-1.37
209.13	-1.37
209.349	21.16
209.567	23.21
209.786	90.79
210.005	74.41
210.223	-42.32
210.442	37.55
210.661	33.45
210.879	17.07
211.098	4.78
211.316	66.22
211.535	15.02
211.753	76.46
211.972	58.03
212.191	43.69
212.409	-23.89
212.628	51.88
212.846	-7.51
213.065	41.64
213.283	55.98
213.502	39.59
213.72	74.41
213.938	113.32
214.157	35.5
214.375	23.21
214.594	47.79
214.812	21.16
215.031	19.11
215.249	15.02
215.467	-40.28
215.686	55.98
215.904	51.88
216.122	76.46
216.341	39.59
216.559	53.93
216.778	47.79
216.996	23.21
217.214	-7.51
217.432	47.79
217.651	31.4
217.869	-25.94
218.087	23.21
218.306	66.22
218.524	133.8
218.742	23.21
218.96	23.21
219.179	12.97
219.397	6.83
219.615	74.41
219.833	0.68
220.051	0.68
220.27	107.18
220.488	39.59
220.706	35.5
220.924	-34.13
221.142	64.17
221.36	84.65
221.578	80.55
221.796	31.4
222.015	51.88
222.233	43.69
222.451	41.64
222.669	8.87
222.887	2.73
223.105	19.11
223.323	6.83
223.541	66.22
223.759	19.11
223.977	25.26
224.195	6.83
224.413	43.69
224.631	82.6
224.849	86.7
225.067	64.17
225.285	-5.46
225.503	47.79
225.721	-17.75
225.939	8.87
226.157	0.68
226.375	41.64
226.592	-62.8
226.81	2.73
227.028	88.75
227.246	96.94
227.464	55.98
227.682	115.37
227.9	19.11
228.117	33.45
228.335	55.98
228.553	0.68
228.771	66.22
228.989	6.83
229.206	21.16
229.424	-50.52
229.642	-23.89
229.86	80.55
230.077	107.18
230.295	41.64
230.513	15.02
230.731	60.07
230.948	119.46
231.166	90.79
231.384	-56.66
231.601	-7.51
231.819	51.88
232.037	19.11
232.254	62.12
232.472	8.87
232.689	31.4
232.907	55.98
233.125	-1.37
233.342	39.59
233.56	0.68
233.777	27.31
233.995	68.27
234.213	90.79
234.43	55.98
234.648	-23.89
234.865	41.64
235.083	66.22
235.3	-19.8
235.518	15.02
235.735	39.59
235.953	72.36
236.17	-1.37
236.388	80.55
236.605	-17.75
236.822	90.79
237.04	17.07
237.257	96.94
237.475	-21.85
237.692	4.78
237.909	15.02
238.127	0.68
238.344	23.21
238.562	115.37
238.779	4.78
238.996	74.41
239.214	0.68
239.431	82.6
239.648	-13.65
239.865	135.85
240.083	68.27
240.3	51.88
240.517	25.26
240.735	4.78
240.952	55.98
241.169	-23.89
241.386	84.65
241.603	8.87
241.821	25.26
242.038	23.21
242.255	47.79
242.472	70.31
242.689	-7.51
242.907	76.46
243.124	6.83
243.341	90.79
243.558	17.07
243.775	64.17
243.992	27.31
244.209	15.02
244.426	111.27
244.643	166.57
244.86	-13.65
245.078	0.68
245.295	55.98
245.512	23.21
245.729	41.64
245.946	15.02
246.163	15.02
246.38	55.98
246.597	10.92
246.814	-23.89
247.031	-3.41
247.248	8.87
247.464	6.83
247.681	82.6
247.898	23.21
248.115	88.75
248.332	-34.13
248.549	80.55
248.766	121.51
248.983	78.51
249.2	-44.37
249.417	80.55
249.633	29.35
249.85	88.75
250.067	6.83
250.284	-1.37
250.501	23.21
250.717	41.64
250.934	37.55
251.151	15.02
251.368	31.4
251.585	47.79
251.801	51.88
252.018	2.73
252.235	47.79
252.451	-44.37
252.668	39.59
252.885	78.51
253.102	80.55
253.318	41.64
253.535	-9.56
253.752	70.31
253.968	39.59
254.185	15.02
254.401	-11.61
254.618	47.79
254.835	23.21
255.051	94.89
255.268	47.79
255.484	-1.37
255.701	23.21
255.917	-21.85
256.134	27.31
256.351	-9.56
256.567	-130.39
256.784	72.36
257	-5.46
257.217	55.98
257.433	-50.52
257.65	-1.37
257.866	-7.51
258.082	-25.94
258.299	8.87
258.515	88.75
258.732	74.41
258.948	45.74
259.165	62.12
259.381	-30.04
259.597	82.6
259.814	6.83
260.03	8.87
260.246	17.07
260.463	103.08
260.679	98.99
260.895	58.03
261.112	-9.56
261.328	33.45
261.544	8.87
261.761	135.85
261.977	-50.52
262.193	55.98
262.409	39.59
262.626	31.4
262.842	35.5
263.058	-5.46
263.274	-13.65
263.49	25.26
263.707	78.51
263.923	8.87
264.139	31.4
264.355	68.27
264.571	107.18
264.787	8.87
265.004	-15.7
265.22	-1.37
265.436	55.98
265.652	-9.56
265.868	-56.66
266.084	41.64
266.3	39.59
266.516	53.93
266.732	-38.23
266.948	21.16
267.164	10.92
267.38	10.92
267.596	76.46
267.812	47.79
268.028	88.75
268.244	41.64
268.46	39.59
268.676	35.5
268.892	31.4
269.108	29.35
269.324	117.42
269.54	-1.37
269.756	139.94
269.972	15.02
270.188	49.83
270.403	21.16
270.619	121.51
270.835	4.78
271.051	64.17
271.267	12.97
271.483	39.59
271.698	90.79
271.914	90.79
272.13	92.84
272.346	-1.37
272.562	29.35
272.777	58.03
272.993	-7.51
273.209	92.84
273.425	72.36
273.64	-19.8
273.856	58.03
274.072	-11.61
274.287	-9.56
274.503	4.78
274.719	31.4
274.934	15.02
275.15	10.92
275.366	27.31
275.581	43.69
275.797	-3.41
276.012	72.36
276.228	4.78
276.444	96.94
276.659	64.17
276.875	74.41
277.09	101.03
277.306	70.31
277.521	39.59
277.737	-9.56
277.952	64.17
278.168	72.36
278.383	129.7
278.599	80.55
278.814	55.98
279.03	-23.89
279.245	96.94
279.461	74.41
279.676	72.36
279.892	64.17
280.107	19.11
280.322	68.27
280.538	84.65
280.753	72.36
280.969	8.87
281.184	15.02
281.399	55.98
281.615	-36.18
281.83	39.59
282.045	-17.75
282.26	23.21
282.476	98.99
282.691	39.59
282.906	43.69
283.122	68.27
283.337	107.18
283.552	105.13
283.767	29.35
283.983	51.88
284.198	107.18
284.413	47.79
284.628	31.4
284.843	141.99
285.058	150.18
285.274	31.4
285.489	55.98
285.704	80.55
285.919	68.27
286.134	-128.34
286.349	35.5
286.564	29.35
286.779	154.28
286.995	41.64
287.21	-38.23
287.425	0.68
287.64	6.83
287.855	-21.85
288.07	-7.51
288.285	115.37
288.5	60.07
288.715	72.36
288.93	25.26
289.145	29.35
289.36	41.64
289.575	43.69
289.79	80.55
290.004	12.97
290.219	60.07
290.434	15.02
290.649	45.74
290.864	51.88
291.079	-15.7
291.294	31.4
291.509	17.07
291.724	55.98
291.938	6.83
292.153	117.42
292.368	64.17
292.583	72.36
292.798	78.51
293.012	-17.75
293.227	19.11
293.442	15.02
293.657	55.98
293.871	84.65
294.086	53.93
294.301	109.22
294.516	47.79
294.73	31.4
294.945	78.51
295.16	72.36
295.374	96.94
295.589	23.21
295.804	43.69
296.018	6.83
296.233	92.84
296.447	41.64
296.662	92.84
296.877	58.03
297.091	-23.89
297.306	-9.56
297.52	10.92
297.735	84.65
297.949	-54.61
298.164	80.55
298.378	41.64
298.593	60.07
298.807	39.59
299.022	45.74
299.236	133.8
299.451	88.75
299.665	39.59
299.88	17.07
300.094	31.4
300.309	72.36
300.523	70.31
300.737	31.4
300.952	90.79
301.166	15.02
301.381	27.31
301.595	80.55
301.809	55.98
302.024	12.97
302.238	27.31
302.452	0.68
302.667	-32.08
302.881	88.75
303.095	21.16
303.309	31.4
303.524	-30.04
303.738	68.27
303.952	15.02
304.166	41.64
304.381	64.17
304.595	98.99
304.809	-19.8
305.023	90.79
305.237	-32.08
305.452	2.73
305.666	84.65
305.88	88.75
306.094	31.4
306.308	76.46
306.522	47.79
306.736	152.23
306.95	19.11
307.164	-50.52
307.379	47.79
307.593	101.03
307.807	43.69
308.021	58.03
308.235	47.79
308.449	-25.94
308.663	27.31
308.877	33.45
309.091	-9.56
309.305	25.26
309.519	39.59
309.733	70.31
309.947	-30.04
310.161	15.02
310.374	-13.65
310.588	86.7
310.802	80.55
311.016	113.32
311.23	113.32
311.444	19.11
311.658	31.4
311.872	41.64
312.085	25.26
312.299	47.79
312.513	64.17
312.727	74.41
312.941	115.37
313.154	6.83
313.368	8.87
313.582	72.36
313.796	82.6
314.009	-75.09
314.223	23.21
314.437	15.02
314.651	72.36
314.864	31.4
315.078	53.93
315.292	21.16
315.505	80.55
315.719	74.41
315.933	23.21
316.146	111.27
316.36	107.18
316.573	76.46
316.787	0.68
317.001	105.13
317.214	23.21
317.428	33.45
317.641	6.83
317.855	43.69
318.068	29.35
318.282	47.79
318.495	62.12
318.709	33.45
318.922	60.07
319.136	64.17
319.349	47.79
319.563	55.98
319.776	68.27
319.99	6.83
320.203	-32.08
320.417	45.74
320.63	64.17
320.843	139.94
321.057	35.5
321.27	15.02
321.483	55.98
321.697	17.07
321.91	33.45
322.124	45.74
322.337	35.5
322.55	10.92
322.763	31.4
322.977	-9.56
323.19	15.02
323.403	37.55
323.617	6.83
323.83	21.16
324.043	29.35
324.256	49.83
324.469	6.83
324.683	58.03
324.896	-42.32
325.109	23.21
325.322	-25.94
325.535	76.46
325.748	-1.37
325.962	25.26
326.175	90.79
326.388	78.51
326.601	23.21
326.814	-15.7
327.027	55.98
327.24	121.51
327.453	55.98
327.666	88.75
327.879	49.83
328.092	123.56
328.305	94.89
328.518	27.31
328.731	43.69
328.944	98.99
329.157	-23.89
329.37	-48.47
329.583	45.74
329.796	111.27
330.009	35.5
330.222	82.6
330.435	64.17
330.648	72.36
330.861	58.03
331.073	84.65
331.286	55.98
331.499	62.12
331.712	-34.13
331.925	0.68
332.138	84.65
332.35	92.84
332.563	17.07
332.776	72.36
332.989	-23.89
333.202	101.03
333.414	27.31
333.627	107.18
333.84	0.68
334.053	25.26
334.265	6.83
334.478	80.55
334.691	43.69
334.903	51.88
335.116	-50.52
335.329	35.5
335.541	72.36
335.754	31.4
335.966	10.92
336.179	88.75
336.392	-15.7
336.604	58.03
336.817	72.36
337.029	58.03
337.242	15.02
337.454	49.83
337.667	-7.51
337.88	70.31
338.092	31.4
338.305	66.22
338.517	4.78
338.729	-34.13
338.942	60.07
339.154	80.55
339.367	19.11
339.579	64.17
339.792	31.4
340.004	47.79
340.217	-15.7
340.429	84.65
340.641	0.68
340.854	25.26
341.066	33.45
341.278	37.55
341.491	60.07
341.703	55.98
341.915	60.07
342.128	55.98
342.34	51.88
342.552	58.03
342.764	37.55
342.977	51.88
343.189	88.75
343.401	146.09
343.613	31.4
343.826	72.36
344.038	15.02
344.25	31.4
344.462	39.59
344.674	113.32
344.886	72.36
345.099	131.75
345.311	139.94
345.523	68.27
345.735	-5.46
345.947	49.83
346.159	92.84
346.371	107.18
346.583	33.45
346.795	39.59
347.007	23.21
347.219	21.16
347.431	29.35
347.643	72.36
347.855	35.5
348.067	39.59
348.279	70.31
348.491	64.17
348.703	43.69
348.915	-15.7
349.127	-7.51
349.339	55.98
349.551	15.02
349.763	64.17
349.975	-13.65
350.187	103.08
350.399	60.07
350.61	23.21
350.822	21.16
351.034	92.84
351.246	25.26
351.458	121.51
351.669	60.07
351.881	51.88
352.093	15.02
352.305	68.27
352.517	72.36
352.728	107.18
352.94	-25.94
353.152	17.07
353.363	58.03
353.575	17.07
353.787	131.75
353.999	39.59
354.21	117.42
354.422	21.16
354.633	33.45
354.845	25.26
355.057	-11.61
355.268	74.41
355.48	72.36
355.692	21.16
355.903	0.68
356.115	35.5
356.326	60.07
356.538	68.27
356.749	47.79
356.961	98.99
357.172	4.78
357.384	25.26
357.595	25.26
357.807	88.75
358.018	51.88
358.23	2.73
358.441	72.36
358.653	68.27
358.864	-1.37
359.075	47.79
359.287	103.08
359.498	41.64
359.709	31.4
359.921	31.4
360.132	84.65
360.344	60.07
360.555	37.55
360.766	35.5
360.977	88.75
361.189	62.12
361.4	62.12
361.611	96.94
361.823	37.55
362.034	62.12
362.245	-9.56
362.456	55.98
362.667	43.69
362.879	68.27
363.09	78.51
363.301	84.65
363.512	90.79
363.723	-48.47
363.935	27.31
364.146	72.36
364.357	2.73
364.568	96.94
364.779	70.31
364.99	109.22
365.201	47.79
365.412	115.37
365.623	-66.9
365.834	72.36
366.045	0.68
366.256	55.98
366.467	82.6
366.678	84.65
366.889	47.79
367.1	80.55
367.311	27.31
367.522	23.21
367.733	12.97
367.944	37.55
368.155	105.13
368.366	105.13
368.577	94.89
368.788	88.75
368.999	74.41
369.209	51.88
369.42	74.41
369.631	41.64
369.842	55.98
370.053	64.17
370.264	107.18
370.474	47.79
370.685	96.94
370.896	90.79
371.107	162.47
371.317	62.12
371.528	-25.94
371.739	96.94
371.95	0.68
372.16	64.17
372.371	41.64
372.582	-58.71
372.792	74.41
373.003	64.17
373.214	68.27
373.424	31.4
373.635	-27.99
373.846	123.56
374.056	96.94
374.267	58.03
374.477	10.92
374.688	10.92
374.898	47.79
375.109	82.6
375.319	43.69
375.53	90.79
375.74	41.64
375.951	33.45
376.161	19.11
376.372	72.36
376.582	-66.9
376.793	43.69
377.003	15.02
377.214	25.26
377.424	72.36
377.635	55.98
377.845	-27.99
378.055	47.79
378.266	2.73
378.476	64.17
378.686	25.26
378.897	94.89
379.107	33.45
379.317	43.69
379.528	0.68
379.738	31.4
379.948	-46.42
380.158	109.22
380.369	131.75
380.579	8.87
380.789	33.45
380.999	115.37
381.21	25.26
381.42	101.03
381.63	78.51
381.84	98.99
382.05	103.08
382.261	47.79
382.471	47.79
382.681	127.66
382.891	127.66
383.101	72.36
383.311	39.59
383.521	35.5
383.731	96.94
383.941	72.36
384.151	76.46
384.361	64.17
384.571	113.32
384.781	117.42
384.991	137.9
385.201	105.13
385.411	113.32
385.621	15.02
385.831	33.45
386.041	43.69
386.251	82.6
386.461	41.64
386.671	82.6
386.881	72.36
387.091	107.18
387.301	49.83
387.511	92.84
387.72	8.87
387.93	80.55
388.14	60.07
388.35	90.79
388.56	33.45
388.769	64.17
388.979	35.5
389.189	23.21
389.399	76.46
389.609	-1.37
389.818	129.7
390.028	47.79
390.238	105.13
390.447	60.07
390.657	88.75
390.867	72.36
391.076	82.6
391.286	90.79
391.496	107.18
391.705	41.64
391.915	107.18
392.125	121.51
392.334	41.64
392.544	113.32
392.753	76.46
392.963	66.22
393.172	103.08
393.382	-17.75
393.591	166.57
393.801	84.65
394.01	76.46
394.22	55.98
394.429	113.32
394.639	47.79
394.848	123.56
395.058	64.17
395.267	115.37
395.477	90.79
395.686	78.51
395.895	164.52
396.105	146.09
396.314	41.64
396.524	115.37
396.733	113.32
396.942	185
397.152	121.51
397.361	166.57
397.57	113.32
397.78	72.36
397.989	121.51
398.198	113.32
398.407	51.88
398.617	103.08
398.826	105.13
399.035	129.7
399.244	133.8
399.453	105.13
399.663	113.32
399.872	121.51
400.081	64.17
400.29	107.18
400.499	94.89
400.708	135.85
400.917	74.41
401.127	109.22
401.336	98.99
401.545	129.7
401.754	88.75
401.963	94.89
402.172	111.27
402.381	115.37
402.59	98.99
402.799	146.09
403.008	113.32
403.217	64.17
403.426	92.84
403.635	137.9
403.844	148.14
404.053	129.7
404.262	115.37
404.471	101.03
404.68	148.14
404.888	96.94
405.097	203.43
405.306	174.76
405.515	170.66
405.724	113.32
405.933	178.86
406.142	129.7
406.35	146.09
406.559	137.9
406.768	230.06
406.977	211.62
407.185	246.44
407.394	156.33
407.603	244.39
407.812	279.21
408.02	215.72
408.229	195.24
408.438	246.44
408.646	260.77
408.855	219.82
409.064	326.31
409.272	289.45
409.481	309.93
409.69	342.69
409.898	236.2
410.107	371.36
410.315	354.98
410.524	309.93
410.733	334.5
410.941	397.99
411.15	350.89
411.358	408.23
411.567	449.19
411.775	484
411.984	363.17
412.192	418.47
412.401	481.96
412.609	514.72
412.818	641.7
413.026	486.05
413.234	541.35
413.443	596.64
413.651	563.87
413.86	674.46
414.068	629.41
414.276	596.64
414.485	641.7
414.693	690.85
414.901	627.36
415.11	740
415.318	826.01
415.526	758.43
415.734	821.92
415.943	846.49
416.151	940.7
416.359	936.6
416.567	869.02
416.776	963.23
416.984	1057.43
417.192	1039
417.4	1034.91
417.608	1059.48
417.817	1104.54
418.025	1194.65
418.233	1295
418.441	1208.98
418.649	1288.85
418.857	1366.68
419.065	1428.12
419.273	1305.24
419.481	1399.45
419.689	1548.95
419.897	1581.71
420.105	1628.82
420.313	1768.08
420.521	1702.54
420.729	1714.83
420.937	1802.9
421.145	1915.53
421.353	2005.64
421.561	2054.8
421.769	2099.85
421.977	2097.8
422.185	2327.18
422.393	2235.02
422.601	2431.62
422.809	2409.09
423.017	2499.2
423.224	2593.41
423.432	2579.08
423.64	2636.42
423.848	3033.72
424.056	2710.15
424.263	2937.47
424.471	2996.86
424.679	3046.01
424.887	3265.14
425.094	3342.97
425.302	3367.54
425.51	3521.14
425.718	3564.15
425.925	3627.64
426.133	3842.67
426.341	3957.36
426.548	4004.46
426.756	4233.83
426.964	4233.83
427.171	4319.85
427.379	4442.73
427.586	4541.03
427.794	4643.43
428.001	4932.19
428.209	5118.56
428.417	5073.5
428.624	5462.62
428.832	5413.46
429.039	5577.3
429.247	5366.36
429.454	5880.4
429.662	6433.35
429.869	6021.71
430.076	6308.43
430.284	6083.15
430.491	6439.5
430.699	6855.23
430.906	6675.01
431.114	6779.46
431.321	6998.59
431.528	7092.8
431.736	7660.09
431.943	8063.54
432.15	7680.57
432.358	7854.64
432.565	8305.2
432.772	8407.59
432.979	8542.76
433.187	8862.24
433.394	8888.87
433.601	9507.35
433.808	9583.13
434.016	9468.44
434.223	9804.31
434.43	10525.19
434.637	10078.74
434.844	10816.01
435.052	11004.42
435.259	11069.95
435.466	11215.36
435.673	11330.05
435.88	11934.2
436.087	12253.68
436.294	12335.6
436.501	12038.64
436.708	12280.3
436.915	12917.22
437.122	13365.73
437.329	13154.79
437.537	13668.83
437.743	13971.93
437.95	13715.93
438.157	14399.95
438.364	14891.46
438.571	14903.75
438.778	14735.82
438.985	16673.2
439.192	15741.37
439.399	16009.65
439.606	15833.53
439.813	16888.23
440.02	17732
440.227	17412.51
440.433	17385.89
440.64	17828.25
440.847	17852.83
441.054	18076.05
441.261	19313.03
441.467	18985.35
441.674	19480.96
441.881	20371.83
442.088	20195.7
442.294	20150.65
442.501	20476.27
442.708	20926.83
442.914	21619.04
443.121	22692.18
443.328	22151.51
443.534	23527.75
443.741	22716.75
443.948	22415.7
444.154	24308.02
444.361	24185.15
444.568	24328.5
444.774	24334.65
444.981	24334.65
445.187	25227.56
445.394	26159.39
445.6	26140.96
445.807	28659.96
446.013	26933.52
446.22	27468.04
446.426	28621.05
446.633	29239.53
446.839	30230.75
447.046	28829.94
447.252	30165.21
447.459	30355.68
447.665	30187.74
447.871	31768.77
448.078	32784.57
448.284	31142.1
448.491	31977.67
448.697	33534.12
448.903	33962.15
449.11	34451.61
449.316	33421.48
449.522	34324.64
449.728	35209.36
449.935	35383.44
450.141	35113.11
450.347	36182.15
450.553	35098.77
450.76	35623.05
450.966	36765.82
451.172	35999.88
451.378	37265.52
451.584	36427.9
451.791	37331.06
451.997	37529.71
452.203	38047.85
452.409	37994.6
452.615	37802.09
452.821	36554.88
453.027	36167.81
453.233	37871.72
453.44	36612.22
453.646	37058.68
453.852	37195.89
454.058	37724.27
454.264	36554.88
454.47	37650.54
454.676	36339.84
454.882	37576.81
455.088	34267.3
455.294	34975.89
455.5	35477.65
455.705	35887.24
455.911	34451.61
456.117	33480.88
456.323	33456.3
456.529	31592.65
456.735	33253.55
456.941	32227.52
457.147	31822.02
457.352	30863.57
457.558	30363.87
457.764	30554.33
457.97	30091.49
458.176	29444.33
458.381	29612.26
458.587	27912.45
458.793	27939.07
458.999	26491.16
459.204	28657.91
459.41	27748.61
459.616	25893.15
459.821	25999.65
460.027	26056.99
460.233	25270.57
460.438	23984.44
460.644	24813.87
460.85	23347.53
461.055	22810.96
461.261	22886.73
461.466	21277.03
461.672	20545.91
461.878	22022.49
462.083	20617.58
462.289	20115.83
462.494	19986.81
462.7	19059.08
462.905	18530.7
463.111	19474.82
463.316	19390.85
463.522	18921.87
463.727	18839.95
463.932	19089.8
464.138	18717.07
464.343	18913.67
464.549	18147.73
464.754	18764.17
464.959	18248.08
465.165	18340.24
465.37	17709.47
465.575	17236.39
465.781	18268.56
465.986	18067.86
466.191	17795.48
466.397	17150.37
466.602	16568.75
466.807	16896.42
467.012	16775.59
467.218	16705.96
467.423	16462.26
467.628	16646.57
467.833	17359.27
468.038	17025.45
468.244	16056.76
468.449	16982.44
468.654	16302.51
468.859	16302.51
469.064	16228.79
469.269	15434.18
469.474	15782.33
469.679	16081.33
469.885	15479.23
470.09	15819.19
470.295	15811
470.5	15364.54
470.705	15501.76
470.91	14942.66
471.115	15016.39
471.32	15145.41
471.525	14715.34
471.73	14528.97
471.935	14746.06
472.139	14129.62
472.344	14375.38
472.549	14219.73
472.754	13947.35
472.959	13683.16
473.164	13371.87
473.369	13175.27
473.574	13646.3
473.778	13500.89
473.983	13418.97
474.188	13365.73
474.393	12843.49
474.598	12829.16
474.802	12589.55
475.007	12714.47
475.212	12892.65
475.417	12239.34
475.621	12112.37
475.826	12321.26
476.031	12034.55
476.235	11788.79
476.44	12093.94
476.645	11725.3
476.849	11940.34
477.054	11639.29
477.259	11430.4
477.463	11379.2
477.668	11311.61
477.872	11352.57
478.077	11225.6
478.282	10783.24
478.486	10807.81
478.691	10918.4
478.895	10758.66
479.1	10457.61
479.304	10758.66
479.509	10379.79
479.713	10537.48
479.918	10263.05
480.122	10181.14
480.326	10476.04
480.531	10394.12
480.735	10131.98
480.94	10152.46
481.144	10336.78
481.348	9845.27
481.553	10121.74
481.757	9789.97
481.961	10037.78
482.166	10005.01
482.37	9939.47
482.574	9849.36
482.778	10138.13
482.983	10095.12
483.187	10164.75
483.391	9953.81
483.595	9722.39
483.8	10039.83
484.004	9800.21
484.208	10035.73
484.412	9986.58
484.616	9882.13
484.821	9816.6
485.025	9660.95
485.229	9896.47
485.433	9673.24
485.637	9693.72
485.841	9765.4
486.045	9808.4
486.249	9951.76
486.453	9701.91
486.657	9720.34
486.861	9845.27
487.065	9673.24
487.269	9861.65
487.473	9450.01
487.677	9751.06
487.881	9857.56
488.085	9568.79
488.289	10041.87
488.493	9839.12
488.697	9910.8
488.901	9814.55
489.105	9984.53
489.309	9976.34
489.512	10099.22
489.716	9959.95
489.92	9984.53
490.124	9964.05
490.328	10117.65
490.531	10017.3
490.735	10144.27
490.939	9968.15
491.143	9978.39
491.346	10002.96
491.55	10160.66
491.754	10263.05
491.958	10377.74
492.161	10451.47
492.365	10402.32
492.569	10441.23
492.772	10404.36
492.976	10428.94
493.18	10377.74
493.383	10635.78
493.587	10744.33
493.79	11000.32
493.994	10582.54
494.197	10762.76
494.401	10918.4
494.605	10854.92
494.808	11235.84
495.012	11239.94
495.215	11133.44
495.419	11403.77
495.622	11213.31
495.825	11448.83
496.029	11444.73
496.232	11563.51
496.436	11598.33
496.639	12106.23
496.843	11997.68
497.046	11993.59
497.249	12098.03
497.453	12284.4
497.656	12530.16
497.859	12126.71
498.063	12454.38
498.266	12792.3
498.469	12665.32
498.673	12868.07
498.876	12943.85
499.079	13394.4
499.282	13060.58
499.485	13380.06
499.689	13574.62
499.892	13572.57
500.095	13775.32
500.298	14328.27
500.501	14070.23
500.705	14305.74
500.908	14672.33
501.111	14686.67
501.314	15006.15
501.517	14973.38
501.72	15022.53
501.923	15176.13
502.126	15491.52
502.329	15669.69
502.532	15526.33
502.735	15839.67
502.938	16288.18
503.141	16576.94
503.344	16441.78
503.547	16474.54
503.75	16671.15
503.953	17027.49
504.156	17035.69
504.359	17265.06
504.562	17242.53
504.765	18026.9
504.968	17717.66
505.17	18096.53
505.373	18237.84
505.576	18389.39
505.779	18559.38
505.982	18755.98
506.185	19198.34
506.387	19052.94
506.59	19470.72
506.793	19941.75
506.996	19796.35
507.198	20463.99
507.401	20031.86
507.604	20443.51
507.807	21387.62
508.009	20789.61
508.212	21135.72
508.415	21361
508.617	21696.86
508.82	21672.29
509.022	21475.68
509.225	22305.11
509.428	22372.69
509.63	22667.6
509.833	22581.59
510.035	23300.42
510.238	23255.37
510.44	23507.27
510.643	23564.61
510.845	24072.51
511.048	24013.12
511.25	24435
511.453	24324.41
511.655	25493.8
511.858	25096.49
512.06	25143.59
512.262	25594.15
512.465	25495.85
512.667	26056.99
512.87	26237.21
513.072	26179.87
513.274	26792.21
513.477	27095.31
513.679	27058.45
513.881	27644.16
514.084	27717.89
514.286	27760.9
514.488	28178.68
514.69	28700.92
514.893	29165.81
515.095	29069.55
515.297	29366.51
515.499	29327.6
515.701	29415.66
515.904	29802.72
516.106	30523.61
516.308	30560.47
516.51	30933.2
516.712	30965.97
516.914	31635.66
517.116	31584.46
517.318	32014.53
517.52	32215.23
517.722	32202.94
517.925	32762.04
518.127	33077.43
518.329	33317.04
518.531	33210.54
518.733	33460.4
518.935	34035.88
519.136	34369.69
519.338	34619.55
519.54	34840.73
519.742	35084.44
519.944	35061.91
520.146	35856.52
520.348	35877
520.55	36153.47
520.752	36417.66
520.954	36640.89
521.155	36888.7
521.357	37245.04
521.559	37494.89
521.761	37593.2
521.963	37902.44
522.164	38221.92
522.366	38400.1
522.568	38608.99
522.77	38758.49
522.971	39280.72
523.173	39280.72
523.375	39669.84
523.576	39559.25
523.778	39987.27
523.98	40087.62
524.181	40384.58
524.383	40345.67
524.584	40898.62
524.786	40620.09
524.988	40437.83
525.189	41463.86
525.391	41324.6
525.592	41666.61
525.794	41871.4
525.995	41570.35
526.197	42307.62
526.398	42362.92
526.6	42332.2
526.801	42776.61
527.003	42973.21
527.204	42465.31
527.406	43100.18
527.607	42807.33
527.808	43091.99
528.01	42784.8
528.211	42911.77
528.412	43708.43
528.614	43628.56
528.815	43425.81
529.016	43968.52
529.218	43597.84
529.419	44341.25
529.62	44001.29
529.822	43962.38
530.023	44206.09
530.224	44154.89
530.425	44115.98
530.626	44095.5
530.828	44025.87
531.029	44720.13
531.23	44349.45
531.431	44238.86
531.632	44449.8
531.833	44423.17
532.035	44529.67
532.236	44746.75
532.437	44650.5
532.638	44285.96
532.839	44511.24
533.04	44603.39
533.241	44797.95
533.442	45461.49
533.643	44976.12
533.844	44652.55
534.045	44830.72
534.246	44492.8
534.447	44900.35
534.648	44843.01
534.849	44910.59
535.05	44603.39
535.251	44881.92
535.451	44507.14
535.652	45109.24
535.853	44707.84
536.054	44896.25
536.255	44562.43
536.456	44263.43
536.657	44943.36
536.857	44169.22
537.058	44544
537.259	44748.8
537.46	44732.42
537.66	44513.28
537.861	44677.12
538.062	44210.18
538.263	44697.6
538.463	43714.58
538.664	44242.95
538.865	44623.87
539.065	44507.14
539.266	44201.99
539.466	44652.55
539.667	44251.14
539.868	44793.86
540.068	44417.03
540.269	44142.6
540.469	44728.32
540.67	43874.32
540.87	44251.14
541.071	43913.23
541.271	44290.05
541.472	44087.31
541.672	44369.93
541.873	44113.93
542.073	43614.23
542.274	44478.47
542.474	43911.18
542.675	43585.55
542.875	44431.36
543.075	44093.45
543.276	43567.12
543.476	44388.36
543.676	43778.06
543.877	44361.73
544.077	43724.82
544.277	43972.62
544.478	44109.83
544.678	44132.36
544.878	44314.63
545.078	44070.92
545.279	43399.19
545.479	43642.9
545.679	43804.69
545.879	43862.03
546.079	43851.79
546.28	43888.65
546.48	43802.64
546.68	43890.7
546.88	43589.65
547.08	43794.45
547.28	43884.56
547.48	43384.85
547.68	43872.27
547.88	43120.66
548.081	43829.26
548.281	43632.66
548.481	43380.76
548.681	43819.02
548.881	43563.03
549.081	43577.36
549.28	43692.05
549.48	43853.84
549.68	43304.98
549.88	44140.55
550.08	43646.99
550.28	43298.84
550.48	43526.16
550.68	43913.23
550.88	43489.3
551.08	43577.36
551.279	43896.84
551.479	43636.75
551.679	43540.5
551.879	43462.68
552.079	43620.37
552.278	43743.25
552.478	44044.3
552.678	43530.26
552.878	43560.98
553.077	43407.38
553.277	43239.45
553.477	43894.8
553.676	43544.59
553.876	43421.72
554.076	43448.34
554.275	43003.93
554.475	43089.95
554.674	43653.14
554.874	43235.35
555.074	43282.45
555.273	43434
555.473	43401.24
555.672	42985.5
555.872	43085.85
556.071	43288.6
556.271	43597.84
556.47	43339.8
556.67	43094.04
556.869	43053.08
557.068	43288.6
557.268	42737.69
557.467	42727.45
557.667	42803.23
557.866	43048.99
558.065	42786.85
558.265	42620.96
558.464	42586.14
558.663	43112.47
558.863	42266.66
559.062	43444.24
559.261	42141.74
559.461	42684.45
559.66	42387.49
559.859	42651.68
560.058	42536.99
560.258	42192.93
560.457	42213.41
560.656	42762.27
560.855	42158.12
561.054	42758.17
561.253	42098.73
561.453	42371.11
561.652	42377.25
561.851	42444.83
562.05	41834.54
562.249	41988.14
562.448	42227.75
562.647	42084.39
562.846	41723.95
563.045	42041.39
563.244	41748.53
563.443	42113.06
563.642	41318.45
563.841	41709.61
564.04	41517.11
564.239	41685.04
564.438	41011.26
564.637	41431.09
564.836	41685.04
565.035	40847.42
565.234	40966.2
565.432	40863.8
565.631	40783.93
565.83	41412.66
566.029	40874.04
566.228	40534.08
566.427	40622.14
566.625	40622.14
566.824	40398.91
567.023	40808.51
567.222	39684.17
567.42	40763.45
567.619	40042.57
567.818	40446.02
568.016	40190.02
568.215	40427.59
568.414	39907.4
568.612	40163.4
568.811	39823.43
569.01	40138.82
569.208	39051.35
569.407	39606.35
569.605	39219.28
569.804	39565.39
570.002	39399.51
570.201	39532.62
570.4	38957.14
570.598	39084.12
570.797	39155.8
570.995	38975.58
571.193	38404.19
571.392	38535.26
571.59	38496.35
571.789	38369.38
571.987	38406.24
572.186	38439.01
572.384	38113.38
572.582	38676.57
572.781	38320.23
572.979	37732.46
573.177	38273.12
573.376	38205.54
573.574	37810.28
573.772	38010.98
573.971	37730.41
574.169	37283.95
574.367	37263.47
574.565	37458.03
574.763	37236.85
574.962	37279.86
575.16	36921.46
575.358	37369.97
575.556	36571.26
575.754	37107.83
575.952	36423.81
576.151	37064.82
576.349	36110.47
576.547	36366.46
576.745	36452.48
576.943	36112.52
577.141	36239.49
577.339	36057.22
577.537	35838.09
577.735	36118.66
577.933	35936.39
578.131	35934.34
578.329	35694.73
578.527	35528.84
578.725	35315.86
578.923	35553.42
579.121	35233.94
579.319	35266.7
579.516	35537.04
579.714	34871.45
579.912	34777.24
580.11	34697.37
580.308	35403.92
580.506	34738.33
580.704	34259.1
580.901	34810.01
581.099	34455.71
581.297	34148.51
581.495	34160.8
581.692	34646.17
581.89	34062.5
582.088	34404.51
582.285	33857.7
582.483	34103.46
582.681	33800.36
582.878	33720.49
583.076	33419.44
583.274	33775.78
583.471	33140.91
583.669	33390.77
583.866	33480.88
584.064	33095.86
584.262	32796.85
584.459	33472.68
584.657	32729.27
584.854	32940.21
585.052	32086.21
585.249	32626.87
585.447	32807.09
585.644	32395.45
585.841	32250.05
586.039	32520.38
586.236	32303.29
586.434	32102.59
586.631	31746.25
586.828	31946.95
587.026	31924.42
587.223	31801.54
587.42	31625.42
587.618	31942.85
587.815	31463.63
588.012	31467.72
588.21	31240.4
588.407	31297.74
588.604	31199.44
588.801	30961.87
588.999	31074.51
589.196	30957.78
589.393	30576.86
589.59	30568.66
589.787	30400.73
589.984	30327
590.182	30347.48
590.379	30564.57
590.576	30132.45
590.773	30183.65
590.97	30118.11
591.167	30187.74
591.364	29702.37
591.561	30013.66
591.758	29563.11
591.955	29448.43
592.152	30265.56
592.349	29169.9
592.546	29612.26
592.743	29378.79
592.94	29120.75
593.137	29415.66
593.334	29589.74
593.531	29004.02
593.727	29262.06
593.924	29096.17
594.121	28643.57
594.318	29028.59
594.515	28551.41
594.712	28748.02
594.908	28567.8
595.105	28698.87
595.302	28344.57
595.499	28483.83
595.696	28549.37
595.892	28049.66
596.089	28090.62
596.286	27863.3
596.482	27937.02
596.679	28031.23
596.876	28031.23
597.072	27568.39
597.269	27683.08
597.466	27537.67
597.662	27441.42
597.859	27185.42
598.055	27558.15
598.252	27246.86
598.448	27343.11
598.645	26640.66
598.841	26913.04
599.038	27023.63
599.234	26935.57
599.431	26806.55
599.627	26720.53
599.824	26806.55
600.02	26392.86
600.217	26407.19
600.413	26351.9
600.609	26331.42
600.806	26128.67
601.002	26550.55
601.198	26140.96
601.395	25882.91
601.591	26038.56
601.787	26032.41
601.984	25749.79
602.18	26048.8
602.376	25747.75
602.572	25860.38
602.769	25639.2
602.965	25235.75
603.161	25538.85
603.357	25065.77
603.553	24932.65
603.75	25383.21
603.946	25245.99
604.142	25215.27
604.338	24774.96
604.534	24803.63
604.73	24834.35
604.926	24529.2
605.122	24703.28
605.318	24680.75
605.514	24400.18
605.71	24275.26
605.906	24535.35
606.102	24441.14
606.298	24463.67
606.494	24459.57
606.69	24394.04
606.886	24381.75
607.082	24240.44
607.278	24338.74
607.474	24064.32
607.67	24041.79
607.866	23718.21
608.062	24049.98
608.257	23765.31
608.453	23697.73
608.649	23988.54
608.845	23624
609.041	23634.24
609.236	23793.98
609.432	23593.28
609.628	23472.45
609.824	23351.62
610.019	23253.32
610.215	23245.13
610.411	23169.35
610.606	23140.68
610.802	23210.31
610.998	23173.45
611.193	23007.56
611.389	22874.45
611.584	22591.83
611.78	22866.25
611.976	22767.95
612.171	22796.62
612.367	22755.66
612.562	22686.03
612.758	22399.32
612.953	22559.06
613.149	22753.62
613.344	22321.49
613.539	22407.51
613.735	22436.18
613.93	22370.65
614.126	22567.25
614.321	22532.43
614.517	22430.04
614.712	21965.15
614.907	22061.4
615.103	22303.06
615.298	21977.44
615.493	22217.05
615.688	21875.04
615.884	22085.98
616.079	21832.03
616.274	22042.97
616.47	21907.8
616.665	21793.12
616.86	21582.18
617.055	21703.01
617.25	21827.93
617.445	21686.62
617.641	21219.69
617.836	21438.82
618.031	21422.44
618.226	21248.36
618.421	21096.81
618.616	21375.33
618.811	20943.21
619.006	21447.01
619.201	20822.38
619.396	21137.77
619.591	20584.82
619.786	20748.65
619.981	20713.84
620.176	20750.7
620.371	20707.69
620.566	20586.86
620.761	20322.68
620.956	20601.2
621.151	20078.97
621.346	20058.49
621.541	19763.58
621.735	20134.26
621.93	19904.89
622.125	19908.99
622.32	19593.6
622.515	19560.83
622.709	19284.36
622.904	19429.76
623.099	19222.92
623.294	19188.1
623.488	19370.37
623.683	18948.49
623.878	18755.98
624.072	18934.15
624.267	18631.05
624.462	18811.28
624.656	18536.85
624.851	18491.79
625.046	18356.63
625.24	18340.24
625.435	17940.89
625.629	17990.04
625.824	17772.96
626.018	17744.28
626.213	17379.75
626.407	17717.66
626.602	17367.46
626.796	17406.37
626.991	17365.41
627.185	16990.63
627.38	17117.61
627.574	17166.76
627.768	16972.2
627.963	16890.28
628.157	16755.11
628.352	16763.31
628.546	16566.7
628.74	16619.95
628.935	16316.85
629.129	16298.42
629.323	16292.27
629.517	16302.51
629.712	15944.12
629.906	16023.99
630.1	15911.35
630.294	15841.72
630.489	15753.66
630.683	15901.11
630.877	15704.51
631.071	15690.17
631.265	15403.46
631.459	15329.73
631.653	15284.67
631.848	15034.82
632.042	15233.47
632.236	15210.95
632.43	14735.82
632.624	15186.37
632.818	14606.8
633.012	14531.02
633.206	14617.04
633.4	14606.8
633.594	14666.19
633.788	14502.35
633.982	14432.72
634.176	14580.17
634.369	14520.78
634.563	14205.39
634.757	14131.67
634.951	14121.43
635.145	14049.75
635.339	14051.8
635.533	13969.88
635.726	13816.28
635.92	13658.59
636.114	13720.03
636.308	13517.28
636.501	13408.73
636.695	13414.88
636.889	13455.84
637.083	13005.28
637.276	12984.8
637.47	13003.24
637.664	12943.85
637.857	13140.45
638.051	12935.65
638.244	12665.32
638.438	12655.08
638.632	12716.52
638.825	12581.35
639.019	12401.13
639.212	12335.6
639.406	12394.99
639.599	12265.97
639.793	12313.07
639.986	12104.18
640.18	12380.65
640.373	12007.92
640.567	11969.01
640.76	12028.4
640.954	11864.57
641.147	11565.56
641.34	11485.69
641.534	11727.35
641.727	11819.51
641.92	11741.69
642.114	11305.47
642.307	11198.98
642.5	11252.22
642.694	11065.86
642.887	11151.87
643.08	11188.74
643.273	11074.05
643.467	11110.91
643.66	10992.13
643.853	11051.52
644.046	10803.72
644.239	11024.9
644.432	10781.19
644.626	10586.63
644.819	10459.66
645.012	10543.63
645.205	10512.91
645.398	10666.5
645.591	10279.44
645.784	10246.67
645.977	10269.2
646.17	10269.2
646.363	9980.43
646.556	9912.85
646.749	9886.23
646.942	10211.85
647.135	9921.04
647.328	9822.74
647.521	9828.88
647.714	9527.83
647.907	9615.9
648.099	9810.45
648.292	9650.71
648.485	9628.18
648.678	9439.77
648.871	9476.63
649.064	9298.46
649.256	9445.91
649.449	9224.73
649.642	9189.92
649.835	9169.44
650.027	9251.36
650.22	9402.91
650.413	9093.66
650.605	8886.82
650.798	8962.59
650.991	8919.59
651.183	8940.07
651.376	8755.75
651.568	8704.55
651.761	8817.19
651.954	8895.01
652.146	8825.38
652.339	8626.73
652.531	8602.15
652.724	8585.77
652.916	8354.35
653.109	8501.8
653.301	8383.02
653.494	8350.25
653.686	8198.7
653.879	8342.06
654.071	8309.29
654.263	8116.78
654.456	8243.76
654.648	8036.91
654.84	8051.25
655.033	7922.23
655.225	7719.48
655.417	7979.57
655.61	7717.43
655.802	7862.83
655.994	7645.75
656.186	7823.92
656.379	7807.54
656.571	7696.95
656.763	7715.38
656.955	7531.06
657.148	7594.55
657.34	7322.17
657.532	7502.39
657.724	7408.19
657.916	7318.07
658.108	7332.41
658.3	7352.89
658.492	7348.79
658.684	7144
658.876	7412.28
659.068	7150.14
659.26	7002.69
659.452	7135.81
659.644	7049.79
659.836	6955.58
660.028	7002.69
660.22	6797.89
660.412	6840.9
660.604	6920.77
660.796	6830.66
660.988	6707.78
661.18	6865.47
661.372	6715.97
661.563	6804.03
661.755	6500.94
661.947	6650.44
662.139	6521.42
662.331	6611.53
662.522	6466.12
662.714	6394.44
662.906	6300.23
663.097	6380.11
663.289	6271.56
663.481	6232.65
663.673	6216.27
663.864	6236.75
664.056	6294.09
664.247	6249.04
664.439	6152.78
664.631	6070.86
664.822	6146.64
665.014	6148.68
665.205	6077.01
665.397	6040.14
665.588	6072.91
665.78	5962.32
665.971	5933.65
666.163	5995.09
666.354	5767.76
666.546	5929.55
666.737	5610.07
666.929	5806.67
667.12	5864.02
667.311	5661.27
667.503	5702.23
667.694	5788.24
667.885	5644.88
668.077	5671.51
668.268	5743.19
668.459	5583.45
668.651	5579.35
668.842	5605.97
669.033	5536.34
669.224	5395.03
669.416	5605.97
669.607	5425.75
669.798	5356.12
669.989	5360.22
670.18	5241.43
670.371	5462.62
670.563	5399.13
670.754	5225.05
670.945	5104.22
671.136	5354.07
671.327	5141.08
671.518	5210.72
671.709	5204.57
671.9	5196.38
672.091	5177.95
672.282	5036.64
672.473	5077.6
672.664	5024.35
672.855	5206.62
673.046	5069.41
673.237	5167.71
673.428	5089.88
673.619	4997.73
673.809	4958.81
674	4862.56
674.191	4936.29
674.382	4833.89
674.573	4938.34
674.764	4756.07
674.954	5024.35
675.145	4948.58
675.336	4899.42
675.527	4950.62
675.717	4991.58
675.908	4751.97
676.099	4762.21
676.289	4700.77
676.48	4713.06
676.671	4776.55
676.861	4733.54
677.052	4571.75
677.243	4694.63
677.433	4729.44
677.624	4784.74
677.814	4786.79
678.005	4526.69
678.195	4455.01
678.386	4639.33
678.576	4651.62
678.767	4622.95
678.957	4551.27
679.148	4651.62
679.338	4498.02
679.529	4541.03
679.719	4577.89
679.909	4600.42
680.1	4600.42
680.29	4559.46
680.481	4446.82
680.671	4563.56
680.861	4434.53
681.052	4545.13
681.242	4450.92
681.432	4463.21
681.622	4317.8
681.813	4401.77
682.003	4489.83
682.193	4358.76
682.383	4551.27
682.573	4301.42
682.764	4328.04
682.954	4379.24
683.144	4242.03
683.334	4391.53
683.524	4311.66
683.714	4377.19
683.904	4235.88
684.094	4350.57
684.284	4313.7
684.474	4405.86
684.664	4244.07
684.854	4254.31
685.044	4244.07
685.234	4235.88
685.424	4184.68
685.614	4244.07
685.804	4160.11
685.994	4137.58
686.184	4110.96
686.374	4039.28
686.564	4168.3
686.753	4178.54
686.943	4104.81
687.133	4065.9
687.323	4012.65
687.513	4070
687.702	3918.45
687.892	4082.28
688.082	4029.04
688.272	4014.7
688.461	4010.61
688.651	4014.7
688.841	3990.13
689.03	4012.65
689.22	3957.36
689.41	3904.11
689.599	4020.85
689.789	3965.55
689.979	3850.86
690.168	3897.97
690.358	3861.1
690.547	3986.03
690.737	3832.43
690.926	3799.66
691.116	3832.43
691.305	3684.98
691.495	3826.29
691.684	3775.09
691.874	3848.82
692.063	3832.43
692.252	3883.63
692.442	3781.23
692.631	3770.99
692.82	3816.05
693.01	3762.8
693.199	3844.72
693.388	3654.26
693.578	3703.41
693.767	3648.11
693.956	3676.79
694.146	3558
694.335	3644.02
694.524	3627.64
694.713	3705.46
694.902	3699.31
695.092	3656.31
695.281	3644.02
695.47	3623.54
695.659	3590.77
695.848	3474.04
696.037	3613.3
696.226	3644.02
696.415	3582.58
696.604	3631.73
696.793	3562.1
696.982	3646.07
697.171	3611.25
697.36	3512.95
697.549	3586.68
697.738	3500.66
697.927	3488.37
698.116	3428.98
698.305	3445.37
698.494	3471.99
698.683	3390.07
698.872	3619.44
699.061	3523.19
699.25	3398.26
699.438	3474.04
699.627	3422.84
699.816	3531.38
700.005	3496.57
700.193	3496.57
700.382	3646.07
700.571	3496.57
700.76	3439.22
700.948	3508.85
701.137	3504.76
701.326	3406.45
701.514	3498.61
701.703	3428.98
701.892	3447.41
702.08	3506.81
702.269	3396.21
702.457	3433.08
702.646	3431.03
702.834	3320.44
703.023	3328.63
703.212	3392.12
703.4	3394.17
703.589	3283.58
703.777	3240.57
703.965	3177.08
704.154	3394.17
704.342	3222.14
704.531	3277.43
704.719	3250.81
704.907	3201.66
705.096	3236.47
705.284	3334.78
705.472	3277.43
705.661	3295.86
705.849	3281.53
706.037	3224.19
706.226	3160.7
706.414	3179.13
706.602	3269.24
706.79	3250.81
706.979	3168.89
707.167	3269.24
707.355	3144.31
707.543	3189.37
707.731	3201.66
707.919	3140.22
708.107	3121.79
708.296	3211.9
708.484	3086.97
708.672	3033.72
708.86	3148.41
709.048	3072.64
709.236	3086.97
709.424	3019.39
709.612	3031.68
709.8	3132.03
709.988	3003
710.176	3043.96
710.364	3046.01
710.551	3091.07
710.739	3095.16
710.927	3080.83
711.115	3054.2
711.303	2992.76
711.491	2964.09
711.679	3089.02
711.866	2939.52
712.054	2890.37
712.242	2882.17
712.43	3050.11
712.617	3041.92
712.805	2882.17
712.993	3037.82
713.181	2962.05
713.368	2966.14
713.556	2855.55
713.744	2960
713.931	2953.85
714.119	2988.67
714.306	2937.47
714.494	2884.22
714.682	3062.4
714.869	2787.97
715.057	2894.46
715.244	2824.83
715.432	2947.71
715.619	2808.45
715.807	2904.7
715.994	2800.26
716.182	2818.69
716.369	2925.18
716.556	2849.41
716.744	2685.57
716.931	2759.3
717.119	2849.41
717.306	2880.13
717.493	2792.06
717.681	2763.39
717.868	2738.82
718.055	2673.28
718.242	2933.37
718.43	2884.22
718.617	2839.17
718.804	2873.98
718.991	2701.95
719.179	2812.54
719.366	2751.1
719.553	2658.95
719.74	2626.18
719.927	2742.91
720.114	2581.12
720.301	2683.52
720.488	2744.96
720.676	2712.19
720.863	2620.03
721.05	2660.99
721.237	2589.32
721.424	2595.46
721.611	2638.47
721.798	2558.6
721.985	2656.9
722.172	2589.32
722.358	2679.43
722.545	2511.49
722.732	2585.22
722.919	2568.84
723.106	2501.25
723.293	2589.32
723.48	2587.27
723.667	2529.92
723.853	2552.45
724.04	2597.51
724.227	2513.54
724.414	2501.25
724.6	2617.99
724.787	2603.65
724.974	2574.98
725.161	2554.5
725.347	2417.29
725.534	2472.58
725.72	2579.08
725.907	2507.4
726.094	2556.55
726.28	2491.01
726.467	2431.62
726.653	2486.92
726.84	2534.02
727.027	2529.92
727.213	2458.25
727.4	2448.01
727.586	2368.13
727.773	2452.1
727.959	2550.4
728.145	2501.25
728.332	2452.1
728.518	2394.76
728.705	2392.71
728.891	2423.43
729.077	2415.24
729.264	2335.37
729.45	2468.48
729.636	2394.76
729.823	2321.03
730.009	2456.2
730.195	2333.32
730.382	2370.18
730.568	2296.46
730.754	2417.29
730.94	2359.94
731.126	2347.65
731.313	2329.22
731.499	2294.41
731.685	2423.43
731.871	2308.74
732.057	2335.37
732.243	2407.05
732.429	2292.36
732.615	2349.7
732.801	2316.94
732.987	2183.82
733.173	2321.03
733.359	2480.77
733.545	2251.4
733.731	2290.31
733.917	2357.89
734.103	2245.26
734.289	2325.13
734.475	2173.58
734.661	2353.8
734.847	2159.24
735.033	2359.94
735.219	2333.32
735.404	2251.4
735.59	2194.06
735.776	2157.19
735.962	2224.78
736.148	2214.54
736.333	2255.5
736.519	2196.11
736.705	2140.81
736.89	2187.91
737.076	2116.23
737.262	2122.38
737.447	2189.96
737.633	2177.67
737.819	2022.03
738.004	2202.25
738.19	2081.42
738.375	2118.28
738.561	2077.32
738.747	2200.2
738.932	2099.85
739.118	2175.63
739.303	2017.93
739.489	2073.23
739.674	2089.61
739.859	2087.56
740.045	1989.26
740.23	2038.41
740.416	2038.41
740.601	2038.41
740.786	2058.89
740.972	1966.73
741.157	2038.41
741.342	1991.31
741.528	1976.97
741.713	2022.03
741.898	1956.49
742.084	1948.3
742.269	1919.63
742.454	1964.68
742.639	2022.03
742.824	1921.68
743.01	1903.25
743.195	1915.53
743.38	1923.73
743.565	1923.73
743.75	1886.86
743.935	1956.49
744.12	1958.54
744.305	1796.75
744.49	1890.96
744.675	1843.85
744.86	1747.6
745.045	1858.19
745.23	1743.5
745.415	1890.96
745.6	1825.42
745.785	1806.99
745.97	1813.13
746.155	1776.27
746.34	1829.52
746.525	1632.91
746.71	1743.5
746.895	1696.4
747.079	1741.46
747.264	1729.17
747.449	1710.74
747.634	1637.01
747.819	1786.51
748.003	1680.02
748.188	1698.45
748.373	1708.69
748.557	1579.67
748.742	1698.45
748.927	1516.18
749.111	1632.91
749.296	1579.67
749.481	1571.47
749.665	1641.11
749.85	1561.23
750.034	1573.52
750.219	1561.23
750.404	1538.71
750.588	1589.91
750.773	1456.79
750.957	1530.52
751.141	1446.55
751.326	1477.27
751.51	1374.87
751.695	1507.99
751.879	1497.75
752.064	1538.71
752.248	1356.44
752.432	1460.88
752.617	1352.34
752.801	1358.49
752.985	1520.28
753.17	1432.21
753.354	1456.79
753.538	1292.95
753.722	1409.69
753.907	1286.81
754.091	1356.44
754.275	1399.45
754.459	1303.19
754.643	1276.57
754.828	1313.43
755.012	1378.97
755.196	1272.47
755.38	1247.9
755.564	1303.19
755.748	1251.99
755.932	1231.51
756.116	1251.99
756.3	1231.51
756.484	1165.98
756.668	1178.26
756.852	1190.55
757.036	1104.54
757.22	1137.31
757.404	1147.55
757.588	1178.26
757.772	1204.89
757.956	1170.07
758.14	1215.13
758.323	1034.91
758.507	1096.35
758.691	1032.86
758.875	1186.46
759.059	1198.74
759.242	1073.82
759.426	1114.78
759.61	1139.35
759.794	1108.63
759.977	1108.63
760.161	1116.83
760.345	1065.63
760.528	1194.65
760.712	1039
760.895	1055.39
761.079	981.66
761.263	1000.09
761.446	1112.73
761.63	983.71
761.813	1000.09
761.997	1071.77
762.18	989.85
762.364	981.66
762.547	936.6
762.731	1071.77
762.914	967.32
763.098	1047.19
763.281	959.13
763.464	967.32
763.648	905.88
763.831	926.36
764.015	844.45
764.198	854.69
764.381	920.22
764.564	926.36
764.748	1006.24
764.931	924.32
765.114	916.12
765.297	918.17
765.481	871.07
765.664	926.36
765.847	871.07
766.03	957.08
766.213	858.78
766.397	828.06
766.58	965.28
766.763	940.7
766.946	871.07
767.129	809.63
767.312	926.36
767.495	776.86
767.678	811.68
767.861	836.25
768.044	903.84
768.227	866.97
768.41	871.07
768.593	899.74
768.776	850.59
768.959	901.79
769.142	850.59
769.324	817.82
769.507	774.81
769.69	842.4
769.873	713.38
770.056	924.32
770.239	811.68
770.421	760.48
770.604	785.05
770.787	787.1
770.97	828.06
771.152	803.49
771.335	754.34
771.518	793.25
771.7	840.35
771.883	801.44
772.066	735.9
772.248	785.05
772.431	729.76
772.613	737.95
772.796	789.15
772.978	768.67
773.161	799.39
773.343	662.18
773.526	686.75
773.708	703.14
773.891	678.56
774.073	651.94
774.256	629.41
774.438	719.52
774.621	735.9
774.803	719.52
774.985	649.89
775.168	744.1
775.35	715.42
775.532	670.37
775.715	645.79
775.897	676.51
776.079	588.45
776.261	653.98
776.444	606.88
776.626	645.79
776.808	604.83
776.99	666.27
777.173	649.89
777.355	604.83
777.537	596.64
777.719	582.31
777.901	672.42
778.083	535.2
778.265	586.4
778.447	588.45
778.629	567.97
778.811	557.73
778.993	504.48
779.175	613.03
779.357	541.35
779.539	494.24
779.721	598.69
779.903	572.07
780.085	613.03
780.267	504.48
780.449	563.87
780.631	555.68
780.812	625.31
780.994	535.2
781.176	490.15
781.358	463.52
781.54	522.91
781.721	551.59
781.903	522.91
782.085	508.58
782.267	600.74
782.448	498.34
782.63	524.96
782.812	524.96
782.993	484
783.175	383.65
783.357	498.34
783.538	473.76
783.72	506.53
783.901	457.38
784.083	469.67
784.264	424.61
784.446	451.24
784.627	473.76
784.809	408.23
784.99	508.58
785.172	434.85
785.353	449.19
785.535	502.43
785.716	467.62
785.897	350.89
786.079	447.14
786.26	475.81
786.441	416.42
786.623	375.46
786.804	391.84
786.985	424.61
787.167	307.88
787.348	350.89
787.529	352.93
787.71	391.84
787.891	441
788.073	359.08
788.254	281.25
788.435	377.51
788.616	352.93
788.797	385.7
788.978	391.84
789.159	338.6
789.34	395.94
789.522	350.89
789.703	287.4
789.884	305.83
790.065	342.69
790.246	397.99
790.427	354.98
790.607	285.35
790.788	328.36
790.969	314.02
791.15	369.32
791.331	342.69
791.512	338.6
791.693	273.06
791.874	293.54
792.054	344.74
792.235	402.08
792.416	311.97
792.597	326.31
792.778	277.16
792.958	354.98
793.139	338.6
793.32	260.77
793.5	234.15
793.681	389.8
793.862	299.69
794.042	320.17
794.223	311.97
794.404	205.48
794.584	309.93
794.765	273.06
794.945	225.96
795.126	279.21
795.306	266.92
795.487	260.77
795.667	260.77
795.848	279.21
796.028	209.58
796.209	260.77
796.389	244.39
796.57	238.25
796.75	248.49
796.93	303.78
797.111	256.68
797.291	266.92
797.471	291.49
797.652	293.54
797.832	248.49
798.012	223.91
798.192	246.44
798.373	228.01
798.553	283.3
798.733	246.44
798.913	170.66
799.093	260.77
799.274	264.87
799.454	213.67
799.634	256.68
799.814	234.15
799.994	275.11
800.174	242.34
800.354	221.86
800.534	103.08
800.714	264.87
800.894	236.2
801.074	215.72
801.254	219.82
801.434	223.91
801.614	203.43
801.794	201.38
801.974	772.77
802.154	236.2
802.334	211.62
802.514	191.14
802.693	180.9
802.873	195.24
803.053	268.97
803.233	205.48
803.413	228.01
803.592	146.09
803.772	244.39
803.952	195.24
804.131	221.86
804.311	244.39
804.491	209.58
804.67	211.62
804.85	185
805.03	221.86
805.209	262.82
805.389	152.23
805.568	174.76
805.748	211.62
805.928	240.29
806.107	199.34
806.287	244.39
806.466	244.39
806.646	141.99
806.825	205.48
807.004	170.66
807.184	178.86
807.363	228.01
807.543	211.62
807.722	152.23
807.901	180.9
808.081	125.61
808.26	129.7
808.439	154.28
808.619	230.06
808.798	232.1
808.977	156.33
809.156	236.2
809.336	219.82
809.515	238.25
809.694	162.47
809.873	121.51
810.052	152.23
810.231	180.9
810.411	174.76
810.59	228.01
810.769	139.94
810.948	187.05
811.127	125.61
811.306	195.24
811.485	113.32
811.664	187.05
811.843	115.37
812.022	121.51
812.201	127.66
812.38	174.76
812.559	170.66
812.737	221.86
812.916	164.52
813.095	170.66
813.274	101.03
813.453	133.8
813.632	127.66
813.811	123.56
813.989	88.75
814.168	170.66
814.347	154.28
814.526	129.7
814.704	96.94
814.883	228.01
815.062	113.32
815.24	125.61
815.419	146.09
815.598	164.52
815.776	148.14
815.955	166.57
816.133	170.66
816.312	150.18
816.49	137.9
816.669	107.18
816.847	72.36
817.026	62.12
817.204	125.61
817.383	209.58
817.561	178.86
817.74	146.09
817.918	148.14
818.097	146.09
818.275	135.85
818.453	68.27
818.632	160.42
818.81	103.08
818.988	70.31
819.167	146.09
819.345	154.28
819.523	80.55
819.701	121.51
819.879	101.03
820.058	217.77
820.236	84.65
820.414	82.6
820.592	113.32
820.77	139.94
820.948	96.94
821.127	129.7
821.305	129.7
821.483	72.36
821.661	82.6
821.839	80.55
822.017	68.27
822.195	82.6
822.373	172.71
822.551	88.75
822.729	182.95
822.907	84.65
823.085	113.32
823.262	150.18
823.44	47.79
823.618	193.19
823.796	74.41
823.974	6.83
824.152	135.85
824.329	109.22
824.507	76.46
824.685	72.36
824.863	111.27
825.04	43.69
825.218	80.55
825.396	113.32
825.574	166.57
825.751	139.94
825.929	137.9
826.107	41.64
826.284	58.03
826.462	135.85
826.639	47.79
826.817	113.32
826.994	66.22
827.172	17.07
827.349	146.09
827.527	166.57
827.704	84.65
827.882	88.75
828.059	119.46
828.237	115.37
828.414	107.18
828.591	27.31
828.769	49.83
828.946	68.27
829.124	80.55
829.301	82.6
829.478	60.07
829.655	51.88
829.833	10.92
830.01	78.51
830.187	96.94
830.364	80.55
830.542	78.51
830.719	39.59
830.896	117.42
831.073	82.6
831.25	60.07
831.427	39.59
831.604	64.17
831.782	141.99
831.959	98.99
832.136	105.13
832.313	109.22
832.49	55.98
832.667	113.32
832.844	90.79
833.021	113.32
833.198	84.65
833.374	6.83
833.551	96.94
833.728	113.32
833.905	72.36
834.082	76.46
834.259	68.27
834.436	125.61
834.612	2.73
834.789	82.6
834.966	37.55
835.143	31.4
835.319	64.17
835.496	115.37
835.673	84.65
835.85	117.42
836.026	98.99
836.203	84.65
836.38	-1.37
836.556	80.55
836.733	125.61
836.909	53.93
837.086	8.87
837.262	101.03
837.439	84.65
837.616	84.65
837.792	51.88
837.968	-30.04
838.145	10.92
838.321	88.75
838.498	68.27
838.674	15.02
838.851	31.4
839.027	105.13
839.203	-25.94
839.38	105.13
839.556	-15.7
839.732	60.07
839.909	55.98
840.085	55.98
840.261	-9.56
840.437	37.55
840.614	41.64
840.79	47.79
840.966	123.56
841.142	90.79
841.318	-3.41
841.494	154.28
841.671	60.07
841.847	55.98
842.023	25.26
842.199	131.75
842.375	60.07
842.551	-27.99
842.727	0.68
842.903	98.99
843.079	-5.46
843.255	-7.51
843.431	29.35
843.607	47.79
843.783	43.69
843.959	96.94
844.134	-9.56
844.31	96.94
844.486	80.55
844.662	23.21
844.838	17.07
845.013	51.88
845.189	64.17
845.365	12.97
845.541	-5.46
845.716	111.27
845.892	156.33
846.068	31.4
846.244	27.31
846.419	15.02
846.595	2.73
846.77	49.83
846.946	109.22
847.122	49.83
847.297	23.21
847.473	68.27
847.648	-21.85
847.824	68.27
847.999	68.27
848.175	68.27
848.35	141.99
848.526	113.32
848.701	-23.89
848.876	64.17
849.052	47.79
849.227	96.94
849.403	-21.85
849.578	78.51
849.753	121.51
849.929	123.56
850.104	47.79
850.279	0.68
850.454	51.88
850.63	66.22
850.805	58.03
850.98	-17.75
851.155	55.98
851.33	-44.37
851.505	4.78
851.681	33.45
851.856	45.74
852.031	92.84
852.206	25.26
852.381	31.4
852.556	41.64
852.731	125.61
852.906	35.5
853.081	47.79
853.256	94.89
853.431	23.21
853.606	55.98
853.781	55.98
853.956	-15.7
854.131	43.69
854.305	-9.56
854.48	68.27
854.655	35.5
854.83	25.26
855.005	23.21
855.18	107.18
855.354	103.08
855.529	47.79
855.704	43.69
855.879	103.08
856.053	31.4
856.228	58.03
856.403	-87.38
856.577	45.74
856.752	-34.13
856.926	17.07
857.101	19.11
857.276	72.36
857.45	35.5
857.625	41.64
857.799	15.02
857.974	47.79
858.148	10.92
858.323	0.68
858.497	-1.37
858.672	35.5
858.846	35.5
859.02	49.83
859.195	6.83
859.369	-7.51
859.543	27.31
859.718	-9.56
859.892	43.69
860.066	90.79
860.241	-9.56
860.415	17.07
860.589	23.21
860.763	82.6
860.938	19.11
861.112	78.51
861.286	2.73
861.46	72.36
861.634	-17.75
861.808	66.22
861.982	43.69
862.157	0.68
862.331	68.27
862.505	-25.94
862.679	15.02
862.853	37.55
863.027	35.5
863.201	39.59
863.375	-21.85
863.549	4.78
863.722	88.75
863.896	55.98
864.07	41.64
864.244	23.21
864.418	82.6
864.592	23.21
864.766	2.73
864.939	101.03
865.113	-15.7
865.287	51.88
865.461	-15.7
865.634	25.26
865.808	23.21
865.982	80.55
866.156	55.98
866.329	6.83
866.503	29.35
866.676	6.83
866.85	31.4
867.024	15.02
867.197	10.92
867.371	43.69
867.544	-34.13
867.718	-66.9
867.891	-7.51
868.065	-17.75
868.238	29.35
868.412	49.83
868.585	23.21
868.759	41.64
868.932	-9.56
869.105	6.83
869.279	-21.85
869.452	-7.51
869.625	8.87
869.799	43.69
869.972	55.98
870.145	35.5
870.319	-60.76
870.492	82.6
870.665	92.84
870.838	-103.76
871.011	0.68
871.185	-13.65
871.358	25.26
871.531	55.98
871.704	6.83
871.877	60.07
872.05	64.17
872.223	43.69
872.396	33.45
872.569	15.02
872.742	-17.75
872.915	35.5
873.088	33.45
873.261	-34.13
873.434	15.02
873.607	39.59
873.78	31.4
873.953	6.83
874.126	43.69
874.299	8.87
874.471	-9.56
874.644	-9.56
874.817	-17.75
874.99	66.22
875.163	2.73
875.335	10.92
875.508	101.03
875.681	31.4
875.853	0.68
876.026	55.98
876.199	53.93
876.371	31.4
876.544	4.78
876.717	8.87
876.889	-42.32
877.062	15.02
877.234	-15.7
877.407	21.16
877.579	-60.76
877.752	-21.85
877.924	0.68
878.097	78.51
878.269	-13.65
878.442	-15.7
878.614	6.83
878.786	2.73
878.959	-30.04
879.131	-9.56
879.303	-17.75
879.476	37.55
879.648	123.56
879.82	55.98
879.993	-5.46
880.165	-9.56
880.337	-40.28
880.509	-5.46
880.681	-17.75
880.854	6.83
881.026	12.97
881.198	27.31
881.37	-1.37
881.542	17.07
881.714	-13.65
881.886	53.93
882.058	-38.23
882.23	-42.32
882.402	70.31
882.574	29.35
882.746	53.93
882.918	6.83
883.09	105.13
883.262	55.98
883.434	35.5
883.606	-15.7
883.778	-13.65
883.95	25.26
884.122	-38.23
884.293	31.4
884.465	37.55
884.637	-23.89
884.809	25.26
884.98	94.89
885.152	-50.52
885.324	43.69
885.496	19.11
885.667	-34.13
885.839	55.98
886.011	66.22
886.182	-17.75
886.354	43.69
886.525	-5.46
886.697	15.02
886.869	55.98
887.04	-17.75
887.212	0.68
887.383	64.17
887.555	25.26
887.726	-23.89
887.897	-7.51
888.069	31.4
888.24	-25.94
888.412	15.02
888.583	-36.18
888.754	-1.37
888.926	-34.13
889.097	-17.75
889.268	-5.46
889.44	27.31
889.611	-97.62
889.782	21.16
889.953	-30.04
890.125	66.22
890.296	0.68
890.467	-42.32
890.638	-23.89
890.809	15.02
890.98	-38.23
891.151	66.22
891.323	123.56
891.494	-1.37
891.665	27.31
891.836	35.5
892.007	53.93
892.178	35.5
892.349	-1.37
892.52	-42.32
892.691	15.02
892.862	-7.51
893.032	-25.94
893.203	-1.37
893.374	31.4
893.545	51.88
893.716	-13.65
893.887	-13.65
894.057	-15.7
894.228	-64.85
894.399	15.02
894.57	27.31
894.74	55.98
894.911	-21.85
895.082	-36.18
895.253	12.97
895.423	-9.56
895.594	0.68
895.764	76.46
895.935	10.92
896.106	19.11
896.276	2.73
896.447	27.31
896.617	29.35
896.788	-42.32
896.958	-34.13
897.129	0.68
897.299	43.69
897.47	-1.37
897.64	-23.89
897.81	-1.37
897.981	-1.37
898.151	31.4
898.322	10.92
898.492	-3.41
898.662	0.68
898.832	6.83
899.003	66.22
899.173	-40.28
899.343	8.87
899.513	55.98
