Data from USB4F104151__265__14-22-49-317.txt Node

Date: Thu Mar 13 14:22:49 EDT 2025
User: louis
Spectrometer: USB4F10415
Trigger mode: 4
Integration Time (sec): 2.000000E-2
Scans to average: 1
Electric dark correction enabled: true
Nonlinearity correction enabled: false
Boxcar width: 0
XAxis mode: Wavelengths
Number of Pixels in Spectrum: 3648
>>>>>Begin Spectral Data<<<<<
178.204	-112.3
178.424	-112.3
178.644	-112.3
178.864	-116.39
179.084	-50.86
179.304	45.4
179.524	-67.24
179.744	-13.99
179.964	8.53
180.184	-52.91
180.404	47.44
180.624	-16.04
180.844	78.16
181.064	-11.95
181.283	41.3
181.503	-54.95
181.723	-3.75
181.943	-32.43
182.163	53.59
182.383	69.97
182.602	31.06
182.822	76.12
183.042	72.02
183.262	4.44
183.482	51.54
183.701	-48.81
183.921	37.2
184.141	-7.85
184.361	-42.67
184.58	61.78
184.8	41.3
185.02	100.69
185.239	26.96
185.459	59.73
185.679	-11.95
185.898	-7.85
186.118	88.4
186.338	14.68
186.557	61.78
186.777	8.53
186.997	2.39
187.216	-3.75
187.436	39.25
187.655	-3.75
187.875	160.08
188.095	16.73
188.314	45.4
188.534	47.44
188.753	69.97
188.973	94.55
189.192	29.01
189.412	80.21
189.631	69.97
189.851	127.32
190.07	69.97
190.29	29.01
190.509	14.68
190.729	76.12
190.948	35.16
191.168	74.07
191.387	102.74
191.607	57.68
191.826	39.25
192.045	74.07
192.265	37.2
192.484	72.02
192.704	-7.85
192.923	20.82
193.142	104.79
193.362	20.82
193.581	74.07
193.8	80.21
194.02	24.92
194.239	0.34
194.458	55.64
194.678	-34.47
194.897	-1.71
195.116	16.73
195.335	123.22
195.555	41.3
195.774	4.44
195.993	0.34
196.212	14.68
196.432	45.4
196.651	24.92
196.87	131.41
197.089	127.32
197.308	-18.09
197.528	6.49
197.747	14.68
197.966	65.88
198.185	78.16
198.404	22.87
198.623	61.78
198.842	119.12
199.062	59.73
199.281	67.92
199.5	39.25
199.719	92.5
199.938	45.4
200.157	-11.95
200.376	100.69
200.595	63.83
200.814	-28.33
201.033	20.82
201.252	80.21
201.471	47.44
201.69	4.44
201.909	47.44
202.128	49.49
202.347	39.25
202.566	53.59
202.785	53.59
203.004	-11.95
203.223	153.94
203.442	33.11
203.661	-52.91
203.879	-3.75
204.098	35.16
204.317	24.92
204.536	98.64
204.755	20.82
204.974	55.64
205.193	-1.71
205.411	121.17
205.63	104.79
205.849	31.06
206.068	74.07
206.287	-73.39
206.505	63.83
206.724	6.49
206.943	-1.71
207.162	43.35
207.381	104.79
207.599	82.26
207.818	72.02
208.037	53.59
208.255	12.63
208.474	-22.19
208.693	80.21
208.911	20.82
209.13	20.82
209.349	72.02
209.567	-5.8
209.786	135.51
210.005	59.73
210.223	43.35
210.442	6.49
210.661	88.4
210.879	49.49
211.098	-18.09
211.316	37.2
211.535	86.36
211.753	127.32
211.972	110.93
212.191	-36.52
212.409	37.2
212.628	76.12
212.846	-30.38
213.065	26.96
213.283	82.26
213.502	-5.8
213.72	55.64
213.938	94.55
214.157	37.2
214.375	10.58
214.594	-24.23
214.812	78.16
215.031	61.78
215.249	12.63
215.467	72.02
215.686	47.44
215.904	69.97
216.122	88.4
216.341	29.01
216.559	14.68
216.778	69.97
216.996	37.2
217.214	37.2
217.432	49.49
217.651	8.53
217.869	45.4
218.087	6.49
218.306	-38.57
218.524	41.3
218.742	49.49
218.96	69.97
219.179	61.78
219.397	-7.85
219.615	82.26
219.833	4.44
220.051	45.4
220.27	86.36
220.488	137.56
220.706	39.25
220.924	-3.75
221.142	29.01
221.36	-11.95
221.578	20.82
221.796	43.35
222.015	0.34
222.233	16.73
222.451	-7.85
222.669	45.4
222.887	31.06
223.105	8.53
223.323	102.74
223.541	-59.05
223.759	69.97
223.977	43.35
224.195	162.13
224.413	24.92
224.631	57.68
224.849	-5.8
225.067	96.6
225.285	41.3
225.503	39.25
225.721	-18.09
225.939	51.54
226.157	108.88
226.375	110.93
226.592	-40.62
226.81	55.64
227.028	82.26
227.246	123.22
227.464	72.02
227.682	4.44
227.9	129.36
228.117	69.97
228.335	39.25
228.553	-16.04
228.771	0.34
228.989	37.2
229.206	26.96
229.424	80.21
229.642	49.49
229.86	39.25
230.077	33.11
230.295	98.64
230.513	135.51
230.731	102.74
230.948	121.17
231.166	78.16
231.384	94.55
231.601	20.82
231.819	78.16
232.037	61.78
232.254	69.97
232.472	33.11
232.689	4.44
232.907	86.36
233.125	-20.14
233.342	61.78
233.56	-11.95
233.777	2.39
233.995	84.31
234.213	78.16
234.43	78.16
234.648	72.02
234.865	12.63
235.083	45.4
235.3	-16.04
235.518	127.32
235.735	61.78
235.953	127.32
236.17	10.58
236.388	45.4
236.605	-3.75
236.822	29.01
237.04	59.73
237.257	88.4
237.475	8.53
237.692	-11.95
237.909	39.25
238.127	65.88
238.344	80.21
238.562	55.64
238.779	-9.9
238.996	-1.71
239.214	78.16
239.431	43.35
239.648	-18.09
239.865	16.73
240.083	-3.75
240.3	86.36
240.517	82.26
240.735	98.64
240.952	53.59
241.169	45.4
241.386	108.88
241.603	80.21
241.821	88.4
242.038	12.63
242.255	16.73
242.472	14.68
242.689	102.74
242.907	12.63
243.124	24.92
243.341	14.68
243.558	4.44
243.775	20.82
243.992	43.35
244.209	53.59
244.426	53.59
244.643	-20.14
244.86	12.63
245.078	72.02
245.295	2.39
245.512	41.3
245.729	57.68
245.946	86.36
246.163	88.4
246.38	78.16
246.597	45.4
246.814	55.64
247.031	78.16
247.248	110.93
247.464	37.2
247.681	74.07
247.898	78.16
248.115	98.64
248.332	18.77
248.549	86.36
248.766	47.44
248.983	-28.33
249.2	20.82
249.417	102.74
249.633	49.49
249.85	92.5
250.067	41.3
250.284	-5.8
250.501	16.73
250.717	47.44
250.934	24.92
251.151	-7.85
251.368	33.11
251.585	74.07
251.801	29.01
252.018	20.82
252.235	63.83
252.451	102.74
252.668	49.49
252.885	39.25
253.102	76.12
253.318	29.01
253.535	39.25
253.752	16.73
253.968	-20.14
254.185	-36.52
254.401	37.2
254.618	135.51
254.835	43.35
255.051	88.4
255.268	41.3
255.484	20.82
255.701	49.49
255.917	102.74
256.134	12.63
256.351	37.2
256.567	12.63
256.784	57.68
257	29.01
257.217	47.44
257.433	51.54
257.65	65.88
257.866	47.44
258.082	24.92
258.299	94.55
258.515	39.25
258.732	69.97
258.948	12.63
259.165	35.16
259.381	-40.62
259.597	0.34
259.814	63.83
260.03	72.02
260.246	39.25
260.463	63.83
260.679	55.64
260.895	-44.71
261.112	72.02
261.328	37.2
261.544	39.25
261.761	145.75
261.977	0.34
262.193	12.63
262.409	16.73
262.626	78.16
262.842	69.97
263.058	29.01
263.274	78.16
263.49	10.58
263.707	84.31
263.923	155.99
264.139	26.96
264.355	110.93
264.571	98.64
264.787	57.68
265.004	53.59
265.22	72.02
265.436	41.3
265.652	102.74
265.868	55.64
266.084	61.78
266.3	16.73
266.516	45.4
266.732	31.06
266.948	45.4
267.164	-13.99
267.38	110.93
267.596	69.97
267.812	41.3
268.028	49.49
268.244	-3.75
268.46	80.21
268.676	16.73
268.892	119.12
269.108	-22.19
269.324	65.88
269.54	24.92
269.756	53.59
269.972	0.34
270.188	100.69
270.403	2.39
270.619	35.16
270.835	74.07
271.051	74.07
271.267	49.49
271.483	6.49
271.698	61.78
271.914	78.16
272.13	35.16
272.346	90.45
272.562	110.93
272.777	55.64
272.993	74.07
273.209	63.83
273.425	53.59
273.64	86.36
273.856	86.36
274.072	78.16
274.287	74.07
274.503	53.59
274.719	43.35
274.934	39.25
275.15	-1.71
275.366	37.2
275.581	2.39
275.797	14.68
276.012	102.74
276.228	41.3
276.444	51.54
276.659	69.97
276.875	78.16
277.09	16.73
277.306	12.63
277.521	67.92
277.737	4.44
277.952	31.06
278.168	41.3
278.383	98.64
278.599	-11.95
278.814	69.97
279.03	12.63
279.245	92.5
279.461	39.25
279.676	104.79
279.892	-20.14
280.107	16.73
280.322	-46.76
280.538	47.44
280.753	80.21
280.969	119.12
281.184	22.87
281.399	127.32
281.615	86.36
281.83	-32.43
282.045	39.25
282.26	74.07
282.476	53.59
282.691	106.84
282.906	12.63
283.122	96.6
283.337	80.21
283.552	-3.75
283.767	45.4
283.983	82.26
284.198	37.2
284.413	127.32
284.628	-3.75
284.843	59.73
285.058	61.78
285.274	22.87
285.489	6.49
285.704	96.6
285.919	33.11
286.134	69.97
286.349	-11.95
286.564	4.44
286.779	121.17
286.995	47.44
287.21	24.92
287.425	69.97
287.64	43.35
287.855	82.26
288.07	8.53
288.285	88.4
288.5	24.92
288.715	86.36
288.93	94.55
289.145	37.2
289.36	51.54
289.575	37.2
289.79	121.17
290.004	29.01
290.219	86.36
290.434	20.82
290.649	24.92
290.864	88.4
291.079	-38.57
291.294	86.36
291.509	61.78
291.724	-24.23
291.938	47.44
292.153	69.97
292.368	8.53
292.583	78.16
292.798	-3.75
293.012	69.97
293.227	37.2
293.442	74.07
293.657	41.3
293.871	57.68
294.086	49.49
294.301	164.18
294.516	55.64
294.73	86.36
294.945	41.3
295.16	16.73
295.374	47.44
295.589	190.8
295.804	-9.9
296.018	35.16
296.233	92.5
296.447	96.6
296.662	8.53
296.877	43.35
297.091	94.55
297.306	53.59
297.52	37.2
297.735	14.68
297.949	43.35
298.164	-3.75
298.378	53.59
298.593	35.16
298.807	86.36
299.022	8.53
299.236	80.21
299.451	96.6
299.665	-7.85
299.88	86.36
300.094	39.25
300.309	33.11
300.523	47.44
300.737	22.87
300.952	94.55
301.166	12.63
301.381	8.53
301.595	12.63
301.809	94.55
302.024	29.01
302.238	-20.14
302.452	37.2
302.667	47.44
302.881	4.44
303.095	59.73
303.309	41.3
303.524	127.32
303.738	10.58
303.952	37.2
304.166	22.87
304.381	-3.75
304.595	115.03
304.809	80.21
305.023	33.11
305.237	37.2
305.452	61.78
305.666	65.88
305.88	22.87
306.094	37.2
306.308	82.26
306.522	86.36
306.736	69.97
306.95	61.78
307.164	4.44
307.379	-16.04
307.593	43.35
307.807	88.4
308.021	33.11
308.235	53.59
308.449	35.16
308.663	8.53
308.877	61.78
309.091	39.25
309.305	106.84
309.519	-28.33
309.733	63.83
309.947	-3.75
310.161	115.03
310.374	102.74
310.588	67.92
310.802	10.58
311.016	-28.33
311.23	35.16
311.444	16.73
311.658	-3.75
311.872	131.41
312.085	-44.71
312.299	88.4
312.513	78.16
312.727	98.64
312.941	10.58
313.154	45.4
313.368	57.68
313.582	69.97
313.796	92.5
314.009	16.73
314.223	104.79
314.437	55.64
314.651	-9.9
314.864	86.36
315.078	55.64
315.292	53.59
315.505	39.25
315.719	41.3
315.933	108.88
316.146	-7.85
316.36	4.44
316.573	115.03
316.787	43.35
317.001	37.2
317.214	-18.09
317.428	96.6
317.641	22.87
317.855	-44.71
318.068	16.73
318.282	55.64
318.495	55.64
318.709	78.16
318.922	55.64
319.136	94.55
319.349	129.36
319.563	-1.71
319.776	49.49
319.99	-34.47
320.203	45.4
320.417	94.55
320.63	121.17
320.843	-20.14
321.057	-7.85
321.27	20.82
321.483	20.82
321.697	41.3
321.91	-18.09
322.124	8.53
322.337	61.78
322.55	57.68
322.763	61.78
322.977	69.97
323.19	0.34
323.403	22.87
323.617	37.2
323.83	57.68
324.043	31.06
324.256	-1.71
324.469	-3.75
324.683	129.36
324.896	4.44
325.109	-1.71
325.322	35.16
325.535	65.88
325.748	127.32
325.962	86.36
326.175	20.82
326.388	94.55
326.601	155.99
326.814	16.73
327.027	4.44
327.24	74.07
327.453	37.2
327.666	135.51
327.879	61.78
328.092	110.93
328.305	47.44
328.518	53.59
328.731	104.79
328.944	37.2
329.157	31.06
329.37	72.02
329.583	69.97
329.796	110.93
330.009	14.68
330.222	86.36
330.435	33.11
330.648	33.11
330.861	51.54
331.073	123.22
331.286	119.12
331.499	45.4
331.712	80.21
331.925	69.97
332.138	-59.05
332.35	149.84
332.563	-18.09
332.776	131.41
332.989	8.53
333.202	55.64
333.414	31.06
333.627	74.07
333.84	88.4
334.053	82.26
334.265	16.73
334.478	-38.57
334.691	12.63
334.903	82.26
335.116	74.07
335.329	74.07
335.541	14.68
335.754	20.82
335.966	108.88
336.179	65.88
336.392	110.93
336.604	16.73
336.817	110.93
337.029	57.68
337.242	59.73
337.454	129.36
337.667	57.68
337.88	61.78
338.092	12.63
338.305	63.83
338.517	55.64
338.729	78.16
338.942	67.92
339.154	72.02
339.367	69.97
339.579	45.4
339.792	4.44
340.004	41.3
340.217	45.4
340.429	86.36
340.641	102.74
340.854	53.59
341.066	16.73
341.278	86.36
341.491	57.68
341.703	26.96
341.915	86.36
342.128	143.7
342.34	61.78
342.552	115.03
342.764	12.63
342.977	82.26
343.189	102.74
343.401	94.55
343.613	33.11
343.826	104.79
344.038	37.2
344.25	53.59
344.462	69.97
344.674	55.64
344.886	20.82
345.099	102.74
345.311	29.01
345.523	86.36
345.735	14.68
345.947	41.3
346.159	35.16
346.371	49.49
346.583	90.45
346.795	184.66
347.007	57.68
347.219	63.83
347.431	51.54
347.643	119.12
347.855	45.4
348.067	119.12
348.279	41.3
348.491	69.97
348.703	16.73
348.915	98.64
349.127	47.44
349.339	57.68
349.551	53.59
349.763	37.2
349.975	63.83
350.187	78.16
350.399	37.2
350.61	47.44
350.822	69.97
351.034	74.07
351.246	51.54
351.458	39.25
351.669	104.79
351.881	74.07
352.093	94.55
352.305	59.73
352.517	24.92
352.728	72.02
352.94	-40.62
353.152	31.06
353.363	-3.75
353.575	65.88
353.787	74.07
353.999	16.73
354.21	104.79
354.422	94.55
354.633	55.64
354.845	4.44
355.057	35.16
355.268	86.36
355.48	82.26
355.692	-24.23
355.903	69.97
356.115	14.68
356.326	-9.9
356.538	33.11
356.749	39.25
356.961	96.6
357.172	72.02
357.384	41.3
357.595	67.92
357.807	0.34
358.018	80.21
358.23	94.55
358.441	92.5
358.653	45.4
358.864	41.3
359.075	29.01
359.287	-32.43
359.498	31.06
359.709	110.93
359.921	143.7
360.132	20.82
360.344	69.97
360.555	20.82
360.766	92.5
360.977	57.68
361.189	90.45
361.4	22.87
361.611	67.92
361.823	69.97
362.034	108.88
362.245	12.63
362.456	82.26
362.667	74.07
362.879	-44.71
363.09	47.44
363.301	55.64
363.512	53.59
363.723	86.36
363.935	110.93
364.146	63.83
364.357	55.64
364.568	55.64
364.779	-38.57
364.99	143.7
365.201	53.59
365.412	102.74
365.623	-7.85
365.834	88.4
366.045	29.01
366.256	53.59
366.467	80.21
366.678	74.07
366.889	31.06
367.1	49.49
367.311	112.98
367.522	57.68
367.733	82.26
367.944	100.69
368.155	45.4
368.366	96.6
368.577	115.03
368.788	98.64
368.999	78.16
369.209	26.96
369.42	90.45
369.631	20.82
369.842	96.6
370.053	45.4
370.264	59.73
370.474	92.5
370.685	31.06
370.896	80.21
371.107	102.74
371.317	29.01
371.528	45.4
371.739	104.79
371.95	59.73
372.16	88.4
372.371	-11.95
372.582	65.88
372.792	55.64
373.003	20.82
373.214	29.01
373.424	135.51
373.635	72.02
373.846	-3.75
374.056	57.68
374.267	96.6
374.477	20.82
374.688	-9.9
374.898	45.4
375.109	78.16
375.319	129.36
375.53	135.51
375.74	45.4
375.951	69.97
376.161	4.44
376.372	94.55
376.582	-3.75
376.793	31.06
377.003	14.68
377.214	84.31
377.424	33.11
377.635	69.97
377.845	22.87
378.055	78.16
378.266	37.2
378.476	86.36
378.686	39.25
378.897	135.51
379.107	41.3
379.317	14.68
379.528	-42.67
379.738	80.21
379.948	4.44
380.158	115.03
380.369	53.59
380.579	59.73
380.789	-3.75
380.999	104.79
381.21	45.4
381.42	139.6
381.63	-32.43
381.84	69.97
382.05	90.45
382.261	96.6
382.471	123.22
382.681	49.49
382.891	78.16
383.101	72.02
383.311	-30.38
383.521	-48.81
383.731	53.59
383.941	39.25
384.151	92.5
384.361	57.68
384.571	-16.04
384.781	74.07
384.991	80.21
385.201	131.41
385.411	82.26
385.621	94.55
385.831	57.68
386.041	110.93
386.251	33.11
386.461	65.88
386.671	69.97
386.881	69.97
387.091	86.36
387.301	12.63
387.511	51.54
387.72	102.74
387.93	2.39
388.14	12.63
388.35	45.4
388.56	61.78
388.769	151.89
388.979	55.64
389.189	-5.8
389.399	78.16
389.609	135.51
389.818	53.59
390.028	104.79
390.238	94.55
390.447	121.17
390.657	74.07
390.867	22.87
391.076	45.4
391.286	37.2
391.496	104.79
391.705	102.74
391.915	76.12
392.125	12.63
392.334	127.32
392.544	80.21
392.753	80.21
392.963	63.83
393.172	80.21
393.382	24.92
393.591	86.36
393.801	69.97
394.01	78.16
394.22	69.97
394.429	63.83
394.639	24.92
394.848	90.45
395.058	74.07
395.267	63.83
395.477	53.59
395.686	45.4
395.895	178.51
396.105	115.03
396.314	0.34
396.524	158.03
396.733	63.83
396.942	149.84
397.152	63.83
397.361	143.7
397.57	69.97
397.78	112.98
397.989	88.4
398.198	110.93
398.407	102.74
398.617	65.88
398.826	51.54
399.035	24.92
399.244	51.54
399.453	151.89
399.663	76.12
399.872	74.07
400.081	-7.85
400.29	123.22
400.499	108.88
400.708	104.79
400.917	98.64
401.127	123.22
401.336	86.36
401.545	112.98
401.754	69.97
401.963	110.93
402.172	90.45
402.381	86.36
402.59	80.21
402.799	201.04
403.008	186.71
403.217	135.51
403.426	76.12
403.635	98.64
403.844	112.98
404.053	37.2
404.262	29.01
404.471	135.51
404.68	61.78
404.888	127.32
405.097	104.79
405.306	155.99
405.515	80.21
405.724	98.64
405.933	192.85
406.142	121.17
406.35	90.45
406.559	147.8
406.768	145.75
406.977	221.52
407.185	215.38
407.394	209.23
407.603	172.37
407.812	143.7
408.02	221.52
408.229	129.36
408.438	178.51
408.646	242
408.855	239.95
409.064	217.43
409.272	227.67
409.481	221.52
409.69	254.29
409.898	139.6
410.107	276.82
410.315	190.8
410.524	287.06
410.733	350.54
410.941	205.14
411.15	272.72
411.358	336.21
411.567	383.31
411.775	270.67
411.984	291.15
412.192	332.11
412.401	356.69
412.609	373.07
412.818	416.08
413.026	405.84
413.234	389.46
413.443	364.88
413.651	348.5
413.86	422.22
414.068	432.46
414.276	530.77
414.485	418.13
414.693	426.32
414.901	577.87
415.11	506.19
415.318	614.73
415.526	520.53
415.734	553.29
415.943	557.39
416.151	624.97
416.359	549.2
416.567	524.62
416.776	641.36
416.984	751.95
417.192	647.5
417.4	684.36
417.608	639.31
417.817	753.99
418.025	799.05
418.233	749.9
418.441	690.51
418.649	817.48
418.857	938.31
419.065	938.31
419.273	889.16
419.481	946.5
419.689	954.69
419.897	985.41
420.105	928.07
420.313	1059.14
420.521	1087.81
420.729	1083.72
420.937	1063.24
421.145	1202.5
421.353	1304.9
421.561	1286.47
421.769	1345.86
421.977	1317.19
422.185	1288.51
422.393	1544.51
422.601	1446.21
422.809	1487.17
423.017	1538.37
423.224	1657.15
423.432	1708.35
423.64	1634.62
423.848	1741.11
424.056	1765.69
424.263	1857.85
424.471	1859.9
424.679	1995.06
424.887	2142.52
425.094	2117.94
425.302	2115.89
425.51	2263.35
425.718	2261.3
425.925	2251.06
426.133	2261.3
426.341	2439.47
426.548	2593.07
426.756	2674.99
426.964	2683.18
427.171	2799.91
427.379	2775.34
427.586	2922.79
427.794	3019.05
428.001	3111.21
428.209	3219.75
428.417	3289.38
428.624	3424.55
428.832	3406.11
429.039	3453.22
429.247	3469.6
429.454	3770.65
429.662	4083.99
429.869	3805.47
430.076	4026.65
430.284	3936.54
430.491	3975.45
430.699	4382.99
430.906	4256.02
431.114	4217.11
431.321	4423.95
431.528	4610.32
431.736	4663.57
431.943	5103.88
432.15	5001.48
432.358	4829.45
432.565	5181.7
432.772	5169.41
432.979	5587.2
433.187	5630.21
433.394	5603.58
433.601	6009.08
433.808	6091
434.016	5814.52
434.223	6047.99
434.43	6494.45
434.637	6342.9
434.844	6969.58
435.052	6904.04
435.259	6969.58
435.466	7112.94
435.673	6830.32
435.88	7428.32
436.087	7788.77
436.294	7577.83
436.501	7592.16
436.708	7805.15
436.915	7928.03
437.122	8493.27
437.329	8270.04
437.537	8691.92
437.743	8675.54
437.95	8589.52
438.157	9064.65
438.364	9119.95
438.571	9275.59
438.778	9474.24
438.985	10150.07
439.192	9797.82
439.399	10211.51
439.606	9883.84
439.813	10301.62
440.02	11208.87
440.227	11079.85
440.433	10903.73
440.64	11090.09
440.847	11104.43
441.054	11446.44
441.261	11991.2
441.467	12032.16
441.674	12249.24
441.881	12654.74
442.088	12589.21
442.294	12511.38
442.501	12853.39
442.708	13033.61
442.914	13316.23
443.121	14114.94
443.328	13850.75
443.534	14741.62
443.741	14434.43
443.948	13924.48
444.154	15075.44
444.361	15081.58
444.568	15161.45
444.774	15132.78
444.981	15409.26
445.187	15822.95
445.394	16511.07
445.6	16212.06
445.807	17748.04
446.013	16900.18
446.22	17270.86
446.426	17756.23
446.633	18178.11
446.839	18823.22
447.046	17762.37
447.252	18903.09
447.459	18933.81
447.665	18737.21
447.871	19554.35
448.078	20510.75
448.284	19566.63
448.491	20009
448.697	20643.87
448.903	21241.87
449.11	21520.4
449.316	20924.44
449.522	21278.74
449.728	21995.53
449.935	22093.83
450.141	21923.85
450.347	22491.13
450.553	22007.81
450.76	22073.35
450.966	23279.6
451.172	22986.74
451.378	23302.13
451.584	22861.82
451.791	23404.53
451.997	22992.89
452.203	23703.53
452.409	23891.94
452.615	23683.05
452.821	22585.34
453.027	22214.66
453.233	23662.57
453.44	22767.61
453.646	23037.94
453.852	23416.82
454.058	23535.6
454.264	22919.16
454.47	23498.73
454.676	22890.49
454.882	23937
455.088	21690.38
455.294	21964.81
455.5	22204.42
455.705	22716.41
455.911	21391.37
456.117	21495.82
456.323	20926.49
456.529	19941.41
456.735	20819.99
456.941	20287.52
457.147	19591.21
457.352	19320.88
457.558	19183.66
457.764	19146.8
457.97	19023.92
458.176	18686.01
458.381	18352.19
458.587	17379.4
458.793	17608.78
458.999	16635.99
459.204	17854.53
459.41	17451.08
459.616	16117.86
459.821	16459.87
460.027	16322.65
460.233	15988.83
460.438	15114.35
460.644	15220.85
460.85	14671.99
461.055	14301.31
461.261	14192.76
461.466	13387.91
461.672	12929.17
461.878	13727.88
462.083	12742.8
462.289	12515.48
462.494	12365.98
462.7	12048.54
462.905	11632.8
463.111	12177.56
463.316	12001.44
463.522	11845.79
463.727	11872.42
463.932	11815.07
464.138	11866.27
464.343	11827.36
464.549	11274.41
464.754	11841.7
464.959	11727.01
465.165	11649.19
465.37	11262.12
465.575	10901.68
465.781	11204.78
465.986	11137.2
466.191	10846.38
466.397	10743.99
466.602	10236.09
466.807	10520.76
467.012	10426.55
467.218	10318.01
467.423	10490.04
467.628	10268.86
467.833	10694.83
468.038	10377.4
468.244	10176.7
468.449	10653.87
468.654	10199.23
468.859	10172.6
469.064	10070.2
469.269	9642.18
469.474	9973.95
469.679	10078.4
469.885	9515.2
470.09	9707.71
470.295	9640.13
470.5	9461.96
470.705	9449.67
470.91	9253.06
471.115	9332.93
471.32	9521.35
471.525	9271.5
471.73	9236.68
471.935	9015.5
472.139	8868.05
472.344	8726.74
472.549	9060.56
472.754	8696.02
472.959	8446.16
473.164	8397.01
473.369	8214.74
473.574	8720.59
473.778	8550.61
473.983	8360.15
474.188	8245.46
474.393	7915.74
474.598	8171.74
474.802	7932.12
475.007	7737.57
475.212	7958.75
475.417	7598.31
475.621	7794.91
475.826	7803.1
476.031	7532.77
476.235	7391.46
476.44	7475.43
476.645	7393.51
476.849	7225.58
477.054	7231.72
477.259	7108.84
477.463	7100.65
477.668	7035.11
477.872	7110.89
478.077	6854.89
478.282	6955.24
478.486	6803.69
478.691	6779.12
478.895	6695.15
479.1	6631.66
479.304	6713.58
479.509	6443.25
479.713	6578.42
479.918	6285.56
480.122	6248.69
480.326	6336.76
480.531	6340.85
480.735	6215.93
480.94	6140.15
481.144	6521.07
481.348	6228.21
481.553	6213.88
481.757	6043.9
481.961	6125.82
482.166	6207.73
482.37	6074.62
482.574	6172.92
482.778	6160.63
482.983	6215.93
483.187	6199.54
483.391	6066.42
483.595	6150.39
483.8	6101.24
484.004	6107.38
484.208	6193.4
484.412	6195.45
484.616	6105.34
484.821	6103.29
485.025	5959.93
485.229	6320.37
485.433	6107.38
485.637	6131.96
485.841	6138.1
486.045	6056.18
486.249	6117.62
486.453	5859.58
486.657	6183.16
486.861	6111.48
487.065	5970.17
487.269	6047.99
487.473	6041.85
487.677	6131.96
487.881	6279.41
488.085	6174.97
488.289	6217.97
488.493	6205.69
488.697	6035.71
488.901	5976.31
489.105	6181.11
489.309	6207.73
489.512	6115.58
489.716	6213.88
489.92	5947.64
490.124	6330.61
490.328	6197.49
490.531	6342.9
490.735	6252.79
490.939	6459.63
491.143	6289.65
491.346	6238.45
491.55	6353.14
491.754	6248.69
491.958	6406.39
492.161	6406.39
492.365	6451.44
492.569	6363.38
492.772	6285.56
492.976	6564.08
493.18	6324.47
493.383	6414.58
493.587	6488.31
493.79	6564.08
493.994	6549.75
494.197	6633.71
494.401	6564.08
494.605	6627.57
494.808	6672.62
495.012	6846.7
495.215	6961.39
495.419	6938.86
495.622	6873.32
495.825	6975.72
496.029	7008.49
496.232	7201
496.436	7092.46
496.639	7266.53
496.843	7205.1
497.046	7504.1
497.249	7483.62
497.453	7530.72
497.656	7491.81
497.859	7657.7
498.063	7842.01
498.266	7968.99
498.469	7852.25
498.673	7971.04
498.876	7952.6
499.079	8044.76
499.282	7946.46
499.485	8368.34
499.689	8233.18
499.892	8446.16
500.095	8378.58
500.298	8591.57
500.501	8478.93
500.705	8732.88
500.908	8876.24
501.111	8919.25
501.314	9136.33
501.517	9046.22
501.72	9158.86
501.923	9117.9
502.126	9580.74
502.329	9781.44
502.532	9461.96
502.735	9695.43
502.938	9793.73
503.141	9758.91
503.344	10135.74
503.547	10127.55
503.75	10236.09
503.953	10125.5
504.156	10186.94
504.359	10504.37
504.562	10574
504.765	10920.11
504.968	10948.78
505.17	11145.39
505.373	10924.21
505.576	11096.24
505.779	11321.51
505.982	11270.31
506.185	11706.53
506.387	11514.02
506.59	11630.76
506.793	12081.31
506.996	11968.67
507.198	12425.37
507.401	12427.42
507.604	12427.42
507.807	12578.97
508.009	12613.78
508.212	12384.41
508.415	12859.54
508.617	12767.38
508.82	12963.98
509.022	12935.31
509.225	13488.26
509.428	13279.37
509.63	13623.43
509.833	13893.76
510.035	14104.7
510.238	13883.52
510.44	13809.79
510.643	14176.38
510.845	14342.27
511.048	14260.35
511.25	14475.38
511.453	14710.9
511.655	15327.34
511.858	15028.34
512.06	15052.91
512.262	15202.41
512.465	15333.48
512.667	15736.93
512.87	15706.21
513.072	15646.82
513.274	16132.19
513.477	15997.03
513.679	16269.41
513.881	16201.82
514.084	16619.61
514.286	16808.02
514.488	16644.18
514.69	17197.13
514.893	17246.29
515.095	17246.29
515.297	17289.29
515.499	17420.36
515.701	17768.52
515.904	18047.04
516.106	18024.51
516.308	18141.25
516.51	18329.66
516.712	18300.99
516.914	18702.39
517.116	19025.97
517.318	19003.44
517.52	19230.77
517.722	19263.54
517.925	19439.66
518.127	19812.39
518.329	19755.05
518.531	19654.7
518.733	20166.69
518.935	20246.56
519.136	20129.83
519.338	20627.48
519.54	20746.26
519.742	21020.69
519.944	20674.59
520.146	21262.35
520.348	21520.4
520.55	21426.19
520.752	21356.56
520.954	21823.5
521.155	21581.84
521.357	22110.21
521.559	22290.43
521.761	22640.64
521.963	22333.44
522.164	22648.83
522.366	22841.34
522.568	22958.07
522.77	22884.34
522.971	23429.1
523.173	23418.86
523.375	23582.7
523.576	23355.38
523.778	23392.24
523.98	23814.12
524.181	24059.88
524.383	24383.46
524.584	24492
524.786	24440.8
524.988	24354.79
525.189	24319.97
525.391	24530.91
525.592	25163.73
525.794	25202.64
525.995	24958.94
526.197	24897.5
526.398	25280.47
526.6	25282.52
526.801	25290.71
527.003	25411.54
527.204	25624.53
527.406	25759.69
527.607	25905.1
527.808	26038.22
528.01	25640.91
528.211	25645.01
528.412	26044.36
528.614	25931.72
528.815	26195.91
529.016	26283.97
529.218	26124.23
529.419	26388.42
529.62	26249.16
529.822	26277.83
530.023	26542.02
530.224	26113.99
530.425	26519.49
530.626	26544.06
530.828	26322.88
531.029	26955.71
531.23	26460.1
531.431	26349.51
531.632	26822.59
531.833	26793.92
532.035	26787.77
532.236	26662.85
532.437	27113.4
532.638	26726.33
532.839	27031.48
533.04	27203.51
533.241	26697.66
533.442	27238.33
533.643	27080.63
533.844	26861.5
534.045	27250.61
534.246	27199.41
534.447	27199.41
534.648	26683.33
534.849	26988.47
535.05	26644.41
535.251	27056.06
535.451	26832.83
535.652	27180.98
535.853	27004.86
536.054	26967.99
536.255	27045.82
536.456	26468.29
536.657	27244.47
536.857	26963.9
537.058	26853.31
537.259	27078.58
537.46	27056.06
537.66	26924.99
537.861	27168.69
538.062	27013.05
538.263	27062.2
538.463	26757.05
538.664	26992.57
538.865	26976.19
539.065	27340.72
539.266	26787.77
539.466	26918.84
539.667	26750.91
539.868	27357.11
540.068	26886.08
540.269	26953.66
540.469	27324.34
540.67	26683.33
540.87	27119.54
541.071	26953.66
541.271	26963.9
541.472	26703.81
541.672	26726.33
541.873	26707.9
542.073	26650.56
542.274	27023.29
542.474	26548.16
542.675	26871.74
542.875	27158.45
543.075	26902.46
543.276	26548.16
543.476	27000.76
543.676	26634.17
543.877	26789.82
544.077	26757.05
544.277	26861.5
544.478	26765.24
544.678	26593.22
544.878	26734.53
545.078	26716.09
545.279	26400.71
545.479	26851.26
545.679	26922.94
545.879	26808.25
546.079	26789.82
546.28	26664.89
546.48	26101.7
546.68	26828.73
546.88	26648.51
547.08	26671.04
547.28	26537.92
547.48	26255.3
547.68	26247.11
547.88	26398.66
548.081	26628.03
548.281	26730.43
548.481	26347.46
548.681	26515.39
548.881	26714.05
549.081	26404.8
549.28	26466.24
549.48	26681.28
549.68	26480.58
549.88	26499.01
550.08	26494.91
550.28	26443.71
550.48	26503.1
550.68	26587.07
550.88	26335.17
551.08	26302.4
551.279	26570.69
551.479	26279.88
551.679	26509.25
551.879	26243.01
552.079	26216.39
552.278	26038.22
552.478	26630.08
552.678	26388.42
552.878	26580.93
553.077	25919.43
553.277	26369.99
553.477	26625.98
553.676	26089.42
553.876	26394.56
554.076	26236.87
554.275	25870.28
554.475	26144.71
554.674	26021.83
554.874	26107.85
555.074	26128.33
555.273	26066.89
555.473	25972.68
555.672	25993.16
555.872	26138.57
556.071	26005.45
556.271	26271.68
556.47	26042.31
556.67	25786.32
556.869	25925.58
557.068	25790.41
557.268	25728.97
557.467	25970.63
557.667	26056.65
557.866	26283.97
558.065	25489.36
558.265	25645.01
558.464	25821.13
558.663	25771.98
558.863	25481.17
559.062	25923.53
559.261	25690.06
559.461	25804.75
559.66	25196.5
559.859	25462.74
560.058	25391.06
560.258	25348.05
560.457	25286.61
560.656	25647.05
560.855	24840.15
561.054	25497.55
561.253	24991.7
561.453	25139.16
561.652	25284.56
561.851	25173.97
562.05	25003.99
562.249	25030.62
562.448	25556.94
562.647	25135.06
562.846	25169.88
563.045	25169.88
563.244	24809.43
563.443	25098.2
563.642	24539.1
563.841	24641.5
564.04	24776.67
564.239	25118.68
564.438	24496.1
564.637	24621.02
564.836	24590.3
565.035	24580.06
565.234	24489.95
565.432	24328.16
565.631	24487.9
565.83	24430.56
566.029	23850.99
566.228	24174.56
566.427	24147.94
566.625	24104.93
566.824	24088.55
567.023	24217.57
567.222	23943.14
567.42	24240.1
567.619	24076.26
567.818	23836.65
568.016	23705.58
568.215	23986.15
568.414	23734.25
568.612	23998.44
568.811	23332.85
569.01	23812.07
569.208	23517.17
569.407	23769.07
569.605	22843.38
569.804	23670.76
570.002	23152.63
570.201	23609.33
570.4	23105.52
570.598	23263.22
570.797	22880.25
570.995	23027.7
571.193	22790.14
571.392	23230.45
571.59	23146.48
571.789	22808.57
571.987	22827
572.186	22941.69
572.384	22736.89
572.582	22511.61
572.781	22640.64
572.979	22151.17
573.177	22376.45
573.376	22585.34
573.574	22632.44
573.772	22532.09
573.971	22333.44
574.169	22251.52
574.367	21876.74
574.565	22302.72
574.763	22261.76
574.962	22073.35
575.16	21929.99
575.358	22153.22
575.556	21796.87
575.754	22138.88
575.952	21987.33
576.151	21985.29
576.349	21647.37
576.547	21538.83
576.745	21692.43
576.943	21673.99
577.141	21381.14
577.339	21540.88
577.537	21221.39
577.735	21264.4
577.933	21303.31
578.131	21211.15
578.329	21182.48
578.527	20930.58
578.725	21305.36
578.923	21080.08
579.121	21151.76
579.319	20752.41
579.516	20901.91
579.714	20811.8
579.912	20635.67
580.11	20715.55
580.308	20697.11
580.506	20836.38
580.704	20473.88
580.901	20733.98
581.099	20754.46
581.297	20254.75
581.495	20369.44
581.692	20510.75
581.89	20088.87
582.088	20455.45
582.285	19988.52
582.483	20095.01
582.681	19918.89
582.878	20115.49
583.076	19941.41
583.274	20295.71
583.471	19894.31
583.669	19974.18
583.866	19773.48
584.064	19986.47
584.262	19615.79
584.459	19646.51
584.657	19486.76
584.854	19736.62
585.052	19316.78
585.249	19337.26
585.447	19548.2
585.644	19535.92
585.841	19591.21
586.039	19269.68
586.236	19214.38
586.434	18939.96
586.631	18905.14
586.828	19163.18
587.026	18931.76
587.223	19040.31
587.42	18888.76
587.618	18860.09
587.815	18731.06
588.012	18673.72
588.21	18567.23
588.407	18991.16
588.604	18659.38
588.801	18550.84
588.999	18460.73
589.196	18769.97
589.393	18497.6
589.59	18452.54
589.787	18006.08
589.984	18055.23
590.182	18274.37
590.379	18274.37
590.576	18126.91
590.773	18174.02
590.97	17727.56
591.167	18210.88
591.364	17688.65
591.561	17915.97
591.758	17625.16
591.955	17948.74
592.152	17840.2
592.349	17553.48
592.546	17817.67
592.743	17805.38
592.94	17059.92
593.137	17512.52
593.334	17631.3
593.531	17158.22
593.727	17471.56
593.924	17283.15
594.121	17047.63
594.318	17389.64
594.515	17109.07
594.712	17217.61
594.908	17174.61
595.105	17143.89
595.302	16834.64
595.499	16894.04
595.696	16709.72
595.892	16777.3
596.089	16592.98
596.286	16953.43
596.482	16760.92
596.679	16676.95
596.876	16736.34
597.072	16539.74
597.269	16427.1
597.466	16517.21
597.662	16390.24
597.859	16584.79
598.055	16310.36
598.252	16300.12
598.448	16189.53
598.645	16169.05
598.841	15958.11
599.038	15904.87
599.234	16097.38
599.431	15759.46
599.627	15822.95
599.824	15831.14
600.02	15906.91
600.217	15818.85
600.413	15687.78
600.609	15874.15
600.806	15640.68
601.002	15741.03
601.198	15558.76
601.395	15429.74
601.591	15442.03
601.787	15439.98
601.984	15306.86
602.18	15736.93
602.376	15155.31
602.572	15253.61
602.769	15229.04
602.965	15106.16
603.161	15431.79
603.357	15247.47
603.553	14864.5
603.75	15065.2
603.946	15014
604.142	14674.04
604.338	14665.85
604.534	14817.4
604.73	14727.28
604.926	14735.48
605.122	14864.5
605.318	14665.85
605.514	14647.41
605.71	14555.26
605.906	14323.83
606.102	14448.76
606.298	14528.63
606.494	14497.91
606.69	14233.72
606.886	14430.33
607.082	14264.44
607.278	14688.37
607.474	14170.24
607.67	14485.62
607.866	13959.3
608.062	14667.89
608.257	14385.27
608.453	14186.62
608.649	14184.57
608.845	13924.48
609.041	14260.35
609.236	14196.86
609.432	14114.94
609.628	13736.07
609.824	14196.86
610.019	13824.13
610.215	13754.5
610.411	13910.15
610.606	13795.46
610.802	13623.43
610.998	13791.36
611.193	13973.63
611.389	13770.88
611.584	13553.8
611.78	13586.57
611.976	13506.7
612.171	13744.26
612.367	13617.29
612.562	13414.54
612.758	13432.97
612.953	13394.06
613.149	13529.22
613.344	13351.05
613.539	13516.94
613.735	13326.47
613.93	13545.61
614.126	13379.72
614.321	13459.59
614.517	13363.34
614.712	13205.64
614.907	13250.7
615.103	13406.34
615.298	12953.74
615.493	13269.13
615.688	13168.78
615.884	13408.39
616.079	12785.81
616.274	12857.49
616.47	13004.94
616.665	13027.47
616.86	13021.33
617.055	12839.06
617.25	12707.99
617.445	12890.26
617.641	12851.35
617.836	12994.7
618.031	12583.06
618.226	13066.38
618.421	12759.19
618.616	12769.43
618.811	12581.01
619.006	12621.97
619.201	12460.18
619.396	12697.75
619.591	12263.58
619.786	12417.18
619.981	12212.38
620.176	12376.22
620.371	12339.35
620.566	12132.51
620.761	12112.03
620.956	12333.21
621.151	12140.7
621.346	12261.53
621.541	11710.63
621.735	11921.57
621.93	11686.05
622.125	11739.3
622.32	11487.4
622.515	11704.48
622.709	11591.84
622.904	11681.96
623.099	11618.47
623.294	11649.19
623.488	11296.94
623.683	11528.36
623.878	11393.19
624.072	11178.15
624.267	11221.16
624.462	11167.91
624.656	10819.76
624.851	11108.52
625.046	10838.19
625.24	10809.52
625.435	10985.65
625.629	10807.47
625.824	10567.86
626.018	10674.35
626.213	10518.71
626.407	10373.3
626.602	10336.44
626.796	10498.23
626.991	10264.76
627.185	10178.75
627.38	10172.6
627.574	10311.86
627.768	10123.45
627.963	9877.69
628.157	10090.68
628.352	10037.44
628.546	9892.03
628.74	9867.45
628.935	9785.54
629.129	9785.54
629.323	9699.52
629.517	9672.9
629.712	9513.16
629.906	9648.32
630.1	9636.03
630.294	9658.56
630.489	9330.89
630.683	9502.92
630.877	9138.38
631.071	9236.68
631.265	8990.92
631.459	9064.65
631.653	9128.14
631.848	9205.96
632.042	9066.7
632.236	9124.04
632.43	8921.29
632.624	8892.62
632.818	8966.35
633.012	8661.2
633.206	8853.71
633.4	8691.92
633.594	8614.1
633.788	8614.1
633.982	8601.81
634.176	8607.95
634.369	8507.6
634.563	8526.04
634.757	8483.03
634.951	8419.54
635.145	8442.07
635.339	8270.04
635.533	8159.45
635.726	8204.5
635.92	8190.17
636.114	8091.87
636.308	8126.68
636.501	7999.71
636.695	8016.09
636.889	7942.36
637.083	7786.72
637.276	7760.09
637.47	7653.6
637.664	7817.44
637.857	7749.86
638.051	7708.9
638.244	7794.91
638.438	7680.22
638.632	7594.21
638.825	7506.15
639.019	7618.79
639.212	7342.31
639.406	7332.07
639.599	7379.17
639.793	7528.67
639.986	7315.69
640.18	7188.71
640.373	7135.46
640.567	7239.91
640.76	7110.89
640.954	7078.12
641.147	7028.97
641.34	6959.34
641.534	6955.24
641.727	6977.77
641.92	6856.94
642.114	6938.86
642.307	6863.08
642.5	6983.91
642.694	6676.72
642.887	6607.09
643.08	6805.74
643.273	6469.87
643.467	6715.63
643.66	6553.84
643.853	6545.65
644.046	6328.56
644.239	6533.36
644.432	6420.72
644.626	6369.52
644.819	6383.86
645.012	6439.16
645.205	6414.58
645.398	6359.28
645.591	6166.78
645.784	6193.4
645.977	6238.45
646.17	6045.95
646.363	6099.19
646.556	6041.85
646.749	6019.32
646.942	5994.75
647.135	5937.4
647.328	6080.76
647.521	5931.26
647.714	5865.72
647.907	5902.59
648.099	5755.13
648.292	5927.16
648.485	5765.37
648.678	5787.9
648.871	5738.75
649.064	5550.34
649.256	5640.45
649.449	5593.34
649.642	5474.56
649.835	5579.01
650.027	5622.02
650.22	5525.76
650.413	5470.47
650.605	5470.47
650.798	5402.88
650.991	5394.69
651.183	5357.83
651.376	5249.29
651.568	5355.78
651.761	5296.39
651.954	5237
652.146	5181.7
652.339	5245.19
652.531	5280
652.724	5128.46
652.916	5116.17
653.109	5107.98
653.301	5234.95
653.494	5163.27
653.686	5095.69
653.879	4944.14
654.071	4886.79
654.263	5009.67
654.456	5003.53
654.648	5120.26
654.84	4811.02
655.033	4897.03
655.225	4913.42
655.417	4862.22
655.61	5087.5
655.802	4858.12
655.994	4718.86
656.186	4753.68
656.379	4714.77
656.571	4694.29
656.763	4604.18
656.955	4628.75
657.148	4641.04
657.34	4587.79
657.532	4479.25
657.724	4413.71
657.916	4589.84
658.108	4505.87
658.3	4409.62
658.492	4505.87
658.684	4518.16
658.876	4469.01
659.068	4356.37
659.26	4282.64
659.452	4411.67
659.644	4362.51
659.836	4403.47
660.028	4253.97
660.22	4325.65
660.412	4249.88
660.604	4213.01
660.796	4127
660.988	4247.83
661.18	4178.2
661.372	4157.72
661.563	4098.33
661.755	4106.52
661.947	4086.04
662.139	4155.67
662.331	4024.6
662.522	4030.74
662.714	4043.03
662.906	3961.11
663.097	3914.01
663.289	3936.54
663.481	4004.12
663.673	3846.43
663.864	3772.7
664.056	4051.22
664.247	3752.22
664.439	3760.41
664.631	3840.28
664.822	3780.89
665.014	3881.24
665.205	3703.07
665.397	3629.34
665.588	3760.41
665.78	3701.02
665.971	3760.41
666.163	3633.44
666.354	3690.78
666.546	3674.4
666.737	3623.2
666.929	3559.71
667.12	3539.23
667.311	3510.56
667.503	3512.61
667.694	3533.09
667.885	3547.42
668.077	3592.48
668.268	3395.87
668.459	3543.33
668.651	3504.42
668.842	3383.59
669.033	3303.71
669.224	3307.81
669.416	3404.07
669.607	3428.64
669.798	3332.39
669.989	3381.54
670.18	3410.21
670.371	3420.45
670.563	3340.58
670.754	3307.81
670.945	3248.42
671.136	3281.19
671.327	3246.37
671.518	3283.24
671.709	3270.95
671.9	3160.36
672.091	3100.97
672.282	3240.23
672.473	3301.67
672.664	3166.5
672.855	3189.03
673.046	3117.35
673.237	3158.31
673.428	3168.55
673.619	3096.87
673.809	3066.15
674	3119.4
674.191	3094.82
674.382	2984.23
674.573	3068.2
674.764	3057.96
674.954	3133.73
675.145	3035.43
675.336	3109.16
675.527	3055.91
675.717	3031.34
675.908	3057.96
676.099	3064.1
676.289	2976.04
676.48	3051.81
676.671	2941.22
676.861	2961.7
677.052	2928.94
677.243	2871.59
677.433	2980.14
677.624	2973.99
677.814	2904.36
678.005	3006.76
678.195	3043.62
678.386	2933.03
678.576	2986.28
678.767	2785.58
678.957	2996.52
679.148	2826.54
679.338	2847.02
679.529	2965.8
679.719	2822.44
679.909	2986.28
680.1	2873.64
680.29	2832.68
680.481	2847.02
680.671	2871.59
680.861	2816.3
681.052	2859.31
681.242	2855.21
681.432	2961.7
681.622	2838.83
681.813	2814.25
682.003	2799.91
682.193	2840.87
682.383	2674.99
682.573	2824.49
682.764	2711.85
682.954	2687.28
683.144	2668.84
683.334	2769.2
683.524	2814.25
683.714	2799.91
683.904	2681.13
684.094	2842.92
684.284	2838.83
684.474	2799.91
684.664	2627.89
684.854	2808.11
685.044	2758.96
685.234	2683.18
685.424	2685.23
685.614	2650.41
685.804	2597.17
685.994	2634.03
686.184	2674.99
686.374	2666.8
686.564	2578.73
686.753	2666.8
686.943	2584.88
687.133	2597.17
687.323	2679.08
687.513	2505.01
687.702	2588.97
687.892	2543.92
688.082	2611.5
688.272	2560.3
688.461	2576.69
688.651	2617.65
688.841	2552.11
689.03	2560.3
689.22	2445.62
689.41	2416.94
689.599	2545.97
689.789	2437.42
689.979	2390.32
690.168	2421.04
690.358	2482.48
690.547	2396.46
690.737	2369.84
690.926	2361.65
691.116	2445.62
691.305	2347.31
691.495	2445.62
691.684	2230.58
691.874	2349.36
692.063	2316.59
692.252	2267.44
692.442	2226.48
692.631	2300.21
692.82	2212.15
693.01	2289.97
693.199	2285.87
693.388	2255.15
693.578	2304.31
693.767	2324.79
693.956	2185.52
694.146	2285.87
694.335	2234.68
694.524	2210.1
694.713	2224.44
694.902	2236.72
695.092	2177.33
695.281	2169.14
695.47	2167.09
695.659	2201.91
695.848	2122.04
696.037	2169.14
696.226	2134.32
696.415	2165.04
696.604	2142.52
696.793	2095.41
696.982	2142.52
697.171	2095.41
697.36	2095.41
697.549	2015.54
697.738	2079.03
697.927	2066.74
698.116	2085.17
698.305	2132.28
698.494	2103.61
698.683	2105.65
698.872	2076.98
699.061	2117.94
699.25	2134.32
699.438	2085.17
699.627	2099.51
699.816	2132.28
700.005	1966.39
700.193	2140.47
700.382	2081.08
700.571	2128.18
700.76	2103.61
700.948	2070.84
701.137	2046.26
701.326	2089.27
701.514	2040.12
701.703	2169.14
701.892	1941.82
702.08	2076.98
702.269	2070.84
702.457	2142.52
702.646	2005.3
702.834	2054.45
703.023	1927.48
703.212	2074.93
703.4	2042.17
703.589	1990.97
703.777	2060.6
703.965	2064.69
704.154	2058.55
704.342	2136.37
704.531	2052.41
704.719	2007.35
704.907	2003.25
705.096	2040.12
705.284	1917.24
705.472	2040.12
705.661	1988.92
705.849	2009.4
706.037	1978.68
706.226	1986.87
706.414	2027.83
706.602	2068.79
706.79	1997.11
706.979	1941.82
707.167	1978.68
707.355	1986.87
707.543	2064.69
707.731	2021.69
707.919	2031.93
708.107	1915.19
708.296	1913.14
708.484	1995.06
708.672	2048.31
708.86	2031.93
709.048	1890.62
709.236	2068.79
709.424	2011.45
709.612	1986.87
709.8	1974.58
709.988	2048.31
710.176	1962.3
710.364	1945.91
710.551	1939.77
710.739	1960.25
710.927	1962.3
711.115	1907
711.303	2070.84
711.491	1966.39
711.679	1939.77
711.866	1888.57
712.054	2052.41
712.242	1962.3
712.43	2044.21
712.617	1939.77
712.805	1923.38
712.993	1954.1
713.181	1972.54
713.368	1947.96
713.556	2021.69
713.744	1845.56
713.931	2074.93
714.119	2031.93
714.306	1909.05
714.494	2070.84
714.682	2011.45
714.869	1937.72
715.057	2013.49
715.244	1909.05
715.432	1995.06
715.619	2038.07
715.807	1962.3
715.994	1976.63
716.182	1954.1
716.369	2089.27
716.556	2081.08
716.744	2003.25
716.931	1921.34
717.119	1909.05
717.306	1974.58
717.493	1913.14
717.681	1880.38
717.868	1913.14
718.055	1939.77
718.242	1995.06
718.43	1968.44
718.617	1937.72
718.804	1950.01
718.991	2019.64
719.179	1861.94
719.366	1925.43
719.553	1986.87
719.74	1833.27
719.927	1933.62
720.114	1974.58
720.301	1872.18
720.488	1904.95
720.676	1890.62
720.863	2031.93
721.05	1898.81
721.237	2011.45
721.424	1941.82
721.611	1958.2
721.798	1876.28
721.985	1904.95
722.172	1941.82
722.358	1884.47
722.545	1868.09
722.732	1980.73
722.919	1896.76
723.106	1919.29
723.293	1859.9
723.48	1863.99
723.667	1855.8
723.853	1884.47
724.04	1937.72
724.227	1884.47
724.414	1913.14
724.6	1900.86
724.787	1929.53
724.974	1892.66
725.161	1857.85
725.347	1900.86
725.534	2095.41
725.72	1968.44
725.907	1941.82
726.094	1904.95
726.28	1923.38
726.467	2036.02
726.653	1798.46
726.84	1972.54
727.027	1892.66
727.213	1947.96
727.4	1986.87
727.586	1954.1
727.773	1853.75
727.959	1890.62
728.145	1943.86
728.332	1904.95
728.518	1866.04
728.705	1847.61
728.891	1847.61
729.077	2064.69
729.264	1851.71
729.45	1952.06
729.636	1933.62
729.823	1999.16
730.009	1890.62
730.195	1831.23
730.382	1956.15
730.568	1876.28
730.754	1800.51
730.94	1974.58
731.126	1863.99
731.313	1847.61
731.499	1825.08
731.685	1800.51
731.871	1843.51
732.057	1892.66
732.243	1913.14
732.429	1958.2
732.615	1818.94
732.801	1945.91
732.987	1970.49
733.173	1917.24
733.359	1950.01
733.545	1917.24
733.731	1810.75
733.917	1872.18
734.103	1880.38
734.289	1831.23
734.475	1866.04
734.661	1929.53
734.847	1816.89
735.033	1896.76
735.219	1851.71
735.404	1855.8
735.59	1749.31
735.776	1880.38
735.962	1892.66
736.148	1960.25
736.333	1825.08
736.519	1792.31
736.705	1773.88
736.89	1966.39
737.076	1888.57
737.262	1767.74
737.447	1874.23
737.633	1765.69
737.819	1800.51
738.004	1825.08
738.19	1775.93
738.375	1882.42
738.561	1870.14
738.747	1786.17
738.932	1866.04
739.118	1757.5
739.303	1947.96
739.489	1892.66
739.674	1818.94
739.859	1741.11
740.045	1722.68
740.23	1857.85
740.416	1782.07
740.601	1831.23
740.786	1780.03
740.972	1794.36
741.157	1708.35
741.342	1759.55
741.528	1718.59
741.713	1773.88
741.898	1640.76
742.084	1739.07
742.269	1696.06
742.454	1800.51
742.639	1689.92
742.824	1694.01
743.01	1716.54
743.195	1683.77
743.38	1679.68
743.565	1665.34
743.75	1765.69
743.935	1655.1
744.12	1708.35
744.305	1538.37
744.49	1739.07
744.675	1564.99
744.86	1544.51
745.045	1653.05
745.23	1675.58
745.415	1628.48
745.6	1626.43
745.785	1546.56
745.97	1640.76
746.155	1642.81
746.34	1612.09
746.525	1593.66
746.71	1562.94
746.895	1573.18
747.079	1554.75
747.264	1433.92
747.449	1495.36
747.634	1524.03
747.819	1485.12
748.003	1415.49
748.188	1487.17
748.373	1456.45
748.557	1456.45
748.742	1519.93
748.927	1390.91
749.111	1478.97
749.296	1415.49
749.481	1503.55
749.665	1513.79
749.85	1483.07
750.034	1489.21
750.219	1374.53
750.404	1339.71
750.588	1345.86
750.773	1329.47
750.957	1376.58
751.141	1366.34
751.326	1337.66
751.51	1364.29
751.695	1306.95
751.879	1280.32
752.064	1323.33
752.248	1319.23
752.432	1374.53
752.617	1329.47
752.801	1169.73
752.985	1343.81
753.17	1372.48
753.354	1259.84
753.538	1335.62
753.722	1102.15
753.907	1286.47
754.091	1104.2
754.275	1149.25
754.459	1225.03
754.643	1186.12
754.828	1145.16
755.012	1233.22
755.196	1202.5
755.38	1130.82
755.564	1167.68
755.748	1184.07
755.932	1208.64
756.116	1071.43
756.3	1171.78
756.484	1098.05
756.668	1110.34
756.852	1034.57
757.036	1100.1
757.22	1024.33
757.404	1061.19
757.588	1024.33
757.772	1057.09
757.956	1014.09
758.14	1053
758.323	1005.89
758.507	1055.05
758.691	1139.01
758.875	1098.05
759.059	995.65
759.242	979.27
759.426	1005.89
759.61	979.27
759.794	1069.38
759.977	1030.47
760.161	1093.96
760.345	1046.85
760.528	979.27
760.712	956.74
760.895	962.89
761.079	883.02
761.263	911.69
761.446	962.89
761.63	1003.85
761.813	942.41
761.997	866.63
762.18	897.35
762.364	913.74
762.547	844.1
762.731	880.97
762.914	797
763.098	901.45
763.281	923.98
763.464	872.78
763.648	833.86
763.831	893.26
764.015	880.97
764.198	899.4
764.381	850.25
764.564	848.2
764.748	938.31
764.931	823.62
765.114	864.58
765.297	837.96
765.481	749.9
765.664	778.57
765.847	774.47
766.03	790.86
766.213	803.15
766.397	840.01
766.58	733.51
766.763	850.25
766.946	768.33
767.129	790.86
767.312	766.28
767.495	805.19
767.678	766.28
767.861	809.29
768.044	780.62
768.227	883.02
768.41	807.24
768.593	833.86
768.776	776.52
768.959	749.9
769.142	725.32
769.324	751.95
769.507	727.37
769.69	747.85
769.873	670.03
770.056	817.48
770.239	735.56
770.421	680.27
770.604	762.19
770.787	735.56
770.97	717.13
771.152	700.75
771.335	696.65
771.518	704.84
771.7	768.33
771.883	749.9
772.066	667.98
772.248	651.6
772.431	680.27
772.613	641.36
772.796	627.02
772.978	667.98
773.161	657.74
773.343	620.88
773.526	643.4
773.708	692.55
773.891	647.5
774.073	719.18
774.256	684.36
774.438	702.79
774.621	555.34
774.803	620.88
774.985	596.3
775.168	618.83
775.35	610.64
775.532	586.06
775.715	569.68
775.897	563.53
776.079	545.1
776.261	573.77
776.444	475.47
776.626	641.36
776.808	553.29
776.99	627.02
777.173	610.64
777.355	565.58
777.537	577.87
777.719	604.49
777.901	520.53
778.083	541.01
778.265	504.14
778.447	618.83
778.629	461.13
778.811	545.1
778.993	532.81
779.175	555.34
779.357	459.09
779.539	432.46
779.721	522.57
779.903	487.76
780.085	432.46
780.267	563.53
780.449	463.18
780.631	498
780.812	520.53
780.994	438.61
781.176	475.47
781.358	430.41
781.54	411.98
781.721	467.28
781.903	442.7
782.085	356.69
782.267	422.22
782.448	448.85
782.63	512.33
782.812	438.61
782.993	430.41
783.175	512.33
783.357	414.03
783.538	409.94
783.72	375.12
783.901	479.57
784.083	430.41
784.264	504.14
784.446	391.5
784.627	358.74
784.809	416.08
784.99	356.69
785.172	405.84
785.353	332.11
785.535	377.17
785.716	438.61
785.897	360.78
786.079	420.17
786.26	397.65
786.441	346.45
786.623	303.44
786.804	315.73
786.985	356.69
787.167	440.65
787.348	332.11
787.529	377.17
787.71	414.03
787.891	358.74
788.073	366.93
788.254	381.26
788.435	317.78
788.616	332.11
788.797	385.36
788.978	262.48
789.159	315.73
789.34	213.33
789.522	225.62
789.703	276.82
789.884	293.2
790.065	299.34
790.246	371.02
790.427	233.81
790.607	444.75
790.788	323.92
790.969	299.34
791.15	303.44
791.331	194.9
791.512	274.77
791.693	262.48
791.874	301.39
792.054	373.07
792.235	334.16
792.416	325.97
792.597	303.44
792.778	342.35
792.958	309.58
793.139	260.43
793.32	295.25
793.5	311.63
793.681	354.64
793.862	323.92
794.042	348.5
794.223	282.96
794.404	266.58
794.584	262.48
794.765	242
794.945	287.06
795.126	217.43
795.306	203.09
795.487	219.47
795.667	262.48
795.848	250.19
796.028	299.34
796.209	196.95
796.389	246.1
796.57	272.72
796.75	309.58
796.93	252.24
797.111	201.04
797.291	264.53
797.471	285.01
797.652	217.43
797.832	244.05
798.012	209.23
798.192	196.95
798.373	184.66
798.553	227.67
798.733	235.86
798.913	209.23
799.093	194.9
799.274	172.37
799.454	328.02
799.634	250.19
799.814	268.63
799.994	196.95
800.174	248.15
800.354	266.58
800.534	201.04
800.714	176.47
800.894	217.43
801.074	190.8
801.254	145.75
801.434	252.24
801.614	184.66
801.794	188.75
801.974	778.57
802.154	266.58
802.334	198.99
802.514	176.47
802.693	260.43
802.873	188.75
803.053	133.46
803.233	135.51
803.413	194.9
803.592	182.61
803.772	176.47
803.952	196.95
804.131	194.9
804.311	172.37
804.491	291.15
804.67	170.32
804.85	192.85
805.03	170.32
805.209	186.71
805.389	178.51
805.568	201.04
805.748	219.47
805.928	184.66
806.107	270.67
806.287	207.19
806.466	143.7
806.646	184.66
806.825	170.32
807.004	168.27
807.184	149.84
807.363	227.67
807.543	176.47
807.722	194.9
807.901	170.32
808.081	209.23
808.26	82.26
808.439	153.94
808.619	194.9
808.798	127.32
808.977	184.66
809.156	250.19
809.336	180.56
809.515	141.65
809.694	149.84
809.873	115.03
810.052	129.36
810.231	162.13
810.411	160.08
810.59	201.04
810.769	131.41
810.948	209.23
811.127	184.66
811.306	188.75
811.485	139.6
811.664	219.47
811.843	151.89
812.022	119.12
812.201	129.36
812.38	123.22
812.559	119.12
812.737	201.04
812.916	143.7
813.095	160.08
813.274	192.85
813.453	139.6
813.632	172.37
813.811	209.23
813.989	115.03
814.168	176.47
814.347	176.47
814.526	211.28
814.704	137.56
814.883	176.47
815.062	135.51
815.24	176.47
815.419	47.44
815.598	162.13
815.776	121.17
815.955	98.64
816.133	69.97
816.312	151.89
816.49	190.8
816.669	96.6
816.847	168.27
817.026	158.03
817.204	125.27
817.383	143.7
817.561	127.32
817.74	127.32
817.918	221.52
818.097	123.22
818.275	172.37
818.453	137.56
818.632	180.56
818.81	106.84
818.988	129.36
819.167	147.8
819.345	94.55
819.523	127.32
819.701	115.03
819.879	119.12
820.058	176.47
820.236	180.56
820.414	153.94
820.592	127.32
820.77	170.32
820.948	86.36
821.127	86.36
821.305	196.95
821.483	121.17
821.661	129.36
821.839	115.03
822.017	119.12
822.195	55.64
822.373	147.8
822.551	205.14
822.729	190.8
822.907	106.84
823.085	119.12
823.262	74.07
823.44	106.84
823.618	78.16
823.796	119.12
823.974	96.6
824.152	94.55
824.329	88.4
824.507	184.66
824.685	47.44
824.863	69.97
825.04	53.59
825.218	119.12
825.396	84.31
825.574	110.93
825.751	57.68
825.929	100.69
826.107	61.78
826.284	145.75
826.462	106.84
826.639	80.21
826.817	55.64
826.994	135.51
827.172	119.12
827.349	168.27
827.527	162.13
827.704	112.98
827.882	164.18
828.059	47.44
828.237	123.22
828.414	119.12
828.591	55.64
828.769	141.65
828.946	84.31
829.124	112.98
829.301	164.18
829.478	49.49
829.655	67.92
829.833	143.7
830.01	53.59
830.187	119.12
830.364	78.16
830.542	37.2
830.719	74.07
830.896	162.13
831.073	108.88
831.25	69.97
831.427	127.32
831.604	112.98
831.782	-5.8
831.959	78.16
832.136	67.92
832.313	129.36
832.49	78.16
832.667	49.49
832.844	84.31
833.021	110.93
833.198	22.87
833.374	98.64
833.551	65.88
833.728	63.83
833.905	88.4
834.082	104.79
834.259	127.32
834.436	131.41
834.612	47.44
834.789	96.6
834.966	61.78
835.143	63.83
835.319	92.5
835.496	90.45
835.673	61.78
835.85	72.02
836.026	65.88
836.203	78.16
836.38	31.06
836.556	184.66
836.733	43.35
836.909	164.18
837.086	115.03
837.262	80.21
837.439	51.54
837.616	51.54
837.792	29.01
837.968	143.7
838.145	24.92
838.321	43.35
838.498	92.5
838.674	102.74
838.851	61.78
839.027	90.45
839.203	72.02
839.38	158.03
839.556	14.68
839.732	115.03
839.909	61.78
840.085	119.12
840.261	61.78
840.437	86.36
840.614	98.64
840.79	29.01
840.966	119.12
841.142	153.94
841.318	22.87
841.494	57.68
841.671	80.21
841.847	69.97
842.023	45.4
842.199	127.32
842.375	65.88
842.551	12.63
842.727	-3.75
842.903	61.78
843.079	37.2
843.255	88.4
843.431	74.07
843.607	69.97
843.783	69.97
843.959	47.44
844.134	86.36
844.31	82.26
844.486	-18.09
844.662	-5.8
844.838	76.12
845.013	96.6
845.189	100.69
845.365	53.59
845.541	72.02
845.716	80.21
845.892	135.51
846.068	115.03
846.244	49.49
846.419	65.88
846.595	-30.38
846.77	45.4
846.946	55.64
847.122	29.01
847.297	-13.99
847.473	102.74
847.648	37.2
847.824	94.55
847.999	61.78
848.175	35.16
848.35	53.59
848.526	78.16
848.701	129.36
848.876	102.74
849.052	94.55
849.227	37.2
849.403	67.92
849.578	98.64
849.753	33.11
849.929	37.2
850.104	2.39
850.279	86.36
850.454	31.06
850.63	110.93
850.805	63.83
850.98	98.64
851.155	-20.14
851.33	80.21
851.505	102.74
851.681	49.49
851.856	39.25
852.031	69.97
852.206	47.44
852.381	-11.95
852.556	80.21
852.731	74.07
852.906	-18.09
853.081	82.26
853.256	69.97
853.431	33.11
853.606	49.49
853.781	-16.04
853.956	-20.14
854.131	10.58
854.305	65.88
854.48	69.97
854.655	-11.95
854.83	47.44
855.005	51.54
855.18	82.26
855.354	76.12
855.529	57.68
855.704	20.82
855.879	37.2
856.053	49.49
856.228	45.4
856.403	14.68
856.577	-26.28
856.752	-11.95
856.926	45.4
857.101	4.44
857.276	78.16
857.45	45.4
857.625	55.64
857.799	53.59
857.974	76.12
858.148	22.87
858.323	-5.8
858.497	-20.14
858.672	18.77
858.846	24.92
859.02	53.59
859.195	41.3
859.369	45.4
859.543	53.59
859.718	49.49
859.892	69.97
860.066	112.98
860.241	31.06
860.415	-36.52
860.589	39.25
860.763	20.82
860.938	59.73
861.112	22.87
861.286	61.78
861.46	6.49
861.634	74.07
861.808	33.11
861.982	-13.99
862.157	-28.33
862.331	16.73
862.505	-20.14
862.679	37.2
862.853	80.21
863.027	-7.85
863.201	37.2
863.375	-20.14
863.549	53.59
863.722	18.77
863.896	16.73
864.07	59.73
864.244	12.63
864.418	37.2
864.592	104.79
864.766	88.4
864.939	127.32
865.113	-3.75
865.287	45.4
865.461	-1.71
865.634	106.84
865.808	69.97
865.982	55.64
866.156	-20.14
866.329	-36.52
866.503	80.21
866.676	69.97
866.85	59.73
867.024	-7.85
867.197	80.21
867.371	63.83
867.544	49.49
867.718	-16.04
867.891	78.16
868.065	16.73
868.238	53.59
868.412	137.56
868.585	22.87
868.759	-3.75
868.932	10.58
869.105	96.6
869.279	41.3
869.452	78.16
869.625	80.21
869.799	16.73
869.972	16.73
870.145	102.74
870.319	90.45
870.492	24.92
870.665	-26.28
870.838	24.92
871.011	-7.85
871.185	47.44
871.358	-7.85
871.531	106.84
871.704	4.44
871.877	47.44
872.05	24.92
872.223	-3.75
872.396	49.49
872.569	78.16
872.742	-40.62
872.915	69.97
873.088	-9.9
873.261	47.44
873.434	112.98
873.607	-3.75
873.78	22.87
873.953	82.26
874.126	55.64
874.299	22.87
874.471	-34.47
874.644	65.88
874.817	110.93
874.99	39.25
875.163	29.01
875.335	86.36
875.508	-1.71
875.681	55.64
875.853	59.73
876.026	-3.75
876.199	74.07
876.371	45.4
876.544	74.07
876.717	55.64
876.889	0.34
877.062	86.36
877.234	-28.33
877.407	26.96
877.579	-7.85
877.752	45.4
877.924	16.73
878.097	43.35
878.269	4.44
878.442	53.59
878.614	8.53
878.786	61.78
878.959	72.02
879.131	90.45
879.303	35.16
879.476	4.44
879.648	102.74
879.82	-36.52
879.993	24.92
880.165	20.82
880.337	4.44
880.509	12.63
880.681	37.2
880.854	45.4
881.026	37.2
881.198	65.88
881.37	-3.75
881.542	33.11
881.714	4.44
881.886	22.87
882.058	43.35
882.23	-1.71
882.402	18.77
882.574	112.98
882.746	137.56
882.918	90.45
883.09	69.97
883.262	35.16
883.434	12.63
883.606	16.73
883.778	-13.99
883.95	139.6
884.122	90.45
884.293	-20.14
884.465	4.44
884.637	59.73
884.809	41.3
884.98	37.2
885.152	-3.75
885.324	45.4
885.496	-28.33
885.667	55.64
885.839	-5.8
886.011	45.4
886.182	65.88
886.354	72.02
886.525	-36.52
886.697	37.2
886.869	-9.9
887.04	53.59
887.212	33.11
887.383	12.63
887.555	8.53
887.726	-18.09
887.897	-75.43
888.069	53.59
888.24	51.54
888.412	37.2
888.583	12.63
888.754	57.68
888.926	6.49
889.097	33.11
889.268	-52.91
889.44	22.87
889.611	55.64
889.782	45.4
889.953	55.64
890.125	69.97
890.296	-20.14
890.467	74.07
890.638	-61.1
890.809	10.58
890.98	-16.04
891.151	41.3
891.323	92.5
891.494	12.63
891.665	119.12
891.836	63.83
892.007	49.49
892.178	4.44
892.349	135.51
892.52	53.59
892.691	57.68
892.862	29.01
893.032	49.49
893.203	123.22
893.374	-18.09
893.545	41.3
893.716	-13.99
893.887	6.49
894.057	20.82
894.228	14.68
894.399	-108.2
894.57	31.06
894.74	33.11
894.911	67.92
895.082	63.83
895.253	61.78
895.423	45.4
895.594	49.49
895.764	29.01
895.935	-28.33
896.106	39.25
896.276	31.06
896.447	16.73
896.617	18.77
896.788	45.4
896.958	4.44
897.129	35.16
897.299	8.53
897.47	4.44
897.64	22.87
897.81	-65.19
897.981	20.82
898.151	6.49
898.322	4.44
898.492	49.49
898.662	2.39
898.832	29.01
899.003	55.64
899.173	8.53
899.343	-36.52
899.513	53.59
