Data from USB4F104151__298__14-24-00-531.txt Node

Date: Thu Mar 13 14:24:00 EDT 2025
User: louis
Spectrometer: USB4F10415
Trigger mode: 4
Integration Time (sec): 2.000000E-2
Scans to average: 1
Electric dark correction enabled: true
Nonlinearity correction enabled: false
Boxcar width: 0
XAxis mode: Wavelengths
Number of Pixels in Spectrum: 3648
>>>>>Begin Spectral Data<<<<<
178.204	-127.66
178.424	-127.66
178.644	-127.66
178.864	-141.99
179.084	-107.18
179.304	-25.26
179.524	-17.07
179.744	1.37
179.964	-8.87
180.184	-19.11
180.404	-43.69
180.624	48.47
180.844	38.23
181.064	-17.07
181.283	21.85
181.503	-17.07
181.723	38.23
181.943	-15.02
182.163	58.71
182.383	-2.73
182.602	62.8
182.822	58.71
183.042	34.13
183.262	-8.87
183.482	48.47
183.701	5.46
183.921	5.46
184.141	-62.12
184.361	7.51
184.58	3.41
184.8	23.89
185.02	58.71
185.239	1.37
185.459	34.13
185.679	56.66
185.898	-19.11
186.118	87.38
186.338	30.04
186.557	40.28
186.777	-39.59
186.997	17.75
187.216	34.13
187.436	42.32
187.655	-49.83
187.875	-8.87
188.095	42.32
188.314	99.67
188.534	64.85
188.753	23.89
188.973	-2.73
189.192	107.86
189.412	-0.68
189.631	42.32
189.851	-27.31
190.07	62.8
190.29	-10.92
190.509	23.89
190.729	-39.59
190.948	50.52
191.168	157.01
191.387	87.38
191.607	-29.35
191.826	34.13
192.045	-0.68
192.265	15.7
192.484	15.7
192.704	77.14
192.923	-27.31
193.142	46.42
193.362	9.56
193.581	34.13
193.8	93.52
194.02	56.66
194.239	79.19
194.458	40.28
194.678	77.14
194.897	-0.68
195.116	142.68
195.335	23.89
195.555	95.57
195.774	54.61
195.993	-8.87
196.212	5.46
196.432	15.7
196.651	34.13
196.87	-10.92
197.089	111.96
197.308	30.04
197.528	79.19
197.747	-41.64
197.966	-31.4
198.185	130.39
198.404	81.24
198.623	107.86
198.842	-0.68
199.062	17.75
199.281	-27.31
199.5	-41.64
199.719	79.19
199.938	46.42
200.157	83.28
200.376	50.52
200.595	7.51
200.814	-2.73
201.033	38.23
201.252	44.37
201.471	-8.87
201.69	140.63
201.909	-2.73
202.128	38.23
202.347	38.23
202.566	-58.03
202.785	32.08
203.004	-12.97
203.223	25.94
203.442	46.42
203.661	79.19
203.879	56.66
204.098	25.94
204.317	-17.07
204.536	54.61
204.755	116.05
204.974	36.18
205.193	11.61
205.411	122.2
205.63	23.89
205.849	27.99
206.068	54.61
206.287	34.13
206.505	46.42
206.724	54.61
206.943	73.04
207.162	42.32
207.381	-17.07
207.599	38.23
207.818	71
208.037	46.42
208.255	-60.07
208.474	1.37
208.693	40.28
208.911	-23.21
209.13	52.56
209.349	21.85
209.567	-19.11
209.786	1.37
210.005	38.23
210.223	-41.64
210.442	-31.4
210.661	13.65
210.879	46.42
211.098	79.19
211.316	95.57
211.535	30.04
211.753	-6.83
211.972	9.56
212.191	13.65
212.409	25.94
212.628	73.04
212.846	73.04
213.065	42.32
213.283	66.9
213.502	-17.07
213.72	1.37
213.938	5.46
214.157	-19.11
214.375	48.47
214.594	40.28
214.812	71
215.031	7.51
215.249	-8.87
215.467	30.04
215.686	38.23
215.904	44.37
216.122	40.28
216.341	58.71
216.559	62.8
216.778	54.61
216.996	5.46
217.214	56.66
217.432	-10.92
217.651	38.23
217.869	46.42
218.087	42.32
218.306	-17.07
218.524	60.76
218.742	5.46
218.96	-10.92
219.179	1.37
219.397	62.8
219.615	79.19
219.833	40.28
220.051	-51.88
220.27	56.66
220.488	95.57
220.706	97.62
220.924	56.66
221.142	46.42
221.36	30.04
221.578	46.42
221.796	97.62
222.015	13.65
222.233	79.19
222.451	34.13
222.669	-31.4
222.887	62.8
223.105	3.41
223.323	15.7
223.541	-23.21
223.759	13.65
223.977	-10.92
224.195	38.23
224.413	-51.88
224.631	34.13
224.849	23.89
225.067	21.85
225.285	-0.68
225.503	-10.92
225.721	9.56
225.939	-80.55
226.157	-0.68
226.375	81.24
226.592	-41.64
226.81	68.95
227.028	21.85
227.246	11.61
227.464	-8.87
227.682	-2.73
227.9	36.18
228.117	13.65
228.335	-31.4
228.553	32.08
228.771	-8.87
228.989	-4.78
229.206	50.52
229.424	34.13
229.642	83.28
229.86	21.85
230.077	120.15
230.295	54.61
230.513	120.15
230.731	1.37
230.948	-0.68
231.166	5.46
231.384	-19.11
231.601	66.9
231.819	97.62
232.037	50.52
232.254	7.51
232.472	48.47
232.689	-17.07
232.907	50.52
233.125	5.46
233.342	38.23
233.56	27.99
233.777	58.71
233.995	38.23
234.213	105.81
234.43	40.28
234.648	54.61
234.865	13.65
235.083	52.56
235.3	62.8
235.518	-8.87
235.735	42.32
235.953	97.62
236.17	5.46
236.388	15.7
236.605	-19.11
236.822	81.24
237.04	21.85
237.257	36.18
237.475	21.85
237.692	130.39
237.909	9.56
238.127	97.62
238.344	13.65
238.562	50.52
238.779	-10.92
238.996	-51.88
239.214	34.13
239.431	66.9
239.648	-23.21
239.865	83.28
240.083	15.7
240.3	21.85
240.517	91.48
240.735	44.37
240.952	-27.31
241.169	85.33
241.386	85.33
241.603	60.76
241.821	38.23
242.038	66.9
242.255	79.19
242.472	-35.5
242.689	83.28
242.907	62.8
243.124	62.8
243.341	23.89
243.558	-25.26
243.775	-39.59
243.992	-0.68
244.209	38.23
244.426	38.23
244.643	30.04
244.86	13.65
245.078	13.65
245.295	23.89
245.512	30.04
245.729	32.08
245.946	42.32
246.163	48.47
246.38	95.57
246.597	79.19
246.814	13.65
247.031	21.85
247.248	52.56
247.464	-0.68
247.681	71
247.898	56.66
248.115	50.52
248.332	17.75
248.549	25.94
248.766	54.61
248.983	71
249.2	34.13
249.417	50.52
249.633	-27.31
249.85	48.47
250.067	-6.83
250.284	58.71
250.501	83.28
250.717	93.52
250.934	62.8
251.151	-23.21
251.368	-6.83
251.585	13.65
251.801	17.75
252.018	34.13
252.235	48.47
252.451	-6.83
252.668	-2.73
252.885	62.8
253.102	17.75
253.318	25.94
253.535	50.52
253.752	-10.92
253.968	50.52
254.185	-23.21
254.401	62.8
254.618	-8.87
254.835	-17.07
255.051	46.42
255.268	21.85
255.484	97.62
255.701	138.58
255.917	111.96
256.134	48.47
256.351	21.85
256.567	-43.69
256.784	52.56
257	-113.32
257.217	130.39
257.433	30.04
257.65	13.65
257.866	62.8
258.082	-39.59
258.299	-8.87
258.515	7.51
258.732	23.89
258.948	36.18
259.165	-29.35
259.381	97.62
259.597	50.52
259.814	48.47
260.03	38.23
260.246	91.48
260.463	-17.07
260.679	15.7
260.895	5.46
261.112	21.85
261.328	5.46
261.544	68.95
261.761	111.96
261.977	-43.69
262.193	-43.69
262.409	77.14
262.626	-39.59
262.842	9.56
263.058	-60.07
263.274	46.42
263.49	87.38
263.707	15.7
263.923	73.04
264.139	-25.26
264.355	50.52
264.571	95.57
264.787	19.8
265.004	38.23
265.22	25.94
265.436	58.71
265.652	30.04
265.868	-27.31
266.084	-47.79
266.3	-2.73
266.516	32.08
266.732	17.75
266.948	-15.02
267.164	34.13
267.38	25.94
267.596	30.04
267.812	93.52
268.028	83.28
268.244	38.23
268.46	27.99
268.676	50.52
268.892	-17.07
269.108	71
269.324	-80.55
269.54	-4.78
269.756	83.28
269.972	56.66
270.188	13.65
270.403	83.28
270.619	89.43
270.835	46.42
271.051	42.32
271.267	38.23
271.483	-8.87
271.698	54.61
271.914	79.19
272.13	-25.26
272.346	75.09
272.562	21.85
272.777	7.51
272.993	-23.21
273.209	25.94
273.425	15.7
273.64	30.04
273.856	79.19
274.072	7.51
274.287	21.85
274.503	11.61
274.719	77.14
274.934	83.28
275.15	30.04
275.366	-27.31
275.581	-23.21
275.797	38.23
276.012	15.7
276.228	15.7
276.444	54.61
276.659	38.23
276.875	21.85
277.09	62.8
277.306	-19.11
277.521	25.94
277.737	30.04
277.952	114
278.168	-8.87
278.383	30.04
278.599	62.8
278.814	56.66
279.03	7.51
279.245	75.09
279.461	58.71
279.676	30.04
279.892	-0.68
280.107	89.43
280.322	58.71
280.538	13.65
280.753	25.94
280.969	13.65
281.184	34.13
281.399	-2.73
281.615	15.7
281.83	62.8
282.045	34.13
282.26	7.51
282.476	-15.02
282.691	-27.31
282.906	27.99
283.122	42.32
283.337	46.42
283.552	107.86
283.767	71
283.983	21.85
284.198	19.8
284.413	13.65
284.628	9.56
284.843	42.32
285.058	73.04
285.274	34.13
285.489	-8.87
285.704	54.61
285.919	17.75
286.134	7.51
286.349	32.08
286.564	46.42
286.779	75.09
286.995	46.42
287.21	-74.41
287.425	81.24
287.64	40.28
287.855	79.19
288.07	40.28
288.285	85.33
288.5	23.89
288.715	38.23
288.93	7.51
289.145	56.66
289.36	9.56
289.575	30.04
289.79	25.94
290.004	40.28
290.219	95.57
290.434	46.42
290.649	79.19
290.864	7.51
291.079	-25.26
291.294	9.56
291.509	56.66
291.724	-0.68
291.938	-27.31
292.153	15.7
292.368	71
292.583	-35.5
292.798	50.52
293.012	56.66
293.227	27.99
293.442	87.38
293.657	3.41
293.871	116.05
294.086	79.19
294.301	122.2
294.516	-2.73
294.73	-19.11
294.945	54.61
295.16	58.71
295.374	38.23
295.589	83.28
295.804	15.7
296.018	-33.45
296.233	71
296.447	64.85
296.662	27.99
296.877	75.09
297.091	34.13
297.306	42.32
297.52	-43.69
297.735	75.09
297.949	17.75
298.164	46.42
298.378	58.71
298.593	-17.07
298.807	30.04
299.022	-2.73
299.236	23.89
299.451	46.42
299.665	46.42
299.88	50.52
300.094	38.23
300.309	79.19
300.523	136.53
300.737	-51.88
300.952	105.81
301.166	-12.97
301.381	79.19
301.595	38.23
301.809	34.13
302.024	81.24
302.238	-2.73
302.452	66.9
302.667	38.23
302.881	66.9
303.095	56.66
303.309	66.9
303.524	38.23
303.738	-2.73
303.952	-27.31
304.166	44.37
304.381	60.76
304.595	30.04
304.809	83.28
305.023	21.85
305.237	13.65
305.452	46.42
305.666	48.47
305.88	32.08
306.094	44.37
306.308	56.66
306.522	13.65
306.736	48.47
306.95	38.23
307.164	71
307.379	62.8
307.593	50.52
307.807	79.19
308.021	56.66
308.235	-10.92
308.449	50.52
308.663	17.75
308.877	124.24
309.091	73.04
309.305	23.89
309.519	30.04
309.733	19.8
309.947	-58.03
310.161	64.85
310.374	32.08
310.588	-15.02
310.802	50.52
311.016	-39.59
311.23	30.04
311.444	62.8
311.658	5.46
311.872	46.42
312.085	56.66
312.299	62.8
312.513	77.14
312.727	-47.79
312.941	40.28
313.154	-33.45
313.368	-27.31
313.582	56.66
313.796	30.04
314.009	-12.97
314.223	21.85
314.437	23.89
314.651	87.38
314.864	-35.5
315.078	71
315.292	30.04
315.505	30.04
315.719	46.42
315.933	48.47
316.146	-8.87
316.36	38.23
316.573	46.42
316.787	21.85
317.001	46.42
317.214	11.61
317.428	-4.78
317.641	-2.73
317.855	13.65
318.068	30.04
318.282	9.56
318.495	87.38
318.709	25.94
318.922	15.7
319.136	103.76
319.349	-35.5
319.563	-0.68
319.776	21.85
319.99	7.51
320.203	23.89
320.417	99.67
320.63	79.19
320.843	114
321.057	114
321.27	7.51
321.483	46.42
321.697	62.8
321.91	91.48
322.124	144.72
322.337	30.04
322.55	-4.78
322.763	91.48
322.977	34.13
323.19	-41.64
323.403	56.66
323.617	40.28
323.83	5.46
324.043	-33.45
324.256	-2.73
324.469	30.04
324.683	73.04
324.896	42.32
325.109	-2.73
325.322	-10.92
325.535	138.58
325.748	32.08
325.962	52.56
326.175	64.85
326.388	38.23
326.601	95.57
326.814	-2.73
327.027	44.37
327.24	89.43
327.453	38.23
327.666	17.75
327.879	130.39
328.092	75.09
328.305	40.28
328.518	54.61
328.731	38.23
328.944	56.66
329.157	58.71
329.37	5.46
329.583	38.23
329.796	30.04
330.009	34.13
330.222	79.19
330.435	7.51
330.648	52.56
330.861	46.42
331.073	99.67
331.286	64.85
331.499	52.56
331.712	-33.45
331.925	36.18
332.138	101.72
332.35	75.09
332.563	40.28
332.776	-39.59
332.989	-23.21
333.202	-45.74
333.414	40.28
333.627	15.7
333.84	79.19
334.053	56.66
334.265	71
334.478	30.04
334.691	-8.87
334.903	-15.02
335.116	7.51
335.329	30.04
335.541	91.48
335.754	30.04
335.966	11.61
336.179	-47.79
336.392	62.8
336.604	34.13
336.817	75.09
337.029	56.66
337.242	40.28
337.454	-35.5
337.667	46.42
337.88	97.62
338.092	-29.35
338.305	-27.31
338.517	71
338.729	62.8
338.942	21.85
339.154	7.51
339.367	-6.83
339.579	99.67
339.792	21.85
340.004	-25.26
340.217	1.37
340.429	62.8
340.641	68.95
340.854	71
341.066	62.8
341.278	50.52
341.491	64.85
341.703	23.89
341.915	30.04
342.128	68.95
342.34	-15.02
342.552	71
342.764	79.19
342.977	5.46
343.189	79.19
343.401	19.8
343.613	-19.11
343.826	40.28
344.038	-25.26
344.25	-17.07
344.462	-10.92
344.674	79.19
344.886	66.9
345.099	5.46
345.311	9.56
345.523	46.42
345.735	23.89
345.947	23.89
346.159	103.76
346.371	99.67
346.583	-68.27
346.795	116.05
347.007	54.61
347.219	128.34
347.431	103.76
347.643	124.24
347.855	-66.22
348.067	46.42
348.279	15.7
348.491	25.94
348.703	46.42
348.915	-39.59
349.127	7.51
349.339	32.08
349.551	23.89
349.763	19.8
349.975	48.47
350.187	56.66
350.399	173.39
350.61	116.05
350.822	7.51
351.034	99.67
351.246	-15.02
351.458	97.62
351.669	-6.83
351.881	23.89
352.093	79.19
352.305	71
352.517	71
352.728	15.7
352.94	9.56
353.152	105.81
353.363	9.56
353.575	64.85
353.787	83.28
353.999	111.96
354.21	79.19
354.422	46.42
354.633	7.51
354.845	34.13
355.057	-23.21
355.268	1.37
355.48	13.65
355.692	-23.21
355.903	-6.83
356.115	17.75
356.326	-51.88
356.538	27.99
356.749	97.62
356.961	-6.83
357.172	50.52
357.384	-43.69
357.595	15.7
357.807	30.04
358.018	46.42
358.23	21.85
358.441	62.8
358.653	46.42
358.864	71
359.075	54.61
359.287	62.8
359.498	-19.11
359.709	40.28
359.921	21.85
360.132	89.43
360.344	93.52
360.555	46.42
360.766	50.52
360.977	34.13
361.189	60.76
361.4	5.46
361.611	56.66
361.823	75.09
362.034	32.08
362.245	71
362.456	38.23
362.667	52.56
362.879	-19.11
363.09	32.08
363.301	23.89
363.512	17.75
363.723	21.85
363.935	1.37
364.146	99.67
364.357	-15.02
364.568	109.91
364.779	71
364.99	3.41
365.201	85.33
365.412	114
365.623	7.51
365.834	62.8
366.045	-19.11
366.256	103.76
366.467	62.8
366.678	23.89
366.889	-4.78
367.1	44.37
367.311	68.95
367.522	48.47
367.733	73.04
367.944	79.19
368.155	30.04
368.366	87.38
368.577	38.23
368.788	124.24
368.999	118.1
369.209	58.71
369.42	54.61
369.631	62.8
369.842	81.24
370.053	7.51
370.264	71
370.474	40.28
370.685	23.89
370.896	25.94
371.107	75.09
371.317	25.94
371.528	34.13
371.739	107.86
371.95	56.66
372.16	-0.68
372.371	15.7
372.582	46.42
372.792	13.65
373.003	132.44
373.214	30.04
373.424	95.57
373.635	40.28
373.846	58.71
374.056	62.8
374.267	42.32
374.477	13.65
374.688	71
374.898	64.85
375.109	40.28
375.319	17.75
375.53	109.91
375.74	13.65
375.951	103.76
376.161	62.8
376.372	89.43
376.582	120.15
376.793	48.47
377.003	11.61
377.214	38.23
377.424	30.04
377.635	-35.5
377.845	40.28
378.055	25.94
378.266	-6.83
378.476	73.04
378.686	77.14
378.897	-25.26
379.107	9.56
379.317	5.46
379.528	30.04
379.738	87.38
379.948	5.46
380.158	71
380.369	17.75
380.579	60.76
380.789	23.89
380.999	62.8
381.21	95.57
381.42	40.28
381.63	42.32
381.84	118.1
382.05	83.28
382.261	21.85
382.471	103.76
382.681	50.52
382.891	62.8
383.101	75.09
383.311	-25.26
383.521	-19.11
383.731	124.24
383.941	34.13
384.151	87.38
384.361	120.15
384.571	103.76
384.781	21.85
384.991	56.66
385.201	79.19
385.411	62.8
385.621	27.99
385.831	38.23
386.041	46.42
386.251	42.32
386.461	75.09
386.671	58.71
386.881	56.66
387.091	75.09
387.301	42.32
387.511	64.85
387.72	122.2
387.93	95.57
388.14	-47.79
388.35	17.75
388.56	32.08
388.769	-8.87
388.979	-2.73
389.189	48.47
389.399	83.28
389.609	54.61
389.818	89.43
390.028	21.85
390.238	58.71
390.447	34.13
390.657	13.65
390.867	32.08
391.076	44.37
391.286	34.13
391.496	19.8
391.705	89.43
391.915	73.04
392.125	50.52
392.334	46.42
392.544	-29.35
392.753	52.56
392.963	46.42
393.172	44.37
393.382	15.7
393.591	107.86
393.801	32.08
394.01	99.67
394.22	120.15
394.429	38.23
394.639	-10.92
394.848	202.07
395.058	17.75
395.267	79.19
395.477	54.61
395.686	46.42
395.895	124.24
396.105	165.2
396.314	64.85
396.524	73.04
396.733	46.42
396.942	79.19
397.152	79.19
397.361	99.67
397.57	25.94
397.78	111.96
397.989	56.66
398.198	124.24
398.407	91.48
398.617	40.28
398.826	79.19
399.035	40.28
399.244	122.2
399.453	32.08
399.663	73.04
399.872	30.04
400.081	64.85
400.29	46.42
400.499	75.09
400.708	103.76
400.917	42.32
401.127	71
401.336	44.37
401.545	95.57
401.754	58.71
401.963	83.28
402.172	89.43
402.381	71
402.59	114
402.799	87.38
403.008	114
403.217	169.3
403.426	120.15
403.635	91.48
403.844	95.57
404.053	89.43
404.262	56.66
404.471	38.23
404.68	146.77
404.888	120.15
405.097	138.58
405.306	120.15
405.515	161.11
405.724	116.05
405.933	138.58
406.142	154.96
406.35	146.77
406.559	111.96
406.768	171.35
406.977	204.11
407.185	228.69
407.394	177.49
407.603	159.06
407.812	124.24
408.02	120.15
408.229	179.54
408.438	163.15
408.646	202.07
408.855	128.34
409.064	202.07
409.272	154.96
409.481	243.03
409.69	238.93
409.898	236.88
410.107	146.77
410.315	238.93
410.524	212.31
410.733	253.27
410.941	294.22
411.15	259.41
411.358	259.41
411.567	408.91
411.775	308.56
411.984	236.88
412.192	367.95
412.401	378.19
412.609	370
412.818	400.72
413.026	365.9
413.234	458.06
413.443	398.67
413.651	359.76
413.86	374.1
414.068	443.73
414.276	441.68
414.485	456.01
414.693	458.06
414.901	554.32
415.11	492.88
415.318	513.36
415.526	574.8
415.734	630.09
415.943	662.86
416.151	619.85
416.359	619.85
416.567	677.2
416.776	673.1
416.984	736.59
417.192	769.35
417.4	775.5
417.608	738.63
417.817	701.77
418.025	896.33
418.233	937.29
418.441	779.59
418.649	890.18
418.857	920.9
419.065	1029.45
419.273	963.91
419.481	988.49
419.689	976.2
419.897	1201.48
420.105	1215.81
420.313	1129.8
420.521	1250.63
420.729	1137.99
420.937	1248.58
421.145	1267.01
421.353	1422.66
421.561	1453.38
421.769	1594.69
421.977	1580.35
422.185	1559.87
422.393	1537.34
422.601	1760.57
422.809	1574.21
423.017	1768.76
423.224	1738.04
423.432	1842.49
423.64	1815.87
423.848	2024.76
424.056	1893.69
424.263	2090.29
424.471	2094.39
424.679	2125.11
424.887	2164.02
425.094	2381.11
425.302	2307.38
425.51	2368.82
425.718	2514.22
425.925	2456.88
426.133	2647.34
426.341	2716.97
426.548	2854.19
426.756	2880.81
426.964	2954.54
427.171	3036.45
427.379	3185.96
427.586	3239.2
427.794	3274.02
428.001	3499.3
428.209	3585.31
428.417	3552.54
428.624	3702.04
428.832	3835.16
429.039	3798.3
429.247	3773.72
429.454	4144.41
429.662	4302.1
429.869	4154.65
430.076	4463.89
430.284	4267.28
430.491	4570.38
430.699	4830.48
430.906	4769.04
431.114	4947.21
431.321	4932.87
431.528	5233.93
431.736	5293.32
431.943	5618.94
432.15	5405.95
432.358	5477.63
432.565	5903.61
432.772	5862.65
432.979	6044.92
433.187	6276.34
433.394	6116.6
433.601	6569.2
433.808	6687.98
434.016	6540.53
434.223	6726.89
434.43	7202.02
434.637	7189.74
434.844	7595.23
435.052	7781.6
435.259	7488.74
435.466	7783.65
435.673	7732.45
435.88	8152.28
436.087	8557.78
436.294	8711.38
436.501	8422.61
436.708	8631.51
436.915	8987.85
437.122	9288.9
437.329	9073.87
437.537	9458.89
437.743	9600.19
437.95	9573.57
438.157	10089.66
438.364	10337.46
438.571	10374.33
438.778	10484.92
438.985	11449.51
439.192	10970.29
439.399	11336.87
439.606	10984.62
439.813	11744.42
440.02	12379.29
440.227	12033.18
440.433	11910.3
440.64	12399.77
440.847	12336.28
441.054	12790.93
441.261	13417.61
441.467	13284.49
441.674	13733
441.881	13993.09
442.088	13929.6
442.294	13997.18
442.501	14185.6
442.708	14500.98
442.914	14992.5
443.121	15752.29
443.328	15268.97
443.534	16356.44
443.741	15889.51
443.948	15426.67
444.154	16852.05
444.361	16653.4
444.568	16860.24
444.774	16612.44
444.981	17192.01
445.187	17407.05
445.394	18400.32
445.6	18009.15
445.807	19745.83
446.013	18961.46
446.22	19196.98
446.426	19778.6
446.633	19993.64
446.839	20900.89
447.046	19731.5
447.252	20943.89
447.459	20818.97
447.665	20841.5
447.871	21736.46
448.078	22785.02
448.284	21718.03
448.491	22223.87
448.697	23071.73
448.903	23442.42
449.11	23499.76
449.316	23305.2
449.522	23907.3
449.728	24490.98
449.935	24329.19
450.141	24419.3
450.347	25138.13
450.553	23962.6
450.76	24265.7
450.966	25385.94
451.172	25138.13
451.378	25512.91
451.584	25162.71
451.791	25893.83
451.997	25768.91
452.203	26108.87
452.409	26295.24
452.615	26131.4
452.821	25058.26
453.027	25027.54
453.233	26260.42
453.44	25009.11
453.646	25691.09
453.852	25635.79
454.058	26020.81
454.264	25250.77
454.47	25738.19
454.676	24843.23
454.882	26069.96
455.088	23839.72
455.294	23991.27
455.5	24255.46
455.705	24722.4
455.911	23569.39
456.117	23370.74
456.323	22766.59
456.529	21763.08
456.735	22918.14
456.941	22197.25
457.147	21535.76
457.352	21310.48
457.558	21257.23
457.764	20810.78
457.97	20663.32
458.176	20042.79
458.381	20292.64
458.587	19190.83
458.793	19477.55
458.999	18291.77
459.204	19686.44
459.41	18994.23
459.616	17646.66
459.821	17894.47
460.027	17749.06
460.233	17316.94
460.438	16639.06
460.644	16847.96
460.85	15979.62
461.055	15608.94
461.261	15668.33
461.466	14580.85
461.672	13933.7
461.878	14939.25
462.083	13931.65
462.289	13747.33
462.494	13640.84
462.7	13161.61
462.905	12827.79
463.111	13241.48
463.316	13180.04
463.522	13022.35
463.727	12973.2
463.932	13034.64
464.138	12817.55
464.343	12817.55
464.549	12489.88
464.754	12811.41
464.959	12655.76
465.165	12526.74
465.37	12227.74
465.575	11955.36
465.781	12252.31
465.986	12307.61
466.191	11771.04
466.397	11705.51
466.602	11295.91
466.807	11455.65
467.012	11564.2
467.218	11429.03
467.423	11205.8
467.628	11246.76
467.833	12031.13
468.038	11547.81
468.244	11164.84
468.449	11502.76
468.654	11267.24
468.859	11187.37
469.064	11011.25
469.269	10658.99
469.474	10863.79
469.679	10925.23
469.885	10765.49
470.09	10775.73
470.295	10738.87
470.5	10333.37
470.705	10419.38
470.91	10419.38
471.115	10327.22
471.32	10343.61
471.525	10171.58
471.73	9901.25
471.935	9819.33
472.139	9729.22
472.344	9663.68
472.549	9680.07
472.754	9491.65
472.959	9331.91
473.164	9071.82
473.369	9092.3
473.574	9503.94
473.778	9280.71
473.983	9221.32
474.188	9213.13
474.393	8852.69
474.598	8934.6
474.802	8568.02
475.007	8473.81
475.212	8619.22
475.417	8459.48
475.621	8477.91
475.826	8387.8
476.031	8285.4
476.235	8148.18
476.44	8275.16
476.645	8131.8
476.849	8006.88
477.054	7828.7
477.259	7959.77
477.463	7804.13
477.668	7707.87
477.872	7822.56
478.077	7541.99
478.282	7443.68
478.486	7230.69
478.691	7406.82
478.895	7369.96
479.1	7263.46
479.304	7288.04
479.509	6884.59
479.713	7165.16
479.918	7011.56
480.122	6903.02
480.326	6997.23
480.531	7056.62
480.735	7066.86
480.94	7118.06
481.144	7116.01
481.348	6831.34
481.553	6900.97
481.757	6702.32
481.961	6870.25
482.166	6774
482.37	6886.64
482.574	6767.85
482.778	6837.49
482.983	6929.64
483.187	6751.47
483.391	6757.61
483.595	6702.32
483.8	6575.34
484.004	6767.85
484.208	6790.38
484.412	6673.65
484.616	6784.24
484.821	6726.89
485.025	6712.56
485.229	6642.93
485.433	6601.97
485.637	6780.14
485.841	6812.91
486.045	6804.72
486.249	6710.51
486.453	6520.05
486.657	6690.03
486.861	6782.19
487.065	6571.25
487.269	6626.54
487.473	6604.02
487.677	6839.53
487.881	6730.99
488.085	6604.02
488.289	6722.8
488.493	6694.13
488.697	6782.19
488.901	6726.89
489.105	6739.18
489.309	6784.24
489.512	6698.22
489.716	6814.96
489.92	6857.96
490.124	6761.71
490.328	6927.6
490.531	6771.95
490.735	6941.93
490.939	6933.74
491.143	6833.39
491.346	6839.53
491.55	6960.36
491.754	6868.2
491.958	7124.2
492.161	7019.75
492.365	6935.79
492.569	6935.79
492.772	6968.56
492.976	7079.15
493.18	7257.32
493.383	7353.57
493.587	7238.89
493.79	7240.93
493.994	7107.82
494.197	7320.81
494.401	7369.96
494.605	7288.04
494.808	7541.99
495.012	7478.5
495.215	7437.54
495.419	7750.88
495.622	7632.1
495.825	7750.88
496.029	7724.26
496.232	7935.2
496.436	7701.73
496.639	8049.88
496.843	7890.14
497.046	8230.1
497.249	8250.58
497.453	8330.45
497.656	8377.56
497.859	8457.43
498.063	8404.18
498.266	8651.99
498.469	8570.07
498.673	8707.28
498.876	8897.74
499.079	8889.55
499.282	9026.76
499.485	8969.42
499.689	9145.55
499.892	9123.02
500.095	9170.12
500.298	9524.42
500.501	9540.8
500.705	9622.72
500.908	9788.61
501.111	9917.63
501.314	9893.05
501.517	10212.54
501.72	10222.78
501.923	10165.43
502.126	10288.31
502.329	10427.57
502.532	10726.58
502.735	10663.09
502.938	10841.26
503.141	10771.63
503.344	11072.68
503.547	11261.1
503.75	11248.81
503.953	11373.74
504.156	11695.27
504.359	11615.4
504.562	11875.49
504.765	12018.85
504.968	12276.89
505.17	12276.89
505.373	12149.92
505.576	12547.22
505.779	12616.85
505.982	12661.91
506.185	12872.85
506.387	12866.7
506.59	13008.01
506.793	13350.03
506.996	13272.2
507.198	13874.31
507.401	13542.53
507.604	13704.32
507.807	14015.62
508.009	14154.88
508.212	14120.06
508.415	14398.59
508.617	14306.43
508.82	14599.29
509.022	14709.88
509.225	14986.35
509.428	14914.67
509.63	15320.17
509.833	15232.11
510.035	15412.33
510.238	15520.87
510.44	15840.36
510.643	15955.04
510.845	16237.66
511.048	16106.59
511.25	16405.6
511.453	16671.83
511.655	17017.94
511.858	17028.18
512.06	16862.29
512.262	16772.18
512.465	16919.64
512.667	17282.13
512.87	17460.3
513.072	17722.44
513.274	17919.04
513.477	18355.26
513.679	18152.51
513.881	18498.62
514.084	18588.73
514.286	18900.02
514.488	18799.67
514.69	19538.99
514.893	19459.12
515.095	19475.5
515.297	19522.6
515.499	19946.53
515.701	20136.99
515.904	20188.19
516.106	20145.19
516.308	20370.46
516.51	20970.52
516.712	20818.97
516.914	21060.63
517.116	21345.3
517.318	21197.84
517.52	21578.76
517.722	21724.17
517.925	22094.85
518.127	22232.07
518.329	22488.06
518.531	22262.79
518.733	22756.35
518.935	23069.69
519.136	22858.74
519.338	23116.79
519.54	23317.49
519.742	23749.61
519.944	23671.79
520.146	24065
520.348	23854.06
520.55	24062.95
520.752	24191.97
520.954	24966.1
521.155	24579.04
521.357	25363.41
521.559	25256.92
521.761	25695.18
521.963	25211.86
522.164	25734.09
522.366	25873.35
522.568	25842.63
522.77	26207.17
522.971	26631.1
523.173	26461.12
523.375	26932.15
523.576	26442.69
523.778	26700.73
523.98	26948.54
524.181	27147.19
524.383	27001.79
524.584	27567.02
524.786	27460.53
524.988	27524.02
525.189	27937.71
525.391	28203.94
525.592	28314.53
525.794	28257.19
525.995	28197.8
526.197	28582.82
526.398	28752.8
526.6	28801.95
526.801	29078.43
527.003	29186.97
527.204	29055.9
527.406	29289.37
527.607	29311.89
527.808	29428.63
528.01	29199.26
528.211	29514.64
528.412	30116.75
528.614	29588.37
528.815	29696.91
529.016	29977.48
529.218	29821.84
529.419	29825.93
529.62	30096.27
529.822	30227.34
530.023	30253.96
530.224	30360.45
530.425	30057.35
530.626	29711.25
530.828	29928.33
531.029	30440.32
531.23	29977.48
531.431	30432.13
531.632	30157.71
531.833	30419.85
532.035	30333.83
532.236	30507.91
532.437	30555.01
532.638	30548.87
532.839	30565.25
533.04	30565.25
533.241	30079.88
533.442	30976.89
533.643	30452.61
533.844	30514.05
534.045	30651.27
534.246	30509.96
534.447	30595.97
534.648	30591.87
534.849	30475.14
535.05	30409.61
535.251	30690.18
535.451	30618.5
535.652	30686.08
535.853	30571.39
536.054	30731.14
536.255	30608.26
536.456	30542.72
536.657	30911.36
536.857	30669.7
537.058	30800.77
537.259	30753.66
537.46	30770.05
537.66	30602.11
537.861	30772.1
538.062	30923.65
538.263	30671.75
538.463	30364.55
538.664	30636.93
538.865	30917.5
539.065	30790.53
539.266	30223.24
539.466	30903.17
539.667	30301.06
539.868	30862.21
540.068	30542.72
540.269	30215.05
540.469	30759.81
540.67	30458.76
540.87	30481.28
541.071	30415.75
541.271	30342.02
541.472	30192.52
541.672	30329.73
541.873	30159.75
542.073	30110.6
542.274	30657.41
542.474	30339.97
542.675	30114.7
542.875	30491.52
543.075	30374.79
543.276	29920.14
543.476	30645.12
543.676	30202.76
543.877	30456.71
544.077	30512
544.277	30307.21
544.478	30417.8
544.678	30213
544.878	30182.28
545.078	30268.3
545.279	30008.2
545.479	30145.42
545.679	30538.63
545.879	30196.62
546.079	30147.47
546.28	30155.66
546.48	29698.96
546.68	30421.89
546.88	30073.74
547.08	29922.19
547.28	30368.65
547.48	29897.61
547.68	29973.39
547.88	30026.64
548.081	30180.23
548.281	29766.54
548.481	30124.94
548.681	30425.99
548.881	30100.36
549.081	29707.15
549.28	30088.07
549.48	30409.61
549.68	30210.95
549.88	30464.9
550.08	29701.01
550.28	30110.6
550.48	29711.25
550.68	29957
550.88	29858.7
551.08	29924.24
551.279	30016.4
551.479	29715.34
551.679	29887.37
551.879	29883.28
552.079	30112.65
552.278	29838.22
552.478	29963.15
552.678	30038.92
552.878	29770.64
553.077	29664.14
553.277	29254.55
553.477	30106.51
553.676	29875.09
553.876	29799.31
554.076	29676.43
554.275	29711.25
554.475	29479.83
554.674	29789.07
554.874	29660.05
555.074	29723.54
555.273	29252.5
555.473	29741.97
555.672	29617.04
555.872	29801.36
556.071	29338.52
556.271	29817.74
556.47	29533.07
556.67	28922.78
556.869	29522.83
557.068	29535.12
557.268	29350.81
557.467	29535.12
557.667	29287.32
557.866	29373.33
558.065	29260.69
558.265	29215.64
558.464	29223.83
558.663	29500.31
558.863	28785.57
559.062	29399.96
559.261	28681.12
559.461	29313.94
559.66	28894.11
559.859	28885.92
560.058	28760.99
560.258	28898.2
560.457	28775.33
560.656	28959.64
560.855	28474.27
561.054	28953.5
561.253	28466.08
561.453	28588.96
561.652	28763.04
561.851	28613.54
562.05	28504.99
562.249	28257.19
562.448	28810.14
562.647	28500.9
562.846	28412.84
563.045	28597.15
563.244	28328.87
563.443	28400.55
563.642	28150.7
563.841	28183.46
564.04	28226.47
564.239	28126.12
564.438	27980.71
564.637	28292.01
564.836	28365.73
565.035	27800.49
565.234	27573.17
565.432	27925.42
565.631	27325.36
565.83	28011.43
566.029	27691.95
566.228	27841.45
566.427	27771.82
566.625	27605.94
566.824	27136.95
567.023	27419.57
567.222	26889.15
567.42	27679.66
567.619	27554.74
567.818	27098.04
568.016	26764.22
568.215	27395
568.414	26600.38
568.612	27124.66
568.811	26610.62
569.01	27110.33
569.208	26610.62
569.407	26854.33
569.605	26260.42
569.804	26506.18
570.002	26622.91
570.201	26536.9
570.4	26467.27
570.598	25947.08
570.797	26307.52
570.995	26424.26
571.193	25932.75
571.392	26006.47
571.59	25904.07
571.789	25852.87
571.987	25940.94
572.186	25811.92
572.384	25560.02
572.582	25773
572.781	25914.31
572.979	25289.68
573.177	25824.2
573.376	25881.55
573.574	25533.39
573.772	25603.02
573.971	25652.17
574.169	25015.26
574.367	25056.22
574.565	25617.36
574.763	25189.33
574.962	25168.85
575.16	24663.01
575.358	25037.78
575.556	24869.85
575.754	24957.91
575.952	24503.26
576.151	24695.77
576.349	24407.01
576.547	24603.61
576.745	24349.67
576.943	24732.64
577.141	24204.26
577.339	24798.17
577.537	24359.91
577.735	24292.32
577.933	24378.34
578.131	24294.37
578.329	24116.2
578.527	23870.44
578.725	23768.04
578.923	24216.55
579.121	23634.92
579.319	23755.75
579.516	23710.7
579.714	23589.87
579.912	23290.87
580.11	23417.84
580.308	23446.51
580.506	23526.38
580.704	23213.04
580.901	23448.56
581.099	23020.53
581.297	23194.61
581.495	23008.25
581.692	23192.56
581.89	22971.38
582.088	23272.43
582.285	22901.75
582.483	22899.7
582.681	22981.62
582.878	22909.94
583.076	22490.11
583.274	22957.05
583.471	22551.55
583.669	22483.97
583.866	22385.66
584.064	22643.71
584.262	22137.86
584.459	22584.32
584.657	22512.64
584.854	22328.32
585.052	22051.84
585.249	22098.95
585.447	22346.75
585.644	21849.1
585.841	22008.84
586.039	22254.59
586.236	21507.09
586.434	21613.58
586.631	21578.76
586.828	21799.94
587.026	21431.31
587.223	21570.57
587.42	21240.85
587.618	21634.06
587.815	21034
588.012	21269.52
588.21	21328.91
588.407	21459.98
588.604	21158.93
588.801	21091.35
588.999	20917.27
589.196	21294.1
589.393	20874.26
589.59	20741.14
589.787	20902.93
589.984	20874.26
590.182	20483.1
590.379	20698.14
590.576	20552.73
590.773	20345.89
590.97	20481.05
591.167	20575.26
591.364	20444.19
591.561	20323.36
591.758	20028.45
591.955	19979.3
592.152	20014.12
592.349	20292.64
592.546	20042.79
592.743	20053.03
592.94	19754.02
593.137	19997.73
593.334	19805.22
593.531	19616.81
593.727	19790.89
593.924	19903.53
594.121	19534.89
594.318	19545.13
594.515	19510.32
594.712	19661.87
594.908	19219.5
595.105	19541.04
595.302	19237.94
595.499	19276.85
595.696	19248.18
595.892	19186.74
596.089	19115.06
596.286	19252.27
596.482	18736.18
596.679	18912.31
596.876	19119.15
597.072	18883.64
597.269	19008.56
597.466	18711.61
597.662	18431.04
597.859	18854.97
598.055	18547.77
598.252	18555.96
598.448	18867.25
598.645	18342.97
598.841	18224.19
599.038	18082.88
599.234	18363.45
599.431	18056.26
599.627	18109.51
599.824	18242.62
600.02	17894.47
600.217	17970.24
600.413	17960
600.609	17890.37
600.806	17706.06
601.002	17939.52
601.198	17927.24
601.395	17464.39
601.591	17484.87
601.787	17405
601.984	17482.83
602.18	17052.75
602.376	17357.9
602.572	17423.44
602.769	17341.52
602.965	17235.02
603.161	17278.03
603.357	17181.78
603.553	17273.93
603.75	16843.86
603.946	16923.73
604.142	17085.52
604.338	16860.24
604.534	16843.86
604.73	16739.41
604.926	16591.96
605.122	17062.99
605.318	16749.65
605.514	16544.86
605.71	16815.19
605.906	16421.98
606.102	16358.49
606.298	16659.54
606.494	16462.94
606.69	16596.06
606.886	16432.22
607.082	16018.53
607.278	16243.81
607.474	16127.07
607.67	16231.52
607.866	16000.1
608.062	16229.47
608.257	15944.8
608.453	16139.36
608.649	16237.66
608.845	15869.03
609.041	15832.16
609.236	15975.52
609.432	15993.95
609.628	15866.98
609.824	15922.27
610.019	15666.28
610.215	15842.4
610.411	15721.57
610.606	15774.82
610.802	15729.77
610.998	15758.44
611.193	15447.15
611.389	15467.63
611.584	15436.91
611.78	15281.26
611.976	15492.2
612.171	15604.84
612.367	15236.2
612.562	15275.12
612.758	15008.88
612.953	15228.01
613.149	15357.03
613.344	15215.73
613.539	15178.86
613.735	15015.02
613.93	15148.14
614.126	15094.9
614.321	15203.44
614.517	14906.48
614.712	15242.35
614.907	14974.06
615.103	15029.36
615.298	15027.31
615.493	15021.17
615.688	14793.84
615.884	15189.1
616.079	14883.95
616.274	14791.8
616.47	14677.11
616.665	14767.22
616.86	14779.51
617.055	14595.19
617.25	14277.76
617.445	14589.05
617.641	14597.24
617.836	14742.64
618.031	14255.23
618.226	14691.45
618.421	14521.46
618.616	14529.66
618.811	13988.99
619.006	14308.48
619.201	14060.67
619.396	14154.88
619.591	13776
619.786	14099.58
619.981	13919.36
620.176	13905.03
620.371	13569.16
620.566	13866.11
620.761	13718.66
620.956	13878.4
621.151	13794.43
621.346	13751.43
621.541	13550.73
621.735	13479.05
621.93	13337.74
622.125	13231.24
622.32	13294.73
622.515	13137.04
622.709	13046.93
622.904	12915.86
623.099	12969.1
623.294	12825.75
623.488	12803.22
623.683	13003.92
623.878	12608.66
624.072	12698.77
624.267	12698.77
624.462	12686.48
624.656	12364.95
624.851	12516.5
625.046	12473.49
625.24	12194.97
625.435	12194.97
625.629	12172.44
625.824	12184.73
626.018	11957.41
626.213	11715.75
626.407	11922.59
626.602	11785.38
626.796	11607.2
626.991	11746.47
627.185	11590.82
627.38	11412.65
627.574	11599.01
627.768	11451.56
627.963	11504.81
628.157	11240.62
628.352	11285.67
628.546	11314.34
628.74	11189.42
628.935	10972.33
629.129	11099.31
629.323	11005.1
629.517	10818.74
629.712	10951.85
629.906	10808.5
630.1	10585.27
630.294	10751.15
630.489	10388.66
630.683	10581.17
630.877	10421.43
631.071	10419.38
631.265	10532.02
631.459	10362.04
631.653	10362.04
631.848	10443.96
632.042	10144.95
632.236	10208.44
632.43	10099.9
632.624	9974.97
632.818	9782.46
633.012	9977.02
633.206	9893.05
633.4	9862.33
633.594	9755.84
633.788	9655.49
633.982	9827.52
634.176	9702.59
634.369	9559.24
634.563	9532.61
634.757	9258.18
634.951	9442.5
635.145	9442.5
635.339	9397.45
635.533	9372.87
635.726	9401.54
635.92	9237.7
636.114	9215.18
636.308	9188.55
636.501	9202.89
636.695	9100.49
636.889	8944.84
637.083	8811.73
637.276	8967.37
637.47	8662.23
637.664	8596.69
637.857	8764.62
638.051	8772.82
638.244	8490.2
638.438	8492.24
638.632	8545.49
638.825	8561.87
639.019	8443.09
639.212	8504.53
639.406	8285.4
639.599	8226.01
639.793	8322.26
639.986	8084.7
640.18	8320.21
640.373	8195.29
640.567	8074.46
640.76	8139.99
640.954	8058.07
641.147	7984.35
641.34	7791.84
641.534	7847.13
641.727	7992.54
641.92	7908.57
642.114	7560.42
642.307	7615.71
642.5	7714.02
642.694	7558.37
642.887	7589.09
643.08	7828.7
643.273	7361.76
643.467	7531.75
643.66	7306.47
643.853	7382.24
644.046	7408.87
644.239	7189.74
644.432	7351.53
644.626	7091.43
644.819	7175.4
645.012	7228.65
645.205	7089.39
645.398	7134.44
645.591	7214.31
645.784	7048.43
645.977	6943.98
646.17	6935.79
646.363	6796.53
646.556	6911.21
646.749	6835.44
646.942	6909.16
647.135	6751.47
647.328	6946.03
647.521	6601.97
647.714	6526.19
647.907	6706.42
648.099	6520.05
648.292	6534.39
648.485	6620.4
648.678	6378.74
648.871	6464.75
649.064	6546.67
649.256	6456.56
649.449	6393.08
649.642	6259.96
649.835	6257.91
650.027	6137.08
650.22	6319.35
650.413	6092.02
650.605	6046.97
650.798	6057.21
650.991	6151.42
651.183	6135.03
651.376	6081.78
651.568	6100.22
651.761	5891.32
651.954	5950.71
652.146	5915.9
652.339	6018.3
652.531	5846.27
652.724	5827.84
652.916	5760.25
653.109	5684.48
653.301	5850.36
653.494	5569.79
653.686	5657.86
653.879	5733.63
654.071	5797.12
654.263	5606.66
654.456	5528.83
654.648	5504.26
654.84	5649.66
655.033	5502.21
655.225	5432.58
655.417	5518.59
655.61	5461.25
655.802	5373.19
655.994	5299.46
656.186	5487.87
656.379	5405.95
656.571	5252.36
656.763	5285.12
656.955	5201.16
657.148	5297.41
657.34	5244.17
657.532	5205.25
657.724	5043.46
657.916	5121.29
658.108	5039.37
658.3	4908.3
658.492	5084.42
658.684	5045.51
658.876	5039.37
659.068	4764.94
659.26	4904.2
659.452	4926.73
659.644	4742.41
659.836	4810
660.028	4840.72
660.22	4683.02
660.412	4773.13
660.604	4752.65
660.796	4730.13
660.988	4801.8
661.18	4568.34
661.372	4660.49
661.563	4687.12
661.755	4568.34
661.947	4640.01
662.139	4601.1
662.331	4660.49
662.522	4658.45
662.714	4439.31
662.906	4527.38
663.097	4369.68
663.289	4508.94
663.481	4449.55
663.673	4445.46
663.864	4322.58
664.056	4310.29
664.247	4187.41
664.439	4398.35
664.631	4408.59
664.822	4420.88
665.014	4400.4
665.205	4211.99
665.397	4171.03
665.588	4209.94
665.78	4324.63
665.971	4257.04
666.163	4289.81
666.354	4125.97
666.546	4175.13
666.737	4142.36
666.929	4060.44
667.12	4095.25
667.311	3900.7
667.503	3988.76
667.694	4142.36
667.885	4039.96
668.077	3972.38
668.268	3857.69
668.459	3929.37
668.651	3908.89
668.842	3966.23
669.033	3953.95
669.224	3843.35
669.416	3955.99
669.607	3874.07
669.798	3886.36
669.989	3851.55
670.18	3611.93
670.371	4023.58
670.563	3700
670.754	3642.65
670.945	3679.52
671.136	3753.24
671.327	3874.07
671.518	3630.37
671.709	3876.12
671.9	3773.72
672.091	3603.74
672.282	3636.51
672.473	3536.16
672.664	3687.71
672.855	3620.13
673.046	3650.85
673.237	3642.65
673.428	3568.93
673.619	3521.82
673.809	3503.39
674	3562.78
674.191	3503.39
674.382	3464.48
674.573	3478.82
674.764	3511.58
674.954	3534.11
675.145	3433.76
675.336	3546.4
675.527	3478.82
675.717	3511.58
675.908	3513.63
676.099	3487.01
676.289	3439.9
676.48	3435.81
676.671	3429.66
676.861	3388.71
677.052	3368.23
677.243	3448.1
677.433	3466.53
677.624	3495.2
677.814	3335.46
678.005	3431.71
678.195	3376.42
678.386	3364.13
678.576	3323.17
678.767	3288.36
678.957	3306.79
679.148	3482.91
679.338	3339.55
679.529	3335.46
679.719	3298.6
679.909	3347.75
680.1	3265.83
680.29	3384.61
680.481	3423.52
680.671	3261.73
680.861	3171.62
681.052	3288.36
681.242	3247.4
681.432	3233.06
681.622	3192.1
681.813	3200.29
682.003	3243.3
682.193	3134.76
682.383	3269.92
682.573	3265.83
682.764	3327.27
682.954	3302.69
683.144	3192.1
683.334	3233.06
683.524	3194.15
683.714	3437.86
683.904	3134.76
684.094	3319.07
684.284	3192.1
684.474	3290.4
684.664	3257.64
684.854	3065.13
685.044	3204.39
685.234	3136.81
685.424	3132.71
685.614	3169.57
685.804	3128.61
685.994	3058.98
686.184	3069.22
686.374	3110.18
686.564	3282.21
686.753	3083.56
686.943	3007.78
687.133	3030.31
687.323	3015.98
687.513	3058.98
687.702	2966.82
687.892	3009.83
688.082	2991.4
688.272	2968.87
688.461	2964.78
688.651	3011.88
688.841	2999.59
689.03	2991.4
689.22	2864.43
689.41	2968.87
689.599	2962.73
689.789	2905.39
689.979	3018.02
690.168	2923.82
690.358	2932.01
690.547	2805.03
690.737	2874.67
690.926	2792.75
691.116	2874.67
691.305	2866.47
691.495	2897.19
691.684	2856.23
691.874	2731.31
692.063	2817.32
692.252	2757.93
692.442	2743.6
692.631	2774.32
692.82	2794.79
693.01	2741.55
693.199	2622.77
693.388	2712.88
693.578	2702.64
693.767	2805.03
693.956	2727.21
694.146	2659.63
694.335	2622.77
694.524	2798.89
694.713	2729.26
694.902	2618.67
695.092	2626.86
695.281	2577.71
695.47	2585.9
695.659	2643.25
695.848	2622.77
696.037	2653.48
696.226	2645.29
696.415	2626.86
696.604	2643.25
696.793	2594.09
696.982	2575.66
697.171	2741.55
697.36	2618.67
697.549	2438.45
697.738	2465.07
697.927	2600.24
698.116	2569.52
698.305	2561.33
698.494	2641.2
698.683	2549.04
698.872	2628.91
699.061	2430.26
699.25	2635.05
699.438	2585.9
699.627	2569.52
699.816	2626.86
700.005	2538.8
700.193	2387.25
700.382	2610.48
700.571	2563.37
700.76	2399.54
700.948	2528.56
701.137	2454.83
701.326	2635.05
701.514	2493.74
701.703	2557.23
701.892	2485.55
702.08	2624.81
702.269	2499.89
702.457	2497.84
702.646	2481.46
702.834	2413.87
703.023	2469.17
703.212	2426.16
703.4	2567.47
703.589	2467.12
703.777	2536.75
703.965	2379.06
704.154	2454.83
704.342	2389.3
704.531	2356.53
704.719	2303.28
704.907	2606.38
705.096	2538.8
705.284	2489.65
705.472	2465.07
705.661	2544.94
705.849	2456.88
706.037	2440.5
706.226	2514.22
706.414	2407.73
706.602	2340.15
706.79	2391.34
706.979	2430.26
707.167	2356.53
707.355	2422.06
707.543	2503.98
707.731	2469.17
707.919	2563.37
708.107	2254.13
708.296	2475.31
708.484	2348.34
708.672	2487.6
708.86	2438.45
709.048	2409.78
709.236	2360.63
709.424	2440.5
709.612	2489.65
709.8	2346.29
709.988	2393.39
710.176	2417.97
710.364	2389.3
710.551	2428.21
710.739	2420.02
710.927	2344.24
711.115	2417.97
711.303	2458.93
711.491	2399.54
711.679	2331.95
711.866	2362.67
712.054	2456.88
712.242	2377.01
712.43	2444.59
712.617	2491.7
712.805	2434.35
712.993	2409.78
713.181	2295.09
713.368	2444.59
713.556	2327.86
713.744	2407.73
713.931	2422.06
714.119	2286.9
714.306	2405.68
714.494	2299.19
714.682	2471.22
714.869	2241.84
715.057	2348.34
715.244	2329.91
715.432	2430.26
715.619	2397.49
715.807	2438.45
715.994	2450.74
716.182	2381.11
716.369	2362.67
716.556	2428.21
716.744	2317.62
716.931	2346.29
717.119	2413.87
717.306	2301.23
717.493	2366.77
717.681	2405.68
717.868	2393.39
718.055	2313.52
718.242	2356.53
718.43	2340.15
718.617	2491.7
718.804	2211.12
718.991	2389.3
719.179	2393.39
719.366	2258.23
719.553	2352.43
719.74	2293.04
719.927	2362.67
720.114	2227.51
720.301	2327.86
720.488	2346.29
720.676	2301.23
720.863	2280.75
721.05	2383.15
721.237	2303.28
721.424	2288.95
721.611	2299.19
721.798	2233.65
721.985	2176.31
722.172	2340.15
722.358	2293.04
722.545	2381.11
722.732	2284.85
722.919	2381.11
723.106	2346.29
723.293	2325.81
723.48	2262.32
723.667	2190.64
723.853	2241.84
724.04	2250.03
724.227	2235.7
724.414	2344.24
724.6	2186.55
724.787	2250.03
724.974	2303.28
725.161	2264.37
725.347	2123.06
725.534	2252.08
725.72	2282.8
725.907	2340.15
726.094	2243.89
726.28	2321.71
726.467	2295.09
726.653	2192.69
726.84	2241.84
727.027	2401.58
727.213	2145.59
727.4	2225.46
727.586	2239.8
727.773	2227.51
727.959	2194.74
728.145	2299.19
728.332	2241.84
728.518	2231.6
728.705	2235.7
728.891	2247.99
729.077	2262.32
729.264	2053.43
729.45	2153.78
729.636	2176.31
729.823	2301.23
730.009	2243.89
730.195	2166.07
730.382	2284.85
730.568	2254.13
730.754	2288.95
730.94	2223.41
731.126	2092.34
731.313	2250.03
731.499	2161.97
731.685	2155.83
731.871	2174.26
732.057	2241.84
732.243	2182.45
732.429	2262.32
732.615	2153.78
732.801	2235.7
732.987	2135.35
733.173	2192.69
733.359	2192.69
733.545	2311.47
733.731	2114.87
733.917	2290.99
734.103	2225.46
734.289	2151.73
734.475	2276.66
734.661	2268.47
734.847	2196.79
735.033	2200.88
735.219	2237.75
735.404	2219.32
735.59	2045.24
735.776	2155.83
735.962	2141.49
736.148	2082.1
736.333	1987.9
736.519	2084.15
736.705	2151.73
736.89	2121.01
737.076	2245.94
737.262	2086.2
737.447	2118.97
737.633	2055.48
737.819	2082.1
738.004	2143.54
738.19	2078.01
738.375	2164.02
738.561	2061.62
738.747	2063.67
738.932	2082.1
739.118	2127.16
739.303	2184.5
739.489	2094.39
739.674	2032.95
739.859	2049.33
740.045	2073.91
740.23	1963.32
740.416	2096.44
740.601	2078.01
740.786	2073.91
740.972	2045.24
741.157	2028.85
741.342	1969.46
741.528	1973.56
741.713	2012.47
741.898	2057.53
742.084	1862.97
742.269	2028.85
742.454	1875.26
742.639	2037.05
742.824	1881.4
743.01	1881.4
743.195	1955.13
743.38	1916.22
743.565	1973.56
743.75	1897.78
743.935	1795.39
744.12	2053.43
744.305	1926.46
744.49	1815.87
744.675	1815.87
744.86	1826.11
745.045	1783.1
745.23	1793.34
745.415	1922.36
745.6	1934.65
745.785	1832.25
745.97	1783.1
746.155	1744.19
746.34	1738.04
746.525	1754.43
746.71	1826.11
746.895	1867.06
747.079	1711.42
747.264	1865.02
747.449	1781.05
747.634	1645.88
747.819	1750.33
748.003	1725.76
748.188	1692.99
748.373	1676.6
748.557	1709.37
748.742	1672.51
748.927	1561.92
749.111	1647.93
749.296	1643.84
749.481	1660.22
749.665	1602.88
749.85	1602.88
750.034	1617.21
750.219	1516.86
750.404	1566.01
750.588	1586.49
750.773	1520.96
750.957	1580.35
751.141	1557.82
751.326	1471.81
751.51	1566.01
751.695	1543.49
751.879	1445.18
752.064	1451.33
752.248	1461.57
752.432	1455.42
752.617	1613.12
752.801	1480
752.985	1434.94
753.17	1434.94
753.354	1420.61
753.538	1406.27
753.722	1383.74
753.907	1332.55
754.091	1363.26
754.275	1277.25
754.459	1340.74
754.643	1262.91
754.828	1338.69
755.012	1342.78
755.196	1224
755.38	1316.16
755.564	1193.28
755.748	1244.48
755.932	1320.26
756.116	1281.35
756.3	1244.48
756.484	1269.06
756.668	1187.14
756.852	1203.52
757.036	1140.04
757.22	1234.24
757.404	1170.76
757.588	1205.57
757.772	1238.34
757.956	1187.14
758.14	1189.19
758.323	1086.79
758.507	1088.84
758.691	1144.13
758.875	1172.8
759.059	1168.71
759.242	1107.27
759.426	1033.54
759.61	1047.88
759.794	1041.73
759.977	1176.9
760.161	1127.75
760.345	968.01
760.528	1103.17
760.712	1078.6
760.895	1021.25
761.079	1025.35
761.263	929.1
761.446	1008.97
761.63	978.25
761.813	978.25
761.997	1008.97
762.18	925
762.364	1051.97
762.547	914.76
762.731	1023.3
762.914	1037.64
763.098	998.73
763.281	996.68
763.464	939.34
763.648	988.49
763.831	980.29
764.015	896.33
764.198	963.91
764.381	865.61
764.564	922.95
764.748	965.96
764.931	947.53
765.114	890.18
765.297	939.34
765.481	888.14
765.664	861.51
765.847	982.34
766.03	939.34
766.213	910.66
766.397	845.13
766.58	884.04
766.763	906.57
766.946	781.64
767.129	935.24
767.312	804.17
767.495	824.65
767.678	818.5
767.861	832.84
768.044	824.65
768.227	908.62
768.41	857.42
768.593	867.66
768.776	802.12
768.959	795.98
769.142	922.95
769.324	824.65
769.507	836.94
769.69	773.45
769.873	767.31
770.056	820.55
770.239	791.88
770.421	902.47
770.604	769.35
770.787	701.77
770.97	759.11
771.152	759.11
771.335	734.54
771.518	742.73
771.7	824.65
771.883	767.31
772.066	763.21
772.248	820.55
772.431	900.42
772.613	800.07
772.796	761.16
772.978	671.05
773.161	726.35
773.343	759.11
773.526	718.15
773.708	689.48
773.891	630.09
774.073	720.2
774.256	697.67
774.438	777.55
774.621	652.62
774.803	742.73
774.985	628.04
775.168	662.86
775.35	628.04
775.532	712.01
775.715	642.38
775.897	634.19
776.079	654.67
776.261	611.66
776.444	603.47
776.626	654.67
776.808	685.39
776.99	607.56
777.173	630.09
777.355	693.58
777.537	574.8
777.719	568.65
777.901	496.97
778.083	626
778.265	636.24
778.447	603.47
778.629	537.93
778.811	648.52
778.993	529.74
779.175	611.66
779.357	587.08
779.539	513.36
779.721	517.45
779.903	589.13
780.085	517.45
780.267	507.21
780.449	578.89
780.631	570.7
780.812	562.51
780.994	398.67
781.176	490.83
781.358	427.34
781.54	423.25
781.721	515.41
781.903	546.13
782.085	542.03
782.267	492.88
782.448	441.68
782.63	443.73
782.812	398.67
782.993	501.07
783.175	496.97
783.357	476.49
783.538	494.93
783.72	374.1
783.901	490.83
784.083	525.65
784.264	458.06
784.446	363.86
784.627	329.04
784.809	462.16
784.99	406.86
785.172	490.83
785.353	478.54
785.535	394.58
785.716	382.29
785.897	419.15
786.079	415.06
786.26	396.62
786.441	423.25
786.623	398.67
786.804	316.75
786.985	351.57
787.167	406.86
787.348	353.62
787.529	470.35
787.71	324.94
787.891	398.67
788.073	314.7
788.254	419.15
788.435	374.1
788.616	460.11
788.797	316.75
788.978	370
789.159	392.53
789.34	341.33
789.522	384.34
789.703	298.32
789.884	267.6
790.065	417.1
790.246	374.1
790.427	343.38
790.607	374.1
790.788	378.19
790.969	300.37
791.15	300.37
791.331	234.83
791.512	294.22
791.693	343.38
791.874	316.75
792.054	318.8
792.235	275.79
792.416	286.03
792.597	310.61
792.778	349.52
792.958	316.75
793.139	365.9
793.32	263.51
793.5	271.7
793.681	337.23
793.862	333.14
794.042	277.84
794.223	279.89
794.404	324.94
794.584	265.55
794.765	279.89
794.945	214.35
795.126	283.99
795.306	271.7
795.487	251.22
795.667	267.6
795.848	267.6
796.028	243.03
796.209	308.56
796.389	302.42
796.57	273.75
796.75	154.96
796.93	279.89
797.111	146.77
797.291	283.99
797.471	218.45
797.652	253.27
797.832	243.03
798.012	228.69
798.192	267.6
798.373	210.26
798.553	218.45
798.733	263.51
798.913	189.78
799.093	214.35
799.274	226.64
799.454	220.5
799.634	202.07
799.814	222.55
799.994	214.35
800.174	271.7
800.354	169.3
800.534	251.22
800.714	265.55
800.894	105.81
801.074	179.54
801.254	251.22
801.434	261.46
801.614	238.93
801.794	136.53
801.974	769.35
802.154	138.58
802.334	185.68
802.514	177.49
802.693	144.72
802.873	169.3
803.053	302.42
803.233	185.68
803.413	161.11
803.592	185.68
803.772	150.87
803.952	222.55
804.131	238.93
804.311	197.97
804.491	265.55
804.67	208.21
804.85	181.59
805.03	243.03
805.209	187.73
805.389	157.01
805.568	179.54
805.748	232.79
805.928	177.49
806.107	173.39
806.287	238.93
806.466	136.53
806.646	193.87
806.825	185.68
807.004	111.96
807.184	167.25
807.363	185.68
807.543	161.11
807.722	109.91
807.901	206.16
808.081	204.11
808.26	114
808.439	202.07
808.619	210.26
808.798	234.83
808.977	259.41
809.156	152.92
809.336	122.2
809.515	230.74
809.694	114
809.873	111.96
810.052	218.45
810.231	218.45
810.411	193.87
810.59	148.82
810.769	152.92
810.948	132.44
811.127	181.59
811.306	146.77
811.485	132.44
811.664	177.49
811.843	173.39
812.022	114
812.201	189.78
812.38	103.76
812.559	109.91
812.737	163.15
812.916	189.78
813.095	122.2
813.274	60.76
813.453	159.06
813.632	169.3
813.811	120.15
813.989	75.09
814.168	146.77
814.347	136.53
814.526	189.78
814.704	136.53
814.883	157.01
815.062	95.57
815.24	97.62
815.419	116.05
815.598	202.07
815.776	109.91
815.955	99.67
816.133	91.48
816.312	152.92
816.49	81.24
816.669	128.34
816.847	177.49
817.026	75.09
817.204	25.94
817.383	152.92
817.561	83.28
817.74	132.44
817.918	154.96
818.097	89.43
818.275	107.86
818.453	120.15
818.632	150.87
818.81	148.82
818.988	118.1
819.167	169.3
819.345	99.67
819.523	122.2
819.701	109.91
819.879	103.76
820.058	89.43
820.236	122.2
820.414	111.96
820.592	111.96
820.77	83.28
820.948	38.23
821.127	38.23
821.305	48.47
821.483	93.52
821.661	81.24
821.839	71
822.017	97.62
822.195	152.92
822.373	120.15
822.551	111.96
822.729	165.2
822.907	118.1
823.085	193.87
823.262	103.76
823.44	56.66
823.618	64.85
823.796	95.57
823.974	71
824.152	42.32
824.329	103.76
824.507	99.67
824.685	122.2
824.863	87.38
825.04	97.62
825.218	64.85
825.396	152.92
825.574	193.87
825.751	152.92
825.929	128.34
826.107	7.51
826.284	54.61
826.462	60.76
826.639	52.56
826.817	89.43
826.994	73.04
827.172	60.76
827.349	165.2
827.527	97.62
827.704	114
827.882	132.44
828.059	58.71
828.237	103.76
828.414	109.91
828.591	40.28
828.769	132.44
828.946	40.28
829.124	79.19
829.301	165.2
829.478	38.23
829.655	40.28
829.833	71
830.01	79.19
830.187	144.72
830.364	54.61
830.542	32.08
830.719	38.23
830.896	11.61
831.073	52.56
831.25	128.34
831.427	107.86
831.604	68.95
831.782	50.52
831.959	179.54
832.136	116.05
832.313	7.51
832.49	79.19
832.667	64.85
832.844	-8.87
833.021	120.15
833.198	21.85
833.374	48.47
833.551	103.76
833.728	122.2
833.905	103.76
834.082	58.71
834.259	62.8
834.436	103.76
834.612	87.38
834.789	81.24
834.966	71
835.143	46.42
835.319	42.32
835.496	95.57
835.673	91.48
835.85	62.8
836.026	120.15
836.203	154.96
836.38	79.19
836.556	66.9
836.733	56.66
836.909	11.61
837.086	85.33
837.262	54.61
837.439	34.13
837.616	27.99
837.792	56.66
837.968	3.41
838.145	62.8
838.321	30.04
838.498	-0.68
838.674	83.28
838.851	136.53
839.027	87.38
839.203	-35.5
839.38	77.14
839.556	46.42
839.732	21.85
839.909	73.04
840.085	64.85
840.261	-10.92
840.437	120.15
840.614	91.48
840.79	73.04
840.966	13.65
841.142	54.61
841.318	54.61
841.494	21.85
841.671	73.04
841.847	87.38
842.023	62.8
842.199	81.24
842.375	56.66
842.551	23.89
842.727	54.61
842.903	62.8
843.079	5.46
843.255	58.71
843.431	62.8
843.607	79.19
843.783	-107.18
843.959	46.42
844.134	-10.92
844.31	54.61
844.486	161.11
844.662	73.04
844.838	56.66
845.013	-19.11
845.189	97.62
845.365	25.94
845.541	83.28
845.716	-6.83
845.892	21.85
846.068	75.09
846.244	-10.92
846.419	101.72
846.595	58.71
846.77	40.28
846.946	116.05
847.122	79.19
847.297	-0.68
847.473	126.29
847.648	-60.07
847.824	-39.59
847.999	73.04
848.175	56.66
848.35	66.9
848.526	46.42
848.701	30.04
848.876	122.2
849.052	50.52
849.227	93.52
849.403	79.19
849.578	-45.74
849.753	60.76
849.929	38.23
850.104	75.09
850.279	91.48
850.454	87.38
850.63	97.62
850.805	54.61
850.98	79.19
851.155	38.23
851.33	77.14
851.505	-27.31
851.681	124.24
851.856	11.61
852.031	105.81
852.206	48.47
852.381	5.46
852.556	34.13
852.731	79.19
852.906	32.08
853.081	-2.73
853.256	58.71
853.431	-15.02
853.606	50.52
853.781	34.13
853.956	46.42
854.131	-33.45
854.305	21.85
854.48	21.85
854.655	64.85
854.83	46.42
855.005	46.42
855.18	21.85
855.354	-12.97
855.529	19.8
855.704	7.51
855.879	38.23
856.053	-12.97
856.228	56.66
856.403	15.7
856.577	79.19
856.752	-19.11
856.926	62.8
857.101	-58.03
857.276	-25.26
857.45	116.05
857.625	-10.92
857.799	89.43
857.974	77.14
858.148	-33.45
858.323	38.23
858.497	-17.07
858.672	81.24
858.846	19.8
859.02	103.76
859.195	21.85
859.369	-15.02
859.543	25.94
859.718	71
859.892	46.42
860.066	48.47
860.241	-10.92
860.415	79.19
860.589	-8.87
860.763	30.04
860.938	-41.64
861.112	58.71
861.286	-8.87
861.46	48.47
861.634	56.66
861.808	40.28
861.982	25.94
862.157	19.8
862.331	-0.68
862.505	48.47
862.679	66.9
862.853	13.65
863.027	48.47
863.201	81.24
863.375	40.28
863.549	-10.92
863.722	46.42
863.896	71
864.07	38.23
864.244	-19.11
864.418	48.47
864.592	36.18
864.766	-2.73
864.939	46.42
865.113	-43.69
865.287	52.56
865.461	60.76
865.634	-76.46
865.808	-27.31
865.982	25.94
866.156	36.18
866.329	13.65
866.503	66.9
866.676	73.04
866.85	-4.78
867.024	-2.73
867.197	23.89
867.371	83.28
867.544	21.85
867.718	21.85
867.891	27.99
868.065	-19.11
868.238	-33.45
868.412	62.8
868.585	66.9
868.759	30.04
868.932	42.32
869.105	-35.5
869.279	56.66
869.452	-43.69
869.625	9.56
869.799	21.85
869.972	-0.68
870.145	7.51
870.319	-51.88
870.492	30.04
870.665	66.9
870.838	-33.45
871.011	-25.26
871.185	38.23
871.358	21.85
871.531	75.09
871.704	-23.21
871.877	34.13
872.05	62.8
872.223	-39.59
872.396	-43.69
872.569	-88.75
872.742	15.7
872.915	-15.02
873.088	11.61
873.261	15.7
873.434	83.28
873.607	42.32
873.78	-6.83
873.953	-27.31
874.126	-10.92
874.299	1.37
874.471	-41.64
874.644	-19.11
874.817	-33.45
874.99	114
875.163	23.89
875.335	-6.83
875.508	-8.87
875.681	99.67
875.853	-23.21
876.026	81.24
876.199	-25.26
876.371	25.94
876.544	-47.79
876.717	30.04
876.889	32.08
877.062	21.85
877.234	-51.88
877.407	-10.92
877.579	-35.5
877.752	107.86
877.924	13.65
878.097	60.76
878.269	-55.98
878.442	32.08
878.614	15.7
878.786	38.23
878.959	32.08
879.131	23.89
879.303	-74.41
879.476	-8.87
879.648	54.61
879.82	-0.68
879.993	-6.83
880.165	21.85
880.337	9.56
880.509	-23.21
880.681	-19.11
880.854	5.46
881.026	62.8
881.198	83.28
881.37	-10.92
881.542	97.62
881.714	27.99
881.886	3.41
882.058	5.46
882.23	-60.07
882.402	50.52
882.574	46.42
882.746	-98.99
882.918	25.94
883.09	-39.59
883.262	30.04
883.434	-29.35
883.606	5.46
883.778	9.56
883.95	-2.73
884.122	-19.11
884.293	3.41
884.465	34.13
884.637	-8.87
884.809	23.89
884.98	83.28
885.152	-23.21
885.324	1.37
885.496	23.89
885.667	21.85
885.839	83.28
886.011	50.52
886.182	15.7
886.354	34.13
886.525	-10.92
886.697	50.52
886.869	32.08
887.04	15.7
887.212	15.7
887.383	83.28
887.555	21.85
887.726	30.04
887.897	30.04
888.069	-10.92
888.24	32.08
888.412	95.57
888.583	-19.11
888.754	-31.4
888.926	-49.83
889.097	7.51
889.268	1.37
889.44	-66.22
889.611	-6.83
889.782	21.85
889.953	-39.59
890.125	50.52
890.296	-2.73
890.467	-21.16
890.638	25.94
890.809	5.46
890.98	-0.68
891.151	13.65
891.323	5.46
891.494	23.89
891.665	21.85
891.836	38.23
892.007	66.9
892.178	13.65
892.349	-0.68
892.52	30.04
892.691	13.65
892.862	19.8
893.032	-19.11
893.203	1.37
893.374	13.65
893.545	32.08
893.716	-37.55
893.887	56.66
894.057	7.51
894.228	-29.35
894.399	5.46
894.57	62.8
894.74	30.04
894.911	-39.59
895.082	56.66
895.253	9.56
895.423	-47.79
895.594	1.37
895.764	7.51
895.935	15.7
896.106	13.65
896.276	5.46
896.447	-4.78
896.617	-49.83
896.788	42.32
896.958	-29.35
897.129	9.56
897.299	13.65
897.47	66.9
897.64	-6.83
897.81	-19.11
897.981	-27.31
898.151	1.37
898.322	-2.73
898.492	-15.02
898.662	68.95
898.832	25.94
899.003	30.04
899.173	15.7
899.343	75.09
899.513	-19.11
