Data from USB4F104151__184__14-20-14-232.txt Node

Date: Thu Mar 13 14:20:14 EDT 2025
User: louis
Spectrometer: USB4F10415
Trigger mode: 4
Integration Time (sec): 2.000000E-2
Scans to average: 1
Electric dark correction enabled: true
Nonlinearity correction enabled: false
Boxcar width: 0
XAxis mode: Wavelengths
Number of Pixels in Spectrum: 3648
>>>>>Begin Spectral Data<<<<<
178.204	-89.43
178.424	-89.43
178.644	-89.43
178.864	-75.09
179.084	-62.8
179.304	-40.28
179.524	-34.13
179.744	37.55
179.964	4.78
180.184	-15.7
180.404	47.79
180.624	10.92
180.844	41.64
181.064	-32.08
181.283	35.5
181.503	-48.47
181.723	-7.51
181.943	21.16
182.163	17.07
182.383	-21.85
182.602	33.45
182.822	-36.18
183.042	-5.46
183.262	51.88
183.482	76.46
183.701	-23.89
183.921	19.11
184.141	-25.94
184.361	2.73
184.58	-54.61
184.8	62.12
185.02	12.97
185.239	-5.46
185.459	-32.08
185.679	47.79
185.898	-38.23
186.118	-38.23
186.338	6.83
186.557	78.51
186.777	15.02
186.997	-73.04
187.216	-21.85
187.436	68.27
187.655	19.11
187.875	-32.08
188.095	-93.52
188.314	70.31
188.534	64.17
188.753	-56.66
188.973	12.97
189.192	-1.37
189.412	-25.94
189.631	58.03
189.851	2.73
190.07	27.31
190.29	-13.65
190.509	-32.08
190.729	-21.85
190.948	78.51
191.168	31.4
191.387	-9.56
191.607	8.87
191.826	92.84
192.045	-27.99
192.265	-32.08
192.484	25.26
192.704	2.73
192.923	-40.28
193.142	29.35
193.362	45.74
193.581	31.4
193.8	-11.61
194.02	29.35
194.239	39.59
194.458	0.68
194.678	43.69
194.897	-42.32
195.116	4.78
195.335	-30.04
195.555	4.78
195.774	12.97
195.993	0.68
196.212	17.07
196.432	8.87
196.651	-13.65
196.87	27.31
197.089	90.79
197.308	27.31
197.528	-19.8
197.747	-21.85
197.966	-7.51
198.185	58.03
198.404	15.02
198.623	19.11
198.842	-15.7
199.062	-46.42
199.281	-5.46
199.5	-7.51
199.719	10.92
199.938	19.11
200.157	-1.37
200.376	10.92
200.595	76.46
200.814	12.97
201.033	-7.51
201.252	27.31
201.471	-83.28
201.69	-7.51
201.909	33.45
202.128	-19.8
202.347	-17.75
202.566	-11.61
202.785	17.07
203.004	45.74
203.223	109.22
203.442	8.87
203.661	-11.61
203.879	17.07
204.098	27.31
204.317	-11.61
204.536	-38.23
204.755	10.92
204.974	17.07
205.193	17.07
205.411	111.27
205.63	19.11
205.849	66.22
206.068	-27.99
206.287	-15.7
206.505	4.78
206.724	-46.42
206.943	0.68
207.162	15.02
207.381	19.11
207.599	-19.8
207.818	-54.61
208.037	-21.85
208.255	-11.61
208.474	4.78
208.693	58.03
208.911	-17.75
209.13	94.89
209.349	-56.66
209.567	-23.89
209.786	58.03
210.005	33.45
210.223	-13.65
210.442	-54.61
210.661	-15.7
210.879	-32.08
211.098	33.45
211.316	25.26
211.535	23.21
211.753	60.07
211.972	0.68
212.191	-7.51
212.409	17.07
212.628	-21.85
212.846	25.26
213.065	39.59
213.283	60.07
213.502	-17.75
213.72	12.97
213.938	27.31
214.157	74.41
214.375	-27.99
214.594	-79.19
214.812	-23.89
215.031	41.64
215.249	-36.18
215.467	-15.7
215.686	55.98
215.904	-25.94
216.122	-40.28
216.341	43.69
216.559	-5.46
216.778	-19.8
216.996	-5.46
217.214	-21.85
217.432	74.41
217.651	27.31
217.869	2.73
218.087	-23.89
218.306	-40.28
218.524	27.31
218.742	29.35
218.96	6.83
219.179	19.11
219.397	-23.89
219.615	90.79
219.833	8.87
220.051	-3.41
220.27	17.07
220.488	41.64
220.706	25.26
220.924	-17.75
221.142	-3.41
221.36	-52.56
221.578	-21.85
221.796	6.83
222.015	0.68
222.233	-60.76
222.451	47.79
222.669	-19.8
222.887	49.83
223.105	29.35
223.323	-81.24
223.541	-44.37
223.759	-30.04
223.977	-13.65
224.195	49.83
224.413	31.4
224.631	12.97
224.849	-23.89
225.067	-5.46
225.285	-15.7
225.503	53.93
225.721	-60.76
225.939	39.59
226.157	70.31
226.375	51.88
226.592	-11.61
226.81	-21.85
227.028	-3.41
227.246	53.93
227.464	4.78
227.682	41.64
227.9	-36.18
228.117	58.03
228.335	-34.13
228.553	19.11
228.771	-3.41
228.989	-73.04
229.206	129.7
229.424	41.64
229.642	-27.99
229.86	-11.61
230.077	21.16
230.295	2.73
230.513	45.74
230.731	76.46
230.948	62.12
231.166	53.93
231.384	-36.18
231.601	-46.42
231.819	92.84
232.037	10.92
232.254	0.68
232.472	-40.28
232.689	49.83
232.907	8.87
233.125	31.4
233.342	21.16
233.56	-32.08
233.777	29.35
233.995	74.41
234.213	8.87
234.43	-32.08
234.648	27.31
234.865	-11.61
235.083	-9.56
235.3	68.27
235.518	35.5
235.735	4.78
235.953	33.45
236.17	33.45
236.388	17.07
236.605	25.26
236.822	53.93
237.04	80.55
237.257	-40.28
237.475	-40.28
237.692	68.27
237.909	2.73
238.127	2.73
238.344	4.78
238.562	55.98
238.779	-66.9
238.996	-7.51
239.214	70.31
239.431	8.87
239.648	-40.28
239.865	43.69
240.083	92.84
240.3	-7.51
240.517	23.21
240.735	58.03
240.952	0.68
241.169	25.26
241.386	58.03
241.603	-19.8
241.821	33.45
242.038	49.83
242.255	49.83
242.472	-46.42
242.689	12.97
242.907	27.31
243.124	66.22
243.341	94.89
243.558	8.87
243.775	19.11
243.992	10.92
244.209	41.64
244.426	107.18
244.643	2.73
244.86	-3.41
245.078	8.87
245.295	66.22
245.512	41.64
245.729	60.07
245.946	29.35
246.163	-32.08
246.38	0.68
246.597	-23.89
246.814	-36.18
247.031	-15.7
247.248	51.88
247.464	51.88
247.681	15.02
247.898	25.26
248.115	-64.85
248.332	-5.46
248.549	43.69
248.766	78.51
248.983	25.26
249.2	4.78
249.417	37.55
249.633	39.59
249.85	-3.41
250.067	-81.24
250.284	-46.42
250.501	-13.65
250.717	0.68
250.934	74.41
251.151	23.21
251.368	-15.7
251.585	0.68
251.801	-5.46
252.018	-17.75
252.235	82.6
252.451	-38.23
252.668	-21.85
252.885	49.83
253.102	43.69
253.318	33.45
253.535	17.07
253.752	0.68
253.968	-13.65
254.185	-15.7
254.401	41.64
254.618	17.07
254.835	-56.66
255.051	78.51
255.268	49.83
255.484	-5.46
255.701	27.31
255.917	8.87
256.134	-7.51
256.351	-23.89
256.567	39.59
256.784	6.83
257	-62.8
257.217	0.68
257.433	-17.75
257.65	17.07
257.866	12.97
258.082	-62.8
258.299	-32.08
258.515	33.45
258.732	17.07
258.948	98.99
259.165	-5.46
259.381	-32.08
259.597	23.21
259.814	60.07
260.03	-9.56
260.246	10.92
260.463	33.45
260.679	39.59
260.895	-21.85
261.112	53.93
261.328	10.92
261.544	35.5
261.761	123.56
261.977	2.73
262.193	-3.41
262.409	10.92
262.626	-23.89
262.842	-15.7
263.058	4.78
263.274	37.55
263.49	0.68
263.707	60.07
263.923	4.78
264.139	-32.08
264.355	-5.46
264.571	55.98
264.787	-36.18
265.004	47.79
265.22	-7.51
265.436	-7.51
265.652	35.5
265.868	-56.66
266.084	8.87
266.3	17.07
266.516	27.31
266.732	74.41
266.948	-7.51
267.164	60.07
267.38	27.31
267.596	62.12
267.812	10.92
268.028	21.16
268.244	-9.56
268.46	25.26
268.676	37.55
268.892	8.87
269.108	21.16
269.324	25.26
269.54	33.45
269.756	12.97
269.972	2.73
270.188	49.83
270.403	-46.42
270.619	-23.89
270.835	82.6
271.051	-15.7
271.267	66.22
271.483	-32.08
271.698	45.74
271.914	49.83
272.13	-46.42
272.346	10.92
272.562	-7.51
272.777	47.79
272.993	25.26
273.209	-23.89
273.425	29.35
273.64	-17.75
273.856	80.55
274.072	49.83
274.287	-66.9
274.503	-5.46
274.719	35.5
274.934	12.97
275.15	-11.61
275.366	109.22
275.581	-23.89
275.797	74.41
276.012	-48.47
276.228	-27.99
276.444	41.64
276.659	2.73
276.875	0.68
277.09	82.6
277.306	29.35
277.521	74.41
277.737	17.07
277.952	10.92
278.168	60.07
278.383	-7.51
278.599	8.87
278.814	6.83
279.03	15.02
279.245	43.69
279.461	-9.56
279.676	25.26
279.892	-27.99
280.107	-13.65
280.322	4.78
280.538	-36.18
280.753	39.59
280.969	-9.56
281.184	62.12
281.399	27.31
281.615	-3.41
281.83	-25.94
282.045	-5.46
282.26	-52.56
282.476	109.22
282.691	8.87
282.906	43.69
283.122	-7.51
283.337	27.31
283.552	109.22
283.767	-11.61
283.983	55.98
284.198	-23.89
284.413	66.22
284.628	8.87
284.843	-15.7
285.058	-5.46
285.274	6.83
285.489	0.68
285.704	8.87
285.919	15.02
286.134	12.97
286.349	12.97
286.564	70.31
286.779	8.87
286.995	31.4
287.21	-79.19
287.425	21.16
287.64	35.5
287.855	-54.61
288.07	-23.89
288.285	62.12
288.5	0.68
288.715	33.45
288.93	-30.04
289.145	-23.89
289.36	41.64
289.575	39.59
289.79	21.16
290.004	-23.89
290.219	53.93
290.434	-36.18
290.649	-73.04
290.864	6.83
291.079	-9.56
291.294	15.02
291.509	-5.46
291.724	-7.51
291.938	53.93
292.153	-32.08
292.368	49.83
292.583	-5.46
292.798	23.21
293.012	6.83
293.227	21.16
293.442	43.69
293.657	-21.85
293.871	-30.04
294.086	-27.99
294.301	55.98
294.516	43.69
294.73	-13.65
294.945	-15.7
295.16	68.27
295.374	101.03
295.589	41.64
295.804	12.97
296.018	-21.85
296.233	43.69
296.447	23.21
296.662	29.35
296.877	47.79
297.091	45.74
297.306	-30.04
297.52	-23.89
297.735	49.83
297.949	23.21
298.164	41.64
298.378	27.31
298.593	-71
298.807	0.68
299.022	66.22
299.236	49.83
299.451	-54.61
299.665	51.88
299.88	10.92
300.094	-3.41
300.309	101.03
300.523	-1.37
300.737	-40.28
300.952	17.07
301.166	33.45
301.381	-54.61
301.595	-11.61
301.809	-32.08
302.024	49.83
302.238	-30.04
302.452	-40.28
302.667	-7.51
302.881	2.73
303.095	25.26
303.309	-42.32
303.524	39.59
303.738	-23.89
303.952	8.87
304.166	107.18
304.381	-46.42
304.595	35.5
304.809	25.26
305.023	33.45
305.237	33.45
305.452	8.87
305.666	29.35
305.88	-23.89
306.094	-40.28
306.308	17.07
306.522	41.64
306.736	66.22
306.95	98.99
307.164	8.87
307.379	8.87
307.593	64.17
307.807	60.07
308.021	41.64
308.235	17.07
308.449	-116.05
308.663	-40.28
308.877	98.99
309.091	-27.99
309.305	82.6
309.519	-27.99
309.733	12.97
309.947	-56.66
310.161	35.5
310.374	23.21
310.588	-21.85
310.802	53.93
311.016	33.45
311.23	-9.56
311.444	0.68
311.658	15.02
311.872	70.31
312.085	45.74
312.299	74.41
312.513	-7.51
312.727	45.74
312.941	2.73
313.154	0.68
313.368	64.17
313.582	115.37
313.796	-7.51
314.009	60.07
314.223	55.98
314.437	-15.7
314.651	8.87
314.864	-23.89
315.078	-7.51
315.292	8.87
315.505	-7.51
315.719	58.03
315.933	2.73
316.146	0.68
316.36	-23.89
316.573	25.26
316.787	27.31
317.001	-15.7
317.214	35.5
317.428	29.35
317.641	33.45
317.855	-23.89
318.068	33.45
318.282	98.99
318.495	33.45
318.709	33.45
318.922	-3.41
319.136	0.68
319.349	41.64
319.563	29.35
319.776	33.45
319.99	33.45
320.203	17.07
320.417	60.07
320.63	-13.65
320.843	12.97
321.057	29.35
321.27	51.88
321.483	58.03
321.697	29.35
321.91	12.97
322.124	-32.08
322.337	-3.41
322.55	107.18
322.763	43.69
322.977	51.88
323.19	-3.41
323.403	43.69
323.617	-77.14
323.83	-40.28
324.043	39.59
324.256	-13.65
324.469	-58.71
324.683	43.69
324.896	68.27
325.109	29.35
325.322	-19.8
325.535	-17.75
325.748	-11.61
325.962	58.03
326.175	19.11
326.388	-7.51
326.601	33.45
326.814	-13.65
327.027	21.16
327.24	105.13
327.453	-3.41
327.666	2.73
327.879	43.69
328.092	62.12
328.305	25.26
328.518	-5.46
328.731	-73.04
328.944	0.68
329.157	70.31
329.37	17.07
329.583	45.74
329.796	53.93
330.009	31.4
330.222	25.26
330.435	41.64
330.648	17.07
330.861	45.74
331.073	-21.85
331.286	33.45
331.499	35.5
331.712	-25.94
331.925	12.97
332.138	37.55
332.35	27.31
332.563	31.4
332.776	49.83
332.989	-52.56
333.202	51.88
333.414	10.92
333.627	0.68
333.84	41.64
334.053	-40.28
334.265	35.5
334.478	35.5
334.691	4.78
334.903	-5.46
335.116	47.79
335.329	4.78
335.541	-7.51
335.754	86.7
335.966	-7.51
336.179	43.69
336.392	82.6
336.604	19.11
336.817	29.35
337.029	109.22
337.242	-7.51
337.454	17.07
337.667	84.65
337.88	35.5
338.092	76.46
338.305	-13.65
338.517	33.45
338.729	29.35
338.942	66.22
339.154	-25.94
339.367	23.21
339.579	60.07
339.792	35.5
340.004	27.31
340.217	23.21
340.429	62.12
340.641	-21.85
340.854	8.87
341.066	-9.56
341.278	68.27
341.491	53.93
341.703	-7.51
341.915	6.83
342.128	92.84
342.34	53.93
342.552	49.83
342.764	66.22
342.977	-54.61
343.189	41.64
343.401	17.07
343.613	6.83
343.826	53.93
344.038	-32.08
344.25	-11.61
344.462	-32.08
344.674	76.46
344.886	33.45
345.099	-19.8
345.311	66.22
345.523	58.03
345.735	-13.65
345.947	60.07
346.159	-36.18
346.371	8.87
346.583	-48.47
346.795	66.22
347.007	23.21
347.219	62.12
347.431	25.26
347.643	12.97
347.855	-68.95
348.067	72.36
348.279	41.64
348.491	-11.61
348.703	23.21
348.915	25.26
349.127	45.74
349.339	31.4
349.551	-48.47
349.763	70.31
349.975	58.03
350.187	141.99
350.399	-11.61
350.61	39.59
350.822	-40.28
351.034	-23.89
351.246	2.73
351.458	43.69
351.669	-1.37
351.881	33.45
352.093	21.16
352.305	62.12
352.517	27.31
352.728	84.65
352.94	94.89
353.152	103.08
353.363	-64.85
353.575	0.68
353.787	19.11
353.999	25.26
354.21	8.87
354.422	62.12
354.633	-11.61
354.845	2.73
355.057	-19.8
355.268	35.5
355.48	51.88
355.692	-19.8
355.903	-91.48
356.115	-19.8
356.326	-23.89
356.538	62.12
356.749	-11.61
356.961	33.45
357.172	29.35
357.384	-52.56
357.595	49.83
357.807	4.78
358.018	0.68
358.23	0.68
358.441	115.37
358.653	-21.85
358.864	45.74
359.075	51.88
359.287	-21.85
359.498	96.94
359.709	-38.23
359.921	15.02
360.132	43.69
360.344	51.88
360.555	31.4
360.766	17.07
360.977	12.97
361.189	21.16
361.4	-3.41
361.611	49.83
361.823	90.79
362.034	33.45
362.245	-38.23
362.456	55.98
362.667	68.27
362.879	-32.08
363.09	49.83
363.301	98.99
363.512	66.22
363.723	70.31
363.935	2.73
364.146	66.22
364.357	68.27
364.568	-1.37
364.779	4.78
364.99	37.55
365.201	53.93
365.412	41.64
365.623	17.07
365.834	-81.24
366.045	27.31
366.256	0.68
366.467	-64.85
366.678	-7.51
366.889	66.22
367.1	-1.37
367.311	17.07
367.522	-1.37
367.733	72.36
367.944	58.03
368.155	-9.56
368.366	123.56
368.577	68.27
368.788	53.93
368.999	41.64
369.209	62.12
369.42	41.64
369.631	94.89
369.842	135.85
370.053	12.97
370.264	33.45
370.474	68.27
370.685	80.55
370.896	62.12
371.107	4.78
371.317	17.07
371.528	-5.46
371.739	74.41
371.95	29.35
372.16	31.4
372.371	-15.7
372.582	33.45
372.792	60.07
373.003	12.97
373.214	43.69
373.424	78.51
373.635	23.21
373.846	23.21
374.056	41.64
374.267	78.51
374.477	62.12
374.688	21.16
374.898	-19.8
375.109	76.46
375.319	0.68
375.53	82.6
375.74	4.78
375.951	76.46
376.161	8.87
376.372	72.36
376.582	8.87
376.793	-13.65
377.003	4.78
377.214	-3.41
377.424	39.59
377.635	-30.04
377.845	45.74
378.055	82.6
378.266	58.03
378.476	70.31
378.686	53.93
378.897	-3.41
379.107	37.55
379.317	37.55
379.528	-32.08
379.738	70.31
379.948	-66.9
380.158	66.22
380.369	17.07
380.579	21.16
380.789	17.07
380.999	70.31
381.21	45.74
381.42	43.69
381.63	27.31
381.84	123.56
382.05	33.45
382.261	25.26
382.471	41.64
382.681	29.35
382.891	39.59
383.101	10.92
383.311	-30.04
383.521	49.83
383.731	-48.47
383.941	66.22
384.151	-38.23
384.361	35.5
384.571	74.41
384.781	-13.65
384.991	90.79
385.201	47.79
385.411	17.07
385.621	82.6
385.831	37.55
386.041	27.31
386.251	90.79
386.461	45.74
386.671	72.36
386.881	62.12
387.091	33.45
387.301	90.79
387.511	0.68
387.72	53.93
387.93	23.21
388.14	21.16
388.35	2.73
388.56	74.41
388.769	90.79
388.979	66.22
389.189	-11.61
389.399	84.65
389.609	103.08
389.818	58.03
390.028	2.73
390.238	-27.99
390.447	12.97
390.657	148.14
390.867	49.83
391.076	-52.56
391.286	58.03
391.496	17.07
391.705	17.07
391.915	101.03
392.125	43.69
392.334	74.41
392.544	45.74
392.753	21.16
392.963	92.84
393.172	47.79
393.382	-13.65
393.591	82.6
393.801	55.98
394.01	76.46
394.22	39.59
394.429	66.22
394.639	0.68
394.848	101.03
395.058	-21.85
395.267	-36.18
395.477	150.18
395.686	68.27
395.895	47.79
396.105	47.79
396.314	66.22
396.524	-32.08
396.733	33.45
396.942	98.99
397.152	37.55
397.361	37.55
397.57	66.22
397.78	98.99
397.989	172.71
398.198	209.58
398.407	0.68
398.617	92.84
398.826	101.03
399.035	131.75
399.244	62.12
399.453	82.6
399.663	84.65
399.872	127.66
400.081	17.07
400.29	152.23
400.499	4.78
400.708	139.94
400.917	12.97
401.127	78.51
401.336	41.64
401.545	111.27
401.754	123.56
401.963	84.65
402.172	45.74
402.381	121.51
402.59	141.99
402.799	37.55
403.008	115.37
403.217	103.08
403.426	119.46
403.635	115.37
403.844	82.6
404.053	127.66
404.262	64.17
404.471	107.18
404.68	94.89
404.888	103.08
405.097	191.14
405.306	141.99
405.515	119.46
405.724	156.33
405.933	123.56
406.142	148.14
406.35	215.72
406.559	185
406.768	148.14
406.977	209.58
407.185	193.19
407.394	209.58
407.603	195.24
407.812	211.62
408.02	314.02
408.229	189.1
408.438	172.71
408.646	172.71
408.855	213.67
409.064	125.61
409.272	262.82
409.481	170.66
409.69	201.38
409.898	225.96
410.107	301.73
410.315	334.5
410.524	256.68
410.733	344.74
410.941	221.86
411.15	365.22
411.358	422.56
411.567	395.94
411.775	377.51
411.984	357.03
412.192	402.08
412.401	434.85
412.609	516.77
412.818	504.48
413.026	508.58
413.234	443.04
413.443	484
413.651	524.96
413.86	641.7
414.068	610.98
414.276	639.65
414.485	600.74
414.693	676.51
414.901	694.94
415.11	699.04
415.318	643.74
415.526	656.03
415.734	783.01
415.943	723.62
416.151	721.57
416.359	774.81
416.567	852.64
416.776	871.07
416.984	893.6
417.192	901.79
417.4	901.79
417.608	893.6
417.817	1065.63
418.025	1061.53
418.233	1073.82
418.441	1102.49
418.649	1084.06
418.857	1247.9
419.065	1323.67
419.273	1303.19
419.481	1372.82
419.689	1356.44
419.897	1467.03
420.105	1442.45
420.313	1507.99
420.521	1616.53
420.729	1507.99
420.937	1675.92
421.145	1708.69
421.353	1899.15
421.561	1864.33
421.769	1884.81
421.977	2040.46
422.185	1886.86
422.393	2015.88
422.601	2214.54
422.809	2163.34
423.017	2222.73
423.224	2306.7
423.432	2351.75
423.64	2480.77
423.848	2632.32
424.056	2581.12
424.263	2736.77
424.471	2712.19
424.679	2892.41
424.887	2900.61
425.094	3093.12
425.302	3017.34
425.51	3109.5
425.718	3336.82
425.925	3277.43
426.133	3359.35
426.341	3676.79
426.548	3922.54
426.756	3846.77
426.964	3932.78
427.171	4113
427.379	4203.11
427.586	4358.76
427.794	4317.8
428.001	4500.07
428.209	4889.18
428.417	4684.39
428.624	5087.84
428.832	5173.85
429.039	4973.15
429.247	5024.35
429.454	5472.86
429.662	5794.39
429.869	5423.7
430.076	5902.93
430.284	5681.75
430.491	5911.12
430.699	6328.91
430.906	6218.32
431.114	6333
431.321	6507.08
431.528	6685.25
431.736	7115.33
431.943	7430.71
432.15	7184.96
432.358	7254.59
432.565	7420.47
432.772	7690.81
432.979	8110.64
433.187	8096.3
433.394	8268.33
433.601	8798.76
433.808	8759.85
434.016	8765.99
434.223	9294.36
434.43	9650.71
434.637	9464.35
434.844	10117.65
435.052	10363.4
435.259	10140.18
435.466	10258.96
435.673	10248.72
435.88	10830.34
436.087	11569.66
436.294	11444.73
436.501	11137.54
436.708	11465.21
436.915	12009.97
437.122	12337.65
437.329	12337.65
437.537	12501.48
437.743	12904.93
437.95	12693.99
438.157	13292
438.364	13945.3
438.571	13763.03
438.778	13904.34
438.985	15262.15
439.192	14498.25
439.399	15073.73
439.606	14723.53
439.813	15704.51
440.02	16691.63
440.227	16142.77
440.433	16179.64
440.64	16527.79
440.847	16499.12
441.054	17037.73
441.261	18178.45
441.467	17736.09
441.674	18047.38
441.881	18833.8
442.088	18854.28
442.294	18835.85
442.501	19106.18
442.708	19564.93
442.914	20214.13
443.121	20803.95
443.328	20668.78
443.534	21786.97
443.741	21129.58
443.948	20834.67
444.154	22567.25
444.361	22505.81
444.568	22602.07
444.774	22427.99
444.981	22602.07
445.187	23341.38
445.394	24488.24
445.6	24054.08
445.807	26384.66
446.013	25157.93
446.22	25958.69
446.426	26667.28
446.633	27025.68
446.839	28010.75
447.046	26749.2
447.252	28354.81
447.459	28221.69
447.665	28051.71
447.871	29280.49
448.078	30740.69
448.284	29118.7
448.491	29743.33
448.697	31017.17
448.903	31807.69
449.11	31920.32
449.316	31582.41
449.522	31738.05
449.728	32547
449.935	32989.36
450.141	32856.25
450.347	33958.05
450.553	32522.43
450.76	33079.47
450.966	34574.49
451.172	33964.2
451.378	34744.47
451.584	33872.04
451.791	34271.39
451.997	34642.07
452.203	35133.59
452.409	35109.01
452.615	35047.57
452.821	33560.75
453.027	33480.88
453.233	35328.14
453.44	33521.84
453.646	34386.08
453.852	34435.23
454.058	34934.93
454.264	33769.64
454.47	34545.82
454.676	33618.09
454.882	34879.64
455.088	32088.26
455.294	32350.4
455.5	32729.27
455.705	33278.13
455.911	31684.81
456.117	30939.35
456.323	30804.18
456.529	29434.09
456.735	30267.61
456.941	29618.41
457.147	29477.1
457.352	28614.9
457.558	28084.48
457.764	28188.92
457.97	27709.7
458.176	27230.48
458.381	27435.27
458.587	25839.9
458.793	25655.59
458.999	24357.17
459.204	26435.86
459.41	25401.64
459.616	23904.57
459.821	24041.79
460.027	23875.9
460.233	23341.38
460.438	22292.82
460.644	22192.47
460.85	21178.73
461.055	21180.78
461.261	21016.94
461.466	19614.08
461.672	18819.47
461.878	20228.47
462.083	18827.66
462.289	18491.79
462.494	18157.97
462.7	17338.79
462.905	16996.78
463.111	17752.48
463.316	17764.76
463.522	17357.22
463.727	17363.36
463.932	17349.03
464.138	17164.71
464.343	17088.93
464.549	16409.01
464.754	17138.09
464.959	17060.26
465.165	16939.43
465.37	16191.92
465.575	15751.61
465.781	16419.25
465.986	16447.92
466.191	15770.04
466.397	15778.23
466.602	14682.57
466.807	15616.44
467.012	15512
467.218	15249.86
467.423	15067.59
467.628	15188.42
467.833	15696.32
468.038	15356.35
468.244	14696.91
468.449	15364.54
468.654	14819.78
468.859	14875.08
469.064	14447.05
469.269	13957.59
469.474	14201.3
469.679	14858.7
469.885	14270.93
470.09	14307.79
470.295	14244.31
470.5	13689.31
470.705	14062.04
470.91	13652.44
471.115	13437.41
471.32	13765.08
471.525	13650.39
471.73	13179.36
471.935	13412.83
472.139	12728.81
472.344	13056.48
472.549	13005.28
472.754	12673.51
472.959	12427.76
473.164	12251.63
473.369	12077.55
473.574	12427.76
473.778	12388.85
473.983	12343.79
474.188	12218.86
474.393	11639.29
474.598	11870.71
474.802	11702.78
475.007	11583.99
475.212	11610.62
475.417	11174.4
475.621	10979.84
475.826	11330.05
476.031	11149.82
476.235	10885.64
476.44	10865.16
476.645	10773
476.849	10754.57
477.054	10584.59
477.259	10412.56
477.463	10480.14
477.668	10166.8
477.872	10142.22
478.077	10011.15
478.282	9962
478.486	9804.31
478.691	9789.97
478.895	9757.21
479.1	9818.64
479.304	9832.98
479.509	9255.45
479.713	9570.84
479.918	9310.75
480.122	9155.1
480.326	9253.41
480.531	9392.67
480.735	9372.19
480.94	9189.92
481.144	9392.67
481.348	9062.94
481.553	9093.66
481.757	8692.26
481.961	9212.45
482.166	9101.86
482.37	9138.72
482.574	8970.79
482.778	9046.56
482.983	9003.55
483.187	8772.13
483.391	9085.47
483.595	8796.71
483.8	8856.1
484.004	8819.24
484.208	9103.9
484.412	8981.03
484.616	9159.2
484.821	8942.11
485.025	8741.41
485.229	9024.03
485.433	8935.97
485.637	8915.49
485.841	8745.51
486.045	8849.96
486.249	8809
486.453	9007.65
486.657	8946.21
486.861	9097.76
487.065	8620.58
487.269	8872.48
487.473	8700.45
487.677	8837.67
487.881	9087.52
488.085	8765.99
488.289	8972.83
488.493	8985.12
488.697	8725.03
488.901	8827.43
489.105	8974.88
489.309	9024.03
489.512	9052.7
489.716	9024.03
489.92	8847.91
490.124	9044.51
490.328	9169.44
490.531	9112.1
490.735	9089.57
490.939	9148.96
491.143	8995.36
491.346	8997.41
491.55	9191.97
491.754	9493.02
491.958	9337.37
492.161	9286.17
492.365	9318.94
492.569	9712.15
492.772	9269.79
492.976	9464.35
493.18	9628.18
493.383	9728.53
493.587	9785.88
493.79	9880.08
493.994	9708.05
494.197	9601.56
494.401	9814.55
494.605	9736.73
494.808	10058.26
495.012	10023.44
495.215	10140.18
495.419	10168.85
495.622	10062.35
495.825	10306.06
496.029	10203.66
496.232	10594.83
496.436	10578.44
496.639	10891.78
496.843	10652.17
497.046	10705.42
497.249	10936.84
497.453	11008.51
497.656	11332.09
497.859	11211.26
498.063	11115.01
498.266	11649.53
498.469	11583.99
498.673	11680.25
498.876	11778.55
499.079	11936.24
499.282	12069.36
499.485	12354.03
499.689	12024.31
499.892	12632.55
500.095	12362.22
500.298	12884.45
500.501	12798.44
500.705	12954.08
500.908	13150.69
501.111	13173.22
501.314	13255.14
501.517	13459.93
501.72	13697.5
501.923	13687.26
502.126	13994.45
502.329	14170.58
502.532	13924.82
502.735	14397.9
502.938	14664.14
503.141	14463.44
503.344	14875.08
503.547	14881.22
503.75	15294.91
503.953	15163.84
504.156	15444.41
504.359	15573.44
504.562	15868.34
504.765	16071.09
504.968	16120.24
505.17	16345.52
505.373	16441.78
505.576	16433.58
505.779	17043.88
505.982	16693.68
506.185	17047.97
506.387	17236.39
506.59	17287.59
506.793	17873.31
506.996	17246.63
507.198	18196.88
507.401	18125.21
507.604	18391.44
507.807	18397.59
508.009	18952.59
508.212	18780.56
508.415	18975.11
508.617	19382.66
508.82	19601.79
509.022	19251.59
509.225	19857.79
509.428	20060.54
509.63	20054.39
509.833	20371.83
510.035	20789.61
510.238	20459.89
510.44	20896.11
510.643	21172.58
510.845	21361
511.048	21111.14
511.25	21764.45
511.453	21731.68
511.655	22251.86
511.858	22387.03
512.06	22552.91
512.262	22651.22
512.465	22860.11
512.667	22982.99
512.87	23249.22
513.072	23566.66
513.274	23753.02
513.477	23978.3
513.679	24148.28
513.881	24480.05
514.084	24555.83
514.286	24549.68
514.488	24856.88
514.69	25198.89
514.893	25551.14
515.095	25413.93
515.297	25803.04
515.499	25809.18
515.701	26130.72
515.904	26573.08
516.106	26802.45
516.308	26929.42
516.51	27232.52
516.712	27021.58
516.914	27349.26
517.116	28016.9
517.318	28180.73
517.52	28016.9
517.722	28420.34
517.925	28598.52
518.127	29257.96
518.329	28944.62
518.531	28946.67
518.733	29667.56
518.935	29923.55
519.136	29952.23
519.338	30300.38
519.54	30480.6
519.742	30787.8
519.944	30656.73
520.146	31090.9
520.348	31303.88
520.55	31604.94
520.752	31717.57
520.954	31938.76
521.155	32045.25
521.357	32286.91
521.559	32946.36
521.761	33124.53
521.963	32987.32
522.164	33484.97
522.366	33599.66
522.568	33751.21
522.77	33933.48
522.971	34140.32
523.173	34158.75
523.375	34394.27
523.576	34570.4
523.778	34476.19
523.98	35238.03
524.181	35270.8
524.383	35217.55
524.584	35645.58
524.786	35487.89
524.988	35682.44
525.189	36126.85
525.391	36225.15
525.592	36575.36
525.794	36528.25
525.995	36280.45
526.197	36548.73
526.398	36843.64
526.6	37146.74
526.801	37136.5
527.003	37050.49
527.204	37341.3
527.406	37822.57
527.607	37552.24
527.808	37597.29
528.01	37163.12
528.211	37662.83
528.412	38439.01
528.614	38340.71
528.815	37763.18
529.016	38838.36
529.218	38154.34
529.419	37949.54
529.62	38598.75
529.822	38266.98
530.023	38840.41
530.224	38756.44
530.425	38504.54
530.626	38045.8
530.828	38510.69
531.029	38928.47
531.23	38738.01
531.431	38680.67
531.632	38754.4
531.833	38793.31
532.035	38975.58
532.236	39096.41
532.437	38996.06
532.638	39037.01
532.839	39110.74
533.04	39057.49
533.241	38748.25
533.442	39659.6
533.643	39241.81
533.844	39481.42
534.045	39229.52
534.246	38903.9
534.447	39641.17
534.648	38883.42
534.849	39743.56
535.05	38838.36
535.251	39405.65
535.451	38975.58
535.652	39671.89
535.853	39045.21
536.054	39299.15
536.255	39202.9
536.456	39000.15
536.657	39200.85
536.857	39133.27
537.058	38875.23
537.259	39565.39
537.46	39219.28
537.66	38969.43
537.861	39237.72
538.062	39307.35
538.263	39190.61
538.463	39016.54
538.664	39092.31
538.865	39417.94
539.065	39364.69
539.266	38824.03
539.466	39379.03
539.667	38643.81
539.868	39542.86
540.068	39024.73
540.269	39211.09
540.469	39680.08
540.67	39190.61
540.87	39131.22
541.071	39073.88
541.271	39221.33
541.472	38879.32
541.672	39018.58
541.873	38805.59
542.073	38707.29
542.274	39028.82
542.474	38512.74
542.675	38656.09
542.875	39225.43
543.075	38955.1
543.276	38590.56
543.476	38910.04
543.676	38428.77
543.877	38881.37
544.077	38815.83
544.277	38629.47
544.478	38692.96
544.678	38905.94
544.878	38686.81
545.078	38959.19
545.279	38293.6
545.479	38494.3
545.679	38856.79
545.879	38633.57
546.079	38752.35
546.28	38649.95
546.48	38586.46
546.68	38656.09
546.88	38719.58
547.08	38649.95
547.28	38533.21
547.48	38230.12
547.68	38623.33
547.88	37994.6
548.081	38770.78
548.281	38445.15
548.481	38135.91
548.681	38527.07
548.881	38144.1
549.081	38484.06
549.28	38203.49
549.48	38326.37
549.68	38367.33
549.88	38539.36
550.08	38316.13
550.28	38725.72
550.48	38361.19
550.68	38563.93
550.88	37955.69
551.08	38465.63
551.279	38350.95
551.479	38074.47
551.679	38342.75
551.879	38334.56
552.079	38557.79
552.278	37976.17
552.478	38420.58
552.678	38350.95
552.878	38525.02
553.077	38097
553.277	38244.45
553.477	38432.86
553.676	38146.15
553.876	37841
554.076	38115.43
554.275	38002.79
554.475	37591.15
554.674	38209.64
554.874	38015.08
555.074	37759.08
555.273	38051.94
555.473	37666.92
555.672	37711.98
555.872	37802.09
556.071	37943.4
556.271	37865.58
556.47	37832.81
556.67	37464.18
556.869	37929.06
557.068	37761.13
557.268	37402.74
557.467	37517.42
557.667	37533.81
557.866	37693.55
558.065	37531.76
558.265	37249.14
558.464	37038.2
558.663	37814.38
558.863	36794.49
559.062	37775.47
559.261	36669.56
559.461	37576.81
559.66	36774.01
559.859	37228.66
560.058	37015.67
560.258	37097.59
560.457	36696.19
560.656	37404.78
560.855	36808.82
561.054	37159.03
561.253	36614.27
561.453	36524.16
561.652	37132.4
561.851	36997.24
562.05	36884.6
562.249	36651.13
562.448	36663.42
562.647	36630.65
562.846	36669.56
563.045	36679.8
563.244	35983.49
563.443	36673.66
563.642	36124.8
563.841	36153.47
564.04	36386.94
564.239	36673.66
564.438	36055.17
564.637	36466.81
564.836	36276.35
565.035	35739.79
565.234	36120.71
565.432	35864.71
565.631	35864.71
565.83	35795.08
566.029	35575.95
566.228	35311.76
566.427	35524.75
566.625	35303.57
566.824	35154.07
567.023	35545.23
567.222	34928.79
567.42	35182.74
567.619	35100.82
567.818	35012.76
568.016	34969.75
568.215	35412.11
568.414	34795.67
568.612	35172.5
568.811	34701.47
569.01	34721.94
569.208	34343.07
569.407	34795.67
569.605	34433.18
569.804	34508.96
570.002	34080.93
570.201	34226.34
570.4	34001.06
570.598	34001.06
570.797	34130.08
570.995	34261.15
571.193	33536.17
571.392	34025.64
571.59	33679.53
571.789	33570.99
571.987	33757.35
572.186	33765.54
572.384	33263.79
572.582	33722.54
572.781	33654.95
572.979	32983.22
573.177	33437.87
573.376	33358
573.574	32895.16
573.772	33599.66
573.971	33052.85
574.169	32725.18
574.367	32665.78
574.565	32821.43
574.763	32876.72
574.962	32663.74
575.16	32389.31
575.358	32594.11
575.556	32020.67
575.754	32544.95
575.952	32188.61
576.151	32682.17
576.349	32159.94
576.547	32219.33
576.745	32250.05
576.943	32041.15
577.141	31860.93
577.339	32250.05
577.537	31537.35
577.735	31660.23
577.933	31461.58
578.131	31664.33
578.329	31416.52
578.527	31373.52
578.725	31008.98
578.923	31054.03
579.121	30982.35
579.319	31090.9
579.516	31240.4
579.714	31314.12
579.912	30945.49
580.11	30912.72
580.308	30544.09
580.506	30654.68
580.704	30394.59
580.901	30691.54
581.099	30771.41
581.297	30152.93
581.495	30406.87
581.692	30621.91
581.89	30150.88
582.088	29984.99
582.285	29952.23
582.483	30220.51
582.681	30191.84
582.878	29528.3
583.076	29731.04
583.274	29964.51
583.471	29219.05
583.669	29583.59
583.866	29548.78
584.064	29544.68
584.262	29434.09
584.459	29552.87
584.657	29286.64
584.854	29544.68
585.052	28659.96
585.249	29106.41
585.447	28920.05
585.644	28887.28
585.841	28799.22
586.039	29317.36
586.236	28584.18
586.434	28401.91
586.631	28428.54
586.828	28074.24
587.026	28305.66
587.223	28199.16
587.42	27953.41
587.618	28231.93
587.815	27842.82
588.012	27943.17
588.21	27744.52
588.407	28068.09
588.604	27834.63
588.801	27547.91
588.999	27564.29
589.196	27115.79
589.393	27255.05
589.59	27511.05
589.787	27396.36
589.984	27042.06
590.182	26765.59
590.379	27363.59
590.576	26851.6
590.773	27234.57
590.97	26683.67
591.167	26984.72
591.364	26548.5
591.561	26792.21
591.758	26122.52
591.955	26388.76
592.152	26454.29
592.349	26429.72
592.546	26388.76
592.743	26435.86
592.94	26026.27
593.137	25952.54
593.334	26011.93
593.531	25772.32
593.727	25426.21
593.924	25880.86
594.121	25596.2
594.318	25907.49
594.515	25657.64
594.712	25790.75
594.908	25100.59
595.105	25747.75
595.302	25047.34
595.499	25325.86
595.696	25092.4
595.892	24897.84
596.089	25182.51
596.286	25180.46
596.482	24897.84
596.679	24721.71
596.876	25014.57
597.072	24631.6
597.269	24435
597.466	24873.26
597.662	24441.14
597.859	24613.17
598.055	24422.71
598.252	24181.05
598.448	24236.34
598.645	24129.85
598.841	24033.6
599.038	24084.8
599.234	23890.24
599.431	23732.54
599.627	23433.54
599.824	23963.96
600.02	23458.12
600.217	23554.37
600.413	23642.43
600.609	23308.61
600.806	23255.37
601.002	23499.08
601.198	23128.39
601.395	22821.2
601.591	23204.17
601.787	23155.02
601.984	22995.28
602.18	23181.64
602.376	22954.32
602.572	22853.97
602.769	22808.91
602.965	22360.41
603.161	22563.15
603.357	22341.97
603.553	22333.78
603.75	22356.31
603.946	22178.14
604.142	22364.5
604.338	22094.17
604.534	22006.11
604.73	21930.33
604.926	21938.52
605.122	22139.22
605.318	21930.33
605.514	21852.51
605.71	21799.26
605.906	21614.94
606.102	21729.63
606.298	21678.43
606.494	21748.06
606.69	21381.48
606.886	21516.64
607.082	20971.88
607.278	21391.72
607.474	20922.73
607.67	21369.19
607.866	20808.05
608.062	21418.34
608.257	21033.32
608.453	21186.92
608.649	21229.93
608.845	20754.8
609.041	20779.37
609.236	21137.77
609.432	20857.2
609.628	20787.57
609.824	20955.5
610.019	20683.12
610.215	20285.81
610.411	20691.31
610.606	20621.68
610.802	20468.08
610.998	20363.64
611.193	20308.34
611.389	20300.15
611.584	20373.88
611.78	19939.71
611.976	20181.37
612.171	20136.31
612.367	20277.62
612.562	20189.56
612.758	19865.98
612.953	20255.09
613.149	20384.12
613.344	19861.88
613.539	20187.51
613.735	19900.79
613.93	20273.53
614.126	19812.73
614.321	20164.98
614.517	20087.16
614.712	19571.07
614.907	19710.33
615.103	19693.95
615.298	19485.06
615.493	19851.64
615.688	19319.17
615.884	19841.4
616.079	19485.06
616.274	19538.3
616.47	19497.35
616.665	19304.84
616.86	19132.81
617.055	19155.33
617.25	19290.5
617.445	19353.99
617.641	18938.25
617.836	19048.84
618.031	18645.39
618.226	18932.11
618.421	18891.15
618.616	19224.97
618.811	18672.01
619.006	19177.86
619.201	18702.73
619.396	18796.94
619.591	18186.65
619.786	18692.49
619.981	18233.75
620.176	18483.6
620.371	18278.8
620.566	18221.46
620.761	18071.96
620.956	18217.36
621.151	17750.43
621.346	18096.53
621.541	17535.39
621.735	17684.89
621.93	17400.23
622.125	17498.53
622.32	17117.61
622.515	17459.62
622.709	17015.21
622.904	17160.61
623.099	17109.41
623.294	17113.51
623.488	16824.75
623.683	16925.1
623.878	16583.09
624.072	16869.8
624.267	16837.03
624.462	16482.74
624.656	16585.13
624.851	16564.65
625.046	16550.32
625.24	16200.12
625.435	16110
625.629	16052.66
625.824	15899.06
626.018	16064.95
626.213	15417.79
626.407	15753.66
626.602	15655.36
626.796	15585.72
626.991	15555.01
627.185	15104.45
627.38	15221.19
627.574	15212.99
627.768	14946.76
627.963	15026.63
628.157	14782.92
628.352	14715.34
628.546	14612.94
628.74	14744.01
628.935	14590.41
629.129	14631.37
629.323	14402
629.517	14332.37
629.712	14336.46
629.906	14332.37
630.1	14008.79
630.294	14160.34
630.489	14049.75
630.683	14213.59
630.877	13777.37
631.071	13877.72
631.265	13900.25
631.459	14059.99
631.653	13738.46
631.848	13746.65
632.042	13580.76
632.236	13736.41
632.43	13183.46
632.624	13486.56
632.818	13201.89
633.012	13076.96
633.206	13175.27
633.4	12917.22
633.594	12952.04
633.788	12777.96
633.982	12984.8
634.176	12857.83
634.369	12927.46
634.563	12536.3
634.757	12464.62
634.951	12548.59
635.145	12503.53
635.339	12444.14
635.533	12308.97
635.726	12313.07
635.92	12179.95
636.114	12341.74
636.308	12145.14
636.501	12110.32
636.695	12003.83
636.889	11934.2
637.083	11809.27
637.276	11670.01
637.47	11829.75
637.664	11483.64
637.857	11698.68
638.051	11776.5
638.244	11618.81
638.438	11248.13
638.632	11352.57
638.825	11346.43
639.019	11248.13
639.212	11231.74
639.406	11198.98
639.599	11086.34
639.793	11125.25
639.986	10867.2
640.18	11037.19
640.373	10834.44
640.567	10588.68
640.76	10717.7
640.954	10717.7
641.147	10547.72
641.34	10699.27
641.534	10598.92
641.727	10512.91
641.92	10621.45
642.114	10347.02
642.307	10291.73
642.5	10056.21
642.694	10041.87
642.887	10220.05
643.08	10224.14
643.273	9896.47
643.467	10007.06
643.66	9839.12
643.853	9703.96
644.046	9806.36
644.239	9734.68
644.432	9693.72
644.626	9859.6
644.819	9654.81
645.012	9593.37
645.205	9619.99
645.398	9394.72
645.591	9388.57
645.784	9185.82
645.977	9222.69
646.17	9237.02
646.363	9103.9
646.556	9101.86
646.749	8849.96
646.942	8954.4
647.135	8964.64
647.328	8866.34
647.521	8823.33
647.714	8815.14
647.907	8725.03
648.099	8913.44
648.292	8776.23
648.485	8847.91
648.678	8399.4
648.871	8661.54
649.064	8620.58
649.256	8593.96
649.449	8495.66
649.642	8364.59
649.835	8305.2
650.027	8294.96
650.22	8405.55
650.413	8229.42
650.605	8157.74
650.798	8092.21
650.991	8028.72
651.183	8153.65
651.376	8038.96
651.568	8036.91
651.761	7801.4
651.954	7954.99
652.146	8073.78
652.339	7881.27
652.531	7510.58
652.724	7672.37
652.916	7553.59
653.109	7805.49
653.301	7582.26
653.494	7701.05
653.686	7457.34
653.879	7678.52
654.071	7567.93
654.263	7356.99
654.456	7475.77
654.648	7572.02
654.84	7356.99
655.033	7322.17
655.225	7113.28
655.417	7197.24
655.61	7232.06
655.802	7281.21
655.994	7053.89
656.186	7152.19
656.379	7258.68
656.571	7135.81
656.763	6963.78
656.955	7033.41
657.148	6931.01
657.34	7035.46
657.532	6758.98
657.724	6767.17
657.916	6783.56
658.108	6767.17
658.3	6662.72
658.492	6810.18
658.684	6605.38
658.876	6652.49
659.068	6531.65
659.26	6355.53
659.452	6644.29
659.644	6502.98
659.836	6408.78
660.028	6496.84
660.22	6228.56
660.412	6361.67
660.604	6138.44
660.796	6271.56
660.988	6218.32
661.18	6109.77
661.372	6048.33
661.563	6019.66
661.755	6058.57
661.947	6193.74
662.139	5802.58
662.331	5962.32
662.522	5997.14
662.714	6087.25
662.906	5755.47
663.097	5845.59
663.289	5687.89
663.481	5861.97
663.673	5849.68
663.864	5896.78
664.056	5673.56
664.247	5898.83
664.439	5794.39
664.631	5800.53
664.822	5691.99
665.014	5597.78
665.205	5659.22
665.397	5562.97
665.588	5624.4
665.78	5601.88
665.971	5517.91
666.163	5636.69
666.354	5218.91
666.546	5382.74
666.737	5180
666.929	5366.36
667.12	5352.02
667.311	5276.25
667.503	5392.98
667.694	5261.91
667.885	5151.32
668.077	5245.53
668.268	5134.94
668.459	5243.48
668.651	5098.08
668.842	5073.5
669.033	5032.54
669.224	4971.1
669.416	5212.76
669.607	5012.06
669.798	4938.34
669.989	5147.23
670.18	5139.04
670.371	4815.46
670.563	4801.12
670.754	4903.52
670.945	4964.96
671.136	4905.57
671.327	4725.35
671.518	4899.42
671.709	4756.07
671.9	4854.37
672.091	4815.46
672.282	4735.59
672.473	4733.54
672.664	4788.83
672.855	4532.84
673.046	4768.35
673.237	4692.58
673.428	4817.51
673.619	4799.07
673.809	4639.33
674	4565.6
674.191	4655.72
674.382	4596.32
674.573	4528.74
674.764	4608.61
674.954	4424.3
675.145	4627.04
675.336	4450.92
675.527	4604.52
675.717	4543.08
675.908	4434.53
676.099	4545.13
676.289	4399.72
676.48	4338.28
676.671	4295.27
676.861	4366.95
677.052	4297.32
677.243	4213.35
677.433	4174.44
677.624	4268.65
677.814	4260.46
678.005	4344.42
678.195	4338.28
678.386	4293.23
678.576	4311.66
678.767	4172.39
678.957	4178.54
679.148	4211.31
679.338	4164.2
679.529	4115.05
679.719	4096.62
679.909	4325.99
680.1	4254.31
680.29	4270.7
680.481	4164.2
680.671	4119.15
680.861	4067.95
681.052	4029.04
681.242	4106.86
681.432	4080.24
681.622	3981.93
681.813	4135.53
682.003	4104.81
682.193	4133.48
682.383	4178.54
682.573	4074.09
682.764	4008.56
682.954	4125.29
683.144	4033.13
683.334	3918.45
683.524	3965.55
683.714	3912.3
683.904	3957.36
684.094	3998.32
684.284	4063.85
684.474	3936.88
684.664	4057.71
684.854	3818.1
685.044	3803.76
685.234	3881.58
685.424	3910.25
685.614	3795.57
685.804	3816.05
685.994	3832.43
686.184	3680.88
686.374	3758.71
686.564	3781.23
686.753	3754.61
686.943	3693.17
687.133	3596.92
687.323	3572.34
687.513	3746.42
687.702	3695.22
687.892	3773.04
688.082	3566.2
688.272	3777.14
688.461	3539.57
688.651	3723.89
688.841	3562.1
689.03	3572.34
689.22	3560.05
689.41	3551.86
689.599	3543.67
689.789	3523.19
689.979	3414.65
690.168	3576.44
690.358	3508.85
690.547	3445.37
690.737	3404.41
690.926	3484.28
691.116	3316.34
691.305	3271.29
691.495	3476.09
691.684	3250.81
691.874	3351.16
692.063	3383.93
692.252	3377.78
692.442	3312.25
692.631	3289.72
692.82	3285.62
693.01	3332.73
693.199	3099.26
693.388	3228.28
693.578	3211.9
693.767	3123.84
693.956	3261.05
694.146	3181.18
694.335	3158.65
694.524	3283.58
694.713	3117.69
694.902	3238.52
695.092	3076.73
695.281	3033.72
695.47	3117.69
695.659	3097.21
695.848	2992.76
696.037	2916.99
696.226	3125.88
696.415	3015.29
696.604	2998.91
696.793	2986.62
696.982	3064.44
697.171	3019.39
697.36	2912.89
697.549	2953.85
697.738	2988.67
697.927	2964.09
698.116	2921.09
698.305	2966.14
698.494	2937.47
698.683	3027.58
698.872	2921.09
699.061	2839.17
699.25	2835.07
699.438	2976.38
699.627	2873.98
699.816	2962.05
700.005	2665.09
700.193	2943.61
700.382	2837.12
700.571	2855.55
700.76	2992.76
700.948	2878.08
701.137	2796.16
701.326	2732.67
701.514	2851.46
701.703	2830.98
701.892	2790.02
702.08	2912.89
702.269	2886.27
702.457	2806.4
702.646	2884.22
702.834	2757.25
703.023	2822.78
703.212	2761.34
703.4	2720.39
703.589	2781.82
703.777	2837.12
703.965	2714.24
704.154	2697.86
704.342	2835.07
704.531	2732.67
704.719	2673.28
704.907	2847.36
705.096	2695.81
705.284	2863.74
705.472	2740.86
705.661	2818.69
705.849	2841.22
706.037	2912.89
706.226	2785.92
706.414	2747.01
706.602	2759.3
706.79	2757.25
706.979	2685.57
707.167	2681.47
707.355	2687.62
707.543	2638.47
707.731	2681.47
707.919	2620.03
708.107	2712.19
708.296	2671.23
708.484	2763.39
708.672	2714.24
708.86	2609.79
709.048	2736.77
709.236	2560.64
709.424	2837.12
709.612	2515.59
709.8	2597.51
709.988	2570.88
710.176	2642.56
710.364	2697.86
710.551	2558.6
710.739	2753.15
710.927	2648.71
711.115	2691.71
711.303	2572.93
711.491	2704
711.679	2669.19
711.866	2732.67
712.054	2630.27
712.242	2515.59
712.43	2546.31
712.617	2595.46
712.805	2583.17
712.993	2491.01
713.181	2585.22
713.368	2564.74
713.556	2566.79
713.744	2493.06
713.931	2679.43
714.119	2572.93
714.306	2640.51
714.494	2540.16
714.682	2556.55
714.869	2468.48
715.057	2605.7
715.244	2507.4
715.432	2574.98
715.619	2564.74
715.807	2499.2
715.994	2495.11
716.182	2441.86
716.369	2531.97
716.556	2624.13
716.744	2517.64
716.931	2413.19
717.119	2507.4
717.306	2482.82
717.493	2511.49
717.681	2499.2
717.868	2556.55
718.055	2507.4
718.242	2611.84
718.43	2499.2
718.617	2558.6
718.804	2519.68
718.991	2478.72
719.179	2536.07
719.366	2425.48
719.553	2548.36
719.74	2335.37
719.927	2499.2
720.114	2394.76
720.301	2378.37
720.488	2388.61
720.676	2372.23
720.863	2384.52
721.05	2574.98
721.237	2429.57
721.424	2511.49
721.611	2529.92
721.798	2351.75
721.985	2339.46
722.172	2325.13
722.358	2368.13
722.545	2378.37
722.732	2458.25
722.919	2394.76
723.106	2380.42
723.293	2398.85
723.48	2501.25
723.667	2292.36
723.853	2327.18
724.04	2378.37
724.227	2392.71
724.414	2355.85
724.6	2394.76
724.787	2531.97
724.974	2386.57
725.161	2304.65
725.347	2294.41
725.534	2513.54
725.72	2423.43
725.907	2470.53
726.094	2374.28
726.28	2491.01
726.467	2343.56
726.653	2263.69
726.84	2359.94
727.027	2409.09
727.213	2286.22
727.4	2345.61
727.586	2345.61
727.773	2376.33
727.959	2388.61
728.145	2304.65
728.332	2359.94
728.518	2341.51
728.705	2296.46
728.891	2357.89
729.077	2407.05
729.264	2247.3
729.45	2448.01
729.636	2392.71
729.823	2351.75
730.009	2335.37
730.195	2445.96
730.382	2325.13
730.568	2278.02
730.754	2351.75
730.94	2343.56
731.126	2269.83
731.313	2429.57
731.499	2441.86
731.685	2288.26
731.871	2437.77
732.057	2312.84
732.243	2400.9
732.429	2353.8
732.615	2329.22
732.801	2368.13
732.987	2278.02
733.173	2294.41
733.359	2380.42
733.545	2263.69
733.731	2331.27
733.917	2271.88
734.103	2339.46
734.289	2339.46
734.475	2314.89
734.661	2384.52
734.847	2284.17
735.033	2149
735.219	2312.84
735.404	2214.54
735.59	2253.45
735.776	2284.17
735.962	2241.16
736.148	2400.9
736.333	2288.26
736.519	2267.78
736.705	2255.5
736.89	2214.54
737.076	2228.87
737.262	2247.3
737.447	2220.68
737.633	2173.58
737.819	2286.22
738.004	2175.63
738.19	2302.6
738.375	2140.81
738.561	2245.26
738.747	2208.39
738.932	2149
739.118	2302.6
739.303	2204.3
739.489	2222.73
739.674	2114.19
739.859	2169.48
740.045	2138.76
740.23	2210.44
740.416	2099.85
740.601	2222.73
740.786	2077.32
740.972	2179.72
741.157	2165.39
741.342	2028.17
741.528	2171.53
741.713	2200.2
741.898	2097.8
742.084	2036.36
742.269	2065.04
742.454	2105.99
742.639	2198.15
742.824	2038.41
743.01	2052.75
743.195	2105.99
743.38	1942.16
743.565	2024.08
743.75	1952.4
743.935	1966.73
744.12	2017.93
744.305	1991.31
744.49	1956.49
744.675	1895.05
744.86	2024.08
745.045	1991.31
745.23	1905.29
745.415	1933.97
745.6	1950.35
745.785	1823.37
745.97	1991.31
746.155	1933.97
746.34	1878.67
746.525	1936.01
746.71	1901.2
746.895	1854.09
747.079	1872.53
747.264	1829.52
747.449	1802.9
747.634	1866.38
747.819	1854.09
748.003	1673.87
748.188	1790.61
748.373	1755.79
748.557	1706.64
748.742	1698.45
748.927	1696.4
749.111	1698.45
749.296	1675.92
749.481	1806.99
749.665	1663.63
749.85	1712.78
750.034	1661.59
750.219	1641.11
750.404	1720.98
750.588	1698.45
750.773	1657.49
750.957	1634.96
751.141	1661.59
751.326	1677.97
751.51	1579.67
751.695	1575.57
751.879	1536.66
752.064	1620.63
752.248	1587.86
752.432	1600.15
752.617	1518.23
752.801	1493.65
752.985	1524.37
753.17	1546.9
753.354	1534.61
753.538	1479.32
753.722	1516.18
753.907	1485.46
754.091	1409.69
754.275	1393.3
754.459	1424.02
754.643	1413.78
754.828	1426.07
755.012	1407.64
755.196	1401.49
755.38	1352.34
755.564	1290.9
755.748	1321.62
755.932	1286.81
756.116	1421.97
756.3	1315.48
756.484	1352.34
756.668	1338.01
756.852	1276.57
757.036	1231.51
757.22	1221.27
757.404	1311.38
757.588	1243.8
757.772	1270.42
757.956	1077.91
758.14	1211.03
758.323	1110.68
758.507	1208.98
758.691	1237.66
758.875	1165.98
759.059	1204.89
759.242	1065.63
759.426	1172.12
759.61	1186.46
759.794	1190.55
759.977	1184.41
760.161	1194.65
760.345	1118.87
760.528	1161.88
760.712	1131.16
760.895	1057.43
761.079	1026.71
761.263	1051.29
761.446	991.9
761.63	1051.29
761.813	1043.1
761.997	1090.2
762.18	987.8
762.364	1088.15
762.547	1051.29
762.731	1110.68
762.914	1108.63
763.098	959.13
763.281	1051.29
763.464	942.75
763.648	1034.91
763.831	1012.38
764.015	1020.57
764.198	998.04
764.381	983.71
764.564	1006.24
764.748	1000.09
764.931	934.56
765.114	1004.19
765.297	1006.24
765.481	948.89
765.664	922.27
765.847	973.47
766.03	1004.19
766.213	942.75
766.397	877.21
766.58	979.61
766.763	920.22
766.946	869.02
767.129	877.21
767.312	934.56
767.495	959.13
767.678	858.78
767.861	854.69
768.044	926.36
768.227	844.45
768.41	840.35
768.593	836.25
768.776	764.57
768.959	834.21
769.142	1026.71
769.324	852.64
769.507	912.03
769.69	848.54
769.873	805.53
770.056	901.79
770.239	836.25
770.421	807.58
770.604	881.31
770.787	844.45
770.97	795.29
771.152	783.01
771.335	885.41
771.518	780.96
771.7	723.62
771.883	819.87
772.066	778.91
772.248	797.34
772.431	783.01
772.613	813.73
772.796	750.24
772.978	783.01
773.161	856.73
773.343	709.28
773.526	807.58
773.708	791.2
773.891	705.18
774.073	688.8
774.256	809.63
774.438	778.91
774.621	674.46
774.803	703.14
774.985	666.27
775.168	701.09
775.35	658.08
775.532	647.84
775.715	760.48
775.897	633.5
776.079	639.65
776.261	674.46
776.444	748.19
776.626	610.98
776.808	561.83
776.99	617.12
777.173	555.68
777.355	600.74
777.537	582.31
777.719	610.98
777.901	543.39
778.083	608.93
778.265	590.5
778.447	680.61
778.629	647.84
778.811	535.2
778.993	588.45
779.175	643.74
779.357	570.02
779.539	535.2
779.721	557.73
779.903	533.15
780.085	582.31
780.267	553.63
780.449	574.11
780.631	518.82
780.812	576.16
780.994	533.15
781.176	574.11
781.358	494.24
781.54	543.39
781.721	486.05
781.903	445.09
782.085	570.02
782.267	486.05
782.448	453.28
782.63	410.28
782.812	506.53
782.993	486.05
783.175	598.69
783.357	508.58
783.538	477.86
783.72	445.09
783.901	426.66
784.083	494.24
784.264	551.59
784.446	455.33
784.627	385.7
784.809	402.08
784.99	488.1
785.172	410.28
785.353	404.13
785.535	404.13
785.716	410.28
785.897	430.76
786.079	402.08
786.26	402.08
786.441	361.13
786.623	395.94
786.804	479.91
786.985	414.37
787.167	438.95
787.348	391.84
787.529	365.22
787.71	316.07
787.891	379.56
788.073	418.47
788.254	328.36
788.435	393.89
788.616	352.93
788.797	279.21
788.978	352.93
789.159	369.32
789.34	379.56
789.522	375.46
789.703	330.41
789.884	332.45
790.065	348.84
790.246	348.84
790.427	289.45
790.607	389.8
790.788	336.55
790.969	273.06
791.15	361.13
791.331	436.9
791.512	340.65
791.693	271.01
791.874	307.88
792.054	336.55
792.235	303.78
792.416	318.12
792.597	271.01
792.778	291.49
792.958	303.78
793.139	295.59
793.32	328.36
793.5	344.74
793.681	354.98
793.862	244.39
794.042	328.36
794.223	242.34
794.404	301.73
794.584	262.82
794.765	228.01
794.945	268.97
795.126	271.01
795.306	303.78
795.487	271.01
795.667	242.34
795.848	223.91
796.028	238.25
796.209	279.21
796.389	244.39
796.57	232.1
796.75	287.4
796.93	217.77
797.111	303.78
797.291	258.73
797.471	230.06
797.652	207.53
797.832	264.87
798.012	328.36
798.192	221.86
798.373	205.48
798.553	234.15
798.733	246.44
798.913	250.53
799.093	246.44
799.274	234.15
799.454	228.01
799.634	205.48
799.814	262.82
799.994	289.45
800.174	236.2
800.354	185
800.534	262.82
800.714	178.86
800.894	254.63
801.074	254.63
801.254	207.53
801.434	189.1
801.614	213.67
801.794	201.38
801.974	742.05
802.154	125.61
802.334	246.44
802.514	172.71
802.693	191.14
802.873	262.82
803.053	193.19
803.233	209.58
803.413	256.68
803.592	213.67
803.772	191.14
803.952	158.38
804.131	152.23
804.311	139.94
804.491	242.34
804.67	221.86
804.85	66.22
805.03	252.58
805.209	230.06
805.389	172.71
805.568	191.14
805.748	131.75
805.928	197.29
806.107	236.2
806.287	152.23
806.466	156.33
806.646	217.77
806.825	148.14
807.004	133.8
807.184	193.19
807.363	207.53
807.543	195.24
807.722	82.6
807.901	148.14
808.081	219.82
808.26	217.77
808.439	197.29
808.619	242.34
808.798	144.04
808.977	107.18
809.156	205.48
809.336	98.99
809.515	199.34
809.694	199.34
809.873	180.9
810.052	152.23
810.231	94.89
810.411	156.33
810.59	174.76
810.769	164.52
810.948	166.57
811.127	107.18
811.306	166.57
811.485	156.33
811.664	205.48
811.843	109.22
812.022	144.04
812.201	135.85
812.38	141.99
812.559	68.27
812.737	180.9
812.916	127.66
813.095	98.99
813.274	166.57
813.453	117.42
813.632	230.06
813.811	172.71
813.989	72.36
814.168	107.18
814.347	74.41
814.526	115.37
814.704	182.95
814.883	60.07
815.062	125.61
815.24	141.99
815.419	49.83
815.598	41.64
815.776	72.36
815.955	98.99
816.133	105.13
816.312	131.75
816.49	68.27
816.669	109.22
816.847	131.75
817.026	172.71
817.204	125.61
817.383	101.03
817.561	33.45
817.74	189.1
817.918	113.32
818.097	92.84
818.275	101.03
818.453	51.88
818.632	242.34
818.81	135.85
818.988	51.88
819.167	139.94
819.345	164.52
819.523	117.42
819.701	39.59
819.879	117.42
820.058	148.14
820.236	168.62
820.414	141.99
820.592	68.27
820.77	90.79
820.948	45.74
821.127	84.65
821.305	66.22
821.483	58.03
821.661	127.66
821.839	94.89
822.017	88.75
822.195	45.74
822.373	80.55
822.551	209.58
822.729	125.61
822.907	125.61
823.085	154.28
823.262	94.89
823.44	82.6
823.618	72.36
823.796	101.03
823.974	72.36
824.152	90.79
824.329	98.99
824.507	125.61
824.685	127.66
824.863	103.08
825.04	80.55
825.218	41.64
825.396	82.6
825.574	76.46
825.751	8.87
825.929	101.03
826.107	111.27
826.284	41.64
826.462	70.31
826.639	29.35
826.817	-1.37
826.994	107.18
827.172	37.55
827.349	191.14
827.527	82.6
827.704	90.79
827.882	92.84
828.059	45.74
828.237	84.65
828.414	82.6
828.591	43.69
828.769	-23.89
828.946	12.97
829.124	76.46
829.301	127.66
829.478	43.69
829.655	101.03
829.833	41.64
830.01	66.22
830.187	33.45
830.364	94.89
830.542	152.23
830.719	66.22
830.896	90.79
831.073	78.51
831.25	98.99
831.427	72.36
831.604	66.22
831.782	66.22
831.959	101.03
832.136	49.83
832.313	92.84
832.49	58.03
832.667	94.89
832.844	25.26
833.021	103.08
833.198	51.88
833.374	111.27
833.551	27.31
833.728	156.33
833.905	70.31
834.082	41.64
834.259	43.69
834.436	29.35
834.612	47.79
834.789	107.18
834.966	64.17
835.143	35.5
835.319	49.83
835.496	27.31
835.673	68.27
835.85	31.4
836.026	51.88
836.203	121.51
836.38	-30.04
836.556	-32.08
836.733	76.46
836.909	41.64
837.086	39.59
837.262	25.26
837.439	8.87
837.616	78.51
837.792	68.27
837.968	51.88
838.145	17.07
838.321	58.03
838.498	12.97
838.674	43.69
838.851	15.02
839.027	115.37
839.203	90.79
839.38	84.65
839.556	-21.85
839.732	25.26
839.909	25.26
840.085	101.03
840.261	-11.61
840.437	33.45
840.614	12.97
840.79	29.35
840.966	70.31
841.142	51.88
841.318	41.64
841.494	82.6
841.671	60.07
841.847	25.26
842.023	-15.7
842.199	43.69
842.375	78.51
842.551	43.69
842.727	-5.46
842.903	90.79
843.079	33.45
843.255	107.18
843.431	33.45
843.607	49.83
843.783	-30.04
843.959	133.8
844.134	19.11
844.31	98.99
844.486	25.26
844.662	-19.8
844.838	-11.61
845.013	27.31
845.189	84.65
845.365	19.11
845.541	-3.41
845.716	39.59
845.892	70.31
846.068	31.4
846.244	-23.89
846.419	-11.61
846.595	10.92
846.77	49.83
846.946	41.64
847.122	-15.7
847.297	2.73
847.473	-42.32
847.648	-13.65
847.824	60.07
847.999	-21.85
848.175	17.07
848.35	-32.08
848.526	33.45
848.701	90.79
848.876	68.27
849.052	37.55
849.227	70.31
849.403	4.78
849.578	-21.85
849.753	21.16
849.929	27.31
850.104	-19.8
850.279	0.68
850.454	29.35
850.63	60.07
850.805	-7.51
850.98	-1.37
851.155	15.02
851.33	53.93
851.505	2.73
851.681	37.55
851.856	-101.72
852.031	27.31
852.206	45.74
852.381	-5.46
852.556	-5.46
852.731	47.79
852.906	33.45
853.081	47.79
853.256	19.11
853.431	17.07
853.606	33.45
853.781	0.68
853.956	-62.8
854.131	37.55
854.305	-36.18
854.48	-36.18
854.655	-23.89
854.83	-36.18
855.005	8.87
855.18	37.55
855.354	27.31
855.529	78.51
855.704	0.68
855.879	8.87
856.053	-27.99
856.228	-32.08
856.403	-17.75
856.577	8.87
856.752	-23.89
856.926	60.07
857.101	17.07
857.276	-11.61
857.45	-62.8
857.625	55.98
857.799	45.74
857.974	66.22
858.148	-48.47
858.323	-7.51
858.497	115.37
858.672	-56.66
858.846	17.07
859.02	17.07
859.195	-7.51
859.369	66.22
859.543	-87.38
859.718	4.78
859.892	25.26
860.066	31.4
860.241	29.35
860.415	-81.24
860.589	72.36
860.763	19.11
860.938	-60.76
861.112	19.11
861.286	-21.85
861.46	-36.18
861.634	-17.75
861.808	-23.89
861.982	41.64
862.157	8.87
862.331	58.03
862.505	35.5
862.679	55.98
862.853	-30.04
863.027	-5.46
863.201	29.35
863.375	-42.32
863.549	62.12
863.722	55.98
863.896	43.69
864.07	-7.51
864.244	25.26
864.418	2.73
864.592	-21.85
864.766	-19.8
864.939	12.97
865.113	-64.85
865.287	-15.7
865.461	-3.41
865.634	17.07
865.808	84.65
865.982	33.45
866.156	-32.08
866.329	-13.65
866.503	17.07
866.676	27.31
866.85	49.83
867.024	-21.85
867.197	-44.37
867.371	-23.89
867.544	19.11
867.718	31.4
867.891	-23.89
868.065	-32.08
868.238	66.22
868.412	25.26
868.585	43.69
868.759	-42.32
868.932	45.74
869.105	-30.04
869.279	-32.08
869.452	19.11
869.625	49.83
869.799	-1.37
869.972	10.92
870.145	21.16
870.319	27.31
870.492	45.74
870.665	-23.89
870.838	62.12
871.011	-48.47
871.185	33.45
871.358	-81.24
871.531	-15.7
871.704	-17.75
871.877	12.97
872.05	17.07
872.223	33.45
872.396	-38.23
872.569	31.4
872.742	41.64
872.915	25.26
873.088	-23.89
873.261	-44.37
873.434	27.31
873.607	-11.61
873.78	-21.85
873.953	25.26
874.126	-5.46
874.299	27.31
874.471	-11.61
874.644	-54.61
874.817	41.64
874.99	27.31
875.163	-7.51
875.335	-128.34
875.508	-17.75
875.681	33.45
875.853	-5.46
876.026	-56.66
876.199	47.79
876.371	25.26
876.544	-9.56
876.717	-21.85
876.889	-58.71
877.062	-19.8
877.234	12.97
877.407	-7.51
877.579	17.07
877.752	-15.7
877.924	-44.37
878.097	-23.89
878.269	19.11
878.442	-15.7
878.614	-1.37
878.786	-73.04
878.959	12.97
879.131	-44.37
879.303	-54.61
879.476	-13.65
879.648	25.26
879.82	-23.89
879.993	-13.65
880.165	-19.8
880.337	25.26
880.509	19.11
880.681	-30.04
880.854	-81.24
881.026	-21.85
881.198	15.02
881.37	25.26
881.542	45.74
881.714	27.31
881.886	8.87
882.058	6.83
882.23	35.5
882.402	-56.66
882.574	-15.7
882.746	62.12
882.918	-5.46
883.09	10.92
883.262	-40.28
883.434	29.35
883.606	2.73
883.778	8.87
883.95	0.68
884.122	-21.85
884.293	82.6
884.465	-32.08
884.637	12.97
884.809	-21.85
884.98	-40.28
885.152	27.31
885.324	17.07
885.496	-105.81
885.667	-32.08
885.839	-30.04
886.011	25.26
886.182	49.83
886.354	25.26
886.525	-62.8
886.697	-23.89
886.869	-30.04
887.04	-40.28
887.212	41.64
887.383	72.36
887.555	25.26
887.726	0.68
887.897	-44.37
888.069	19.11
888.24	10.92
888.412	-3.41
888.583	-46.42
888.754	-44.37
888.926	2.73
889.097	45.74
889.268	-32.08
889.44	37.55
889.611	-56.66
889.782	-23.89
889.953	-19.8
890.125	-13.65
890.296	15.02
890.467	0.68
890.638	-32.08
890.809	-27.99
890.98	-68.95
891.151	21.16
891.323	-56.66
891.494	-81.24
891.665	17.07
891.836	-7.51
892.007	-30.04
892.178	-30.04
892.349	8.87
892.52	-54.61
892.691	-56.66
892.862	-93.52
893.032	-48.47
893.203	4.78
893.374	-46.42
893.545	-13.65
893.716	-46.42
893.887	17.07
894.057	0.68
894.228	6.83
894.399	-64.85
894.57	-23.89
894.74	-42.32
894.911	27.31
895.082	-21.85
895.253	-52.56
895.423	-85.33
895.594	-56.66
895.764	-3.41
895.935	0.68
896.106	-1.37
896.276	12.97
896.447	6.83
896.617	21.16
896.788	-5.46
896.958	-27.99
897.129	-40.28
897.299	-48.47
897.47	-27.99
897.64	45.74
897.81	-27.99
897.981	58.03
898.151	-73.04
898.322	-36.18
898.492	49.83
898.662	-17.75
898.832	-15.7
899.003	37.55
899.173	-11.61
899.343	17.07
899.513	-79.19
