Data from USB4F104151__282__14-23-27-883.txt Node

Date: Thu Mar 13 14:23:27 EDT 2025
User: louis
Spectrometer: USB4F10415
Trigger mode: 4
Integration Time (sec): 2.000000E-2
Scans to average: 1
Electric dark correction enabled: true
Nonlinearity correction enabled: false
Boxcar width: 0
XAxis mode: Wavelengths
Number of Pixels in Spectrum: 3648
>>>>>Begin Spectral Data<<<<<
178.204	-127.14
178.424	-127.14
178.644	-127.14
178.864	-143.53
179.084	-121
179.304	-69.8
179.524	8.02
179.744	-22.7
179.964	36.69
180.184	-16.55
180.404	3.93
180.624	-28.84
180.844	12.12
181.064	-24.75
181.283	98.13
181.503	3.93
181.723	-0.17
181.943	-24.75
182.163	124.76
182.383	46.93
182.602	-30.89
182.822	65.36
183.042	-12.46
183.262	-16.55
183.482	83.8
183.701	18.26
183.921	73.56
184.141	14.17
184.361	48.98
184.58	55.12
184.8	-16.55
185.02	22.36
185.239	36.69
185.459	32.6
185.679	48.98
185.898	-0.17
186.118	57.17
186.338	26.45
186.557	36.69
186.777	-39.08
186.997	40.79
187.216	22.36
187.436	73.56
187.655	-32.94
187.875	73.56
188.095	53.08
188.314	28.5
188.534	147.28
188.753	24.4
188.973	151.38
189.192	1.88
189.412	26.45
189.631	38.74
189.851	16.21
190.07	63.32
190.29	-24.75
190.509	53.08
190.729	26.45
190.948	98.13
191.168	186.19
191.387	-8.36
191.607	14.17
191.826	51.03
192.045	12.12
192.265	102.23
192.484	10.07
192.704	42.84
192.923	-14.51
193.142	91.99
193.362	-16.55
193.581	122.71
193.8	32.6
194.02	1.88
194.239	10.07
194.458	36.69
194.678	8.02
194.897	77.65
195.116	51.03
195.335	16.21
195.555	44.88
195.774	-14.51
195.993	-6.31
196.212	24.4
196.432	55.12
196.651	-24.75
196.87	20.31
197.089	65.36
197.308	-8.36
197.528	69.46
197.747	-4.27
197.966	22.36
198.185	53.08
198.404	20.31
198.623	10.07
198.842	85.84
199.062	40.79
199.281	73.56
199.5	40.79
199.719	48.98
199.938	30.55
200.157	59.22
200.376	75.6
200.595	118.61
200.814	-2.22
201.033	-0.17
201.252	139.09
201.471	12.12
201.69	98.13
201.909	28.5
202.128	40.79
202.347	-16.55
202.566	-55.47
202.785	10.07
203.004	-6.31
203.223	91.99
203.442	-22.7
203.661	-0.17
203.879	22.36
204.098	57.17
204.317	42.84
204.536	26.45
204.755	110.42
204.974	53.08
205.193	30.55
205.411	40.79
205.63	16.21
205.849	118.61
206.068	48.98
206.287	-39.08
206.505	40.79
206.724	18.26
206.943	51.03
207.162	34.64
207.381	38.74
207.599	24.4
207.818	53.08
208.037	32.6
208.255	51.03
208.474	10.07
208.693	42.84
208.911	73.56
209.13	46.93
209.349	83.8
209.567	116.56
209.786	77.65
210.005	-0.17
210.223	-34.99
210.442	16.21
210.661	16.21
210.879	-14.51
211.098	73.56
211.316	108.37
211.535	118.61
211.753	-32.94
211.972	106.32
212.191	36.69
212.409	24.4
212.628	10.07
212.846	24.4
213.065	77.65
213.283	67.41
213.502	-6.31
213.72	48.98
213.938	71.51
214.157	48.98
214.375	116.56
214.594	-10.41
214.812	114.52
215.031	-12.46
215.249	8.02
215.467	91.99
215.686	22.36
215.904	55.12
216.122	-22.7
216.341	147.28
216.559	44.88
216.778	48.98
216.996	-0.17
217.214	14.17
217.432	32.6
217.651	10.07
217.869	48.98
218.087	122.71
218.306	36.69
218.524	102.23
218.742	-43.18
218.96	85.84
219.179	-39.08
219.397	-37.03
219.615	114.52
219.833	36.69
220.051	-37.03
220.27	32.6
220.488	57.17
220.706	59.22
220.924	-14.51
221.142	20.31
221.36	-49.32
221.578	40.79
221.796	44.88
222.015	141.14
222.233	-8.36
222.451	98.13
222.669	-20.65
222.887	-24.75
223.105	-49.32
223.323	3.93
223.541	14.17
223.759	73.56
223.977	14.17
224.195	24.4
224.413	-6.31
224.631	48.98
224.849	3.93
225.067	108.37
225.285	36.69
225.503	32.6
225.721	-2.22
225.939	-22.7
226.157	44.88
226.375	182.1
226.592	24.4
226.81	118.61
227.028	155.47
227.246	102.23
227.464	65.36
227.682	22.36
227.9	143.19
228.117	-49.32
228.335	89.94
228.553	30.55
228.771	22.36
228.989	61.27
229.206	75.6
229.424	-0.17
229.642	-12.46
229.86	44.88
230.077	81.75
230.295	12.12
230.513	34.64
230.731	81.75
230.948	81.75
231.166	30.55
231.384	30.55
231.601	12.12
231.819	32.6
232.037	65.36
232.254	10.07
232.472	55.12
232.689	-32.94
232.907	34.64
233.125	-6.31
233.342	51.03
233.56	28.5
233.777	81.75
233.995	18.26
234.213	30.55
234.43	-14.51
234.648	147.28
234.865	-16.55
235.083	71.51
235.3	75.6
235.518	-6.31
235.735	12.12
235.953	65.36
236.17	59.22
236.388	53.08
236.605	42.84
236.822	77.65
237.04	3.93
237.257	-4.27
237.475	10.07
237.692	8.02
237.909	46.93
238.127	55.12
238.344	77.65
238.562	81.75
238.779	59.22
238.996	-45.23
239.214	14.17
239.431	53.08
239.648	-10.41
239.865	85.84
240.083	14.17
240.3	-6.31
240.517	65.36
240.735	-0.17
240.952	67.41
241.169	69.46
241.386	69.46
241.603	3.93
241.821	79.7
242.038	18.26
242.255	26.45
242.472	-8.36
242.689	44.88
242.907	73.56
243.124	81.75
243.341	-28.84
243.558	40.79
243.775	42.84
243.992	77.65
244.209	24.4
244.426	128.85
244.643	71.51
244.86	65.36
245.078	-22.7
245.295	75.6
245.512	34.64
245.729	61.27
245.946	61.27
246.163	44.88
246.38	44.88
246.597	40.79
246.814	40.79
247.031	36.69
247.248	-37.03
247.464	26.45
247.681	10.07
247.898	16.21
248.115	-0.17
248.332	-30.89
248.549	106.32
248.766	114.52
248.983	61.27
249.2	-28.84
249.417	57.17
249.633	3.93
249.85	32.6
250.067	40.79
250.284	32.6
250.501	32.6
250.717	48.98
250.934	-8.36
251.151	77.65
251.368	3.93
251.585	46.93
251.801	24.4
252.018	-22.7
252.235	104.28
252.451	-55.47
252.668	44.88
252.885	-16.55
253.102	-0.17
253.318	32.6
253.535	46.93
253.752	42.84
253.968	-32.94
254.185	81.75
254.401	-6.31
254.618	98.13
254.835	24.4
255.051	141.14
255.268	79.7
255.484	106.32
255.701	53.08
255.917	98.13
256.134	32.6
256.351	57.17
256.567	-37.03
256.784	32.6
257	10.07
257.217	81.75
257.433	81.75
257.65	59.22
257.866	130.9
258.082	100.18
258.299	57.17
258.515	57.17
258.732	8.02
258.948	28.5
259.165	118.61
259.381	-0.17
259.597	96.08
259.814	-6.31
260.03	48.98
260.246	77.65
260.463	106.32
260.679	124.76
260.895	42.84
261.112	114.52
261.328	-45.23
261.544	48.98
261.761	73.56
261.977	55.12
262.193	28.5
262.409	51.03
262.626	40.79
262.842	94.04
263.058	12.12
263.274	57.17
263.49	63.32
263.707	32.6
263.923	67.41
264.139	-4.27
264.355	16.21
264.571	94.04
264.787	28.5
265.004	48.98
265.22	106.32
265.436	32.6
265.652	-18.6
265.868	89.94
266.084	40.79
266.3	53.08
266.516	-22.7
266.732	53.08
266.948	40.79
267.164	77.65
267.38	59.22
267.596	3.93
267.812	98.13
268.028	51.03
268.244	-0.17
268.46	-37.03
268.676	-22.7
268.892	75.6
269.108	40.79
269.324	44.88
269.54	-30.89
269.756	32.6
269.972	-32.94
270.188	108.37
270.403	-63.66
270.619	34.64
270.835	81.75
271.051	-0.17
271.267	40.79
271.483	69.46
271.698	91.99
271.914	8.02
272.13	34.64
272.346	-41.13
272.562	42.84
272.777	18.26
272.993	42.84
273.209	81.75
273.425	57.17
273.64	91.99
273.856	32.6
274.072	40.79
274.287	16.21
274.503	18.26
274.719	67.41
274.934	85.84
275.15	16.21
275.366	1.88
275.581	122.71
275.797	48.98
276.012	20.31
276.228	46.93
276.444	73.56
276.659	57.17
276.875	5.97
277.09	16.21
277.306	32.6
277.521	-26.79
277.737	20.31
277.952	61.27
278.168	1.88
278.383	34.64
278.599	73.56
278.814	69.46
279.03	32.6
279.245	100.18
279.461	57.17
279.676	48.98
279.892	-16.55
280.107	89.94
280.322	28.5
280.538	59.22
280.753	57.17
280.969	98.13
281.184	77.65
281.399	48.98
281.615	8.02
281.83	91.99
282.045	26.45
282.26	-16.55
282.476	59.22
282.691	59.22
282.906	57.17
283.122	14.17
283.337	8.02
283.552	83.8
283.767	48.98
283.983	98.13
284.198	67.41
284.413	48.98
284.628	-61.61
284.843	26.45
285.058	53.08
285.274	20.31
285.489	-28.84
285.704	53.08
285.919	53.08
286.134	53.08
286.349	8.02
286.564	10.07
286.779	-2.22
286.995	1.88
287.21	24.4
287.425	22.36
287.64	-16.55
287.855	-0.17
288.07	-24.75
288.285	75.6
288.5	48.98
288.715	53.08
288.93	57.17
289.145	36.69
289.36	85.84
289.575	57.17
289.79	1.88
290.004	65.36
290.219	83.8
290.434	139.09
290.649	-4.27
290.864	53.08
291.079	65.36
291.294	26.45
291.509	48.98
291.724	57.17
291.938	32.6
292.153	40.79
292.368	3.93
292.583	34.64
292.798	59.22
293.012	40.79
293.227	40.79
293.442	73.56
293.657	83.8
293.871	114.52
294.086	18.26
294.301	16.21
294.516	-16.55
294.73	65.36
294.945	36.69
295.16	8.02
295.374	75.6
295.589	10.07
295.804	5.97
296.018	112.47
296.233	24.4
296.447	10.07
296.662	34.64
296.877	51.03
297.091	44.88
297.306	32.6
297.52	44.88
297.735	106.32
297.949	91.99
298.164	30.55
298.378	-8.36
298.593	-0.17
298.807	40.79
299.022	75.6
299.236	100.18
299.451	77.65
299.665	36.69
299.88	-39.08
300.094	106.32
300.309	12.12
300.523	40.79
300.737	16.21
300.952	14.17
301.166	32.6
301.381	10.07
301.595	32.6
301.809	40.79
302.024	149.33
302.238	130.9
302.452	85.84
302.667	1.88
302.881	126.8
303.095	91.99
303.309	75.6
303.524	65.36
303.738	8.02
303.952	8.02
304.166	108.37
304.381	-16.55
304.595	77.65
304.809	59.22
305.023	65.36
305.237	40.79
305.452	-6.31
305.666	114.52
305.88	83.8
306.094	44.88
306.308	55.12
306.522	120.66
306.736	79.7
306.95	36.69
307.164	-28.84
307.379	-49.32
307.593	30.55
307.807	48.98
308.021	71.51
308.235	75.6
308.449	-6.31
308.663	53.08
308.877	51.03
309.091	110.42
309.305	81.75
309.519	26.45
309.733	89.94
309.947	42.84
310.161	108.37
310.374	59.22
310.588	18.26
310.802	-22.7
311.016	40.79
311.23	18.26
311.444	46.93
311.658	32.6
311.872	79.7
312.085	71.51
312.299	36.69
312.513	-4.27
312.727	-6.31
312.941	-34.99
313.154	-16.55
313.368	10.07
313.582	48.98
313.796	-30.89
314.009	89.94
314.223	44.88
314.437	106.32
314.651	73.56
314.864	16.21
315.078	81.75
315.292	46.93
315.505	18.26
315.719	75.6
315.933	38.74
316.146	12.12
316.36	55.12
316.573	8.02
316.787	73.56
317.001	57.17
317.214	55.12
317.428	42.84
317.641	34.64
317.855	57.17
318.068	69.46
318.282	-16.55
318.495	132.95
318.709	77.65
318.922	26.45
319.136	110.42
319.349	59.22
319.563	32.6
319.776	16.21
319.99	1.88
320.203	57.17
320.417	1.88
320.63	32.6
320.843	44.88
321.057	61.27
321.27	24.4
321.483	36.69
321.697	155.47
321.91	26.45
322.124	112.47
322.337	10.07
322.55	18.26
322.763	-10.41
322.977	18.26
323.19	-57.51
323.403	42.84
323.617	46.93
323.83	122.71
324.043	-20.65
324.256	40.79
324.469	-39.08
324.683	85.84
324.896	32.6
325.109	1.88
325.322	-4.27
325.535	75.6
325.748	12.12
325.962	73.56
326.175	-22.7
326.388	61.27
326.601	71.51
326.814	61.27
327.027	83.8
327.24	114.52
327.453	28.5
327.666	-28.84
327.879	-24.75
328.092	57.17
328.305	-0.17
328.518	8.02
328.731	-41.13
328.944	44.88
329.157	48.98
329.37	36.69
329.583	63.32
329.796	71.51
330.009	61.27
330.222	124.76
330.435	128.85
330.648	61.27
330.861	10.07
331.073	59.22
331.286	8.02
331.499	77.65
331.712	10.07
331.925	-14.51
332.138	5.97
332.35	51.03
332.563	91.99
332.776	81.75
332.989	48.98
333.202	12.12
333.414	-41.13
333.627	81.75
333.84	65.36
334.053	59.22
334.265	5.97
334.478	69.46
334.691	61.27
334.903	28.5
335.116	75.6
335.329	24.4
335.541	16.21
335.754	3.93
335.966	71.51
336.179	-37.03
336.392	94.04
336.604	12.12
336.817	55.12
337.029	57.17
337.242	42.84
337.454	53.08
337.667	28.5
337.88	65.36
338.092	100.18
338.305	-20.65
338.517	-30.89
338.729	48.98
338.942	57.17
339.154	75.6
339.367	18.26
339.579	91.99
339.792	89.94
340.004	124.76
340.217	77.65
340.429	73.56
340.641	48.98
340.854	24.4
341.066	89.94
341.278	114.52
341.491	188.24
341.703	40.79
341.915	53.08
342.128	139.09
342.34	94.04
342.552	48.98
342.764	1.88
342.977	16.21
343.189	44.88
343.401	89.94
343.613	16.21
343.826	73.56
344.038	159.57
344.25	-10.41
344.462	48.98
344.674	32.6
344.886	53.08
345.099	77.65
345.311	44.88
345.523	48.98
345.735	16.21
345.947	46.93
346.159	51.03
346.371	85.84
346.583	77.65
346.795	114.52
347.007	57.17
347.219	69.46
347.431	44.88
347.643	65.36
347.855	10.07
348.067	96.08
348.279	-6.31
348.491	55.12
348.703	89.94
348.915	16.21
349.127	53.08
349.339	73.56
349.551	44.88
349.763	91.99
349.975	24.4
350.187	159.57
350.399	79.7
350.61	85.84
350.822	12.12
351.034	114.52
351.246	-16.55
351.458	51.03
351.669	65.36
351.881	44.88
352.093	-20.65
352.305	34.64
352.517	10.07
352.728	73.56
352.94	36.69
353.152	40.79
353.363	42.84
353.575	53.08
353.787	79.7
353.999	143.19
354.21	126.8
354.422	75.6
354.633	32.6
354.845	71.51
355.057	53.08
355.268	59.22
355.48	28.5
355.692	-32.94
355.903	40.79
356.115	57.17
356.326	67.41
356.538	135
356.749	34.64
356.961	42.84
357.172	-12.46
357.384	73.56
357.595	110.42
357.807	44.88
358.018	79.7
358.23	81.75
358.441	73.56
358.653	89.94
358.864	-14.51
359.075	122.71
359.287	34.64
359.498	69.46
359.709	61.27
359.921	34.64
360.132	59.22
360.344	63.32
360.555	91.99
360.766	75.6
360.977	32.6
361.189	32.6
361.4	40.79
361.611	61.27
361.823	110.42
362.034	122.71
362.245	48.98
362.456	48.98
362.667	-4.27
362.879	81.75
363.09	-12.46
363.301	57.17
363.512	24.4
363.723	73.56
363.935	51.03
364.146	32.6
364.357	-8.36
364.568	81.75
364.779	-4.27
364.99	57.17
365.201	77.65
365.412	94.04
365.623	34.64
365.834	69.46
366.045	110.42
366.256	26.45
366.467	114.52
366.678	65.36
366.889	-43.18
367.1	40.79
367.311	75.6
367.522	16.21
367.733	16.21
367.944	155.47
368.155	-6.31
368.366	18.26
368.577	-8.36
368.788	28.5
368.999	3.93
369.209	18.26
369.42	94.04
369.631	94.04
369.842	59.22
370.053	-37.03
370.264	71.51
370.474	42.84
370.685	12.12
370.896	46.93
371.107	75.6
371.317	77.65
371.528	51.03
371.739	157.52
371.95	48.98
372.16	130.9
372.371	8.02
372.582	32.6
372.792	89.94
373.003	106.32
373.214	89.94
373.424	8.02
373.635	22.36
373.846	102.23
374.056	26.45
374.267	-16.55
374.477	83.8
374.688	8.02
374.898	67.41
375.109	67.41
375.319	57.17
375.53	104.28
375.74	20.31
375.951	16.21
376.161	53.08
376.372	46.93
376.582	5.97
376.793	48.98
377.003	22.36
377.214	40.79
377.424	16.21
377.635	61.27
377.845	59.22
378.055	87.89
378.266	94.04
378.476	83.8
378.686	3.93
378.897	40.79
379.107	55.12
379.317	3.93
379.528	44.88
379.738	122.71
379.948	48.98
380.158	59.22
380.369	69.46
380.579	67.41
380.789	1.88
380.999	116.56
381.21	91.99
381.42	180.05
381.63	53.08
381.84	73.56
382.05	89.94
382.261	8.02
382.471	91.99
382.681	32.6
382.891	118.61
383.101	98.13
383.311	36.69
383.521	83.8
383.731	108.37
383.941	30.55
384.151	81.75
384.361	8.02
384.571	85.84
384.781	118.61
384.991	114.52
385.201	83.8
385.411	26.45
385.621	112.47
385.831	22.36
386.041	100.18
386.251	48.98
386.461	59.22
386.671	53.08
386.881	89.94
387.091	48.98
387.301	79.7
387.511	122.71
387.72	40.79
387.93	38.74
388.14	89.94
388.35	83.8
388.56	83.8
388.769	110.42
388.979	110.42
389.189	53.08
389.399	48.98
389.609	34.64
389.818	126.8
390.028	89.94
390.238	51.03
390.447	46.93
390.657	167.76
390.867	57.17
391.076	81.75
391.286	81.75
391.496	83.8
391.705	75.6
391.915	89.94
392.125	53.08
392.334	155.47
392.544	28.5
392.753	59.22
392.963	53.08
393.172	89.94
393.382	57.17
393.591	57.17
393.801	65.36
394.01	91.99
394.22	61.27
394.429	85.84
394.639	83.8
394.848	75.6
395.058	124.76
395.267	61.27
395.477	114.52
395.686	141.14
395.895	198.48
396.105	110.42
396.314	122.71
396.524	69.46
396.733	63.32
396.942	218.96
397.152	106.32
397.361	175.95
397.57	98.13
397.78	122.71
397.989	130.9
398.198	165.71
398.407	65.36
398.617	1.88
398.826	75.6
399.035	130.9
399.244	165.71
399.453	130.9
399.663	141.14
399.872	130.9
400.081	44.88
400.29	114.52
400.499	79.7
400.708	149.33
400.917	46.93
401.127	108.37
401.336	122.71
401.545	130.9
401.754	229.2
401.963	122.71
402.172	57.17
402.381	165.71
402.59	122.71
402.799	180.05
403.008	85.84
403.217	141.14
403.426	167.76
403.635	69.46
403.844	188.24
404.053	106.32
404.262	141.14
404.471	243.54
404.68	182.1
404.888	184.15
405.097	198.48
405.306	108.37
405.515	145.24
405.724	245.59
405.933	239.44
406.142	233.3
406.35	255.83
406.559	208.72
406.768	235.35
406.977	294.74
407.185	253.78
407.394	237.39
407.603	155.47
407.812	200.53
408.02	233.3
408.229	198.48
408.438	229.2
408.646	249.68
408.855	290.64
409.064	216.91
409.272	350.03
409.481	442.19
409.69	384.85
409.898	360.27
410.107	380.75
410.315	368.46
410.524	397.14
410.733	440.14
410.941	376.66
411.15	395.09
411.358	438.09
411.567	491.34
411.775	487.25
411.984	444.24
412.192	431.95
412.401	450.38
412.609	493.39
412.818	520.01
413.026	550.73
413.234	579.4
413.443	624.46
413.651	573.26
413.86	673.61
414.068	679.75
414.276	712.52
414.485	773.96
414.693	835.4
414.901	778.06
415.11	864.07
415.318	853.83
415.526	872.26
415.734	853.83
415.943	927.56
416.151	1044.29
416.359	954.18
416.567	1040.2
416.776	1070.92
416.984	1056.58
417.192	1158.98
417.4	1097.54
417.608	1146.69
417.817	1179.46
418.025	1337.15
418.233	1302.34
418.441	1271.62
418.649	1304.39
418.857	1498.94
419.065	1597.24
419.273	1486.65
419.481	1564.48
419.689	1509.18
419.897	1795.9
420.105	1752.89
420.313	1861.43
420.521	1795.9
420.729	1845.05
420.937	1916.73
421.145	2088.76
421.353	2096.95
421.561	2228.02
421.769	2185.01
421.977	2295.6
422.185	2295.6
422.393	2477.87
422.601	2678.57
422.809	2486.06
423.017	2572.08
423.224	2666.28
423.432	2887.47
423.64	2801.45
423.848	3131.17
424.056	3016.49
424.263	3114.79
424.471	3256.1
424.679	3176.23
424.887	3415.84
425.094	3508
425.302	3589.92
425.51	3698.46
425.718	3841.82
425.925	3768.09
426.133	4022.04
426.341	4284.18
426.548	4341.52
426.756	4394.77
426.964	4570.9
427.171	4474.64
427.379	4917
427.586	4945.67
427.794	5154.57
428.001	5267.2
428.209	5545.73
428.417	5506.82
428.624	5836.54
428.832	5773.05
429.039	5701.37
429.247	5676.8
429.454	6487.79
429.662	6792.94
429.869	6354.68
430.076	6895.34
430.284	6725.36
430.491	6878.96
430.699	7409.38
430.906	7290.6
431.114	7331.56
431.321	7562.98
431.528	7825.12
431.736	8126.17
431.943	8623.83
432.15	8228.57
432.358	8654.55
432.565	8986.32
432.772	8916.69
432.979	9158.35
433.187	9535.17
433.394	9469.64
433.601	10331.83
433.808	10354.36
434.016	10049.21
434.223	10452.66
434.43	11165.35
434.637	10952.37
434.844	11529.89
435.052	12002.97
435.259	11876
435.466	11976.35
435.673	11714.21
435.88	12533.4
436.087	13160.08
436.294	13303.43
436.501	12936.85
436.708	13256.33
436.915	13706.88
437.122	14116.48
437.329	14136.96
437.537	14827.12
437.743	14941.81
437.95	14616.18
438.157	15302.25
438.364	16250.46
438.571	15928.93
438.778	16129.63
438.985	17692.23
439.192	17088.08
439.399	17202.77
439.606	16936.53
439.813	17903.17
440.02	19383.85
440.227	18566.71
440.433	18517.56
440.64	19338.8
440.847	19033.65
441.054	19607.08
441.261	20930.07
441.467	20268.58
441.674	21196.31
441.881	21792.26
442.088	21843.46
442.294	21458.45
442.501	21984.77
442.708	22148.61
442.914	23389.68
443.121	24292.83
443.328	23434.74
443.534	25120.21
443.741	24583.65
443.948	24090.09
444.154	26006.98
444.361	25701.84
444.568	25859.53
444.774	26103.24
444.981	26062.28
445.187	26842.56
445.394	28003.75
445.6	27454.9
445.807	30502.28
446.013	28702.11
446.22	29468.05
446.426	30569.86
446.633	31380.85
446.839	31915.37
447.046	30885.25
447.252	32187.75
447.459	32441.7
447.665	32267.62
447.871	33811.79
448.078	35009.86
448.284	33600.85
448.491	34352.46
448.697	35536.18
448.903	36054.32
449.11	36781.35
449.316	35536.18
449.522	36416.81
449.728	37500.19
449.935	37858.58
450.141	37721.37
450.347	38464.78
450.553	37379.35
450.76	37766.42
450.966	38606.09
451.172	38653.19
451.378	39343.36
451.584	38776.07
451.791	39542.01
451.997	39683.32
452.203	40275.18
452.409	40574.19
452.615	40051.95
452.821	38855.94
453.027	38374.67
453.233	40221.94
453.44	38614.28
453.646	39306.49
453.852	39130.37
454.058	40334.57
454.264	38778.12
454.47	39711.99
454.676	38599.94
454.882	39941.36
455.088	36816.16
455.294	37260.57
455.5	37649.69
455.705	38417.68
455.911	36746.53
456.117	35968.3
456.323	35663.16
456.529	33508.69
456.735	35022.14
456.941	34223.44
457.147	33840.46
457.352	32929.12
457.558	32826.72
457.764	32515.43
457.97	31810.93
458.176	31079.8
458.381	31257.98
458.587	29748.62
458.793	29574.55
458.999	28396.96
459.204	30295.43
459.41	29044.12
459.616	27645.36
459.821	27835.82
460.027	27243.96
460.233	27024.82
460.438	25480.66
460.644	25869.77
460.85	24428
461.055	24290.79
461.261	24274.4
461.466	22484.48
461.672	21765.64
461.878	23186.93
462.083	21917.19
462.289	21448.21
462.494	21392.91
462.7	20340.25
462.905	19842.6
463.111	20493.85
463.316	20706.84
463.522	20020.77
463.727	20155.94
463.932	19858.98
464.138	19934.76
464.343	19799.59
464.549	19271.22
464.754	19729.96
464.959	19543.6
465.165	19402.29
465.37	18894.39
465.575	18376.25
465.781	19189.3
465.986	19254.83
466.191	18652.73
466.397	18116.16
466.602	17233.49
466.807	17696.33
467.012	17976.9
467.218	17702.47
467.423	17405.52
467.628	17833.54
467.833	18540.09
468.038	17866.31
468.244	17159.76
468.449	17972.8
468.654	17231.44
468.859	17346.12
469.064	17163.86
469.269	16369.24
469.474	16467.55
469.679	17024.59
469.885	16344.67
470.09	16684.63
470.295	16285.28
470.5	15990.37
470.705	16186.97
470.91	15851.11
471.115	15746.66
471.32	16039.52
471.525	15670.89
471.73	15459.95
471.935	15212.14
472.139	14999.15
472.344	14952.05
472.549	15154.8
472.754	14732.92
472.959	14507.64
473.164	14274.17
473.369	14073.47
473.574	14497.4
473.778	14419.58
473.983	14354.04
474.188	14073.47
474.393	13342.35
474.598	13696.64
474.802	13426.31
475.007	13430.41
475.212	13336.2
475.417	12920.46
475.621	12871.31
475.826	12914.32
476.031	12689.04
476.235	12615.32
476.44	12787.35
476.645	12691.09
476.849	12572.31
477.054	12205.72
477.259	12318.36
477.463	12021.41
477.668	11673.25
477.872	11959.97
478.077	11652.77
478.282	11402.92
478.486	11398.82
478.691	11249.32
478.895	11394.73
479.1	11339.43
479.304	11165.35
479.509	10862.26
479.713	10991.28
479.918	10972.85
480.122	10729.14
480.326	10944.17
480.531	10944.17
480.735	10671.79
480.94	10849.97
481.144	11081.39
481.348	10503.86
481.553	10634.93
481.757	10245.82
481.961	10593.97
482.166	10632.88
482.37	10479.29
482.574	10360.5
482.778	10262.2
482.983	10598.07
483.187	10632.88
483.391	10423.99
483.595	10415.8
483.8	9959.1
484.004	10460.85
484.208	10411.7
484.412	10399.41
484.616	10555.06
484.821	10469.05
485.025	10206.91
485.229	10499.77
485.433	10067.64
485.637	10280.63
485.841	10215.1
486.045	10444.47
486.249	10528.44
486.453	10395.32
486.657	10391.22
486.861	10370.74
487.065	10088.12
487.269	10383.03
487.473	10333.88
487.677	10487.48
487.881	10477.24
488.085	10471.09
488.289	10372.79
488.493	10518.2
488.697	10493.62
488.901	10395.32
489.105	10421.94
489.309	10329.78
489.512	10563.25
489.716	10505.91
489.92	10460.85
490.124	10462.9
490.328	10718.9
490.531	10720.95
490.735	10665.65
490.939	10749.62
491.143	10706.61
491.346	10618.55
491.55	10763.95
491.754	10862.26
491.958	10821.3
492.161	11022
492.365	11073.2
492.569	10837.68
492.772	10794.67
492.976	11034.28
493.18	11218.6
493.383	11177.64
493.587	11314.86
493.79	11343.53
493.994	11089.58
494.197	11435.69
494.401	11359.91
494.605	11765.41
494.808	11718.31
495.012	11617.96
495.215	11761.31
495.419	11970.21
495.622	11779.75
495.825	12023.45
496.029	12045.98
496.232	12435.1
496.436	12207.77
496.639	12691.09
496.843	12306.07
497.046	12734.1
497.249	12990.1
497.453	13010.57
497.656	12977.81
497.859	13145.74
498.063	13262.47
498.266	13538.95
498.469	13336.2
498.673	13823.62
498.876	13887.11
499.079	13854.34
499.282	13960.83
499.485	14392.95
499.689	14237.31
499.892	14470.78
500.095	14599.8
500.298	14906.99
500.501	14499.45
500.705	15388.27
500.908	15388.27
501.111	15480.43
501.314	15437.42
501.517	15795.81
501.72	16055.9
501.923	15873.64
502.126	16309.85
502.329	16322.14
502.532	16555.61
502.735	16666.2
502.938	17088.08
503.141	16817.75
503.344	17157.71
503.547	17559.11
503.75	17522.25
503.953	17888.84
504.156	18148.93
504.359	17952.32
504.562	18435.64
504.765	18503.23
504.968	19072.56
505.17	19107.38
505.373	19101.23
505.576	19119.67
505.779	19664.43
505.982	19793.45
506.185	20203.04
506.387	20198.95
506.59	20006.44
506.793	20860.44
506.996	20805.14
507.198	21399.05
507.401	21071.38
507.604	21368.34
507.807	21904.9
508.009	21872.14
508.212	22111.75
508.415	22570.49
508.617	22916.6
508.82	22851.06
509.022	22359.55
509.225	23029.24
509.428	23471.6
509.63	23651.82
509.833	23807.47
510.035	24491.49
510.238	24272.35
510.44	24753.63
510.643	24659.42
510.845	25017.82
511.048	25118.17
511.25	25548.24
511.453	25558.48
511.655	26594.75
511.858	26377.67
512.06	26256.84
512.262	26545.6
512.465	26895.8
512.667	27166.13
512.87	27139.51
513.072	27458.99
513.274	27897.26
513.477	28208.55
513.679	28358.05
513.881	28632.48
514.084	29160.86
514.286	28882.33
514.488	29560.21
514.69	30012.81
514.893	30111.11
515.095	30707.07
515.297	30915.97
515.499	30881.15
515.701	31186.3
515.904	31686
516.106	31862.13
516.308	32236.91
516.51	32505.19
516.712	32445.8
516.914	32777.57
517.116	33301.85
517.318	33095
517.52	33924.43
517.722	33805.65
517.925	34018.64
518.127	34483.53
518.329	34729.28
518.531	34551.11
518.733	35439.93
518.935	35857.71
519.136	35577.14
519.338	35917.11
519.54	36025.65
519.742	36777.25
519.944	36795.68
520.146	37299.48
520.348	37434.65
520.55	37303.58
520.752	37897.49
520.954	38284.56
521.155	38216.97
521.357	39062.79
521.559	38939.91
521.761	39324.93
521.963	39519.48
522.164	39863.54
522.366	39974.13
522.568	40219.89
522.77	40432.88
522.971	40977.64
523.173	40815.85
523.375	41282.78
523.576	41071.84
523.778	41499.87
523.98	41981.14
524.181	42034.39
524.383	41923.8
524.584	42460.37
524.786	42785.99
524.988	42493.13
525.189	43021.51
525.391	43244.74
525.592	44014.77
525.794	43709.63
525.995	43285.7
526.197	43863.22
526.398	43871.42
526.6	44180.66
526.801	44053.69
527.003	44735.66
527.204	44670.12
527.406	44569.77
527.607	44317.87
527.808	44930.22
528.01	44311.73
528.211	44919.98
528.412	45698.2
528.614	45698.2
528.815	45298.85
529.016	45753.5
529.218	45411.49
529.419	45245.6
529.62	45595.81
529.822	45304.99
530.023	46093.46
530.224	45591.71
530.425	46118.04
530.626	45552.8
530.828	45524.13
531.029	46740.62
531.23	45900.95
531.431	46021.78
531.632	45685.92
531.833	46505.1
532.035	46300.31
532.236	46199.96
532.437	46103.7
532.638	45882.52
532.839	46429.33
533.04	46404.75
533.241	45855.9
533.442	47170.69
533.643	46519.44
533.844	46208.15
534.045	46601.36
534.246	46144.66
534.447	46208.15
534.648	46052.5
534.849	46466.19
535.05	46322.83
535.251	46472.34
535.451	46716.04
535.652	46724.24
535.853	45929.62
536.054	46156.95
536.255	46349.46
536.456	45954.2
536.657	46904.46
536.857	46199.96
537.058	46064.79
537.259	46159
537.46	46531.73
537.66	45950.1
537.861	46335.12
538.062	46337.17
538.263	46443.66
538.463	46134.42
538.664	45900.95
538.865	46005.4
539.065	46265.49
539.266	45720.73
539.466	46187.67
539.667	45499.55
539.868	46292.11
540.068	46238.87
540.269	46015.64
540.469	46101.65
540.67	45886.62
540.87	45610.14
541.071	46255.25
541.271	45659.29
541.472	45583.52
541.672	45657.24
541.873	45733.02
542.073	45315.23
542.274	45632.67
542.474	45591.71
542.675	45765.79
542.875	46230.68
543.075	45485.22
543.276	45141.16
543.476	45909.14
543.676	45255.84
543.877	45726.88
544.077	45356.19
544.277	45331.62
544.478	45372.58
544.678	45935.77
544.878	45538.46
545.078	45702.3
545.279	44922.02
545.479	44983.46
545.679	45515.93
545.879	45130.92
546.079	45118.63
546.28	45470.88
546.48	44885.16
546.68	45423.78
546.88	45378.72
547.08	45083.81
547.28	45231.27
547.48	44862.63
547.68	45259.94
547.88	44721.32
548.081	45343.91
548.281	45393.06
548.481	45018.28
548.681	45175.97
548.881	45259.94
549.081	45151.4
549.28	45003.94
549.48	45399.2
549.68	45225.12
549.88	45386.91
550.08	45065.38
550.28	45507.74
550.48	44977.32
550.68	45149.35
550.88	44844.2
551.08	45137.06
551.279	45532.32
551.479	44965.03
551.679	44958.89
551.879	45036.71
552.079	45089.96
552.278	44793
552.478	45028.52
552.678	45141.16
552.878	45165.73
553.077	44975.27
553.277	44444.85
553.477	45083.81
553.676	44917.93
553.876	44657.84
554.076	44780.71
554.275	44819.63
554.475	44055.73
554.674	45141.16
554.874	44854.44
555.074	44635.31
555.273	44717.23
555.473	44625.07
555.672	44364.98
555.872	44498.09
556.071	44778.67
556.271	44475.57
556.47	44790.95
556.67	44096.69
556.869	44647.6
557.068	44549.29
557.268	44336.3
557.467	44399.79
557.667	44287.15
557.866	44485.81
558.065	44354.74
558.265	44061.88
558.464	44104.88
558.663	44633.26
558.863	43482.3
559.062	44737.71
559.261	43642.04
559.461	44162.23
559.66	43490.49
559.859	43717.82
560.058	43930.81
560.258	44190.9
560.457	43340.99
560.656	44051.64
560.855	43795.64
561.054	43963.57
561.253	43513.02
561.453	43461.82
561.652	44051.64
561.851	44053.69
562.05	43211.97
562.249	43463.87
562.448	43410.62
562.647	43492.54
562.846	43175.11
563.045	43412.67
563.244	42724.55
563.443	43224.26
563.642	42550.48
563.841	43015.36
564.04	42894.53
564.239	43474.11
564.438	42411.21
564.637	42826.95
564.836	42742.99
565.035	42239.18
565.234	42493.13
565.432	42218.71
565.631	42333.39
565.83	42165.46
566.029	42177.75
566.228	42587.34
566.427	42298.58
566.625	41618.65
566.824	41659.61
567.023	42376.4
567.222	41538.78
567.42	41981.14
567.619	41893.08
567.818	41346.27
568.016	41493.72
568.215	41678.04
568.414	41311.45
568.612	41530.59
568.811	41043.17
569.01	41200.86
569.208	40609
569.407	41141.47
569.605	40049.91
569.804	41157.86
570.002	40455.4
570.201	41018.6
570.4	40314.09
570.598	40424.68
570.797	40338.67
570.995	40373.49
571.193	40088.82
571.392	40303.85
571.59	39826.68
571.789	40084.72
571.987	39845.11
572.186	40084.72
572.384	39785.72
572.582	39859.45
572.781	40060.15
572.979	39365.88
573.177	39529.72
573.376	39234.81
573.574	39474.43
573.772	39568.63
573.971	39095.55
574.169	38841.6
574.367	38726.92
574.565	38526.22
574.763	38452.49
574.962	38698.25
575.16	38026.51
575.358	38593.8
575.556	38147.34
575.754	38468.87
575.952	37584.15
576.151	38247.69
576.349	37711.13
576.547	37967.12
576.745	37831.96
576.943	37627.16
577.141	37342.49
577.339	37850.39
577.537	37285.15
577.735	37405.98
577.933	37344.54
578.131	37098.78
578.329	37033.25
578.527	36545.83
578.725	37199.13
578.923	37162.27
579.121	36869.41
579.319	36687.14
579.516	37287.2
579.714	36678.95
579.912	36549.93
580.11	36406.57
580.308	36113.71
580.506	36033.84
580.704	35867.95
580.901	36207.92
581.099	36228.4
581.297	35712.31
581.495	35747.12
581.692	36019.5
581.89	35077.44
582.088	35802.42
582.285	35163.45
582.483	35323.19
582.681	35454.26
582.878	35145.02
583.076	34764.1
583.274	35028.29
583.471	34686.28
583.669	35071.29
583.866	34538.82
584.064	35085.63
584.262	34456.9
584.459	34465.1
584.657	34241.87
584.854	34190.67
585.052	33736.02
585.249	34364.74
585.447	34227.53
585.644	33506.65
585.841	33920.34
586.039	34245.96
586.236	33504.6
586.434	33348.95
586.631	33451.35
586.828	33305.95
587.026	33340.76
587.223	33097.05
587.42	33340.76
587.618	33168.73
587.815	32757.09
588.012	32716.13
588.21	32669.03
588.407	33310.04
588.604	32308.58
588.801	32834.91
588.999	32298.34
589.196	32101.74
589.393	32601.44
589.59	32161.13
589.787	32361.83
589.984	32154.99
590.182	31794.54
590.379	32066.92
590.576	31882.61
590.773	31790.45
590.97	31735.15
591.167	31806.83
591.364	31337.85
591.561	31483.25
591.758	31272.31
591.955	31288.7
592.152	31532.4
592.349	30832
592.546	30965.12
592.743	31051.13
592.94	30883.2
593.137	30821.76
593.334	31006.08
593.531	30500.23
593.727	30653.83
593.924	30619.01
594.121	30254.47
594.318	30463.36
594.515	29924.75
594.712	30592.39
594.908	29978
595.105	30047.63
595.302	29527.44
595.499	30137.74
595.696	29547.92
595.892	29676.94
596.089	29986.19
596.286	29318.55
596.482	29394.32
596.679	29584.79
596.876	29402.52
597.072	29066.65
597.269	29083.03
597.466	28730.78
597.662	29101.47
597.859	29158.81
598.055	28994.97
598.252	28667.3
598.448	28865.95
598.645	28845.47
598.841	28304.81
599.038	28302.76
599.234	28329.38
599.431	27964.84
599.627	28274.09
599.824	28376.48
600.02	27774.38
600.217	27975.08
600.413	27934.12
600.609	27653.55
600.806	27864.49
601.002	27647.41
601.198	27522.48
601.395	27624.88
601.591	27516.34
601.787	27254.2
601.984	26914.23
602.18	27336.12
602.376	27061.69
602.572	27065.78
602.769	27002.3
602.965	26633.66
603.161	26809.79
603.357	26748.35
603.553	26734.01
603.75	26561.98
603.946	26176.97
604.142	26805.69
604.338	26332.61
604.534	26181.06
604.73	26199.49
604.926	25939.4
605.122	26193.35
605.318	25812.43
605.514	25900.49
605.71	25900.49
605.906	25968.07
606.102	25845.19
606.298	25871.82
606.494	25767.37
606.69	25857.48
606.886	25812.43
607.082	25189.84
607.278	25515.47
607.474	24849.88
607.67	25540.05
607.866	25009.62
608.062	25320.91
608.257	25212.37
608.453	25329.11
608.649	25361.87
608.845	25259.48
609.041	25173.46
609.236	25136.6
609.432	25118.17
609.628	24651.23
609.824	24677.85
610.019	24784.35
610.215	24638.94
610.411	24688.09
610.606	24456.67
610.802	24757.72
610.998	24419.81
611.193	24548.83
611.389	24235.49
611.584	23979.5
611.78	24061.41
611.976	24298.98
612.171	24374.75
612.367	24055.27
612.562	23879.14
612.758	23713.26
612.953	23686.64
613.149	23791.08
613.344	23617
613.539	24284.64
613.735	23743.98
613.93	23827.95
614.126	23801.32
614.321	24024.55
614.517	23483.89
614.712	23283.19
614.907	23279.09
615.103	23610.86
615.298	23475.7
615.493	23717.36
615.688	23234.03
615.884	23733.74
616.079	23191.03
616.274	23766.51
616.47	23432.69
616.665	23182.84
616.86	23141.88
617.055	23174.64
617.25	23225.84
617.445	23172.6
617.641	22658.56
617.836	22961.65
618.031	22498.81
618.226	22771.19
618.421	22750.71
618.616	22648.32
618.811	22513.15
619.006	22492.67
619.201	22136.32
619.396	22183.43
619.591	22156.8
619.786	22291.97
619.981	21728.78
620.176	21927.43
620.371	21704.2
620.566	21708.3
620.761	21644.81
620.956	21734.92
621.151	21089.81
621.346	21806.6
621.541	21374.48
621.735	21077.52
621.93	20819.48
622.125	21026.32
622.32	20739.61
622.515	20780.57
622.709	20667.93
622.904	20598.3
623.099	20442.65
623.294	20559.39
623.488	19822.12
623.683	20123.17
623.878	19967.52
624.072	20090.4
624.267	19955.24
624.462	19922.47
624.656	19346.99
624.851	19449.39
625.046	19285.55
625.24	18974.26
625.435	19060.27
625.629	19050.03
625.824	18884.15
626.018	18949.68
626.213	18488.89
626.407	18689.59
626.602	18390.59
626.796	18611.77
626.991	18589.24
627.185	18505.27
627.38	17997.38
627.574	17962.56
627.768	17931.84
627.963	17909.32
628.157	17559.11
628.352	17686.09
628.546	17323.6
628.74	17739.33
628.935	17305.17
629.129	17952.32
629.323	17186.38
629.517	17292.88
629.712	17059.41
629.906	17170
630.1	17108.56
630.294	16592.47
630.489	16815.7
630.683	16551.51
630.877	16309.85
631.071	16326.24
631.265	16655.96
631.459	16475.74
631.653	15824.48
631.848	16219.74
632.042	16103.01
632.236	16199.26
632.43	15711.85
632.624	15855.2
632.818	15683.17
633.012	15427.18
633.206	15523.43
633.4	15509.1
633.594	15378.03
633.788	15375.98
633.982	15314.54
634.176	15425.13
634.369	14990.96
634.563	15074.93
634.757	14986.86
634.951	14892.66
635.145	14638.71
635.339	14726.77
635.533	14515.83
635.726	14460.54
635.92	14585.46
636.114	14542.46
636.308	14192.25
636.501	14255.74
636.695	14118.53
636.889	13948.54
637.083	14212.73
637.276	13917.82
637.47	13776.52
637.664	13524.61
637.857	13747.84
638.051	13581.96
638.244	13616.77
638.438	13512.33
638.632	13471.37
638.825	13336.2
639.019	13223.56
639.212	13065.87
639.406	13227.66
639.599	13053.58
639.793	13125.26
639.986	12801.68
640.18	12842.64
640.373	12803.73
640.567	12758.67
640.76	12695.19
640.954	12365.46
641.147	12418.71
641.34	12525.21
641.534	12218.01
641.727	12471.96
641.92	12308.12
642.114	11945.63
642.307	12027.55
642.5	12093.08
642.694	11826.85
642.887	11949.73
643.08	12029.6
643.273	11763.36
643.467	11734.69
643.66	11308.71
643.853	11515.56
644.046	11364.01
644.239	11476.65
644.432	11265.71
644.626	11169.45
644.819	11034.28
645.012	11237.03
645.205	11169.45
645.398	11009.71
645.591	10985.13
645.784	10952.37
645.977	10665.65
646.17	10698.42
646.363	10708.66
646.556	10606.26
646.749	10485.43
646.942	10616.5
647.135	10542.77
647.328	10378.93
647.521	10276.54
647.714	10217.15
647.907	10157.75
648.099	10329.78
648.292	10165.95
648.485	10088.12
648.678	10110.65
648.871	9946.81
649.064	9924.29
649.256	10069.69
649.449	9854.65
649.642	9754.3
649.835	9660.1
650.027	9604.8
650.22	9721.54
650.413	9645.76
650.605	9608.9
650.798	9391.81
650.991	9199.3
651.183	9436.87
651.376	9291.46
651.568	9443.01
651.761	9166.54
651.954	9273.03
652.146	9201.35
652.339	9137.87
652.531	9041.61
652.724	8828.62
652.916	8859.34
653.109	8752.85
653.301	8939.21
653.494	8920.78
653.686	8589.01
653.879	8818.38
654.071	8675.02
654.263	8589.01
654.456	8615.63
654.648	8617.68
654.84	8371.93
655.033	8371.93
655.225	8275.67
655.417	8285.91
655.61	8244.95
655.802	8203.99
655.994	8101.59
656.186	8365.78
656.379	8142.55
656.571	8181.46
656.763	8277.72
656.955	7976.67
657.148	7923.42
657.34	7937.76
657.532	7696.1
657.724	7874.27
657.916	7890.65
658.108	7599.84
658.3	7651.04
658.492	7669.47
658.684	7642.85
658.876	7659.23
659.068	7536.35
659.26	7327.46
659.452	7458.53
659.644	7317.22
659.836	7358.18
660.028	7382.76
660.22	7202.54
660.412	7257.83
660.604	7098.09
660.796	7143.14
660.988	7257.83
661.18	6942.44
661.372	7194.34
661.563	7126.76
661.755	7032.55
661.947	6954.73
662.139	7020.27
662.331	6811.37
662.522	6782.7
662.714	6711.02
662.906	6612.72
663.097	6835.95
663.289	6579.95
663.481	6592.24
663.673	6487.79
663.864	6430.45
664.056	6612.72
664.247	6629.1
664.439	6530.8
664.631	6684.4
664.822	6489.84
665.014	6383.35
665.205	6422.26
665.397	6340.34
665.588	6258.42
665.78	6352.63
665.971	6291.19
666.163	6299.38
666.354	6151.93
666.546	5971.71
666.737	6194.93
666.929	6219.51
667.12	6172.41
667.311	6205.17
667.503	6084.34
667.694	5943.03
667.885	5906.17
668.077	5932.79
668.268	5834.49
668.459	5914.36
668.651	5844.73
668.842	5857.02
669.033	5771.01
669.224	5736.19
669.416	5904.12
669.607	5811.96
669.798	5676.8
669.989	5822.2
670.18	5764.86
670.371	5775.1
670.563	5555.97
670.754	5611.26
670.945	5510.91
671.136	5406.47
671.327	5611.26
671.518	5469.95
671.709	5541.63
671.9	5584.64
672.091	5592.83
672.282	5463.81
672.473	5547.78
672.664	5357.32
672.855	5383.94
673.046	5326.6
673.237	5365.51
673.428	5259.01
673.619	5289.73
673.809	5103.37
674	5318.4
674.191	5199.62
674.382	5160.71
674.573	5242.63
674.764	5189.38
674.954	5117.7
675.145	5113.61
675.336	5089.03
675.527	5035.78
675.717	4982.54
675.908	5082.89
676.099	5072.65
676.289	4892.43
676.48	5000.97
676.671	4931.34
676.861	5103.37
677.052	4910.86
677.243	4982.54
677.433	4900.62
677.624	5033.74
677.814	4708.11
678.005	4777.74
678.195	4849.42
678.386	4738.83
678.576	4591.38
678.767	4767.5
678.957	4710.16
679.148	4843.28
679.338	4728.59
679.529	4624.14
679.719	4734.73
679.909	4679.44
680.1	4679.44
680.29	4781.84
680.481	4689.68
680.671	4734.73
680.861	4587.28
681.052	4603.66
681.242	4546.32
681.432	4572.94
681.622	4525.84
681.813	4632.33
682.003	4517.65
682.193	4667.15
682.383	4515.6
682.573	4599.57
682.764	4306.71
682.954	4478.74
683.144	4564.75
683.334	4456.21
683.524	4546.32
683.714	4394.77
683.904	4384.53
684.094	4349.71
684.284	4464.4
684.474	4429.59
684.664	4366.1
684.854	4429.59
685.044	4323.09
685.234	4345.62
685.424	4362
685.614	4218.64
685.804	4470.55
685.994	4204.31
686.184	4480.78
686.374	4216.6
686.564	4136.73
686.753	4280.08
686.943	4124.44
687.133	4194.07
687.323	4218.64
687.513	4099.86
687.702	4093.72
687.892	4144.92
688.082	4163.35
688.272	4146.97
688.461	4085.53
688.651	4159.25
688.841	4226.84
689.03	4052.76
689.22	4058.9
689.41	3956.5
689.599	3948.31
689.789	4071.19
689.979	3976.98
690.168	3858.2
690.358	3950.36
690.547	4087.57
690.737	3913.5
690.926	3874.59
691.116	3839.77
691.305	3886.87
691.495	3753.76
691.684	3866.39
691.874	3956.5
692.063	3784.48
692.252	3901.21
692.442	3874.59
692.631	3852.06
692.82	3788.57
693.01	3753.76
693.199	3628.83
693.388	3604.25
693.578	3809.05
693.767	3712.8
693.956	3671.84
694.146	3677.98
694.335	3622.69
694.524	3667.74
694.713	3735.32
694.902	3661.6
695.092	3688.22
695.281	3497.76
695.47	3798.81
695.659	3606.3
695.848	3557.15
696.037	3596.06
696.226	3569.44
696.415	3632.93
696.604	3688.22
696.793	3788.57
696.982	3657.5
697.171	3587.87
697.36	3522.34
697.549	3489.57
697.738	3505.95
697.927	3587.87
698.116	3450.66
698.305	3641.12
698.494	3571.49
698.683	3391.27
698.872	3493.66
699.061	3620.64
699.25	3489.57
699.438	3589.92
699.627	3442.46
699.816	3602.21
700.005	3469.09
700.193	3569.44
700.382	3526.43
700.571	3530.53
700.76	3483.42
700.948	3524.38
701.137	3444.51
701.326	3489.57
701.514	3516.19
701.703	3333.92
701.892	3362.59
702.08	3401.51
702.269	3374.88
702.457	3286.82
702.646	3407.65
702.834	3378.98
703.023	3467.04
703.212	3352.35
703.4	3415.84
703.589	3442.46
703.777	3389.22
703.965	3217.19
704.154	3290.92
704.342	3335.97
704.531	3342.11
704.719	3307.3
704.907	3286.82
705.096	3194.66
705.284	3270.44
705.472	3309.35
705.661	3206.95
705.849	3276.58
706.037	3245.86
706.226	3309.35
706.414	3295.01
706.602	3155.75
706.79	3372.83
706.979	3342.11
707.167	3163.94
707.355	3067.69
707.543	3249.96
707.731	3303.2
707.919	3073.83
708.107	3133.22
708.296	3200.8
708.484	3098.41
708.672	3182.37
708.86	3209
709.048	3258.15
709.236	3125.03
709.424	3118.89
709.612	3065.64
709.8	3182.37
709.988	2983.72
710.176	3112.74
710.364	3161.89
710.551	3157.8
710.739	3147.56
710.927	3112.74
711.115	3082.02
711.303	3215.14
711.491	3104.55
711.679	3043.11
711.866	3098.41
712.054	3147.56
712.242	3041.06
712.43	3092.26
712.617	3030.82
712.805	3055.4
712.993	2912.04
713.181	2957.1
713.368	3112.74
713.556	3139.37
713.744	2920.23
713.931	3125.03
714.119	2875.18
714.306	2862.89
714.494	2936.62
714.682	2862.89
714.869	2826.03
715.057	3032.87
715.244	2932.52
715.432	2948.9
715.619	2836.27
715.807	2897.71
715.994	2830.12
716.182	2809.64
716.369	2901.8
716.556	2924.33
716.744	2875.18
716.931	2830.12
717.119	2791.21
717.306	2985.77
717.493	2764.59
717.681	2866.99
717.868	2719.53
718.055	2707.24
718.242	2862.89
718.43	2744.11
718.617	2817.83
718.804	2709.29
718.991	2819.88
719.179	2776.87
719.366	2705.2
719.553	2756.4
719.74	2735.92
719.927	2682.67
720.114	2701.1
720.301	2776.87
720.488	2707.24
720.676	2658.09
720.863	2828.07
721.05	2697
721.237	2703.15
721.424	2727.72
721.611	2621.23
721.798	2572.08
721.985	2664.24
722.172	2471.73
722.358	2697
722.545	2613.04
722.732	2654
722.919	2682.67
723.106	2625.33
723.293	2557.74
723.48	2551.6
723.667	2574.13
723.853	2567.98
724.04	2629.42
724.227	2541.36
724.414	2522.93
724.6	2592.56
724.787	2567.98
724.974	2514.73
725.161	2559.79
725.347	2580.27
725.534	2498.35
725.72	2580.27
725.907	2639.66
726.094	2506.54
726.28	2500.4
726.467	2559.79
726.653	2502.45
726.84	2492.21
727.027	2455.34
727.213	2443.06
727.4	2453.3
727.586	2443.06
727.773	2436.91
727.959	2518.83
728.145	2400.05
728.332	2486.06
728.518	2514.73
728.705	2459.44
728.891	2506.54
729.077	2508.59
729.264	2377.52
729.45	2522.93
729.636	2391.86
729.823	2490.16
730.009	2342.71
730.195	2307.89
730.382	2375.47
730.568	2469.68
730.754	2453.3
730.94	2314.03
731.126	2492.21
731.313	2238.26
731.499	2402.1
731.685	2352.95
731.871	2318.13
732.057	2248.5
732.243	2295.6
732.429	2424.62
732.615	2354.99
732.801	2283.31
732.987	2281.27
733.173	2236.21
733.359	2344.75
733.545	2172.72
733.731	2193.2
733.917	2252.59
734.103	2295.6
734.289	2207.54
734.475	2268.98
734.661	2377.52
734.847	2252.59
735.033	2236.21
735.219	2170.68
735.404	2187.06
735.59	2156.34
735.776	2197.3
735.962	2146.1
736.148	2146.1
736.333	2232.12
736.519	2277.17
736.705	2197.3
736.89	2182.96
737.076	2084.66
737.262	2123.57
737.447	2039.61
737.633	2160.44
737.819	2240.31
738.004	2142
738.19	2170.68
738.375	2088.76
738.561	2150.2
738.747	2082.61
738.932	2105.14
739.118	2076.47
739.303	2121.52
739.489	2146.1
739.674	1931.06
739.859	1982.26
740.045	2062.13
740.23	2072.37
740.416	1941.3
740.601	2055.99
740.786	2162.48
740.972	2008.89
741.157	2023.22
741.342	1906.49
741.528	1951.54
741.713	2031.41
741.898	2039.61
742.084	2021.17
742.269	1947.45
742.454	2000.69
742.639	2066.23
742.824	1879.86
743.01	1994.55
743.195	1929.02
743.38	1935.16
743.565	1879.86
743.75	1892.15
743.935	1881.91
744.12	1900.34
744.305	1832.76
744.49	1883.96
744.675	1853.24
744.86	1894.2
745.045	1826.62
745.23	1799.99
745.415	1834.81
745.6	1705.79
745.785	1752.89
745.97	1744.7
746.155	1818.43
746.34	1853.24
746.525	1799.99
746.71	1736.51
746.895	1691.45
747.079	1728.31
747.264	1638.2
747.449	1771.32
747.634	1744.7
747.819	1642.3
748.003	1705.79
748.188	1646.4
748.373	1705.79
748.557	1625.92
748.742	1576.77
748.927	1689.4
749.111	1677.12
749.296	1613.63
749.481	1638.2
749.665	1634.11
749.85	1503.04
750.034	1589.05
750.219	1605.44
750.404	1359.68
750.588	1531.71
750.773	1523.52
750.957	1531.71
751.141	1531.71
751.326	1531.71
751.51	1480.51
751.695	1453.89
751.879	1498.94
752.064	1601.34
752.248	1449.79
752.432	1376.06
752.617	1414.98
752.801	1435.46
752.985	1320.77
753.17	1441.6
753.354	1353.54
753.538	1363.78
753.722	1277.76
753.907	1288
754.091	1353.54
754.275	1212.23
754.459	1294.15
754.643	1230.66
754.828	1265.47
755.012	1328.96
755.196	1212.23
755.38	1236.8
755.564	1359.68
755.748	1285.95
755.932	1171.27
756.116	1265.47
756.3	1290.05
756.484	1191.75
756.668	1228.61
756.852	1167.17
757.036	1171.27
757.22	1294.15
757.404	1109.83
757.588	1193.8
757.772	1206.08
757.956	1150.79
758.14	1167.17
758.323	1122.12
758.507	1056.58
758.691	1177.41
758.875	1183.56
759.059	1138.5
759.242	986.95
759.426	1017.67
759.61	1101.64
759.794	1064.77
759.977	1072.96
760.161	1138.5
760.345	1085.25
760.528	1032.01
760.712	1027.91
760.895	1105.73
761.079	1034.05
761.263	1032.01
761.446	1034.05
761.63	986.95
761.813	966.47
761.997	974.66
762.18	1011.53
762.364	1064.77
762.547	1032.01
762.731	989
762.914	972.61
763.098	991.05
763.281	974.66
763.464	974.66
763.648	945.99
763.831	941.89
764.015	898.89
764.198	1060.68
764.381	937.8
764.564	941.89
764.748	964.42
764.931	882.5
765.114	941.89
765.297	880.46
765.481	812.87
765.664	853.83
765.847	911.18
766.03	929.61
766.213	900.94
766.397	868.17
766.58	913.22
766.763	943.94
766.946	859.98
767.129	884.55
767.312	870.22
767.495	767.82
767.678	888.65
767.861	902.98
768.044	890.7
768.227	894.79
768.41	773.96
768.593	884.55
768.776	896.84
768.959	884.55
769.142	743.24
769.324	833.35
769.507	757.58
769.69	821.06
769.873	745.29
770.056	902.98
770.239	720.71
770.421	804.68
770.604	806.73
770.787	821.06
770.97	819.02
771.152	730.95
771.335	806.73
771.518	794.44
771.7	843.59
771.883	827.21
772.066	804.68
772.248	778.06
772.431	866.12
772.613	812.87
772.796	763.72
772.978	730.95
773.161	902.98
773.343	761.67
773.526	761.67
773.708	702.28
773.891	665.42
774.073	665.42
774.256	696.14
774.438	804.68
774.621	692.04
774.803	720.71
774.985	603.98
775.168	708.43
775.35	720.71
775.532	644.94
775.715	761.67
775.897	599.88
776.079	665.42
776.261	698.19
776.444	651.08
776.626	677.71
776.808	634.7
776.99	632.65
777.173	597.84
777.355	610.12
777.537	606.03
777.719	730.95
777.901	646.99
778.083	495.44
778.265	477.01
778.447	565.07
778.629	550.73
778.811	599.88
778.993	579.4
779.175	628.56
779.357	517.97
779.539	460.62
779.721	569.16
779.903	544.59
780.085	552.78
780.267	581.45
780.449	565.07
780.631	558.92
780.812	532.3
780.994	550.73
781.176	515.92
781.358	444.24
781.54	513.87
781.721	499.53
781.903	524.11
782.085	536.4
782.267	552.78
782.448	556.88
782.63	474.96
782.812	477.01
782.993	505.68
783.175	591.69
783.357	497.49
783.538	446.29
783.72	485.2
783.901	429.9
784.083	507.73
784.264	483.15
784.446	520.01
784.627	395.09
784.809	462.67
784.99	419.66
785.172	524.11
785.353	409.42
785.535	386.9
785.716	419.66
785.897	399.18
786.079	378.7
786.26	405.33
786.441	366.42
786.623	434
786.804	378.7
786.985	384.85
787.167	434
787.348	368.46
787.529	354.13
787.71	454.48
787.891	335.7
788.073	429.9
788.254	442.19
788.435	423.76
788.616	378.7
788.797	352.08
788.978	311.12
789.159	368.46
789.34	491.34
789.522	319.31
789.703	360.27
789.884	323.41
790.065	309.07
790.246	421.71
790.427	341.84
790.607	331.6
790.788	343.89
790.969	270.16
791.15	319.31
791.331	317.26
791.512	335.7
791.693	315.22
791.874	298.83
792.054	378.7
792.235	366.42
792.416	337.74
792.597	268.11
792.778	329.55
792.958	315.22
793.139	362.32
793.32	368.46
793.5	253.78
793.681	335.7
793.862	286.54
794.042	315.22
794.223	210.77
794.404	311.12
794.584	304.98
794.765	360.27
794.945	286.54
795.126	319.31
795.306	317.26
795.487	259.92
795.667	290.64
795.848	378.7
796.028	288.59
796.209	307.02
796.389	319.31
796.57	221.01
796.75	173.91
796.93	249.68
797.111	214.87
797.291	294.74
797.471	247.63
797.652	210.77
797.832	251.73
798.012	307.02
798.192	251.73
798.373	229.2
798.553	239.44
798.733	229.2
798.913	225.11
799.093	319.31
799.274	284.5
799.454	284.5
799.634	200.53
799.814	294.74
799.994	235.35
800.174	266.07
800.354	245.59
800.534	237.39
800.714	137.04
800.894	229.2
801.074	186.19
801.254	204.63
801.434	241.49
801.614	239.44
801.794	167.76
801.974	792.39
802.154	184.15
802.334	233.3
802.514	245.59
802.693	237.39
802.873	202.58
803.053	173.91
803.233	257.87
803.413	237.39
803.592	196.43
803.772	200.53
803.952	155.47
804.131	180.05
804.311	147.28
804.491	147.28
804.67	175.95
804.85	180.05
805.03	261.97
805.209	227.15
805.389	114.52
805.568	245.59
805.748	204.63
805.928	196.43
806.107	173.91
806.287	192.34
806.466	200.53
806.646	163.67
806.825	124.76
807.004	198.48
807.184	231.25
807.363	231.25
807.543	180.05
807.722	231.25
807.901	194.39
808.081	188.24
808.26	118.61
808.439	221.01
808.619	208.72
808.798	221.01
808.977	231.25
809.156	155.47
809.336	180.05
809.515	184.15
809.694	85.84
809.873	171.86
810.052	171.86
810.231	188.24
810.411	200.53
810.59	147.28
810.769	180.05
810.948	173.91
811.127	106.32
811.306	100.18
811.485	141.14
811.664	196.43
811.843	171.86
812.022	249.68
812.201	218.96
812.38	155.47
812.559	157.52
812.737	157.52
812.916	83.8
813.095	239.44
813.274	155.47
813.453	163.67
813.632	132.95
813.811	188.24
813.989	124.76
814.168	182.1
814.347	206.67
814.526	100.18
814.704	161.62
814.883	167.76
815.062	81.75
815.24	180.05
815.419	139.09
815.598	212.82
815.776	118.61
815.955	155.47
816.133	91.99
816.312	122.71
816.49	32.6
816.669	153.43
816.847	130.9
817.026	132.95
817.204	143.19
817.383	139.09
817.561	169.81
817.74	98.13
817.918	173.91
818.097	141.14
818.275	55.12
818.453	130.9
818.632	184.15
818.81	81.75
818.988	53.08
819.167	53.08
819.345	114.52
819.523	130.9
819.701	132.95
819.879	139.09
820.058	163.67
820.236	151.38
820.414	139.09
820.592	163.67
820.77	48.98
820.948	69.46
821.127	40.79
821.305	161.62
821.483	139.09
821.661	198.48
821.839	106.32
822.017	65.36
822.195	106.32
822.373	149.33
822.551	98.13
822.729	163.67
822.907	69.46
823.085	110.42
823.262	98.13
823.44	48.98
823.618	28.5
823.796	85.84
823.974	104.28
824.152	59.22
824.329	163.67
824.507	128.85
824.685	116.56
824.863	116.56
825.04	114.52
825.218	198.48
825.396	48.98
825.574	108.37
825.751	128.85
825.929	169.81
826.107	106.32
826.284	-18.6
826.462	110.42
826.639	40.79
826.817	85.84
826.994	91.99
827.172	53.08
827.349	130.9
827.527	124.76
827.704	128.85
827.882	69.46
828.059	147.28
828.237	132.95
828.414	91.99
828.591	18.26
828.769	124.76
828.946	77.65
829.124	122.71
829.301	163.67
829.478	98.13
829.655	145.24
829.833	32.6
830.01	44.88
830.187	32.6
830.364	8.02
830.542	38.74
830.719	61.27
830.896	32.6
831.073	51.03
831.25	53.08
831.427	69.46
831.604	110.42
831.782	175.95
831.959	89.94
832.136	81.75
832.313	85.84
832.49	59.22
832.667	65.36
832.844	38.74
833.021	106.32
833.198	118.61
833.374	106.32
833.551	139.09
833.728	71.51
833.905	73.56
834.082	98.13
834.259	89.94
834.436	100.18
834.612	44.88
834.789	69.46
834.966	73.56
835.143	20.31
835.319	24.4
835.496	36.69
835.673	75.6
835.85	106.32
836.026	32.6
836.203	110.42
836.38	106.32
836.556	32.6
836.733	42.84
836.909	73.56
837.086	48.98
837.262	36.69
837.439	100.18
837.616	34.64
837.792	14.17
837.968	100.18
838.145	-14.51
838.321	132.95
838.498	-0.17
838.674	28.5
838.851	51.03
839.027	100.18
839.203	16.21
839.38	48.98
839.556	67.41
839.732	48.98
839.909	73.56
840.085	59.22
840.261	59.22
840.437	38.74
840.614	69.46
840.79	114.52
840.966	34.64
841.142	89.94
841.318	102.23
841.494	73.56
841.671	104.28
841.847	28.5
842.023	44.88
842.199	61.27
842.375	57.17
842.551	124.76
842.727	12.12
842.903	85.84
843.079	26.45
843.255	110.42
843.431	16.21
843.607	106.32
843.783	12.12
843.959	118.61
844.134	8.02
844.31	61.27
844.486	57.17
844.662	57.17
844.838	67.41
845.013	38.74
845.189	55.12
845.365	48.98
845.541	94.04
845.716	89.94
845.892	36.69
846.068	5.97
846.244	46.93
846.419	65.36
846.595	81.75
846.77	44.88
846.946	22.36
847.122	42.84
847.297	-4.27
847.473	100.18
847.648	-14.51
847.824	26.45
847.999	32.6
848.175	51.03
848.35	46.93
848.526	63.32
848.701	32.6
848.876	22.36
849.052	42.84
849.227	71.51
849.403	61.27
849.578	-8.36
849.753	139.09
849.929	44.88
850.104	-8.36
850.279	40.79
850.454	85.84
850.63	67.41
850.805	48.98
850.98	40.79
851.155	34.64
851.33	85.84
851.505	-24.75
851.681	100.18
851.856	-14.51
852.031	110.42
852.206	63.32
852.381	18.26
852.556	51.03
852.731	32.6
852.906	36.69
853.081	26.45
853.256	139.09
853.431	-12.46
853.606	65.36
853.781	46.93
853.956	-6.31
854.131	65.36
854.305	-0.17
854.48	40.79
854.655	32.6
854.83	118.61
855.005	-4.27
855.18	48.98
855.354	42.84
855.529	51.03
855.704	36.69
855.879	85.84
856.053	20.31
856.228	42.84
856.403	12.12
856.577	116.56
856.752	20.31
856.926	12.12
857.101	-4.27
857.276	-22.7
857.45	-22.7
857.625	75.6
857.799	-28.84
857.974	10.07
858.148	61.27
858.323	40.79
858.497	73.56
858.672	-22.7
858.846	32.6
859.02	42.84
859.195	-0.17
859.369	48.98
859.543	75.6
859.718	40.79
859.892	67.41
860.066	1.88
860.241	42.84
860.415	24.4
860.589	20.31
860.763	75.6
860.938	-0.17
861.112	51.03
861.286	-2.22
861.46	65.36
861.634	5.97
861.808	28.5
861.982	5.97
862.157	40.79
862.331	61.27
862.505	8.02
862.679	67.41
862.853	77.65
863.027	-20.65
863.201	53.08
863.375	-49.32
863.549	-45.23
863.722	3.93
863.896	83.8
864.07	-51.37
864.244	44.88
864.418	65.36
864.592	63.32
864.766	-45.23
864.939	46.93
865.113	-20.65
865.287	8.02
865.461	34.64
865.634	65.36
865.808	-20.65
865.982	57.17
866.156	75.6
866.329	34.64
866.503	48.98
866.676	-24.75
866.85	26.45
867.024	-14.51
867.197	-16.55
867.371	87.89
867.544	124.76
867.718	36.69
867.891	89.94
868.065	69.46
868.238	28.5
868.412	24.4
868.585	26.45
868.759	18.26
868.932	12.12
869.105	1.88
869.279	46.93
869.452	44.88
869.625	32.6
869.799	36.69
869.972	-47.27
870.145	51.03
870.319	34.64
870.492	18.26
870.665	3.93
870.838	16.21
871.011	32.6
871.185	12.12
871.358	34.64
871.531	85.84
871.704	24.4
871.877	94.04
872.05	-24.75
872.223	16.21
872.396	57.17
872.569	53.08
872.742	-10.41
872.915	24.4
873.088	57.17
873.261	42.84
873.434	40.79
873.607	38.74
873.78	-22.7
873.953	-49.32
874.126	130.9
874.299	57.17
874.471	-16.55
874.644	20.31
874.817	85.84
874.99	106.32
875.163	14.17
875.335	40.79
875.508	12.12
875.681	20.31
875.853	8.02
876.026	10.07
876.199	59.22
876.371	-4.27
876.544	36.69
876.717	65.36
876.889	-16.55
877.062	42.84
877.234	-12.46
877.407	57.17
877.579	42.84
877.752	36.69
877.924	-0.17
878.097	20.31
878.269	34.64
878.442	8.02
878.614	61.27
878.786	61.27
878.959	69.46
879.131	20.31
879.303	-20.65
879.476	12.12
879.648	36.69
879.82	57.17
879.993	48.98
880.165	-4.27
880.337	8.02
880.509	18.26
880.681	-0.17
880.854	28.5
881.026	32.6
881.198	59.22
881.37	30.55
881.542	10.07
881.714	57.17
881.886	32.6
882.058	85.84
882.23	-39.08
882.402	-71.85
882.574	-0.17
882.746	67.41
882.918	16.21
883.09	-24.75
883.262	-16.55
883.434	-47.27
883.606	102.23
883.778	5.97
883.95	67.41
884.122	32.6
884.293	16.21
884.465	34.64
884.637	-41.13
884.809	8.02
884.98	57.17
885.152	-4.27
885.324	20.31
885.496	20.31
885.667	24.4
885.839	26.45
886.011	65.36
886.182	73.56
886.354	-22.7
886.525	5.97
886.697	18.26
886.869	-43.18
887.04	28.5
887.212	-14.51
887.383	57.17
887.555	30.55
887.726	12.12
887.897	-49.32
888.069	28.5
888.24	98.13
888.412	57.17
888.583	-24.75
888.754	-4.27
888.926	-8.36
889.097	-47.27
889.268	-49.32
889.44	16.21
889.611	-14.51
889.782	-12.46
889.953	42.84
890.125	28.5
890.296	-4.27
890.467	-16.55
890.638	-30.89
890.809	-22.7
890.98	-16.55
891.151	36.69
891.323	8.02
891.494	-4.27
891.665	44.88
891.836	-4.27
892.007	-41.13
892.178	-47.27
892.349	40.79
892.52	1.88
892.691	-6.31
892.862	5.97
893.032	16.21
893.203	91.99
893.374	-22.7
893.545	26.45
893.716	24.4
893.887	-16.55
894.057	-92.33
894.228	-8.36
894.399	16.21
894.57	67.41
894.74	14.17
894.911	18.26
895.082	-104.62
895.253	-28.84
895.423	51.03
895.594	69.46
895.764	-18.6
895.935	-0.17
896.106	34.64
896.276	16.21
896.447	24.4
896.617	8.02
896.788	-28.84
896.958	1.88
897.129	30.55
897.299	-80.04
897.47	48.98
897.64	-14.51
897.81	-63.66
897.981	48.98
898.151	-0.17
898.322	59.22
898.492	28.5
898.662	-4.27
898.832	-14.51
899.003	-20.65
899.173	57.17
899.343	108.37
899.513	-47.27
