Data from USB4F104151__185__14-20-14-652.txt Node

Date: Thu Mar 13 14:20:14 EDT 2025
User: louis
Spectrometer: USB4F10415
Trigger mode: 4
Integration Time (sec): 2.000000E-2
Scans to average: 1
Electric dark correction enabled: true
Nonlinearity correction enabled: false
Boxcar width: 0
XAxis mode: Wavelengths
Number of Pixels in Spectrum: 3648
>>>>>Begin Spectral Data<<<<<
178.204	-83.28
178.424	-83.28
178.644	-83.28
178.864	-163.15
179.084	-56.66
179.304	74.41
179.524	21.16
179.744	-5.46
179.964	23.21
180.184	-38.23
180.404	27.31
180.624	-32.08
180.844	-21.85
181.064	-40.28
181.283	0.68
181.503	2.73
181.723	-11.61
181.943	8.87
182.163	98.99
182.383	-9.56
182.602	27.31
182.822	64.17
183.042	-64.85
183.262	111.27
183.482	37.55
183.701	-23.89
183.921	49.83
184.141	-11.61
184.361	60.07
184.58	53.93
184.8	41.64
185.02	49.83
185.239	127.66
185.459	0.68
185.679	49.83
185.898	33.45
186.118	43.69
186.338	58.03
186.557	68.27
186.777	29.35
186.997	78.51
187.216	-7.51
187.436	58.03
187.655	94.89
187.875	-23.89
188.095	25.26
188.314	103.08
188.534	17.07
188.753	70.31
188.973	74.41
189.192	66.22
189.412	6.83
189.631	0.68
189.851	70.31
190.07	37.55
190.29	-5.46
190.509	70.31
190.729	37.55
190.948	90.79
191.168	90.79
191.387	37.55
191.607	51.88
191.826	72.36
192.045	45.74
192.265	0.68
192.484	51.88
192.704	49.83
192.923	-13.65
193.142	12.97
193.362	27.31
193.581	39.59
193.8	12.97
194.02	82.6
194.239	19.11
194.458	107.18
194.678	82.6
194.897	111.27
195.116	74.41
195.335	125.61
195.555	53.93
195.774	74.41
195.993	41.64
196.212	-27.99
196.432	25.26
196.651	17.07
196.87	49.83
197.089	76.46
197.308	-17.75
197.528	45.74
197.747	0.68
197.966	23.21
198.185	94.89
198.404	98.99
198.623	55.98
198.842	-27.99
199.062	41.64
199.281	25.26
199.5	27.31
199.719	68.27
199.938	39.59
200.157	76.46
200.376	17.07
200.595	88.75
200.814	58.03
201.033	86.7
201.252	35.5
201.471	70.31
201.69	4.78
201.909	27.31
202.128	37.55
202.347	109.22
202.566	6.83
202.785	25.26
203.004	12.97
203.223	62.12
203.442	8.87
203.661	-71
203.879	76.46
204.098	29.35
204.317	64.17
204.536	82.6
204.755	27.31
204.974	45.74
205.193	98.99
205.411	86.7
205.63	74.41
205.849	66.22
206.068	23.21
206.287	25.26
206.505	62.12
206.724	-11.61
206.943	49.83
207.162	-7.51
207.381	82.6
207.599	74.41
207.818	125.61
208.037	0.68
208.255	8.87
208.474	68.27
208.693	-7.51
208.911	58.03
209.13	78.51
209.349	6.83
209.567	60.07
209.786	25.26
210.005	105.13
210.223	88.75
210.442	33.45
210.661	33.45
210.879	-13.65
211.098	6.83
211.316	74.41
211.535	166.57
211.753	49.83
211.972	90.79
212.191	-23.89
212.409	135.85
212.628	-21.85
212.846	-54.61
213.065	37.55
213.283	66.22
213.502	-7.51
213.72	80.55
213.938	10.92
214.157	129.7
214.375	64.17
214.594	-5.46
214.812	101.03
215.031	74.41
215.249	41.64
215.467	-3.41
215.686	17.07
215.904	29.35
216.122	17.07
216.341	96.94
216.559	78.51
216.778	84.65
216.996	119.46
217.214	10.92
217.432	4.78
217.651	41.64
217.869	41.64
218.087	17.07
218.306	4.78
218.524	-30.04
218.742	45.74
218.96	51.88
219.179	58.03
219.397	17.07
219.615	92.84
219.833	60.07
220.051	0.68
220.27	74.41
220.488	84.65
220.706	43.69
220.924	66.22
221.142	-15.7
221.36	15.02
221.578	111.27
221.796	41.64
222.015	6.83
222.233	-36.18
222.451	37.55
222.669	15.02
222.887	43.69
223.105	-23.89
223.323	29.35
223.541	23.21
223.759	60.07
223.977	-54.61
224.195	49.83
224.413	60.07
224.631	98.99
224.849	82.6
225.067	78.51
225.285	4.78
225.503	74.41
225.721	-23.89
225.939	49.83
226.157	60.07
226.375	92.84
226.592	60.07
226.81	-21.85
227.028	78.51
227.246	107.18
227.464	12.97
227.682	115.37
227.9	43.69
228.117	74.41
228.335	43.69
228.553	25.26
228.771	29.35
228.989	64.17
229.206	86.7
229.424	27.31
229.642	70.31
229.86	-38.23
230.077	137.9
230.295	33.45
230.513	70.31
230.731	-23.89
230.948	51.88
231.166	66.22
231.384	58.03
231.601	33.45
231.819	152.23
232.037	25.26
232.254	49.83
232.472	37.55
232.689	37.55
232.907	86.7
233.125	2.73
233.342	2.73
233.56	33.45
233.777	66.22
233.995	137.9
234.213	37.55
234.43	-1.37
234.648	23.21
234.865	19.11
235.083	33.45
235.3	107.18
235.518	86.7
235.735	27.31
235.953	148.14
236.17	8.87
236.388	19.11
236.605	35.5
236.822	33.45
237.04	19.11
237.257	19.11
237.475	60.07
237.692	62.12
237.909	8.87
238.127	8.87
238.344	55.98
238.562	35.5
238.779	-11.61
238.996	-5.46
239.214	43.69
239.431	8.87
239.648	33.45
239.865	53.93
240.083	45.74
240.3	41.64
240.517	-13.65
240.735	53.93
240.952	160.42
241.169	8.87
241.386	45.74
241.603	37.55
241.821	58.03
242.038	88.75
242.255	66.22
242.472	4.78
242.689	51.88
242.907	92.84
243.124	84.65
243.341	96.94
243.558	2.73
243.775	-1.37
243.992	-23.89
244.209	4.78
244.426	90.79
244.643	64.17
244.86	103.08
245.078	25.26
245.295	43.69
245.512	-15.7
245.729	25.26
245.946	72.36
246.163	0.68
246.38	70.31
246.597	25.26
246.814	86.7
247.031	-32.08
247.248	74.41
247.464	25.26
247.681	-15.7
247.898	31.4
248.115	41.64
248.332	-30.04
248.549	92.84
248.766	107.18
248.983	29.35
249.2	0.68
249.417	68.27
249.633	4.78
249.85	-5.46
250.067	123.56
250.284	-1.37
250.501	82.6
250.717	39.59
250.934	72.36
251.151	17.07
251.368	53.93
251.585	53.93
251.801	90.79
252.018	0.68
252.235	82.6
252.451	0.68
252.668	35.5
252.885	-23.89
253.102	43.69
253.318	31.4
253.535	45.74
253.752	15.02
253.968	80.55
254.185	43.69
254.401	27.31
254.618	60.07
254.835	43.69
255.051	78.51
255.268	41.64
255.484	90.79
255.701	41.64
255.917	74.41
256.134	37.55
256.351	-3.41
256.567	4.78
256.784	15.02
257	90.79
257.217	88.75
257.433	70.31
257.65	113.32
257.866	74.41
258.082	15.02
258.299	90.79
258.515	86.7
258.732	39.59
258.948	-9.56
259.165	76.46
259.381	45.74
259.597	86.7
259.814	74.41
260.03	-40.28
260.246	-11.61
260.463	10.92
260.679	39.59
260.895	70.31
261.112	76.46
261.328	0.68
261.544	10.92
261.761	98.99
261.977	-19.8
262.193	2.73
262.409	68.27
262.626	115.37
262.842	70.31
263.058	33.45
263.274	35.5
263.49	8.87
263.707	25.26
263.923	127.66
264.139	2.73
264.355	68.27
264.571	-15.7
264.787	25.26
265.004	84.65
265.22	55.98
265.436	-30.04
265.652	101.03
265.868	84.65
266.084	33.45
266.3	58.03
266.516	-89.43
266.732	19.11
266.948	76.46
267.164	58.03
267.38	41.64
267.596	107.18
267.812	125.61
268.028	19.11
268.244	31.4
268.46	51.88
268.676	62.12
268.892	68.27
269.108	84.65
269.324	-30.04
269.54	70.31
269.756	-25.94
269.972	33.45
270.188	80.55
270.403	70.31
270.619	53.93
270.835	-13.65
271.051	41.64
271.267	8.87
271.483	2.73
271.698	84.65
271.914	37.55
272.13	-3.41
272.346	10.92
272.562	23.21
272.777	158.38
272.993	33.45
273.209	-32.08
273.425	-36.18
273.64	29.35
273.856	10.92
274.072	-23.89
274.287	51.88
274.503	37.55
274.719	70.31
274.934	66.22
275.15	-19.8
275.366	37.55
275.581	33.45
275.797	12.97
276.012	62.12
276.228	41.64
276.444	8.87
276.659	111.27
276.875	60.07
277.09	107.18
277.306	21.16
277.521	33.45
277.737	53.93
277.952	41.64
278.168	51.88
278.383	2.73
278.599	43.69
278.814	58.03
279.03	49.83
279.245	33.45
279.461	33.45
279.676	74.41
279.892	0.68
280.107	76.46
280.322	66.22
280.538	164.52
280.753	-5.46
280.969	53.93
281.184	43.69
281.399	109.22
281.615	41.64
281.83	41.64
282.045	10.92
282.26	107.18
282.476	105.13
282.691	84.65
282.906	45.74
283.122	101.03
283.337	58.03
283.552	43.69
283.767	39.59
283.983	12.97
284.198	-66.9
284.413	-15.7
284.628	49.83
284.843	33.45
285.058	88.75
285.274	0.68
285.489	17.07
285.704	88.75
285.919	53.93
286.134	33.45
286.349	86.7
286.564	103.08
286.779	109.22
286.995	39.59
287.21	-27.99
287.425	58.03
287.64	12.97
287.855	35.5
288.07	19.11
288.285	10.92
288.5	82.6
288.715	55.98
288.93	-1.37
289.145	33.45
289.36	51.88
289.575	43.69
289.79	82.6
290.004	49.83
290.219	90.79
290.434	84.65
290.649	-32.08
290.864	27.31
291.079	8.87
291.294	88.75
291.509	0.68
291.724	117.42
291.938	49.83
292.153	96.94
292.368	-21.85
292.583	53.93
292.798	2.73
293.012	35.5
293.227	25.26
293.442	53.93
293.657	76.46
293.871	105.13
294.086	55.98
294.301	98.99
294.516	29.35
294.73	53.93
294.945	8.87
295.16	31.4
295.374	62.12
295.589	107.18
295.804	41.64
296.018	74.41
296.233	53.93
296.447	31.4
296.662	-48.47
296.877	76.46
297.091	58.03
297.306	72.36
297.52	33.45
297.735	70.31
297.949	74.41
298.164	31.4
298.378	10.92
298.593	23.21
298.807	-7.51
299.022	33.45
299.236	27.31
299.451	115.37
299.665	-11.61
299.88	33.45
300.094	66.22
300.309	49.83
300.523	66.22
300.737	25.26
300.952	74.41
301.166	86.7
301.381	17.07
301.595	17.07
301.809	86.7
302.024	41.64
302.238	33.45
302.452	109.22
302.667	62.12
302.881	21.16
303.095	86.7
303.309	27.31
303.524	12.97
303.738	43.69
303.952	25.26
304.166	105.13
304.381	-27.99
304.595	84.65
304.809	64.17
305.023	74.41
305.237	12.97
305.452	90.79
305.666	78.51
305.88	98.99
306.094	33.45
306.308	25.26
306.522	60.07
306.736	64.17
306.95	35.5
307.164	76.46
307.379	66.22
307.593	82.6
307.807	49.83
308.021	-5.46
308.235	82.6
308.449	-5.46
308.663	29.35
308.877	105.13
309.091	101.03
309.305	78.51
309.519	41.64
309.733	-25.94
309.947	-62.8
310.161	25.26
310.374	29.35
310.588	139.94
310.802	19.11
311.016	35.5
311.23	47.79
311.444	37.55
311.658	-15.7
311.872	109.22
312.085	90.79
312.299	74.41
312.513	58.03
312.727	90.79
312.941	23.21
313.154	107.18
313.368	43.69
313.582	53.93
313.796	33.45
314.009	43.69
314.223	45.74
314.437	8.87
314.651	33.45
314.864	117.42
315.078	-15.7
315.292	-9.56
315.505	35.5
315.719	51.88
315.933	-13.65
316.146	33.45
316.36	37.55
316.573	101.03
316.787	66.22
317.001	31.4
317.214	70.31
317.428	82.6
317.641	-27.99
317.855	90.79
318.068	68.27
318.282	49.83
318.495	84.65
318.709	109.22
318.922	17.07
319.136	119.46
319.349	58.03
319.563	66.22
319.776	117.42
319.99	17.07
320.203	66.22
320.417	49.83
320.63	53.93
320.843	76.46
321.057	51.88
321.27	62.12
321.483	41.64
321.697	49.83
321.91	72.36
322.124	90.79
322.337	45.74
322.55	35.5
322.763	64.17
322.977	98.99
323.19	-3.41
323.403	60.07
323.617	53.93
323.83	96.94
324.043	74.41
324.256	25.26
324.469	12.97
324.683	60.07
324.896	55.98
325.109	66.22
325.322	21.16
325.535	172.71
325.748	86.7
325.962	86.7
326.175	41.64
326.388	76.46
326.601	29.35
326.814	68.27
327.027	51.88
327.24	148.14
327.453	-77.14
327.666	82.6
327.879	58.03
328.092	66.22
328.305	117.42
328.518	12.97
328.731	-13.65
328.944	62.12
329.157	51.88
329.37	60.07
329.583	135.85
329.796	101.03
330.009	25.26
330.222	8.87
330.435	6.83
330.648	117.42
330.861	51.88
331.073	29.35
331.286	31.4
331.499	29.35
331.712	-40.28
331.925	12.97
332.138	55.98
332.35	156.33
332.563	60.07
332.776	37.55
332.989	17.07
333.202	58.03
333.414	47.79
333.627	43.69
333.84	-23.89
334.053	98.99
334.265	25.26
334.478	41.64
334.691	33.45
334.903	58.03
335.116	105.13
335.329	107.18
335.541	90.79
335.754	66.22
335.966	101.03
336.179	-23.89
336.392	47.79
336.604	62.12
336.817	33.45
337.029	39.59
337.242	-11.61
337.454	31.4
337.667	68.27
337.88	137.9
338.092	90.79
338.305	84.65
338.517	53.93
338.729	58.03
338.942	49.83
339.154	84.65
339.367	-11.61
339.579	41.64
339.792	-25.94
340.004	82.6
340.217	74.41
340.429	60.07
340.641	90.79
340.854	33.45
341.066	31.4
341.278	82.6
341.491	105.13
341.703	119.46
341.915	82.6
342.128	27.31
342.34	90.79
342.552	27.31
342.764	53.93
342.977	33.45
343.189	58.03
343.401	49.83
343.613	8.87
343.826	60.07
344.038	2.73
344.25	35.5
344.462	35.5
344.674	37.55
344.886	60.07
345.099	41.64
345.311	113.32
345.523	62.12
345.735	51.88
345.947	90.79
346.159	66.22
346.371	33.45
346.583	86.7
346.795	98.99
347.007	41.64
347.219	101.03
347.431	109.22
347.643	17.07
347.855	0.68
348.067	62.12
348.279	55.98
348.491	43.69
348.703	0.68
348.915	90.79
349.127	49.83
349.339	107.18
349.551	21.16
349.763	6.83
349.975	45.74
350.187	166.57
350.399	82.6
350.61	43.69
350.822	90.79
351.034	152.23
351.246	62.12
351.458	107.18
351.669	37.55
351.881	72.36
352.093	0.68
352.305	88.75
352.517	19.11
352.728	94.89
352.94	33.45
353.152	47.79
353.363	82.6
353.575	166.57
353.787	94.89
353.999	49.83
354.21	68.27
354.422	51.88
354.633	45.74
354.845	66.22
355.057	90.79
355.268	82.6
355.48	33.45
355.692	47.79
355.903	21.16
356.115	55.98
356.326	107.18
356.538	74.41
356.749	98.99
356.961	43.69
357.172	94.89
357.384	8.87
357.595	113.32
357.807	19.11
358.018	70.31
358.23	29.35
358.441	88.75
358.653	51.88
358.864	146.09
359.075	-46.42
359.287	74.41
359.498	43.69
359.709	74.41
359.921	60.07
360.132	0.68
360.344	123.56
360.555	92.84
360.766	23.21
360.977	41.64
361.189	109.22
361.4	58.03
361.611	58.03
361.823	86.7
362.034	76.46
362.245	-11.61
362.456	68.27
362.667	123.56
362.879	53.93
363.09	31.4
363.301	53.93
363.512	76.46
363.723	60.07
363.935	33.45
364.146	154.28
364.357	49.83
364.568	117.42
364.779	0.68
364.99	41.64
365.201	58.03
365.412	123.56
365.623	-21.85
365.834	49.83
366.045	125.61
366.256	82.6
366.467	6.83
366.678	49.83
366.889	68.27
367.1	98.99
367.311	37.55
367.522	123.56
367.733	101.03
367.944	45.74
368.155	84.65
368.366	47.79
368.577	76.46
368.788	82.6
368.999	25.26
369.209	35.5
369.42	27.31
369.631	131.75
369.842	53.93
370.053	82.6
370.264	109.22
370.474	-1.37
370.685	10.92
370.896	86.7
371.107	6.83
371.317	98.99
371.528	76.46
371.739	29.35
371.95	43.69
372.16	90.79
372.371	35.5
372.582	45.74
372.792	62.12
373.003	70.31
373.214	49.83
373.424	98.99
373.635	76.46
373.846	125.61
374.056	49.83
374.267	115.37
374.477	53.93
374.688	33.45
374.898	74.41
375.109	49.83
375.319	90.79
375.53	88.75
375.74	78.51
375.951	53.93
376.161	66.22
376.372	135.85
376.582	58.03
376.793	74.41
377.003	92.84
377.214	107.18
377.424	92.84
377.635	82.6
377.845	49.83
378.055	86.7
378.266	82.6
378.476	109.22
378.686	66.22
378.897	82.6
379.107	115.37
379.317	86.7
379.528	49.83
379.738	92.84
379.948	47.79
380.158	111.27
380.369	76.46
380.579	78.51
380.789	117.42
380.999	80.55
381.21	78.51
381.42	154.28
381.63	49.83
381.84	78.51
382.05	84.65
382.261	66.22
382.471	49.83
382.681	33.45
382.891	84.65
383.101	51.88
383.311	47.79
383.521	33.45
383.731	25.26
383.941	58.03
384.151	107.18
384.361	17.07
384.571	125.61
384.781	66.22
384.991	51.88
385.201	55.98
385.411	119.46
385.621	60.07
385.831	49.83
386.041	51.88
386.251	29.35
386.461	133.8
386.671	109.22
386.881	62.12
387.091	76.46
387.301	107.18
387.511	123.56
387.72	62.12
387.93	139.94
388.14	62.12
388.35	98.99
388.56	98.99
388.769	146.09
388.979	53.93
389.189	80.55
389.399	129.7
389.609	90.79
389.818	74.41
390.028	96.94
390.238	92.84
390.447	139.94
390.657	113.32
390.867	111.27
391.076	33.45
391.286	37.55
391.496	66.22
391.705	25.26
391.915	119.46
392.125	88.75
392.334	33.45
392.544	121.51
392.753	78.51
392.963	53.93
393.172	78.51
393.382	72.36
393.591	111.27
393.801	98.99
394.01	172.71
394.22	123.56
394.429	111.27
394.639	119.46
394.848	66.22
395.058	115.37
395.267	74.41
395.477	55.98
395.686	131.75
395.895	187.05
396.105	76.46
396.314	68.27
396.524	111.27
396.733	23.21
396.942	131.75
397.152	98.99
397.361	51.88
397.57	111.27
397.78	109.22
397.989	144.04
398.198	185
398.407	111.27
398.617	119.46
398.826	37.55
399.035	121.51
399.244	58.03
399.453	62.12
399.663	86.7
399.872	123.56
400.081	49.83
400.29	131.75
400.499	148.14
400.708	92.84
400.917	139.94
401.127	86.7
401.336	94.89
401.545	109.22
401.754	178.86
401.963	164.52
402.172	156.33
402.381	117.42
402.59	117.42
402.799	84.65
403.008	133.8
403.217	197.29
403.426	199.34
403.635	58.03
403.844	148.14
404.053	148.14
404.262	185
404.471	199.34
404.68	201.38
404.888	217.77
405.097	156.33
405.306	123.56
405.515	92.84
405.724	135.85
405.933	201.38
406.142	205.48
406.35	164.52
406.559	254.63
406.768	174.76
406.977	207.53
407.185	203.43
407.394	139.94
407.603	170.66
407.812	170.66
408.02	225.96
408.229	180.9
408.438	256.68
408.646	213.67
408.855	273.06
409.064	295.59
409.272	258.73
409.481	244.39
409.69	330.41
409.898	328.36
410.107	293.54
410.315	346.79
410.524	352.93
410.733	348.84
410.941	330.41
411.15	326.31
411.358	426.66
411.567	479.91
411.775	395.94
411.984	455.33
412.192	418.47
412.401	369.32
412.609	529.06
412.818	486.05
413.026	434.85
413.234	492.2
413.443	453.28
413.651	574.11
413.86	543.39
414.068	656.03
414.276	545.44
414.485	672.42
414.693	592.55
414.901	672.42
415.11	737.95
415.318	762.53
415.526	737.95
415.734	754.34
415.943	854.69
416.151	778.91
416.359	805.53
416.567	893.6
416.776	893.6
416.984	926.36
417.192	993.95
417.4	934.56
417.608	973.47
417.817	1102.49
418.025	1057.43
418.233	1168.02
418.441	1153.69
418.649	1176.22
418.857	1282.71
419.065	1262.23
419.273	1245.85
419.481	1333.91
419.689	1413.78
419.897	1483.41
420.105	1411.73
420.313	1475.22
420.521	1567.38
420.729	1706.64
420.937	1565.33
421.145	1782.42
421.353	1821.33
421.561	1811.09
421.769	1972.88
421.977	2026.12
422.185	2028.17
422.393	2318.98
422.601	2409.09
422.809	2372.23
423.017	2263.69
423.224	2435.72
423.432	2499.2
423.64	2544.26
423.848	2667.14
424.056	2581.12
424.263	2880.13
424.471	2892.41
424.679	2996.86
424.887	3117.69
425.094	3043.96
425.302	3140.22
425.51	3265.14
425.718	3285.62
425.925	3322.49
426.133	3525.24
426.341	3654.26
426.548	3842.67
426.756	3895.92
426.964	3895.92
427.171	4115.05
427.379	4104.81
427.586	4342.38
427.794	4383.34
428.001	4682.34
428.209	4975.2
428.417	4764.26
428.624	4999.77
428.832	5059.17
429.039	5012.06
429.247	5098.08
429.454	5489.24
429.662	5900.88
429.869	5448.28
430.076	6095.44
430.284	5646.93
430.491	6099.53
430.699	6292.04
430.906	6408.78
431.114	6128.21
431.321	6566.47
431.528	6558.28
431.736	7008.83
431.943	7520.82
432.15	7344.7
432.358	7424.57
432.565	7750.2
432.772	7660.09
432.979	8174.13
433.187	8196.65
433.394	8284.72
433.601	8907.3
433.808	9013.79
434.016	8821.28
434.223	9194.01
434.43	9429.53
434.637	9699.86
434.844	10156.56
435.052	10355.21
435.259	10344.97
435.466	10603.02
435.673	10277.39
435.88	11037.19
436.087	11528.7
436.294	11588.09
436.501	11241.98
436.708	11317.76
436.915	11729.4
437.122	12345.84
437.329	12239.34
437.537	12876.26
437.743	13181.41
437.95	13003.24
438.157	13369.82
438.364	13871.58
438.571	13777.37
438.778	14109.14
438.985	15223.23
439.192	14504.4
439.399	15206.85
439.606	14887.37
439.813	15772.09
440.02	16941.48
440.227	16273.84
440.433	16157.11
440.64	16634.28
440.847	16611.76
441.054	16796.07
441.261	18276.76
441.467	17975.7
441.674	17961.37
441.881	19040.65
442.088	18831.76
442.294	18858.38
442.501	19177.86
442.708	19589.5
442.914	20173.17
443.121	21021.03
443.328	20511.09
443.534	22049.11
443.741	21447.01
443.948	20873.58
444.154	22681.94
444.361	22487.38
444.568	22575.44
444.774	22782.29
444.981	22759.76
445.187	23593.28
445.394	24420.66
445.6	24258.87
445.807	26444.06
446.013	25495.85
446.22	26079.52
446.426	27011.34
446.633	27336.97
446.839	28174.59
447.046	26988.81
447.252	28283.13
447.459	28371.19
447.665	27869.44
447.871	29354.22
448.078	30443.74
448.284	28969.2
448.491	30501.08
448.697	31215.82
448.903	31645.9
449.11	32202.94
449.316	31148.24
449.522	32176.32
449.728	33097.91
449.935	33020.08
450.141	32999.6
450.347	33831.08
450.553	32624.82
450.76	33192.11
450.966	34248.86
451.172	33538.22
451.378	34750.62
451.584	34052.26
451.791	34805.91
451.997	34844.82
452.203	35442.83
452.409	35203.22
452.615	34941.08
452.821	33982.63
453.027	33341.61
453.233	35465.36
453.44	33706.15
453.646	34453.66
453.852	34187.42
454.058	34941.08
454.264	33947.81
454.47	34486.43
454.676	33712.3
454.882	34900.12
455.088	32080.07
455.294	32653.5
455.5	32954.55
455.705	33163.44
455.911	32387.26
456.117	31531.21
456.323	30949.59
456.529	29270.25
456.735	31084.75
456.941	29862.11
457.147	29466.86
457.352	28422.39
457.558	28047.61
457.764	28188.92
457.97	27439.37
458.176	27330.83
458.381	27435.27
458.587	25633.06
458.793	25518.37
458.999	24518.96
459.204	26380.57
459.41	25510.18
459.616	23886.14
459.821	23746.88
460.027	23757.12
460.233	23372.1
460.438	22307.16
460.644	22477.14
460.85	21465.44
461.055	21113.19
461.261	21070.19
461.466	19652.99
461.672	18940.3
461.878	20478.32
462.083	19022.22
462.289	18745.74
462.494	18645.39
462.7	17553.82
462.905	17000.87
463.111	17727.9
463.316	17619.36
463.522	17363.36
463.727	17435.04
463.932	17496.48
464.138	17185.19
464.343	17076.65
464.549	16640.43
464.754	17113.51
464.959	17052.07
465.165	16906.66
465.37	16396.72
465.575	15872.44
465.781	16718.25
465.986	16763.31
466.191	15942.07
466.397	15669.69
466.602	15002.05
466.807	15466.94
467.012	15315.39
467.218	15608.25
467.423	15272.39
467.628	15251.91
467.833	15903.16
468.038	15499.71
468.244	14952.9
468.449	15471.04
468.654	14895.56
468.859	14961.09
469.064	14692.81
469.269	14483.92
469.474	14373.33
469.679	14842.31
469.885	14295.5
470.09	14369.23
470.295	14203.35
470.5	13890.01
470.705	13996.5
470.91	13689.31
471.115	13619.67
471.32	14021.08
471.525	13746.65
471.73	13480.41
471.935	13332.96
472.139	12986.85
472.344	13019.62
472.549	13177.31
472.754	12837.35
472.959	12442.09
473.164	12372.46
473.369	12165.62
473.574	12601.83
473.778	12300.78
473.983	12374.51
474.188	12372.46
474.393	11856.37
474.598	11813.37
474.802	11700.73
475.007	11469.31
475.212	11731.45
475.417	11280.89
475.621	11100.67
475.826	11299.33
476.031	10969.6
476.235	10705.42
476.44	10863.11
476.645	10639.88
476.849	10764.81
477.054	10527.24
477.259	10502.67
477.463	10617.35
477.668	10267.15
477.872	10334.73
478.077	10240.53
478.282	10041.87
478.486	10027.54
478.691	9898.52
478.895	9882.13
479.1	9769.49
479.304	9835.03
479.509	9456.15
479.713	9615.9
479.918	9392.67
480.122	9064.99
480.326	9398.81
480.531	9423.39
480.735	9183.77
480.94	9351.71
481.144	9495.07
481.348	9058.85
481.553	9304.6
481.757	8854.05
481.961	9202.21
482.166	9101.86
482.37	9138.72
482.574	8882.72
482.778	8993.31
482.983	9261.6
483.187	9017.89
483.391	9089.57
483.595	9048.61
483.8	8839.72
484.004	8905.25
484.208	9038.37
484.412	9071.14
484.616	9073.18
484.821	9017.89
485.025	9085.47
485.229	9181.73
485.433	8960.55
485.637	8886.82
485.841	8950.31
486.045	9097.76
486.249	8880.68
486.453	8903.2
486.657	9073.18
486.861	9118.24
487.065	8854.05
487.269	9134.62
487.473	8776.23
487.677	9058.85
487.881	9101.86
488.085	9204.25
488.289	9347.61
488.493	9021.99
488.697	8958.5
488.901	8997.41
489.105	8946.21
489.309	9243.17
489.512	9005.6
489.716	8987.17
489.92	9028.13
490.124	8991.27
490.328	9310.75
490.531	9105.95
490.735	9163.29
490.939	9216.54
491.143	9230.88
491.346	9146.91
491.55	9521.69
491.754	9269.79
491.958	9357.85
492.161	9480.73
492.365	9392.67
492.569	9372.19
492.772	9548.31
492.976	9474.59
493.18	9503.26
493.383	9726.49
493.587	9767.45
493.79	9892.37
493.994	9738.77
494.197	9675.29
494.401	9972.24
494.605	10002.96
494.808	9968.15
495.012	10005.01
495.215	10101.26
495.419	10381.84
495.622	10045.97
495.825	10441.23
496.029	10244.62
496.232	10562.06
496.436	10658.31
496.639	10873.35
496.843	10672.65
497.046	11104.77
497.249	11033.09
497.453	11192.83
497.656	11158.02
497.859	11141.63
498.063	11344.38
498.266	11608.57
498.469	11399.68
498.673	11581.95
498.876	11977.2
499.079	11883
499.282	12112.37
499.485	12075.51
499.689	12311.02
499.892	12388.85
500.095	12343.79
500.298	12624.36
500.501	12685.8
500.705	13165.03
500.908	13122.02
501.111	13388.25
501.314	13496.8
501.517	13433.31
501.72	13734.36
501.923	13859.29
502.126	13959.64
502.329	14223.83
502.532	14201.3
502.735	14387.66
502.938	14459.34
503.141	14780.87
503.344	14840.26
503.547	14983.62
503.75	15131.08
503.953	15325.63
504.156	15761.85
504.359	15688.12
504.562	15835.58
504.765	16122.29
504.968	16286.13
505.17	16204.21
505.373	16388.53
505.576	16519.6
505.779	16581.04
505.982	17015.21
506.185	17109.41
506.387	17490.34
506.59	17451.42
506.793	17764.76
506.996	17865.11
507.198	18319.76
507.401	18164.12
507.604	18356.63
507.807	18700.69
508.009	18760.08
508.212	18813.32
508.415	19188.1
508.617	19259.78
508.82	19376.51
509.022	19452.29
509.225	19757.44
509.428	20029.82
509.63	20291.96
509.833	20416.88
510.035	20928.88
510.238	20849
510.44	20975.98
510.643	21137.77
510.845	21254.5
511.048	21203.3
511.25	21594.47
511.453	21530.98
511.655	22624.59
511.858	22421.84
512.06	22608.21
512.262	22708.56
512.465	22794.57
512.667	23155.02
512.87	23540.04
513.072	23226.7
513.274	23765.31
513.477	24160.57
513.679	24076.6
513.881	24308.02
514.084	24500.53
514.286	24754.48
514.488	24809.78
514.69	25999.65
514.893	25852.19
515.095	25778.47
515.297	25772.32
515.499	26276.12
515.701	26456.34
515.904	26599.7
516.106	26968.34
516.308	26984.72
516.51	27349.26
516.712	27465.99
516.914	27486.47
517.116	27973.89
517.318	28203.26
517.52	28449.02
517.722	28418.3
517.925	28768.5
518.127	29366.51
518.329	29657.32
518.531	29110.51
518.733	29882.59
518.935	29915.36
519.136	29821.16
519.338	30230.75
519.54	30376.16
519.742	31023.31
519.944	31056.08
520.146	31107.28
520.348	31291.6
520.55	31434.95
520.752	31781.06
520.954	32256.19
521.155	32317.63
521.357	32655.54
521.559	32850.1
521.761	33147.06
521.963	33034.42
522.164	33245.36
522.366	33505.45
522.568	33732.78
522.77	33798.31
522.971	34584.73
523.173	34525.34
523.375	34308.26
523.576	34910.36
523.778	34457.76
523.98	35315.86
524.181	35373.2
524.383	35207.31
524.584	35713.16
524.786	35737.74
524.988	35373.2
525.189	36173.95
525.391	36397.18
525.592	36493.44
525.794	36561.02
525.995	36612.22
526.197	36941.94
526.398	37030.01
526.6	37347.44
526.801	37232.75
527.003	37345.39
527.204	37322.87
527.406	37871.72
527.607	37843.05
527.808	37818.47
528.01	37314.67
528.211	37916.78
528.412	38535.26
528.614	38432.86
528.815	38269.03
529.016	38238.31
529.218	38156.39
529.419	38674.52
529.62	38582.37
529.822	38565.98
530.023	38658.14
530.224	38465.63
530.425	39032.92
530.626	38740.06
530.828	38846.55
531.029	39178.32
531.23	38430.82
531.431	38897.75
531.632	38797.4
531.833	38985.82
532.035	38985.82
532.236	39389.27
532.437	39327.83
532.638	38916.18
532.839	39223.38
533.04	39532.62
533.241	38658.14
533.442	39538.77
533.643	39336.02
533.844	39227.48
534.045	39530.58
534.246	38948.95
534.447	39108.69
534.648	38957.14
534.849	38946.9
535.05	39340.11
535.251	39196.76
535.451	38948.95
535.652	39403.6
535.853	39202.9
536.054	39508.05
536.255	39583.82
536.456	39614.54
536.657	39931.98
536.857	39569.49
537.058	39084.12
537.259	39727.18
537.46	39510.1
537.66	38770.78
537.861	39280.72
538.062	39077.97
538.263	39055.45
538.463	39497.81
538.664	39333.97
538.865	39313.49
539.065	39604.3
539.266	39135.32
539.466	39612.49
539.667	38856.79
539.868	39643.21
540.068	38955.1
540.269	39153.75
540.469	39409.75
540.67	38793.31
540.87	38957.14
541.071	39211.09
541.271	39155.8
541.472	39088.21
541.672	39088.21
541.873	39266.39
542.073	38686.81
542.274	39077.97
542.474	38885.47
542.675	38869.08
542.875	39264.34
543.075	39090.26
543.276	38514.78
543.476	39333.97
543.676	38836.31
543.877	38973.53
544.077	39254.1
544.277	38672.48
544.478	38375.52
544.678	38809.69
544.878	38936.66
545.078	38619.23
545.279	38826.07
545.479	38742.11
545.679	38735.96
545.879	38901.85
546.079	38752.35
546.28	38492.26
546.48	38570.08
546.68	38996.06
546.88	39104.6
547.08	38629.47
547.28	38692.96
547.48	38602.85
547.68	38590.56
547.88	38152.29
548.081	38682.72
548.281	38516.83
548.481	38621.28
548.681	38803.55
548.881	38817.88
549.081	38639.71
549.28	38318.18
549.48	38418.53
549.68	38252.64
549.88	38946.9
550.08	38236.26
550.28	38525.02
550.48	38418.53
550.68	38541.41
550.88	38408.29
551.08	38377.57
551.279	38240.36
551.479	38070.37
551.679	38473.82
551.879	38121.57
552.079	38373.47
552.278	38312.03
552.478	38477.92
552.678	38498.4
552.878	38606.94
553.077	38451.3
553.277	38219.88
553.477	38654.04
553.676	38387.81
553.876	38250.59
554.076	38168.68
554.275	38187.11
554.475	37777.51
554.674	38385.76
554.874	38170.72
555.074	38123.62
555.273	38348.9
555.473	38404.19
555.672	37914.73
555.872	38008.93
556.071	37863.53
556.271	38148.2
556.47	37847.15
556.67	37609.58
556.869	37898.34
557.068	37914.73
557.268	37759.08
557.467	37554.29
557.667	37873.77
557.866	37638.25
558.065	37695.6
558.265	37261.43
558.464	37345.39
558.663	37578.86
558.863	37517.42
559.062	37849.19
559.261	36761.72
559.461	37689.45
559.66	37195.89
559.859	37249.14
560.058	36802.68
560.258	37628.01
560.457	37070.96
560.656	37478.51
560.855	36808.82
561.054	37245.04
561.253	37058.68
561.453	37261.43
561.652	37099.64
561.851	36960.37
562.05	36814.97
562.249	36862.07
562.448	37335.15
562.647	36530.3
562.846	36515.97
563.045	36970.61
563.244	36388.99
563.443	36835.45
563.642	36003.97
563.841	36133
564.04	36118.66
564.239	36542.59
564.438	35956.87
564.637	36601.98
564.836	36345.98
565.035	35696.78
565.234	36202.63
565.432	36089.99
565.631	36173.95
565.83	35913.86
566.029	35932.29
566.228	35487.89
566.427	35762.31
566.625	35827.85
566.824	35471.5
567.023	35842.18
567.222	34877.59
567.42	35743.88
567.619	35485.84
567.818	35590.28
568.016	34906.26
568.215	35674.25
568.414	35031.19
568.612	34963.61
568.811	35008.66
569.01	35092.63
569.208	34877.59
569.407	34789.53
569.605	34488.48
569.804	35180.69
570.002	34330.78
570.201	34633.88
570.4	34353.31
570.598	34574.49
570.797	34119.84
570.995	33837.22
571.193	33904.81
571.392	34410.65
571.59	33763.5
571.789	33929.38
571.987	34023.59
572.186	34173.09
572.384	33786.02
572.582	33452.2
572.781	33927.33
572.979	33159.34
573.177	33347.76
573.376	33294.51
573.574	32866.49
573.772	33448.11
573.971	33237.17
574.169	32981.17
574.367	32823.48
574.565	32856.25
574.763	32829.62
574.962	32876.72
575.16	32725.18
575.358	32399.55
575.556	32592.06
575.754	32835.77
575.952	32125.12
576.151	32417.98
576.349	31971.52
576.547	32499.9
576.745	32663.74
576.943	32254.14
577.141	32170.18
577.339	32147.65
577.537	32010.43
577.735	31930.56
577.933	31637.7
578.131	31836.36
578.329	31670.47
578.527	31357.13
578.725	31666.38
578.923	31539.4
579.121	30863.57
579.319	31099.09
579.516	31488.2
579.714	31295.69
579.912	30875.86
580.11	31170.77
580.308	30996.69
580.506	30677.21
580.704	30492.89
580.901	30691.54
581.099	30832.85
581.297	30124.25
581.495	30134.49
581.692	30576.86
581.89	30109.92
582.088	30609.62
582.285	30077.15
582.483	30091.49
582.681	29946.08
582.878	29919.46
583.076	29997.28
583.274	29776.1
583.471	29481.19
583.669	30154.97
583.866	29386.99
584.064	29796.58
584.262	29165.81
584.459	29853.92
584.657	29794.53
584.854	29427.95
585.052	28678.39
585.249	29092.08
585.447	29219.05
585.644	28975.34
585.841	29296.88
586.039	29042.93
586.236	28420.34
586.434	28752.12
586.631	28340.47
586.828	28631.29
587.026	28131.58
587.223	28309.75
587.42	28207.36
587.618	28412.15
587.815	28205.31
588.012	28053.76
588.21	28057.85
588.407	27947.26
588.604	28123.39
588.801	27717.89
588.999	27724.04
589.196	27738.37
589.393	27328.78
589.59	27402.5
589.787	27166.99
589.984	27134.22
590.182	27169.04
590.379	27160.84
590.576	27109.65
590.773	27285.77
590.97	26898.7
591.167	27021.58
591.364	26781.97
591.561	26689.81
591.758	26370.33
591.955	26564.89
592.152	26792.21
592.349	26558.74
592.546	26462.49
592.743	26439.96
592.94	25930.01
593.137	26247.45
593.334	26364.18
593.531	26054.94
593.727	25844
593.924	26169.63
594.121	26001.69
594.318	26016.03
594.515	25393.45
594.712	25821.47
594.908	25448.74
595.105	25471.27
595.302	25276.71
595.499	25512.23
595.696	25239.85
595.892	24848.69
596.089	25557.28
596.286	25096.49
596.482	25125.16
596.679	24842.54
596.876	24983.85
597.072	24670.51
597.269	24670.51
597.466	24510.77
597.662	24523.06
597.859	24580.4
598.055	24332.6
598.252	24299.83
598.448	24467.77
598.645	24140.09
598.841	24099.13
599.038	24002.88
599.234	24197.43
599.431	23978.3
599.627	23880
599.824	23703.87
600.02	23726.4
600.217	23667.01
600.413	23785.79
600.609	23314.76
600.806	23515.46
601.002	23454.02
601.198	23435.59
601.395	23421.25
601.591	23173.45
601.787	23462.21
601.984	22917.45
602.18	23191.88
602.376	22774.1
602.572	22890.83
602.769	22884.69
602.965	22608.21
603.161	22747.47
603.357	22690.13
603.553	22389.08
603.75	22544.72
603.946	22286.68
604.142	22499.67
604.338	22036.83
604.534	22243.67
604.73	21997.92
604.926	21754.21
605.122	21969.24
605.318	21631.33
605.514	22094.17
605.71	21877.08
605.906	21746.01
606.102	21670.24
606.298	21844.32
606.494	21582.18
606.69	21719.39
606.886	21641.57
607.082	21297.51
607.278	21492.07
607.474	21072.23
607.67	21381.48
607.866	21365.09
608.062	21786.97
608.257	21186.92
608.453	21049.71
608.649	21158.25
608.845	20971.88
609.041	21115.24
609.236	20779.37
609.432	20660.59
609.628	20824.43
609.824	20973.93
610.019	20842.86
610.215	20578.67
610.411	21031.27
610.606	20676.98
610.802	20736.37
610.998	20418.93
611.193	20849
611.389	20359.54
611.584	20537.71
611.78	20326.77
611.976	20248.95
612.171	20365.68
612.367	20463.99
612.562	20222.33
612.758	20138.36
612.953	20038.01
613.149	20244.85
613.344	20052.34
613.539	20214.13
613.735	20046.2
613.93	20017.53
614.126	19736.96
614.321	20300.15
614.517	20048.25
614.712	19657.09
614.907	19675.52
615.103	19874.17
615.298	19530.11
615.493	19636.61
615.688	19566.98
615.884	20052.34
616.079	19374.47
616.274	19724.67
616.47	19614.08
616.665	19425.67
616.86	19333.51
617.055	19362.18
617.25	19306.88
617.445	19489.15
617.641	19112.33
617.836	19321.22
618.031	19077.51
618.226	19124.61
618.421	18919.82
618.616	19014.02
618.811	18901.39
619.006	18882.95
619.201	18590.1
619.396	18870.67
619.591	18596.24
619.786	18475.41
619.981	18190.74
620.176	18422.16
620.371	18438.55
620.566	18499.98
620.761	18293.14
620.956	18340.24
621.151	18000.28
621.346	18112.92
621.541	18014.62
621.735	18086.29
621.93	17607.07
622.125	17584.54
622.32	17619.36
622.515	17539.49
622.709	17301.92
622.904	17363.36
623.099	17168.8
623.294	17441.18
623.488	17007.02
623.683	16923.05
623.878	16798.12
624.072	17045.93
624.267	16763.31
624.462	16523.69
624.656	16368.05
624.851	16638.38
625.046	16542.13
625.24	16222.64
625.435	15933.88
625.629	16247.22
625.824	16103.86
626.018	16294.32
626.213	15757.75
626.407	15720.89
626.602	15577.53
626.796	15729.08
626.991	15706.56
627.185	15532.48
627.38	15327.68
627.574	15403.46
627.768	15258.05
627.963	15196.61
628.157	14959.05
628.352	14983.62
628.546	14981.57
628.74	15000.01
628.935	14598.6
629.129	14610.89
629.323	14684.62
629.517	14510.54
629.712	14344.66
629.906	14260.69
630.1	14113.24
630.294	14170.58
630.489	13924.82
630.683	13935.06
630.877	13830.62
631.071	14100.95
631.265	13978.07
631.459	13720.03
631.653	13679.07
631.848	13711.83
632.042	13488.6
632.236	13769.18
632.43	13478.36
632.624	13461.98
632.818	13234.66
633.012	13355.49
633.206	13363.68
633.4	13052.39
633.594	12968.42
633.788	13122.02
633.982	13036
634.176	13009.38
634.369	12704.23
634.563	12765.67
634.757	12481
634.951	12655.08
635.145	12444.14
635.339	12599.79
635.533	12376.56
635.726	12554.73
635.92	12003.83
636.114	12315.12
636.308	11938.29
636.501	12124.66
636.695	12345.84
636.889	11915.76
637.083	12044.79
637.276	11835.89
637.47	11930.1
637.664	11678.2
637.857	11608.57
638.051	11616.76
638.244	11471.36
638.438	11471.36
638.632	11334.14
638.825	11446.78
639.019	11446.78
639.212	11137.54
639.406	11037.19
639.599	11043.33
639.793	11215.36
639.986	10859.01
640.18	11084.29
640.373	10920.45
640.567	10854.92
640.76	10842.63
640.954	10633.74
641.147	10795.53
641.34	10656.26
641.534	10662.41
641.727	10740.23
641.92	10490.38
642.114	10390.03
642.307	10289.68
642.5	10420.75
642.694	10201.61
642.887	10088.98
643.08	10195.47
643.273	10236.43
643.467	9880.08
643.66	9937.43
643.853	9927.19
644.046	9810.45
644.239	9665.05
644.432	9730.58
644.626	9734.68
644.819	9726.49
645.012	9663
645.205	9417.24
645.398	9626.14
645.591	9529.88
645.784	9785.88
645.977	9187.87
646.17	9237.02
646.363	9202.21
646.556	9069.09
646.749	9372.19
646.942	9230.88
647.135	9130.53
647.328	9255.45
647.521	9108
647.714	8868.39
647.907	8876.58
648.099	8792.61
648.292	8747.56
648.485	8972.83
648.678	8800.8
648.871	8798.76
649.064	8727.08
649.256	8741.41
649.449	8430.12
649.642	8557.1
649.835	8667.69
650.027	8579.62
650.22	8403.5
650.413	8163.89
650.605	8239.66
650.798	8292.91
650.991	8260.14
651.183	8264.24
651.376	8147.5
651.568	7940.66
651.761	8036.91
651.954	7928.37
652.146	7873.07
652.339	7971.38
652.531	8110.64
652.724	7832.12
652.916	7678.52
653.109	7692.85
653.301	7807.54
653.494	7834.16
653.686	7533.11
653.879	7725.62
654.071	7531.06
654.263	7529.02
654.456	7561.78
654.648	7606.84
654.84	7451.19
655.033	7332.41
655.225	7320.12
655.417	7385.66
655.61	7248.44
655.802	7336.51
655.994	7137.85
656.186	7193.15
656.379	7096.89
656.571	6951.49
656.763	6863.43
656.955	6908.48
657.148	7045.7
657.34	7031.36
657.532	6908.48
657.724	7047.74
657.916	6769.22
658.108	6746.69
658.3	6580.81
658.492	6656.58
658.684	6572.61
658.876	6623.81
659.068	6656.58
659.26	6629.96
659.452	6578.76
659.644	6677.06
659.836	6371.91
660.028	6472.26
660.22	6398.54
660.412	6275.66
660.604	6160.97
660.796	6373.96
660.988	6367.82
661.18	6175.31
661.372	6163.02
661.563	6259.28
661.755	6163.02
661.947	6064.72
662.139	6160.97
662.331	6085.2
662.522	6079.05
662.714	6103.63
662.906	5818.96
663.097	5866.07
663.289	5775.95
663.481	6025.81
663.673	5851.73
663.864	5841.49
664.056	5792.34
664.247	5657.17
664.439	5714.52
664.631	5753.43
664.822	5833.3
665.014	5648.98
665.205	5685.84
665.397	5663.32
665.588	5546.58
665.78	5542.49
665.971	5452.38
666.163	5546.58
666.354	5552.73
666.546	5472.86
666.737	5446.23
666.929	5567.06
667.12	5522.01
667.311	5374.55
667.503	5395.03
667.694	5202.52
667.885	5218.91
668.077	5194.33
668.268	5220.95
668.459	5335.64
668.651	5059.17
668.842	5136.99
669.033	5153.37
669.224	5210.72
669.416	5122.65
669.607	5067.36
669.798	5096.03
669.989	5167.71
670.18	4985.44
670.371	4860.51
670.563	4938.34
670.754	5026.4
670.945	4768.35
671.136	4983.39
671.327	4850.27
671.518	4915.81
671.709	4893.28
671.9	4893.28
672.091	4874.85
672.282	4723.3
672.473	4708.96
672.664	4797.03
672.855	4772.45
673.046	4794.98
673.237	4702.82
673.428	4778.59
673.619	4756.07
673.809	4625
674	4678.24
674.191	4682.34
674.382	4467.3
674.573	4489.83
674.764	4592.23
674.954	4655.72
675.145	4436.58
675.336	4522.6
675.527	4522.6
675.717	4508.26
675.908	4426.34
676.099	4438.63
676.289	4432.49
676.48	4461.16
676.671	4420.2
676.861	4438.63
677.052	4317.8
677.243	4166.25
677.433	4270.7
677.624	4416.1
677.814	4268.65
678.005	4354.66
678.195	4338.28
678.386	4248.17
678.576	4250.22
678.767	4219.5
678.957	4237.93
679.148	4285.03
679.338	4215.4
679.529	4137.58
679.719	4196.97
679.909	4186.73
680.1	4170.35
680.29	4156.01
680.481	4090.48
680.671	4244.07
680.861	4217.45
681.052	4256.36
681.242	4072.04
681.432	4272.75
681.622	4022.89
681.813	4174.44
682.003	4055.66
682.193	4100.72
682.383	4065.9
682.573	4121.2
682.764	4145.77
682.954	4031.09
683.144	4035.18
683.334	3979.89
683.524	3998.32
683.714	3920.49
683.904	3943.02
684.094	3983.98
684.284	3977.84
684.474	4049.52
684.664	3975.79
684.854	3969.65
685.044	3838.58
685.234	3961.45
685.424	3867.25
685.614	3828.34
685.804	3727.99
685.994	3744.37
686.184	3744.37
686.374	3906.16
686.564	3746.42
686.753	3723.89
686.943	3697.27
687.133	3852.91
687.323	3756.66
687.513	3727.99
687.702	3711.6
687.892	3777.14
688.082	3644.02
688.272	3736.18
688.461	3678.83
688.651	3732.08
688.841	3684.98
689.03	3623.54
689.22	3660.4
689.41	3515
689.599	3480.18
689.789	3541.62
689.979	3506.81
690.168	3564.15
690.358	3476.09
690.547	3488.37
690.737	3527.28
690.926	3447.41
691.116	3365.5
691.305	3465.85
691.495	3248.76
691.684	3412.6
691.874	3363.45
692.063	3342.97
692.252	3424.89
692.442	3383.93
692.631	3164.79
692.82	3363.45
693.01	3291.77
693.199	3351.16
693.388	3197.56
693.578	3207.8
693.767	3187.32
693.956	3246.71
694.146	3215.99
694.335	3027.58
694.524	3170.94
694.713	3224.19
694.902	3146.36
695.092	3138.17
695.281	3070.59
695.47	3172.99
695.659	3213.95
695.848	3019.39
696.037	3111.55
696.226	3148.41
696.415	3113.6
696.604	3089.02
696.793	3093.12
696.982	2949.76
697.171	3166.84
697.36	3150.46
697.549	3043.96
697.738	3033.72
697.927	2941.57
698.116	2998.91
698.305	3027.58
698.494	2876.03
698.683	2945.66
698.872	3021.44
699.061	3015.29
699.25	2888.32
699.438	2876.03
699.627	2869.89
699.816	3054.2
700.005	2992.76
700.193	2841.22
700.382	2968.19
700.571	3054.2
700.76	2968.19
700.948	2943.61
701.137	2861.69
701.326	2843.26
701.514	2808.45
701.703	3031.68
701.892	2843.26
702.08	2910.85
702.269	3000.96
702.457	2992.76
702.646	2781.82
702.834	2890.37
703.023	2826.88
703.212	2876.03
703.4	2845.31
703.589	2749.06
703.777	2876.03
703.965	2810.5
704.154	2839.17
704.342	2925.18
704.531	2785.92
704.719	2599.55
704.907	2927.23
705.096	2867.84
705.284	2744.96
705.472	2810.5
705.661	2777.73
705.849	2812.54
706.037	2753.15
706.226	2740.86
706.414	2718.34
706.602	2650.75
706.79	2835.07
706.979	2802.3
707.167	2804.35
707.355	2751.1
707.543	2640.51
707.731	2828.93
707.919	2704
708.107	2755.2
708.296	2634.37
708.484	2820.74
708.672	2673.28
708.86	2669.19
709.048	2749.06
709.236	2648.71
709.424	2720.39
709.612	2687.62
709.8	2669.19
709.988	2583.17
710.176	2798.21
710.364	2630.27
710.551	2658.95
710.739	2669.19
710.927	2744.96
711.115	2710.15
711.303	2667.14
711.491	2613.89
711.679	2628.23
711.866	2605.7
712.054	2732.67
712.242	2630.27
712.43	2632.32
712.617	2728.58
712.805	2613.89
712.993	2540.16
713.181	2458.25
713.368	2613.89
713.556	2609.79
713.744	2361.99
713.931	2544.26
714.119	2546.31
714.306	2585.22
714.494	2673.28
714.682	2548.36
714.869	2491.01
715.057	2550.4
715.244	2480.77
715.432	2597.51
715.619	2632.32
715.807	2669.19
715.994	2574.98
716.182	2572.93
716.369	2611.84
716.556	2515.59
716.744	2634.37
716.931	2441.86
717.119	2527.88
717.306	2548.36
717.493	2581.12
717.681	2689.67
717.868	2564.74
718.055	2605.7
718.242	2558.6
718.43	2630.27
718.617	2527.88
718.804	2626.18
718.991	2583.17
719.179	2499.2
719.366	2521.73
719.553	2368.13
719.74	2454.15
719.927	2531.97
720.114	2519.68
720.301	2601.6
720.488	2503.3
720.676	2531.97
720.863	2632.32
721.05	2423.43
721.237	2380.42
721.424	2486.92
721.611	2466.44
721.798	2486.92
721.985	2331.27
722.172	2396.81
722.358	2462.34
722.545	2433.67
722.732	2452.1
722.919	2507.4
723.106	2458.25
723.293	2482.82
723.48	2527.88
723.667	2411.14
723.853	2464.39
724.04	2466.44
724.227	2417.29
724.414	2499.2
724.6	2329.22
724.787	2359.94
724.974	2488.96
725.161	2396.81
725.347	2353.8
725.534	2439.81
725.72	2470.53
725.907	2271.88
726.094	2378.37
726.28	2425.48
726.467	2312.84
726.653	2546.31
726.84	2349.7
727.027	2509.44
727.213	2380.42
727.4	2290.31
727.586	2382.47
727.773	2484.87
727.959	2370.18
728.145	2441.86
728.332	2405
728.518	2384.52
728.705	2402.95
728.891	2400.9
729.077	2400.9
729.264	2425.48
729.45	2417.29
729.636	2538.12
729.823	2359.94
730.009	2372.23
730.195	2247.3
730.382	2464.39
730.568	2525.83
730.754	2345.61
730.94	2409.09
731.126	2335.37
731.313	2353.8
731.499	2443.91
731.685	2378.37
731.871	2394.76
732.057	2376.33
732.243	2378.37
732.429	2460.29
732.615	2339.46
732.801	2409.09
732.987	2269.83
733.173	2288.26
733.359	2310.79
733.545	2407.05
733.731	2202.25
733.917	2345.61
734.103	2349.7
734.289	2314.89
734.475	2273.93
734.661	2314.89
734.847	2290.31
735.033	2341.51
735.219	2312.84
735.404	2321.03
735.59	2261.64
735.776	2196.11
735.962	2179.72
736.148	2372.23
736.333	2384.52
736.519	2198.15
736.705	2345.61
736.89	2286.22
737.076	2171.53
737.262	2273.93
737.447	2228.87
737.633	2241.16
737.819	2376.33
738.004	2280.07
738.19	2249.35
738.375	2251.4
738.561	2292.36
738.747	2224.78
738.932	2253.45
739.118	2249.35
739.303	2239.11
739.489	2347.65
739.674	2247.3
739.859	2126.47
740.045	2208.39
740.23	2155.15
740.416	2183.82
740.601	2177.67
740.786	2257.54
740.972	2187.91
741.157	2132.62
741.342	2124.43
741.528	2122.38
741.713	2083.47
741.898	2015.88
742.084	2169.48
742.269	2097.8
742.454	2093.71
742.639	1954.44
742.824	2052.75
743.01	2122.38
743.195	2091.66
743.38	2083.47
743.565	2114.19
743.75	2073.23
743.935	2022.03
744.12	2052.75
744.305	2091.66
744.49	2024.08
744.675	1997.45
744.86	2050.7
745.045	2112.14
745.23	1993.36
745.415	2003.6
745.6	2050.7
745.785	2003.6
745.97	2079.37
746.155	1852.05
746.34	1936.01
746.525	2048.65
746.71	1835.66
746.895	1862.29
747.079	1954.44
747.264	1899.15
747.449	1876.62
747.634	1858.19
747.819	1796.75
748.003	1794.7
748.188	1872.53
748.373	1729.17
748.557	1860.24
748.742	1684.11
748.927	1796.75
749.111	1688.21
749.296	1802.9
749.481	1696.4
749.665	1823.37
749.85	1608.34
750.034	1673.87
750.219	1706.64
750.404	1614.48
750.588	1559.19
750.773	1639.06
750.957	1698.45
751.141	1704.59
751.326	1680.02
751.51	1542.8
751.695	1565.33
751.879	1495.7
752.064	1632.91
752.248	1600.15
752.432	1598.1
752.617	1614.48
752.801	1487.51
752.985	1495.7
753.17	1542.8
753.354	1403.54
753.538	1475.22
753.722	1477.27
753.907	1483.41
754.091	1381.01
754.275	1536.66
754.459	1364.63
754.643	1403.54
754.828	1405.59
755.012	1391.25
755.196	1421.97
755.38	1391.25
755.564	1376.92
755.748	1333.91
755.932	1421.97
756.116	1360.53
756.3	1344.15
756.484	1344.15
756.668	1295
756.852	1231.51
757.036	1401.49
757.22	1272.47
757.404	1188.5
757.588	1206.94
757.772	1335.96
757.956	1262.23
758.14	1233.56
758.323	1192.6
758.507	1358.49
758.691	1303.19
758.875	1163.93
759.059	1245.85
759.242	1249.94
759.426	1147.55
759.61	1145.5
759.794	1139.35
759.977	1237.66
760.161	1213.08
760.345	1176.22
760.528	1262.23
760.712	1125.02
760.895	1182.36
761.079	1061.53
761.263	1196.7
761.446	1139.35
761.63	1098.39
761.813	1180.31
761.997	1110.68
762.18	1022.62
762.364	1041.05
762.547	1069.72
762.731	1065.63
762.914	1170.07
763.098	985.76
763.281	1069.72
763.464	1032.86
763.648	996
763.831	993.95
764.015	1067.67
764.198	1006.24
764.381	948.89
764.564	987.8
764.748	1049.24
764.931	1032.86
765.114	985.76
765.297	993.95
765.481	926.36
765.664	1032.86
765.847	1063.58
766.03	1000.09
766.213	985.76
766.397	985.76
766.58	985.76
766.763	928.41
766.946	897.69
767.129	918.17
767.312	961.18
767.495	893.6
767.678	887.45
767.861	1024.67
768.044	983.71
768.227	989.85
768.41	885.41
768.593	928.41
768.776	944.8
768.959	846.49
769.142	862.88
769.324	893.6
769.507	893.6
769.69	848.54
769.873	895.64
770.056	955.04
770.239	819.87
770.421	901.79
770.604	793.25
770.787	998.04
770.97	846.49
771.152	805.53
771.335	823.97
771.518	834.21
771.7	789.15
771.883	858.78
772.066	821.92
772.248	891.55
772.431	924.32
772.613	813.73
772.796	815.77
772.978	797.34
773.161	885.41
773.343	787.1
773.526	803.49
773.708	764.58
773.891	699.04
774.073	725.66
774.256	795.29
774.438	860.83
774.621	797.34
774.803	737.95
774.985	740
775.168	762.53
775.35	696.99
775.532	768.67
775.715	742.05
775.897	658.08
776.079	674.46
776.261	748.19
776.444	756.38
776.626	686.75
776.808	742.05
776.99	678.56
777.173	703.14
777.355	699.04
777.537	619.17
777.719	658.08
777.901	639.65
778.083	699.04
778.265	594.59
778.447	658.08
778.629	590.5
778.811	576.16
778.993	635.55
779.175	529.06
779.357	582.31
779.539	561.83
779.721	549.54
779.903	643.74
780.085	635.55
780.267	590.5
780.449	684.7
780.631	610.98
780.812	559.78
780.994	643.74
781.176	586.4
781.358	617.12
781.54	582.31
781.721	527.01
781.903	529.06
782.085	565.92
782.267	584.35
782.448	565.92
782.63	537.25
782.812	449.19
782.993	522.91
783.175	574.11
783.357	582.31
783.538	590.5
783.72	479.91
783.901	494.24
784.083	533.15
784.264	484
784.446	432.8
784.627	473.76
784.809	475.81
784.99	514.72
785.172	481.96
785.353	516.77
785.535	508.58
785.716	500.39
785.897	385.7
786.079	465.57
786.26	395.94
786.441	400.04
786.623	422.56
786.804	428.71
786.985	422.56
787.167	451.24
787.348	352.93
787.529	484
787.71	484
787.891	443.04
788.073	377.51
788.254	414.37
788.435	459.43
788.616	373.41
788.797	350.89
788.978	363.17
789.159	369.32
789.34	438.95
789.522	412.32
789.703	338.6
789.884	344.74
790.065	363.17
790.246	400.04
790.427	320.17
790.607	383.65
790.788	463.52
790.969	273.06
791.15	375.46
791.331	365.22
791.512	383.65
791.693	420.52
791.874	352.93
792.054	322.21
792.235	324.26
792.416	361.13
792.597	291.49
792.778	316.07
792.958	287.4
793.139	348.84
793.32	291.49
793.5	246.44
793.681	412.32
793.862	338.6
794.042	279.21
794.223	246.44
794.404	293.54
794.584	332.45
794.765	287.4
794.945	254.63
795.126	213.67
795.306	361.13
795.487	328.36
795.667	246.44
795.848	369.32
796.028	277.16
796.209	332.45
796.389	262.82
796.57	291.49
796.75	271.01
796.93	279.21
797.111	248.49
797.291	266.92
797.471	230.06
797.652	289.45
797.832	230.06
798.012	332.45
798.192	234.15
798.373	299.69
798.553	215.72
798.733	215.72
798.913	230.06
799.093	264.87
799.274	256.68
799.454	273.06
799.634	254.63
799.814	275.11
799.994	264.87
800.174	287.4
800.354	246.44
800.534	279.21
800.714	258.73
800.894	156.33
801.074	240.29
801.254	250.53
801.434	201.38
801.614	262.82
801.794	150.18
801.974	748.19
802.154	248.49
802.334	262.82
802.514	221.86
802.693	205.48
802.873	240.29
803.053	232.1
803.233	209.58
803.413	287.4
803.592	236.2
803.772	242.34
803.952	193.19
804.131	180.9
804.311	262.82
804.491	260.77
804.67	139.94
804.85	215.72
805.03	311.97
805.209	320.17
805.389	172.71
805.568	250.53
805.748	191.14
805.928	170.66
806.107	193.19
806.287	207.53
806.466	185
806.646	238.25
806.825	207.53
807.004	158.38
807.184	115.37
807.363	244.39
807.543	221.86
807.722	172.71
807.901	221.86
808.081	234.15
808.26	201.38
808.439	197.29
808.619	225.96
808.798	98.99
808.977	219.82
809.156	205.48
809.336	289.45
809.515	238.25
809.694	162.47
809.873	187.05
810.052	148.14
810.231	195.24
810.411	195.24
810.59	205.48
810.769	234.15
810.948	242.34
811.127	131.75
811.306	264.87
811.485	232.1
811.664	207.53
811.843	207.53
812.022	197.29
812.201	178.86
812.38	256.68
812.559	131.75
812.737	156.33
812.916	74.41
813.095	90.79
813.274	160.42
813.453	230.06
813.632	211.62
813.811	119.46
813.989	135.85
814.168	189.1
814.347	221.86
814.526	152.23
814.704	193.19
814.883	240.29
815.062	86.7
815.24	207.53
815.419	119.46
815.598	164.52
815.776	115.37
815.955	185
816.133	109.22
816.312	139.94
816.49	172.71
816.669	123.56
816.847	107.18
817.026	185
817.204	133.8
817.383	139.94
817.561	113.32
817.74	148.14
817.918	88.75
818.097	123.56
818.275	123.56
818.453	185
818.632	180.9
818.81	133.8
818.988	119.46
819.167	156.33
819.345	111.27
819.523	107.18
819.701	107.18
819.879	133.8
820.058	158.38
820.236	94.89
820.414	127.66
820.592	160.42
820.77	166.57
820.948	164.52
821.127	113.32
821.305	90.79
821.483	64.17
821.661	158.38
821.839	152.23
822.017	139.94
822.195	150.18
822.373	96.94
822.551	78.51
822.729	60.07
822.907	80.55
823.085	135.85
823.262	94.89
823.44	152.23
823.618	146.09
823.796	103.08
823.974	88.75
824.152	135.85
824.329	170.66
824.507	150.18
824.685	189.1
824.863	66.22
825.04	62.12
825.218	123.56
825.396	121.51
825.574	107.18
825.751	148.14
825.929	174.76
826.107	139.94
826.284	205.48
826.462	131.75
826.639	82.6
826.817	74.41
826.994	135.85
827.172	96.94
827.349	139.94
827.527	86.7
827.704	135.85
827.882	84.65
828.059	170.66
828.237	164.52
828.414	115.37
828.591	41.64
828.769	199.34
828.946	129.7
829.124	154.28
829.301	201.38
829.478	131.75
829.655	152.23
829.833	107.18
830.01	43.69
830.187	76.46
830.364	101.03
830.542	164.52
830.719	94.89
830.896	172.71
831.073	82.6
831.25	82.6
831.427	117.42
831.604	74.41
831.782	139.94
831.959	49.83
832.136	90.79
832.313	180.9
832.49	51.88
832.667	103.08
832.844	98.99
833.021	107.18
833.198	123.56
833.374	111.27
833.551	98.99
833.728	78.51
833.905	103.08
834.082	41.64
834.259	82.6
834.436	117.42
834.612	98.99
834.789	98.99
834.966	90.79
835.143	98.99
835.319	107.18
835.496	62.12
835.673	113.32
835.85	141.99
836.026	135.85
836.203	84.65
836.38	51.88
836.556	70.31
836.733	66.22
836.909	125.61
837.086	4.78
837.262	55.98
837.439	45.74
837.616	53.93
837.792	62.12
837.968	33.45
838.145	25.26
838.321	76.46
838.498	66.22
838.674	141.99
838.851	82.6
839.027	58.03
839.203	72.36
839.38	58.03
839.556	25.26
839.732	76.46
839.909	58.03
840.085	35.5
840.261	29.35
840.437	66.22
840.614	66.22
840.79	127.66
840.966	137.9
841.142	2.73
841.318	43.69
841.494	82.6
841.671	43.69
841.847	12.97
842.023	25.26
842.199	131.75
842.375	82.6
842.551	68.27
842.727	53.93
842.903	84.65
843.079	25.26
843.255	141.99
843.431	33.45
843.607	82.6
843.783	49.83
843.959	131.75
844.134	94.89
844.31	58.03
844.486	90.79
844.662	62.12
844.838	41.64
845.013	64.17
845.189	-11.61
845.365	82.6
845.541	41.64
845.716	76.46
845.892	150.18
846.068	-19.8
846.244	58.03
846.419	35.5
846.595	4.78
846.77	39.59
846.946	68.27
847.122	109.22
847.297	74.41
847.473	125.61
847.648	58.03
847.824	60.07
847.999	21.16
848.175	29.35
848.35	101.03
848.526	82.6
848.701	103.08
848.876	94.89
849.052	141.99
849.227	-13.65
849.403	33.45
849.578	90.79
849.753	31.4
849.929	115.37
850.104	66.22
850.279	94.89
850.454	41.64
850.63	82.6
850.805	43.69
850.98	92.84
851.155	27.31
851.33	51.88
851.505	6.83
851.681	92.84
851.856	29.35
852.031	94.89
852.206	19.11
852.381	82.6
852.556	80.55
852.731	74.41
852.906	141.99
853.081	31.4
853.256	60.07
853.431	21.16
853.606	-13.65
853.781	74.41
853.956	2.73
854.131	33.45
854.305	66.22
854.48	60.07
854.655	58.03
854.83	49.83
855.005	-48.47
855.18	-30.04
855.354	78.51
855.529	19.11
855.704	33.45
855.879	25.26
856.053	-46.42
856.228	58.03
856.403	25.26
856.577	27.31
856.752	45.74
856.926	74.41
857.101	96.94
857.276	84.65
857.45	10.92
857.625	25.26
857.799	45.74
857.974	25.26
858.148	27.31
858.323	-34.13
858.497	58.03
858.672	60.07
858.846	33.45
859.02	49.83
859.195	-52.56
859.369	2.73
859.543	33.45
859.718	29.35
859.892	-30.04
860.066	70.31
860.241	37.55
860.415	29.35
860.589	2.73
860.763	21.16
860.938	45.74
861.112	86.7
861.286	-19.8
861.46	27.31
861.634	39.59
861.808	109.22
861.982	92.84
862.157	-32.08
862.331	45.74
862.505	0.68
862.679	-7.51
862.853	8.87
863.027	53.93
863.201	82.6
863.375	37.55
863.549	51.88
863.722	68.27
863.896	21.16
864.07	62.12
864.244	60.07
864.418	17.07
864.592	123.56
864.766	74.41
864.939	105.13
865.113	-23.89
865.287	88.75
865.461	29.35
865.634	-7.51
865.808	0.68
865.982	4.78
866.156	68.27
866.329	-27.99
866.503	66.22
866.676	74.41
866.85	0.68
867.024	27.31
867.197	84.65
867.371	43.69
867.544	15.02
867.718	6.83
867.891	51.88
868.065	-48.47
868.238	53.93
868.412	21.16
868.585	49.83
868.759	53.93
868.932	-15.7
869.105	-71
869.279	92.84
869.452	45.74
869.625	53.93
869.799	-36.18
869.972	33.45
870.145	0.68
870.319	66.22
870.492	0.68
870.665	-9.56
870.838	12.97
871.011	-30.04
871.185	39.59
871.358	76.46
871.531	53.93
871.704	-34.13
871.877	37.55
872.05	-7.51
872.223	19.11
872.396	33.45
872.569	64.17
872.742	-87.38
872.915	74.41
873.088	-13.65
873.261	76.46
873.434	84.65
873.607	53.93
873.78	72.36
873.953	80.55
874.126	2.73
874.299	10.92
874.471	2.73
874.644	82.6
874.817	33.45
874.99	66.22
875.163	17.07
875.335	66.22
875.508	37.55
875.681	86.7
875.853	10.92
876.026	-36.18
876.199	43.69
876.371	41.64
876.544	-3.41
876.717	17.07
876.889	21.16
877.062	107.18
877.234	-11.61
877.407	0.68
877.579	82.6
877.752	-25.94
877.924	4.78
878.097	41.64
878.269	8.87
878.442	23.21
878.614	49.83
878.786	-38.23
878.959	4.78
879.131	33.45
879.303	-27.99
879.476	6.83
879.648	33.45
879.82	17.07
879.993	49.83
880.165	-52.56
880.337	-19.8
880.509	78.51
880.681	23.21
880.854	-5.46
881.026	29.35
881.198	49.83
881.37	-40.28
881.542	29.35
881.714	27.31
881.886	47.79
882.058	-34.13
882.23	-73.04
882.402	-64.85
882.574	33.45
882.746	33.45
882.918	49.83
883.09	12.97
883.262	49.83
883.434	103.08
883.606	19.11
883.778	25.26
883.95	98.99
884.122	12.97
884.293	74.41
884.465	49.83
884.637	78.51
884.809	27.31
884.98	-3.41
885.152	58.03
885.324	70.31
885.496	21.16
885.667	6.83
885.839	58.03
886.011	101.03
886.182	12.97
886.354	31.4
886.525	45.74
886.697	62.12
886.869	-52.56
887.04	-40.28
887.212	51.88
887.383	10.92
887.555	19.11
887.726	27.31
887.897	58.03
888.069	-62.8
888.24	-15.7
888.412	29.35
888.583	-85.33
888.754	-17.75
888.926	8.87
889.097	-3.41
889.268	-93.52
889.44	-19.8
889.611	-5.46
889.782	8.87
889.953	25.26
890.125	82.6
890.296	12.97
890.467	80.55
890.638	-42.32
890.809	-64.85
890.98	8.87
891.151	90.79
891.323	15.02
891.494	-23.89
891.665	43.69
891.836	-9.56
892.007	58.03
892.178	4.78
892.349	27.31
892.52	-7.51
892.691	37.55
892.862	10.92
893.032	15.02
893.203	0.68
893.374	29.35
893.545	98.99
893.716	-15.7
893.887	27.31
894.057	27.31
894.228	17.07
894.399	6.83
894.57	-3.41
894.74	-30.04
894.911	123.56
895.082	-25.94
895.253	45.74
895.423	-15.7
895.594	90.79
895.764	-5.46
895.935	19.11
896.106	-13.65
896.276	-21.85
896.447	64.17
896.617	2.73
896.788	41.64
896.958	17.07
897.129	-13.65
897.299	2.73
897.47	-13.65
897.64	66.22
897.81	47.79
897.981	25.26
898.151	-7.51
898.322	12.97
898.492	12.97
898.662	-32.08
898.832	-36.18
899.003	86.7
899.173	15.02
899.343	12.97
899.513	17.07
