Data from USB4F104151__228__14-21-49-238.txt Node

Date: Thu Mar 13 14:21:49 EDT 2025
User: louis
Spectrometer: USB4F10415
Trigger mode: 4
Integration Time (sec): 2.000000E-2
Scans to average: 1
Electric dark correction enabled: true
Nonlinearity correction enabled: false
Boxcar width: 0
XAxis mode: Wavelengths
Number of Pixels in Spectrum: 3648
>>>>>Begin Spectral Data<<<<<
178.204	-84.48
178.424	-84.48
178.644	-84.48
178.864	-137.73
179.084	-162.3
179.304	26.11
179.524	-45.57
179.744	-10.75
179.964	42.5
180.184	-29.18
180.404	50.69
180.624	26.11
180.844	3.58
181.064	-51.71
181.283	48.64
181.503	-88.57
181.723	28.16
181.943	-31.23
182.163	79.36
182.383	19.97
182.602	-2.56
182.822	67.07
183.042	26.11
183.262	-45.57
183.482	-29.18
183.701	13.82
183.921	11.78
184.141	44.54
184.361	9.73
184.58	54.78
184.8	28.16
185.02	-45.57
185.239	58.88
185.459	30.21
185.679	1.54
185.898	-4.61
186.118	91.65
186.338	19.97
186.557	3.58
186.777	-23.04
186.997	1.54
187.216	-23.04
187.436	30.21
187.655	44.54
187.875	83.45
188.095	9.73
188.314	-27.14
188.534	79.36
188.753	17.92
188.973	40.45
189.192	46.59
189.412	7.68
189.631	-14.85
189.851	-18.94
190.07	62.98
190.29	-59.9
190.509	22.02
190.729	85.5
190.948	79.36
191.168	93.69
191.387	75.26
191.607	73.21
191.826	71.17
192.045	13.82
192.265	-10.75
192.484	-23.04
192.704	89.6
192.923	-41.47
193.142	3.58
193.362	40.45
193.581	52.74
193.8	-14.85
194.02	81.41
194.239	60.93
194.458	40.45
194.678	-53.76
194.897	44.54
195.116	-33.28
195.335	-4.61
195.555	26.11
195.774	58.88
195.993	26.11
196.212	69.12
196.432	-4.61
196.651	26.11
196.87	-31.23
197.089	44.54
197.308	-18.94
197.528	58.88
197.747	-20.99
197.966	44.54
198.185	52.74
198.404	-6.66
198.623	116.22
198.842	62.98
199.062	62.98
199.281	60.93
199.5	1.54
199.719	52.74
199.938	9.73
200.157	67.07
200.376	1.54
200.595	34.3
200.814	17.92
201.033	44.54
201.252	42.5
201.471	1.54
201.69	26.11
201.909	17.92
202.128	24.06
202.347	3.58
202.566	3.58
202.785	-45.57
203.004	3.58
203.223	-10.75
203.442	67.07
203.661	17.92
203.879	58.88
204.098	62.98
204.317	124.41
204.536	19.97
204.755	-25.09
204.974	30.21
205.193	26.11
205.411	9.73
205.63	48.64
205.849	52.74
206.068	3.58
206.287	-41.47
206.505	15.87
206.724	-2.56
206.943	-6.66
207.162	17.92
207.381	-0.51
207.599	-2.56
207.818	-35.33
208.037	-41.47
208.255	-2.56
208.474	-37.38
208.693	17.92
208.911	34.3
209.13	42.5
209.349	1.54
209.567	138.75
209.786	56.83
210.005	-2.56
210.223	50.69
210.442	-10.75
210.661	62.98
210.879	17.92
211.098	19.97
211.316	79.36
211.535	-2.56
211.753	-55.81
211.972	-6.66
212.191	-27.14
212.409	-23.04
212.628	30.21
212.846	3.58
213.065	3.58
213.283	124.41
213.502	17.92
213.72	-14.85
213.938	58.88
214.157	-61.95
214.375	-14.85
214.594	-6.66
214.812	-27.14
215.031	-2.56
215.249	-2.56
215.467	69.12
215.686	99.84
215.904	19.97
216.122	9.73
216.341	103.93
216.559	-8.7
216.778	26.11
216.996	9.73
217.214	42.5
217.432	-55.81
217.651	36.35
217.869	17.92
218.087	1.54
218.306	1.54
218.524	13.82
218.742	-14.85
218.96	56.83
219.179	-10.75
219.397	34.3
219.615	32.26
219.833	85.5
220.051	-6.66
220.27	58.88
220.488	13.82
220.706	46.59
220.924	-61.95
221.142	34.3
221.36	-18.94
221.578	79.36
221.796	36.35
222.015	60.93
222.233	42.5
222.451	93.69
222.669	-6.66
222.887	34.3
223.105	9.73
223.323	67.07
223.541	-14.85
223.759	44.54
223.977	34.3
224.195	-12.8
224.413	85.5
224.631	83.45
224.849	19.97
225.067	48.64
225.285	-2.56
225.503	42.5
225.721	-76.29
225.939	50.69
226.157	1.54
226.375	144.89
226.592	-12.8
226.81	26.11
227.028	116.22
227.246	52.74
227.464	26.11
227.682	67.07
227.9	87.55
228.117	-2.56
228.335	17.92
228.553	60.93
228.771	9.73
228.989	1.54
229.206	50.69
229.424	-45.57
229.642	-4.61
229.86	-6.66
230.077	9.73
230.295	-6.66
230.513	22.02
230.731	65.02
230.948	26.11
231.166	42.5
231.384	-14.85
231.601	1.54
231.819	60.93
232.037	60.93
232.254	-51.71
232.472	-6.66
232.689	9.73
232.907	83.45
233.125	93.69
233.342	36.35
233.56	-23.04
233.777	-6.66
233.995	83.45
234.213	52.74
234.43	19.97
234.648	30.21
234.865	5.63
235.083	46.59
235.3	13.82
235.518	7.68
235.735	17.92
235.953	46.59
236.17	38.4
236.388	34.3
236.605	17.92
236.822	15.87
237.04	13.82
237.257	5.63
237.475	22.02
237.692	85.5
237.909	44.54
238.127	-12.8
238.344	48.64
238.562	19.97
238.779	-25.09
238.996	38.4
239.214	-0.51
239.431	-2.56
239.648	9.73
239.865	19.97
240.083	103.93
240.3	67.07
240.517	75.26
240.735	-31.23
240.952	-2.56
241.169	-14.85
241.386	-29.18
241.603	58.88
241.821	9.73
242.038	13.82
242.255	-6.66
242.472	-39.42
242.689	9.73
242.907	30.21
243.124	91.65
243.341	19.97
243.558	-20.99
243.775	7.68
243.992	26.11
244.209	58.88
244.426	40.45
244.643	54.78
244.86	50.69
245.078	-14.85
245.295	58.88
245.512	101.89
245.729	-31.23
245.946	28.16
246.163	26.11
246.38	-23.04
246.597	36.35
246.814	38.4
247.031	17.92
247.248	9.73
247.464	50.69
247.681	36.35
247.898	19.97
248.115	34.3
248.332	5.63
248.549	97.79
248.766	60.93
248.983	56.83
249.2	24.06
249.417	28.16
249.633	26.11
249.85	58.88
250.067	-14.85
250.284	26.11
250.501	71.17
250.717	15.87
250.934	44.54
251.151	79.36
251.368	5.63
251.585	52.74
251.801	-4.61
252.018	11.78
252.235	79.36
252.451	40.45
252.668	22.02
252.885	42.5
253.102	-20.99
253.318	17.92
253.535	-18.94
253.752	-35.33
253.968	30.21
254.185	-16.9
254.401	62.98
254.618	-0.51
254.835	-12.8
255.051	1.54
255.268	69.12
255.484	71.17
255.701	62.98
255.917	99.84
256.134	9.73
256.351	26.11
256.567	30.21
256.784	36.35
257	-10.75
257.217	83.45
257.433	11.78
257.65	77.31
257.866	79.36
258.082	-14.85
258.299	-23.04
258.515	38.4
258.732	-23.04
258.948	69.12
259.165	-18.94
259.381	-4.61
259.597	17.92
259.814	-43.52
260.03	3.58
260.246	13.82
260.463	67.07
260.679	-23.04
260.895	13.82
261.112	62.98
261.328	-23.04
261.544	-2.56
261.761	75.26
261.977	-20.99
262.193	36.35
262.409	28.16
262.626	79.36
262.842	-2.56
263.058	-0.51
263.274	1.54
263.49	42.5
263.707	9.73
263.923	-6.66
264.139	50.69
264.355	13.82
264.571	-20.99
264.787	32.26
265.004	62.98
265.22	9.73
265.436	-45.57
265.652	9.73
265.868	79.36
266.084	-55.81
266.3	46.59
266.516	32.26
266.732	48.64
266.948	-10.75
267.164	5.63
267.38	1.54
267.596	-35.33
267.812	54.78
268.028	62.98
268.244	-6.66
268.46	9.73
268.676	-20.99
268.892	22.02
269.108	7.68
269.324	-2.56
269.54	28.16
269.756	17.92
269.972	5.63
270.188	62.98
270.403	-16.9
270.619	58.88
270.835	73.21
271.051	30.21
271.267	-2.56
271.483	3.58
271.698	87.55
271.914	52.74
272.13	-10.75
272.346	-51.71
272.562	9.73
272.777	1.54
272.993	-12.8
273.209	11.78
273.425	-2.56
273.64	-6.66
273.856	89.6
274.072	50.69
274.287	-39.42
274.503	116.22
274.719	-14.85
274.934	30.21
275.15	13.82
275.366	44.54
275.581	-45.57
275.797	15.87
276.012	-35.33
276.228	9.73
276.444	9.73
276.659	105.98
276.875	1.54
277.09	13.82
277.306	17.92
277.521	3.58
277.737	3.58
277.952	34.3
278.168	40.45
278.383	105.98
278.599	79.36
278.814	75.26
279.03	-14.85
279.245	60.93
279.461	42.5
279.676	3.58
279.892	-39.42
280.107	19.97
280.322	-51.71
280.538	42.5
280.753	34.3
280.969	22.02
281.184	-35.33
281.399	32.26
281.615	3.58
281.83	44.54
282.045	32.26
282.26	36.35
282.476	26.11
282.691	91.65
282.906	15.87
283.122	26.11
283.337	-2.56
283.552	69.12
283.767	-39.42
283.983	71.17
284.198	-27.14
284.413	5.63
284.628	19.97
284.843	-27.14
285.058	30.21
285.274	77.31
285.489	48.64
285.704	-8.7
285.919	-2.56
286.134	71.17
286.349	32.26
286.564	36.35
286.779	1.54
286.995	30.21
287.21	5.63
287.425	22.02
287.64	-2.56
287.855	5.63
288.07	-35.33
288.285	83.45
288.5	-70.14
288.715	105.98
288.93	52.74
289.145	62.98
289.36	38.4
289.575	9.73
289.79	79.36
290.004	54.78
290.219	52.74
290.434	1.54
290.649	36.35
290.864	85.5
291.079	-25.09
291.294	69.12
291.509	30.21
291.724	19.97
291.938	40.45
292.153	56.83
292.368	-80.38
292.583	9.73
292.798	-6.66
293.012	9.73
293.227	73.21
293.442	19.97
293.657	130.56
293.871	58.88
294.086	60.93
294.301	58.88
294.516	69.12
294.73	1.54
294.945	40.45
295.16	58.88
295.374	108.03
295.589	95.74
295.804	-6.66
296.018	60.93
296.233	65.02
296.447	7.68
296.662	-70.14
296.877	69.12
297.091	46.59
297.306	99.84
297.52	83.45
297.735	3.58
297.949	79.36
298.164	-23.04
298.378	46.59
298.593	3.58
298.807	30.21
299.022	-14.85
299.236	38.4
299.451	38.4
299.665	36.35
299.88	69.12
300.094	11.78
300.309	75.26
300.523	124.41
300.737	15.87
300.952	60.93
301.166	97.79
301.381	-18.94
301.595	89.6
301.809	42.5
302.024	-51.71
302.238	-35.33
302.452	26.11
302.667	28.16
302.881	67.07
303.095	26.11
303.309	26.11
303.524	-51.71
303.738	65.02
303.952	13.82
304.166	52.74
304.381	19.97
304.595	118.27
304.809	-20.99
305.023	3.58
305.237	9.73
305.452	-20.99
305.666	67.07
305.88	79.36
306.094	42.5
306.308	67.07
306.522	58.88
306.736	26.11
306.95	22.02
307.164	17.92
307.379	38.4
307.593	-12.8
307.807	89.6
308.021	54.78
308.235	-8.7
308.449	-20.99
308.663	-10.75
308.877	42.5
309.091	-8.7
309.305	13.82
309.519	-57.86
309.733	67.07
309.947	3.58
310.161	36.35
310.374	54.78
310.588	77.31
310.802	-4.61
311.016	26.11
311.23	-20.99
311.444	77.31
311.658	52.74
311.872	26.11
312.085	46.59
312.299	-23.04
312.513	81.41
312.727	52.74
312.941	-14.85
313.154	1.54
313.368	5.63
313.582	67.07
313.796	75.26
314.009	62.98
314.223	181.76
314.437	11.78
314.651	-61.95
314.864	-14.85
315.078	3.58
315.292	67.07
315.505	85.5
315.719	-8.7
315.933	34.3
316.146	-10.75
316.36	-23.04
316.573	34.3
316.787	58.88
317.001	50.69
317.214	-0.51
317.428	1.54
317.641	3.58
317.855	99.84
318.068	77.31
318.282	159.23
318.495	75.26
318.709	58.88
318.922	26.11
319.136	108.03
319.349	5.63
319.563	19.97
319.776	116.22
319.99	83.45
320.203	42.5
320.417	26.11
320.63	40.45
320.843	93.69
321.057	58.88
321.27	67.07
321.483	69.12
321.697	116.22
321.91	-14.85
322.124	52.74
322.337	30.21
322.55	42.5
322.763	54.78
322.977	83.45
323.19	-45.57
323.403	44.54
323.617	42.5
323.83	99.84
324.043	-61.95
324.256	89.6
324.469	-14.85
324.683	3.58
324.896	3.58
325.109	101.89
325.322	-23.04
325.535	42.5
325.748	52.74
325.962	-16.9
326.175	38.4
326.388	-37.38
326.601	17.92
326.814	50.69
327.027	-47.62
327.24	54.78
327.453	71.17
327.666	89.6
327.879	26.11
328.092	-35.33
328.305	67.07
328.518	17.92
328.731	-64
328.944	30.21
329.157	40.45
329.37	40.45
329.583	112.13
329.796	42.5
330.009	108.03
330.222	95.74
330.435	5.63
330.648	26.11
330.861	5.63
331.073	42.5
331.286	-4.61
331.499	103.93
331.712	1.54
331.925	24.06
332.138	34.3
332.35	75.26
332.563	9.73
332.776	146.94
332.989	42.5
333.202	112.13
333.414	-14.85
333.627	11.78
333.84	54.78
334.053	30.21
334.265	7.68
334.478	71.17
334.691	71.17
334.903	13.82
335.116	17.92
335.329	-39.42
335.541	13.82
335.754	77.31
335.966	26.11
336.179	-4.61
336.392	60.93
336.604	44.54
336.817	34.3
337.029	-20.99
337.242	28.16
337.454	95.74
337.667	50.69
337.88	77.31
338.092	58.88
338.305	9.73
338.517	44.54
338.729	-6.66
338.942	116.22
339.154	58.88
339.367	50.69
339.579	99.84
339.792	93.69
340.004	44.54
340.217	-25.09
340.429	62.98
340.641	-37.38
340.854	46.59
341.066	56.83
341.278	83.45
341.491	5.63
341.703	34.3
341.915	71.17
342.128	71.17
342.34	101.89
342.552	52.74
342.764	34.3
342.977	1.54
343.189	54.78
343.401	30.21
343.613	83.45
343.826	85.5
344.038	34.3
344.25	69.12
344.462	26.11
344.674	99.84
344.886	-6.66
345.099	50.69
345.311	1.54
345.523	38.4
345.735	26.11
345.947	138.75
346.159	-35.33
346.371	28.16
346.583	13.82
346.795	142.85
347.007	-4.61
347.219	77.31
347.431	62.98
347.643	52.74
347.855	-20.99
348.067	69.12
348.279	32.26
348.491	44.54
348.703	67.07
348.915	-39.42
349.127	56.83
349.339	42.5
349.551	32.26
349.763	58.88
349.975	110.08
350.187	38.4
350.399	5.63
350.61	19.97
350.822	116.22
351.034	-12.8
351.246	40.45
351.458	114.17
351.669	46.59
351.881	42.5
352.093	54.78
352.305	79.36
352.517	58.88
352.728	99.84
352.94	24.06
353.152	42.5
353.363	17.92
353.575	110.08
353.787	17.92
353.999	62.98
354.21	108.03
354.422	118.27
354.633	42.5
354.845	67.07
355.057	22.02
355.268	50.69
355.48	50.69
355.692	22.02
355.903	34.3
356.115	118.27
356.326	22.02
356.538	26.11
356.749	40.45
356.961	44.54
357.172	44.54
357.384	60.93
357.595	116.22
357.807	110.08
358.018	54.78
358.23	-31.23
358.441	75.26
358.653	95.74
358.864	71.17
359.075	58.88
359.287	9.73
359.498	95.74
359.709	11.78
359.921	110.08
360.132	17.92
360.344	26.11
360.555	17.92
360.766	99.84
360.977	22.02
361.189	79.36
361.4	32.26
361.611	140.8
361.823	122.37
362.034	67.07
362.245	42.5
362.456	22.02
362.667	46.59
362.879	58.88
363.09	26.11
363.301	71.17
363.512	28.16
363.723	62.98
363.935	32.26
364.146	56.83
364.357	67.07
364.568	77.31
364.779	28.16
364.99	71.17
365.201	48.64
365.412	95.74
365.623	1.54
365.834	73.21
366.045	95.74
366.256	83.45
366.467	122.37
366.678	5.63
366.889	71.17
367.1	30.21
367.311	38.4
367.522	-10.75
367.733	48.64
367.944	34.3
368.155	99.84
368.366	42.5
368.577	128.51
368.788	52.74
368.999	17.92
369.209	114.17
369.42	79.36
369.631	83.45
369.842	30.21
370.053	17.92
370.264	42.5
370.474	69.12
370.685	44.54
370.896	-12.8
371.107	91.65
371.317	26.11
371.528	26.11
371.739	28.16
371.95	73.21
372.16	67.07
372.371	-78.33
372.582	58.88
372.792	62.98
373.003	-27.14
373.214	3.58
373.424	75.26
373.635	-8.7
373.846	77.31
374.056	17.92
374.267	89.6
374.477	69.12
374.688	-6.66
374.898	9.73
375.109	-4.61
375.319	50.69
375.53	58.88
375.74	91.65
375.951	-55.81
376.161	3.58
376.372	50.69
376.582	30.21
376.793	99.84
377.003	26.11
377.214	1.54
377.424	97.79
377.635	87.55
377.845	46.59
378.055	5.63
378.266	-18.94
378.476	34.3
378.686	91.65
378.897	50.69
379.107	-10.75
379.317	83.45
379.528	17.92
379.738	30.21
379.948	17.92
380.158	34.3
380.369	-6.66
380.579	58.88
380.789	101.89
380.999	67.07
381.21	108.03
381.42	144.89
381.63	28.16
381.84	42.5
382.05	67.07
382.261	30.21
382.471	60.93
382.681	44.54
382.891	67.07
383.101	75.26
383.311	62.98
383.521	69.12
383.731	7.68
383.941	62.98
384.151	3.58
384.361	34.3
384.571	60.93
384.781	77.31
384.991	48.64
385.201	101.89
385.411	48.64
385.621	75.26
385.831	79.36
386.041	85.5
386.251	112.13
386.461	34.3
386.671	99.84
386.881	85.5
387.091	50.69
387.301	93.69
387.511	-23.04
387.72	91.65
387.93	99.84
388.14	46.59
388.35	30.21
388.56	75.26
388.769	36.35
388.979	140.8
389.189	3.58
389.399	136.7
389.609	19.97
389.818	38.4
390.028	22.02
390.238	42.5
390.447	75.26
390.657	50.69
390.867	46.59
391.076	67.07
391.286	38.4
391.496	58.88
391.705	-6.66
391.915	101.89
392.125	108.03
392.334	77.31
392.544	110.08
392.753	-6.66
392.963	40.45
393.172	87.55
393.382	-16.9
393.591	99.84
393.801	60.93
394.01	89.6
394.22	-6.66
394.429	22.02
394.639	5.63
394.848	159.23
395.058	85.5
395.267	38.4
395.477	83.45
395.686	69.12
395.895	73.21
396.105	89.6
396.314	38.4
396.524	108.03
396.733	46.59
396.942	34.3
397.152	134.65
397.361	148.99
397.57	19.97
397.78	60.93
397.989	89.6
398.198	120.32
398.407	46.59
398.617	120.32
398.826	83.45
399.035	69.12
399.244	116.22
399.453	99.84
399.663	81.41
399.872	136.7
400.081	157.18
400.29	132.61
400.499	67.07
400.708	157.18
400.917	81.41
401.127	140.8
401.336	120.32
401.545	132.61
401.754	155.13
401.963	101.89
402.172	60.93
402.381	122.37
402.59	62.98
402.799	93.69
403.008	124.41
403.217	134.65
403.426	132.61
403.635	140.8
403.844	105.98
404.053	175.61
404.262	138.75
404.471	179.71
404.68	138.75
404.888	103.93
405.097	185.85
405.306	130.56
405.515	65.02
405.724	114.17
405.933	192
406.142	226.81
406.35	183.81
406.559	185.85
406.768	204.28
406.977	239.1
407.185	210.43
407.394	237.05
407.603	118.27
407.812	208.38
408.02	226.81
408.229	261.63
408.438	202.24
408.646	153.09
408.855	241.15
409.064	304.64
409.272	292.35
409.481	280.06
409.69	269.82
409.898	280.06
410.107	312.83
410.315	321.02
410.524	300.54
410.733	366.07
410.941	321.02
411.15	353.79
411.358	445.95
411.567	458.23
411.775	372.22
411.984	370.17
412.192	484.86
412.401	433.66
412.609	558.58
412.818	413.18
413.026	517.62
413.234	499.19
413.443	503.29
413.651	503.29
413.86	574.97
414.068	560.63
414.276	615.93
414.485	620.02
414.693	620.02
414.901	689.65
415.11	611.83
415.318	703.99
415.526	802.29
415.734	820.72
415.943	820.72
416.151	853.49
416.359	833.01
416.567	855.54
416.776	923.12
416.984	970.23
417.192	935.41
417.4	947.7
417.608	982.51
417.817	1037.81
418.025	1152.49
418.233	1154.54
418.441	1078.77
418.649	1132.01
418.857	1189.36
419.065	1336.81
419.273	1271.28
419.481	1377.77
419.689	1400.3
419.897	1424.87
420.105	1459.69
420.313	1541.61
420.521	1609.19
420.729	1656.29
420.937	1656.29
421.145	1795.56
421.353	1826.28
421.561	1893.86
421.769	2008.55
421.977	2010.59
422.185	2029.03
422.393	2174.43
422.601	2377.18
422.809	2323.93
423.017	2276.83
423.224	2360.8
423.432	2532.83
423.64	2381.28
423.848	2817.49
424.056	2676.18
424.263	2846.16
424.471	2680.28
424.679	3001.81
424.887	3102.16
425.094	3229.13
425.302	3204.56
425.51	3335.63
425.718	3337.68
425.925	3397.07
426.133	3405.26
426.341	3749.32
426.548	3823.05
426.756	3866.05
426.964	3902.92
427.171	4212.16
427.379	4425.15
427.586	4330.94
427.794	4535.74
428.001	4767.16
428.209	5025.2
428.417	4773.3
428.624	5252.53
428.832	5326.25
429.039	5199.28
429.247	5086.64
429.454	5645.74
429.662	5860.77
429.869	5719.46
430.076	6071.72
430.284	5991.84
430.491	6129.06
430.699	6319.52
430.906	6456.73
431.114	6454.69
431.321	6735.26
431.528	6983.06
431.736	7333.26
431.943	7640.46
432.15	7542.16
432.358	7638.41
432.565	8013.19
432.772	7878.02
432.979	8316.29
433.187	8564.09
433.394	8537.47
433.601	9198.96
433.808	9037.17
434.016	8932.73
434.223	9426.29
434.43	10179.94
434.637	9905.51
434.844	10540.38
435.052	10638.69
435.259	10505.57
435.466	10480.99
435.673	10493.28
435.88	11150.68
436.087	11908.43
436.294	11595.09
436.501	11441.49
436.708	11889.99
436.915	12080.46
437.122	12657.98
437.329	12653.89
437.537	12735.81
437.743	13120.82
437.95	13129.02
438.157	14011.69
438.364	14322.98
438.571	14261.54
438.778	14533.92
438.985	15664.4
439.192	14894.36
439.399	15586.58
439.606	15144.22
439.813	16098.57
440.02	17163.51
440.227	16504.07
440.433	16506.12
440.64	16991.48
440.847	17128.7
441.054	17388.79
441.261	18709.73
441.467	18468.07
441.674	18697.44
441.881	19451.1
442.088	19150.04
442.294	19217.63
442.501	20036.81
442.708	20135.12
442.914	20600.01
443.121	21818.55
443.328	21236.92
443.534	22494.38
443.741	21890.23
443.948	21650.61
444.154	23047.33
444.361	23211.17
444.568	23219.36
444.774	23239.84
444.981	23631
445.187	24171.66
445.394	25021.57
445.6	24749.19
445.807	27272.29
446.013	26090.61
446.22	26508.4
446.426	27034.72
446.633	27882.58
446.839	28722.25
447.046	27610.2
447.252	29187.14
447.459	29037.64
447.665	28961.86
447.871	30088.24
448.078	31261.73
448.284	30022.71
448.491	30575.66
448.697	31937.56
448.903	32766.99
449.11	32635.92
449.316	32183.32
449.522	32623.63
449.728	33840.12
449.935	33467.39
450.141	33547.26
450.347	34757.61
450.553	33688.57
450.76	33784.83
450.966	35349.48
451.172	34796.53
451.378	35566.56
451.584	34898.92
451.791	35582.95
451.997	35353.57
452.203	36013.02
452.409	36361.17
452.615	35986.39
452.821	34618.35
453.027	34249.72
453.233	35836.89
453.44	34540.53
453.646	34986.99
453.852	35316.71
454.058	35871.71
454.264	34733.04
454.47	35517.41
454.676	34853.87
454.882	35728.35
455.088	32941.07
455.294	33340.42
455.5	33887.23
455.705	34114.55
455.911	32621.58
456.117	32138.26
456.323	31673.37
456.529	30223.41
456.735	31294.5
456.941	30497.84
457.147	30125.11
457.352	29275.2
457.558	28972.1
457.764	29033.54
457.97	28496.97
458.176	28011.6
458.381	27991.12
458.587	26467.44
458.793	26518.64
458.999	25236.61
459.204	26956.9
459.41	26020.98
459.616	24470.67
459.821	24403.08
460.027	24321.16
460.233	24016.02
460.438	22906.02
460.644	22989.99
460.85	21980.34
461.055	21669.05
461.261	21349.56
461.466	20131.02
461.672	19496.15
461.878	20937.92
462.083	19586.26
462.289	19340.5
462.494	18953.44
462.7	18144.49
462.905	18103.53
463.111	18345.19
463.316	18250.99
463.522	17812.72
463.727	18107.63
463.932	17917.17
464.138	17542.39
464.343	17917.17
464.549	17317.11
464.754	17827.06
464.959	17755.38
465.165	17493.24
465.37	16715.01
465.575	16291.08
465.781	17063.16
465.986	16958.72
466.191	16358.66
466.397	16211.21
466.602	15115.55
466.807	16119.05
467.012	16108.81
467.218	16092.43
467.423	15904.01
467.628	15715.6
467.833	16510.21
468.038	15746.32
468.244	15273.24
468.449	15940.88
468.654	15455.51
468.859	15271.19
469.064	15426.84
469.269	14671.14
469.474	14869.79
469.679	15185.18
469.885	14654.75
470.09	14730.53
470.295	14947.61
470.5	14458.15
470.705	14542.11
470.91	14179.62
471.115	14046.51
471.32	14290.21
471.525	14288.17
471.73	14083.37
471.935	13755.69
472.139	13358.39
472.344	13710.64
472.549	13370.68
472.754	13440.31
472.959	13120.82
473.164	12694.85
473.369	12725.57
473.574	13059.38
473.778	12809.53
473.983	12881.21
474.188	12901.69
474.393	12195.14
474.598	12369.22
474.802	12129.61
475.007	12068.17
475.212	12143.94
475.417	11482.45
475.621	11754.83
475.826	11855.18
476.031	11437.39
476.235	11404.63
476.44	11511.12
476.645	11119.96
476.849	11326.8
477.054	11224.4
477.259	10728.8
477.463	11085.14
477.668	10634.59
477.872	10868.06
478.077	10632.54
478.282	10382.69
478.486	10485.09
478.691	10257.76
478.895	10218.85
479.1	10227.04
479.304	10114.41
479.509	9876.84
479.713	10057.06
479.918	9956.71
480.122	9774.44
480.326	9913.7
480.531	9680.24
480.735	9735.53
480.94	9749.87
481.144	9882.99
481.348	9379.18
481.553	9389.42
481.757	9420.14
481.961	9618.8
482.166	9524.59
482.37	9596.27
482.574	9446.77
482.778	9338.23
482.983	9438.58
483.187	9385.33
483.391	9522.54
483.595	9278.83
483.8	9389.42
484.004	9381.23
484.208	9418.1
484.412	9373.04
484.616	9512.3
484.821	9475.44
485.025	9397.62
485.229	9448.82
485.433	9192.82
485.637	9422.19
485.841	9383.28
486.045	9340.27
486.249	9338.23
486.453	9356.66
486.657	9244.02
486.861	9590.13
487.065	9115
487.269	9606.51
487.473	9225.59
487.677	9461.1
487.881	9438.58
488.085	9348.47
488.289	9291.12
488.493	9370.99
488.697	9309.55
488.901	9342.32
489.105	9383.28
489.309	9409.9
489.512	9342.32
489.716	9495.92
489.92	9522.54
490.124	9459.06
490.328	9708.91
490.531	9561.45
490.735	9536.88
490.939	9782.63
491.143	9497.97
491.346	9389.42
491.55	9872.75
491.754	9876.84
491.958	9958.76
492.161	9778.54
492.365	9971.05
492.569	9885.03
492.772	9870.7
492.976	10040.68
493.18	9989.48
493.383	10206.56
493.587	10261.86
493.79	10423.65
493.994	10274.15
494.197	10392.93
494.401	10571.1
494.605	10448.22
494.808	10630.49
495.012	10620.25
495.215	10624.35
495.419	10843.48
495.622	10794.33
495.825	10929.5
496.029	11013.46
496.232	11259.22
496.436	10968.41
496.639	11277.65
496.843	11404.63
497.046	11547.98
497.249	11887.95
497.453	11691.34
497.656	11717.97
497.859	11705.68
498.063	11822.41
498.266	12371.27
498.469	12100.94
498.673	12502.34
498.876	12502.34
499.079	12526.91
499.282	12522.82
499.485	12928.31
499.689	12813.63
499.892	13083.96
500.095	13253.94
500.298	13657.39
500.501	13225.27
500.705	13667.63
500.908	13737.26
501.111	14159.14
501.314	14048.55
501.517	14306.6
501.72	14363.94
501.923	14419.24
502.126	14595.36
502.329	14763.29
502.532	14947.61
502.735	15045.91
502.938	15306.01
503.141	15381.78
503.344	15629.59
503.547	15756.56
503.75	16039.18
503.953	16268.55
504.156	16516.36
504.359	16577.8
504.562	16596.23
504.765	16983.29
504.968	16960.77
505.17	17636.59
505.373	17061.12
505.576	17730.8
505.779	17951.98
505.982	17734.9
506.185	18414.82
506.387	18214.12
506.59	18330.86
506.793	18734.31
506.996	18642.15
507.198	19207.39
507.401	19129.56
507.604	19459.29
507.807	19795.15
508.009	19535.06
508.212	19958.99
508.415	20159.69
508.617	20602.05
508.82	20841.67
509.022	20448.46
509.225	21257.4
509.428	21509.3
509.63	21378.23
509.833	21456.06
510.035	21929.14
510.238	21814.45
510.44	22260.91
510.643	22201.52
510.845	23012.51
511.048	22494.38
511.25	22998.18
511.453	23076
511.655	23749.78
511.858	23444.63
512.06	23850.13
512.262	24296.59
512.465	24229.01
512.667	24661.13
512.87	24622.22
513.072	24992.9
513.274	25318.53
513.477	25547.9
513.679	25652.34
513.881	26141.81
514.084	26303.6
514.286	26428.52
514.488	26653.8
514.69	27020.39
514.893	27282.53
515.095	27595.87
515.297	27855.96
515.499	27927.64
515.701	28185.68
515.904	28396.62
516.106	28669
516.308	28851.27
516.51	29168.71
516.712	29285.44
516.914	29350.98
517.116	29948.98
517.318	30204.98
517.52	30231.6
517.722	30381.1
517.925	30897.19
518.127	31319.07
518.329	31462.43
518.531	31380.51
518.733	31955.99
518.935	32226.32
519.136	31929.37
519.338	32564.24
519.54	32371.73
519.742	33109
519.944	33483.78
520.146	33866.75
520.348	33952.76
520.55	34407.41
520.752	34063.35
520.954	34892.78
521.155	34423.79
521.357	35384.29
521.559	34939.88
521.761	35802.08
521.963	35881.95
522.164	35785.69
522.366	35986.39
522.568	36414.42
522.77	36627.41
522.971	37020.62
523.173	37069.77
523.375	37247.94
523.576	37350.34
523.778	37465.03
523.98	37936.06
524.181	37993.4
524.383	37946.3
524.584	38900.65
524.786	38716.34
524.988	38765.49
525.189	38773.68
525.391	39302.06
525.592	39814.05
525.794	39355.3
525.995	39392.17
526.197	39828.38
526.398	39752.61
526.6	39975.84
526.801	40000.41
527.003	40530.84
527.204	40156.06
527.406	40661.91
527.607	40866.7
527.808	40596.37
528.01	40518.55
528.211	41352.07
528.412	41581.45
528.614	41495.43
528.815	41571.21
529.016	41601.93
529.218	41622.4
529.419	41538.44
529.62	41597.83
529.822	41563.01
530.023	41843.59
530.224	41794.43
530.425	41941.89
530.626	41636.74
530.828	41431.94
531.029	42529.66
531.23	42015.61
531.431	42115.97
531.632	42087.29
531.833	42558.33
532.035	42376.06
532.236	42238.84
532.437	42515.32
532.638	42550.13
532.839	42744.69
533.04	42849.14
533.241	42167.16
533.442	43062.13
533.643	42773.36
533.844	42611.57
534.045	42699.64
534.246	42761.08
534.447	42826.61
534.648	42822.51
534.849	42886
535.05	42744.69
535.251	42759.03
535.451	42478.46
535.652	43201.39
535.853	43236.2
536.054	42736.5
536.255	43031.41
536.456	42576.76
536.657	43447.15
536.857	42818.42
537.058	42441.59
537.259	42691.44
537.46	42947.44
537.66	43096.94
537.861	42982.26
538.062	43047.79
538.263	42814.32
538.463	43219.82
538.664	42892.15
538.865	42949.49
539.065	43289.45
539.266	42711.92
539.466	43182.96
539.667	42490.74
539.868	43092.85
540.068	43363.18
540.269	42763.12
540.469	43074.41
540.67	42705.78
540.87	42410.87
541.071	42775.41
541.271	42783.6
541.472	43064.17
541.672	42910.58
541.873	42847.09
542.073	42220.41
542.274	42607.48
542.474	42507.13
542.675	42468.22
542.875	43103.09
543.075	42711.92
543.276	42265.47
543.476	43121.52
543.676	42314.62
543.877	43068.27
544.077	42640.25
544.277	42683.25
544.478	42388.35
544.678	42845.04
544.878	43021.17
545.078	42455.93
545.279	42034.05
545.479	42308.47
545.679	42750.84
545.879	42709.88
546.079	42521.46
546.28	42345.34
546.48	42441.59
546.68	42529.66
546.88	42754.93
547.08	42412.92
547.28	42578.81
547.48	42228.6
547.68	42503.03
547.88	41966.46
548.081	42128.25
548.281	42290.04
548.481	42204.03
548.681	42414.97
548.881	42654.58
549.081	42421.11
549.28	42206.08
549.48	42449.78
549.68	41855.87
549.88	42990.45
550.08	42156.92
550.28	42382.2
550.48	42398.59
550.68	42621.81
550.88	41614.21
551.08	42261.37
551.279	42261.37
551.479	41902.98
551.679	42423.16
551.879	42267.52
552.079	42312.57
552.278	42167.16
552.478	42337.15
552.678	41694.08
552.878	42312.57
553.077	42242.94
553.277	41671.56
553.477	42369.91
553.676	41923.46
553.876	41862.02
554.076	41956.22
554.275	41982.85
554.475	41460.62
554.674	41849.73
554.874	41843.59
555.074	41489.29
555.273	41941.89
555.473	41823.11
555.672	41743.24
555.872	42044.29
556.071	41892.74
556.271	41792.39
556.47	41618.31
556.67	41223.05
556.869	41212.81
557.068	41382.79
557.268	41655.17
557.467	41415.56
557.667	41503.62
557.866	41059.21
558.065	41278.35
558.265	41378.7
558.464	41014.16
558.663	41595.78
558.863	40594.32
559.062	41868.16
559.261	40678.29
559.461	41343.88
559.66	40453.01
559.859	40590.23
560.058	40797.07
560.258	40526.74
560.457	40498.07
560.656	40577.94
560.855	40262.55
561.054	40477.59
561.253	40061.85
561.453	40776.59
561.652	40579.99
561.851	40661.91
562.05	40178.59
562.249	39779.23
562.448	40399.77
562.647	40125.34
562.846	39574.44
563.045	40139.68
563.244	39502.76
563.443	40135.58
563.642	39646.12
563.841	39783.33
564.04	39521.19
564.239	40049.56
564.438	39566.24
564.637	39472.04
564.836	39744.42
565.035	38986.67
565.234	39562.15
565.432	39246.76
565.631	39084.97
565.83	39474.09
566.029	39209.9
566.228	38722.48
566.427	39121.84
566.625	38548.4
566.824	38284.22
567.023	38826.93
567.222	37903.29
567.42	38687.67
567.619	38546.36
567.818	38357.94
568.016	38386.61
568.215	38583.22
568.414	38333.37
568.612	38478.77
568.811	38165.43
569.01	38276.02
569.208	37833.66
569.407	38220.73
569.605	37852.09
569.804	38239.16
570.002	37643.2
570.201	37737.41
570.4	37211.08
570.598	37219.27
570.797	37346.25
570.995	37770.18
571.193	36942.8
571.392	37290.95
571.59	36826.06
571.789	36948.94
571.987	36854.73
572.186	36936.65
572.384	36381.65
572.582	36893.65
572.781	36711.38
572.979	36379.6
573.177	36299.73
573.376	36590.55
573.574	36033.5
573.772	36244.44
573.971	35795.93
574.169	35812.32
574.367	35599.33
574.565	36334.55
574.763	35947.48
574.962	35689.44
575.16	35689.44
575.358	36096.99
575.556	35277.8
575.754	35759.07
575.952	35099.62
576.151	35472.35
576.349	34886.64
576.547	35001.32
576.745	35077.1
576.943	35052.52
577.141	35064.81
577.339	34808.81
577.537	34595.82
577.735	34538.48
577.933	34337.78
578.131	34630.64
578.329	34296.82
578.527	34139.13
578.725	34472.95
578.923	33965.05
579.121	34202.61
579.319	34257.91
579.516	33917.95
579.714	33698.81
579.912	33684.48
580.11	33567.74
580.308	33717.25
580.506	33768.44
580.704	33149.96
580.901	33510.4
581.099	33391.62
581.297	33000.46
581.495	33426.43
581.692	32926.73
581.89	32840.71
582.088	33348.61
582.285	32482.32
582.483	32846.86
582.681	32797.71
582.878	32736.27
583.076	32429.07
583.274	32695.31
583.471	32408.59
583.669	32216.08
583.866	32341.01
584.064	32277.52
584.262	31632.41
584.459	32230.42
584.657	32203.8
584.854	32289.81
585.052	31181.86
585.249	31595.55
585.447	31564.83
585.644	31476.77
585.841	31409.18
586.039	31628.32
586.236	31491.1
586.434	31288.35
586.631	30809.13
586.828	31233.06
587.026	31181.86
587.223	31032.36
587.42	30809.13
587.618	31136.8
587.815	30557.23
588.012	30616.62
588.21	30663.72
588.407	30415.92
588.604	29928.5
588.801	30012.47
588.999	30381.1
589.196	30133.3
589.393	29951.03
589.59	30010.42
589.787	29830.2
589.984	29770.81
590.182	29432.89
590.379	29553.73
590.576	29508.67
590.773	29547.58
590.97	29336.64
591.167	29576.25
591.364	28845.13
591.561	29207.62
591.758	28722.25
591.955	28890.18
592.152	29129.8
592.349	28795.98
592.546	28687.43
592.743	28673.1
592.94	28617.8
593.137	28705.87
593.334	28576.84
593.531	27880.53
593.727	28462.16
593.924	28410.96
594.121	28275.79
594.318	28099.67
594.515	27577.44
594.712	28386.38
594.908	27937.88
595.105	27923.54
595.302	27569.24
595.499	27423.84
595.696	27575.39
595.892	27135.07
596.089	27638.87
596.286	27366.49
596.482	27368.54
596.679	27358.3
596.876	27184.23
597.072	26909.8
597.269	27057.25
597.466	26555.5
597.662	26805.35
597.859	26825.83
598.055	26457.2
598.252	26588.27
598.448	26387.57
598.645	26186.86
598.841	26068.08
599.038	26209.39
599.234	25947.25
599.431	26121.33
599.627	25648.25
599.824	25857.14
600.02	25898.1
600.217	25963.64
600.413	25631.86
600.609	25586.81
600.806	25418.88
601.002	25681.02
601.198	25521.27
601.395	25365.63
601.591	24960.13
601.787	25107.58
601.984	25275.52
602.18	25287.81
602.376	24818.82
602.572	24810.63
602.769	24724.61
602.965	24642.7
603.161	24915.08
603.357	24679.56
603.553	24700.04
603.75	24632.46
603.946	24231.05
604.142	24552.59
604.338	24102.03
604.534	24083.6
604.73	24036.5
604.926	23852.18
605.122	24011.92
605.318	23973.01
605.514	23571.61
605.71	23882.9
605.906	23706.77
606.102	23512.22
606.298	23618.71
606.494	23692.44
606.69	23753.88
606.886	23446.68
607.082	23190.69
607.278	23288.99
607.474	22815.91
607.67	22989.99
607.866	23055.52
608.062	23270.56
608.257	22848.68
608.453	23090.34
608.649	23393.44
608.845	22731.94
609.041	23016.61
609.236	22799.52
609.432	22760.61
609.628	22838.44
609.824	22586.54
610.019	22340.78
610.215	22383.79
610.411	22701.22
610.606	22181.04
610.802	22518.95
610.998	22508.71
611.193	22222
611.389	22215.85
611.584	22197.42
611.78	21830.83
611.976	22181.04
612.171	22086.83
612.367	22080.69
612.562	22127.79
612.758	21574.84
612.953	21722.29
613.149	22015.15
613.344	21531.83
613.539	21925.04
613.735	21695.67
613.93	21765.3
614.126	21468.34
614.321	21945.52
614.517	21607.61
614.712	21433.53
614.907	21435.58
615.103	21556.41
615.298	21228.73
615.493	21722.29
615.688	21054.65
615.884	21247.16
616.079	20853.95
616.274	21011.65
616.47	20944.06
616.665	21236.92
616.86	20909.25
617.055	21040.32
617.25	20903.11
617.445	21009.6
617.641	20710.6
617.836	21148.86
618.031	20440.26
618.226	20577.48
618.421	20741.32
618.616	20700.36
618.811	20419.78
619.006	20563.14
619.201	20165.84
619.396	20270.28
619.591	20036.81
619.786	20059.34
619.981	19872.98
620.176	20053.2
620.371	19791.06
620.566	19963.09
620.761	19746
620.956	19854.55
621.151	19393.75
621.346	19326.17
621.541	19121.37
621.735	19440.86
621.93	19279.07
622.125	19152.09
622.32	18595.04
622.515	18982.11
622.709	18681.06
622.904	19051.74
623.099	18621.67
623.294	18795.75
623.488	18580.71
623.683	18631.91
623.878	18087.15
624.072	18425.06
624.267	18138.35
624.462	18119.92
624.656	17888.5
624.851	17945.84
625.046	17761.52
625.24	17679.6
625.435	17642.74
625.629	17261.82
625.824	17294.58
626.018	17702.13
626.213	16919.81
626.407	17198.33
626.602	16915.71
626.796	16977.15
626.991	16645.38
627.185	16780.54
627.38	16538.88
627.574	16422.15
627.768	16188.68
627.963	16526.6
628.157	16215.3
628.352	16182.54
628.546	15881.49
628.74	16145.67
628.935	15840.53
629.129	15887.63
629.323	15787.28
629.517	15637.78
629.712	15615.25
629.906	15711.5
630.1	15088.92
630.294	15512.85
630.489	15142.17
630.683	15609.11
630.877	15093.02
631.071	14900.51
631.265	15211.8
631.459	15017.24
631.653	14777.63
631.848	14732.58
632.042	14626.08
632.236	14495.01
632.43	14482.72
632.624	14443.81
632.818	14230.82
633.012	14163.24
633.206	14259.49
633.4	14021.93
633.594	14138.66
633.788	13917.48
633.982	14191.91
634.176	13997.35
634.369	13743.41
634.563	13677.87
634.757	13643.06
634.951	13821.23
635.145	13573.42
635.339	13430.07
635.533	13309.24
635.726	13339.96
635.92	12870.97
636.114	13165.88
636.308	13045.05
636.501	13002.04
636.695	13010.23
636.889	13030.71
637.083	12662.08
637.276	12637.5
637.47	12686.65
637.664	12625.22
637.857	12371.27
638.051	12676.41
638.244	12492.1
638.438	12289.35
638.632	12170.57
638.825	12365.12
639.019	12285.25
639.212	12158.28
639.406	12096.84
639.599	12021.06
639.793	12006.73
639.986	11910.47
640.18	11720.01
640.373	11662.67
640.567	11668.81
640.76	11689.29
640.954	11480.4
641.147	11187.54
641.34	11398.48
641.534	11408.72
641.727	11566.42
641.92	11339.09
642.114	11199.83
642.307	11214.16
642.5	11175.25
642.694	10773.85
642.887	10820.95
643.08	10929.5
643.273	10962.26
643.467	10892.63
643.66	10708.32
643.853	10620.25
644.046	10519.9
644.239	10458.46
644.432	10419.55
644.626	10323.3
644.819	10218.85
645.012	10431.84
645.205	10112.36
645.398	10265.96
645.591	10159.46
645.784	10145.13
645.977	10110.31
646.17	10138.98
646.363	10177.89
646.556	9780.59
646.749	9897.32
646.942	9889.13
647.135	9551.21
647.328	9876.84
647.521	9694.57
647.714	9516.4
647.907	9751.92
648.099	9434.48
648.292	9549.17
648.485	9512.3
648.678	9274.74
648.871	9327.99
649.064	9117.04
649.256	9487.73
649.449	9155.96
649.642	8930.68
649.835	9104.76
650.027	9004.41
650.22	8969.59
650.413	8807.8
650.605	8959.35
650.798	8775.03
650.991	8664.44
651.183	8824.19
651.376	8711.55
651.568	8717.69
651.761	8545.66
651.954	8654.2
652.146	8578.43
652.339	8428.93
652.531	8521.09
652.724	8392.06
652.916	8217.99
653.109	8304
653.301	8383.87
653.494	8097.16
653.686	8189.32
653.879	8043.91
654.071	8082.82
654.263	7816.58
654.456	8299.91
654.648	8125.83
654.84	7929.22
655.033	8009.09
655.225	8103.3
655.417	7798.15
655.61	7849.35
655.802	7828.87
655.994	7617.93
656.186	7751.05
656.379	7646.6
656.571	7519.63
656.763	7382.42
656.955	7595.4
657.148	7421.33
657.34	7196.05
657.532	7361.94
657.724	7253.39
657.916	7443.85
658.108	7359.89
658.3	7230.87
658.492	7169.43
658.684	7161.23
658.876	7093.65
659.068	7071.12
659.26	7030.16
659.452	7038.36
659.644	6950.29
659.836	6954.39
660.028	6964.63
660.22	6696.35
660.412	6851.99
660.604	6727.07
660.796	6780.31
660.988	6593.95
661.18	6720.92
661.372	6538.65
661.563	6622.62
661.755	6636.95
661.947	6567.32
662.139	6694.3
662.331	6405.53
662.522	6331.81
662.714	6548.89
662.906	6473.12
663.097	6262.18
663.289	6245.79
663.481	6239.65
663.673	6337.95
663.864	6231.46
664.056	6208.93
664.247	6180.26
664.439	6137.25
664.631	6157.73
664.822	5975.46
665.014	6327.71
665.205	6079.91
665.397	6090.15
665.588	6049.19
665.78	5914.02
665.971	5825.96
666.163	5891.49
666.354	5891.49
666.546	5813.67
666.737	5633.45
666.929	5723.56
667.12	5748.14
667.311	5731.75
667.503	5653.93
667.694	5623.21
667.885	5602.73
668.077	5555.63
668.268	5539.24
668.459	5557.68
668.651	5526.96
668.842	5719.46
669.033	5442.99
669.224	5436.85
669.416	5356.97
669.607	5393.84
669.798	5301.68
669.989	5475.76
670.18	5305.78
670.371	5313.97
670.563	5432.75
670.754	5260.72
670.945	5023.16
671.136	5406.13
671.327	5215.66
671.518	5084.59
671.709	5219.76
671.9	5219.76
672.091	5121.46
672.282	5178.8
672.473	5074.35
672.664	5260.72
672.855	5152.18
673.046	5064.11
673.237	5158.32
673.428	5010.87
673.619	5160.37
673.809	4920.76
674	5043.64
674.191	4947.38
674.382	4824.5
674.573	4982.2
674.764	4855.22
674.954	4910.52
675.145	5002.68
675.336	4689.34
675.527	4793.78
675.717	4785.59
675.908	4941.24
676.099	4765.11
676.289	4761.02
676.48	4758.97
676.671	4699.58
676.861	4675
677.052	4599.23
677.243	4685.24
677.433	4697.53
677.624	4697.53
677.814	4607.42
678.005	4709.82
678.195	4664.76
678.386	4709.82
678.576	4498.88
678.767	4744.63
678.957	4515.26
679.148	4709.82
679.338	4646.33
679.529	4611.51
679.719	4615.61
679.909	4654.52
680.1	4394.43
680.29	4543.93
680.481	4451.77
680.671	4599.23
680.861	4511.16
681.052	4488.64
681.242	4517.31
681.432	4502.97
681.622	4435.39
681.813	4226.5
682.003	4273.6
682.193	4330.94
682.383	4367.81
682.573	4363.71
682.764	4320.7
682.954	4267.45
683.144	4380.09
683.334	4249.02
683.524	4402.62
683.714	4246.98
683.904	4171.2
684.094	4337.09
684.284	4240.83
684.474	4326.85
684.664	4193.73
684.854	4242.88
685.044	4298.17
685.234	3902.92
685.424	4181.44
685.614	4181.44
685.804	4203.97
685.994	4054.47
686.184	4251.07
686.374	4056.51
686.564	4064.71
686.753	4081.09
686.943	3941.83
687.133	4029.89
687.323	3909.06
687.513	3978.69
687.702	4011.46
687.892	3958.21
688.082	3923.4
688.272	4042.18
688.461	4040.13
688.651	3988.93
688.841	3786.18
689.03	3892.68
689.22	3943.88
689.41	3880.39
689.599	3872.2
689.789	3780.04
689.979	3786.18
690.168	3843.53
690.358	3818.95
690.547	3712.46
690.737	3673.54
690.926	3872.2
691.116	3689.93
691.305	3812.81
691.495	3640.78
691.684	3681.74
691.874	3741.13
692.063	3605.96
692.252	3771.85
692.442	3667.4
692.631	3419.6
692.82	3511.75
693.01	3544.52
693.199	3501.51
693.388	3681.74
693.578	3452.36
693.767	3499.47
693.956	3573.19
694.146	3489.23
694.335	3505.61
694.524	3435.98
694.713	3433.93
694.902	3442.12
695.092	3323.34
695.281	3401.16
695.47	3366.35
695.659	3401.16
695.848	3466.7
696.037	3163.6
696.226	3343.82
696.415	3286.48
696.604	3384.78
696.793	3421.64
696.982	3337.68
697.171	3288.53
697.36	3319.25
697.549	3296.72
697.738	3270.09
697.927	3251.66
698.116	3175.89
698.305	3149.26
698.494	3167.7
698.683	3202.51
698.872	3237.33
699.061	3130.83
699.25	3161.55
699.438	3255.76
699.627	3220.94
699.816	3212.75
700.005	3188.18
700.193	3241.42
700.382	3134.93
700.571	3159.5
700.76	3116.5
700.948	3179.98
701.137	3169.74
701.326	3200.46
701.514	3003.86
701.703	3050.96
701.892	3055.06
702.08	2987.47
702.269	3173.84
702.457	2942.42
702.646	2999.76
702.834	3114.45
703.023	3046.87
703.212	3018.19
703.4	3065.3
703.589	2926.04
703.777	2987.47
703.965	3067.35
704.154	3024.34
704.342	3028.43
704.531	3016.15
704.719	2952.66
704.907	3038.67
705.096	2903.51
705.284	2948.56
705.472	2952.66
705.661	2958.8
705.849	2903.51
706.037	3085.78
706.226	3057.11
706.414	3104.21
706.602	2811.35
706.79	2819.54
706.979	2883.03
707.167	2840.02
707.355	2930.13
707.543	2833.88
707.731	2864.6
707.919	2946.52
708.107	2899.41
708.296	2868.69
708.484	2903.51
708.672	2866.64
708.86	2819.54
709.048	2837.97
709.236	2821.59
709.424	2835.92
709.612	2780.63
709.8	2868.69
709.988	2821.59
710.176	2885.08
710.364	2809.3
710.551	2852.31
710.739	2778.58
710.927	2905.56
711.115	2794.97
711.303	2725.33
711.491	2788.82
711.679	2766.29
711.866	2864.6
712.054	2758.1
712.242	2706.9
712.43	2815.45
712.617	2706.9
712.805	2684.38
712.993	2674.14
713.181	2641.37
713.368	2862.55
713.556	2698.71
713.744	2622.94
713.931	2835.92
714.119	2733.53
714.306	2704.85
714.494	2651.61
714.682	2651.61
714.869	2639.32
715.057	2719.19
715.244	2543.07
715.432	2622.94
715.619	2698.71
715.807	2618.84
715.994	2633.18
716.182	2565.59
716.369	2614.74
716.556	2682.33
716.744	2680.28
716.931	2577.88
717.119	2600.41
717.306	2639.32
717.493	2463.19
717.681	2569.69
717.868	2565.59
718.055	2524.63
718.242	2536.92
718.43	2471.39
718.617	2530.78
718.804	2631.13
718.991	2528.73
719.179	2584.02
719.366	2567.64
719.553	2524.63
719.74	2469.34
719.927	2457.05
720.114	2516.44
720.301	2518.49
720.488	2584.02
720.676	2516.44
720.863	2426.33
721.05	2549.21
721.237	2418.14
721.424	2467.29
721.611	2491.87
721.798	2479.58
721.985	2508.25
722.172	2461.15
722.358	2532.83
722.545	2434.52
722.732	2442.71
722.919	2471.39
723.106	2418.14
723.293	2414.04
723.48	2385.37
723.667	2465.24
723.853	2502.11
724.04	2434.52
724.227	2473.43
724.414	2368.99
724.6	2391.52
724.787	2475.48
724.974	2426.33
725.161	2282.97
725.347	2272.73
725.534	2330.08
725.72	2309.6
725.907	2426.33
726.094	2420.19
726.28	2399.71
726.467	2256.35
726.653	2336.22
726.84	2422.24
727.027	2414.04
727.213	2246.11
727.4	2354.65
727.586	2330.08
727.773	2491.87
727.959	2412
728.145	2299.36
728.332	2319.84
728.518	2276.83
728.705	2461.15
728.891	2274.78
729.077	2424.28
729.264	2371.04
729.45	2276.83
729.636	2282.97
729.823	2293.21
730.009	2352.6
730.195	2305.5
730.382	2270.69
730.568	2262.49
730.754	2254.3
730.94	2256.35
731.126	2334.17
731.313	2321.88
731.499	2242.01
731.685	2270.69
731.871	2264.54
732.057	2205.15
732.243	2362.84
732.429	2315.74
732.615	2340.32
732.801	2282.97
732.987	2264.54
733.173	2166.24
733.359	2153.95
733.545	2246.11
733.731	2149.86
733.917	2278.88
734.103	2346.46
734.289	2295.26
734.475	2207.2
734.661	2174.43
734.847	2215.39
735.033	2242.01
735.219	2127.33
735.404	2242.01
735.59	2289.12
735.776	2137.57
735.962	2217.44
736.148	2223.58
736.333	2158.05
736.519	2205.15
736.705	2123.23
736.89	2196.96
737.076	2149.86
737.262	2131.42
737.447	2229.73
737.633	2049.5
737.819	2139.62
738.004	2164.19
738.19	2106.85
738.375	2250.21
738.561	2188.77
738.747	2176.48
738.932	2164.19
739.118	2139.62
739.303	2057.7
739.489	2074.08
739.674	2059.74
739.859	2082.27
740.045	2008.55
740.23	2131.42
740.416	2067.94
740.601	2139.62
740.786	2096.61
740.972	2045.41
741.157	1926.63
741.342	2047.46
741.528	1961.44
741.713	1979.87
741.898	2024.93
742.084	1945.06
742.269	1910.24
742.454	1973.73
742.639	1951.2
742.824	1959.39
743.01	2045.41
743.195	2000.35
743.38	1875.43
743.565	1840.61
743.75	1969.63
743.935	1945.06
744.12	2029.03
744.305	1928.67
744.49	1904.1
744.675	1875.43
744.86	1791.46
745.045	1867.24
745.23	1846.76
745.415	1885.67
745.6	1912.29
745.785	1748.45
745.97	1893.86
746.155	1861.09
746.34	1830.37
746.525	1699.3
746.71	1697.25
746.895	1748.45
747.079	1873.38
747.264	1797.6
747.449	1746.41
747.634	1721.83
747.819	1656.29
748.003	1598.95
748.188	1660.39
748.373	1736.17
748.557	1727.97
748.742	1650.15
748.927	1631.72
749.111	1598.95
749.296	1560.04
749.481	1572.33
749.665	1639.91
749.85	1648.1
750.034	1570.28
750.219	1533.42
750.404	1525.22
750.588	1549.8
750.773	1484.27
750.957	1652.2
751.141	1517.03
751.326	1603.05
751.51	1455.59
751.695	1375.72
751.879	1398.25
752.064	1459.69
752.248	1557.99
752.432	1461.74
752.617	1396.2
752.801	1394.15
752.985	1510.89
753.17	1410.54
753.354	1510.89
753.538	1367.53
753.722	1375.72
753.907	1308.14
754.091	1355.24
754.275	1428.97
754.459	1361.39
754.643	1314.28
754.828	1306.09
755.012	1357.29
755.196	1234.41
755.38	1299.95
755.564	1226.22
755.748	1402.35
755.932	1275.37
756.116	1289.71
756.3	1250.8
756.484	1250.8
756.668	1168.88
756.852	1218.03
757.036	1240.56
757.22	1172.97
757.404	1246.7
757.588	1252.84
757.772	1191.41
757.956	1201.65
758.14	1177.07
758.323	1111.54
758.507	1170.93
758.691	1101.3
758.875	1060.34
759.059	1172.97
759.242	1191.41
759.426	1046
759.61	1132.01
759.794	1054.19
759.977	1099.25
760.161	1103.34
760.345	1103.34
760.528	1076.72
760.712	1021.42
760.895	992.75
761.079	1093.1
761.263	1035.76
761.446	1070.58
761.63	1019.38
761.813	1046
761.997	902.64
762.18	984.56
762.364	976.37
762.547	996.85
762.731	1002.99
762.914	1156.59
763.098	962.03
763.281	945.65
763.464	839.16
763.648	896.5
763.831	931.31
764.015	853.49
764.198	935.41
764.381	1033.71
764.564	1035.76
764.748	867.83
764.931	949.75
765.114	941.55
765.297	904.69
765.481	812.53
765.664	880.11
765.847	853.49
766.03	890.35
766.213	863.73
766.397	951.79
766.58	806.39
766.763	861.68
766.946	937.46
767.129	845.3
767.312	892.4
767.495	878.07
767.678	814.58
767.861	886.26
768.044	910.83
768.227	771.57
768.41	849.4
768.593	857.59
768.776	873.97
768.959	837.11
769.142	824.82
769.324	759.28
769.507	824.82
769.69	779.76
769.873	820.72
770.056	886.26
770.239	724.47
770.421	816.63
770.604	790
770.787	755.19
770.97	751.09
771.152	790
771.335	802.29
771.518	747
771.7	755.19
771.883	792.05
772.066	771.57
772.248	779.76
772.431	796.15
772.613	796.15
772.796	703.99
772.978	710.13
773.161	771.57
773.343	693.75
773.526	744.95
773.708	710.13
773.891	691.7
774.073	665.08
774.256	632.31
774.438	632.31
774.621	724.47
774.803	781.81
774.985	605.69
775.168	632.31
775.35	673.27
775.532	687.61
775.715	685.56
775.897	755.19
776.079	650.74
776.261	601.59
776.444	607.73
776.626	714.23
776.808	497.14
776.99	620.02
777.173	587.26
777.355	642.55
777.537	611.83
777.719	583.16
777.901	552.44
778.083	589.3
778.265	568.82
778.447	577.02
778.629	591.35
778.811	591.35
778.993	552.44
779.175	544.25
779.357	534.01
779.539	497.14
779.721	562.68
779.903	599.54
780.085	505.34
780.267	570.87
780.449	527.86
780.631	527.86
780.812	564.73
780.994	501.24
781.176	525.82
781.358	484.86
781.54	538.1
781.721	574.97
781.903	452.09
782.085	447.99
782.267	458.23
782.448	394.75
782.63	443.9
782.812	519.67
782.993	462.33
783.175	486.9
783.357	437.75
783.538	531.96
783.72	386.55
783.901	523.77
784.083	431.61
784.264	437.75
784.446	368.12
784.627	427.51
784.809	472.57
784.99	452.09
785.172	493.05
785.353	435.71
785.535	452.09
785.716	429.56
785.897	396.79
786.079	474.62
786.26	476.66
786.441	378.36
786.623	382.46
786.804	306.68
786.985	378.36
787.167	462.33
787.348	460.28
787.529	441.85
787.71	380.41
787.891	349.69
788.073	304.64
788.254	390.65
788.435	439.8
788.616	339.45
788.797	347.64
788.978	411.13
789.159	288.25
789.34	364.03
789.522	404.99
789.703	407.03
789.884	353.79
790.065	329.21
790.246	390.65
790.427	314.88
790.607	341.5
790.788	376.31
790.969	337.4
791.15	298.49
791.331	345.59
791.512	273.92
791.693	273.92
791.874	335.35
792.054	413.18
792.235	267.77
792.416	290.3
792.597	314.88
792.778	302.59
792.958	304.64
793.139	282.11
793.32	349.69
793.5	304.64
793.681	314.88
793.862	308.73
794.042	265.72
794.223	239.1
794.404	288.25
794.584	232.96
794.765	290.3
794.945	230.91
795.126	288.25
795.306	325.12
795.487	269.82
795.667	269.82
795.848	247.29
796.028	226.81
796.209	249.34
796.389	222.72
796.57	267.77
796.75	235
796.93	265.72
797.111	257.53
797.291	304.64
797.471	173.57
797.652	239.1
797.832	208.38
798.012	316.92
798.192	329.21
798.373	200.19
798.553	239.1
798.733	239.1
798.913	222.72
799.093	216.57
799.274	216.57
799.454	167.42
799.634	255.48
799.814	206.33
799.994	216.57
800.174	202.24
800.354	189.95
800.534	226.81
800.714	216.57
800.894	292.35
801.074	204.28
801.254	216.57
801.434	218.62
801.614	261.63
801.794	181.76
801.974	755.19
802.154	220.67
802.334	202.24
802.514	175.61
802.693	230.91
802.873	210.43
803.053	148.99
803.233	235
803.413	273.92
803.592	181.76
803.772	114.17
803.952	204.28
804.131	210.43
804.311	224.76
804.491	284.16
804.67	108.03
804.85	159.23
805.03	173.57
805.209	263.68
805.389	101.89
805.568	189.95
805.748	140.8
805.928	161.28
806.107	261.63
806.287	134.65
806.466	169.47
806.646	226.81
806.825	101.89
807.004	136.7
807.184	112.13
807.363	239.1
807.543	192
807.722	124.41
807.901	251.39
808.081	222.72
808.26	122.37
808.439	126.46
808.619	120.32
808.798	177.66
808.977	202.24
809.156	192
809.336	124.41
809.515	198.14
809.694	230.91
809.873	140.8
810.052	140.8
810.231	226.81
810.411	103.93
810.59	200.19
810.769	198.14
810.948	148.99
811.127	132.61
811.306	105.98
811.485	124.41
811.664	183.81
811.843	173.57
812.022	169.47
812.201	138.75
812.38	171.52
812.559	110.08
812.737	206.33
812.916	69.12
813.095	48.64
813.274	122.37
813.453	161.28
813.632	122.37
813.811	224.76
813.989	142.85
814.168	151.04
814.347	124.41
814.526	157.18
814.704	161.28
814.883	192
815.062	54.78
815.24	95.74
815.419	73.21
815.598	142.85
815.776	93.69
815.955	132.61
816.133	56.83
816.312	79.36
816.49	128.51
816.669	118.27
816.847	75.26
817.026	148.99
817.204	108.03
817.383	77.31
817.561	114.17
817.74	126.46
817.918	75.26
818.097	48.64
818.275	71.17
818.453	130.56
818.632	116.22
818.81	108.03
818.988	60.93
819.167	122.37
819.345	91.65
819.523	130.56
819.701	77.31
819.879	130.56
820.058	87.55
820.236	167.42
820.414	26.11
820.592	108.03
820.77	165.37
820.948	124.41
821.127	124.41
821.305	134.65
821.483	62.98
821.661	148.99
821.839	99.84
822.017	77.31
822.195	87.55
822.373	108.03
822.551	112.13
822.729	144.89
822.907	67.07
823.085	101.89
823.262	132.61
823.44	87.55
823.618	75.26
823.796	36.35
823.974	134.65
824.152	34.3
824.329	52.74
824.507	36.35
824.685	142.85
824.863	134.65
825.04	17.92
825.218	124.41
825.396	110.08
825.574	48.64
825.751	95.74
825.929	42.5
826.107	19.97
826.284	50.69
826.462	58.88
826.639	58.88
826.817	17.92
826.994	62.98
827.172	116.22
827.349	83.45
827.527	108.03
827.704	46.59
827.882	71.17
828.059	71.17
828.237	89.6
828.414	122.37
828.591	19.97
828.769	67.07
828.946	19.97
829.124	144.89
829.301	-14.85
829.478	19.97
829.655	124.41
829.833	93.69
830.01	38.4
830.187	126.46
830.364	65.02
830.542	87.55
830.719	77.31
830.896	24.06
831.073	91.65
831.25	83.45
831.427	52.74
831.604	85.5
831.782	83.45
831.959	89.6
832.136	87.55
832.313	69.12
832.49	28.16
832.667	118.27
832.844	13.82
833.021	73.21
833.198	132.61
833.374	85.5
833.551	44.54
833.728	58.88
833.905	44.54
834.082	22.02
834.259	42.5
834.436	87.55
834.612	28.16
834.789	69.12
834.966	44.54
835.143	69.12
835.319	5.63
835.496	42.5
835.673	50.69
835.85	46.59
836.026	99.84
836.203	60.93
836.38	17.92
836.556	79.36
836.733	40.45
836.909	114.17
837.086	101.89
837.262	26.11
837.439	110.08
837.616	50.69
837.792	13.82
837.968	91.65
838.145	42.5
838.321	42.5
838.498	9.73
838.674	30.21
838.851	132.61
839.027	50.69
839.203	42.5
839.38	11.78
839.556	42.5
839.732	67.07
839.909	58.88
840.085	60.93
840.261	11.78
840.437	9.73
840.614	26.11
840.79	69.12
840.966	11.78
841.142	52.74
841.318	50.69
841.494	67.07
841.671	9.73
841.847	83.45
842.023	1.54
842.199	26.11
842.375	69.12
842.551	36.35
842.727	30.21
842.903	56.83
843.079	-6.66
843.255	118.27
843.431	3.58
843.607	44.54
843.783	-16.9
843.959	67.07
844.134	46.59
844.31	17.92
844.486	42.5
844.662	50.69
844.838	-45.57
845.013	30.21
845.189	95.74
845.365	77.31
845.541	62.98
845.716	32.26
845.892	101.89
846.068	9.73
846.244	-59.9
846.419	17.92
846.595	42.5
846.77	85.5
846.946	1.54
847.122	85.5
847.297	67.07
847.473	52.74
847.648	-14.85
847.824	69.12
847.999	7.68
848.175	19.97
848.35	1.54
848.526	3.58
848.701	69.12
848.876	97.79
849.052	-16.9
849.227	38.4
849.403	60.93
849.578	28.16
849.753	9.73
849.929	60.93
850.104	-18.94
850.279	-14.85
850.454	36.35
850.63	17.92
850.805	28.16
850.98	79.36
851.155	5.63
851.33	34.3
851.505	-20.99
851.681	83.45
851.856	5.63
852.031	52.74
852.206	17.92
852.381	26.11
852.556	-6.66
852.731	42.5
852.906	108.03
853.081	-2.56
853.256	26.11
853.431	52.74
853.606	-39.42
853.781	-20.99
853.956	-39.42
854.131	28.16
854.305	36.35
854.48	9.73
854.655	-6.66
854.83	9.73
855.005	1.54
855.18	-29.18
855.354	-14.85
855.529	-8.7
855.704	13.82
855.879	-8.7
856.053	-10.75
856.228	1.54
856.403	62.98
856.577	52.74
856.752	26.11
856.926	17.92
857.101	19.97
857.276	-31.23
857.45	46.59
857.625	58.88
857.799	-29.18
857.974	69.12
858.148	9.73
858.323	-4.61
858.497	40.45
858.672	52.74
858.846	22.02
859.02	28.16
859.195	-47.62
859.369	-8.7
859.543	-20.99
859.718	9.73
859.892	50.69
860.066	-68.09
860.241	-2.56
860.415	-55.81
860.589	26.11
860.763	17.92
860.938	32.26
861.112	5.63
861.286	52.74
861.46	83.45
861.634	54.78
861.808	26.11
861.982	30.21
862.157	5.63
862.331	-14.85
862.505	-12.8
862.679	-29.18
862.853	-16.9
863.027	46.59
863.201	30.21
863.375	-37.38
863.549	40.45
863.722	79.36
863.896	112.13
864.07	17.92
864.244	60.93
864.418	-23.04
864.592	-20.99
864.766	5.63
864.939	-6.66
865.113	85.5
865.287	38.4
865.461	-31.23
865.634	77.31
865.808	-88.57
865.982	-4.61
866.156	22.02
866.329	-14.85
866.503	-64
866.676	13.82
866.85	42.5
867.024	-14.85
867.197	62.98
867.371	-10.75
867.544	-12.8
867.718	-53.76
867.891	69.12
868.065	-61.95
868.238	40.45
868.412	87.55
868.585	-66.05
868.759	13.82
868.932	-12.8
869.105	-0.51
869.279	-31.23
869.452	26.11
869.625	-8.7
869.799	50.69
869.972	-39.42
870.145	-39.42
870.319	30.21
870.492	73.21
870.665	26.11
870.838	-23.04
871.011	-2.56
871.185	-39.42
871.358	79.36
871.531	3.58
871.704	42.5
871.877	40.45
872.05	-64
872.223	28.16
872.396	89.6
872.569	101.89
872.742	13.82
872.915	46.59
873.088	26.11
873.261	-6.66
873.434	-61.95
873.607	69.12
873.78	52.74
873.953	17.92
874.126	22.02
874.299	-6.66
874.471	17.92
874.644	-43.52
874.817	9.73
874.99	40.45
875.163	-31.23
875.335	69.12
875.508	30.21
875.681	46.59
875.853	48.64
876.026	-25.09
876.199	9.73
876.371	-23.04
876.544	-14.85
876.717	-45.57
876.889	13.82
877.062	38.4
877.234	-39.42
877.407	22.02
877.579	28.16
877.752	77.31
877.924	42.5
878.097	62.98
878.269	-4.61
878.442	19.97
878.614	-33.28
878.786	26.11
878.959	9.73
879.131	26.11
879.303	-0.51
879.476	89.6
879.648	9.73
879.82	9.73
879.993	-14.85
880.165	36.35
880.337	-8.7
880.509	-14.85
880.681	-10.75
880.854	-31.23
881.026	22.02
881.198	58.88
881.37	9.73
881.542	-31.23
881.714	50.69
881.886	-12.8
882.058	-25.09
882.23	42.5
882.402	19.97
882.574	99.84
882.746	75.26
882.918	32.26
883.09	-39.42
883.262	22.02
883.434	-43.52
883.606	-43.52
883.778	13.82
883.95	32.26
884.122	38.4
884.293	91.65
884.465	77.31
884.637	46.59
884.809	-14.85
884.98	50.69
885.152	36.35
885.324	83.45
885.496	-55.81
885.667	-2.56
885.839	-8.7
886.011	46.59
886.182	26.11
886.354	28.16
886.525	-8.7
886.697	40.45
886.869	-6.66
887.04	34.3
887.212	-23.04
887.383	13.82
887.555	13.82
887.726	26.11
887.897	-82.43
888.069	38.4
888.24	110.08
888.412	50.69
888.583	-27.14
888.754	91.65
888.926	-20.99
889.097	-64
889.268	-6.66
889.44	-6.66
889.611	-14.85
889.782	-31.23
889.953	11.78
890.125	5.63
890.296	17.92
890.467	1.54
890.638	-70.14
890.809	22.02
890.98	-35.33
891.151	36.35
891.323	112.13
891.494	-14.85
891.665	5.63
891.836	24.06
892.007	-47.62
892.178	-0.51
892.349	77.31
892.52	11.78
892.691	17.92
892.862	-37.38
893.032	-53.76
893.203	44.54
893.374	73.21
893.545	3.58
893.716	-39.42
893.887	67.07
894.057	-47.62
894.228	26.11
894.399	52.74
894.57	87.55
894.74	-47.62
894.911	7.68
895.082	-55.81
895.253	30.21
895.423	-18.94
895.594	15.87
895.764	30.21
895.935	-10.75
896.106	-14.85
896.276	52.74
896.447	67.07
896.617	26.11
896.788	58.88
896.958	-2.56
897.129	1.54
897.299	11.78
897.47	22.02
897.64	24.06
897.81	17.92
897.981	36.35
898.151	-72.19
898.322	46.59
898.492	-31.23
898.662	-14.85
898.832	-6.66
899.003	-35.33
899.173	42.5
899.343	-4.61
899.513	7.68
