Data from USB4F104151__281__14-23-27-383.txt Node

Date: Thu Mar 13 14:23:27 EDT 2025
User: louis
Spectrometer: USB4F10415
Trigger mode: 4
Integration Time (sec): 2.000000E-2
Scans to average: 1
Electric dark correction enabled: true
Nonlinearity correction enabled: false
Boxcar width: 0
XAxis mode: Wavelengths
Number of Pixels in Spectrum: 3648
>>>>>Begin Spectral Data<<<<<
178.204	-136.53
178.424	-136.53
178.644	-136.53
178.864	-120.15
179.084	-118.1
179.304	-105.81
179.524	-32.08
179.744	-13.65
179.964	8.87
180.184	10.92
180.404	41.64
180.624	17.07
180.844	25.26
181.064	-1.37
181.283	35.5
181.503	-3.41
181.723	17.07
181.943	-11.61
182.163	72.36
182.383	29.35
182.602	-9.56
182.822	62.12
183.042	62.12
183.262	8.87
183.482	-56.66
183.701	-38.23
183.921	66.22
184.141	6.83
184.361	60.07
184.58	41.64
184.8	37.55
185.02	10.92
185.239	37.55
185.459	-17.75
185.679	51.88
185.898	49.83
186.118	41.64
186.338	129.7
186.557	68.27
186.777	-13.65
186.997	12.97
187.216	2.73
187.436	31.4
187.655	58.03
187.875	25.26
188.095	19.11
188.314	41.64
188.534	17.07
188.753	107.18
188.973	19.11
189.192	10.92
189.412	6.83
189.631	33.45
189.851	25.26
190.07	58.03
190.29	58.03
190.509	33.45
190.729	-27.99
190.948	49.83
191.168	164.52
191.387	70.31
191.607	-15.7
191.826	-5.46
192.045	37.55
192.265	66.22
192.484	51.88
192.704	19.11
192.923	0.68
193.142	107.18
193.362	-32.08
193.581	17.07
193.8	45.74
194.02	35.5
194.239	33.45
194.458	107.18
194.678	66.22
194.897	-5.46
195.116	25.26
195.335	53.93
195.555	47.79
195.774	10.92
195.993	43.69
196.212	86.7
196.432	53.93
196.651	33.45
196.87	78.51
197.089	90.79
197.308	94.89
197.528	80.55
197.747	-46.42
197.966	-13.65
198.185	74.41
198.404	78.51
198.623	8.87
198.842	115.37
199.062	19.11
199.281	119.46
199.5	74.41
199.719	39.59
199.938	70.31
200.157	41.64
200.376	-19.8
200.595	58.03
200.814	8.87
201.033	17.07
201.252	66.22
201.471	43.69
201.69	41.64
201.909	84.65
202.128	119.46
202.347	49.83
202.566	12.97
202.785	-3.41
203.004	80.55
203.223	41.64
203.442	45.74
203.661	43.69
203.879	119.46
204.098	15.02
204.317	-15.7
204.536	60.07
204.755	17.07
204.974	43.69
205.193	10.92
205.411	152.23
205.63	35.5
205.849	49.83
206.068	53.93
206.287	17.07
206.505	41.64
206.724	10.92
206.943	-7.51
207.162	41.64
207.381	0.68
207.599	43.69
207.818	78.51
208.037	70.31
208.255	21.16
208.474	43.69
208.693	107.18
208.911	107.18
209.13	80.55
209.349	84.65
209.567	80.55
209.786	51.88
210.005	25.26
210.223	39.59
210.442	8.87
210.661	25.26
210.879	-5.46
211.098	2.73
211.316	55.98
211.535	-27.99
211.753	51.88
211.972	29.35
212.191	82.6
212.409	-13.65
212.628	23.21
212.846	25.26
213.065	94.89
213.283	58.03
213.502	29.35
213.72	21.16
213.938	41.64
214.157	58.03
214.375	39.59
214.594	-48.47
214.812	35.5
215.031	68.27
215.249	76.46
215.467	-13.65
215.686	23.21
215.904	119.46
216.122	78.51
216.341	33.45
216.559	-19.8
216.778	8.87
216.996	96.94
217.214	-7.51
217.432	66.22
217.651	10.92
217.869	45.74
218.087	49.83
218.306	17.07
218.524	10.92
218.742	43.69
218.96	76.46
219.179	17.07
219.397	41.64
219.615	82.6
219.833	19.11
220.051	0.68
220.27	19.11
220.488	43.69
220.706	62.12
220.924	41.64
221.142	94.89
221.36	74.41
221.578	76.46
221.796	23.21
222.015	35.5
222.233	49.83
222.451	139.94
222.669	19.11
222.887	60.07
223.105	53.93
223.323	90.79
223.541	4.78
223.759	8.87
223.977	25.26
224.195	66.22
224.413	92.84
224.631	49.83
224.849	-5.46
225.067	68.27
225.285	82.6
225.503	115.37
225.721	35.5
225.939	-3.41
226.157	41.64
226.375	123.56
226.592	23.21
226.81	19.11
227.028	109.22
227.246	182.95
227.464	17.07
227.682	49.83
227.9	66.22
228.117	58.03
228.335	60.07
228.553	-7.51
228.771	74.41
228.989	8.87
229.206	-5.46
229.424	-25.94
229.642	-15.7
229.86	-15.7
230.077	33.45
230.295	-9.56
230.513	55.98
230.731	111.27
230.948	53.93
231.166	92.84
231.384	94.89
231.601	82.6
231.819	98.99
232.037	-21.85
232.254	-5.46
232.472	58.03
232.689	49.83
232.907	107.18
233.125	107.18
233.342	17.07
233.56	88.75
233.777	58.03
233.995	92.84
234.213	82.6
234.43	37.55
234.648	51.88
234.865	27.31
235.083	25.26
235.3	103.08
235.518	10.92
235.735	49.83
235.953	45.74
236.17	0.68
236.388	37.55
236.605	0.68
236.822	55.98
237.04	0.68
237.257	39.59
237.475	-11.61
237.692	76.46
237.909	-46.42
238.127	19.11
238.344	12.97
238.562	43.69
238.779	-23.89
238.996	43.69
239.214	25.26
239.431	-7.51
239.648	80.55
239.865	51.88
240.083	49.83
240.3	74.41
240.517	39.59
240.735	33.45
240.952	51.88
241.169	109.22
241.386	115.37
241.603	113.32
241.821	6.83
242.038	21.16
242.255	98.99
242.472	8.87
242.689	72.36
242.907	74.41
243.124	62.12
243.341	37.55
243.558	-30.04
243.775	-7.51
243.992	-56.66
244.209	-7.51
244.426	19.11
244.643	53.93
244.86	86.7
245.078	84.65
245.295	131.75
245.512	37.55
245.729	82.6
245.946	8.87
246.163	-7.51
246.38	2.73
246.597	101.03
246.814	58.03
247.031	-32.08
247.248	45.74
247.464	27.31
247.681	70.31
247.898	2.73
248.115	139.94
248.332	-3.41
248.549	66.22
248.766	146.09
248.983	92.84
249.2	66.22
249.417	-36.18
249.633	41.64
249.85	86.7
250.067	2.73
250.284	62.12
250.501	74.41
250.717	74.41
250.934	68.27
251.151	-9.56
251.368	70.31
251.585	49.83
251.801	37.55
252.018	-5.46
252.235	70.31
252.451	76.46
252.668	17.07
252.885	60.07
253.102	74.41
253.318	41.64
253.535	53.93
253.752	25.26
253.968	-15.7
254.185	17.07
254.401	-44.37
254.618	-5.46
254.835	51.88
255.051	43.69
255.268	25.26
255.484	66.22
255.701	17.07
255.917	125.61
256.134	-15.7
256.351	49.83
256.567	49.83
256.784	84.65
257	19.11
257.217	60.07
257.433	51.88
257.65	21.16
257.866	74.41
258.082	25.26
258.299	66.22
258.515	15.02
258.732	47.79
258.948	2.73
259.165	31.4
259.381	4.78
259.597	62.12
259.814	70.31
260.03	-7.51
260.246	8.87
260.463	19.11
260.679	74.41
260.895	8.87
261.112	103.08
261.328	68.27
261.544	43.69
261.761	68.27
261.977	43.69
262.193	19.11
262.409	60.07
262.626	82.6
262.842	55.98
263.058	21.16
263.274	-5.46
263.49	80.55
263.707	51.88
263.923	41.64
264.139	8.87
264.355	121.51
264.571	53.93
264.787	0.68
265.004	68.27
265.22	8.87
265.436	49.83
265.652	10.92
265.868	25.26
266.084	55.98
266.3	27.31
266.516	21.16
266.732	-15.7
266.948	-1.37
267.164	103.08
267.38	49.83
267.596	-44.37
267.812	-5.46
268.028	62.12
268.244	8.87
268.46	92.84
268.676	37.55
268.892	41.64
269.108	-7.51
269.324	8.87
269.54	-5.46
269.756	84.65
269.972	-7.51
270.188	49.83
270.403	10.92
270.619	49.83
270.835	109.22
271.051	25.26
271.267	49.83
271.483	66.22
271.698	74.41
271.914	-23.89
272.13	31.4
272.346	-7.51
272.562	10.92
272.777	129.7
272.993	6.83
273.209	31.4
273.425	98.99
273.64	-7.51
273.856	94.89
274.072	-9.56
274.287	-19.8
274.503	37.55
274.719	58.03
274.934	43.69
275.15	-9.56
275.366	45.74
275.581	-13.65
275.797	133.8
276.012	29.35
276.228	-38.23
276.444	4.78
276.659	51.88
276.875	0.68
277.09	27.31
277.306	84.65
277.521	15.02
277.737	66.22
277.952	49.83
278.168	-1.37
278.383	31.4
278.599	62.12
278.814	58.03
279.03	27.31
279.245	33.45
279.461	10.92
279.676	33.45
279.892	70.31
280.107	4.78
280.322	2.73
280.538	78.51
280.753	25.26
280.969	70.31
281.184	49.83
281.399	107.18
281.615	19.11
281.83	49.83
282.045	-42.32
282.26	-1.37
282.476	2.73
282.691	127.66
282.906	23.21
283.122	0.68
283.337	29.35
283.552	58.03
283.767	35.5
283.983	111.27
284.198	-5.46
284.413	62.12
284.628	17.07
284.843	68.27
285.058	107.18
285.274	94.89
285.489	8.87
285.704	78.51
285.919	6.83
286.134	-7.51
286.349	80.55
286.564	45.74
286.779	64.17
286.995	90.79
287.21	21.16
287.425	78.51
287.64	-38.23
287.855	84.65
288.07	17.07
288.285	92.84
288.5	82.6
288.715	78.51
288.93	-7.51
289.145	-3.41
289.36	53.93
289.575	60.07
289.79	33.45
290.004	88.75
290.219	41.64
290.434	19.11
290.649	-27.99
290.864	-11.61
291.079	-1.37
291.294	80.55
291.509	66.22
291.724	0.68
291.938	25.26
292.153	92.84
292.368	74.41
292.583	119.46
292.798	88.75
293.012	35.5
293.227	-32.08
293.442	86.7
293.657	90.79
293.871	76.46
294.086	35.5
294.301	8.87
294.516	41.64
294.73	17.07
294.945	94.89
295.16	-19.8
295.374	70.31
295.589	12.97
295.804	21.16
296.018	70.31
296.233	115.37
296.447	49.83
296.662	45.74
296.877	53.93
297.091	80.55
297.306	111.27
297.52	-25.94
297.735	45.74
297.949	70.31
298.164	96.94
298.378	84.65
298.593	10.92
298.807	-3.41
299.022	41.64
299.236	41.64
299.451	39.59
299.665	17.07
299.88	66.22
300.094	60.07
300.309	17.07
300.523	27.31
300.737	29.35
300.952	27.31
301.166	101.03
301.381	-21.85
301.595	68.27
301.809	33.45
302.024	72.36
302.238	33.45
302.452	68.27
302.667	43.69
302.881	107.18
303.095	25.26
303.309	0.68
303.524	49.83
303.738	82.6
303.952	41.64
304.166	92.84
304.381	53.93
304.595	98.99
304.809	10.92
305.023	-32.08
305.237	41.64
305.452	-11.61
305.666	55.98
305.88	58.03
306.094	29.35
306.308	41.64
306.522	78.51
306.736	41.64
306.95	-1.37
307.164	25.26
307.379	107.18
307.593	109.22
307.807	94.89
308.021	49.83
308.235	-34.13
308.449	15.02
308.663	-71
308.877	49.83
309.091	51.88
309.305	55.98
309.519	66.22
309.733	0.68
309.947	6.83
310.161	82.6
310.374	41.64
310.588	58.03
310.802	-5.46
311.016	101.03
311.23	74.41
311.444	6.83
311.658	33.45
311.872	41.64
312.085	37.55
312.299	60.07
312.513	144.04
312.727	66.22
312.941	45.74
313.154	66.22
313.368	51.88
313.582	105.13
313.796	33.45
314.009	-7.51
314.223	49.83
314.437	29.35
314.651	107.18
314.864	74.41
315.078	17.07
315.292	35.5
315.505	66.22
315.719	66.22
315.933	4.78
316.146	-5.46
316.36	68.27
316.573	72.36
316.787	21.16
317.001	107.18
317.214	35.5
317.428	60.07
317.641	-27.99
317.855	101.03
318.068	37.55
318.282	90.79
318.495	29.35
318.709	53.93
318.922	53.93
319.136	51.88
319.349	29.35
319.563	4.78
319.776	76.46
319.99	78.51
320.203	6.83
320.417	-23.89
320.63	2.73
320.843	74.41
321.057	47.79
321.27	58.03
321.483	98.99
321.697	76.46
321.91	60.07
322.124	98.99
322.337	72.36
322.55	82.6
322.763	-5.46
322.977	72.36
323.19	21.16
323.403	-13.65
323.617	76.46
323.83	98.99
324.043	-9.56
324.256	17.07
324.469	76.46
324.683	109.22
324.896	8.87
325.109	107.18
325.322	37.55
325.535	144.04
325.748	21.16
325.962	92.84
326.175	-19.8
326.388	86.7
326.601	43.69
326.814	72.36
327.027	17.07
327.24	49.83
327.453	-103.76
327.666	131.75
327.879	49.83
328.092	49.83
328.305	107.18
328.518	45.74
328.731	84.65
328.944	49.83
329.157	35.5
329.37	49.83
329.583	98.99
329.796	66.22
330.009	23.21
330.222	101.03
330.435	43.69
330.648	33.45
330.861	45.74
331.073	25.26
331.286	27.31
331.499	125.61
331.712	-19.8
331.925	27.31
332.138	107.18
332.35	90.79
332.563	39.59
332.776	41.64
332.989	-11.61
333.202	88.75
333.414	109.22
333.627	0.68
333.84	0.68
334.053	51.88
334.265	-17.75
334.478	51.88
334.691	45.74
334.903	4.78
335.116	31.4
335.329	64.17
335.541	113.32
335.754	123.56
335.966	-23.89
336.179	2.73
336.392	41.64
336.604	74.41
336.817	78.51
337.029	84.65
337.242	84.65
337.454	105.13
337.667	33.45
337.88	82.6
338.092	31.4
338.305	33.45
338.517	43.69
338.729	70.31
338.942	92.84
339.154	35.5
339.367	55.98
339.579	105.13
339.792	-15.7
340.004	-5.46
340.217	10.92
340.429	123.56
340.641	74.41
340.854	74.41
341.066	41.64
341.278	29.35
341.491	66.22
341.703	86.7
341.915	53.93
342.128	55.98
342.34	45.74
342.552	4.78
342.764	-32.08
342.977	82.6
343.189	58.03
343.401	66.22
343.613	25.26
343.826	43.69
344.038	-13.65
344.25	107.18
344.462	49.83
344.674	135.85
344.886	-5.46
345.099	53.93
345.311	25.26
345.523	53.93
345.735	-46.42
345.947	-7.51
346.159	45.74
346.371	23.21
346.583	2.73
346.795	60.07
347.007	111.27
347.219	64.17
347.431	29.35
347.643	35.5
347.855	17.07
348.067	90.79
348.279	-21.85
348.491	74.41
348.703	92.84
348.915	15.02
349.127	45.74
349.339	53.93
349.551	109.22
349.763	51.88
349.975	-15.7
350.187	78.51
350.399	51.88
350.61	-15.7
350.822	80.55
351.034	70.31
351.246	58.03
351.458	29.35
351.669	80.55
351.881	98.99
352.093	-5.46
352.305	66.22
352.517	45.74
352.728	103.08
352.94	74.41
353.152	111.27
353.363	41.64
353.575	17.07
353.787	74.41
353.999	76.46
354.21	90.79
354.422	-11.61
354.633	27.31
354.845	66.22
355.057	66.22
355.268	33.45
355.48	82.6
355.692	92.84
355.903	25.26
356.115	21.16
356.326	8.87
356.538	45.74
356.749	60.07
356.961	123.56
357.172	123.56
357.384	-19.8
357.595	66.22
357.807	-32.08
358.018	60.07
358.23	43.69
358.441	111.27
358.653	105.13
358.864	45.74
359.075	29.35
359.287	41.64
359.498	84.65
359.709	74.41
359.921	98.99
360.132	51.88
360.344	51.88
360.555	70.31
360.766	10.92
360.977	53.93
361.189	66.22
361.4	55.98
361.611	41.64
361.823	101.03
362.034	82.6
362.245	25.26
362.456	82.6
362.667	82.6
362.879	78.51
363.09	29.35
363.301	94.89
363.512	74.41
363.723	156.33
363.935	98.99
364.146	86.7
364.357	76.46
364.568	74.41
364.779	25.26
364.99	21.16
365.201	8.87
365.412	74.41
365.623	45.74
365.834	144.04
366.045	45.74
366.256	84.65
366.467	41.64
366.678	17.07
366.889	64.17
367.1	17.07
367.311	103.08
367.522	-5.46
367.733	92.84
367.944	60.07
368.155	115.37
368.366	156.33
368.577	10.92
368.788	33.45
368.999	17.07
369.209	123.56
369.42	144.04
369.631	84.65
369.842	49.83
370.053	-46.42
370.264	123.56
370.474	33.45
370.685	53.93
370.896	41.64
371.107	74.41
371.317	123.56
371.528	141.99
371.739	96.94
371.95	43.69
372.16	92.84
372.371	-40.28
372.582	68.27
372.792	96.94
373.003	-15.7
373.214	43.69
373.424	58.03
373.635	-7.51
373.846	107.18
374.056	17.07
374.267	121.51
374.477	70.31
374.688	88.75
374.898	74.41
375.109	51.88
375.319	23.21
375.53	84.65
375.74	70.31
375.951	41.64
376.161	115.37
376.372	94.89
376.582	25.26
376.793	78.51
377.003	115.37
377.214	4.78
377.424	45.74
377.635	21.16
377.845	78.51
378.055	127.66
378.266	19.11
378.476	62.12
378.686	103.08
378.897	74.41
379.107	90.79
379.317	92.84
379.528	-40.28
379.738	68.27
379.948	92.84
380.158	195.24
380.369	98.99
380.579	29.35
380.789	51.88
380.999	92.84
381.21	-5.46
381.42	60.07
381.63	29.35
381.84	78.51
382.05	25.26
382.261	58.03
382.471	35.5
382.681	90.79
382.891	133.8
383.101	60.07
383.311	37.55
383.521	-3.41
383.731	60.07
383.941	92.84
384.151	90.79
384.361	15.02
384.571	25.26
384.781	41.64
384.991	115.37
385.201	43.69
385.411	76.46
385.621	41.64
385.831	74.41
386.041	92.84
386.251	45.74
386.461	45.74
386.671	68.27
386.881	80.55
387.091	25.26
387.301	123.56
387.511	76.46
387.72	27.31
387.93	101.03
388.14	43.69
388.35	25.26
388.56	131.75
388.769	115.37
388.979	33.45
389.189	25.26
389.399	74.41
389.609	103.08
389.818	64.17
390.028	86.7
390.238	27.31
390.447	49.83
390.657	125.61
390.867	107.18
391.076	64.17
391.286	-32.08
391.496	129.7
391.705	60.07
391.915	137.9
392.125	152.23
392.334	90.79
392.544	33.45
392.753	133.8
392.963	53.93
393.172	123.56
393.382	98.99
393.591	144.04
393.801	107.18
394.01	117.42
394.22	66.22
394.429	105.13
394.639	123.56
394.848	107.18
395.058	117.42
395.267	146.09
395.477	115.37
395.686	144.04
395.895	158.38
396.105	107.18
396.314	123.56
396.524	41.64
396.733	121.51
396.942	148.14
397.152	98.99
397.361	117.42
397.57	146.09
397.78	111.27
397.989	109.22
398.198	176.81
398.407	74.41
398.617	111.27
398.826	86.7
399.035	60.07
399.244	109.22
399.453	121.51
399.663	139.94
399.872	131.75
400.081	82.6
400.29	115.37
400.499	41.64
400.708	148.14
400.917	141.99
401.127	115.37
401.336	107.18
401.545	260.77
401.754	86.7
401.963	164.52
402.172	158.38
402.381	168.62
402.59	166.57
402.799	234.15
403.008	66.22
403.217	228.01
403.426	201.38
403.635	156.33
403.844	148.14
404.053	174.76
404.262	215.72
404.471	234.15
404.68	207.53
404.888	207.53
405.097	90.79
405.306	238.25
405.515	168.62
405.724	246.44
405.933	217.77
406.142	182.95
406.35	205.48
406.559	185
406.768	232.1
406.977	260.77
407.185	203.43
407.394	271.01
407.603	170.66
407.812	318.12
408.02	309.93
408.229	244.39
408.438	262.82
408.646	230.06
408.855	246.44
409.064	336.55
409.272	373.41
409.481	357.03
409.69	397.99
409.898	354.98
410.107	371.36
410.315	377.51
410.524	322.21
410.733	434.85
410.941	336.55
411.15	514.72
411.358	510.63
411.567	479.91
411.775	484
411.984	461.48
412.192	518.82
412.401	492.2
412.609	524.96
412.818	600.74
413.026	582.31
413.234	565.92
413.443	570.02
413.651	629.41
413.86	627.36
414.068	696.99
414.276	707.23
414.485	733.86
414.693	758.43
414.901	805.53
415.11	803.49
415.318	762.53
415.526	895.64
415.734	889.5
415.943	1012.38
416.151	934.56
416.359	975.52
416.567	991.9
416.776	1069.72
416.984	1073.82
417.192	1182.36
417.4	1073.82
417.608	1125.02
417.817	1217.18
418.025	1192.6
418.233	1340.05
418.441	1280.66
418.649	1387.16
418.857	1421.97
419.065	1462.93
419.273	1366.68
419.481	1493.65
419.689	1630.87
419.897	1647.25
420.105	1634.96
420.313	1714.83
420.521	1868.43
420.729	1876.62
420.937	1933.97
421.145	1974.92
421.353	2099.85
421.561	2220.68
421.769	2282.12
421.977	2294.41
422.185	2232.97
422.393	2417.29
422.601	2615.94
422.809	2515.59
423.017	2699.91
423.224	2767.49
423.432	2736.77
423.64	2830.98
423.848	3166.84
424.056	3023.48
424.263	3246.71
424.471	3359.35
424.679	3220.09
424.887	3564.15
425.094	3555.96
425.302	3639.92
425.51	3777.14
425.718	3875.44
425.925	3820.14
426.133	4002.41
426.341	4321.9
426.548	4448.87
426.756	4465.25
426.964	4473.45
427.171	4827.74
427.379	4835.94
427.586	5012.06
427.794	5112.41
428.001	5309.02
428.209	5620.31
428.417	5466.71
428.624	5685.84
428.832	5927.5
429.039	5825.11
429.247	5917.26
429.454	6349.39
429.662	6699.59
429.869	6316.62
430.076	6752.84
430.284	6611.53
430.491	6922.82
430.699	7391.8
430.906	7363.13
431.114	7344.7
431.321	7631.41
431.528	7911.99
431.736	8241.71
431.943	8759.84
432.15	8364.59
432.358	8659.49
432.565	9155.1
432.772	9011.75
432.979	9331.23
433.187	9632.28
433.394	9327.13
433.601	10379.79
433.808	10232.33
434.016	10199.57
434.223	10592.78
434.43	11407.87
434.637	11059.71
434.844	11713.02
435.052	11911.67
435.259	11821.56
435.466	12028.4
435.673	11991.54
435.88	12558.83
436.087	13208.03
436.294	13267.42
436.501	12960.23
436.708	13130.21
436.915	13617.63
437.122	14293.46
437.329	14332.37
437.537	14623.18
437.743	15131.08
437.95	14934.47
438.157	15499.71
438.364	16101.81
438.571	16019.89
438.778	16150.96
438.985	17650.08
439.192	16896.42
439.399	17344.93
439.606	17127.85
439.813	18112.92
440.02	19014.02
440.227	18811.28
440.433	18571.66
440.64	19347.84
440.847	19370.37
441.054	19673.47
441.261	21021.03
441.467	20672.88
441.674	20849
441.881	21784.93
442.088	21825.89
442.294	21631.33
442.501	22059.35
442.708	22528.34
442.914	23345.48
443.121	24164.67
443.328	23599.43
443.534	25348.39
443.741	24424.76
443.948	24140.09
444.154	26243.35
444.361	25700.64
444.568	25985.31
444.774	25944.35
444.981	26159.39
445.187	26933.52
445.394	28211.45
445.6	27885.83
445.807	30435.55
446.013	29214.96
446.22	29925.6
446.426	30714.07
446.633	31301.84
446.839	32305.34
447.046	30820.56
447.252	32569.53
447.459	32372.92
447.665	32184.51
447.871	33689.77
448.078	35436.69
448.284	33646.76
448.491	34521.24
448.697	35582.09
448.903	36507.77
449.11	36690.04
449.316	35887.24
449.522	36606.08
449.728	37331.06
449.935	37601.39
450.141	37775.47
450.347	38443.1
450.553	37775.47
450.76	38172.77
450.966	39362.64
451.172	38967.38
451.378	39458.9
451.584	38987.86
451.791	39886.92
451.997	39839.82
452.203	40560.7
452.409	40499.26
452.615	40568.9
452.821	38821.98
453.027	38436.96
453.233	40482.88
453.44	38991.96
453.646	39497.81
453.852	39796.81
454.058	40411.2
454.264	39080.02
454.47	39704.65
454.676	39012.44
454.882	40368.19
455.088	36530.3
455.294	37754.99
455.5	37691.5
455.705	38467.68
455.911	36552.83
456.117	36264.07
456.323	35469.45
456.529	33597.61
456.735	35416.21
456.941	34345.12
457.147	33880.23
457.352	32759.99
457.558	32729.27
457.764	32667.83
457.97	31865.03
458.176	31518.92
458.381	31486.15
458.587	29718.76
458.793	29962.47
458.999	28188.92
459.204	30331.1
459.41	29737.19
459.616	27390.22
459.821	27801.86
460.027	27588.87
460.233	27443.46
460.438	25905.44
460.644	25590.05
460.85	24695.09
461.055	24543.54
461.261	24535.35
461.466	22341.97
461.672	21832.03
461.878	23439.68
462.083	21981.53
462.289	21582.18
462.494	21514.59
462.7	20324.72
462.905	19960.19
463.111	20793.71
463.316	20660.59
463.522	19945.85
463.727	20124.02
463.932	19804.54
464.138	19951.99
464.343	19906.94
464.549	19392.9
464.754	19898.75
464.959	19687.81
465.165	19620.22
465.37	19151.24
465.575	18358.67
465.781	19341.7
465.986	19302.79
466.191	18596.24
466.397	18110.87
466.602	17437.09
466.807	18090.39
467.012	17996.18
467.218	17848.73
467.423	17678.75
467.628	17723.8
467.833	18432.4
468.038	17764.76
468.244	17228.2
468.449	17877.4
468.654	17523.1
468.859	17334.69
469.064	17230.24
469.269	16542.13
469.474	16757.16
469.679	17193.38
469.885	16423.34
470.09	16544.17
470.295	16554.41
470.5	16089.53
470.705	16341.43
470.91	15931.83
471.115	15679.93
471.32	16028.09
471.525	15704.51
471.73	15626.68
471.935	15571.39
472.139	15004.1
472.344	15120.84
472.549	15045.06
472.754	15075.78
472.959	14635.47
473.164	14287.31
473.369	14209.49
473.574	14451.15
473.778	14557.64
473.983	14412.24
474.188	14016.98
474.393	13648.35
474.598	13625.82
474.802	13459.93
475.007	13552.09
475.212	13574.62
475.417	13142.5
475.621	13167.07
475.826	13296.1
476.031	12884.45
476.235	12683.75
476.44	12597.74
476.645	12575.21
476.849	12481
477.054	12235.25
477.259	12239.34
477.463	12280.3
477.668	11780.6
477.872	11944.44
478.077	11633.15
478.282	11395.58
478.486	11641.34
478.691	11432.44
478.895	11332.09
479.1	11424.25
479.304	11307.52
479.509	10904.07
479.713	11102.72
479.918	10945.03
480.122	10981.89
480.326	10873.35
480.531	10889.73
480.735	10822.15
480.94	10635.78
481.144	10945.03
481.348	10625.54
481.553	10654.22
481.757	10359.31
481.961	10521.1
482.166	10611.21
482.37	10492.43
482.574	10396.17
482.778	10416.65
482.983	10439.18
483.187	10600.97
483.391	10387.98
483.595	10428.94
483.8	10312.21
484.004	10725.89
484.208	10637.83
484.412	10496.52
484.616	10426.89
484.821	10435.08
485.025	10177.04
485.229	10381.84
485.433	10428.94
485.637	10463.75
485.841	10510.86
486.045	10330.64
486.249	10181.14
486.453	10308.11
486.657	10365.45
486.861	10560.01
487.065	10134.03
487.269	10443.28
487.473	10240.53
487.677	10560.01
487.881	10445.32
488.085	10486.28
488.289	10523.15
488.493	10359.31
488.697	10453.52
488.901	10365.45
489.105	10572.3
489.309	10506.76
489.512	10555.91
489.716	10666.5
489.92	10568.2
490.124	10549.77
490.328	10809.86
490.531	10625.54
490.735	10643.98
490.939	10668.55
491.143	10701.32
491.346	10682.89
491.55	10848.77
491.754	10844.68
491.958	11151.87
492.161	10969.6
492.365	10985.99
492.569	11244.03
492.772	11028.99
492.976	11092.48
493.18	11135.49
493.383	11059.71
493.587	11477.5
493.79	11334.14
493.994	11354.62
494.197	11414.01
494.401	11692.54
494.605	11465.21
494.808	11768.31
495.012	11667.96
495.215	11805.17
495.419	11870.71
495.622	11780.6
495.825	11825.65
496.029	12333.55
496.232	12378.61
496.436	12214.77
496.639	12368.37
496.843	12481
497.046	12765.67
497.249	12714.47
497.453	13189.6
497.656	12814.82
497.859	13054.44
498.063	13394.4
498.266	13468.13
498.469	13412.83
498.673	13461.98
498.876	13631.96
499.079	13910.49
499.282	13965.78
499.485	14205.39
499.689	14135.76
499.892	14623.18
500.095	14531.02
500.298	14879.18
500.501	14838.22
500.705	15100.36
500.908	15405.5
501.111	15413.7
501.314	15643.07
501.517	15784.38
501.72	15905.21
501.923	15868.34
502.126	16196.02
502.329	16523.69
502.532	16738.73
502.735	16865.71
502.938	17086.89
503.141	17285.54
503.344	17101.22
503.547	17598.88
503.75	17588.64
503.953	18043.29
504.156	17895.83
504.359	18276.76
504.562	18411.92
504.765	18919.82
504.968	18633.1
505.17	19169.67
505.373	19302.79
505.576	19702.14
505.779	19757.44
505.982	19818.88
506.185	20332.92
506.387	20068.73
506.59	20320.63
506.793	20963.69
506.996	20910.44
507.198	21266.79
507.401	21117.29
507.604	21469.54
507.807	21649.76
508.009	21944.67
508.212	22323.54
508.415	22561.11
508.617	22632.79
508.82	23001.42
509.022	22643.03
509.225	23415.11
509.428	23683.39
509.63	23716.16
509.833	24240.44
510.035	24545.59
510.238	24553.78
510.44	24877.36
510.643	25448.74
510.845	25235.75
511.048	25243.95
511.25	25764.13
511.453	25948.45
511.655	26710.29
511.858	26536.21
512.06	26480.92
512.262	26761.49
512.465	27023.63
512.667	27207.95
512.87	27810.05
513.072	27885.83
513.274	28246.27
513.477	28651.77
513.679	28414.2
513.881	28756.21
514.084	29389.03
514.286	29815.01
514.488	29624.55
514.69	30439.64
514.893	30378.2
515.095	30341.34
515.297	30974.16
515.499	31097.04
515.701	31310.03
515.904	31670.47
516.106	31826.12
516.308	32227.52
516.51	32325.82
516.712	32706.74
516.914	32913.59
517.116	33392.81
517.318	33472.68
517.52	33501.36
517.722	33841.32
517.925	34465.95
518.127	34685.08
518.329	34914.45
518.531	34582.68
518.733	35246.22
518.935	35829.9
519.136	35833.99
519.338	36149.38
519.54	36470.91
519.742	37040.25
519.944	36835.45
520.146	37793.9
520.348	37619.82
520.55	37542
520.752	37914.73
520.954	38647.9
521.155	38520.93
521.357	38875.23
521.559	39694.41
521.761	39653.45
521.963	39817.29
522.164	39823.43
522.366	39940.17
522.568	40319.04
522.77	40484.93
522.971	41349.17
523.173	40943.67
523.375	41297.97
523.576	41392.18
523.778	41502.77
523.98	41957.42
524.181	42281
524.383	41979.95
524.584	42817.57
524.786	42610.72
524.988	42391.59
525.189	43401.24
525.391	43511.83
525.592	43522.07
525.794	43823.12
525.995	43763.73
526.197	43771.92
526.398	43905.04
526.6	44144.65
526.801	44417.03
527.003	44742.66
527.204	44582.91
527.406	44910.59
527.607	44937.21
527.808	44742.66
528.01	44701.7
528.211	45283.32
528.412	45697.01
528.614	45627.38
528.815	45246.46
529.016	45789.17
529.218	45479.92
529.419	45713.39
529.62	46452.71
529.822	46032.88
530.023	45862.89
530.224	45774.83
530.425	45793.26
530.626	45705.2
530.828	45879.28
531.029	46559.2
531.23	46077.93
531.431	46034.92
531.632	46524.39
531.833	46417.89
532.035	46510.05
532.236	46442.47
532.437	46665.7
532.638	46413.8
532.839	46512.1
533.04	46436.33
533.241	46045.16
533.442	46772.19
533.643	46409.7
533.844	46329.83
534.045	46870.5
534.246	46280.68
534.447	46581.73
534.648	46477.29
534.849	46886.88
535.05	46354.41
535.251	46788.58
535.451	46467.05
535.652	46606.31
535.853	46258.15
536.054	46723.04
536.255	46393.32
536.456	46448.61
536.657	46866.4
536.857	46364.65
537.058	45996.01
537.259	46770.15
537.46	46381.03
537.66	46149.61
537.861	46153.71
538.062	46264.3
538.263	46223.34
538.463	46190.57
538.664	46104.56
538.865	46176.23
539.065	46473.19
539.266	45459.44
539.466	46483.43
539.667	45789.17
539.868	46503.91
540.068	45993.96
540.269	45766.64
540.469	46381.03
540.67	46157.8
540.87	45979.63
541.071	45871.09
541.271	46278.63
541.472	45821.94
541.672	46039.02
541.873	45826.03
542.073	45924.33
542.274	45801.46
542.474	45877.23
542.675	45152.25
542.875	45873.13
543.075	45617.14
543.276	45641.71
543.476	45688.82
543.676	45238.26
543.877	46223.34
544.077	45680.63
544.277	45508.6
544.478	45531.12
544.678	45662.19
544.878	45864.94
545.078	45572.08
545.279	45258.74
545.479	45320.18
545.679	45236.22
545.879	45361.14
546.079	45967.34
546.28	45508.6
546.48	45402.1
546.68	45932.53
546.88	45692.91
547.08	45402.1
547.28	45817.84
547.48	45152.25
547.68	45723.63
547.88	45275.13
548.081	45703.15
548.281	45537.27
548.481	45381.62
548.681	45938.67
548.881	45541.36
549.081	45248.5
549.28	45182.97
549.48	45447.16
549.68	45084.67
549.88	45719.54
550.08	45207.54
550.28	45326.33
550.48	45146.11
550.68	45508.6
550.88	45066.24
551.08	45223.93
551.279	45174.78
551.479	44988.41
551.679	45109.24
551.879	45256.7
552.079	45504.5
552.278	44775.42
552.478	45258.74
552.678	44742.66
552.878	45500.4
553.077	45187.07
553.277	44589.06
553.477	45277.18
553.676	45178.87
553.876	45178.87
554.076	45295.61
554.275	44818.43
554.475	44685.31
554.674	44943.36
554.874	44574.72
555.074	44898.3
555.273	44816.38
555.473	44840.96
555.672	44470.28
555.872	45037.56
556.071	44832.77
556.271	45070.33
556.47	44562.43
556.67	44505.09
556.869	44462.08
557.068	44961.79
557.268	44296.2
557.467	44761.09
557.667	44156.94
557.866	44576.77
558.065	44396.55
558.265	44308.49
558.464	44419.08
558.663	44570.63
558.863	44277.77
559.062	44552.19
559.261	43665.42
559.461	44650.5
559.66	43964.43
559.859	43769.87
560.058	43997.2
560.258	44091.4
560.457	43536.4
560.656	43984.91
560.855	43661.33
561.054	44081.16
561.253	43622.42
561.453	43900.94
561.652	43847.69
561.851	44169.22
562.05	43309.08
562.249	43321.37
562.448	44220.42
562.647	43509.78
562.846	43370.52
563.045	43724.82
563.244	43171.86
563.443	43579.41
563.642	42829.85
563.841	43534.35
564.04	43235.35
564.239	43276.31
564.438	42776.61
564.637	43012.12
564.836	42911.77
565.035	42498.08
565.234	42801.18
565.432	42651.68
565.631	42354.72
565.83	42367.01
566.029	42584.1
566.228	42342.44
566.427	42104.87
566.625	41965.61
566.824	41592.88
567.023	42297.38
567.222	41349.17
567.42	42364.96
567.619	41717.81
567.818	41732.14
568.016	41596.98
568.215	41793.58
568.414	41277.49
568.612	41717.81
568.811	41531.44
569.01	41588.78
569.208	40998.97
569.407	41601.07
569.605	40962.11
569.804	41637.94
570.002	40839.23
570.201	41199.67
570.4	40351.81
570.598	40112.2
570.797	40548.42
570.995	40327.24
571.193	39635.02
571.392	40972.35
571.59	40091.72
571.789	40364.1
571.987	39897.16
572.186	40247.36
572.384	39993.42
572.582	40120.39
572.781	40075.34
572.979	39407.7
573.177	39729.23
573.376	39999.56
573.574	39419.99
573.772	39397.46
573.971	39366.74
574.169	39024.73
574.367	38815.83
574.565	39280.72
574.763	38735.96
574.962	38627.42
575.16	38572.13
575.358	38699.1
575.556	38631.52
575.754	38664.28
575.952	38289.51
576.151	38416.48
576.349	37896.3
576.547	38074.47
576.745	38045.8
576.943	37851.24
577.141	37877.86
577.339	37763.18
577.537	37613.68
577.735	37429.36
577.933	37181.56
578.131	37531.76
578.329	37245.04
578.527	37261.43
578.725	37292.15
578.923	37478.51
579.121	37046.39
579.319	36851.83
579.516	36714.62
579.714	36956.28
579.912	36651.13
580.11	36616.32
580.308	36544.64
580.506	36530.3
580.704	35727.5
580.901	36479.1
581.099	36515.97
581.297	36196.48
581.495	35754.12
581.692	35985.54
581.89	35737.74
582.088	35735.69
582.285	35596.43
582.483	35696.78
582.681	35631.24
582.878	35410.06
583.076	34988.18
583.274	35350.67
583.471	35158.16
583.669	34685.08
583.866	34629.79
584.064	34877.59
584.262	34644.12
584.459	34920.6
584.657	34642.07
584.854	34676.89
585.052	34011.3
585.249	34658.46
585.447	34267.3
585.644	34103.46
585.841	34164.9
586.039	34283.68
586.236	33474.73
586.434	33783.98
586.631	33749.16
586.828	33556.65
587.026	33714.34
587.223	33710.25
587.42	33380.53
587.618	33280.17
587.815	32925.88
588.012	32819.38
588.21	32985.27
588.407	33179.82
588.604	32678.07
588.801	32456.89
588.999	32526.52
589.196	32608.44
589.393	32682.17
589.59	32581.82
589.787	32368.83
589.984	32245.95
590.182	32061.63
590.379	32227.52
590.576	32174.27
590.773	31996.1
590.97	31609.03
591.167	31774.92
591.364	31709.38
591.561	31434.95
591.758	31400.14
591.955	31307.98
592.152	31623.37
592.349	31033.55
592.546	31283.41
592.743	31133.9
592.94	30634.2
593.137	31107.28
593.334	31037.65
593.531	30449.88
593.727	31031.51
593.924	30574.81
594.121	30304.48
594.318	30580.95
594.515	30204.13
594.712	30462.17
594.908	30308.57
595.105	30290.14
595.302	29944.03
595.499	30015.71
595.696	29651.17
595.892	29587.69
596.089	29815.01
596.286	29526.25
596.482	29712.61
596.679	29827.3
596.876	29575.4
597.072	29327.6
597.269	29389.03
597.466	28827.89
597.662	29104.37
597.859	29112.56
598.055	28940.53
598.252	28735.73
598.448	28727.54
598.645	28776.69
598.841	28371.19
599.038	28258.56
599.234	28690.68
599.431	28274.94
599.627	28111.1
599.824	28311.8
600.02	27894.02
600.217	27945.22
600.413	28129.53
600.609	27955.46
600.806	27730.18
601.002	28094.72
601.198	27865.35
601.395	27425.03
601.591	27738.37
601.787	27517.19
601.984	27533.57
602.18	27502.85
602.376	27054.35
602.572	26820.88
602.769	27181.32
602.965	26931.47
603.161	27009.29
603.357	26781.97
603.553	26667.28
603.75	26730.77
603.946	26659.09
604.142	26501.4
604.338	26296.6
604.534	26648.85
604.73	26302.75
604.926	25997.6
605.122	26059.04
605.318	26151.2
605.514	26079.52
605.71	25850.14
605.906	25913.63
606.102	25813.28
606.298	25714.98
606.494	25776.42
606.69	25944.35
606.886	25807.14
607.082	25377.06
607.278	25948.45
607.474	25225.51
607.67	25751.84
607.866	25135.4
608.062	25368.87
608.257	24979.76
608.453	25379.11
608.649	24969.52
608.845	25098.54
609.041	25368.87
609.236	25248.04
609.432	25332.01
609.628	24875.31
609.824	24729.91
610.019	24717.62
610.215	24809.78
610.411	24746.29
610.606	24695.09
610.802	24807.73
610.998	24525.11
611.193	24834.35
611.389	24379.7
611.584	24377.65
611.78	24142.14
611.976	24492.34
612.171	24527.16
612.367	24277.3
612.562	24242.49
612.758	23970.11
612.953	23970.11
613.149	24275.26
613.344	23791.94
613.539	24111.42
613.735	23904.57
613.93	24148.28
614.126	23753.02
614.321	24318.26
614.517	23728.45
614.712	23503.17
614.907	23386.44
615.103	23562.56
615.298	23433.54
615.493	23923.01
615.688	23546.18
615.884	23914.81
616.079	23028.04
616.274	23595.33
616.47	23204.17
616.665	23265.61
616.86	23249.22
617.055	23007.56
617.25	22905.17
617.445	23325
617.641	22698.32
617.836	23001.42
618.031	22688.08
618.226	22778.19
618.421	22726.99
618.616	22829.39
618.811	22499.67
619.006	22794.57
619.201	22047.07
619.396	22573.39
619.591	22210.9
619.786	22083.93
619.981	21696.86
620.176	21959
620.371	21797.21
620.566	21627.23
620.761	21594.47
620.956	22051.16
621.151	21526.88
621.346	21555.55
621.541	20984.17
621.735	21254.5
621.93	21057.9
622.125	21082.47
622.32	20857.2
622.515	21211.49
622.709	20543.86
622.904	20603.25
623.099	20584.82
623.294	20490.61
623.488	20140.41
623.683	20330.87
623.878	19997.05
624.072	20134.26
624.267	20009.34
624.462	19745.15
624.656	19652.99
624.851	19544.45
625.046	19497.35
625.24	19675.52
625.435	19339.65
625.629	18958.73
625.824	19034.5
626.018	19247.49
626.213	18917.77
626.407	19065.22
626.602	18586
626.796	18571.66
626.991	18684.3
627.185	18649.49
627.38	18270.61
627.574	18188.69
627.768	18219.41
627.963	17754.52
628.157	17904.03
628.352	17701.28
628.546	17613.21
628.74	17842.59
628.935	17244.58
629.129	17428.9
629.323	17152.42
629.517	17246.63
629.712	17252.77
629.906	16869.8
630.1	16736.68
630.294	17029.54
630.489	16689.58
630.683	16660.91
630.877	16681.39
631.071	16519.6
631.265	16665
631.459	16476.59
631.653	16216.5
631.848	15983.03
632.042	15856.06
632.236	16193.97
632.43	15913.4
632.624	15892.92
632.818	15724.99
633.012	15671.74
633.206	15460.8
633.4	15747.51
633.594	15344.06
633.788	15395.26
633.982	15473.09
634.176	15198.66
634.369	15059.4
634.563	14979.53
634.757	14893.51
634.951	15090.12
635.145	14676.43
635.339	14840.26
635.533	14696.91
635.726	14500.3
635.92	14508.49
636.114	14483.92
636.308	14289.36
636.501	14156.24
636.695	14229.97
636.889	13969.88
637.083	13935.06
637.276	13976.02
637.47	14027.22
637.664	13777.37
637.857	13709.79
638.051	13625.82
638.244	13550.04
638.438	13390.3
638.632	13380.06
638.825	13345.25
639.019	12876.26
639.212	13074.92
639.406	13232.61
639.599	12949.99
639.793	13205.99
639.986	12890.6
640.18	12919.27
640.373	12669.42
640.567	12714.47
640.76	12462.57
640.954	12460.52
641.147	12405.23
641.34	12331.5
641.534	12607.98
641.727	12331.5
641.92	12259.82
642.114	12116.47
642.307	12313.07
642.5	12124.66
642.694	11909.62
642.887	11733.5
643.08	11969.01
643.273	11872.76
643.467	11715.06
643.66	11649.53
643.853	11559.42
644.046	11293.18
644.239	11481.6
644.432	11176.45
644.626	11201.02
644.819	11172.35
645.012	11178.5
645.205	11131.39
645.398	11178.5
645.591	11051.52
645.784	11176.45
645.977	10697.22
646.17	10844.68
646.363	10834.44
646.556	10678.79
646.749	10529.29
646.942	10584.59
647.135	10695.18
647.328	10557.96
647.521	10379.79
647.714	10084.88
647.907	10287.63
648.099	10244.62
648.292	10398.22
648.485	10101.26
648.678	9894.42
648.871	10037.78
649.064	10027.54
649.256	10207.76
649.449	9822.74
649.642	9921.04
649.835	9775.64
650.027	9974.29
650.22	9781.78
650.413	9593.37
650.605	9611.8
650.798	9384.48
650.991	9495.07
651.183	9460.25
651.376	9368.09
651.568	9421.34
651.761	9142.82
651.954	9232.93
652.146	9181.73
652.339	9288.22
652.531	9136.67
652.724	9011.75
652.916	8964.64
653.109	9114.14
653.301	8964.64
653.494	8913.44
653.686	8704.55
653.879	8733.22
654.071	8692.26
654.263	8581.67
654.456	8585.77
654.648	8686.12
654.84	8475.18
655.033	8376.87
655.225	8569.38
655.417	8366.64
655.61	8473.13
655.802	8270.38
655.994	8360.49
656.186	8303.15
656.379	8249.9
656.571	7928.37
656.763	7977.52
656.955	7971.38
657.148	8053.3
657.34	7940.66
657.532	7807.54
657.724	7836.21
657.916	7795.25
658.108	7709.24
658.3	7692.85
658.492	7830.07
658.684	7701.05
658.876	7803.44
659.068	7543.35
659.26	7508.54
659.452	7541.3
659.644	7625.27
659.836	7406.14
660.028	7346.75
660.22	7283.26
660.412	7299.64
660.604	7160.38
660.796	7305.79
660.988	7352.89
661.18	7258.68
661.372	7072.32
661.563	7250.49
661.755	6926.91
661.947	6924.86
662.139	6941.25
662.331	6861.38
662.522	6816.32
662.714	6783.56
662.906	6750.79
663.097	6799.94
663.289	6709.83
663.481	6775.36
663.673	6730.31
663.864	6529.61
664.056	6605.38
664.247	6726.21
664.439	6556.23
664.631	6679.11
664.822	6373.96
665.014	6693.44
665.205	6394.44
665.397	6416.97
665.588	6427.21
665.78	6386.25
665.971	6431.3
666.163	6087.25
666.354	6386.25
666.546	6246.99
666.737	6378.06
666.929	6203.98
667.12	6036.05
667.311	5972.56
667.503	6062.67
667.694	6154.83
667.885	5929.55
668.077	5984.85
668.268	5997.14
668.459	5954.13
668.651	5800.53
668.842	5841.49
669.033	5950.03
669.224	5884.5
669.416	5950.03
669.607	5704.28
669.798	5702.23
669.989	5833.3
670.18	5718.61
670.371	5677.65
670.563	5603.93
670.754	5730.9
670.945	5737.04
671.136	5466.71
671.327	5636.69
671.518	5597.78
671.709	5669.46
671.9	5446.23
672.091	5464.66
672.282	5349.98
672.473	5522.01
672.664	5364.31
672.855	5251.67
673.046	5452.38
673.237	5456.47
673.428	5253.72
673.619	5268.06
673.809	5257.82
674	5186.14
674.191	5329.5
674.382	5276.25
674.573	5143.13
674.764	5169.76
674.954	5233.24
675.145	5034.59
675.336	5132.89
675.527	5083.74
675.717	5198.43
675.908	5112.41
676.099	5010.01
676.289	4932.19
676.48	4964.96
676.671	5038.69
676.861	4967.01
677.052	4893.28
677.243	4907.62
677.433	4903.52
677.624	4934.24
677.814	4811.36
678.005	4895.33
678.195	4913.76
678.386	4860.51
678.576	4719.2
678.767	4799.07
678.957	4729.44
679.148	4760.16
679.338	4721.25
679.529	4799.07
679.719	4813.41
679.909	4723.3
680.1	4690.53
680.29	4821.6
680.481	4790.88
680.671	4616.8
680.861	4563.56
681.052	4700.77
681.242	4616.8
681.432	4616.8
681.622	4661.86
681.813	4541.03
682.003	4682.34
682.193	4577.89
682.383	4618.85
682.573	4696.67
682.764	4598.37
682.954	4493.93
683.144	4608.61
683.334	4555.37
683.524	4467.3
683.714	4510.31
683.904	4457.06
684.094	4498.02
684.284	4481.64
684.474	4588.13
684.664	4364.9
684.854	4422.25
685.044	4432.49
685.234	4352.62
685.424	4375.14
685.614	4383.34
685.804	4538.98
685.994	4235.88
686.184	4334.18
686.374	4207.21
686.564	4190.83
686.753	4305.51
686.943	4211.31
687.133	4258.41
687.323	4412.01
687.513	4317.8
687.702	4194.92
687.892	4176.49
688.082	4162.16
688.272	4272.75
688.461	4055.66
688.651	4178.54
688.841	4014.7
689.03	4055.66
689.22	4026.99
689.41	4076.14
689.599	4055.66
689.789	4041.32
689.979	3992.17
690.168	4108.91
690.358	3912.3
690.547	3992.17
690.737	3859.06
690.926	3949.17
691.116	3797.62
691.305	3938.93
691.495	3805.81
691.684	3988.08
691.874	3766.9
692.063	3924.59
692.252	3891.82
692.442	3973.74
692.631	3725.94
692.82	3807.86
693.01	3781.23
693.199	3732.08
693.388	3785.33
693.578	3799.66
693.767	3887.73
693.956	3781.23
694.146	3809.9
694.335	3752.56
694.524	3695.22
694.713	3801.71
694.902	3596.92
695.092	3609.2
695.281	3615.35
695.47	3691.12
695.659	3564.15
695.848	3617.4
696.037	3684.98
696.226	3654.26
696.415	3654.26
696.604	3705.46
696.793	3500.66
696.982	3615.35
697.171	3603.06
697.36	3588.72
697.549	3588.72
697.738	3549.81
697.927	3547.76
698.116	3644.02
698.305	3635.83
698.494	3648.11
698.683	3564.15
698.872	3623.54
699.061	3531.38
699.25	3672.69
699.438	3562.1
699.627	3605.11
699.816	3670.64
700.005	3431.03
700.193	3605.11
700.382	3525.24
700.571	3564.15
700.76	3588.72
700.948	3670.64
701.137	3445.37
701.326	3451.51
701.514	3418.74
701.703	3467.89
701.892	3369.59
702.08	3531.38
702.269	3467.89
702.457	3400.31
702.646	3396.21
702.834	3369.59
703.023	3439.22
703.212	3365.5
703.4	3359.35
703.589	3306.1
703.777	3310.2
703.965	3283.58
704.154	3371.64
704.342	3371.64
704.531	3228.28
704.719	3326.58
704.907	3461.75
705.096	3281.53
705.284	3416.69
705.472	3416.69
705.661	3304.06
705.849	3263.1
706.037	3457.65
706.226	3328.63
706.414	3297.91
706.602	3261.05
706.79	3371.64
706.979	3187.32
707.167	3275.38
707.355	3281.53
707.543	3195.51
707.731	3334.78
707.919	3127.93
708.107	3181.18
708.296	3170.94
708.484	3314.3
708.672	3138.17
708.86	3252.86
709.048	3164.79
709.236	3152.51
709.424	3228.28
709.612	3199.61
709.8	3117.69
709.988	3187.32
710.176	3140.22
710.364	3072.64
710.551	3078.78
710.739	3082.88
710.927	3191.42
711.115	3240.57
711.303	3111.55
711.491	3093.12
711.679	3154.55
711.866	2988.67
712.054	3134.07
712.242	2996.86
712.43	3172.99
712.617	3046.01
712.805	2992.76
712.993	3101.31
713.181	3013.24
713.368	3017.34
713.556	3089.02
713.744	2900.61
713.931	3158.65
714.119	3052.16
714.306	2943.61
714.494	2949.76
714.682	2837.12
714.869	2935.42
715.057	2808.45
715.244	2994.81
715.432	3041.92
715.619	2994.81
715.807	2943.61
715.994	2925.18
716.182	2968.19
716.369	2790.02
716.556	2984.57
716.744	2910.85
716.931	2876.03
717.119	2851.46
717.306	2892.41
717.493	2765.44
717.681	2810.5
717.868	2880.13
718.055	2878.08
718.242	2835.07
718.43	2794.11
718.617	2941.57
718.804	2816.64
718.991	2724.48
719.179	2886.27
719.366	2824.83
719.553	2839.17
719.74	2744.96
719.927	2755.2
720.114	2660.99
720.301	2579.08
720.488	2679.43
720.676	2740.86
720.863	2759.3
721.05	2679.43
721.237	2691.71
721.424	2722.43
721.611	2736.77
721.798	2671.23
721.985	2710.15
722.172	2704
722.358	2724.48
722.545	2712.19
722.732	2650.75
722.919	2704
723.106	2536.07
723.293	2622.08
723.48	2540.16
723.667	2601.6
723.853	2564.74
724.04	2642.56
724.227	2695.81
724.414	2613.89
724.6	2585.22
724.787	2613.89
724.974	2564.74
725.161	2589.32
725.347	2519.68
725.534	2548.36
725.72	2435.72
725.907	2529.92
726.094	2572.93
726.28	2513.54
726.467	2458.25
726.653	2517.64
726.84	2624.13
727.027	2495.11
727.213	2431.62
727.4	2482.82
727.586	2411.14
727.773	2452.1
727.959	2456.2
728.145	2523.78
728.332	2536.07
728.518	2476.68
728.705	2396.81
728.891	2464.39
729.077	2468.48
729.264	2312.84
729.45	2472.58
729.636	2402.95
729.823	2448.01
730.009	2445.96
730.195	2308.74
730.382	2374.28
730.568	2347.65
730.754	2411.14
730.94	2445.96
731.126	2560.64
731.313	2359.94
731.499	2329.22
731.685	2378.37
731.871	2384.52
732.057	2386.57
732.243	2368.13
732.429	2351.75
732.615	2519.68
732.801	2368.13
732.987	2331.27
733.173	2224.78
733.359	2241.16
733.545	2314.89
733.731	2204.3
733.917	2353.8
734.103	2318.98
734.289	2237.06
734.475	2249.35
734.661	2278.02
734.847	2310.79
735.033	2325.13
735.219	2179.72
735.404	2298.5
735.59	2300.55
735.776	2286.22
735.962	2230.92
736.148	2224.78
736.333	2263.69
736.519	2271.88
736.705	2304.65
736.89	2124.43
737.076	2251.4
737.262	2062.99
737.447	2175.63
737.633	2187.91
737.819	2304.65
738.004	2224.78
738.19	2237.06
738.375	2163.34
738.561	2230.92
738.747	2130.57
738.932	2222.73
739.118	2105.99
739.303	2153.1
739.489	2130.57
739.674	2048.65
739.859	2146.95
740.045	2247.3
740.23	2105.99
740.416	2044.56
740.601	2165.39
740.786	2056.84
740.972	2062.99
741.157	2081.42
741.342	1905.29
741.528	2099.85
741.713	1991.31
741.898	1993.36
742.084	2013.84
742.269	1983.12
742.454	1966.73
742.639	1985.16
742.824	2015.88
743.01	1962.64
743.195	1925.77
743.38	1938.06
743.565	1925.77
743.75	1944.2
743.935	1925.77
744.12	1938.06
744.305	1895.05
744.49	1852.05
744.675	1811.09
744.86	1835.66
745.045	1852.05
745.23	1802.9
745.415	1716.88
745.6	1919.63
745.785	1772.18
745.97	1878.67
746.155	1757.84
746.34	1755.79
746.525	1653.39
746.71	1729.17
746.895	1813.13
747.079	1759.89
747.264	1747.6
747.449	1786.51
747.634	1858.19
747.819	1659.54
748.003	1663.63
748.188	1680.02
748.373	1708.69
748.557	1606.29
748.742	1708.69
748.927	1671.83
749.111	1770.13
749.296	1667.73
749.481	1624.72
749.665	1643.15
749.85	1571.47
750.034	1567.38
750.219	1579.67
750.404	1489.56
750.588	1602.19
750.773	1489.56
750.957	1577.62
751.141	1510.04
751.326	1581.71
751.51	1555.09
751.695	1467.03
751.879	1491.6
752.064	1516.18
752.248	1446.55
752.432	1469.08
752.617	1401.49
752.801	1483.41
752.985	1393.3
753.17	1434.26
753.354	1378.97
753.538	1288.85
753.722	1397.4
753.907	1333.91
754.091	1335.96
754.275	1346.2
754.459	1364.63
754.643	1368.73
754.828	1237.66
755.012	1313.43
755.196	1249.94
755.38	1295
755.564	1315.48
755.748	1278.62
755.932	1270.42
756.116	1338.01
756.3	1239.7
756.484	1221.27
756.668	1315.48
756.852	1153.69
757.036	1258.14
757.22	1256.09
757.404	1143.45
757.588	1227.42
757.772	1108.63
757.956	1174.17
758.14	1163.93
758.323	1073.82
758.507	1168.02
758.691	1061.53
758.875	1147.55
759.059	1114.78
759.242	1122.97
759.426	1082.01
759.61	1125.02
759.794	1098.39
759.977	1053.34
760.161	1098.39
760.345	1155.74
760.528	989.85
760.712	1090.2
760.895	1051.29
761.079	1043.1
761.263	996
761.446	1016.48
761.63	959.13
761.813	1030.81
761.997	1057.43
762.18	1034.91
762.364	918.17
762.547	989.85
762.731	1000.09
762.914	1032.86
763.098	1077.91
763.281	1000.09
763.464	930.46
763.648	944.8
763.831	934.56
764.015	897.69
764.198	985.76
764.381	877.21
764.564	955.04
764.748	912.03
764.931	946.84
765.114	928.41
765.297	948.89
765.481	823.97
765.664	940.7
765.847	914.08
766.03	977.56
766.213	928.41
766.397	852.64
766.58	852.64
766.763	952.99
766.946	813.73
767.129	799.39
767.312	946.84
767.495	803.49
767.678	852.64
767.861	899.74
768.044	918.17
768.227	840.35
768.41	844.45
768.593	838.3
768.776	811.68
768.959	811.68
769.142	1000.09
769.324	924.32
769.507	821.92
769.69	778.91
769.873	797.34
770.056	942.75
770.239	746.14
770.421	834.21
770.604	764.57
770.787	770.72
770.97	795.29
771.152	758.43
771.335	770.72
771.518	768.67
771.7	877.21
771.883	770.72
772.066	805.53
772.248	809.63
772.431	797.34
772.613	795.29
772.796	819.87
772.978	783.01
773.161	770.72
773.343	807.58
773.526	744.1
773.708	737.95
773.891	684.7
774.073	715.42
774.256	690.85
774.438	778.91
774.621	760.48
774.803	783.01
774.985	694.94
775.168	656.03
775.35	641.7
775.532	705.18
775.715	729.76
775.897	735.9
776.079	598.69
776.261	664.22
776.444	610.98
776.626	582.31
776.808	639.65
776.99	590.5
777.173	610.98
777.355	592.55
777.537	699.04
777.719	617.12
777.901	567.97
778.083	533.15
778.265	576.16
778.447	584.35
778.629	647.84
778.811	631.46
778.993	639.65
779.175	529.06
779.357	594.59
779.539	541.35
779.721	574.11
779.903	656.03
780.085	510.63
780.267	549.54
780.449	559.78
780.631	567.97
780.812	549.54
780.994	592.55
781.176	508.58
781.358	557.73
781.54	475.81
781.721	512.67
781.903	541.35
782.085	486.05
782.267	492.2
782.448	385.7
782.63	518.82
782.812	463.52
782.993	428.71
783.175	477.86
783.357	459.43
783.538	441
783.72	486.05
783.901	463.52
784.083	475.81
784.264	451.24
784.446	420.52
784.627	414.37
784.809	402.08
784.99	479.91
785.172	418.47
785.353	453.28
785.535	449.19
785.716	371.36
785.897	430.76
786.079	410.28
786.26	438.95
786.441	397.99
786.623	393.89
786.804	426.66
786.985	361.13
787.167	516.77
787.348	369.32
787.529	438.95
787.71	395.94
787.891	395.94
788.073	434.85
788.254	289.45
788.435	455.33
788.616	416.42
788.797	338.6
788.978	281.25
789.159	334.5
789.34	369.32
789.522	330.41
789.703	391.84
789.884	354.98
790.065	400.04
790.246	377.51
790.427	357.03
790.607	348.84
790.788	352.93
790.969	322.21
791.15	387.75
791.331	244.39
791.512	254.63
791.693	314.02
791.874	311.97
792.054	291.49
792.235	328.36
792.416	279.21
792.597	322.21
792.778	410.28
792.958	303.78
793.139	316.07
793.32	320.17
793.5	303.78
793.681	381.6
793.862	320.17
794.042	326.31
794.223	320.17
794.404	338.6
794.584	332.45
794.765	221.86
794.945	248.49
795.126	309.93
795.306	291.49
795.487	205.48
795.667	279.21
795.848	273.06
796.028	262.82
796.209	213.67
796.389	320.17
796.57	279.21
796.75	238.25
796.93	328.36
797.111	262.82
797.291	279.21
797.471	248.49
797.652	230.06
797.832	275.11
798.012	250.53
798.192	289.45
798.373	230.06
798.553	195.24
798.733	209.58
798.913	172.71
799.093	254.63
799.274	225.96
799.454	203.43
799.634	246.44
799.814	266.92
799.994	205.48
800.174	281.25
800.354	182.95
800.534	248.49
800.714	205.48
800.894	205.48
801.074	172.71
801.254	223.91
801.434	271.01
801.614	209.58
801.794	201.38
801.974	823.97
802.154	221.86
802.334	279.21
802.514	213.67
802.693	246.44
802.873	246.44
803.053	271.01
803.233	156.33
803.413	154.28
803.592	180.9
803.772	238.25
803.952	158.38
804.131	240.29
804.311	273.06
804.491	213.67
804.67	170.66
804.85	197.29
805.03	205.48
805.209	273.06
805.389	193.19
805.568	189.1
805.748	182.95
805.928	199.34
806.107	213.67
806.287	258.73
806.466	166.57
806.646	139.94
806.825	197.29
807.004	217.77
807.184	205.48
807.363	187.05
807.543	199.34
807.722	129.7
807.901	170.66
808.081	197.29
808.26	25.26
808.439	191.14
808.619	170.66
808.798	213.67
808.977	154.28
809.156	185
809.336	174.76
809.515	191.14
809.694	137.9
809.873	123.56
810.052	240.29
810.231	234.15
810.411	90.79
810.59	197.29
810.769	197.29
810.948	101.03
811.127	92.84
811.306	191.14
811.485	180.9
811.664	254.63
811.843	211.62
812.022	193.19
812.201	101.03
812.38	68.27
812.559	158.38
812.737	90.79
812.916	139.94
813.095	141.99
813.274	156.33
813.453	135.85
813.632	137.9
813.811	207.53
813.989	115.37
814.168	74.41
814.347	150.18
814.526	156.33
814.704	148.14
814.883	158.38
815.062	115.37
815.24	158.38
815.419	139.94
815.598	98.99
815.776	45.74
815.955	180.9
816.133	107.18
816.312	141.99
816.49	98.99
816.669	205.48
816.847	127.66
817.026	209.58
817.204	144.04
817.383	150.18
817.561	82.6
817.74	41.64
817.918	98.99
818.097	115.37
818.275	185
818.453	115.37
818.632	180.9
818.81	178.86
818.988	213.67
819.167	90.79
819.345	135.85
819.523	131.75
819.701	152.23
819.879	182.95
820.058	148.14
820.236	176.81
820.414	125.61
820.592	141.99
820.77	58.03
820.948	58.03
821.127	123.56
821.305	137.9
821.483	19.11
821.661	160.42
821.839	139.94
822.017	129.7
822.195	15.02
822.373	158.38
822.551	74.41
822.729	84.65
822.907	117.42
823.085	101.03
823.262	156.33
823.44	88.75
823.618	68.27
823.796	119.46
823.974	86.7
824.152	125.61
824.329	98.99
824.507	219.82
824.685	35.5
824.863	66.22
825.04	98.99
825.218	180.9
825.396	74.41
825.574	31.4
825.751	107.18
825.929	98.99
826.107	35.5
826.284	76.46
826.462	182.95
826.639	125.61
826.817	74.41
826.994	103.08
827.172	84.65
827.349	74.41
827.527	-19.8
827.704	123.56
827.882	90.79
828.059	135.85
828.237	25.26
828.414	58.03
828.591	135.85
828.769	51.88
828.946	107.18
829.124	92.84
829.301	115.37
829.478	43.69
829.655	17.07
829.833	82.6
830.01	94.89
830.187	70.31
830.364	168.62
830.542	25.26
830.719	105.13
830.896	92.84
831.073	78.51
831.25	117.42
831.427	146.09
831.604	33.45
831.782	45.74
831.959	66.22
832.136	66.22
832.313	107.18
832.49	49.83
832.667	129.7
832.844	86.7
833.021	113.32
833.198	25.26
833.374	86.7
833.551	74.41
833.728	115.37
833.905	23.21
834.082	25.26
834.259	17.07
834.436	127.66
834.612	66.22
834.789	125.61
834.966	10.92
835.143	70.31
835.319	33.45
835.496	103.08
835.673	68.27
835.85	62.12
836.026	66.22
836.203	74.41
836.38	78.51
836.556	109.22
836.733	70.31
836.909	115.37
837.086	53.93
837.262	115.37
837.439	35.5
837.616	66.22
837.792	58.03
837.968	43.69
838.145	17.07
838.321	74.41
838.498	35.5
838.674	62.12
838.851	60.07
839.027	66.22
839.203	103.08
839.38	68.27
839.556	-38.23
839.732	98.99
839.909	70.31
840.085	101.03
840.261	0.68
840.437	33.45
840.614	-7.51
840.79	31.4
840.966	23.21
841.142	51.88
841.318	58.03
841.494	51.88
841.671	51.88
841.847	19.11
842.023	82.6
842.199	45.74
842.375	109.22
842.551	84.65
842.727	37.55
842.903	66.22
843.079	17.07
843.255	162.47
843.431	17.07
843.607	43.69
843.783	66.22
843.959	19.11
844.134	47.79
844.31	49.83
844.486	64.17
844.662	17.07
844.838	117.42
845.013	70.31
845.189	74.41
845.365	139.94
845.541	51.88
845.716	49.83
845.892	49.83
846.068	60.07
846.244	-7.51
846.419	8.87
846.595	80.55
846.77	66.22
846.946	117.42
847.122	-27.99
847.297	-3.41
847.473	98.99
847.648	72.36
847.824	80.55
847.999	-42.32
848.175	60.07
848.35	82.6
848.526	94.89
848.701	86.7
848.876	98.99
849.052	64.17
849.227	51.88
849.403	-19.8
849.578	80.55
849.753	29.35
849.929	39.59
850.104	80.55
850.279	86.7
850.454	37.55
850.63	98.99
850.805	90.79
850.98	53.93
851.155	53.93
851.33	21.16
851.505	-54.61
851.681	19.11
851.856	-11.61
852.031	94.89
852.206	43.69
852.381	37.55
852.556	53.93
852.731	84.65
852.906	60.07
853.081	58.03
853.256	19.11
853.431	33.45
853.606	35.5
853.781	35.5
853.956	-48.47
854.131	76.46
854.305	4.78
854.48	-7.51
854.655	-38.23
854.83	62.12
855.005	6.83
855.18	82.6
855.354	47.79
855.529	98.99
855.704	-36.18
855.879	21.16
856.053	-7.51
856.228	74.41
856.403	47.79
856.577	68.27
856.752	33.45
856.926	19.11
857.101	41.64
857.276	-7.51
857.45	23.21
857.625	41.64
857.799	6.83
857.974	4.78
858.148	-15.7
858.323	88.75
858.497	33.45
858.672	64.17
858.846	33.45
859.02	41.64
859.195	-32.08
859.369	41.64
859.543	123.56
859.718	19.11
859.892	51.88
860.066	-21.85
860.241	66.22
860.415	8.87
860.589	-27.99
860.763	12.97
860.938	25.26
861.112	109.22
861.286	68.27
861.46	41.64
861.634	0.68
861.808	86.7
861.982	33.45
862.157	62.12
862.331	-1.37
862.505	21.16
862.679	15.02
862.853	29.35
863.027	78.51
863.201	117.42
863.375	-11.61
863.549	76.46
863.722	35.5
863.896	-7.51
864.07	49.83
864.244	55.98
864.418	29.35
864.592	25.26
864.766	17.07
864.939	8.87
865.113	39.59
865.287	90.79
865.461	-15.7
865.634	23.21
865.808	17.07
865.982	-9.56
866.156	-5.46
866.329	-23.89
866.503	64.17
866.676	86.7
866.85	92.84
867.024	-21.85
867.197	41.64
867.371	37.55
867.544	21.16
867.718	25.26
867.891	64.17
868.065	-21.85
868.238	68.27
868.412	37.55
868.585	-40.28
868.759	4.78
868.932	43.69
869.105	-42.32
869.279	-3.41
869.452	-32.08
869.625	-30.04
869.799	64.17
869.972	12.97
870.145	45.74
870.319	-1.37
870.492	19.11
870.665	27.31
870.838	-66.9
871.011	-9.56
871.185	25.26
871.358	8.87
871.531	17.07
871.704	41.64
871.877	47.79
872.05	6.83
872.223	10.92
872.396	49.83
872.569	25.26
872.742	33.45
872.915	-48.47
873.088	-7.51
873.261	51.88
873.434	80.55
873.607	19.11
873.78	27.31
873.953	4.78
874.126	68.27
874.299	45.74
874.471	-13.65
874.644	-7.51
874.817	2.73
874.99	8.87
875.163	-7.51
875.335	-9.56
875.508	41.64
875.681	64.17
875.853	-36.18
876.026	17.07
876.199	43.69
876.371	10.92
876.544	37.55
876.717	60.07
876.889	10.92
877.062	-38.23
877.234	10.92
877.407	0.68
877.579	55.98
877.752	8.87
877.924	43.69
878.097	82.6
878.269	8.87
878.442	10.92
878.614	-34.13
878.786	27.31
878.959	64.17
879.131	-3.41
879.303	-11.61
879.476	8.87
879.648	27.31
879.82	-1.37
879.993	-56.66
880.165	-44.37
880.337	6.83
880.509	68.27
880.681	-105.81
880.854	2.73
881.026	66.22
881.198	35.5
881.37	-23.89
881.542	23.21
881.714	-32.08
881.886	41.64
882.058	-25.94
882.23	-56.66
882.402	68.27
882.574	53.93
882.746	45.74
882.918	23.21
883.09	58.03
883.262	17.07
883.434	92.84
883.606	-46.42
883.778	-19.8
883.95	6.83
884.122	-44.37
884.293	58.03
884.465	45.74
884.637	33.45
884.809	-13.65
884.98	17.07
885.152	4.78
885.324	70.31
885.496	88.75
885.667	-27.99
885.839	0.68
886.011	-3.41
886.182	49.83
886.354	4.78
886.525	27.31
886.697	70.31
886.869	43.69
887.04	-7.51
887.212	0.68
887.383	86.7
887.555	-30.04
887.726	-23.89
887.897	-3.41
888.069	17.07
888.24	21.16
888.412	17.07
888.583	60.07
888.754	12.97
888.926	-32.08
889.097	23.21
889.268	-73.04
889.44	-3.41
889.611	-52.56
889.782	-17.75
889.953	-36.18
890.125	84.65
890.296	-36.18
890.467	35.5
890.638	53.93
890.809	-15.7
890.98	-83.28
891.151	27.31
891.323	62.12
891.494	-7.51
891.665	2.73
891.836	43.69
892.007	43.69
892.178	27.31
892.349	84.65
892.52	33.45
892.691	-9.56
892.862	10.92
893.032	-5.46
893.203	-97.62
893.374	17.07
893.545	78.51
893.716	-38.23
893.887	-19.8
894.057	-38.23
894.228	29.35
894.399	-54.61
894.57	55.98
894.74	27.31
894.911	49.83
895.082	-15.7
895.253	-38.23
895.423	47.79
895.594	12.97
895.764	-1.37
895.935	-15.7
896.106	51.88
896.276	-27.99
896.447	27.31
896.617	19.11
896.788	6.83
896.958	-5.46
897.129	-23.89
897.299	17.07
897.47	35.5
897.64	25.26
897.81	25.26
897.981	12.97
898.151	25.26
898.322	10.92
898.492	27.31
898.662	21.16
898.832	-81.24
899.003	-40.28
899.173	-5.46
899.343	15.02
899.513	-40.28
