Data from USB4F104151__182__14-20-13-372.txt Node

Date: Thu Mar 13 14:20:13 EDT 2025
User: louis
Spectrometer: USB4F10415
Trigger mode: 4
Integration Time (sec): 2.000000E-2
Scans to average: 1
Electric dark correction enabled: true
Nonlinearity correction enabled: false
Boxcar width: 0
XAxis mode: Wavelengths
Number of Pixels in Spectrum: 3648
>>>>>Begin Spectral Data<<<<<
178.204	-145.92
178.424	-145.92
178.644	-145.92
178.864	-168.45
179.084	-100.86
179.304	-12.8
179.524	3.58
179.744	11.78
179.964	44.54
180.184	-31.23
180.404	-43.52
180.624	-29.18
180.844	19.97
181.064	-20.99
181.283	-8.7
181.503	26.11
181.723	40.45
181.943	-41.47
182.163	67.07
182.383	-16.9
182.602	52.74
182.822	42.5
183.042	60.93
183.262	-41.47
183.482	52.74
183.701	44.54
183.921	-82.43
184.141	-18.94
184.361	81.41
184.58	-31.23
184.8	-8.7
185.02	11.78
185.239	-33.28
185.459	-14.85
185.679	40.45
185.898	-41.47
186.118	-0.51
186.338	-10.75
186.557	7.68
186.777	1.54
186.997	9.73
187.216	-20.99
187.436	114.17
187.655	-12.8
187.875	67.07
188.095	15.87
188.314	77.31
188.534	15.87
188.753	58.88
188.973	67.07
189.192	28.16
189.412	-31.23
189.631	-80.38
189.851	11.78
190.07	73.21
190.29	22.02
190.509	-16.9
190.729	-78.33
190.948	1.54
191.168	56.83
191.387	69.12
191.607	7.68
191.826	-45.57
192.045	15.87
192.265	-64
192.484	26.11
192.704	-20.99
192.923	-37.38
193.142	93.69
193.362	22.02
193.581	34.3
193.8	3.58
194.02	75.26
194.239	36.35
194.458	1.54
194.678	11.78
194.897	89.6
195.116	48.64
195.335	-25.09
195.555	7.68
195.774	24.06
195.993	3.58
196.212	-16.9
196.432	36.35
196.651	-37.38
196.87	-0.51
197.089	114.17
197.308	40.45
197.528	42.5
197.747	40.45
197.966	15.87
198.185	17.92
198.404	67.07
198.623	19.97
198.842	75.26
199.062	50.69
199.281	9.73
199.5	7.68
199.719	60.93
199.938	24.06
200.157	34.3
200.376	1.54
200.595	97.79
200.814	-43.52
201.033	3.58
201.252	58.88
201.471	50.69
201.69	79.36
201.909	-27.14
202.128	28.16
202.347	-49.66
202.566	48.64
202.785	11.78
203.004	-16.9
203.223	114.17
203.442	34.3
203.661	52.74
203.879	7.68
204.098	81.41
204.317	1.54
204.536	22.02
204.755	-49.66
204.974	87.55
205.193	32.26
205.411	73.21
205.63	89.6
205.849	34.3
206.068	50.69
206.287	44.54
206.505	26.11
206.724	-8.7
206.943	46.59
207.162	50.69
207.381	-41.47
207.599	-20.99
207.818	36.35
208.037	7.68
208.255	-12.8
208.474	19.97
208.693	87.55
208.911	9.73
209.13	50.69
209.349	48.64
209.567	-16.9
209.786	22.02
210.005	42.5
210.223	54.78
210.442	-39.42
210.661	46.59
210.879	-72.19
211.098	15.87
211.316	32.26
211.535	54.78
211.753	40.45
211.972	15.87
212.191	32.26
212.409	-16.9
212.628	17.92
212.846	85.5
213.065	56.83
213.283	40.45
213.502	93.69
213.72	-8.7
213.938	-68.09
214.157	13.82
214.375	-0.51
214.594	-43.52
214.812	56.83
215.031	11.78
215.249	-18.94
215.467	24.06
215.686	30.21
215.904	87.55
216.122	44.54
216.341	81.41
216.559	-29.18
216.778	40.45
216.996	-39.42
217.214	-68.09
217.432	-10.75
217.651	1.54
217.869	19.97
218.087	-43.52
218.306	34.3
218.524	32.26
218.742	-33.28
218.96	65.02
219.179	17.92
219.397	34.3
219.615	15.87
219.833	36.35
220.051	-64
220.27	89.6
220.488	3.58
220.706	17.92
220.924	-25.09
221.142	-90.62
221.36	77.31
221.578	3.58
221.796	-14.85
222.015	-14.85
222.233	17.92
222.451	-8.7
222.669	-37.38
222.887	-27.14
223.105	-39.42
223.323	15.87
223.541	-53.76
223.759	9.73
223.977	-8.7
224.195	93.69
224.413	19.97
224.631	48.64
224.849	-12.8
225.067	89.6
225.285	75.26
225.503	-0.51
225.721	-33.28
225.939	1.54
226.157	9.73
226.375	-2.56
226.592	24.06
226.81	17.92
227.028	-49.66
227.246	81.41
227.464	30.21
227.682	62.98
227.9	93.69
228.117	40.45
228.335	-43.52
228.553	-4.61
228.771	32.26
228.989	1.54
229.206	83.45
229.424	-29.18
229.642	-43.52
229.86	9.73
230.077	-8.7
230.295	11.78
230.513	93.69
230.731	67.07
230.948	75.26
231.166	7.68
231.384	-16.9
231.601	-14.85
231.819	-0.51
232.037	24.06
232.254	7.68
232.472	-33.28
232.689	-37.38
232.907	22.02
233.125	95.74
233.342	19.97
233.56	-61.95
233.777	11.78
233.995	1.54
234.213	11.78
234.43	24.06
234.648	-57.86
234.865	-23.04
235.083	17.92
235.3	-37.38
235.518	-29.18
235.735	-16.9
235.953	40.45
236.17	83.45
236.388	48.64
236.605	-35.33
236.822	79.36
237.04	26.11
237.257	56.83
237.475	-0.51
237.692	-0.51
237.909	91.65
238.127	-6.66
238.344	-72.19
238.562	11.78
238.779	-39.42
238.996	-12.8
239.214	1.54
239.431	40.45
239.648	40.45
239.865	-18.94
240.083	17.92
240.3	71.17
240.517	54.78
240.735	-16.9
240.952	73.21
241.169	15.87
241.386	30.21
241.603	-47.62
241.821	19.97
242.038	65.02
242.255	-33.28
242.472	40.45
242.689	79.36
242.907	-16.9
243.124	-25.09
243.341	19.97
243.558	-6.66
243.775	-68.09
243.992	-14.85
244.209	24.06
244.426	108.03
244.643	24.06
244.86	11.78
245.078	24.06
245.295	48.64
245.512	-41.47
245.729	-14.85
245.946	40.45
246.163	-37.38
246.38	38.4
246.597	19.97
246.814	46.59
247.031	-16.9
247.248	24.06
247.464	48.64
247.681	67.07
247.898	40.45
248.115	-0.51
248.332	-31.23
248.549	-12.8
248.766	24.06
248.983	17.92
249.2	-4.61
249.417	99.84
249.633	1.54
249.85	97.79
250.067	-29.18
250.284	48.64
250.501	-8.7
250.717	71.17
250.934	17.92
251.151	-66.05
251.368	17.92
251.585	73.21
251.801	34.3
252.018	-8.7
252.235	62.98
252.451	22.02
252.668	11.78
252.885	19.97
253.102	-41.47
253.318	26.11
253.535	48.64
253.752	-20.99
253.968	22.02
254.185	-43.52
254.401	103.93
254.618	32.26
254.835	-33.28
255.051	-25.09
255.268	-16.9
255.484	97.79
255.701	40.45
255.917	112.13
256.134	32.26
256.351	26.11
256.567	-43.52
256.784	24.06
257	32.26
257.217	30.21
257.433	140.8
257.65	32.26
257.866	56.83
258.082	-33.28
258.299	-8.7
258.515	48.64
258.732	32.26
258.948	32.26
259.165	40.45
259.381	28.16
259.597	19.97
259.814	-4.61
260.03	-4.61
260.246	24.06
260.463	5.63
260.679	17.92
260.895	30.21
261.112	67.07
261.328	22.02
261.544	-16.9
261.761	87.55
261.977	19.97
262.193	9.73
262.409	89.6
262.626	-16.9
262.842	19.97
263.058	13.82
263.274	40.45
263.49	-10.75
263.707	-0.51
263.923	85.5
264.139	32.26
264.355	7.68
264.571	62.98
264.787	-0.51
265.004	75.26
265.22	42.5
265.436	-0.51
265.652	15.87
265.868	42.5
266.084	44.54
266.3	17.92
266.516	7.68
266.732	67.07
266.948	60.93
267.164	32.26
267.38	22.02
267.596	65.02
267.812	110.08
268.028	-45.57
268.244	-37.38
268.46	24.06
268.676	7.68
268.892	24.06
269.108	22.02
269.324	-0.51
269.54	-31.23
269.756	15.87
269.972	28.16
270.188	65.02
270.403	56.83
270.619	-12.8
270.835	48.64
271.051	62.98
271.267	-45.57
271.483	-33.28
271.698	-23.04
271.914	36.35
272.13	24.06
272.346	3.58
272.562	9.73
272.777	52.74
272.993	3.58
273.209	-0.51
273.425	17.92
273.64	-47.62
273.856	44.54
274.072	-39.42
274.287	42.5
274.503	85.5
274.719	-33.28
274.934	-35.33
275.15	3.58
275.366	7.68
275.581	11.78
275.797	46.59
276.012	114.17
276.228	-0.51
276.444	-16.9
276.659	42.5
276.875	-27.14
277.09	34.3
277.306	-14.85
277.521	24.06
277.737	-4.61
277.952	67.07
278.168	30.21
278.383	17.92
278.599	105.98
278.814	26.11
279.03	3.58
279.245	13.82
279.461	58.88
279.676	75.26
279.892	-55.81
280.107	-0.51
280.322	-74.24
280.538	28.16
280.753	-16.9
280.969	7.68
281.184	-33.28
281.399	89.6
281.615	-16.9
281.83	40.45
282.045	-47.62
282.26	-20.99
282.476	28.16
282.691	50.69
282.906	73.21
283.122	-12.8
283.337	40.45
283.552	26.11
283.767	-41.47
283.983	69.12
284.198	24.06
284.413	50.69
284.628	-0.51
284.843	48.64
285.058	58.88
285.274	13.82
285.489	15.87
285.704	15.87
285.919	40.45
286.134	40.45
286.349	-20.99
286.564	22.02
286.779	105.98
286.995	79.36
287.21	-66.05
287.425	69.12
287.64	-23.04
287.855	28.16
288.07	38.4
288.285	40.45
288.5	24.06
288.715	24.06
288.93	-25.09
289.145	-35.33
289.36	34.3
289.575	24.06
289.79	83.45
290.004	28.16
290.219	-18.94
290.434	-0.51
290.649	-82.43
290.864	-41.47
291.079	-6.66
291.294	30.21
291.509	77.31
291.724	56.83
291.938	-8.7
292.153	75.26
292.368	-8.7
292.583	36.35
292.798	15.87
293.012	32.26
293.227	-16.9
293.442	56.83
293.657	112.13
293.871	11.78
294.086	69.12
294.301	87.55
294.516	-23.04
294.73	52.74
294.945	28.16
295.16	38.4
295.374	17.92
295.589	40.45
295.804	-23.04
296.018	-16.9
296.233	99.84
296.447	-0.51
296.662	32.26
296.877	67.07
297.091	-0.51
297.306	81.41
297.52	50.69
297.735	26.11
297.949	26.11
298.164	48.64
298.378	-31.23
298.593	9.73
298.807	24.06
299.022	7.68
299.236	30.21
299.451	40.45
299.665	11.78
299.88	81.41
300.094	19.97
300.309	1.54
300.523	85.5
300.737	62.98
300.952	7.68
301.166	36.35
301.381	3.58
301.595	48.64
301.809	71.17
302.024	-35.33
302.238	-25.09
302.452	9.73
302.667	24.06
302.881	81.41
303.095	65.02
303.309	24.06
303.524	11.78
303.738	52.74
303.952	15.87
304.166	44.54
304.381	7.68
304.595	40.45
304.809	24.06
305.023	-2.56
305.237	-43.52
305.452	-8.7
305.666	110.08
305.88	34.3
306.094	26.11
306.308	54.78
306.522	-8.7
306.736	93.69
306.95	38.4
307.164	11.78
307.379	15.87
307.593	50.69
307.807	32.26
308.021	44.54
308.235	-18.94
308.449	-31.23
308.663	36.35
308.877	42.5
309.091	-16.9
309.305	32.26
309.519	-66.05
309.733	-20.99
309.947	30.21
310.161	40.45
310.374	79.36
310.588	89.6
310.802	-64
311.016	-55.81
311.23	-25.09
311.444	1.54
311.658	9.73
311.872	-6.66
312.085	-55.81
312.299	89.6
312.513	118.27
312.727	58.88
312.941	1.54
313.154	9.73
313.368	83.45
313.582	108.03
313.796	1.54
314.009	1.54
314.223	46.59
314.437	24.06
314.651	56.83
314.864	26.11
315.078	-8.7
315.292	-49.66
315.505	54.78
315.719	81.41
315.933	11.78
316.146	38.4
316.36	22.02
316.573	17.92
316.787	17.92
317.001	60.93
317.214	11.78
317.428	44.54
317.641	77.31
317.855	-39.42
318.068	-16.9
318.282	15.87
318.495	97.79
318.709	38.4
318.922	67.07
319.136	48.64
319.349	24.06
319.563	83.45
319.776	-2.56
319.99	13.82
320.203	38.4
320.417	32.26
320.63	3.58
320.843	93.69
321.057	85.5
321.27	-12.8
321.483	-8.7
321.697	-27.14
321.91	-31.23
322.124	69.12
322.337	15.87
322.55	40.45
322.763	-39.42
322.977	-14.85
323.19	11.78
323.403	50.69
323.617	65.02
323.83	40.45
324.043	-57.86
324.256	79.36
324.469	24.06
324.683	15.87
324.896	-8.7
325.109	54.78
325.322	-29.18
325.535	71.17
325.748	89.6
325.962	30.21
326.175	-33.28
326.388	44.54
326.601	48.64
326.814	40.45
327.027	1.54
327.24	101.89
327.453	1.54
327.666	40.45
327.879	56.83
328.092	34.3
328.305	44.54
328.518	-33.28
328.731	-20.99
328.944	24.06
329.157	24.06
329.37	26.11
329.583	56.83
329.796	15.87
330.009	-47.62
330.222	67.07
330.435	38.4
330.648	58.88
330.861	40.45
331.073	40.45
331.286	26.11
331.499	56.83
331.712	1.54
331.925	34.3
332.138	28.16
332.35	65.02
332.563	-12.8
332.776	28.16
332.989	32.26
333.202	44.54
333.414	7.68
333.627	-25.09
333.84	32.26
334.053	114.17
334.265	-41.47
334.478	15.87
334.691	-29.18
334.903	65.02
335.116	58.88
335.329	40.45
335.541	56.83
335.754	54.78
335.966	9.73
336.179	-35.33
336.392	-37.38
336.604	-8.7
336.817	48.64
337.029	-12.8
337.242	-0.51
337.454	122.37
337.667	15.87
337.88	73.21
338.092	5.63
338.305	32.26
338.517	91.65
338.729	-12.8
338.942	34.3
339.154	11.78
339.367	32.26
339.579	65.02
339.792	34.3
340.004	52.74
340.217	11.78
340.429	73.21
340.641	7.68
340.854	105.98
341.066	65.02
341.278	-8.7
341.491	44.54
341.703	-8.7
341.915	36.35
342.128	24.06
342.34	1.54
342.552	-0.51
342.764	69.12
342.977	65.02
343.189	52.74
343.401	1.54
343.613	28.16
343.826	9.73
344.038	42.5
344.25	7.68
344.462	-16.9
344.674	73.21
344.886	97.79
345.099	40.45
345.311	38.4
345.523	-14.85
345.735	-45.57
345.947	89.6
346.159	-20.99
346.371	44.54
346.583	-20.99
346.795	103.93
347.007	69.12
347.219	7.68
347.431	11.78
347.643	28.16
347.855	7.68
348.067	60.93
348.279	36.35
348.491	24.06
348.703	-41.47
348.915	7.68
349.127	-8.7
349.339	32.26
349.551	17.92
349.763	77.31
349.975	48.64
350.187	-0.51
350.399	9.73
350.61	54.78
350.822	38.4
351.034	1.54
351.246	62.98
351.458	67.07
351.669	50.69
351.881	1.54
352.093	48.64
352.305	67.07
352.517	105.98
352.728	81.41
352.94	17.92
353.152	24.06
353.363	24.06
353.575	34.3
353.787	83.45
353.999	97.79
354.21	138.75
354.422	-10.75
354.633	-39.42
354.845	32.26
355.057	52.74
355.268	32.26
355.48	15.87
355.692	32.26
355.903	-6.66
356.115	46.59
356.326	1.54
356.538	44.54
356.749	-12.8
356.961	83.45
357.172	34.3
357.384	-16.9
357.595	52.74
357.807	99.84
358.018	-12.8
358.23	30.21
358.441	105.98
358.653	93.69
358.864	77.31
359.075	-41.47
359.287	11.78
359.498	108.03
359.709	42.5
359.921	65.02
360.132	11.78
360.344	5.63
360.555	89.6
360.766	30.21
360.977	42.5
361.189	28.16
361.4	24.06
361.611	118.27
361.823	-8.7
362.034	77.31
362.245	-18.94
362.456	7.68
362.667	-4.61
362.879	17.92
363.09	48.64
363.301	-39.42
363.512	7.68
363.723	13.82
363.935	5.63
364.146	5.63
364.357	36.35
364.568	48.64
364.779	3.58
364.99	122.37
365.201	40.45
365.412	126.46
365.623	-4.61
365.834	34.3
366.045	75.26
366.256	73.21
366.467	71.17
366.678	116.22
366.889	28.16
367.1	30.21
367.311	138.75
367.522	-37.38
367.733	83.45
367.944	73.21
368.155	-6.66
368.366	69.12
368.577	30.21
368.788	34.3
368.999	-0.51
369.209	-10.75
369.42	99.84
369.631	114.17
369.842	65.02
370.053	114.17
370.264	-8.7
370.474	42.5
370.685	44.54
370.896	48.64
371.107	38.4
371.317	83.45
371.528	15.87
371.739	79.36
371.95	-16.9
372.16	1.54
372.371	17.92
372.582	36.35
372.792	85.5
373.003	-25.09
373.214	36.35
373.424	24.06
373.635	67.07
373.846	114.17
374.056	24.06
374.267	75.26
374.477	40.45
374.688	26.11
374.898	19.97
375.109	-33.28
375.319	15.87
375.53	122.37
375.74	15.87
375.951	52.74
376.161	26.11
376.372	56.83
376.582	50.69
376.793	81.41
377.003	11.78
377.214	-6.66
377.424	122.37
377.635	22.02
377.845	52.74
378.055	40.45
378.266	32.26
378.476	116.22
378.686	32.26
378.897	34.3
379.107	19.97
379.317	1.54
379.528	103.93
379.738	50.69
379.948	46.59
380.158	-16.9
380.369	26.11
380.579	36.35
380.789	65.02
380.999	118.27
381.21	56.83
381.42	69.12
381.63	32.26
381.84	75.26
382.05	7.68
382.261	146.94
382.471	17.92
382.681	75.26
382.891	148.99
383.101	124.41
383.311	48.64
383.521	-8.7
383.731	62.98
383.941	73.21
384.151	-4.61
384.361	36.35
384.571	32.26
384.781	34.3
384.991	93.69
385.201	1.54
385.411	7.68
385.621	108.03
385.831	54.78
386.041	24.06
386.251	36.35
386.461	58.88
386.671	24.06
386.881	-14.85
387.091	52.74
387.301	50.69
387.511	52.74
387.72	15.87
387.93	56.83
388.14	-6.66
388.35	81.41
388.56	24.06
388.769	-0.51
388.979	56.83
389.189	-45.57
389.399	40.45
389.609	69.12
389.818	91.65
390.028	-45.57
390.238	97.79
390.447	34.3
390.657	42.5
390.867	15.87
391.076	5.63
391.286	67.07
391.496	11.78
391.705	15.87
391.915	81.41
392.125	91.65
392.334	148.99
392.544	93.69
392.753	69.12
392.963	24.06
393.172	56.83
393.382	-49.66
393.591	155.13
393.801	28.16
394.01	153.09
394.22	32.26
394.429	77.31
394.639	73.21
394.848	48.64
395.058	40.45
395.267	138.75
395.477	11.78
395.686	89.6
395.895	48.64
396.105	1.54
396.314	19.97
396.524	146.94
396.733	17.92
396.942	42.5
397.152	138.75
397.361	77.31
397.57	48.64
397.78	50.69
397.989	108.03
398.198	146.94
398.407	81.41
398.617	99.84
398.826	67.07
399.035	163.33
399.244	52.74
399.453	118.27
399.663	87.55
399.872	167.42
400.081	32.26
400.29	52.74
400.499	77.31
400.708	75.26
400.917	69.12
401.127	81.41
401.336	79.36
401.545	241.15
401.754	171.52
401.963	120.32
402.172	103.93
402.381	85.5
402.59	77.31
402.799	108.03
403.008	148.99
403.217	99.84
403.426	163.33
403.635	54.78
403.844	126.46
404.053	122.37
404.262	161.28
404.471	124.41
404.68	169.47
404.888	136.7
405.097	134.65
405.306	175.61
405.515	169.47
405.724	220.67
405.933	220.67
406.142	89.6
406.35	226.81
406.559	140.8
406.768	140.8
406.977	151.04
407.185	173.57
407.394	228.86
407.603	130.56
407.812	204.28
408.02	247.29
408.229	200.19
408.438	206.33
408.646	212.48
408.855	247.29
409.064	302.59
409.272	249.34
409.481	206.33
409.69	294.4
409.898	232.96
410.107	343.55
410.315	359.93
410.524	329.21
410.733	290.3
410.941	304.64
411.15	361.98
411.358	374.27
411.567	394.75
411.775	368.12
411.984	435.71
412.192	388.6
412.401	413.18
412.609	484.86
412.818	544.25
413.026	486.9
413.234	542.2
413.443	493.05
413.651	536.06
413.86	531.96
414.068	597.49
414.276	562.68
414.485	607.73
414.693	609.78
414.901	708.09
415.11	740.85
415.318	755.19
415.526	695.8
415.734	728.56
415.943	781.81
416.151	816.63
416.359	802.29
416.567	859.63
416.776	779.76
416.984	902.64
417.192	959.99
417.4	951.79
417.608	966.13
417.817	1019.38
418.025	1138.16
418.233	1162.73
418.441	1089.01
418.649	1158.64
418.857	1281.52
419.065	1279.47
419.273	1228.27
419.481	1435.11
419.689	1469.93
419.897	1416.68
420.105	1510.89
420.313	1566.18
420.521	1564.14
420.729	1629.67
420.937	1658.34
421.145	1732.07
421.353	1816.04
421.561	2014.69
421.769	1908.19
421.977	2119.14
422.185	2037.22
422.393	2112.99
422.601	2268.64
422.809	2194.91
423.017	2098.66
423.224	2309.6
423.432	2432.47
423.64	2455
423.848	2727.38
424.056	2579.93
424.263	2837.97
424.471	2792.92
424.679	2868.69
424.887	2989.52
425.094	3208.66
425.302	3042.77
425.51	3110.35
425.718	3241.42
425.925	3388.88
426.133	3567.05
426.341	3755.46
426.548	3755.46
426.756	3704.26
426.964	3857.86
427.171	4140.48
427.379	4277.69
427.586	4474.3
427.794	4431.29
428.001	4513.21
428.209	4926.9
428.417	4808.12
428.624	5062.07
428.832	5121.46
429.039	5154.23
429.247	5174.71
429.454	5668.27
429.662	6086.05
429.869	5496.24
430.076	5852.58
430.284	5586.35
430.491	6030.76
430.699	6262.18
430.906	6317.47
431.114	6456.73
431.321	6620.57
431.528	6886.81
431.736	7261.59
431.943	7591.31
432.15	7443.85
432.358	7454.09
432.565	7857.54
432.772	7908.74
432.979	8242.56
433.187	8301.95
433.394	8390.02
433.601	9084.28
433.808	8971.64
434.016	8832.38
434.223	9360.75
434.43	9850.22
434.637	9600.37
434.844	10282.34
435.052	10280.29
435.259	10485.09
435.466	10485.09
435.673	10153.32
435.88	11017.56
436.087	11529.55
436.294	11470.16
436.501	11324.76
436.708	11730.25
436.915	11865.42
437.122	12574.02
437.329	12334.4
437.537	12639.55
437.743	12907.84
437.95	12844.35
438.157	13813.04
438.364	13991.21
438.571	14099.75
438.778	13991.21
438.985	15228.18
439.192	14710.05
439.399	15197.46
439.606	14900.51
439.813	15662.35
440.02	16545.03
440.227	16502.02
440.433	16188.68
440.64	16719.1
440.847	16778.5
441.054	17306.87
441.261	18136.3
441.467	18013.42
441.674	18435.3
441.881	18947.29
442.088	19016.93
442.294	18904.29
442.501	19213.53
442.708	19727.57
442.914	20264.14
443.121	21253.31
443.328	20782.27
443.534	22004.91
443.741	21431.48
443.948	21048.51
444.154	22908.07
444.361	22631.59
444.568	22615.21
444.774	22609.06
444.981	22846.63
445.187	23825.56
445.394	24450.19
445.6	24140.94
445.807	26653.8
446.013	25547.9
446.22	25922.68
446.426	26954.85
446.633	27294.82
446.839	28283.98
447.046	27106.4
447.252	28417.1
447.459	28447.82
447.665	28275.79
447.871	29754.43
448.078	30581.81
448.284	29250.63
448.491	29987.89
448.697	31067.17
448.903	32013.34
449.11	32009.24
449.316	31384.61
449.522	31902.75
449.728	32934.92
449.935	33299.46
450.141	33070.09
450.347	33932.28
450.553	32678.93
450.76	33022.98
450.966	34204.66
451.172	33700.86
451.378	34499.57
451.584	34245.62
451.791	34911.21
451.997	34849.77
452.203	35466.21
452.409	35554.27
452.615	35312.61
452.821	34081.78
453.027	33385.47
453.233	35808.22
453.44	34018.3
453.646	34747.37
453.852	34823.15
454.058	34753.52
454.264	33960.95
454.47	35218.41
454.676	33924.09
454.882	35304.42
455.088	32375.83
455.294	32332.82
455.5	33008.65
455.705	33139.72
455.911	32082.97
456.117	31380.51
456.323	31048.74
456.529	29353.02
456.735	31054.89
456.941	30063.67
457.147	29725.75
457.352	28773.45
457.558	28413.01
457.764	28181.59
457.97	27829.34
458.176	27319.39
458.381	27485.28
458.587	25986.16
458.793	26012.79
458.999	24779.91
459.204	26582.12
459.41	25750.65
459.616	23909.52
459.821	24380.56
460.027	24128.66
460.233	23258.27
460.438	22535.34
460.644	22660.26
460.85	21329.08
461.055	21079.23
461.261	20980.93
461.466	19537.11
461.672	18857.18
461.878	20411.59
462.083	19152.09
462.289	18961.63
462.494	18377.96
462.7	17597.68
462.905	17325.3
463.111	17784.05
463.316	17849.58
463.522	17620.21
463.727	17483
463.932	17345.78
464.138	17276.15
464.343	17206.52
464.549	16571.65
464.754	17278.2
464.959	17138.94
465.165	17018.11
465.37	16454.92
465.575	15795.47
465.781	16448.77
465.986	16674.05
466.191	15951.12
466.397	15478.04
466.602	15129.88
466.807	15414.55
467.012	15695.12
467.218	15482.13
467.423	15121.69
467.628	15420.69
467.833	15971.6
468.038	15648.02
468.244	14992.67
468.449	15297.81
468.654	15033.63
468.859	14798.11
469.064	14726.43
469.269	14445.86
469.474	14521.63
469.679	14697.76
469.885	14220.58
470.09	14419.24
470.295	14318.89
470.5	14023.98
470.705	14089.51
470.91	13894.96
471.115	13499.7
471.32	13720.88
471.525	13927.72
471.73	13538.61
471.935	13362.48
472.139	13059.38
472.344	13176.12
472.549	12848.44
472.754	12856.64
472.959	12688.7
473.164	12295.49
473.369	12057.93
473.574	12639.55
473.778	12369.22
473.983	12569.92
474.188	12434.75
474.393	11902.28
474.598	11928.91
474.802	11734.35
475.007	11537.74
475.212	11928.91
475.417	11246.93
475.621	11265.36
475.826	11361.62
476.031	11091.29
476.235	10769.76
476.44	11035.99
476.645	10679.65
476.849	10825.05
477.054	10722.65
477.259	10573.15
477.463	10550.62
477.668	10288.48
477.872	10417.51
478.077	10274.15
478.282	9897.32
478.486	9854.31
478.691	9981.29
478.895	9928.04
479.1	9815.4
479.304	9659.76
479.509	9502.06
479.713	9612.65
479.918	9403.76
480.122	9479.54
480.326	9383.28
480.531	9323.89
480.735	9348.47
480.94	9215.35
481.144	9436.53
481.348	9053.56
481.553	9104.76
481.757	8920.44
481.961	9160.05
482.166	9235.83
482.37	9221.49
482.574	8842.62
482.778	9022.84
482.983	9219.44
483.187	9121.14
483.391	8830.33
483.595	8848.76
483.8	8934.78
484.004	9123.19
484.208	8969.59
484.412	8963.45
484.616	8973.69
484.821	9039.22
485.025	8883.58
485.229	9110.9
485.433	9084.28
485.637	8994.17
485.841	8775.03
486.045	9076.09
486.249	9061.75
486.453	8756.6
486.657	8908.15
486.861	9084.28
487.065	8897.91
487.269	9215.35
487.473	8756.6
487.677	9133.43
487.881	9137.52
488.085	9053.56
488.289	9147.76
488.493	8969.59
488.697	8977.78
488.901	9086.33
489.105	8912.25
489.309	9139.57
489.512	9012.6
489.716	9196.92
489.92	8959.35
490.124	9074.04
490.328	9348.47
490.531	9166.2
490.735	9284.98
490.939	9129.33
491.143	9370.99
491.346	9227.64
491.55	9452.91
491.754	9272.69
491.958	9330.03
492.161	9307.51
492.365	9553.26
492.569	9432.43
492.772	9338.23
492.976	9780.59
493.18	9592.17
493.383	9753.96
493.587	10069.35
493.79	9944.42
493.994	9741.68
494.197	10116.45
494.401	10028.39
494.605	10124.65
494.808	10155.37
495.012	10196.32
495.215	10169.7
495.419	10460.51
495.622	10255.72
495.825	10329.44
496.029	10530.14
496.232	10800.48
496.436	10495.33
496.639	10771.8
496.843	10798.43
497.046	11124.05
497.249	11001.18
497.453	10992.98
497.656	11349.33
497.859	11287.89
498.063	11380.05
498.266	11584.85
498.469	11726.16
498.673	11724.11
498.876	11877.71
499.079	12115.27
499.282	11773.26
499.485	12533.06
499.689	12315.97
499.892	12436.8
500.095	12696.89
500.298	12975.42
500.501	12842.3
500.705	13114.68
500.908	13331.76
501.111	13292.85
501.314	13321.52
501.517	13514.03
501.72	13753.65
501.923	13864.24
502.126	14042.41
502.329	14179.62
502.532	14222.63
502.735	14376.23
502.938	14996.76
503.141	14738.72
503.344	14933.28
503.547	14689.57
503.75	15508.76
503.953	15275.29
504.156	15461.65
504.359	15684.88
504.562	15590.67
504.765	16145.67
504.968	16157.96
505.17	16389.38
505.373	16452.87
505.576	16815.36
505.779	16768.26
505.982	17001.72
506.185	17229.05
506.387	17235.19
506.59	17499.38
506.793	17845.49
506.996	17640.69
507.198	18375.91
507.401	18490.6
507.604	18191.59
507.807	18887.9
508.009	18959.58
508.212	19014.88
508.415	18957.53
508.617	19455.19
508.82	19492.05
509.022	19406.04
509.225	19973.33
509.428	19926.22
509.63	20264.14
509.833	20280.52
510.035	20925.63
510.238	20743.36
510.44	20835.52
510.643	21353.66
510.845	21068.99
511.048	21488.82
511.25	22013.1
511.453	21988.53
511.655	22473.9
511.858	22592.68
512.06	22576.3
512.262	22840.48
512.465	22674.6
512.667	23252.13
512.87	23452.83
513.072	23272.6
513.274	23895.19
513.477	23993.49
513.679	24233.1
513.881	24499.34
514.084	25263.23
514.286	24640.65
514.488	25289.85
514.69	25595
514.893	25619.58
515.095	25517.18
515.297	26006.64
515.499	25980.02
515.701	26459.24
515.904	26608.75
516.106	26715.24
516.308	26848.36
516.51	27505.76
516.712	27315.3
516.914	27901.01
517.116	28126.29
517.318	28206.16
517.52	28447.82
517.722	28615.76
517.925	28865.61
518.127	29469.76
518.329	29408.32
518.531	29064.26
518.733	29899.83
518.935	30121.01
519.136	30506.03
519.338	30440.5
519.54	30266.42
519.742	30954.54
519.944	31147.04
520.146	31921.18
520.348	31620.13
520.55	31671.32
520.752	32093.21
520.954	32527.38
521.155	32046.1
521.357	32926.73
521.559	32984.07
521.761	33397.76
521.963	33315.84
522.164	33553.41
522.366	33498.11
522.568	33991.67
522.77	34372.6
522.971	34620.4
523.173	34118.65
523.375	34751.47
523.576	34821.1
523.778	34685.93
523.98	35546.08
524.181	35744.73
524.383	35300.33
524.584	35435.49
524.786	36215.77
524.988	35972.06
525.189	35808.22
525.391	36215.77
525.592	36475.86
525.794	36758.48
525.995	36529.11
526.197	37157.83
526.398	36944.84
526.6	37424.07
526.801	37176.26
527.003	38032.32
527.204	37282.76
527.406	37864.38
527.607	37712.83
527.808	38185.91
528.01	37469.12
528.211	38036.41
528.412	38708.15
528.614	38634.42
528.815	38267.83
529.016	38669.23
529.218	38351.8
529.419	38550.45
529.62	38687.67
529.822	38343.61
530.023	39148.46
530.224	38861.74
530.425	38712.24
530.626	38904.75
530.828	38699.95
531.029	39463.85
531.23	38587.32
531.431	38925.23
531.632	39300.01
531.833	39642.02
532.035	39144.36
532.236	39410.6
532.437	39531.43
532.638	39226.28
532.839	39285.67
533.04	39435.17
533.241	39062.44
533.442	39816.1
533.643	39777.19
533.844	39203.75
534.045	39496.61
534.246	39308.2
534.447	39707.55
534.648	39484.33
534.849	39568.29
535.05	39168.94
535.251	39744.42
535.451	39154.6
535.652	39465.89
535.853	39457.7
536.054	39605.16
536.255	39611.3
536.456	39046.06
536.657	39865.25
536.857	39543.72
537.058	39558.05
537.259	39535.52
537.46	39396.26
537.66	39375.78
537.861	39416.74
538.062	39599.01
538.263	39617.44
538.463	39181.23
538.664	39797.66
538.865	39170.99
539.065	39265.19
539.266	38779.82
539.466	39809.95
539.667	38996.91
539.868	39689.12
540.068	39199.66
540.269	39410.6
540.469	39756.71
540.67	39168.94
540.87	39213.99
541.071	39121.84
541.271	39777.19
541.472	39373.74
541.672	38966.19
541.873	39263.14
542.073	39257
542.274	39678.88
542.474	39060.4
542.675	39263.14
542.875	39300.01
543.075	39093.16
543.276	38609.84
543.476	39244.71
543.676	38855.6
543.877	39279.53
544.077	39580.58
544.277	38970.29
544.478	38876.08
544.678	39187.37
544.878	38861.74
545.078	38730.67
545.279	38552.5
545.479	39013.29
545.679	39101.36
545.879	38867.89
546.079	39119.79
546.28	38869.93
546.48	38845.36
546.68	38980.53
546.88	38695.86
547.08	39130.03
547.28	38751.15
547.48	38308.79
547.68	38990.77
547.88	38093.75
548.081	38740.91
548.281	38677.43
548.481	38665.14
548.681	39025.58
548.881	38814.64
549.081	38636.47
549.28	38554.55
549.48	38585.27
549.68	38941.61
549.88	39095.21
550.08	38431.67
550.28	38378.42
550.48	38597.56
550.68	38601.65
550.88	38437.81
551.08	38314.94
551.279	38601.65
551.479	38392.76
551.679	38566.84
551.879	38595.51
552.079	38740.91
552.278	38640.56
552.478	38683.57
552.678	38620.08
552.878	38648.75
553.077	38458.29
553.277	38239.16
553.477	38560.69
553.676	38196.15
553.876	38396.85
554.076	38181.82
554.275	38101.95
554.475	38151.1
554.674	38269.88
554.874	38325.18
555.074	37856.19
555.273	38314.94
555.473	38339.51
555.672	37915.58
555.872	37913.53
556.071	38110.14
556.271	38103.99
556.47	38022.08
556.67	37766.08
556.869	37921.73
557.068	37950.4
557.268	37737.41
557.467	38040.51
557.667	37692.35
557.866	38075.32
558.065	37706.69
558.265	37481.41
558.464	37710.78
558.663	38165.43
558.863	37192.65
559.062	38052.8
559.261	37409.73
559.461	37688.26
559.66	37020.62
559.859	37389.25
560.058	37223.37
560.258	37112.78
560.457	37141.45
560.656	37708.74
560.855	37274.57
561.054	37188.55
561.253	37084.11
561.453	37143.5
561.652	37247.94
561.851	37129.16
562.05	36985.8
562.249	36885.45
562.448	37223.37
562.647	37014.48
562.846	36768.72
563.045	36582.35
563.244	36727.76
563.443	36948.94
563.642	36146.14
563.841	36426.71
564.04	36051.93
564.239	36799.44
564.438	36287.45
564.637	36391.89
564.836	36582.35
565.035	35988.44
565.234	36103.13
565.432	35734.49
565.631	36033.5
565.83	36117.46
566.029	35593.18
566.228	35783.65
566.427	35951.58
566.625	35634.14
566.824	35212.26
567.023	35673.06
567.222	35187.69
567.42	35769.31
567.619	35269.61
567.818	35591.14
568.016	35015.66
568.215	35333.09
568.414	35326.95
568.612	35703.78
568.811	35046.38
569.01	35113.96
569.208	34935.79
569.407	35269.61
569.605	34659.31
569.804	34647.02
570.002	34812.91
570.201	34724.85
570.4	34753.52
570.598	34178.04
570.797	34030.58
570.995	34354.16
571.193	34198.52
571.392	34493.43
571.59	33819.64
571.789	33993.72
571.987	33836.03
572.186	33844.22
572.384	33672.19
572.582	34014.2
572.781	33934.33
572.979	33276.93
573.177	33666.05
573.376	33588.22
573.574	33221.64
573.772	33520.64
573.971	33047.56
574.169	33119.24
574.367	33074.18
574.565	33250.31
574.763	32742.41
574.962	32994.31
575.16	32371.73
575.358	33029.13
575.556	32394.26
575.754	32766.99
575.952	32271.38
576.151	32676.88
576.349	32054.29
576.547	32189.46
576.745	32541.71
576.943	32072.73
577.141	31902.75
577.339	32379.92
577.537	32148.5
577.735	32078.87
577.933	31886.36
578.131	31661.08
578.329	31935.51
578.527	31478.82
578.725	31613.98
578.923	31573.02
579.121	31097.89
579.319	31317.03
579.516	31564.83
579.714	31339.55
579.912	31251.49
580.11	30815.27
580.308	31245.35
580.506	30993.45
580.704	30571.57
580.901	30923.82
581.099	30731.31
581.297	30387.25
581.495	30258.23
581.692	30794.79
581.89	30381.1
582.088	30645.29
582.285	30534.7
582.483	30274.61
582.681	29985.85
582.878	30147.64
583.076	29783.1
583.274	30338.1
583.471	29733.95
583.669	29920.31
583.866	29805.63
584.064	29760.57
584.262	29371.46
584.459	29692.99
584.657	29465.66
584.854	29717.56
585.052	29350.98
585.249	29117.51
585.447	29254.72
585.644	28779.59
585.841	28980.29
586.039	29353.02
586.236	28607.56
586.434	28546.12
586.631	28714.06
586.828	28693.58
587.026	28474.45
587.223	28433.49
587.42	28593.23
587.618	28470.35
587.815	28165.2
588.012	27923.54
588.21	27774.04
588.407	28200.02
588.604	27661.4
588.801	27847.77
588.999	27575.39
589.196	27849.82
589.393	27696.22
589.59	27556.96
589.787	27567.2
589.984	27262.05
590.182	27098.21
590.379	27462.75
590.576	27278.43
590.773	27317.34
590.97	26963.04
591.167	26942.56
591.364	26891.37
591.561	27034.72
591.758	26637.42
591.955	26719.34
592.152	26897.51
592.349	26184.82
592.546	26623.08
592.743	26449
592.94	26383.47
593.137	26188.91
593.334	26217.58
593.531	25924.72
593.727	26119.28
593.924	25984.12
594.121	25949.3
594.318	26037.36
594.515	25728.12
594.712	26014.84
594.908	25490.56
595.105	25449.6
595.302	25177.22
595.499	25418.88
595.696	25416.83
595.892	25044.1
596.089	25517.18
596.286	25193.6
596.482	25068.67
596.679	25029.76
596.876	25101.44
597.072	24597.64
597.269	25099.39
597.466	24485
597.662	24659.08
597.859	24792.2
598.055	24542.35
598.252	24403.08
598.448	24554.63
598.645	24419.47
598.841	24124.56
599.038	24370.32
599.234	24149.14
599.431	23950.48
599.627	23817.36
599.824	24200.33
600.02	23872.66
600.217	24034.45
600.413	23792.79
600.609	23260.32
600.806	23714.97
601.002	23659.67
601.198	23274.65
601.395	23377.05
601.591	23239.84
601.787	23110.82
601.984	23006.37
602.18	23131.3
602.376	23041.18
602.572	22543.53
602.769	23092.38
602.965	22564.01
603.161	22801.57
603.357	22916.26
603.553	22635.69
603.75	22658.21
603.946	22486.18
604.142	22508.71
604.338	22273.2
604.534	22193.33
604.73	22049.97
604.926	22084.78
605.122	22127.79
605.318	21839.03
605.514	21920.95
605.71	21789.88
605.906	21986.48
606.102	21996.72
606.298	22049.97
606.494	21933.23
606.69	21808.31
606.886	21787.83
607.082	21468.34
607.278	21638.33
607.474	21173.44
607.67	21695.67
607.866	21304.51
608.062	21511.35
608.257	21275.84
608.453	21251.26
608.649	21218.49
608.845	20710.6
609.041	21183.68
609.236	20972.74
609.432	20997.31
609.628	21134.53
609.824	21015.74
610.019	20802.75
610.215	20896.96
610.411	20679.88
610.606	20679.88
610.802	20729.03
610.998	20546.76
611.193	20763.84
611.389	20821.19
611.584	20415.69
611.78	20593.86
611.976	20323.53
612.171	20188.36
612.367	20565.19
612.562	20475.08
612.758	20174.03
612.953	19942.61
613.149	20206.8
613.344	19809.49
613.539	20321.48
613.735	20239.56
613.93	20296.91
614.126	19764.43
614.321	20473.03
614.517	19883.22
614.712	19764.43
614.907	19555.54
615.103	20059.34
615.298	19711.19
615.493	19971.28
615.688	19602.64
615.884	19971.28
616.079	19449.05
616.274	19619.03
616.47	19584.21
616.665	19735.76
616.86	19508.44
617.055	19471.57
617.25	19156.19
617.445	19467.48
617.641	19223.77
617.836	19266.78
618.031	19074.27
618.226	19383.51
618.421	18875.62
618.616	19463.38
618.811	18719.97
619.006	19236.06
619.201	18726.11
619.396	18902.24
619.591	18521.32
619.786	19059.93
619.981	18496.74
620.176	18517.22
620.371	18523.37
620.566	18427.11
620.761	18490.6
620.956	18441.45
621.151	18169.07
621.346	18132.2
621.541	17665.27
621.735	18074.86
621.93	17548.53
622.125	17677.55
622.32	17554.68
622.515	17773.81
622.709	17589.49
622.904	17446.13
623.099	17206.52
623.294	17392.89
623.488	17054.97
623.683	17255.67
623.878	17071.36
624.072	16708.87
624.267	16911.61
624.462	16768.26
624.656	16405.77
624.851	16844.03
625.046	16416.01
625.24	16637.19
625.435	16246.02
625.629	16198.92
625.824	15906.06
626.018	16139.53
626.213	15727.89
626.407	15680.78
626.602	15713.55
626.796	15957.26
626.991	15641.87
627.185	15820.05
627.38	15334.68
627.574	15324.44
627.768	15367.45
627.963	15037.72
628.157	15160.6
628.352	14867.74
628.546	14959.9
628.74	15017.24
628.935	14687.52
629.129	14808.35
629.323	14585.12
629.517	14490.91
629.712	14599.46
629.906	14335.27
630.1	14153
630.294	14228.77
630.489	14257.45
630.683	14136.62
630.877	13999.4
631.071	13919.53
631.265	13999.4
631.459	13696.3
631.653	13722.93
631.848	13679.92
632.042	13495.6
632.236	13788.46
632.43	13397.3
632.624	13458.74
632.818	13466.93
633.012	13114.68
633.206	13010.23
633.4	13395.25
633.594	12995.9
633.788	13149.5
633.982	13083.96
634.176	12875.07
634.369	12682.56
634.563	12635.46
634.757	12772.67
634.951	12780.86
635.145	12565.82
635.339	12668.22
635.533	12459.33
635.726	12490.05
635.92	12234.05
636.114	12303.68
636.308	12229.96
636.501	12143.94
636.695	12227.91
636.889	11926.86
637.083	11918.67
637.276	11756.88
637.47	11660.62
637.664	12076.36
637.857	11883.85
638.051	11789.64
638.244	11509.07
638.438	11451.73
638.632	11599.18
638.825	11433.3
639.019	11638.09
639.212	11355.47
639.406	11238.74
639.599	11091.29
639.793	11165.01
639.986	11001.18
640.18	11013.46
640.373	10876.25
640.567	10882.39
640.76	10841.43
640.954	10667.36
641.147	10587.49
641.34	10626.4
641.534	10607.97
641.727	10693.98
641.92	10556.77
642.114	10483.04
642.307	10521.95
642.5	10552.67
642.694	10239.33
642.887	10200.42
643.08	10282.34
643.273	10091.88
643.467	10116.45
643.66	9829.74
643.853	9870.7
644.046	9758.06
644.239	9989.48
644.432	9872.75
644.626	9835.88
644.819	9581.93
645.012	9616.75
645.205	9739.63
645.398	9641.32
645.591	9457.01
645.784	9532.78
645.977	9338.23
646.17	9389.42
646.363	9188.72
646.556	8979.83
646.749	9061.75
646.942	9217.4
647.135	9129.33
647.328	8992.12
647.521	9037.17
647.714	8990.07
647.907	8983.93
648.099	8879.48
648.292	8979.83
648.485	8756.6
648.678	8789.37
648.871	8633.72
649.064	8531.33
649.256	8801.66
649.449	8543.61
649.642	8584.57
649.835	8482.17
650.027	8328.58
650.22	8330.62
650.413	8398.21
650.605	8322.43
650.798	8224.13
650.991	8197.51
651.183	8093.06
651.376	8197.51
651.568	8172.93
651.761	7998.85
651.954	7918.98
652.146	8027.53
652.339	8035.72
652.531	7927.18
652.724	7871.88
652.916	7638.41
653.109	7943.56
653.301	7712.14
653.494	7798.15
653.686	7691.66
653.879	7775.63
654.071	7542.16
654.263	7495.05
654.456	7345.55
654.648	7470.48
654.84	7259.54
655.033	7372.18
655.225	7325.07
655.417	7308.69
655.61	7361.94
655.802	7310.74
655.994	7169.43
656.186	7218.58
656.379	7110.04
656.571	6958.49
656.763	6972.82
656.955	7110.04
657.148	7042.45
657.34	6958.49
657.532	6849.94
657.724	6839.7
657.916	6798.74
658.108	6765.98
658.3	6602.14
658.492	6733.21
658.684	6727.07
658.876	6677.91
659.068	6786.46
659.26	6460.83
659.452	6628.76
659.644	6475.17
659.836	6405.53
660.028	6536.6
660.22	6364.57
660.412	6458.78
660.604	6356.38
660.796	6331.81
660.988	6286.75
661.18	6122.91
661.372	6258.08
661.563	6249.89
661.755	6118.82
661.947	6241.7
662.139	6036.9
662.331	6032.8
662.522	5875.11
662.714	5985.7
662.906	5995.94
663.097	5746.09
663.289	5819.82
663.481	5746.09
663.673	5897.64
663.864	5930.41
664.056	5680.55
664.247	5750.18
664.439	5643.69
664.631	5735.85
664.822	5764.52
665.014	5774.76
665.205	5682.6
665.397	5610.92
665.588	5612.97
665.78	5715.37
665.971	5588.39
666.163	5602.73
666.354	5434.8
666.546	5385.65
666.737	5385.65
666.929	5316.01
667.12	5291.44
667.311	5348.78
667.503	5311.92
667.694	5238.19
667.885	5205.42
668.077	5103.03
668.268	5103.03
668.459	5266.86
668.651	5090.74
668.842	5113.27
669.033	5113.27
669.224	5113.27
669.416	5082.55
669.607	5273.01
669.798	4976.05
669.989	5037.49
670.18	5105.07
670.371	5113.27
670.563	4857.27
670.754	4996.53
670.945	4863.41
671.136	4892.09
671.327	4851.13
671.518	4824.5
671.709	4844.98
671.9	4869.56
672.091	4789.69
672.282	4701.62
672.473	4808.12
672.664	4730.3
672.855	4754.87
673.046	4693.43
673.237	4703.67
673.428	4793.78
673.619	4756.92
673.809	4652.47
674	4619.71
674.191	4758.97
674.382	4527.55
674.573	4523.45
674.764	4584.89
674.954	4570.55
675.145	4572.6
675.336	4484.54
675.527	4447.68
675.717	4523.45
675.908	4306.37
676.099	4507.07
676.289	4380.09
676.48	4427.2
676.671	4226.5
676.861	4468.16
677.052	4318.65
677.243	4234.69
677.433	4228.54
677.624	4464.06
677.814	4423.1
678.005	4371.9
678.195	4357.57
678.386	4246.98
678.576	4328.89
678.767	4148.67
678.957	4152.77
679.148	4441.53
679.338	4222.4
679.529	4357.57
679.719	4255.17
679.909	4328.89
680.1	4079.04
680.29	4484.54
680.481	4122.05
680.671	4269.5
680.861	4136.38
681.052	4113.86
681.242	4292.03
681.432	4142.53
681.622	4060.61
681.813	4120
682.003	4126.15
682.193	4117.95
682.383	4079.04
682.573	3974.6
682.764	4048.32
682.954	4150.72
683.144	4128.19
683.334	3952.07
683.524	4031.94
683.714	4021.7
683.904	4029.89
684.094	4089.28
684.284	4025.79
684.474	3980.74
684.664	4040.13
684.854	3956.16
685.044	3874.24
685.234	3890.63
685.424	4046.27
685.614	3784.13
685.804	3927.49
685.994	3915.2
686.184	3810.76
686.374	3859.91
686.564	3864.01
686.753	3792.33
686.943	3833.29
687.133	3737.03
687.323	3718.6
687.513	3800.52
687.702	3732.94
687.892	3644.87
688.082	3767.75
688.272	3706.31
688.461	3661.26
688.651	3648.97
688.841	3567.05
689.03	3472.84
689.22	3462.6
689.41	3532.23
689.599	3612.1
689.789	3526.09
689.979	3630.54
690.168	3612.1
690.358	3444.17
690.547	3470.8
690.737	3591.63
690.926	3493.32
691.116	3446.22
691.305	3526.09
691.495	3409.36
691.684	3384.78
691.874	3464.65
692.063	3368.4
692.252	3167.7
692.442	3411.4
692.631	3304.91
692.82	3317.2
693.01	3435.98
693.199	3313.1
693.388	3255.76
693.578	3235.28
693.767	3243.47
693.956	3179.98
694.146	3171.79
694.335	3098.06
694.524	3210.7
694.713	3222.99
694.902	3096.02
695.092	3165.65
695.281	3087.82
695.47	3118.54
695.659	3132.88
695.848	3003.86
696.037	3071.44
696.226	3114.45
696.415	3098.06
696.604	3141.07
696.793	2915.8
696.982	2987.47
697.171	3112.4
697.36	3005.91
697.549	3079.63
697.738	2895.32
697.927	2999.76
698.116	2948.56
698.305	3085.78
698.494	2964.95
698.683	3096.02
698.872	3010
699.061	2940.37
699.25	2907.6
699.438	3067.35
699.627	2954.71
699.816	2938.32
700.005	2866.64
700.193	2932.18
700.382	2913.75
700.571	2876.88
700.76	2862.55
700.948	2948.56
701.137	2854.36
701.326	2799.06
701.514	2797.01
701.703	2956.75
701.892	2868.69
702.08	2958.8
702.269	2971.09
702.457	2858.45
702.646	3018.19
702.834	2907.6
703.023	2876.88
703.212	2848.21
703.4	2842.07
703.589	2778.58
703.777	2829.78
703.965	2844.12
704.154	2842.07
704.342	2711
704.531	2768.34
704.719	2745.81
704.907	2907.6
705.096	2762.2
705.284	2665.94
705.472	2805.21
705.661	2698.71
705.849	2852.31
706.037	2915.8
706.226	2762.2
706.414	2809.3
706.602	2694.61
706.79	2797.01
706.979	2913.75
707.167	2698.71
707.355	2711
707.543	2649.56
707.731	2770.39
707.919	2678.23
708.107	2633.18
708.296	2616.79
708.484	2645.46
708.672	2708.95
708.86	2670.04
709.048	2751.96
709.236	2690.52
709.424	2801.11
709.612	2641.37
709.8	2655.7
709.988	2620.89
710.176	2731.48
710.364	2713.05
710.551	2680.28
710.739	2569.69
710.927	2661.85
711.115	2657.75
711.303	2803.16
711.491	2637.27
711.679	2579.93
711.866	2555.35
712.054	2606.55
712.242	2717.14
712.43	2778.58
712.617	2602.46
712.805	2604.5
712.993	2620.89
713.181	2577.88
713.368	2694.61
713.556	2500.06
713.744	2592.22
713.931	2663.9
714.119	2598.36
714.306	2571.74
714.494	2645.46
714.682	2571.74
714.869	2477.53
715.057	2584.02
715.244	2536.92
715.432	2600.41
715.619	2624.98
715.807	2483.67
715.994	2655.7
716.182	2514.39
716.369	2598.36
716.556	2549.21
716.744	2588.12
716.931	2498.01
717.119	2620.89
717.306	2663.9
717.493	2553.31
717.681	2483.67
717.868	2520.54
718.055	2600.41
718.242	2577.88
718.43	2596.31
718.617	2493.91
718.804	2526.68
718.991	2481.63
719.179	2442.71
719.366	2475.48
719.553	2555.35
719.74	2547.16
719.927	2461.15
720.114	2481.63
720.301	2493.91
720.488	2399.71
720.676	2432.47
720.863	2465.24
721.05	2528.73
721.237	2637.27
721.424	2528.73
721.611	2500.06
721.798	2465.24
721.985	2299.36
722.172	2450.91
722.358	2444.76
722.545	2524.63
722.732	2508.25
722.919	2532.83
723.106	2538.97
723.293	2321.88
723.48	2538.97
723.667	2430.43
723.853	2375.13
724.04	2387.42
724.227	2422.24
724.414	2498.01
724.6	2401.76
724.787	2332.12
724.974	2366.94
725.161	2383.32
725.347	2280.93
725.534	2405.85
725.72	2346.46
725.907	2491.87
726.094	2379.23
726.28	2467.29
726.467	2475.48
726.653	2495.96
726.84	2434.52
727.027	2498.01
727.213	2465.24
727.4	2391.52
727.586	2399.71
727.773	2457.05
727.959	2387.42
728.145	2260.45
728.332	2303.45
728.518	2471.39
728.705	2403.8
728.891	2467.29
729.077	2360.8
729.264	2434.52
729.45	2338.27
729.636	2444.76
729.823	2252.25
730.009	2334.17
730.195	2399.71
730.382	2358.75
730.568	2387.42
730.754	2428.38
730.94	2309.6
731.126	2426.33
731.313	2352.6
731.499	2368.99
731.685	2481.63
731.871	2346.46
732.057	2371.04
732.243	2303.45
732.429	2268.64
732.615	2446.81
732.801	2391.52
732.987	2260.45
733.173	2285.02
733.359	2375.13
733.545	2225.63
733.731	2340.32
733.917	2379.23
734.103	2321.88
734.289	2311.64
734.475	2311.64
734.661	2280.93
734.847	2268.64
735.033	2346.46
735.219	2299.36
735.404	2424.28
735.59	2219.49
735.776	2362.84
735.962	2401.76
736.148	2428.38
736.333	2295.26
736.519	2346.46
736.705	2180.57
736.89	2227.68
737.076	2239.97
737.262	2244.06
737.447	2293.21
737.633	2360.8
737.819	2287.07
738.004	2272.73
738.19	2178.53
738.375	2108.9
738.561	2227.68
738.747	2291.17
738.932	2205.15
739.118	2295.26
739.303	2196.96
739.489	2227.68
739.674	2153.95
739.859	2162.14
740.045	2205.15
740.23	2184.67
740.416	2188.77
740.601	2237.92
740.786	2145.76
740.972	2170.33
741.157	2088.42
741.342	2129.38
741.528	2110.94
741.713	2108.9
741.898	2074.08
742.084	2129.38
742.269	2123.23
742.454	1992.16
742.639	2137.57
742.824	2051.55
743.01	2047.46
743.195	2080.22
743.38	2112.99
743.565	2049.5
743.75	2108.9
743.935	1961.44
744.12	1967.59
744.305	2033.12
744.49	2004.45
744.675	2078.18
744.86	2041.31
745.045	1949.15
745.23	2078.18
745.415	1971.68
745.6	2037.22
745.785	2039.26
745.97	1932.77
746.155	1940.96
746.34	2022.88
746.525	1965.54
746.71	2006.5
746.895	1924.58
747.079	1801.7
747.264	1850.85
747.449	1816.04
747.634	1830.37
747.819	1826.28
748.003	1816.04
748.188	1885.67
748.373	1744.36
748.557	1861.09
748.742	1689.06
748.927	1754.6
749.111	1705.45
749.296	1693.16
749.481	1727.97
749.665	1668.58
749.85	1674.73
750.034	1687.01
750.219	1609.19
750.404	1693.16
750.588	1672.68
750.773	1734.12
750.957	1697.25
751.141	1689.06
751.326	1680.87
751.51	1672.68
751.695	1539.56
751.879	1555.94
752.064	1578.47
752.248	1572.33
752.432	1574.38
752.617	1443.31
752.801	1564.14
752.985	1498.6
753.17	1482.22
753.354	1498.6
753.538	1484.27
753.722	1416.68
753.907	1375.72
754.091	1381.87
754.275	1437.16
754.459	1476.07
754.643	1474.03
754.828	1385.96
755.012	1433.07
755.196	1408.49
755.38	1424.87
755.564	1359.34
755.748	1400.3
755.932	1267.18
756.116	1351.15
756.3	1332.72
756.484	1273.32
756.668	1363.44
756.852	1271.28
757.036	1320.43
757.22	1338.86
757.404	1113.58
757.588	1308.14
757.772	1211.89
757.956	1336.81
758.14	1269.23
758.323	1146.35
758.507	1277.42
758.691	1150.45
758.875	1279.47
759.059	1238.51
759.242	1148.4
759.426	1129.97
759.61	1199.6
759.794	1203.69
759.977	1170.93
760.161	1263.08
760.345	1185.26
760.528	1123.82
760.712	1158.64
760.895	1261.04
761.079	1179.12
761.263	1080.82
761.446	1072.62
761.63	1199.6
761.813	1113.58
761.997	1035.76
762.18	990.7
762.364	1115.63
762.547	1031.66
762.731	1107.44
762.914	1091.06
763.098	1099.25
763.281	1101.3
763.464	951.79
763.648	951.79
763.831	1025.52
764.015	1007.09
764.198	957.94
764.381	1007.09
764.564	1039.86
764.748	1017.33
764.931	966.13
765.114	902.64
765.297	1037.81
765.481	900.59
765.664	1046
765.847	970.23
766.03	949.75
766.213	1009.14
766.397	921.07
766.58	1056.24
766.763	933.36
766.946	1000.94
767.129	898.55
767.312	957.94
767.495	943.6
767.678	876.02
767.861	957.94
768.044	802.29
768.227	941.55
768.41	927.22
768.593	957.94
768.776	908.79
768.959	837.11
769.142	923.12
769.324	919.03
769.507	869.87
769.69	857.59
769.873	851.44
770.056	916.98
770.239	755.19
770.421	826.87
770.604	884.21
770.787	804.34
770.97	867.83
771.152	790
771.335	833.01
771.518	826.87
771.7	830.96
771.883	804.34
772.066	814.58
772.248	833.01
772.431	796.15
772.613	847.35
772.796	753.14
772.978	785.91
773.161	775.67
773.343	761.33
773.526	779.76
773.708	708.09
773.891	716.28
774.073	761.33
774.256	785.91
774.438	804.34
774.621	697.85
774.803	706.04
774.985	714.23
775.168	720.37
775.35	749.04
775.532	687.61
775.715	654.84
775.897	771.57
776.079	773.62
776.261	730.61
776.444	617.97
776.626	691.7
776.808	642.55
776.99	636.41
777.173	630.26
777.355	613.88
777.537	650.74
777.719	669.17
777.901	669.17
778.083	671.22
778.265	613.88
778.447	632.31
778.629	591.35
778.811	660.98
778.993	638.45
779.175	564.73
779.357	564.73
779.539	605.69
779.721	644.6
779.903	589.3
780.085	570.87
780.267	503.29
780.449	570.87
780.631	531.96
780.812	640.5
780.994	599.54
781.176	470.52
781.358	583.16
781.54	439.8
781.721	566.78
781.903	540.15
782.085	474.62
782.267	540.15
782.448	531.96
782.63	450.04
782.812	497.14
782.993	521.72
783.175	546.3
783.357	486.9
783.538	497.14
783.72	456.19
783.901	548.34
784.083	466.42
784.264	458.23
784.446	411.13
784.627	445.95
784.809	443.9
784.99	413.18
785.172	419.32
785.353	491
785.535	351.74
785.716	394.75
785.897	443.9
786.079	417.27
786.26	364.03
786.441	421.37
786.623	359.93
786.804	376.31
786.985	427.51
787.167	421.37
787.348	443.9
787.529	384.51
787.71	378.36
787.891	355.83
788.073	364.03
788.254	392.7
788.435	474.62
788.616	327.16
788.797	333.31
788.978	290.3
789.159	333.31
789.34	370.17
789.522	314.88
789.703	376.31
789.884	394.75
790.065	368.12
790.246	382.46
790.427	329.21
790.607	437.75
790.788	400.89
790.969	292.35
791.15	323.07
791.331	302.59
791.512	337.4
791.693	263.68
791.874	263.68
792.054	384.51
792.235	304.64
792.416	312.83
792.597	282.11
792.778	384.51
792.958	343.55
793.139	241.15
793.32	390.65
793.5	306.68
793.681	286.2
793.862	368.12
794.042	235
794.223	331.26
794.404	300.54
794.584	269.82
794.765	249.34
794.945	312.83
795.126	323.07
795.306	294.4
795.487	294.4
795.667	296.44
795.848	286.2
796.028	271.87
796.209	271.87
796.389	335.35
796.57	261.63
796.75	241.15
796.93	366.07
797.111	237.05
797.291	269.82
797.471	239.1
797.652	243.2
797.832	148.99
798.012	257.53
798.192	210.43
798.373	216.57
798.553	288.25
798.733	232.96
798.913	294.4
799.093	261.63
799.274	189.95
799.454	247.29
799.634	153.09
799.814	202.24
799.994	278.01
800.174	171.52
800.354	204.28
800.534	171.52
800.714	179.71
800.894	230.91
801.074	204.28
801.254	232.96
801.434	247.29
801.614	189.95
801.794	196.09
801.974	833.01
802.154	271.87
802.334	273.92
802.514	187.9
802.693	241.15
802.873	155.13
803.053	269.82
803.233	206.33
803.413	200.19
803.592	200.19
803.772	222.72
803.952	269.82
804.131	222.72
804.311	282.11
804.491	239.1
804.67	132.61
804.85	237.05
805.03	220.67
805.209	241.15
805.389	200.19
805.568	146.94
805.748	296.44
805.928	245.24
806.107	140.8
806.287	179.71
806.466	237.05
806.646	155.13
806.825	171.52
807.004	165.37
807.184	79.36
807.363	214.52
807.543	161.28
807.722	167.42
807.901	153.09
808.081	212.48
808.26	165.37
808.439	198.14
808.619	114.17
808.798	245.24
808.977	101.89
809.156	214.52
809.336	144.89
809.515	146.94
809.694	144.89
809.873	183.81
810.052	142.85
810.231	167.42
810.411	167.42
810.59	128.51
810.769	157.18
810.948	228.86
811.127	97.79
811.306	224.76
811.485	161.28
811.664	161.28
811.843	146.94
812.022	85.5
812.201	136.7
812.38	103.93
812.559	110.08
812.737	171.52
812.916	110.08
813.095	108.03
813.274	124.41
813.453	198.14
813.632	159.23
813.811	159.23
813.989	155.13
814.168	99.84
814.347	171.52
814.526	95.74
814.704	116.22
814.883	196.09
815.062	128.51
815.24	103.93
815.419	167.42
815.598	144.89
815.776	89.6
815.955	81.41
816.133	114.17
816.312	108.03
816.49	56.83
816.669	114.17
816.847	99.84
817.026	52.74
817.204	114.17
817.383	118.27
817.561	140.8
817.74	24.06
817.918	99.84
818.097	128.51
818.275	101.89
818.453	138.75
818.632	97.79
818.81	132.61
818.988	108.03
819.167	93.69
819.345	91.65
819.523	85.5
819.701	142.85
819.879	155.13
820.058	42.5
820.236	118.27
820.414	44.54
820.592	136.7
820.77	105.98
820.948	126.46
821.127	171.52
821.305	151.04
821.483	89.6
821.661	69.12
821.839	69.12
822.017	19.97
822.195	126.46
822.373	132.61
822.551	97.79
822.729	91.65
822.907	116.22
823.085	79.36
823.262	30.21
823.44	-2.56
823.618	142.85
823.796	89.6
823.974	130.56
824.152	144.89
824.329	24.06
824.507	50.69
824.685	122.37
824.863	97.79
825.04	67.07
825.218	122.37
825.396	67.07
825.574	142.85
825.751	97.79
825.929	110.08
826.107	42.5
826.284	122.37
826.462	114.17
826.639	32.26
826.817	60.93
826.994	79.36
827.172	-10.75
827.349	159.23
827.527	151.04
827.704	58.88
827.882	73.21
828.059	89.6
828.237	56.83
828.414	101.89
828.591	15.87
828.769	73.21
828.946	44.54
829.124	87.55
829.301	110.08
829.478	75.26
829.655	118.27
829.833	163.33
830.01	44.54
830.187	134.65
830.364	30.21
830.542	155.13
830.719	118.27
830.896	28.16
831.073	7.68
831.25	7.68
831.427	114.17
831.604	73.21
831.782	114.17
831.959	134.65
832.136	9.73
832.313	40.45
832.49	-51.71
832.667	110.08
832.844	73.21
833.021	108.03
833.198	101.89
833.374	73.21
833.551	126.46
833.728	48.64
833.905	56.83
834.082	32.26
834.259	67.07
834.436	93.69
834.612	30.21
834.789	138.75
834.966	32.26
835.143	48.64
835.319	17.92
835.496	11.78
835.673	60.93
835.85	108.03
836.026	65.02
836.203	65.02
836.38	44.54
836.556	87.55
836.733	65.02
836.909	85.5
837.086	110.08
837.262	13.82
837.439	-80.38
837.616	-20.99
837.792	73.21
837.968	48.64
838.145	65.02
838.321	77.31
838.498	32.26
838.674	97.79
838.851	60.93
839.027	48.64
839.203	83.45
839.38	13.82
839.556	3.58
839.732	126.46
839.909	44.54
840.085	79.36
840.261	19.97
840.437	89.6
840.614	48.64
840.79	58.88
840.966	58.88
841.142	7.68
841.318	-0.51
841.494	40.45
841.671	44.54
841.847	15.87
842.023	40.45
842.199	42.5
842.375	93.69
842.551	56.83
842.727	7.68
842.903	73.21
843.079	17.92
843.255	81.41
843.431	65.02
843.607	58.88
843.783	36.35
843.959	69.12
844.134	-53.76
844.31	46.59
844.486	-39.42
844.662	19.97
844.838	71.17
845.013	32.26
845.189	-4.61
845.365	24.06
845.541	-55.81
845.716	32.26
845.892	73.21
846.068	-0.51
846.244	-37.38
846.419	-20.99
846.595	-6.66
846.77	-27.14
846.946	65.02
847.122	40.45
847.297	-25.09
847.473	44.54
847.648	-82.43
847.824	3.58
847.999	42.5
848.175	54.78
848.35	32.26
848.526	5.63
848.701	15.87
848.876	42.5
849.052	60.93
849.227	60.93
849.403	-0.51
849.578	85.5
849.753	15.87
849.929	-2.56
850.104	-23.04
850.279	56.83
850.454	-23.04
850.63	24.06
850.805	99.84
850.98	58.88
851.155	-29.18
851.33	48.64
851.505	1.54
851.681	60.93
851.856	65.02
852.031	24.06
852.206	-31.23
852.381	-18.94
852.556	24.06
852.731	48.64
852.906	36.35
853.081	97.79
853.256	32.26
853.431	67.07
853.606	-10.75
853.781	-16.9
853.956	-2.56
854.131	-16.9
854.305	-25.09
854.48	38.4
854.655	7.68
854.83	42.5
855.005	3.58
855.18	9.73
855.354	-12.8
855.529	17.92
855.704	7.68
855.879	71.17
856.053	15.87
856.228	-12.8
856.403	-33.28
856.577	11.78
856.752	71.17
856.926	87.55
857.101	19.97
857.276	3.58
857.45	56.83
857.625	71.17
857.799	44.54
857.974	46.59
858.148	-25.09
858.323	42.5
858.497	-47.62
858.672	1.54
858.846	-8.7
859.02	48.64
859.195	3.58
859.369	-39.42
859.543	-6.66
859.718	44.54
859.892	-2.56
860.066	24.06
860.241	-14.85
860.415	28.16
860.589	73.21
860.763	73.21
860.938	-25.09
861.112	40.45
861.286	-55.81
861.46	-8.7
861.634	-47.62
861.808	36.35
861.982	-82.43
862.157	7.68
862.331	15.87
862.505	52.74
862.679	11.78
862.853	28.16
863.027	-23.04
863.201	126.46
863.375	81.41
863.549	-43.52
863.722	19.97
863.896	5.63
864.07	-98.81
864.244	65.02
864.418	-55.81
864.592	9.73
864.766	26.11
864.939	-39.42
865.113	-41.47
865.287	58.88
865.461	19.97
865.634	48.64
865.808	7.68
865.982	50.69
866.156	-74.24
866.329	32.26
866.503	-49.66
866.676	13.82
866.85	-49.66
867.024	-90.62
867.197	44.54
867.371	60.93
867.544	48.64
867.718	-41.47
867.891	24.06
868.065	83.45
868.238	-4.61
868.412	15.87
868.585	-45.57
868.759	-29.18
868.932	-2.56
869.105	56.83
869.279	-31.23
869.452	-27.14
869.625	15.87
869.799	-49.66
869.972	-10.75
870.145	-43.52
870.319	7.68
870.492	-10.75
870.665	28.16
870.838	1.54
871.011	-74.24
871.185	-39.42
871.358	-16.9
871.531	73.21
871.704	48.64
871.877	-20.99
872.05	-29.18
872.223	7.68
872.396	36.35
872.569	48.64
872.742	-10.75
872.915	-8.7
873.088	13.82
873.261	-74.24
873.434	-20.99
873.607	54.78
873.78	28.16
873.953	42.5
874.126	-25.09
874.299	42.5
874.471	-33.28
874.644	-2.56
874.817	-27.14
874.99	7.68
875.163	-25.09
875.335	-29.18
875.508	24.06
875.681	1.54
875.853	-20.99
876.026	44.54
876.199	-37.38
876.371	-47.62
876.544	-8.7
876.717	-72.19
876.889	1.54
877.062	56.83
877.234	-39.42
877.407	69.12
877.579	15.87
877.752	36.35
877.924	-47.62
878.097	-0.51
878.269	-29.18
878.442	17.92
878.614	11.78
878.786	19.97
878.959	-4.61
879.131	-29.18
879.303	-25.09
879.476	73.21
879.648	-6.66
879.82	-20.99
879.993	13.82
880.165	-49.66
880.337	-41.47
880.509	15.87
880.681	-41.47
880.854	-0.51
881.026	19.97
881.198	101.89
881.37	-41.47
881.542	34.3
881.714	32.26
881.886	-57.86
882.058	-25.09
882.23	32.26
882.402	-86.53
882.574	34.3
882.746	36.35
882.918	9.73
883.09	95.74
883.262	-55.81
883.434	-29.18
883.606	-2.56
883.778	-70.14
883.95	42.5
884.122	42.5
884.293	17.92
884.465	48.64
884.637	1.54
884.809	-43.52
884.98	-6.66
885.152	-74.24
885.324	-49.66
885.496	3.58
885.667	-23.04
885.839	17.92
886.011	65.02
886.182	-27.14
886.354	-72.19
886.525	-16.9
886.697	28.16
886.869	3.58
887.04	19.97
887.212	58.88
887.383	28.16
887.555	60.93
887.726	-0.51
887.897	40.45
888.069	40.45
888.24	38.4
888.412	101.89
888.583	30.21
888.754	40.45
888.926	-41.47
889.097	24.06
889.268	-16.9
889.44	-39.42
889.611	-20.99
889.782	-41.47
889.953	-8.7
890.125	-16.9
890.296	-66.05
890.467	-8.7
890.638	-49.66
890.809	38.4
890.98	42.5
891.151	52.74
891.323	-72.19
891.494	3.58
891.665	-41.47
891.836	-0.51
892.007	40.45
892.178	48.64
892.349	22.02
892.52	-47.62
892.691	-0.51
892.862	58.88
893.032	-131.58
893.203	46.59
893.374	-8.7
893.545	54.78
893.716	7.68
893.887	-70.14
894.057	5.63
894.228	24.06
894.399	-14.85
894.57	3.58
894.74	3.58
894.911	-51.71
895.082	-31.23
895.253	-49.66
895.423	19.97
895.594	-49.66
895.764	-37.38
895.935	-72.19
896.106	44.54
896.276	7.68
896.447	58.88
896.617	44.54
896.788	-0.51
896.958	60.93
897.129	-33.28
897.299	15.87
897.47	-27.14
897.64	-14.85
897.81	3.58
897.981	28.16
898.151	-12.8
898.322	9.73
898.492	-27.14
898.662	40.45
898.832	24.06
899.003	30.21
899.173	-49.66
899.343	24.06
899.513	-8.7
