Data from USB4F104151__166__14-19-51-800.txt Node

Date: Thu Mar 13 14:19:51 EDT 2025
User: louis
Spectrometer: USB4F10415
Trigger mode: 4
Integration Time (sec): 2.000000E-2
Scans to average: 1
Electric dark correction enabled: true
Nonlinearity correction enabled: false
Boxcar width: 0
XAxis mode: Wavelengths
Number of Pixels in Spectrum: 3648
>>>>>Begin Spectral Data<<<<<
178.204	-137.21
178.424	-137.21
178.644	-137.21
178.864	-20.48
179.084	-86.01
179.304	-24.58
179.524	-34.82
179.744	-10.24
179.964	83.97
180.184	-34.82
180.404	30.72
180.624	16.38
180.844	-26.62
181.064	-49.15
181.283	18.43
181.503	8.19
181.723	22.53
181.943	-67.58
182.163	2.05
182.383	-8.19
182.602	-24.58
182.822	6.14
183.042	96.25
183.262	75.77
183.482	55.3
183.701	-38.91
183.921	79.87
184.141	-26.62
184.361	30.72
184.58	-26.62
184.8	-47.1
185.02	67.58
185.239	-8.19
185.459	-0
185.679	6.14
185.898	-28.67
186.118	-0
186.338	57.34
186.557	63.49
186.777	2.05
186.997	47.1
187.216	-59.39
187.436	49.15
187.655	47.1
187.875	151.55
188.095	32.77
188.314	32.77
188.534	43.01
188.753	34.82
188.973	14.34
189.192	47.1
189.412	-47.1
189.631	28.67
189.851	49.15
190.07	47.1
190.29	-24.58
190.509	63.49
190.729	4.1
190.948	104.45
191.168	77.82
191.387	14.34
191.607	24.58
191.826	38.91
192.045	79.87
192.265	-20.48
192.484	-10.24
192.704	-18.43
192.923	-55.3
193.142	51.2
193.362	4.1
193.581	26.62
193.8	26.62
194.02	8.19
194.239	-0
194.458	-12.29
194.678	55.3
194.897	24.58
195.116	-20.48
195.335	20.48
195.555	-75.77
195.774	-10.24
195.993	28.67
196.212	71.68
196.432	71.68
196.651	55.3
196.87	57.34
197.089	83.97
197.308	40.96
197.528	83.97
197.747	-14.34
197.966	-49.15
198.185	24.58
198.404	6.14
198.623	55.3
198.842	67.58
199.062	55.3
199.281	6.14
199.5	-16.38
199.719	30.72
199.938	-4.1
200.157	-2.05
200.376	-6.14
200.595	6.14
200.814	-24.58
201.033	12.29
201.252	-26.62
201.471	98.3
201.69	43.01
201.909	63.49
202.128	104.45
202.347	47.1
202.566	40.96
202.785	-26.62
203.004	14.34
203.223	90.11
203.442	-10.24
203.661	59.39
203.879	67.58
204.098	34.82
204.317	24.58
204.536	45.06
204.755	38.91
204.974	88.06
205.193	-28.67
205.411	71.68
205.63	65.53
205.849	22.53
206.068	-18.43
206.287	32.77
206.505	34.82
206.724	2.05
206.943	-26.62
207.162	34.82
207.381	12.29
207.599	-38.91
207.818	-14.34
208.037	32.77
208.255	16.38
208.474	-34.82
208.693	-18.43
208.911	10.24
209.13	26.62
209.349	24.58
209.567	22.53
209.786	-32.77
210.005	24.58
210.223	-55.3
210.442	8.19
210.661	-14.34
210.879	24.58
211.098	59.39
211.316	28.67
211.535	16.38
211.753	-22.53
211.972	49.15
212.191	10.24
212.409	45.06
212.628	47.1
212.846	14.34
213.065	8.19
213.283	49.15
213.502	-43.01
213.72	45.06
213.938	-34.82
214.157	55.3
214.375	10.24
214.594	-22.53
214.812	-34.82
215.031	-2.05
215.249	2.05
215.467	34.82
215.686	-22.53
215.904	6.14
216.122	10.24
216.341	47.1
216.559	20.48
216.778	83.97
216.996	38.91
217.214	18.43
217.432	4.1
217.651	-14.34
217.869	-2.05
218.087	71.68
218.306	-51.2
218.524	61.44
218.742	40.96
218.96	14.34
219.179	-36.86
219.397	30.72
219.615	28.67
219.833	-20.48
220.051	-10.24
220.27	120.83
220.488	12.29
220.706	8.19
220.924	-0
221.142	83.97
221.36	-20.48
221.578	22.53
221.796	38.91
222.015	43.01
222.233	12.29
222.451	36.86
222.669	-43.01
222.887	12.29
223.105	30.72
223.323	38.91
223.541	57.34
223.759	8.19
223.977	30.72
224.195	143.36
224.413	14.34
224.631	-16.38
224.849	47.1
225.067	30.72
225.285	-34.82
225.503	57.34
225.721	-51.2
225.939	69.63
226.157	-22.53
226.375	116.73
226.592	-34.82
226.81	34.82
227.028	67.58
227.246	79.87
227.464	88.06
227.682	49.15
227.9	40.96
228.117	63.49
228.335	14.34
228.553	88.06
228.771	-40.96
228.989	73.73
229.206	12.29
229.424	28.67
229.642	20.48
229.86	-26.62
230.077	65.53
230.295	47.1
230.513	-18.43
230.731	43.01
230.948	47.1
231.166	26.62
231.384	-4.1
231.601	-30.72
231.819	40.96
232.037	-18.43
232.254	-14.34
232.472	36.86
232.689	-47.1
232.907	-2.05
233.125	-0
233.342	32.77
233.56	16.38
233.777	120.83
233.995	16.38
234.213	-4.1
234.43	96.25
234.648	63.49
234.865	26.62
235.083	28.67
235.3	83.97
235.518	49.15
235.735	61.44
235.953	14.34
236.17	4.1
236.388	-2.05
236.605	-18.43
236.822	86.01
237.04	67.58
237.257	-26.62
237.475	47.1
237.692	49.15
237.909	-2.05
238.127	69.63
238.344	75.77
238.562	-16.38
238.779	-4.1
238.996	16.38
239.214	-12.29
239.431	28.67
239.648	40.96
239.865	32.77
240.083	104.45
240.3	2.05
240.517	-30.72
240.735	-6.14
240.952	49.15
241.169	30.72
241.386	63.49
241.603	73.73
241.821	22.53
242.038	-14.34
242.255	-6.14
242.472	-26.62
242.689	67.58
242.907	24.58
243.124	-43.01
243.341	96.25
243.558	2.05
243.775	22.53
243.992	-14.34
244.209	59.39
244.426	83.97
244.643	26.62
244.86	57.34
245.078	43.01
245.295	-20.48
245.512	43.01
245.729	-26.62
245.946	8.19
246.163	43.01
246.38	-32.77
246.597	22.53
246.814	-10.24
247.031	59.39
247.248	30.72
247.464	-20.48
247.681	22.53
247.898	32.77
248.115	108.54
248.332	-65.54
248.549	-2.05
248.766	43.01
248.983	38.91
249.2	2.05
249.417	6.14
249.633	57.34
249.85	47.1
250.067	-14.34
250.284	59.39
250.501	-2.05
250.717	129.02
250.934	-0
251.151	63.49
251.368	8.19
251.585	73.73
251.801	38.91
252.018	-34.82
252.235	-2.05
252.451	-51.2
252.668	36.86
252.885	55.3
253.102	-10.24
253.318	38.91
253.535	-6.14
253.752	16.38
253.968	-36.86
254.185	-40.96
254.401	67.58
254.618	-2.05
254.835	63.49
255.051	57.34
255.268	55.3
255.484	-32.77
255.701	67.58
255.917	40.96
256.134	-24.58
256.351	10.24
256.567	-71.68
256.784	-4.1
257	26.62
257.217	43.01
257.433	59.39
257.65	63.49
257.866	-12.29
258.082	-59.39
258.299	38.91
258.515	22.53
258.732	32.77
258.948	55.3
259.165	-8.19
259.381	-75.77
259.597	-8.19
259.814	24.58
260.03	59.39
260.246	-45.06
260.463	55.3
260.679	57.34
260.895	-57.34
261.112	2.05
261.328	-10.24
261.544	40.96
261.761	77.82
261.977	-47.1
262.193	-24.58
262.409	34.82
262.626	79.87
262.842	90.11
263.058	-12.29
263.274	-10.24
263.49	-8.19
263.707	47.1
263.923	6.14
264.139	22.53
264.355	-16.38
264.571	73.73
264.787	-32.77
265.004	47.1
265.22	22.53
265.436	51.2
265.652	51.2
265.868	-14.34
266.084	-24.58
266.3	49.15
266.516	-2.05
266.732	96.25
266.948	-16.38
267.164	6.14
267.38	40.96
267.596	-38.91
267.812	102.4
268.028	-10.24
268.244	22.53
268.46	55.3
268.676	30.72
268.892	36.86
269.108	59.39
269.324	-18.43
269.54	32.77
269.756	-16.38
269.972	-18.43
270.188	-26.62
270.403	6.14
270.619	-6.14
270.835	65.53
271.051	-12.29
271.267	-4.1
271.483	-22.53
271.698	2.05
271.914	38.91
272.13	8.19
272.346	16.38
272.562	18.43
272.777	69.63
272.993	-63.49
273.209	-34.82
273.425	96.25
273.64	-51.2
273.856	55.3
274.072	-0
274.287	51.2
274.503	-0
274.719	8.19
274.934	-10.24
275.15	12.29
275.366	22.53
275.581	-38.91
275.797	14.34
276.012	61.44
276.228	38.91
276.444	38.91
276.659	57.34
276.875	-12.29
277.09	-36.86
277.306	47.1
277.521	-38.91
277.737	6.14
277.952	-32.77
278.168	59.39
278.383	83.97
278.599	-14.34
278.814	45.06
279.03	-0
279.245	22.53
279.461	-18.43
279.676	51.2
279.892	20.48
280.107	98.3
280.322	-38.91
280.538	51.2
280.753	2.05
280.969	34.82
281.184	14.34
281.399	-43.01
281.615	30.72
281.83	12.29
282.045	-32.77
282.26	67.58
282.476	-20.48
282.691	55.3
282.906	49.15
283.122	65.53
283.337	6.14
283.552	-79.87
283.767	16.38
283.983	20.48
284.198	43.01
284.413	71.68
284.628	-75.77
284.843	6.14
285.058	10.24
285.274	-49.15
285.489	-24.58
285.704	88.06
285.919	22.53
286.134	6.14
286.349	-14.34
286.564	92.16
286.779	106.49
286.995	-2.05
287.21	-8.19
287.425	34.82
287.64	-10.24
287.855	43.01
288.07	40.96
288.285	63.49
288.5	79.87
288.715	14.34
288.93	59.39
289.145	69.63
289.36	69.63
289.575	-24.58
289.79	73.73
290.004	2.05
290.219	10.24
290.434	43.01
290.649	71.68
290.864	67.58
291.079	45.06
291.294	22.53
291.509	47.1
291.724	57.34
291.938	-20.48
292.153	20.48
292.368	-24.58
292.583	6.14
292.798	4.1
293.012	43.01
293.227	24.58
293.442	-57.34
293.657	12.29
293.871	45.06
294.086	-4.1
294.301	51.2
294.516	12.29
294.73	49.15
294.945	-40.96
295.16	-2.05
295.374	43.01
295.589	38.91
295.804	-53.25
296.018	6.14
296.233	-2.05
296.447	69.63
296.662	-34.82
296.877	10.24
297.091	47.1
297.306	30.72
297.52	18.43
297.735	38.91
297.949	-18.43
298.164	71.68
298.378	38.91
298.593	-36.86
298.807	86.01
299.022	-34.82
299.236	-0
299.451	73.73
299.665	-12.29
299.88	-6.14
300.094	10.24
300.309	88.06
300.523	57.34
300.737	-0
300.952	30.72
301.166	34.82
301.381	-59.39
301.595	-26.62
301.809	53.25
302.024	26.62
302.238	59.39
302.452	32.77
302.667	-8.19
302.881	81.92
303.095	43.01
303.309	8.19
303.524	-18.43
303.738	43.01
303.952	-28.67
304.166	30.72
304.381	-6.14
304.595	120.83
304.809	-10.24
305.023	122.88
305.237	59.39
305.452	-67.58
305.666	55.3
305.88	-6.14
306.094	47.1
306.308	71.68
306.522	77.82
306.736	133.12
306.95	88.06
307.164	24.58
307.379	34.82
307.593	86.01
307.807	49.15
308.021	4.1
308.235	43.01
308.449	-47.1
308.663	71.68
308.877	47.1
309.091	65.53
309.305	92.16
309.519	36.86
309.733	71.68
309.947	-8.19
310.161	-18.43
310.374	8.19
310.588	-10.24
310.802	6.14
311.016	79.87
311.23	16.38
311.444	67.58
311.658	16.38
311.872	141.31
312.085	63.49
312.299	57.34
312.513	43.01
312.727	-12.29
312.941	-34.82
313.154	6.14
313.368	40.96
313.582	34.82
313.796	26.62
314.009	47.1
314.223	34.82
314.437	147.45
314.651	40.96
314.864	40.96
315.078	10.24
315.292	-28.67
315.505	-4.1
315.719	18.43
315.933	-8.19
316.146	26.62
316.36	22.53
316.573	92.16
316.787	-8.19
317.001	16.38
317.214	8.19
317.428	2.05
317.641	14.34
317.855	-12.29
318.068	-14.34
318.282	43.01
318.495	30.72
318.709	32.77
318.922	2.05
319.136	38.91
319.349	38.91
319.563	30.72
319.776	-24.58
319.99	-2.05
320.203	59.39
320.417	6.14
320.63	43.01
320.843	90.11
321.057	106.49
321.27	88.06
321.483	-14.34
321.697	69.63
321.91	32.77
322.124	14.34
322.337	-16.38
322.55	6.14
322.763	75.77
322.977	24.58
323.19	-26.62
323.403	36.86
323.617	6.14
323.83	51.2
324.043	14.34
324.256	8.19
324.469	-57.34
324.683	79.87
324.896	-10.24
325.109	34.82
325.322	10.24
325.535	38.91
325.748	59.39
325.962	2.05
326.175	32.77
326.388	65.53
326.601	79.87
326.814	98.3
327.027	4.1
327.24	104.45
327.453	-10.24
327.666	83.97
327.879	129.02
328.092	73.73
328.305	53.25
328.518	30.72
328.731	38.91
328.944	-2.05
329.157	40.96
329.37	-34.82
329.583	79.87
329.796	153.6
330.009	20.48
330.222	61.44
330.435	69.63
330.648	22.53
330.861	16.38
331.073	36.86
331.286	-38.91
331.499	24.58
331.712	-59.39
331.925	38.91
332.138	71.68
332.35	38.91
332.563	67.58
332.776	32.77
332.989	-40.96
333.202	6.14
333.414	40.96
333.627	34.82
333.84	-36.86
334.053	14.34
334.265	-14.34
334.478	24.58
334.691	55.3
334.903	79.87
335.116	14.34
335.329	81.92
335.541	-38.91
335.754	79.87
335.966	28.67
336.179	22.53
336.392	71.68
336.604	38.91
336.817	40.96
337.029	79.87
337.242	8.19
337.454	36.86
337.667	14.34
337.88	71.68
338.092	20.48
338.305	20.48
338.517	18.43
338.729	133.12
338.942	24.58
339.154	26.62
339.367	-55.3
339.579	18.43
339.792	24.58
340.004	-38.91
340.217	10.24
340.429	40.96
340.641	-55.3
340.854	18.43
341.066	49.15
341.278	28.67
341.491	51.2
341.703	-0
341.915	22.53
342.128	22.53
342.34	51.2
342.552	69.63
342.764	-2.05
342.977	24.58
343.189	73.73
343.401	57.34
343.613	6.14
343.826	63.49
344.038	14.34
344.25	90.11
344.462	30.72
344.674	98.3
344.886	30.72
345.099	55.3
345.311	20.48
345.523	98.3
345.735	-65.54
345.947	40.96
346.159	22.53
346.371	40.96
346.583	67.58
346.795	51.2
347.007	-22.53
347.219	94.21
347.431	2.05
347.643	10.24
347.855	10.24
348.067	16.38
348.279	22.53
348.491	22.53
348.703	-26.62
348.915	38.91
349.127	30.72
349.339	63.49
349.551	88.06
349.763	100.35
349.975	-59.39
350.187	4.1
350.399	59.39
350.61	-18.43
350.822	71.68
351.034	32.77
351.246	47.1
351.458	-6.14
351.669	71.68
351.881	-2.05
352.093	43.01
352.305	63.49
352.517	38.91
352.728	26.62
352.94	14.34
353.152	30.72
353.363	34.82
353.575	26.62
353.787	104.45
353.999	71.68
354.21	-16.38
354.422	-55.3
354.633	-20.48
354.845	55.3
355.057	133.12
355.268	32.77
355.48	18.43
355.692	20.48
355.903	36.86
356.115	20.48
356.326	-14.34
356.538	32.77
356.749	79.87
356.961	-30.72
357.172	-10.24
357.384	55.3
357.595	86.01
357.807	38.91
358.018	90.11
358.23	8.19
358.441	-0
358.653	14.34
358.864	-34.82
359.075	26.62
359.287	47.1
359.498	30.72
359.709	79.87
359.921	14.34
360.132	47.1
360.344	-8.19
360.555	-0
360.766	14.34
360.977	71.68
361.189	36.86
361.4	28.67
361.611	59.39
361.823	45.06
362.034	81.92
362.245	-57.34
362.456	47.1
362.667	38.91
362.879	-2.05
363.09	45.06
363.301	30.72
363.512	20.48
363.723	10.24
363.935	-18.43
364.146	24.58
364.357	59.39
364.568	47.1
364.779	-2.05
364.99	59.39
365.201	-38.91
365.412	34.82
365.623	8.19
365.834	36.86
366.045	18.43
366.256	88.06
366.467	61.44
366.678	6.14
366.889	65.53
367.1	88.06
367.311	14.34
367.522	51.2
367.733	16.38
367.944	30.72
368.155	75.77
368.366	79.87
368.577	20.48
368.788	47.1
368.999	28.67
369.209	14.34
369.42	79.87
369.631	86.01
369.842	10.24
370.053	104.45
370.264	81.92
370.474	-14.34
370.685	26.62
370.896	32.77
371.107	102.4
371.317	51.2
371.528	55.3
371.739	55.3
371.95	104.45
372.16	-0
372.371	36.86
372.582	55.3
372.792	30.72
373.003	43.01
373.214	90.11
373.424	51.2
373.635	100.35
373.846	90.11
374.056	51.2
374.267	36.86
374.477	-28.67
374.688	-49.15
374.898	10.24
375.109	16.38
375.319	14.34
375.53	32.77
375.74	83.97
375.951	8.19
376.161	55.3
376.372	63.49
376.582	90.11
376.793	63.49
377.003	43.01
377.214	49.15
377.424	71.68
377.635	4.1
377.845	-14.34
378.055	100.35
378.266	28.67
378.476	47.1
378.686	16.38
378.897	114.69
379.107	45.06
379.317	32.77
379.528	22.53
379.738	86.01
379.948	73.73
380.158	63.49
380.369	38.91
380.579	-14.34
380.789	18.43
380.999	24.58
381.21	59.39
381.42	129.02
381.63	67.58
381.84	38.91
382.05	-12.29
382.261	96.25
382.471	79.87
382.681	20.48
382.891	92.16
383.101	83.97
383.311	-75.77
383.521	12.29
383.731	92.16
383.941	63.49
384.151	26.62
384.361	38.91
384.571	43.01
384.781	43.01
384.991	67.58
385.201	57.34
385.411	14.34
385.621	49.15
385.831	73.73
386.041	57.34
386.251	-53.25
386.461	79.87
386.671	-38.91
386.881	63.49
387.091	69.63
387.301	-30.72
387.511	-16.38
387.72	86.01
387.93	47.1
388.14	-4.1
388.35	86.01
388.56	26.62
388.769	73.73
388.979	-4.1
389.189	96.25
389.399	104.45
389.609	22.53
389.818	79.87
390.028	36.86
390.238	65.53
390.447	-10.24
390.657	53.25
390.867	20.48
391.076	47.1
391.286	-10.24
391.496	49.15
391.705	53.25
391.915	110.59
392.125	88.06
392.334	-47.1
392.544	67.58
392.753	47.1
392.963	40.96
393.172	157.69
393.382	22.53
393.591	96.25
393.801	38.91
394.01	98.3
394.22	30.72
394.429	59.39
394.639	6.14
394.848	100.35
395.058	100.35
395.267	22.53
395.477	122.88
395.686	94.21
395.895	114.69
396.105	135.17
396.314	75.77
396.524	104.45
396.733	133.12
396.942	77.82
397.152	129.02
397.361	81.92
397.57	53.25
397.78	112.64
397.989	124.93
398.198	71.68
398.407	135.17
398.617	40.96
398.826	114.69
399.035	153.6
399.244	63.49
399.453	67.58
399.663	18.43
399.872	176.13
400.081	28.67
400.29	153.6
400.499	47.1
400.708	88.06
400.917	116.73
401.127	40.96
401.336	55.3
401.545	184.32
401.754	38.91
401.963	98.3
402.172	8.19
402.381	102.4
402.59	104.45
402.799	100.35
403.008	106.49
403.217	73.73
403.426	36.86
403.635	65.53
403.844	221.18
404.053	129.02
404.262	88.06
404.471	106.49
404.68	100.35
404.888	129.02
405.097	75.77
405.306	151.55
405.515	126.97
405.724	186.37
405.933	122.88
406.142	202.75
406.35	194.56
406.559	163.84
406.768	145.41
406.977	223.23
407.185	204.8
407.394	221.18
407.603	124.93
407.812	149.5
408.02	174.08
408.229	204.8
408.438	204.8
408.646	169.98
408.855	231.42
409.064	243.71
409.272	278.52
409.481	245.76
409.69	188.41
409.898	221.18
410.107	184.32
410.315	327.67
410.524	229.37
410.733	309.24
410.941	296.96
411.15	323.58
411.358	366.59
411.567	407.55
411.775	325.63
411.984	407.55
412.192	352.25
412.401	413.69
412.609	423.93
412.818	387.07
413.026	497.66
413.234	555
413.443	485.37
413.651	505.85
413.86	473.08
414.068	561.14
414.276	569.34
414.485	514.04
414.693	612.34
414.901	641.01
415.11	595.96
415.318	659.45
415.526	653.3
415.734	667.64
415.943	694.26
416.151	704.5
416.359	759.8
416.567	686.07
416.776	837.62
416.984	841.72
417.192	925.68
417.4	858.1
417.608	833.52
417.817	966.64
418.025	1021.94
418.233	997.36
418.441	983.02
418.649	1048.56
418.857	1191.92
419.065	1132.53
419.273	1071.09
419.481	1171.44
419.689	1304.56
419.897	1304.56
420.105	1394.67
420.313	1474.54
420.521	1406.95
420.729	1400.81
420.937	1513.45
421.145	1484.78
421.353	1591.27
421.561	1669.09
421.769	1773.54
421.977	1771.49
422.185	1857.51
422.393	1939.43
422.601	2021.35
422.809	1906.66
423.017	2080.74
423.224	2070.5
423.432	2185.18
423.64	2148.32
423.848	2312.16
424.056	2328.54
424.263	2629.59
424.471	2465.75
424.679	2611.16
424.887	2764.76
425.094	2793.43
425.302	2844.63
425.51	2891.73
425.718	2987.99
425.925	2977.75
426.133	3235.79
426.341	3207.12
426.548	3389.39
426.756	3536.84
426.964	3667.91
427.171	3596.23
427.379	3758.02
427.586	3870.66
427.794	3897.28
428.001	4028.35
428.209	4474.81
428.417	4325.31
428.624	4595.64
428.832	4534.2
429.039	4495.29
429.247	4528.06
429.454	5023.67
429.662	5367.73
429.869	5040.05
430.076	5328.81
430.284	5173.17
430.491	5388.21
430.699	5697.45
430.906	5679.02
431.114	5859.24
431.321	5904.29
431.528	6188.96
431.736	6377.37
431.943	6666.14
432.15	6602.65
432.358	6727.58
432.565	7042.96
432.772	7096.21
432.979	7268.24
433.187	7344.02
433.394	7456.65
433.601	7966.6
433.808	7819.14
434.016	8036.23
434.223	8284.03
434.43	8861.56
434.637	8640.38
434.844	9131.89
435.052	9344.88
435.259	9197.43
435.466	9365.36
435.673	9174.9
435.88	9846.63
436.087	10467.17
436.294	10436.45
436.501	10250.08
436.708	10399.59
436.915	10712.92
437.122	11044.7
437.329	11059.03
437.537	11513.68
437.743	11722.57
437.95	11532.11
438.157	12179.27
438.364	12552
438.571	12502.85
438.778	12760.89
438.985	13735.73
439.192	13047.61
439.399	13678.38
439.606	13485.87
439.813	14120.74
440.02	15046.43
440.227	14692.13
440.433	14599.97
440.64	15183.64
440.847	14679.84
441.054	15251.22
441.261	16500.48
441.467	16283.4
441.674	16525.06
441.881	17008.38
442.088	17016.57
442.294	17039.1
442.501	17475.32
442.708	17587.96
442.914	18202.35
443.121	19287.77
443.328	18583.27
443.534	20055.76
443.741	19330.78
443.948	18937.57
444.154	20379.34
444.361	20141.77
444.568	20772.55
444.774	20326.09
444.981	20799.17
445.187	21178.04
445.394	22306.48
445.6	21792.44
445.807	24094.35
446.013	22922.91
446.22	23498.39
446.426	24084.11
446.633	24094.35
446.839	25511.55
447.046	24157.84
447.252	25294.46
447.459	25583.23
447.665	25351.81
447.871	26586.73
448.078	27522.65
448.284	26566.25
448.491	27094.63
448.697	28001.88
448.903	28446.29
449.11	28671.56
449.316	28421.71
449.522	28624.46
449.728	29783.61
449.935	29881.91
450.141	29810.23
450.347	30275.12
450.553	29451.84
450.76	29640.25
450.966	30807.59
451.172	30225.97
451.378	31274.53
451.584	30441.01
451.791	31479.33
451.997	31098.41
452.203	31526.43
452.409	31782.43
452.615	31637.02
452.821	30357.04
453.027	30084.66
453.233	31450.66
453.44	30357.04
453.646	30899.75
453.852	31235.62
454.058	31510.05
454.264	30365.23
454.47	31356.45
454.676	30479.92
454.882	31643.17
455.088	28819.02
455.294	28886.6
455.5	29566.52
455.705	29967.93
455.911	28644.94
456.117	27856.47
456.323	28005.97
456.529	26230.38
456.735	27917.91
456.941	26764.9
457.147	26451.56
457.352	25458.3
457.558	25251.45
457.764	25659
457.97	24694.41
458.176	24571.53
458.381	24327.82
458.587	23260.83
458.793	22996.64
458.999	22095.53
459.204	23658.13
459.41	23006.88
459.616	21599.93
459.821	21675.7
460.027	20969.15
460.233	21145.28
460.438	20170.44
460.644	20360.91
460.85	19128.03
461.055	19191.52
461.261	18859.74
461.466	17637.11
461.672	16959.23
461.878	18401
462.083	16957.18
462.289	17123.07
462.494	16473.86
462.7	15681.3
462.905	15279.89
463.111	16029.45
463.316	15882
463.522	15638.29
463.727	15525.65
463.932	15607.57
464.138	15744.78
464.343	15542.03
464.549	15124.25
464.754	15695.63
464.959	15410.96
465.165	15134.49
465.37	14677.79
465.575	14257.96
465.781	14870.3
465.986	14898.97
466.191	14454.56
466.397	14139.18
466.602	13369.14
466.807	13965.1
467.012	13971.24
467.218	14108.46
467.423	13784.88
467.628	13805.36
467.833	14350.12
468.038	13827.88
468.244	13375.28
468.449	13674.29
468.654	13530.93
468.859	13356.85
469.064	13377.33
469.269	12738.37
469.474	12920.63
469.679	13238.07
469.885	12746.56
470.09	12973.88
470.295	12842.81
470.5	12539.71
470.705	12459.84
470.91	12296
471.115	12263.24
471.32	12441.41
471.525	12521.28
471.73	12232.52
471.935	11980.62
472.139	11577.17
472.344	11743.05
472.549	11665.23
472.754	11616.08
472.959	11353.94
473.164	10919.77
473.369	11069.27
473.574	11552.59
473.778	11073.37
473.983	11095.89
474.188	11210.58
474.393	10579.81
474.598	10469.22
474.802	10438.5
475.007	10508.13
475.212	10565.47
475.417	10108.77
475.621	10139.49
475.826	10065.77
476.031	9893.74
476.235	9711.47
476.44	9858.92
476.645	9609.07
476.849	9705.32
477.054	9680.75
477.259	9344.88
477.463	9551.73
477.668	9004.92
477.872	9162.61
478.077	9000.82
478.282	8904.57
478.486	8894.33
478.691	8744.83
478.895	8779.64
479.1	8779.64
479.304	8800.12
479.509	8667
479.713	8828.79
479.918	8419.2
480.122	8269.7
480.326	8580.99
480.531	8437.63
480.735	8361.86
480.94	8222.59
481.144	8566.65
481.348	8060.8
481.553	8271.75
481.757	7935.88
481.961	8271.75
482.166	8247.17
482.37	8091.52
482.574	8097.67
482.778	7960.45
482.983	8247.17
483.187	8120.2
483.391	8173.44
483.595	8077.19
483.8	8101.76
484.004	8159.11
484.208	8267.65
484.412	8224.64
484.616	8200.07
484.821	7972.74
485.025	7886.73
485.229	8089.48
485.433	7909.26
485.637	8236.93
485.841	8050.57
486.045	8183.68
486.249	8081.28
486.453	7878.54
486.657	8265.6
486.861	7919.5
487.065	7935.88
487.269	8148.87
487.473	7915.4
487.677	8093.57
487.881	8134.53
488.085	8107.91
488.289	8185.73
488.493	8087.43
488.697	8118.15
488.901	8030.09
489.105	8089.48
489.309	8066.95
489.512	8206.21
489.716	8181.64
489.92	8279.94
490.124	8220.55
490.328	8275.84
490.531	8435.58
490.735	8202.11
490.939	8191.88
491.143	8275.84
491.346	8167.3
491.55	8374.14
491.754	8454.01
491.958	8458.11
492.161	8361.86
492.365	8513.41
492.569	8556.41
492.772	8558.46
492.976	8685.44
493.18	8585.08
493.383	8726.39
493.587	8820.6
493.79	8832.89
493.994	8724.35
494.197	8996.73
494.401	8968.06
494.605	8984.44
494.808	9060.21
495.012	9037.69
495.215	9123.7
495.419	9252.72
495.622	9222
495.825	9289.59
496.029	9410.42
496.232	9521.01
496.436	9564.01
496.639	9701.23
496.843	9619.31
497.046	9899.88
497.249	10049.38
497.453	10076.01
497.656	10215.27
497.859	10243.94
498.063	10205.03
498.266	10426.21
498.469	10407.78
498.673	10594.14
498.876	10680.16
499.079	10798.94
499.282	10721.12
499.485	11073.37
499.689	11134.81
499.892	11370.32
500.095	11493.2
500.298	11749.2
500.501	11280.21
500.705	11669.33
500.908	11767.63
501.111	11992.9
501.314	12011.34
501.517	12265.28
501.72	12351.3
501.923	12367.68
502.126	12703.55
502.329	12740.41
502.532	13041.46
502.735	12980.03
502.938	13338.42
503.141	13158.2
503.344	13336.37
503.547	13489.97
503.75	13733.68
503.953	13854.51
504.156	13827.88
504.359	14186.28
504.562	13991.72
504.765	14559.01
504.968	14593.83
505.17	14552.87
505.373	14743.33
505.576	14913.31
505.779	15116.06
505.982	15202.07
506.185	15521.56
506.387	15570.71
506.59	15525.65
506.793	16021.26
506.996	15892.24
507.198	16426.76
507.401	16615.17
507.604	16840.45
507.807	17108.73
508.009	17078.01
508.212	17118.97
508.415	17219.32
508.617	17321.72
508.82	17571.57
509.022	17583.86
509.225	17944.3
509.428	17925.87
509.63	18099.95
509.833	18511.59
510.035	18652.9
510.238	18810.59
510.44	19035.87
510.643	19304.15
510.845	19267.29
511.048	19173.08
511.25	19443.42
511.453	19709.65
511.655	20469.45
511.858	20047.57
512.06	20463.3
512.262	20750.02
512.465	20704.96
512.667	21073.6
512.87	21210.81
513.072	21229.24
513.274	21720.76
513.477	21663.41
513.679	21759.67
513.881	22310.57
514.084	22619.81
514.286	22380.2
514.488	22638.25
514.69	22931.11
514.893	23170.72
515.095	22986.4
515.297	23781.01
515.499	23647.9
515.701	23914.13
515.904	24426.12
516.106	24131.22
516.308	24526.47
516.51	24663.69
516.712	24819.33
516.914	25194.11
517.116	25407.1
517.318	25228.93
517.52	25593.47
517.722	25603.71
517.925	25951.86
518.127	26484.33
518.329	26736.23
518.531	26701.42
518.733	27008.61
518.935	26895.97
519.136	27493.98
519.338	27477.6
519.54	27885.14
519.742	27981.4
519.944	27885.14
520.146	28452.43
520.348	28522.06
520.55	28790.34
520.752	28628.56
520.954	29554.24
521.155	29115.97
521.357	29587
521.559	29994.55
521.761	30260.79
521.963	30027.32
522.164	30135.86
522.366	30273.07
522.568	30629.42
522.77	30717.48
522.971	31346.21
523.173	31133.22
523.375	31254.05
523.576	31069.73
523.778	31362.59
523.98	31663.64
524.181	31911.45
524.383	31944.22
524.584	32583.18
524.786	32249.36
524.988	32835.08
525.189	32579.09
525.391	32929.29
525.592	33050.12
525.794	33070.6
525.995	33117.7
526.197	33367.55
526.398	33445.38
526.6	33357.31
526.801	33910.27
527.003	33959.42
527.204	33846.78
527.406	34192.89
527.607	34141.69
527.808	34573.81
528.01	33893.88
528.211	34508.27
528.412	35014.12
528.614	35020.27
528.815	34741.74
529.016	34772.46
529.218	34950.63
529.419	34909.68
529.62	34872.81
529.822	35112.42
530.023	35089.9
530.224	35157.48
530.425	35210.73
530.626	34991.59
530.828	35214.82
531.029	36210.14
531.23	35032.55
531.431	35393
531.632	35792.35
531.833	35454.43
532.035	35575.27
532.236	35610.08
532.437	35882.46
532.638	35323.36
532.839	35982.81
533.04	35870.17
533.241	35618.27
533.442	36183.51
533.643	36029.91
533.844	35759.58
534.045	36019.67
534.246	35550.69
534.447	35988.95
534.648	35999.19
534.849	36511.19
535.05	35937.76
535.251	35530.21
535.451	35612.13
535.652	36095.45
535.853	36394.45
536.054	36154.84
536.255	35937.76
536.456	35896.8
536.657	36095.45
536.857	35804.64
537.058	35767.77
537.259	36261.33
537.46	35816.93
537.66	35534.31
537.861	36036.06
538.062	35798.49
538.263	36087.26
538.463	35816.93
538.664	35812.83
538.865	36097.5
539.065	36271.57
539.266	35468.77
539.466	36136.41
539.667	35769.82
539.868	36171.22
540.068	35628.51
540.269	35593.7
540.469	35984.86
540.67	35562.98
540.87	36046.3
541.071	35831.26
541.271	35712.48
541.472	35806.69
541.672	35624.42
541.873	35638.75
542.073	35780.06
542.274	35995.1
542.474	35859.93
542.675	35497.44
542.875	36285.91
543.075	35673.57
543.276	35218.92
543.476	35794.4
543.676	35687.9
543.877	35767.77
544.077	35532.26
544.277	35630.56
544.478	35577.31
544.678	36031.96
544.878	35761.63
545.078	35497.44
545.279	35368.42
545.479	35333.6
545.679	35472.87
545.879	35636.7
546.079	35624.42
546.28	35511.78
546.48	35120.62
546.68	35511.78
546.88	35505.63
547.08	35249.64
547.28	35202.53
547.48	35218.92
547.68	35538.4
547.88	34967.02
548.081	35591.65
548.281	35497.44
548.481	35546.59
548.681	35495.39
548.881	35524.07
549.081	35106.28
549.28	35272.17
549.48	35526.11
549.68	35093.99
549.88	35941.85
550.08	35313.13
550.28	35515.87
550.48	35300.84
550.68	35577.31
550.88	34907.63
551.08	35147.24
551.279	35565.03
551.479	34848.24
551.679	35653.09
551.879	35331.56
552.079	35001.83
552.278	34774.51
552.478	34958.83
552.678	35169.77
552.878	35767.77
553.077	34936.3
553.277	34688.49
553.477	35237.35
553.676	35026.41
553.876	35024.36
554.076	35055.08
554.275	35042.79
554.475	34561.52
554.674	34801.13
554.874	35003.88
555.074	35087.85
555.273	35102.18
555.473	34838
555.672	34377.2
555.872	34801.13
556.071	34870.76
556.271	34926.06
556.47	34610.67
556.67	34385.4
556.869	34747.89
557.068	34495.99
557.268	34344.44
557.467	34567.66
557.667	34899.44
557.866	34668.01
558.065	34756.08
558.265	34233.85
558.464	34498.03
558.663	34625.01
558.863	33975.8
559.062	34633.2
559.261	33811.96
559.461	34614.77
559.66	34024.95
559.859	34491.89
560.058	33715.71
560.258	34133.5
560.457	33719.81
560.656	34561.52
560.855	33881.6
561.054	34063.86
561.253	33740.29
561.453	33947.13
561.652	33830.4
561.851	33963.51
562.05	33773.05
562.249	33570.3
562.448	33934.84
562.647	33512.96
562.846	33605.12
563.045	33293.83
563.244	33455.62
563.443	33750.53
563.642	33134.09
563.841	33039.88
564.04	33025.54
564.239	33457.67
564.438	33076.74
564.637	33490.43
564.836	33463.81
565.035	32677.39
565.234	33052.17
565.432	33076.74
565.631	32751.12
565.83	33146.37
566.029	32792.08
566.228	32722.44
566.427	32452.11
566.625	32595.47
566.824	32032.28
567.023	32714.25
567.222	31919.64
567.42	32396.82
567.619	32298.52
567.818	32734.73
568.016	32200.21
568.215	32284.18
568.414	31833.63
568.612	32138.77
568.811	31852.06
569.01	31954.46
569.208	31528.48
569.407	32040.47
569.605	31448.61
569.804	32036.38
570.002	31424.03
570.201	31745.56
570.4	31577.63
570.598	31317.54
570.797	31241.76
570.995	31512.1
571.193	30983.72
571.392	31462.94
571.59	31145.51
571.789	30989.86
571.987	30549.55
572.186	30948.9
572.384	30414.38
572.582	30965.29
572.781	30623.28
572.979	30803.5
573.177	30553.65
573.376	30535.21
573.574	30209.59
573.772	30774.83
573.971	29918.78
574.169	30285.36
574.367	30332.47
574.565	30209.59
574.763	29859.38
574.962	29716.03
575.16	29685.31
575.358	30086.71
575.556	29294.14
575.754	29804.09
575.952	29378.11
576.151	29859.38
576.349	29222.47
576.547	29433.41
576.745	29249.09
576.943	29300.29
577.141	29363.78
577.339	29275.71
577.537	29230.66
577.735	29083.2
577.933	28677.71
578.131	28687.95
578.329	28520.01
578.527	28491.34
578.725	28730.95
578.923	28851.78
579.121	28495.44
579.319	28407.37
579.516	28380.75
579.714	28372.56
579.912	28319.31
580.11	27924.05
580.308	28059.22
580.506	28288.59
580.704	27631.19
580.901	28026.45
581.099	28106.32
581.297	27266.66
581.495	27823.7
581.692	27498.08
581.89	27444.83
582.088	27835.99
582.285	27407.97
582.483	27688.54
582.681	27166.31
582.878	27719.26
583.076	27240.03
583.274	27410.01
583.471	26979.94
583.669	26855.01
583.866	27137.63
584.064	27018.85
584.262	26736.23
584.459	27379.29
584.657	26805.86
584.854	26949.22
585.052	26394.22
585.249	26719.85
585.447	26633.83
585.644	26146.42
585.841	26590.83
586.039	26670.7
586.236	26109.55
586.434	26003.06
586.631	26046.07
586.828	25974.39
587.026	26056.31
587.223	26150.51
587.42	25736.82
587.618	25900.66
587.815	25310.85
588.012	25669.24
588.21	25357.95
588.407	25790.07
588.604	25321.09
588.801	25353.85
588.999	25140.86
589.196	25024.13
589.393	25173.63
589.59	25165.44
589.787	24794.76
589.984	25069.19
590.182	24434.32
590.379	24839.81
590.576	24802.95
590.773	24581.77
590.97	24516.23
591.167	24465.03
591.364	24106.64
591.561	24555.15
591.758	24180.37
591.955	24336.01
592.152	24145.55
592.349	23940.75
592.546	24579.72
592.743	24229.52
592.94	23557.78
593.137	23832.21
593.334	24012.43
593.531	23692.95
593.727	23662.23
593.924	23639.7
594.121	23357.08
594.318	23598.74
594.515	23391.9
594.712	23441.05
594.908	23277.21
595.105	23387.8
595.302	23090.85
595.499	22967.97
595.696	23150.24
595.892	22871.72
596.089	23025.31
596.286	23029.41
596.482	22691.49
596.679	22701.73
596.876	22578.86
597.072	22498.98
597.269	22316.72
597.466	22380.2
597.662	22488.74
597.859	22333.1
598.055	22132.4
598.252	22296.24
598.448	22367.91
598.645	21896.88
598.841	22173.36
599.038	21694.13
599.234	21882.55
599.431	21585.59
599.627	21819.06
599.824	22052.53
600.02	21233.34
600.217	21507.77
600.413	21622.45
600.609	21905.07
600.806	21345.98
601.002	21452.47
601.198	21292.73
601.395	21055.17
601.591	21096.13
601.787	21321.4
601.984	21108.41
602.18	20960.96
602.376	20700.87
602.572	20672.2
602.769	20788.93
602.965	20874.95
603.161	20797.12
603.357	20412.1
603.553	20524.74
603.75	20565.7
603.946	20147.92
604.142	20416.2
604.338	20047.57
604.534	20465.35
604.73	20246.22
604.926	19957.46
605.122	20186.83
605.318	19928.78
605.514	20057.81
605.71	19717.84
605.906	20029.13
606.102	19855.06
606.298	19803.86
606.494	19680.98
606.69	19916.5
606.886	19527.38
607.082	19465.94
607.278	19707.6
607.474	19486.42
607.67	19627.73
607.866	19341.02
608.062	19412.7
608.257	19439.32
608.453	19517.14
608.649	19467.99
608.845	19300.06
609.041	19304.15
609.236	19238.62
609.432	19103.45
609.628	19044.06
609.824	18867.94
610.019	18939.61
610.215	18845.41
610.411	19224.28
610.606	18884.32
610.802	19009.25
610.998	18685.67
611.193	18743.01
611.389	18650.85
611.584	18716.39
611.78	18728.67
611.976	18771.68
612.171	18464.49
612.367	18636.52
612.562	18480.87
612.758	18317.03
612.953	18513.64
613.149	18542.31
613.344	18120.43
613.539	18487.01
613.735	18274.03
613.93	18300.65
614.126	18298.6
614.321	18527.97
614.517	18142.96
614.712	18181.87
614.907	18157.29
615.103	18425.57
615.298	18058.99
615.493	18323.18
615.688	17893.1
615.884	18319.08
616.079	17860.34
616.274	17913.58
616.47	17702.64
616.665	17899.25
616.86	17770.22
617.055	17475.32
617.25	17766.13
617.445	17895.15
617.641	17411.83
617.836	17856.24
618.031	17153.79
618.226	17596.15
618.421	17194.75
618.616	17520.37
618.811	17102.59
619.006	17389.3
619.201	17032.96
619.396	17348.34
619.591	16770.82
619.786	17157.88
619.981	16729.86
620.176	17161.98
620.371	16697.09
620.566	16770.82
620.761	16602.88
620.956	16508.68
621.151	16645.89
621.346	16447.24
621.541	16441.09
621.735	16275.21
621.93	16004.88
622.125	16430.85
622.32	16021.26
622.515	15965.96
622.709	15824.65
622.904	15847.18
623.099	15537.94
623.294	15656.72
623.488	15423.25
623.683	15527.7
623.878	15505.17
624.072	15537.94
624.267	15386.39
624.462	15236.89
624.656	14878.49
624.851	15107.87
625.046	14966.56
625.24	15171.35
625.435	14628.64
625.629	14919.45
625.824	14749.47
626.018	14688.03
626.213	14198.57
626.407	14376.74
626.602	14407.46
626.796	14534.43
626.991	14260.01
627.185	14135.08
627.38	14260.01
627.574	14040.87
627.768	14085.93
627.963	13924.14
628.157	13805.36
628.352	13741.87
628.546	13440.82
628.74	13557.55
628.935	13590.32
629.129	13481.78
629.323	13111.1
629.517	13389.62
629.712	13252.41
629.906	13363
630.1	13160.25
630.294	13043.51
630.489	13109.05
630.683	12867.39
630.877	12699.45
631.071	12695.36
631.265	12629.82
631.459	12613.44
631.653	12189.51
631.848	12502.85
632.042	12363.59
632.236	12623.68
632.43	12482.37
632.624	12435.27
632.818	12103.5
633.012	12220.23
633.206	12007.24
633.4	12320.58
633.594	11728.72
633.788	11888.46
633.982	11734.86
634.176	11841.36
634.369	11503.44
634.563	11550.54
634.757	11351.89
634.951	11640.65
635.145	11587.41
635.339	11548.5
635.533	11235.16
635.726	11368.27
635.92	11112.28
636.114	11171.67
636.308	11229.01
636.501	11042.65
636.695	10956.63
636.889	10835.8
637.083	10866.52
637.276	10631.01
637.47	10637.15
637.664	10737.5
637.857	10936.15
638.051	10600.29
638.244	10633.05
638.438	10549.09
638.632	10444.64
638.825	10360.67
639.019	10225.51
639.212	10381.15
639.406	10334.05
639.599	10233.7
639.793	10557.28
639.986	10012.52
640.18	10205.03
640.373	9910.12
640.567	9899.88
640.76	9879.4
640.954	9754.48
641.147	9684.84
641.34	9770.86
641.534	9754.48
641.727	9688.94
641.92	9586.54
642.114	9445.23
642.307	9500.53
642.5	9629.55
642.694	9232.24
642.887	9260.91
643.08	9471.86
643.273	9328.5
643.467	9174.9
643.66	9086.84
643.853	8992.63
644.046	8793.98
644.239	8910.71
644.432	8986.49
644.626	9074.55
644.819	8873.85
645.012	8914.81
645.205	8740.73
645.398	8738.68
645.591	8580.99
645.784	8558.46
645.977	8509.31
646.17	8589.18
646.363	8554.37
646.556	8333.18
646.749	8140.68
646.942	8437.63
647.135	8232.83
647.328	8376.19
647.521	8290.18
647.714	8204.16
647.907	8150.92
648.099	8247.17
648.292	8081.28
648.485	8128.39
648.678	7952.26
648.871	8013.7
649.064	7907.21
649.256	7731.08
649.449	7890.82
649.642	7786.38
649.835	7726.99
650.027	7604.11
650.22	7575.44
650.413	7651.21
650.605	7249.81
650.798	7503.76
650.991	7624.59
651.183	7522.19
651.376	7415.69
651.568	7231.38
651.761	7425.93
651.954	7268.24
652.146	7210.9
652.339	7210.9
652.531	7149.46
652.724	7108.5
652.916	7098.26
653.109	7135.12
653.301	7165.84
653.494	7128.98
653.686	6864.79
653.879	6864.79
654.071	6850.46
654.263	6784.92
654.456	6821.78
654.648	6789.02
654.84	6760.34
655.033	6645.66
655.225	6711.19
655.417	6709.15
655.61	6645.66
655.802	6481.82
655.994	6420.38
656.186	6543.26
656.379	6551.45
656.571	6557.6
656.763	6483.87
656.955	6485.92
657.148	6428.57
657.34	6436.77
657.532	6352.8
657.724	6127.52
657.916	6223.78
658.108	6059.94
658.3	6152.1
658.492	6246.3
658.684	6016.93
658.876	6072.23
659.068	5994.4
659.26	5965.73
659.452	5896.1
659.644	5955.49
659.836	5730.22
660.028	6092.71
660.22	5738.41
660.412	5873.57
660.604	5775.27
660.796	5840.81
660.988	5840.81
661.18	5674.92
661.372	5707.69
661.563	5709.74
661.755	5513.13
661.947	5560.24
662.139	5609.39
662.331	5636.01
662.522	5439.4
662.714	5527.47
662.906	5472.17
663.097	5369.77
663.289	5302.19
663.481	5285.81
663.673	5480.36
663.864	5326.77
664.056	5306.29
664.247	5234.61
664.439	5169.07
664.631	5287.86
664.822	5142.45
665.014	5316.53
665.205	5025.72
665.397	5060.53
665.588	5181.36
665.78	4992.95
665.971	5130.16
666.163	4992.95
666.354	5031.86
666.546	5033.91
666.737	4917.17
666.929	5027.76
667.12	5005.24
667.311	4806.58
667.503	4913.08
667.694	4886.45
667.885	4765.62
668.077	4825.01
668.268	4749.24
668.459	4761.53
668.651	4601.79
668.842	4724.66
669.033	4931.51
669.224	4646.84
669.416	4679.61
669.607	4675.51
669.798	4685.75
669.989	4736.95
670.18	4540.35
670.371	4507.58
670.563	4519.87
670.754	4640.7
670.945	4399.04
671.136	4550.59
671.327	4339.65
671.518	4562.87
671.709	4552.63
671.9	4437.95
672.091	4491.2
672.282	4495.29
672.473	4315.07
672.664	4360.13
672.855	4274.11
673.046	4261.82
673.237	4458.43
673.428	4392.89
673.619	4396.99
673.809	4212.67
674	4306.88
674.191	4308.93
674.382	4181.95
674.573	4184
674.764	4175.81
674.954	4249.54
675.145	4274.11
675.336	4120.51
675.527	4104.13
675.717	4087.75
675.908	3983.3
676.099	4192.19
676.289	4050.88
676.48	3936.2
676.671	3923.91
676.861	3930.05
677.052	4005.83
677.243	3841.99
677.433	4071.36
677.624	4036.55
677.814	3993.54
678.005	3848.13
678.195	3946.44
678.386	3991.49
678.576	3872.71
678.767	3940.29
678.957	3985.35
679.148	3975.11
679.338	3930.05
679.529	3819.46
679.719	3809.22
679.909	3954.63
680.1	3792.84
680.29	3839.94
680.481	3913.67
680.671	3823.56
680.861	3710.92
681.052	3805.13
681.242	3690.44
681.432	3739.59
681.622	3751.88
681.813	3678.15
682.003	3801.03
682.193	3651.53
682.383	3717.06
682.573	3805.13
682.764	3659.72
682.954	3805.13
683.144	3766.21
683.334	3553.23
683.524	3704.78
683.714	3663.82
683.904	3518.41
684.094	3459.02
684.284	3684.3
684.474	3528.65
684.664	3585.99
684.854	3661.77
685.044	3502.03
685.234	3430.35
685.424	3676.1
685.614	3553.23
685.804	3479.5
685.994	3485.64
686.184	3561.42
686.374	3579.85
686.564	3432.4
686.753	3590.09
686.943	3389.39
687.133	3413.96
687.323	3459.02
687.513	3356.62
687.702	3487.69
687.892	3289.04
688.082	3303.37
688.272	3360.72
688.461	3405.77
688.651	3301.33
688.841	3301.33
689.03	3311.57
689.22	3268.56
689.41	3317.71
689.599	3135.44
689.789	3135.44
689.979	3112.91
690.168	3282.89
690.358	3237.84
690.547	3258.32
690.737	3151.82
690.926	3194.83
691.116	3037.14
691.305	3198.93
691.495	3010.51
691.684	3119.06
691.874	2932.69
692.063	3000.27
692.252	3022.8
692.442	3035.09
692.631	2963.41
692.82	3071.95
693.01	2875.35
693.199	2953.17
693.388	2987.99
693.578	2987.99
693.767	3006.42
693.956	2947.03
694.146	2791.38
694.335	2844.63
694.524	2856.92
694.713	2865.11
694.902	2826.2
695.092	2932.69
695.281	2858.96
695.47	2854.87
695.659	2824.15
695.848	2688.98
696.037	2711.51
696.226	2852.82
696.415	2688.98
696.604	2793.43
696.793	2768.85
696.982	2803.67
697.171	2772.95
697.36	2742.23
697.549	2760.66
697.738	2772.95
697.927	2609.11
698.116	2691.03
698.305	2721.75
698.494	2705.37
698.683	2695.13
698.872	2645.98
699.061	2637.78
699.25	2750.42
699.438	2686.93
699.627	2686.93
699.816	2637.78
700.005	2645.98
700.193	2627.54
700.382	2619.35
700.571	2584.54
700.76	2627.54
700.948	2627.54
701.137	2648.02
701.326	2684.89
701.514	2570.2
701.703	2664.41
701.892	2676.7
702.08	2680.79
702.269	2521.05
702.457	2504.67
702.646	2545.63
702.834	2504.67
703.023	2426.84
703.212	2504.67
703.4	2406.36
703.589	2455.51
703.777	2570.2
703.965	2439.13
704.154	2480.09
704.342	2590.68
704.531	2625.5
704.719	2602.97
704.907	2635.74
705.096	2430.94
705.284	2482.14
705.472	2480.09
705.661	2424.8
705.849	2570.2
706.037	2510.81
706.226	2404.32
706.414	2529.24
706.602	2457.56
706.79	2410.46
706.979	2482.14
707.167	2543.58
707.355	2400.22
707.543	2435.03
707.731	2414.56
707.919	2562.01
708.107	2375.64
708.296	2416.6
708.484	2357.21
708.672	2455.51
708.86	2539.48
709.048	2525.15
709.236	2406.36
709.424	2349.02
709.612	2541.53
709.8	2428.89
709.988	2439.13
710.176	2480.09
710.364	2516.95
710.551	2275.29
710.739	2422.75
710.927	2414.56
711.115	2230.24
711.303	2402.27
711.491	2498.52
711.679	2322.4
711.866	2346.97
712.054	2357.21
712.242	2426.84
712.43	2375.64
712.617	2400.22
712.805	2416.6
712.993	2451.42
713.181	2303.96
713.368	2394.08
713.556	2451.42
713.744	2254.81
713.931	2408.41
714.119	2234.33
714.306	2400.22
714.494	2342.88
714.682	2271.2
714.869	2277.34
715.057	2359.26
715.244	2289.63
715.432	2263.01
715.619	2365.4
715.807	2310.11
715.994	2322.4
716.182	2406.36
716.369	2230.24
716.556	2402.27
716.744	2265.05
716.931	2308.06
717.119	2351.07
717.306	2340.83
717.493	2283.49
717.681	2275.29
717.868	2312.16
718.055	2308.06
718.242	2283.49
718.43	2320.35
718.617	2334.68
718.804	2242.53
718.991	2316.25
719.179	2277.34
719.366	2234.33
719.553	2275.29
719.74	2291.68
719.927	2273.25
720.114	2265.05
720.301	2205.66
720.488	2254.81
720.676	2316.25
720.863	2277.34
721.05	2322.4
721.237	2238.43
721.424	2334.68
721.611	2258.91
721.798	2256.86
721.985	2308.06
722.172	2166.75
722.358	2301.92
722.545	2254.81
722.732	2252.77
722.919	2226.14
723.106	2328.54
723.293	2191.33
723.48	2379.74
723.667	2299.87
723.853	2252.77
724.04	2224.09
724.227	2230.24
724.414	2283.49
724.6	2193.37
724.787	2336.73
724.974	2308.06
725.161	2222.05
725.347	2250.72
725.534	2297.82
725.72	2211.81
725.907	2277.34
726.094	2320.35
726.28	2267.1
726.467	2170.85
726.653	2240.48
726.84	2238.43
727.027	2246.62
727.213	2258.91
727.4	2215.9
727.586	2283.49
727.773	2234.33
727.959	2324.44
728.145	2209.76
728.332	2277.34
728.518	2258.91
728.705	2367.45
728.891	2220
729.077	2174.94
729.264	2289.63
729.45	2119.65
729.636	2361.31
729.823	2226.14
730.009	2203.61
730.195	2187.23
730.382	2199.52
730.568	2187.23
730.754	2340.83
730.94	2170.85
731.126	2236.38
731.313	2176.99
731.499	2267.1
731.685	2314.2
731.871	2144.22
732.057	2113.5
732.243	2211.81
732.429	2291.68
732.615	2195.42
732.801	2228.19
732.987	2275.29
733.173	2181.09
733.359	2162.65
733.545	2236.38
733.731	2226.14
733.917	2183.13
734.103	2152.42
734.289	2179.04
734.475	2271.2
734.661	2291.68
734.847	2136.03
735.033	2217.95
735.219	2144.22
735.404	2146.27
735.59	2119.65
735.776	2258.91
735.962	2123.74
736.148	2285.53
736.333	2113.5
736.519	2179.04
736.705	2107.36
736.89	2056.16
737.076	2168.8
737.262	2170.85
737.447	2236.38
737.633	2054.11
737.819	2207.71
738.004	2191.33
738.19	2103.26
738.375	2054.11
738.561	2176.99
738.747	2131.94
738.932	1935.33
739.118	2211.81
739.303	2117.6
739.489	2017.25
739.674	2148.32
739.859	2041.82
740.045	1998.82
740.23	2140.13
740.416	2013.15
740.601	1990.63
740.786	1980.39
740.972	1947.62
741.157	2045.92
741.342	1968.1
741.528	1935.33
741.713	1996.77
741.898	1927.14
742.084	2031.58
742.269	1951.71
742.454	2070.5
742.639	1916.9
742.824	1925.09
743.01	1920.99
743.195	1994.72
743.38	1998.82
743.565	1906.66
743.75	1896.42
743.935	1968.1
744.12	1972.19
744.305	1908.71
744.49	1746.92
744.675	1875.94
744.86	1918.95
745.045	1882.08
745.23	1843.17
745.415	1814.5
745.6	1656.81
745.785	1898.47
745.97	1796.07
746.155	1859.56
746.34	1777.64
746.525	1802.21
746.71	1902.56
746.895	1830.88
747.079	1791.97
747.264	1816.55
747.449	1843.17
747.634	1865.7
747.819	1820.64
748.003	1685.48
748.188	1720.29
748.373	1841.12
748.557	1644.52
748.742	1689.57
748.927	1652.71
749.111	1691.62
749.296	1660.9
749.481	1689.57
749.665	1558.5
749.85	1599.46
750.034	1662.95
750.219	1560.55
750.404	1599.46
750.588	1554.41
750.773	1538.02
750.957	1546.22
751.141	1417.19
751.326	1576.94
751.51	1529.83
751.695	1554.41
751.879	1480.68
752.064	1474.54
752.248	1507.3
752.432	1490.92
752.617	1484.78
752.801	1482.73
752.985	1425.39
753.17	1363.95
753.354	1417.19
753.538	1433.58
753.722	1460.2
753.907	1413.1
754.091	1259.5
754.275	1359.85
754.459	1327.08
754.643	1357.8
754.828	1372.14
755.012	1245.16
755.196	1263.6
755.38	1331.18
755.564	1331.18
755.748	1267.69
755.932	1286.12
756.116	1161.2
756.3	1214.45
756.484	1282.03
756.668	1257.45
756.852	1212.4
757.036	1243.12
757.22	1167.34
757.404	1230.83
757.588	1220.59
757.772	1202.16
757.956	1267.69
758.14	1138.67
758.323	1146.86
758.507	1286.12
758.691	1110
758.875	1155.05
759.059	1163.25
759.242	1085.42
759.426	1099.76
759.61	1161.2
759.794	1075.18
759.977	1124.33
760.161	1116.14
760.345	1179.63
760.528	997.36
760.712	1114.09
760.895	1097.71
761.079	1066.99
761.263	933.87
761.446	980.98
761.63	1046.51
761.813	1005.55
761.997	1095.66
762.18	1007.6
762.364	1001.46
762.547	937.97
762.731	989.17
762.914	1048.56
763.098	1048.56
763.281	1052.66
763.464	997.36
763.648	974.83
763.831	985.07
764.015	870.39
764.198	1044.46
764.381	935.92
764.564	991.22
764.748	913.39
764.931	907.25
765.114	995.31
765.297	907.25
765.481	907.25
765.664	958.45
765.847	958.45
766.03	858.1
766.213	923.63
766.397	915.44
766.58	888.82
766.763	886.77
766.946	847.86
767.129	899.06
767.312	909.3
767.495	858.1
767.678	897.01
767.861	804.85
768.044	851.95
768.227	884.72
768.41	894.96
768.593	854
768.776	833.52
768.959	767.99
769.142	841.72
769.324	872.43
769.507	870.39
769.69	794.61
769.873	765.94
770.056	806.9
770.239	825.33
770.421	780.28
770.604	759.8
770.787	858.1
770.97	806.9
771.152	751.6
771.335	778.23
771.518	772.08
771.7	776.18
771.883	759.8
772.066	751.6
772.248	813.04
772.431	802.8
772.613	743.41
772.796	739.32
772.978	823.28
773.161	702.45
773.343	780.28
773.526	770.04
773.708	696.31
773.891	712.69
774.073	757.75
774.256	733.17
774.438	669.69
774.621	671.73
774.803	735.22
774.985	743.41
775.168	743.41
775.35	591.86
775.532	694.26
775.715	659.45
775.897	598.01
776.079	616.44
776.261	694.26
776.444	608.25
776.626	636.92
776.808	739.32
776.99	563.19
777.173	645.11
777.355	604.15
777.537	645.11
777.719	595.96
777.901	589.81
778.083	587.77
778.265	579.58
778.447	604.15
778.629	552.95
778.811	618.49
778.993	604.15
779.175	604.15
779.357	575.48
779.539	528.38
779.721	591.86
779.903	538.62
780.085	559.1
780.267	509.94
780.449	546.81
780.631	669.69
780.812	579.58
780.994	468.98
781.176	575.48
781.358	540.66
781.54	516.09
781.721	489.46
781.903	550.9
782.085	458.74
782.267	477.18
782.448	458.74
782.63	401.4
782.812	415.74
782.993	456.7
783.175	499.7
783.357	532.47
783.538	481.27
783.72	473.08
783.901	460.79
784.083	475.13
784.264	466.94
784.446	425.98
784.627	403.45
784.809	432.12
784.99	382.97
785.172	413.69
785.353	434.17
785.535	456.7
785.716	370.68
785.897	382.97
786.079	442.36
786.26	378.87
786.441	409.59
786.623	411.64
786.804	403.45
786.985	358.39
787.167	376.83
787.348	393.21
787.529	305.15
787.71	374.78
787.891	350.2
788.073	319.48
788.254	301.05
788.435	327.67
788.616	350.2
788.797	333.82
788.978	352.25
789.159	337.91
789.34	344.06
789.522	301.05
789.703	333.82
789.884	385.02
790.065	368.63
790.246	354.3
790.427	251.9
790.607	325.63
790.788	325.63
790.969	292.86
791.15	325.63
791.331	344.06
791.512	333.82
791.693	264.19
791.874	253.95
792.054	337.91
792.235	374.78
792.416	292.86
792.597	272.38
792.778	268.28
792.958	337.91
793.139	358.39
793.32	260.09
793.5	245.76
793.681	266.24
793.862	319.48
794.042	296.96
794.223	206.84
794.404	262.14
794.584	241.66
794.765	253.95
794.945	251.9
795.126	253.95
795.306	245.76
795.487	233.47
795.667	292.86
795.848	280.57
796.028	219.13
796.209	225.28
796.389	274.43
796.57	241.66
796.75	169.98
796.93	260.09
797.111	182.27
797.291	323.58
797.471	237.56
797.652	217.08
797.832	210.94
798.012	270.33
798.192	212.99
798.373	245.76
798.553	163.84
798.733	266.24
798.913	268.28
799.093	309.24
799.274	233.47
799.454	176.13
799.634	219.13
799.814	294.91
799.994	237.56
800.174	260.09
800.354	284.67
800.534	208.89
800.714	163.84
800.894	169.98
801.074	198.65
801.254	182.27
801.434	204.8
801.614	159.74
801.794	276.48
801.974	712.69
802.154	223.23
802.334	237.56
802.514	186.37
802.693	178.17
802.873	155.65
803.053	278.52
803.233	180.22
803.413	196.6
803.592	161.79
803.772	294.91
803.952	143.36
804.131	155.65
804.311	210.94
804.491	276.48
804.67	188.41
804.85	239.61
805.03	200.7
805.209	237.56
805.389	137.21
805.568	182.27
805.748	210.94
805.928	169.98
806.107	161.79
806.287	208.89
806.466	104.45
806.646	169.98
806.825	198.65
807.004	229.37
807.184	194.56
807.363	210.94
807.543	194.56
807.722	223.23
807.901	190.46
808.081	133.12
808.26	153.6
808.439	210.94
808.619	98.3
808.798	155.65
808.977	178.17
809.156	122.88
809.336	210.94
809.515	196.6
809.694	145.41
809.873	112.64
810.052	153.6
810.231	268.28
810.411	145.41
810.59	141.31
810.769	157.69
810.948	139.26
811.127	153.6
811.306	202.75
811.485	112.64
811.664	202.75
811.843	112.64
812.022	77.82
812.201	163.84
812.38	159.74
812.559	145.41
812.737	151.55
812.916	120.83
813.095	81.92
813.274	204.8
813.453	104.45
813.632	155.65
813.811	137.21
813.989	75.77
814.168	137.21
814.347	22.53
814.526	190.46
814.704	256
814.883	112.64
815.062	151.55
815.24	129.02
815.419	110.59
815.598	94.21
815.776	124.93
815.955	71.68
816.133	55.3
816.312	26.62
816.49	112.64
816.669	153.6
816.847	71.68
817.026	182.27
817.204	114.69
817.383	86.01
817.561	133.12
817.74	98.3
817.918	88.06
818.097	133.12
818.275	90.11
818.453	176.13
818.632	147.45
818.81	221.18
818.988	100.35
819.167	81.92
819.345	137.21
819.523	90.11
819.701	116.73
819.879	120.83
820.058	120.83
820.236	90.11
820.414	59.39
820.592	65.53
820.77	55.3
820.948	120.83
821.127	10.24
821.305	124.93
821.483	77.82
821.661	182.27
821.839	79.87
822.017	79.87
822.195	155.65
822.373	163.84
822.551	88.06
822.729	106.49
822.907	71.68
823.085	47.1
823.262	98.3
823.44	133.12
823.618	108.54
823.796	47.1
823.974	79.87
824.152	94.21
824.329	14.34
824.507	88.06
824.685	57.34
824.863	124.93
825.04	90.11
825.218	133.12
825.396	92.16
825.574	133.12
825.751	145.41
825.929	116.73
826.107	77.82
826.284	100.35
826.462	126.97
826.639	129.02
826.817	32.77
826.994	43.01
827.172	55.3
827.349	153.6
827.527	28.67
827.704	61.44
827.882	92.16
828.059	92.16
828.237	106.49
828.414	90.11
828.591	8.19
828.769	67.58
828.946	32.77
829.124	104.45
829.301	114.69
829.478	129.02
829.655	59.39
829.833	71.68
830.01	-2.05
830.187	-8.19
830.364	110.59
830.542	104.45
830.719	51.2
830.896	96.25
831.073	116.73
831.25	57.34
831.427	16.38
831.604	104.45
831.782	73.73
831.959	116.73
832.136	155.65
832.313	137.21
832.49	63.49
832.667	30.72
832.844	88.06
833.021	139.26
833.198	120.83
833.374	24.58
833.551	114.69
833.728	59.39
833.905	110.59
834.082	47.1
834.259	112.64
834.436	161.79
834.612	24.58
834.789	145.41
834.966	67.58
835.143	55.3
835.319	14.34
835.496	45.06
835.673	18.43
835.85	169.98
836.026	26.62
836.203	43.01
836.38	63.49
836.556	43.01
836.733	47.1
836.909	100.35
837.086	104.45
837.262	38.91
837.439	22.53
837.616	65.53
837.792	-16.38
837.968	77.82
838.145	-16.38
838.321	30.72
838.498	57.34
838.674	92.16
838.851	65.53
839.027	2.05
839.203	49.15
839.38	30.72
839.556	96.25
839.732	122.88
839.909	124.93
840.085	47.1
840.261	69.63
840.437	34.82
840.614	61.44
840.79	73.73
840.966	122.88
841.142	118.78
841.318	-49.15
841.494	28.67
841.671	102.4
841.847	18.43
842.023	45.06
842.199	43.01
842.375	30.72
842.551	-28.67
842.727	14.34
842.903	116.73
843.079	22.53
843.255	163.84
843.431	55.3
843.607	20.48
843.783	12.29
843.959	104.45
844.134	-18.43
844.31	6.14
844.486	63.49
844.662	57.34
844.838	43.01
845.013	53.25
845.189	-22.53
845.365	51.2
845.541	14.34
845.716	-0
845.892	63.49
846.068	-51.2
846.244	4.1
846.419	79.87
846.595	-4.1
846.77	77.82
846.946	30.72
847.122	10.24
847.297	-10.24
847.473	67.58
847.648	-16.38
847.824	75.77
847.999	-49.15
848.175	51.2
848.35	30.72
848.526	30.72
848.701	-57.34
848.876	83.97
849.052	18.43
849.227	28.67
849.403	45.06
849.578	63.49
849.753	22.53
849.929	34.82
850.104	38.91
850.279	14.34
850.454	24.58
850.63	83.97
850.805	26.62
850.98	71.68
851.155	53.25
851.33	-24.58
851.505	63.49
851.681	83.97
851.856	40.96
852.031	47.1
852.206	-24.58
852.381	-0
852.556	55.3
852.731	57.34
852.906	30.72
853.081	49.15
853.256	26.62
853.431	38.91
853.606	-30.72
853.781	55.3
853.956	24.58
854.131	49.15
854.305	22.53
854.48	-51.2
854.655	14.34
854.83	53.25
855.005	-16.38
855.18	32.77
855.354	-16.38
855.529	-8.19
855.704	18.43
855.879	71.68
856.053	18.43
856.228	6.14
856.403	16.38
856.577	47.1
856.752	-57.34
856.926	8.19
857.101	55.3
857.276	-22.53
857.45	6.14
857.625	40.96
857.799	30.72
857.974	2.05
858.148	47.1
858.323	47.1
858.497	-16.38
858.672	57.34
858.846	49.15
859.02	24.58
859.195	-14.34
859.369	69.63
859.543	18.43
859.718	49.15
859.892	47.1
860.066	40.96
860.241	18.43
860.415	6.14
860.589	-67.58
860.763	-32.77
860.938	-2.05
861.112	30.72
861.286	-36.86
861.46	14.34
861.634	14.34
861.808	-18.43
861.982	57.34
862.157	-16.38
862.331	-34.82
862.505	-26.62
862.679	24.58
862.853	6.14
863.027	8.19
863.201	139.26
863.375	6.14
863.549	22.53
863.722	18.43
863.896	-26.62
864.07	18.43
864.244	-0
864.418	24.58
864.592	34.82
864.766	-34.82
864.939	75.77
865.113	-8.19
865.287	43.01
865.461	30.72
865.634	-8.19
865.808	18.43
865.982	-45.06
866.156	57.34
866.329	-0
866.503	34.82
866.676	22.53
866.85	38.91
867.024	55.3
867.197	-26.62
867.371	-24.58
867.544	-8.19
867.718	73.73
867.891	6.14
868.065	-14.34
868.238	-26.62
868.412	-18.43
868.585	-53.25
868.759	-24.58
868.932	-6.14
869.105	-59.39
869.279	26.62
869.452	-65.54
869.625	16.38
869.799	6.14
869.972	14.34
870.145	-10.24
870.319	-34.82
870.492	71.68
870.665	-26.62
870.838	-47.1
871.011	-34.82
871.185	-0
871.358	-26.62
871.531	43.01
871.704	-10.24
871.877	-10.24
872.05	-51.2
872.223	22.53
872.396	22.53
872.569	24.58
872.742	8.19
872.915	32.77
873.088	-71.68
873.261	-22.53
873.434	28.67
873.607	24.58
873.78	102.4
873.953	-2.05
874.126	-6.14
874.299	-26.62
874.471	30.72
874.644	-4.1
874.817	32.77
874.99	24.58
875.163	-2.05
875.335	-30.72
875.508	30.72
875.681	-2.05
875.853	86.01
876.026	73.73
876.199	71.68
876.371	-92.16
876.544	14.34
876.717	-63.49
876.889	-8.19
877.062	-26.62
877.234	-8.19
877.407	8.19
877.579	18.43
877.752	16.38
877.924	12.29
878.097	-2.05
878.269	-10.24
878.442	-6.14
878.614	47.1
878.786	14.34
878.959	-0
879.131	-38.91
879.303	-10.24
879.476	-55.3
879.648	90.11
879.82	-10.24
879.993	43.01
880.165	12.29
880.337	-51.2
880.509	8.19
880.681	-59.39
880.854	-38.91
881.026	8.19
881.198	-4.1
881.37	16.38
881.542	-40.96
881.714	4.1
881.886	-12.29
882.058	-24.58
882.23	32.77
882.402	34.82
882.574	81.92
882.746	49.15
882.918	26.62
883.09	38.91
883.262	24.58
883.434	-45.06
883.606	-6.14
883.778	-20.48
883.95	81.92
884.122	8.19
884.293	10.24
884.465	-28.67
884.637	-12.29
884.809	-26.62
884.98	73.73
885.152	-32.77
885.324	83.97
885.496	-51.2
885.667	8.19
885.839	-14.34
886.011	30.72
886.182	-10.24
886.354	-0
886.525	32.77
886.697	-47.1
886.869	-10.24
887.04	6.14
887.212	22.53
887.383	-16.38
887.555	-55.3
887.726	-65.54
887.897	26.62
888.069	86.01
888.24	32.77
888.412	30.72
888.583	22.53
888.754	-34.82
888.926	38.91
889.097	-10.24
889.268	-67.58
889.44	-20.48
889.611	-77.82
889.782	-22.53
889.953	18.43
890.125	-63.49
890.296	-51.2
890.467	22.53
890.638	-26.62
890.809	-36.86
890.98	-18.43
891.151	45.06
891.323	6.14
891.494	6.14
891.665	34.82
891.836	51.2
892.007	16.38
892.178	10.24
892.349	2.05
892.52	-83.97
892.691	-43.01
892.862	43.01
893.032	18.43
893.203	-2.05
893.374	47.1
893.545	-10.24
893.716	59.39
893.887	-32.77
894.057	88.06
894.228	-57.34
894.399	18.43
894.57	59.39
894.74	-38.91
894.911	-20.48
895.082	-16.38
895.253	-32.77
895.423	6.14
895.594	83.97
895.764	-14.34
895.935	-43.01
896.106	-75.77
896.276	-24.58
896.447	-20.48
896.617	47.1
896.788	-22.53
896.958	-16.38
897.129	30.72
897.299	-24.58
897.47	63.49
897.64	65.53
897.81	4.1
897.981	-10.24
898.151	-2.05
898.322	59.39
898.492	83.97
898.662	6.14
898.832	-24.58
899.003	-0
899.173	73.73
899.343	-51.2
899.513	-8.19
