Data from USB4F104151__32__14-16-33-391.txt Node

Date: Thu Mar 13 14:16:33 EDT 2025
User: louis
Spectrometer: USB4F10415
Trigger mode: 4
Integration Time (sec): 2.000000E-2
Scans to average: 1
Electric dark correction enabled: true
Nonlinearity correction enabled: false
Boxcar width: 0
XAxis mode: Wavelengths
Number of Pixels in Spectrum: 3648
>>>>>Begin Spectral Data<<<<<
178.204	-140.63
178.424	-140.63
178.644	-140.63
178.864	-85.33
179.084	-85.33
179.304	47.79
179.524	0.68
179.744	-17.75
179.964	60.07
180.184	-11.61
180.404	6.83
180.624	-30.04
180.844	-23.89
181.064	-32.08
181.283	4.78
181.503	-46.42
181.723	41.64
181.943	12.97
182.163	84.65
182.383	-13.65
182.602	17.07
182.822	-48.47
183.042	66.22
183.262	23.21
183.482	4.78
183.701	17.07
183.921	-48.47
184.141	-3.41
184.361	17.07
184.58	90.79
184.8	-46.42
185.02	10.92
185.239	76.46
185.459	94.89
185.679	27.31
185.898	37.55
186.118	-13.65
186.338	25.26
186.557	25.26
186.777	-32.08
186.997	0.68
187.216	4.78
187.436	109.22
187.655	0.68
187.875	-44.37
188.095	25.26
188.314	49.83
188.534	68.27
188.753	10.92
188.973	25.26
189.192	82.6
189.412	4.78
189.631	33.45
189.851	35.5
190.07	31.4
190.29	12.97
190.509	-81.24
190.729	-40.28
190.948	64.17
191.168	148.14
191.387	66.22
191.607	10.92
191.826	4.78
192.045	-25.94
192.265	27.31
192.484	84.65
192.704	-32.08
192.923	-48.47
193.142	51.88
193.362	70.31
193.581	66.22
193.8	60.07
194.02	33.45
194.239	8.87
194.458	-17.75
194.678	-79.19
194.897	-5.46
195.116	35.5
195.335	2.73
195.555	-73.04
195.774	41.64
195.993	19.11
196.212	58.03
196.432	-50.52
196.651	-56.66
196.87	-1.37
197.089	62.12
197.308	29.35
197.528	55.98
197.747	-71
197.966	-17.75
198.185	66.22
198.404	76.46
198.623	49.83
198.842	66.22
199.062	37.55
199.281	-3.41
199.5	-1.37
199.719	15.02
199.938	-11.61
200.157	27.31
200.376	66.22
200.595	49.83
200.814	17.07
201.033	31.4
201.252	19.11
201.471	4.78
201.69	72.36
201.909	17.07
202.128	41.64
202.347	68.27
202.566	-7.51
202.785	-27.99
203.004	-11.61
203.223	80.55
203.442	60.07
203.661	21.16
203.879	0.68
204.098	66.22
204.317	74.41
204.536	60.07
204.755	2.73
204.974	62.12
205.193	29.35
205.411	96.94
205.63	66.22
205.849	31.4
206.068	31.4
206.287	33.45
206.505	-48.47
206.724	58.03
206.943	49.83
207.162	74.41
207.381	-5.46
207.599	-19.8
207.818	0.68
208.037	-50.52
208.255	-13.65
208.474	45.74
208.693	-38.23
208.911	51.88
209.13	62.12
209.349	-5.46
209.567	17.07
209.786	-3.41
210.005	43.69
210.223	-30.04
210.442	12.97
210.661	25.26
210.879	12.97
211.098	45.74
211.316	72.36
211.535	10.92
211.753	-21.85
211.972	115.37
212.191	55.98
212.409	74.41
212.628	17.07
212.846	62.12
213.065	8.87
213.283	98.99
213.502	25.26
213.72	51.88
213.938	8.87
214.157	-15.7
214.375	68.27
214.594	23.21
214.812	43.69
215.031	6.83
215.249	-32.08
215.467	51.88
215.686	62.12
215.904	37.55
216.122	15.02
216.341	8.87
216.559	33.45
216.778	8.87
216.996	94.89
217.214	17.07
217.432	45.74
217.651	41.64
217.869	-11.61
218.087	33.45
218.306	37.55
218.524	80.55
218.742	17.07
218.96	43.69
219.179	17.07
219.397	98.99
219.615	66.22
219.833	49.83
220.051	-1.37
220.27	33.45
220.488	-1.37
220.706	-73.04
220.924	-73.04
221.142	4.78
221.36	82.6
221.578	49.83
221.796	-27.99
222.015	33.45
222.233	109.22
222.451	-30.04
222.669	29.35
222.887	29.35
223.105	0.68
223.323	-9.56
223.541	35.5
223.759	17.07
223.977	4.78
224.195	107.18
224.413	17.07
224.631	39.59
224.849	0.68
225.067	43.69
225.285	-7.51
225.503	129.7
225.721	-44.37
225.939	47.79
226.157	-23.89
226.375	66.22
226.592	4.78
226.81	35.5
227.028	84.65
227.246	74.41
227.464	-32.08
227.682	68.27
227.9	25.26
228.117	-50.52
228.335	19.11
228.553	-27.99
228.771	25.26
228.989	60.07
229.206	84.65
229.424	88.75
229.642	74.41
229.86	60.07
230.077	74.41
230.295	19.11
230.513	43.69
230.731	49.83
230.948	23.21
231.166	33.45
231.384	33.45
231.601	25.26
231.819	-19.8
232.037	39.59
232.254	15.02
232.472	-13.65
232.689	19.11
232.907	17.07
233.125	21.16
233.342	8.87
233.56	-5.46
233.777	4.78
233.995	29.35
234.213	-60.76
234.43	2.73
234.648	19.11
234.865	45.74
235.083	47.79
235.3	-23.89
235.518	55.98
235.735	10.92
235.953	10.92
236.17	-15.7
236.388	-11.61
236.605	-13.65
236.822	25.26
237.04	37.55
237.257	70.31
237.475	-23.89
237.692	-13.65
237.909	98.99
238.127	78.51
238.344	-30.04
238.562	82.6
238.779	-17.75
238.996	-32.08
239.214	-48.47
239.431	92.84
239.648	-38.23
239.865	76.46
240.083	51.88
240.3	-7.51
240.517	-32.08
240.735	10.92
240.952	88.75
241.169	115.37
241.386	-23.89
241.603	-30.04
241.821	8.87
242.038	66.22
242.255	45.74
242.472	-21.85
242.689	51.88
242.907	86.7
243.124	41.64
243.341	33.45
243.558	-5.46
243.775	-3.41
243.992	41.64
244.209	41.64
244.426	60.07
244.643	33.45
244.86	-5.46
245.078	74.41
245.295	60.07
245.512	-15.7
245.729	-48.47
245.946	2.73
246.163	33.45
246.38	27.31
246.597	33.45
246.814	45.74
247.031	60.07
247.248	37.55
247.464	51.88
247.681	-19.8
247.898	8.87
248.115	47.79
248.332	43.69
248.549	55.98
248.766	39.59
248.983	41.64
249.2	66.22
249.417	58.03
249.633	68.27
249.85	17.07
250.067	-13.65
250.284	-3.41
250.501	12.97
250.717	74.41
250.934	-23.89
251.151	86.7
251.368	88.75
251.585	2.73
251.801	62.12
252.018	41.64
252.235	64.17
252.451	29.35
252.668	23.21
252.885	31.4
253.102	29.35
253.318	55.98
253.535	-7.51
253.752	78.51
253.968	35.5
254.185	-62.8
254.401	90.79
254.618	27.31
254.835	-32.08
255.051	58.03
255.268	41.64
255.484	-5.46
255.701	17.07
255.917	-11.61
256.134	-64.85
256.351	76.46
256.567	82.6
256.784	12.97
257	-7.51
257.217	60.07
257.433	58.03
257.65	78.51
257.866	-5.46
258.082	29.35
258.299	70.31
258.515	96.94
258.732	62.12
258.948	0.68
259.165	-5.46
259.381	51.88
259.597	8.87
259.814	45.74
260.03	-54.61
260.246	41.64
260.463	66.22
260.679	74.41
260.895	10.92
261.112	27.31
261.328	21.16
261.544	-13.65
261.761	62.12
261.977	66.22
262.193	-11.61
262.409	47.79
262.626	43.69
262.842	58.03
263.058	-13.65
263.274	70.31
263.49	8.87
263.707	94.89
263.923	74.41
264.139	-5.46
264.355	-5.46
264.571	76.46
264.787	25.26
265.004	27.31
265.22	-3.41
265.436	-25.94
265.652	82.6
265.868	82.6
266.084	-64.85
266.3	-27.99
266.516	33.45
266.732	25.26
266.948	4.78
267.164	39.59
267.38	-5.46
267.596	-19.8
267.812	8.87
268.028	45.74
268.244	-15.7
268.46	29.35
268.676	35.5
268.892	45.74
269.108	49.83
269.324	68.27
269.54	-7.51
269.756	41.64
269.972	2.73
270.188	-36.18
270.403	-15.7
270.619	49.83
270.835	58.03
271.051	4.78
271.267	-27.99
271.483	82.6
271.698	92.84
271.914	94.89
272.13	117.42
272.346	35.5
272.562	-21.85
272.777	25.26
272.993	33.45
273.209	29.35
273.425	98.99
273.64	49.83
273.856	15.02
274.072	58.03
274.287	45.74
274.503	-48.47
274.719	25.26
274.934	82.6
275.15	-5.46
275.366	29.35
275.581	12.97
275.797	17.07
276.012	-15.7
276.228	27.31
276.444	-9.56
276.659	86.7
276.875	-5.46
277.09	2.73
277.306	15.02
277.521	98.99
277.737	25.26
277.952	8.87
278.168	33.45
278.383	92.84
278.599	-30.04
278.814	58.03
279.03	21.16
279.245	-3.41
279.461	68.27
279.676	-15.7
279.892	6.83
280.107	4.78
280.322	74.41
280.538	107.18
280.753	37.55
280.969	0.68
281.184	-3.41
281.399	25.26
281.615	12.97
281.83	-15.7
282.045	21.16
282.26	82.6
282.476	6.83
282.691	37.55
282.906	84.65
283.122	45.74
283.337	-13.65
283.552	49.83
283.767	-32.08
283.983	58.03
284.198	62.12
284.413	43.69
284.628	35.5
284.843	51.88
285.058	17.07
285.274	-1.37
285.489	17.07
285.704	78.51
285.919	-23.89
286.134	12.97
286.349	21.16
286.564	2.73
286.779	45.74
286.995	-17.75
287.21	17.07
287.425	0.68
287.64	25.26
287.855	-40.28
288.07	-32.08
288.285	0.68
288.5	111.27
288.715	66.22
288.93	51.88
289.145	-48.47
289.36	33.45
289.575	0.68
289.79	27.31
290.004	-68.95
290.219	43.69
290.434	-1.37
290.649	84.65
290.864	25.26
291.079	-5.46
291.294	107.18
291.509	17.07
291.724	35.5
291.938	-44.37
292.153	74.41
292.368	27.31
292.583	-15.7
292.798	6.83
293.012	-19.8
293.227	-32.08
293.442	58.03
293.657	0.68
293.871	150.18
294.086	27.31
294.301	101.03
294.516	2.73
294.73	12.97
294.945	33.45
295.16	-15.7
295.374	70.31
295.589	86.7
295.804	33.45
296.018	74.41
296.233	17.07
296.447	-3.41
296.662	25.26
296.877	53.93
297.091	58.03
297.306	33.45
297.52	-3.41
297.735	35.5
297.949	25.26
298.164	35.5
298.378	51.88
298.593	74.41
298.807	74.41
299.022	62.12
299.236	51.88
299.451	41.64
299.665	103.08
299.88	90.79
300.094	33.45
300.309	60.07
300.523	58.03
300.737	49.83
300.952	49.83
301.166	62.12
301.381	-15.7
301.595	60.07
301.809	17.07
302.024	35.5
302.238	29.35
302.452	23.21
302.667	58.03
302.881	51.88
303.095	49.83
303.309	78.51
303.524	25.26
303.738	-7.51
303.952	17.07
304.166	103.08
304.381	-36.18
304.595	113.32
304.809	19.11
305.023	43.69
305.237	27.31
305.452	60.07
305.666	33.45
305.88	66.22
306.094	-17.75
306.308	74.41
306.522	103.08
306.736	12.97
306.95	12.97
307.164	53.93
307.379	4.78
307.593	39.59
307.807	-34.13
308.021	80.55
308.235	105.13
308.449	33.45
308.663	10.92
308.877	103.08
309.091	-3.41
309.305	-7.51
309.519	-3.41
309.733	17.07
309.947	-3.41
310.161	101.03
310.374	98.99
310.588	92.84
310.802	88.75
311.016	41.64
311.23	68.27
311.444	64.17
311.658	17.07
311.872	66.22
312.085	39.59
312.299	8.87
312.513	82.6
312.727	31.4
312.941	-44.37
313.154	35.5
313.368	2.73
313.582	60.07
313.796	62.12
314.009	78.51
314.223	12.97
314.437	47.79
314.651	43.69
314.864	58.03
315.078	84.65
315.292	-46.42
315.505	8.87
315.719	152.23
315.933	64.17
316.146	53.93
316.36	35.5
316.573	68.27
316.787	-7.51
317.001	-5.46
317.214	21.16
317.428	33.45
317.641	-25.94
317.855	43.69
318.068	25.26
318.282	-38.23
318.495	70.31
318.709	80.55
318.922	43.69
319.136	133.8
319.349	60.07
319.563	-48.47
319.776	45.74
319.99	-1.37
320.203	-36.18
320.417	-5.46
320.63	0.68
320.843	74.41
321.057	0.68
321.27	41.64
321.483	12.97
321.697	17.07
321.91	62.12
322.124	19.11
322.337	74.41
322.55	17.07
322.763	-40.28
322.977	-46.42
323.19	-38.23
323.403	60.07
323.617	76.46
323.83	0.68
324.043	88.75
324.256	84.65
324.469	29.35
324.683	45.74
324.896	-21.85
325.109	74.41
325.322	27.31
325.535	-27.99
325.748	66.22
325.962	23.21
326.175	62.12
326.388	72.36
326.601	84.65
326.814	41.64
327.027	25.26
327.24	123.56
327.453	21.16
327.666	76.46
327.879	74.41
328.092	72.36
328.305	12.97
328.518	17.07
328.731	27.31
328.944	-3.41
329.157	29.35
329.37	4.78
329.583	115.37
329.796	45.74
330.009	-32.08
330.222	29.35
330.435	60.07
330.648	25.26
330.861	-15.7
331.073	8.87
331.286	31.4
331.499	8.87
331.712	51.88
331.925	-11.61
332.138	-23.89
332.35	27.31
332.563	29.35
332.776	17.07
332.989	62.12
333.202	43.69
333.414	43.69
333.627	64.17
333.84	43.69
334.053	-3.41
334.265	41.64
334.478	-1.37
334.691	47.79
334.903	62.12
335.116	-32.08
335.329	66.22
335.541	19.11
335.754	80.55
335.966	33.45
336.179	29.35
336.392	8.87
336.604	25.26
336.817	33.45
337.029	-7.51
337.242	-27.99
337.454	17.07
337.667	19.11
337.88	60.07
338.092	43.69
338.305	49.83
338.517	-7.51
338.729	41.64
338.942	64.17
339.154	29.35
339.367	12.97
339.579	33.45
339.792	29.35
340.004	49.83
340.217	27.31
340.429	-7.51
340.641	37.55
340.854	-32.08
341.066	6.83
341.278	101.03
341.491	47.79
341.703	-7.51
341.915	33.45
342.128	49.83
342.34	19.11
342.552	-5.46
342.764	39.59
342.977	31.4
343.189	68.27
343.401	27.31
343.613	53.93
343.826	49.83
344.038	49.83
344.25	53.93
344.462	-54.61
344.674	45.74
344.886	23.21
345.099	-48.47
345.311	29.35
345.523	25.26
345.735	17.07
345.947	144.04
346.159	15.02
346.371	68.27
346.583	-52.56
346.795	70.31
347.007	107.18
347.219	27.31
347.431	101.03
347.643	45.74
347.855	45.74
348.067	84.65
348.279	2.73
348.491	27.31
348.703	78.51
348.915	25.26
349.127	-42.32
349.339	103.08
349.551	6.83
349.763	-11.61
349.975	103.08
350.187	25.26
350.399	-25.94
350.61	74.41
350.822	37.55
351.034	43.69
351.246	51.88
351.458	33.45
351.669	17.07
351.881	66.22
352.093	-11.61
352.305	76.46
352.517	41.64
352.728	88.75
352.94	58.03
353.152	19.11
353.363	31.4
353.575	58.03
353.787	94.89
353.999	98.99
354.21	21.16
354.422	-19.8
354.633	25.26
354.845	68.27
355.057	66.22
355.268	12.97
355.48	45.74
355.692	74.41
355.903	101.03
356.115	21.16
356.326	47.79
356.538	84.65
356.749	25.26
356.961	55.98
357.172	-25.94
357.384	43.69
357.595	78.51
357.807	148.14
358.018	8.87
358.23	0.68
358.441	121.51
358.653	62.12
358.864	82.6
359.075	84.65
359.287	41.64
359.498	72.36
359.709	-21.85
359.921	123.56
360.132	58.03
360.344	12.97
360.555	10.92
360.766	49.83
360.977	51.88
361.189	58.03
361.4	60.07
361.611	86.7
361.823	98.99
362.034	84.65
362.245	-3.41
362.456	92.84
362.667	121.51
362.879	29.35
363.09	76.46
363.301	47.79
363.512	27.31
363.723	29.35
363.935	-27.99
364.146	51.88
364.357	-21.85
364.568	68.27
364.779	25.26
364.99	60.07
365.201	-5.46
365.412	-1.37
365.623	-7.51
365.834	62.12
366.045	17.07
366.256	92.84
366.467	49.83
366.678	144.04
366.889	12.97
367.1	53.93
367.311	-7.51
367.522	41.64
367.733	45.74
367.944	33.45
368.155	-15.7
368.366	117.42
368.577	49.83
368.788	96.94
368.999	19.11
369.209	66.22
369.42	49.83
369.631	45.74
369.842	125.61
370.053	45.74
370.264	53.93
370.474	-3.41
370.685	-1.37
370.896	8.87
371.107	58.03
371.317	76.46
371.528	15.02
371.739	76.46
371.95	82.6
372.16	137.9
372.371	4.78
372.582	86.7
372.792	68.27
373.003	27.31
373.214	62.12
373.424	74.41
373.635	39.59
373.846	111.27
374.056	8.87
374.267	12.97
374.477	135.85
374.688	41.64
374.898	62.12
375.109	0.68
375.319	101.03
375.53	33.45
375.74	105.13
375.951	51.88
376.161	-32.08
376.372	86.7
376.582	-19.8
376.793	49.83
377.003	-13.65
377.214	45.74
377.424	60.07
377.635	103.08
377.845	35.5
378.055	51.88
378.266	23.21
378.476	41.64
378.686	51.88
378.897	51.88
379.107	62.12
379.317	-7.51
379.528	70.31
379.738	76.46
379.948	0.68
380.158	72.36
380.369	37.55
380.579	60.07
380.789	49.83
380.999	90.79
381.21	74.41
381.42	82.6
381.63	60.07
381.84	76.46
382.05	58.03
382.261	33.45
382.471	58.03
382.681	19.11
382.891	131.75
383.101	33.45
383.311	-5.46
383.521	76.46
383.731	131.75
383.941	62.12
384.151	-17.75
384.361	-7.51
384.571	70.31
384.781	-34.13
384.991	111.27
385.201	107.18
385.411	41.64
385.621	-13.65
385.831	58.03
386.041	58.03
386.251	51.88
386.461	62.12
386.671	53.93
386.881	115.37
387.091	10.92
387.301	41.64
387.511	49.83
387.72	117.42
387.93	43.69
388.14	35.5
388.35	8.87
388.56	68.27
388.769	49.83
388.979	68.27
389.189	21.16
389.399	60.07
389.609	70.31
389.818	94.89
390.028	86.7
390.238	37.55
390.447	60.07
390.657	60.07
390.867	29.35
391.076	4.78
391.286	31.4
391.496	70.31
391.705	31.4
391.915	88.75
392.125	131.75
392.334	49.83
392.544	84.65
392.753	49.83
392.963	12.97
393.172	135.85
393.382	66.22
393.591	121.51
393.801	109.22
394.01	133.8
394.22	45.74
394.429	107.18
394.639	12.97
394.848	105.13
395.058	58.03
395.267	45.74
395.477	51.88
395.686	45.74
395.895	152.23
396.105	94.89
396.314	98.99
396.524	98.99
396.733	88.75
396.942	94.89
397.152	96.94
397.361	139.94
397.57	141.99
397.78	146.09
397.989	98.99
398.198	84.65
398.407	45.74
398.617	123.56
398.826	139.94
399.035	113.32
399.244	94.89
399.453	92.84
399.663	66.22
399.872	176.81
400.081	107.18
400.29	101.03
400.499	58.03
400.708	133.8
400.917	101.03
401.127	90.79
401.336	125.61
401.545	232.1
401.754	137.9
401.963	154.28
402.172	72.36
402.381	47.79
402.59	109.22
402.799	115.37
403.008	125.61
403.217	64.17
403.426	144.04
403.635	109.22
403.844	94.89
404.053	84.65
404.262	182.95
404.471	141.99
404.68	154.28
404.888	107.18
405.097	166.57
405.306	158.38
405.515	109.22
405.724	101.03
405.933	123.56
406.142	205.48
406.35	242.34
406.559	174.76
406.768	158.38
406.977	207.53
407.185	148.14
407.394	133.8
407.603	221.86
407.812	189.1
408.02	195.24
408.229	264.87
408.438	234.15
408.646	156.33
408.855	225.96
409.064	332.45
409.272	305.83
409.481	264.87
409.69	246.44
409.898	295.59
410.107	256.68
410.315	357.03
410.524	320.17
410.733	418.47
410.941	357.03
411.15	389.8
411.358	342.69
411.567	371.37
411.775	381.6
411.984	443.04
412.192	434.85
412.401	404.13
412.609	475.81
412.818	498.34
413.026	473.76
413.234	426.66
413.443	469.67
413.651	488.1
413.86	438.95
414.068	574.11
414.276	664.22
414.485	602.79
414.693	524.96
414.901	567.97
415.11	709.28
415.318	584.35
415.526	719.52
415.734	690.85
415.943	725.66
416.151	752.29
416.359	701.09
416.567	799.39
416.776	803.49
416.984	959.13
417.192	969.37
417.4	955.04
417.608	963.23
417.817	1073.82
418.025	1063.58
418.233	1098.39
418.441	1067.67
418.649	1145.5
418.857	1172.12
419.065	1254.04
419.273	1190.55
419.481	1194.65
419.689	1368.73
419.897	1462.93
420.105	1440.4
420.313	1450.64
420.521	1538.71
420.729	1483.41
420.937	1618.58
421.145	1651.35
421.353	1800.85
421.561	1884.81
421.769	1831.57
421.977	2050.7
422.185	1905.29
422.393	2073.23
422.601	2292.36
422.809	2087.56
423.017	2220.68
423.224	2339.46
423.432	2386.57
423.64	2361.99
423.848	2681.47
424.056	2531.97
424.263	2769.54
424.471	2794.11
424.679	2761.34
424.887	2964.09
425.094	3091.07
425.302	2966.14
425.51	3224.19
425.718	3199.61
425.925	3345.02
426.133	3394.17
426.341	3611.25
426.548	3768.95
426.756	3697.27
426.964	3805.81
427.171	3998.32
427.379	3963.5
427.586	4166.25
427.794	4340.33
428.001	4491.88
428.209	4627.04
428.417	4547.17
428.624	4844.13
428.832	4971.1
429.039	4835.94
429.247	4866.66
429.454	5415.51
429.662	5661.27
429.869	5456.47
430.076	5732.95
430.284	5605.97
430.491	5710.42
430.699	6095.44
430.906	6017.61
431.114	6167.12
431.321	6404.68
431.528	6591.05
431.736	7031.36
431.943	7262.78
432.15	7078.46
432.358	7123.52
432.565	7563.83
432.772	7541.3
432.979	8081.97
433.187	8157.74
433.394	8057.39
433.601	8712.74
433.808	8636.97
434.016	8593.96
434.223	9097.76
434.43	9525.79
434.637	9294.36
434.844	9904.66
435.052	10183.18
435.259	10121.74
435.466	10127.89
435.673	10232.33
435.88	10590.73
436.087	11328
436.294	11213.31
436.501	11164.16
436.708	11270.65
436.915	11346.43
437.122	11995.64
437.329	12247.54
437.537	12493.29
437.743	12755.43
437.95	12624.36
438.157	13332.96
438.364	13627.87
438.571	14088.66
438.778	13765.08
438.985	14776.78
439.192	14178.77
439.399	14776.78
439.606	14469.58
439.813	15501.76
440.02	15993.27
440.227	16050.61
440.433	15778.23
440.64	16531.89
440.847	15954.36
441.054	16556.46
441.261	17672.6
441.467	17643.93
441.674	17889.69
441.881	18463.12
442.088	18512.27
442.294	18266.52
442.501	18704.78
442.708	19145.09
442.914	19923.32
443.121	20597.1
443.328	20029.82
443.534	21686.62
443.741	20787.57
443.948	20619.63
444.154	21977.44
444.361	21743.97
444.568	22161.75
444.774	22157.66
444.981	22440.28
445.187	22991.18
445.394	24205.63
445.6	23992.64
445.807	26059.04
446.013	24863.02
446.22	25211.18
446.426	26269.98
446.633	26390.81
446.839	27519.24
447.046	26315.03
447.252	27724.04
447.459	28162.3
447.665	27693.32
447.871	28705.01
448.078	30357.72
448.284	28670.2
448.491	29495.53
448.697	30415.07
448.903	30916.82
449.11	31477.96
449.316	30750.93
449.522	31273.17
449.728	31965.38
449.935	32547
450.141	32420.03
450.347	32860.34
450.553	31779.01
450.76	32510.14
450.966	33534.12
451.172	33018.03
451.378	34070.69
451.584	33149.1
451.791	34304.16
451.997	33927.33
452.203	34732.18
452.409	34664.6
452.615	34511
452.821	32858.29
453.027	32860.34
453.233	34519.2
453.44	33208.5
453.646	33226.93
453.852	33675.43
454.058	34252.96
454.264	32921.78
454.47	33876.13
454.676	32786.61
454.882	33841.32
455.088	31099.09
455.294	31899.84
455.5	31996.1
455.705	32372.92
455.911	31326.41
456.117	30431.45
456.323	30083.3
456.529	28721.4
456.735	30128.35
456.941	29155.57
457.147	28655.86
457.352	27742.47
457.558	27517.19
457.764	27556.1
457.97	27128.08
458.176	26511.64
458.381	26384.66
458.587	25395.5
458.793	25245.99
458.999	24101.18
459.204	25694.5
459.41	24693.04
459.616	23146.83
459.821	23542.08
460.027	23269.7
460.233	22712.66
460.438	21469.54
460.644	21893.47
460.85	20965.74
461.055	20435.31
461.261	20552.05
461.466	18874.76
461.672	18395.54
461.878	19691.9
462.083	18278.8
462.289	17887.64
462.494	17809.82
462.7	17224.1
462.905	16591.28
463.111	17228.2
463.316	17113.51
463.522	16996.78
463.727	17064.36
463.932	17164.71
464.138	16665
464.343	16710.06
464.549	16294.32
464.754	16681.39
464.959	16542.13
465.165	16615.85
465.37	15890.87
465.575	15708.6
465.781	16091.57
465.986	16236.98
466.191	15460.8
466.397	15458.75
466.602	14571.98
466.807	15098.31
467.012	15395.26
467.218	15028.68
467.423	14723.53
467.628	14827.98
467.833	15600.06
468.038	14920.13
468.244	14483.92
468.449	15038.92
468.654	14684.62
468.859	14545.36
469.064	14453.2
469.269	13951.45
469.474	14236.11
469.679	14174.67
469.885	13822.42
470.09	14053.84
470.295	13926.87
470.5	13615.58
470.705	13746.65
470.91	13496.8
471.115	13431.26
471.32	13369.82
471.525	13527.52
471.73	13038.05
471.935	13119.97
472.139	12444.14
472.344	12708.33
472.549	12440.04
472.754	12552.68
472.959	12345.84
473.164	12153.33
473.369	11938.29
473.574	12229.1
473.778	12044.79
473.983	12128.75
474.188	12026.36
474.393	11762.17
474.598	11393.53
474.802	11332.09
475.007	11411.96
475.212	11481.6
475.417	10850.82
475.621	10928.64
475.826	11035.14
476.031	10934.79
476.235	10660.36
476.44	10848.77
476.645	10553.87
476.849	10365.45
477.054	10590.73
477.259	10338.83
477.463	10353.16
477.668	10029.59
477.872	9955.86
478.077	9933.33
478.282	9851.41
478.486	9740.82
478.691	9677.33
478.895	9538.07
479.1	9603.61
479.304	9798.17
479.509	9226.78
479.713	9232.93
479.918	9054.75
480.122	8999.46
480.326	9048.61
480.531	9179.68
480.735	9382.43
480.94	9054.75
481.144	9325.08
481.348	9060.9
481.553	8794.66
481.757	8872.48
481.961	9060.9
482.166	9167.39
482.37	8995.36
482.574	8782.37
482.778	8833.57
482.983	9302.56
483.187	8956.45
483.391	9036.32
483.595	8731.17
483.8	8540.71
484.004	8983.07
484.208	8843.81
484.412	8700.45
484.616	8907.3
484.821	8839.72
485.025	8727.08
485.229	8800.8
485.433	8892.96
485.637	8727.08
485.841	8731.17
486.045	8696.36
486.249	8819.24
486.453	8628.77
486.657	8716.84
486.861	8800.8
487.065	8663.59
487.269	8741.41
487.473	8729.13
487.677	8831.52
487.881	8985.12
488.085	8673.83
488.289	8796.71
488.493	8706.6
488.697	8987.17
488.901	8974.88
489.105	8987.17
489.309	8839.72
489.512	8796.71
489.716	8974.88
489.92	8870.44
490.124	8684.07
490.328	9077.28
490.531	8878.63
490.735	9028.13
490.939	9052.7
491.143	8983.07
491.346	8981.03
491.55	9110.05
491.754	9345.56
491.958	9390.62
492.161	9112.1
492.365	9306.65
492.569	9177.63
492.772	9239.07
492.976	9366.04
493.18	9456.15
493.383	9495.07
493.587	9495.07
493.79	9718.29
493.994	9683.48
494.197	9407
494.401	9931.28
494.605	9845.27
494.808	10031.63
495.012	10084.88
495.215	9929.24
495.419	10273.29
495.622	10039.83
495.825	10320.4
496.029	10070.55
496.232	10529.29
496.436	10545.67
496.639	10912.26
496.843	10424.84
497.046	11026.95
497.249	11047.43
497.453	10949.12
497.656	11205.12
497.859	11125.25
498.063	11262.46
498.266	11563.51
498.469	11272.7
498.673	11422.2
498.876	11862.52
499.079	12036.59
499.282	11729.4
499.485	12071.41
499.689	11995.64
499.892	12419.57
500.095	12388.85
500.298	12771.82
500.501	12634.6
500.705	13031.91
500.908	13048.29
501.111	13173.22
501.314	13380.06
501.517	13431.26
501.72	13550.04
501.923	13738.46
502.126	13953.49
502.329	14127.57
502.532	13961.69
502.735	14354.9
502.938	14565.84
503.141	14805.45
503.344	14692.81
503.547	14905.8
503.75	14868.94
503.953	15215.04
504.156	15362.5
504.359	15720.89
504.562	15485.37
504.765	15944.12
504.968	16222.64
505.17	16322.99
505.373	16345.52
505.576	16439.73
505.779	16933.29
505.982	16720.3
506.185	17260.96
506.387	17400.23
506.59	17445.28
506.793	18047.38
506.996	17916.31
507.198	18180.5
507.401	18131.35
507.604	18459.02
507.807	18489.74
508.009	18872.71
508.212	18854.28
508.415	19229.06
508.617	19577.22
508.82	19673.47
509.022	19081.61
509.225	20152.7
509.428	19997.05
509.63	20203.89
509.833	20359.54
510.035	20955.5
510.238	21096.81
510.44	21041.51
510.643	21307.75
510.845	21541.22
511.048	21432.68
511.25	21758.3
511.453	22264.15
511.655	22819.15
511.858	22456.66
512.06	22780.24
512.262	23069
512.465	23032.14
512.667	23443.78
512.87	23736.64
513.072	23714.11
513.274	23945.53
513.477	24377.65
513.679	24531.25
513.881	25030.96
514.084	25096.49
514.286	25233.71
514.488	25092.4
514.69	26013.98
514.893	26081.56
515.095	26130.72
515.297	26237.21
515.499	26380.57
515.701	27023.63
515.904	27017.49
516.106	27033.87
516.308	27488.52
516.51	28088.57
516.712	27805.95
516.914	28238.08
517.116	28999.92
517.318	28586.23
517.52	28944.62
517.722	28813.56
517.925	29655.27
518.127	29552.87
518.329	29921.51
518.531	29778.15
518.733	30240.99
518.935	30736.6
519.136	30912.72
519.338	31127.76
519.54	31545.55
519.742	31615.18
519.944	31639.75
520.146	32153.79
520.348	32266.43
520.55	32518.33
520.752	32506.04
520.954	33274.03
521.155	33087.67
521.357	33683.62
521.559	33738.92
521.761	33972.39
521.963	33956
522.164	34212
522.366	34537.63
522.568	34758.81
522.77	34795.67
522.971	35180.69
523.173	35293.33
523.375	35655.82
523.576	35797.13
523.778	35760.26
523.98	36282.5
524.181	36419.71
524.383	36728.95
524.584	36735.1
524.786	36964.47
524.988	36804.73
525.189	37281.91
525.391	37732.46
525.592	37718.12
525.794	37777.51
525.995	38043.75
526.197	37972.07
526.398	38137.96
526.6	38451.3
526.801	38334.56
527.003	38342.75
527.204	38318.18
527.406	39022.68
527.607	39096.41
527.808	39125.08
528.01	38457.44
528.211	38893.66
528.412	39473.23
528.614	39530.58
528.815	39817.29
529.016	40106.05
529.218	39549.01
529.419	40061
529.62	39825.48
529.822	39960.65
530.023	40341.57
530.224	39827.53
530.425	40255.56
530.626	39809.1
530.828	40077.38
531.029	40616
531.23	40237.12
531.431	39952.46
531.632	40577.09
531.833	40628.29
532.035	40564.8
532.236	40374.34
532.437	40521.79
532.638	40564.8
532.839	40429.63
533.04	40833.08
533.241	40114.25
533.442	40857.66
533.643	40712.25
533.844	41031.74
534.045	41218.1
534.246	40572.99
534.447	40839.23
534.648	40130.63
534.849	40728.64
535.05	40761.4
535.251	40734.78
535.451	40304.71
535.652	41070.65
535.853	40964.15
536.054	40747.07
536.255	41410.61
536.456	40755.26
536.657	41097.27
536.857	40728.64
537.058	40609.85
537.259	41297.97
537.46	40769.6
537.66	40915
537.861	40616
538.062	40869.95
538.263	40886.33
538.463	40882.23
538.664	40876.09
538.865	41214.01
539.065	40628.29
539.266	40407.11
539.466	41183.29
539.667	40233.03
539.868	40996.92
540.068	40761.4
540.269	40640.57
540.469	40661.05
540.67	40906.81
540.87	40691.77
541.071	40570.94
541.271	40667.2
541.472	40542.27
541.672	40646.72
541.873	40542.27
542.073	40177.73
542.274	40714.3
542.474	40507.46
542.675	40175.69
542.875	41117.75
543.075	40259.65
543.276	39905.35
543.476	40710.21
543.676	40091.72
543.877	40745.02
544.077	40802.36
544.277	40085.57
544.478	40372.29
544.678	40548.42
544.878	40112.2
545.078	40497.22
545.279	40179.78
545.479	39860.3
545.679	40273.99
545.879	40513.6
546.079	40392.77
546.28	40101.96
546.48	39843.91
546.68	40226.88
546.88	40425.54
547.08	40153.16
547.28	40237.12
547.48	40120.39
547.68	40443.97
547.88	40126.53
548.081	40247.36
548.281	40372.29
548.481	40124.49
548.681	40609.85
548.881	40339.52
549.081	40370.24
549.28	39981.13
549.48	40278.08
549.68	39989.32
549.88	40925.24
550.08	39964.74
550.28	40349.76
550.48	40224.84
550.68	40476.74
550.88	39929.93
551.08	39981.13
551.279	40353.86
551.479	39692.36
551.679	40306.76
551.879	39645.26
552.079	40069.19
552.278	40108.1
552.478	40175.69
552.678	40159.3
552.878	39825.48
553.077	39919.69
553.277	39663.69
553.477	40349.76
553.676	40048.71
553.876	39786.57
554.076	39886.92
554.275	39524.43
554.475	39694.41
554.674	40071.24
554.874	39546.96
555.074	39721.04
555.273	39594.06
555.473	40022.09
555.672	39391.31
555.872	40130.63
556.071	39866.44
556.271	40048.71
556.47	39518.29
556.67	39372.88
556.869	39696.46
557.068	39827.53
557.268	39381.07
557.467	39514.19
557.667	39409.75
557.866	39438.42
558.065	39139.41
558.265	39045.21
558.464	39077.97
558.663	38967.38
558.863	38572.13
559.062	39563.34
559.261	38998.1
559.461	39231.57
559.66	38742.11
559.859	38920.28
560.058	39067.73
560.258	39022.68
560.457	38729.82
560.656	39086.17
560.855	38795.35
561.054	38940.76
561.253	38590.56
561.453	38940.76
561.652	38752.35
561.851	38680.67
562.05	38246.5
562.249	37828.71
562.448	38674.52
562.647	38545.5
562.846	38352.99
563.045	38254.69
563.244	38250.6
563.443	38424.67
563.642	37711.98
563.841	38266.98
564.04	37910.63
564.239	38443.1
564.438	37757.03
564.637	37865.58
564.836	37836.91
565.035	37421.17
565.234	37689.45
565.432	37519.47
565.631	37197.94
565.83	37990.5
566.029	37066.87
566.228	36974.71
566.427	37259.38
566.625	37003.38
566.824	36976.76
567.023	37425.26
567.222	36591.74
567.42	37070.96
567.619	36860.02
567.818	36808.82
568.016	36802.68
568.215	37111.92
568.414	36638.84
568.612	37030.01
568.811	36278.4
569.01	36329.6
569.208	35840.14
569.407	36626.56
569.605	35809.42
569.804	36460.67
570.002	36153.47
570.201	36167.81
570.4	35680.39
570.598	35729.55
570.797	35496.08
570.995	36006.02
571.193	34988.18
571.392	35780.74
571.59	35281.04
571.789	35291.28
571.987	35233.94
572.186	35379.34
572.384	35119.25
572.582	34961.56
572.781	35145.87
572.979	34685.08
573.177	34853.01
573.376	35137.68
573.574	34506.91
573.772	34576.54
573.971	34367.65
574.169	34246.82
574.367	34123.94
574.565	34224.29
574.763	34359.45
574.962	34175.14
575.16	33722.54
575.358	33964.2
575.556	33540.27
575.754	33941.67
575.952	33519.79
576.151	33716.39
576.349	33564.84
576.547	33435.82
576.745	33691.82
576.943	33501.36
577.141	33358
577.339	33388.72
577.537	33052.85
577.735	32929.97
577.933	32633.02
578.131	33130.67
578.329	32653.5
578.527	32413.88
578.725	32759.99
578.923	32420.03
579.121	32602.3
579.319	32682.17
579.516	32618.68
579.714	32604.35
579.912	32059.59
580.11	32100.54
580.308	32018.63
580.506	31860.93
580.704	31398.09
580.901	31654.09
581.099	31924.42
581.297	31348.94
581.495	31205.58
581.692	31842.5
581.89	31297.74
582.088	31645.9
582.285	31367.37
582.483	31336.65
582.681	30959.83
582.878	30873.81
583.076	30544.09
583.274	30916.82
583.471	30556.38
583.669	30603.48
583.866	30648.53
584.064	30509.27
584.262	30087.39
584.459	30548.18
584.657	30361.82
584.854	30535.9
585.052	29724.9
585.249	29847.78
585.447	30056.67
585.644	29468.9
585.841	29882.59
586.039	29939.94
586.236	29743.33
586.434	29313.26
586.631	29329.64
586.828	29393.13
587.026	29380.84
587.223	28995.82
587.42	29339.88
587.618	29106.41
587.815	29016.3
588.012	29161.71
588.21	28766.45
588.407	28987.63
588.604	28836.08
588.801	28752.12
588.999	28528.89
589.196	28879.09
589.393	28463.35
589.59	28426.49
589.787	28322.04
589.984	27818.24
590.182	28035.33
590.379	27767.04
590.576	27926.78
590.773	27988.22
590.97	27984.13
591.167	27672.84
591.364	27615.49
591.561	27468.04
591.758	27220.24
591.955	27586.82
592.152	27379.98
592.349	27083.02
592.546	27259.15
592.743	27162.89
592.94	26679.57
593.137	27273.48
593.334	26984.72
593.531	26519.83
593.727	26636.56
593.924	26683.67
594.121	26867.98
594.318	26519.83
594.515	26161.44
594.712	26321.18
594.908	26304.79
595.105	26087.71
595.302	26007.84
595.499	26253.59
595.696	25925.92
595.892	26249.5
596.089	25921.82
596.286	25874.72
596.482	25968.93
596.679	25757.99
596.876	25866.53
597.072	25567.52
597.269	25520.42
597.466	25434.41
597.662	25235.75
597.859	25176.36
598.055	25121.07
598.252	24920.37
598.448	25172.27
598.645	24926.51
598.841	24652.08
599.038	24619.31
599.234	24928.56
599.431	24314.17
599.627	24572.21
599.824	24570.16
600.02	24404.28
600.217	24654.13
600.413	24330.55
600.609	24189.24
600.806	24213.82
601.002	24164.67
601.198	24215.87
601.395	23669.06
601.591	23927.1
601.787	23757.12
601.984	23963.97
602.18	23738.69
602.376	23578.95
602.572	23611.71
602.769	23742.78
602.965	23513.41
603.161	23251.27
603.357	23370.05
603.553	23099.72
603.75	23155.02
603.946	22978.89
604.142	23118.15
604.338	22903.12
604.534	22788.43
604.73	22688.08
604.926	22602.07
605.122	22610.26
605.318	22397.27
605.514	22479.19
605.71	22444.37
605.906	22425.94
606.102	22380.89
606.298	22389.08
606.494	22128.99
606.69	22290.77
606.886	22301.01
607.082	21891.42
607.278	22380.89
607.474	21680.48
607.67	22180.18
607.866	21739.87
608.062	22114.65
608.257	21899.61
608.453	21709.15
608.649	21692.77
608.845	21596.51
609.041	21664.1
609.236	21625.18
609.432	21487.97
609.628	21514.59
609.824	21479.78
610.019	21377.38
610.215	21236.07
610.411	21553.51
610.606	21129.58
610.802	21033.32
610.998	21490.02
611.193	21229.93
611.389	20947.31
611.584	20967.79
611.78	20908.4
611.976	20851.05
612.171	21049.71
612.367	20922.73
612.562	20758.89
612.758	20494.71
612.953	20609.39
613.149	20853.1
613.344	20488.56
613.539	20900.2
613.735	20545.91
613.93	20552.05
614.126	20504.95
614.321	20756.85
614.517	20490.61
614.712	20625.78
614.907	20193.65
615.103	20513.14
615.298	20488.56
615.493	20500.85
615.688	20154.74
615.884	20433.27
616.079	19960.19
616.274	20093.3
616.47	20287.86
616.665	19888.51
616.86	20236.66
617.055	19970.43
617.25	19900.79
617.445	20070.78
617.641	19609.98
617.836	19892.6
618.031	19270.02
618.226	19837.31
618.421	19569.02
618.616	19640.7
618.811	19347.84
619.006	19583.36
619.201	19110.28
619.396	19267.97
619.591	19005.83
619.786	18872.71
619.981	19212.68
620.176	19362.18
620.371	19120.52
620.566	18837.9
620.761	18864.52
620.956	18823.56
621.151	18528.66
621.346	18688.4
621.541	18274.71
621.735	18469.26
621.93	18203.03
622.125	18164.12
622.32	17973.66
622.515	17940.89
622.709	17963.42
622.904	17873.31
623.099	17441.18
623.294	17727.9
623.488	17418.66
623.683	17279.4
623.878	17457.57
624.072	17150.37
624.267	17310.11
624.462	17072.55
624.656	17068.45
624.851	17052.07
625.046	17058.21
625.24	16781.74
625.435	16572.85
625.629	16732.59
625.824	16292.27
626.018	16611.76
626.213	16329.14
626.407	16376.24
626.602	16171.44
626.796	16091.57
626.991	16028.09
627.185	15868.34
627.38	15763.9
627.574	15679.93
627.768	15528.38
627.963	15528.38
628.157	15729.08
628.352	15565.25
628.546	15307.2
628.74	15180.23
628.935	15141.32
629.129	15096.26
629.323	14950.85
629.517	15194.56
629.712	15071.68
629.906	15002.05
630.1	14698.95
630.294	14623.18
630.489	14567.88
630.683	14584.27
630.877	14410.19
631.071	14293.46
631.265	14498.25
631.459	14191.06
631.653	14328.27
631.848	14043.6
632.042	14090.71
632.236	14076.37
632.43	13816.28
632.624	13672.92
632.818	13857.24
633.012	13519.32
633.206	13699.55
633.4	13611.48
633.594	13259.23
633.788	13418.97
633.982	13386.21
634.176	13335.01
634.369	13347.3
634.563	13109.73
634.757	13162.98
634.951	13101.54
635.145	13054.44
635.339	13009.38
635.533	12896.74
635.726	12947.94
635.92	12730.86
636.114	12638.7
636.308	12509.68
636.501	12450.28
636.695	12558.83
636.889	12534.25
637.083	12374.51
637.276	12308.97
637.47	12247.54
637.664	12102.13
637.857	12188.14
638.051	12132.85
638.244	11710.97
638.438	11817.46
638.632	11839.99
638.825	11817.46
639.019	11633.15
639.212	11704.82
639.406	11545.08
639.599	11692.54
639.793	11532.79
639.986	11340.29
640.18	11667.96
640.373	11256.32
640.567	11002.37
640.76	11104.77
640.954	10973.7
641.147	11098.63
641.34	11072
641.534	10852.87
641.727	10768.9
641.92	10709.51
642.114	10654.22
642.307	10846.73
642.5	10537.48
642.694	10502.67
642.887	10486.28
643.08	10461.71
643.273	10412.56
643.467	10226.19
643.66	10072.59
643.853	10181.14
644.046	10043.92
644.239	10127.89
644.432	9945.62
644.626	9849.36
644.819	9937.43
645.012	9955.86
645.205	9904.66
645.398	10043.92
645.591	9794.07
645.784	9740.82
645.977	9611.8
646.17	9730.58
646.363	9431.58
646.556	9521.69
646.749	9419.29
646.942	9495.07
647.135	9339.42
647.328	9300.51
647.521	9169.44
647.714	9191.97
647.907	9138.72
648.099	9089.57
648.292	9212.45
648.485	8929.83
648.678	9019.94
648.871	8796.71
649.064	8694.31
649.256	8774.18
649.449	8790.56
649.642	8757.8
649.835	8636.97
650.027	8600.1
650.22	8741.41
650.413	8432.17
650.605	8675.88
650.798	8258.09
650.991	8266.28
651.183	8280.62
651.376	8581.67
651.568	8364.59
651.761	8213.04
651.954	8225.33
652.146	8178.22
652.339	8096.3
652.531	8135.21
652.724	8145.45
652.916	7973.42
653.109	7850.55
653.301	7834.16
653.494	7926.32
653.686	7725.62
653.879	7950.9
654.071	7823.92
654.263	7604.79
654.456	7832.12
654.648	7610.93
654.84	7617.08
655.033	7422.52
655.225	7572.02
655.417	7438.91
655.61	7594.55
655.802	7313.98
655.994	7387.71
656.186	7391.8
656.379	7150.14
656.571	7320.12
656.763	7088.7
656.955	7162.43
657.148	7070.27
657.34	7023.17
657.532	7039.55
657.724	7055.93
657.916	6910.53
658.108	6896.19
658.3	6840.9
658.492	6951.49
658.684	6890.05
658.876	6685.25
659.068	6820.42
659.26	6701.64
659.452	6763.08
659.644	6693.44
659.836	6675.01
660.028	6464.07
660.22	6392.39
660.412	6539.85
660.604	6392.39
660.796	6398.54
660.988	6382.15
661.18	6212.17
661.372	6416.97
661.563	6488.65
661.755	6175.31
661.947	6369.87
662.139	6105.68
662.331	6197.84
662.522	6087.25
662.714	6066.77
662.906	6091.34
663.097	5931.6
663.289	6224.46
663.481	6087.25
663.673	6095.44
663.864	5974.61
664.056	5851.73
664.247	5851.73
664.439	5689.94
664.631	5870.16
664.822	5732.95
665.014	5751.38
665.205	5761.62
665.397	5681.75
665.588	5644.88
665.78	5532.25
665.971	5622.36
666.163	5829.2
666.354	5517.91
666.546	5483.1
666.737	5565.01
666.929	5644.88
667.12	5460.57
667.311	5546.58
667.503	5304.92
667.694	5476.95
667.885	5239.39
668.077	5366.36
668.268	5360.22
668.459	5325.4
668.651	5220.95
668.842	5167.71
669.033	5149.28
669.224	5136.99
669.416	5259.87
669.607	5210.72
669.798	5274.2
669.989	5157.47
670.18	5106.27
670.371	5151.32
670.563	4924
670.754	5114.46
670.945	5001.82
671.136	5005.92
671.327	4997.73
671.518	4940.38
671.709	4948.58
671.9	4973.15
672.091	4909.66
672.282	4860.51
672.473	4876.9
672.664	4831.84
672.855	4690.53
673.046	4706.91
673.237	4850.27
673.428	4711.01
673.619	4766.31
673.809	4774.5
674	4682.34
674.191	4715.11
674.382	4561.51
674.573	4784.74
674.764	4584.04
674.954	4575.84
675.145	4633.19
675.336	4301.42
675.527	4659.81
675.717	4571.75
675.908	4520.55
676.099	4366.95
676.289	4514.41
676.48	4440.68
676.671	4602.47
676.861	4495.97
677.052	4440.68
677.243	4500.07
677.433	4518.5
677.624	4440.68
677.814	4377.19
678.005	4383.34
678.195	4371.05
678.386	4455.01
678.576	4350.57
678.767	4317.8
678.957	4342.38
679.148	4440.68
679.338	4344.42
679.529	4342.38
679.719	4344.42
679.909	4416.1
680.1	4237.93
680.29	4192.87
680.481	4221.55
680.671	4295.27
680.861	4080.24
681.052	4270.7
681.242	4301.42
681.432	4248.17
681.622	4254.31
681.813	4237.93
682.003	4149.87
682.193	4235.88
682.383	4170.35
682.573	4100.72
682.764	4096.62
682.954	4196.97
683.144	4182.63
683.334	4125.29
683.524	4147.82
683.714	4256.36
683.904	3961.45
684.094	3990.13
684.284	3986.03
684.474	3945.07
684.664	4072.04
684.854	4022.89
685.044	3957.36
685.234	3932.78
685.424	4121.2
685.614	3969.65
685.804	3994.22
685.994	3922.54
686.184	4119.15
686.374	3838.58
686.564	3867.25
686.753	4016.75
686.943	3940.97
687.133	3891.82
687.323	3756.66
687.513	3832.43
687.702	3801.71
687.892	3854.96
688.082	3785.33
688.272	3775.09
688.461	3719.79
688.651	3768.95
688.841	3674.74
689.03	3682.93
689.22	3689.07
689.41	3740.27
689.599	3705.46
689.789	3560.05
689.979	3715.7
690.168	3506.81
690.358	3515
690.547	3572.34
690.737	3695.22
690.926	3512.95
691.116	3441.27
691.305	3609.2
691.495	3594.87
691.684	3539.57
691.874	3547.76
692.063	3543.67
692.252	3449.46
692.442	3543.67
692.631	3541.62
692.82	3588.72
693.01	3459.7
693.199	3410.55
693.388	3435.13
693.578	3398.26
693.767	3443.32
693.956	3342.97
694.146	3269.24
694.335	3377.78
694.524	3328.63
694.713	3363.45
694.902	3340.92
695.092	3267.19
695.281	3326.58
695.47	3285.62
695.659	3312.25
695.848	3222.14
696.037	3295.86
696.226	3420.79
696.415	3205.75
696.604	3334.78
696.793	3236.47
696.982	3252.86
697.171	3261.05
697.36	3326.58
697.549	3164.79
697.738	3254.9
697.927	3048.06
698.116	3187.32
698.305	3162.75
698.494	3265.14
698.683	3261.05
698.872	3248.76
699.061	3123.84
699.25	3187.32
699.438	3164.79
699.627	3142.27
699.816	3308.15
700.005	3086.97
700.193	3138.17
700.382	3201.66
700.571	3136.12
700.76	3193.47
700.948	3080.83
701.137	3215.99
701.326	3074.68
701.514	2964.09
701.703	3099.26
701.892	3152.51
702.08	3156.6
702.269	2933.37
702.457	3187.32
702.646	3080.83
702.834	3031.68
703.023	3072.64
703.212	3097.21
703.4	2949.76
703.589	3023.48
703.777	3000.96
703.965	2859.65
704.154	3082.88
704.342	3000.96
704.531	3076.73
704.719	2968.19
704.907	3084.92
705.096	3027.58
705.284	3072.64
705.472	3015.29
705.661	2929.28
705.849	3015.29
706.037	2957.95
706.226	3048.06
706.414	3060.35
706.602	2900.61
706.79	2966.14
706.979	2994.81
707.167	2984.57
707.355	2943.61
707.543	2937.47
707.731	2986.62
707.919	2992.77
708.107	2849.41
708.296	2925.18
708.484	2933.37
708.672	2785.92
708.86	2935.42
709.048	2837.12
709.236	2841.22
709.424	2910.85
709.612	2970.24
709.8	2994.81
709.988	2873.98
710.176	2859.65
710.364	2826.88
710.551	2785.92
710.739	2916.99
710.927	2767.49
711.115	2892.41
711.303	2808.45
711.491	2740.86
711.679	2884.22
711.866	2818.69
712.054	2882.17
712.242	2790.02
712.43	2785.92
712.617	2830.98
712.805	2720.39
712.993	2884.22
713.181	2761.34
713.368	2820.74
713.556	2679.43
713.744	2669.19
713.931	2728.58
714.119	2826.88
714.306	2712.19
714.494	2826.88
714.682	2712.19
714.869	2695.81
715.057	2656.9
715.244	2720.39
715.432	2673.28
715.619	2654.85
715.807	2765.44
715.994	2785.92
716.182	2732.67
716.369	2669.19
716.556	2769.54
716.744	2630.27
716.931	2615.94
717.119	2691.71
717.306	2687.62
717.493	2708.1
717.681	2652.8
717.868	2597.51
718.055	2683.52
718.242	2669.19
718.43	2695.81
718.617	2564.74
718.804	2615.94
718.991	2597.51
719.179	2648.71
719.366	2587.27
719.553	2665.09
719.74	2605.7
719.927	2605.7
720.114	2525.83
720.301	2714.24
720.488	2712.19
720.676	2605.7
720.863	2587.27
721.05	2542.21
721.237	2456.2
721.424	2597.51
721.611	2638.47
721.798	2587.27
721.985	2540.16
722.172	2476.68
722.358	2593.41
722.545	2529.92
722.732	2597.51
722.919	2556.55
723.106	2562.69
723.293	2540.16
723.48	2540.16
723.667	2491.01
723.853	2441.86
724.04	2519.68
724.227	2695.81
724.414	2527.88
724.6	2583.17
724.787	2556.55
724.974	2617.99
725.161	2421.38
725.347	2484.87
725.534	2400.9
725.72	2527.88
725.907	2476.68
726.094	2441.86
726.28	2523.78
726.467	2448.01
726.653	2417.29
726.84	2540.16
727.027	2525.83
727.213	2460.29
727.4	2452.1
727.586	2630.27
727.773	2347.65
727.959	2458.25
728.145	2450.05
728.332	2427.53
728.518	2501.25
728.705	2450.05
728.891	2402.95
729.077	2419.33
729.264	2271.88
729.45	2380.42
729.636	2318.98
729.823	2486.92
730.009	2339.46
730.195	2443.91
730.382	2425.48
730.568	2411.14
730.754	2331.27
730.94	2343.56
731.126	2515.59
731.313	2294.41
731.499	2265.74
731.685	2411.14
731.871	2310.79
732.057	2355.85
732.243	2314.89
732.429	2310.79
732.615	2450.05
732.801	2312.84
732.987	2343.56
733.173	2333.32
733.359	2278.02
733.545	2202.25
733.731	2261.64
733.917	2361.99
734.103	2368.13
734.289	2292.36
734.475	2192.01
734.661	2155.15
734.847	2232.97
735.033	2286.22
735.219	2251.4
735.404	2282.12
735.59	2257.54
735.776	2151.05
735.962	2187.91
736.148	2247.3
736.333	2259.59
736.519	2165.39
736.705	2294.41
736.89	2290.31
737.076	2245.26
737.262	2177.67
737.447	2255.5
737.633	2126.47
737.819	2149
738.004	2228.87
738.19	2261.64
738.375	2161.29
738.561	2218.63
738.747	2118.28
738.932	2177.67
739.118	2171.53
739.303	2101.9
739.489	2200.2
739.674	2200.2
739.859	2108.04
740.045	2101.9
740.23	2200.2
740.416	2091.66
740.601	2130.57
740.786	2132.62
740.972	2128.52
741.157	1999.5
741.342	2044.56
741.528	2077.32
741.713	2108.04
741.898	2015.88
742.084	2146.95
742.269	1999.5
742.454	2028.17
742.639	2040.46
742.824	2073.23
743.01	2089.61
743.195	2052.75
743.38	2038.41
743.565	2013.84
743.75	2024.08
743.935	1944.2
744.12	2060.94
744.305	1811.09
744.49	1911.44
744.675	1933.97
744.86	1938.06
745.045	1931.92
745.23	1868.43
745.415	1964.68
745.6	1938.06
745.785	1852.05
745.97	1876.62
746.155	1823.37
746.34	1852.05
746.525	1729.17
746.71	1860.24
746.895	1802.9
747.079	1725.07
747.264	1780.37
747.449	1766.03
747.634	1696.4
747.819	1780.37
748.003	1706.64
748.188	1720.98
748.373	1675.92
748.557	1733.26
748.742	1708.69
748.927	1606.29
749.111	1677.97
749.296	1649.3
749.481	1663.63
749.665	1708.69
749.85	1710.74
750.034	1573.52
750.219	1563.28
750.404	1704.59
750.588	1696.4
750.773	1493.65
750.957	1491.6
751.141	1551
751.326	1551
751.51	1487.51
751.695	1413.78
751.879	1507.99
752.064	1557.14
752.248	1458.84
752.432	1524.37
752.617	1499.8
752.801	1458.84
752.985	1559.19
753.17	1358.49
753.354	1419.92
753.538	1413.78
753.722	1401.49
753.907	1385.11
754.091	1364.63
754.275	1460.88
754.459	1444.5
754.643	1270.42
754.828	1327.77
755.012	1393.3
755.196	1338.01
755.38	1290.9
755.564	1295
755.748	1327.77
755.932	1393.3
756.116	1305.24
756.3	1340.05
756.484	1297.05
756.668	1225.37
756.852	1184.41
757.036	1274.52
757.22	1215.13
757.404	1225.37
757.588	1168.02
757.772	1249.94
757.956	1245.85
758.14	1282.71
758.323	1180.31
758.507	1217.18
758.691	1174.17
758.875	1143.45
759.059	1135.26
759.242	1131.16
759.426	1122.97
759.61	1116.83
759.794	1059.48
759.977	1229.46
760.161	1127.07
760.345	1118.87
760.528	1047.19
760.712	1098.39
760.895	1045.15
761.079	1110.68
761.263	981.66
761.446	1084.06
761.63	1041.05
761.813	1041.05
761.997	985.76
762.18	1116.83
762.364	1012.38
762.547	967.32
762.731	926.36
762.914	967.32
763.098	1045.15
763.281	998.04
763.464	987.8
763.648	969.37
763.831	961.18
764.015	930.46
764.198	936.6
764.381	881.31
764.564	991.9
764.748	922.27
764.931	934.56
765.114	903.84
765.297	1016.48
765.481	918.17
765.664	869.02
765.847	885.41
766.03	950.94
766.213	901.79
766.397	983.71
766.58	918.17
766.763	1024.67
766.946	883.36
767.129	838.3
767.312	889.5
767.495	844.45
767.678	842.4
767.861	869.02
768.044	998.04
768.227	864.93
768.41	873.12
768.593	828.06
768.776	881.31
768.959	854.69
769.142	1000.09
769.324	785.05
769.507	772.77
769.69	901.79
769.873	803.49
770.056	930.46
770.239	795.29
770.421	844.45
770.604	783.01
770.787	744.1
770.97	821.92
771.152	817.82
771.335	838.3
771.518	819.87
771.7	789.15
771.883	817.82
772.066	758.43
772.248	750.24
772.431	801.44
772.613	819.87
772.796	803.49
772.978	758.43
773.161	723.62
773.343	715.42
773.526	791.2
773.708	729.76
773.891	641.7
774.073	729.76
774.256	672.42
774.438	742.05
774.621	674.46
774.803	647.84
774.985	770.72
775.168	682.66
775.35	770.72
775.532	647.84
775.715	688.8
775.897	678.56
776.079	606.88
776.261	748.19
776.444	633.5
776.626	608.93
776.808	606.88
776.99	647.84
777.173	674.46
777.355	684.7
777.537	586.4
777.719	641.7
777.901	582.31
778.083	578.21
778.265	598.69
778.447	557.73
778.629	527.01
778.811	619.17
778.993	565.92
779.175	701.09
779.357	606.88
779.539	531.11
779.721	582.31
779.903	567.97
780.085	529.06
780.267	578.21
780.449	543.39
780.631	557.73
780.812	551.59
780.994	494.24
781.176	479.91
781.358	475.81
781.54	496.29
781.721	512.67
781.903	516.77
782.085	479.91
782.267	590.5
782.448	436.9
782.63	488.1
782.812	443.04
782.993	484
783.175	459.43
783.357	463.52
783.538	492.2
783.72	332.45
783.901	492.2
784.083	469.67
784.264	451.24
784.446	508.58
784.627	426.66
784.809	397.99
784.99	381.6
785.172	352.93
785.353	410.28
785.535	498.34
785.716	475.81
785.897	402.08
786.079	397.99
786.26	469.67
786.441	479.91
786.623	434.85
786.804	385.7
786.985	314.02
787.167	359.08
787.348	383.65
787.529	357.03
787.71	477.86
787.891	410.28
788.073	389.8
788.254	307.88
788.435	350.89
788.616	346.79
788.797	344.74
788.978	369.32
789.159	412.32
789.34	426.66
789.522	275.11
789.703	375.46
789.884	303.78
790.065	295.59
790.246	443.04
790.427	379.56
790.607	375.46
790.788	363.17
790.969	379.56
791.15	475.81
791.331	375.46
791.512	332.45
791.693	328.36
791.874	344.74
792.054	389.8
792.235	387.75
792.416	273.06
792.597	367.27
792.778	311.97
792.958	332.45
793.139	223.91
793.32	346.79
793.5	223.91
793.681	410.28
793.862	320.17
794.042	271.01
794.223	262.82
794.404	254.63
794.584	215.72
794.765	285.35
794.945	271.01
795.126	342.69
795.306	301.73
795.487	285.35
795.667	248.49
795.848	391.84
796.028	262.82
796.209	256.68
796.389	305.83
796.57	230.06
796.75	238.25
796.93	301.73
797.111	234.15
797.291	275.11
797.471	271.01
797.652	199.34
797.832	275.11
798.012	328.36
798.192	260.77
798.373	230.06
798.553	232.1
798.733	311.97
798.913	164.52
799.093	256.68
799.274	230.06
799.454	168.62
799.634	250.53
799.814	262.82
799.994	246.44
800.174	219.82
800.354	246.44
800.534	268.97
800.714	228.01
800.894	172.71
801.074	258.73
801.254	197.29
801.434	258.73
801.614	199.34
801.794	225.96
801.974	692.9
802.154	197.29
802.334	268.97
802.514	133.8
802.693	205.48
802.873	193.19
803.053	199.34
803.233	144.04
803.413	207.53
803.592	131.75
803.772	256.68
803.952	172.71
804.131	164.52
804.311	180.9
804.491	150.18
804.67	117.42
804.85	141.99
805.03	248.49
805.209	217.77
805.389	133.8
805.568	248.49
805.748	223.91
805.928	207.53
806.107	252.58
806.287	221.86
806.466	176.81
806.646	158.38
806.825	158.38
807.004	193.19
807.184	156.33
807.363	250.53
807.543	201.38
807.722	148.14
807.901	221.86
808.081	246.44
808.26	103.08
808.439	146.09
808.619	180.9
808.798	107.18
808.977	137.9
809.156	193.19
809.336	94.89
809.515	162.47
809.694	76.46
809.873	166.57
810.052	129.7
810.231	232.1
810.411	139.94
810.59	232.1
810.769	164.52
810.948	164.52
811.127	92.84
811.306	209.58
811.485	94.89
811.664	230.06
811.843	166.57
812.022	127.66
812.201	195.24
812.38	115.37
812.559	162.47
812.737	107.18
812.916	101.03
813.095	209.58
813.274	90.79
813.453	193.19
813.632	80.55
813.811	164.52
813.989	96.94
814.168	146.09
814.347	98.99
814.526	98.99
814.704	197.29
814.883	197.29
815.062	139.94
815.24	107.18
815.419	141.99
815.598	135.85
815.776	82.6
815.955	78.51
816.133	98.99
816.312	119.46
816.49	111.27
816.669	139.94
816.847	199.34
817.026	152.23
817.204	180.9
817.383	187.05
817.561	15.02
817.74	76.46
817.918	84.65
818.097	25.26
818.275	152.23
818.453	115.37
818.632	88.75
818.81	115.37
818.988	109.22
819.167	107.18
819.345	19.11
819.523	-9.56
819.701	152.23
819.879	133.8
820.058	160.42
820.236	127.66
820.414	148.14
820.592	58.03
820.77	125.61
820.948	74.41
821.127	119.46
821.305	66.22
821.483	66.22
821.661	101.03
821.839	76.46
822.017	76.46
822.195	119.46
822.373	72.36
822.551	101.03
822.729	148.14
822.907	133.8
823.085	115.37
823.262	156.33
823.44	135.85
823.618	10.92
823.796	88.75
823.974	53.93
824.152	164.52
824.329	62.12
824.507	150.18
824.685	68.27
824.863	127.66
825.04	180.9
825.218	86.7
825.396	111.27
825.574	43.69
825.751	98.99
825.929	115.37
826.107	74.41
826.284	156.33
826.462	41.64
826.639	86.7
826.817	68.27
826.994	82.6
827.172	74.41
827.349	113.32
827.527	115.37
827.704	144.04
827.882	123.56
828.059	62.12
828.237	86.7
828.414	127.66
828.591	66.22
828.769	84.65
828.946	62.12
829.124	41.64
829.301	66.22
829.478	68.27
829.655	29.35
829.833	92.84
830.01	49.83
830.187	180.9
830.364	103.08
830.542	80.55
830.719	150.18
830.896	98.99
831.073	90.79
831.25	60.07
831.427	123.56
831.604	107.18
831.782	8.87
831.959	117.42
832.136	45.74
832.313	98.99
832.49	58.03
832.667	49.83
832.844	37.55
833.021	90.79
833.198	17.07
833.374	25.26
833.551	117.42
833.728	23.21
833.905	82.6
834.082	33.45
834.259	90.79
834.436	47.79
834.612	19.11
834.789	72.36
834.966	82.6
835.143	37.55
835.319	41.64
835.496	127.66
835.673	76.46
835.85	125.61
836.026	76.46
836.203	107.18
836.38	35.5
836.556	47.79
836.733	90.79
836.909	98.99
837.086	35.5
837.262	17.07
837.439	43.69
837.616	103.08
837.792	39.59
837.968	94.89
838.145	-17.75
838.321	43.69
838.498	70.31
838.674	68.27
838.851	21.16
839.027	47.79
839.203	41.64
839.38	68.27
839.556	49.83
839.732	129.7
839.909	76.46
840.085	131.75
840.261	82.6
840.437	58.03
840.614	45.74
840.79	129.7
840.966	25.26
841.142	64.17
841.318	101.03
841.494	2.73
841.671	164.52
841.847	8.87
842.023	31.4
842.199	78.51
842.375	49.83
842.551	19.11
842.727	58.03
842.903	107.18
843.079	53.93
843.255	131.75
843.431	-9.56
843.607	27.31
843.783	8.87
843.959	76.46
844.134	27.31
844.31	8.87
844.486	12.97
844.662	76.46
844.838	-13.65
845.013	111.27
845.189	-11.61
845.365	12.97
845.541	43.69
845.716	137.9
845.892	49.83
846.068	78.51
846.244	17.07
846.419	90.79
846.595	-15.7
846.77	60.07
846.946	51.88
847.122	115.37
847.297	-15.7
847.473	45.74
847.648	58.03
847.824	-48.47
847.999	51.88
848.175	43.69
848.35	82.6
848.526	141.99
848.701	49.83
848.876	66.22
849.052	64.17
849.227	58.03
849.403	76.46
849.578	33.45
849.753	25.26
849.929	51.88
850.104	4.78
850.279	10.92
850.454	94.89
850.63	27.31
850.805	6.83
850.98	2.73
851.155	6.83
851.33	-7.51
851.505	27.31
851.681	27.31
851.856	0.68
852.031	45.74
852.206	0.68
852.381	4.78
852.556	-13.65
852.731	78.51
852.906	76.46
853.081	-21.85
853.256	51.88
853.431	115.37
853.606	-75.09
853.781	-21.85
853.956	-56.66
854.131	76.46
854.305	0.68
854.48	45.74
854.655	64.17
854.83	41.64
855.005	33.45
855.18	15.02
855.354	-15.7
855.529	19.11
855.704	113.32
855.879	41.64
856.053	17.07
856.228	119.46
856.403	-21.85
856.577	0.68
856.752	45.74
856.926	19.11
857.101	-15.7
857.276	0.68
857.45	23.21
857.625	0.68
857.799	8.87
857.974	10.92
858.148	33.45
858.323	23.21
858.497	4.78
858.672	39.59
858.846	2.73
859.02	-27.99
859.195	-44.37
859.369	35.5
859.543	-15.7
859.718	-21.85
859.892	72.36
860.066	31.4
860.241	-27.99
860.415	60.07
860.589	25.26
860.763	33.45
860.938	58.03
861.112	35.5
861.286	37.55
861.46	88.75
861.634	29.35
861.808	51.88
861.982	23.21
862.157	66.22
862.331	-38.23
862.505	-5.46
862.679	-79.19
862.853	25.26
863.027	-32.08
863.201	60.07
863.375	2.73
863.549	-7.51
863.722	80.55
863.896	41.64
864.07	-17.75
864.244	-40.28
864.418	21.16
864.592	12.97
864.766	4.78
864.939	-38.23
865.113	-7.51
865.287	49.83
865.461	8.87
865.634	27.31
865.808	23.21
865.982	8.87
866.156	-11.61
866.329	19.11
866.503	68.27
866.676	72.36
866.85	15.02
867.024	-64.85
867.197	41.64
867.371	-5.46
867.544	15.02
867.718	0.68
867.891	27.31
868.065	-19.8
868.238	-11.61
868.412	88.75
868.585	47.79
868.759	0.68
868.932	41.64
869.105	21.16
869.279	31.4
869.452	-30.04
869.625	-34.13
869.799	60.07
869.972	-32.08
870.145	2.73
870.319	90.79
870.492	35.5
870.665	25.26
870.838	17.07
871.011	-54.61
871.185	-13.65
871.358	-71
871.531	70.31
871.704	-15.7
871.877	-25.94
872.05	-23.89
872.223	19.11
872.396	35.5
872.569	15.02
872.742	-75.09
872.915	41.64
873.088	-32.08
873.261	-40.28
873.434	101.03
873.607	8.87
873.78	78.51
873.953	10.92
874.126	-5.46
874.299	2.73
874.471	-27.99
874.644	82.6
874.817	2.73
874.99	15.02
875.163	105.13
875.335	62.12
875.508	41.64
875.681	41.64
875.853	27.31
876.026	4.78
876.199	53.93
876.371	0.68
876.544	-15.7
876.717	51.88
876.889	-73.04
877.062	92.84
877.234	25.26
877.407	-56.66
877.579	8.87
877.752	15.02
877.924	17.07
878.097	-23.89
878.269	62.12
878.442	17.07
878.614	60.07
878.786	33.45
878.959	-52.56
879.131	12.97
879.303	-73.04
879.476	47.79
879.648	2.73
879.82	51.88
879.993	41.64
880.165	10.92
880.337	-27.99
880.509	21.16
880.681	19.11
880.854	-44.37
881.026	25.26
881.198	53.93
881.37	15.02
881.542	33.45
881.714	25.26
881.886	-23.89
882.058	51.88
882.23	2.73
882.402	29.35
882.574	-19.8
882.746	-32.08
882.918	29.35
883.09	8.87
883.262	88.75
883.434	-13.65
883.606	-40.28
883.778	51.88
883.95	-3.41
884.122	-7.51
884.293	10.92
884.465	-36.18
884.637	58.03
884.809	49.83
884.98	58.03
885.152	8.87
885.324	8.87
885.496	-30.04
885.667	49.83
885.839	-30.04
886.011	98.99
886.182	12.97
886.354	70.31
886.525	12.97
886.697	107.18
886.869	12.97
887.04	49.83
887.212	109.22
887.383	107.18
887.555	92.84
887.726	-21.85
887.897	74.41
888.069	2.73
888.24	-9.56
888.412	25.26
888.583	8.87
888.754	-15.7
888.926	-27.99
889.097	35.5
889.268	19.11
889.44	-60.76
889.611	-34.13
889.782	17.07
889.953	-15.7
890.125	103.08
890.296	-21.85
890.467	-27.99
890.638	-15.7
890.809	-89.43
890.98	-7.51
891.151	0.68
891.323	62.12
891.494	6.83
891.665	2.73
891.836	35.5
892.007	60.07
892.178	0.68
892.349	-21.85
892.52	-48.47
892.691	-3.41
892.862	25.26
893.032	-73.04
893.203	27.31
893.374	33.45
893.545	23.21
893.716	35.5
893.887	-15.7
894.057	2.73
894.228	4.78
894.399	92.84
894.57	-73.04
894.74	-40.28
894.911	21.16
895.082	8.87
895.253	-17.75
895.423	-40.28
895.594	51.88
895.764	29.35
895.935	-42.32
896.106	33.45
896.276	53.93
896.447	6.83
896.617	29.35
896.788	-52.56
896.958	47.79
897.129	4.78
897.299	-7.51
897.47	-44.37
897.64	68.27
897.81	90.79
897.981	-7.51
898.151	-40.28
898.322	45.74
898.492	78.51
898.662	27.31
898.832	25.26
899.003	-21.85
899.173	43.69
899.343	-5.46
899.513	-11.61
