Data from USB4F104151__218__14-21-19-928.txt Node

Date: Thu Mar 13 14:21:19 EDT 2025
User: louis
Spectrometer: USB4F10415
Trigger mode: 4
Integration Time (sec): 2.000000E-2
Scans to average: 1
Electric dark correction enabled: true
Nonlinearity correction enabled: false
Boxcar width: 0
XAxis mode: Wavelengths
Number of Pixels in Spectrum: 3648
>>>>>Begin Spectral Data<<<<<
178.204	-131.24
178.424	-131.24
178.644	-131.24
178.864	-127.14
179.084	-145.58
179.304	-26.79
179.524	-34.99
179.744	59.22
179.964	-12.46
180.184	57.17
180.404	-45.23
180.624	16.21
180.844	34.64
181.064	-12.46
181.283	-63.66
181.503	-73.9
181.723	102.23
181.943	-51.37
182.163	34.64
182.383	-10.41
182.602	-2.22
182.822	34.64
183.042	26.45
183.262	-39.08
183.482	-61.61
183.701	-30.89
183.921	38.74
184.141	-53.42
184.361	30.55
184.58	42.84
184.8	-32.94
185.02	61.27
185.239	69.46
185.459	-14.51
185.679	51.03
185.898	-51.37
186.118	-0.17
186.338	-26.79
186.557	36.69
186.777	-71.85
186.997	-18.6
187.216	10.07
187.436	34.64
187.655	-47.27
187.875	10.07
188.095	12.12
188.314	69.46
188.534	12.12
188.753	51.03
188.973	-30.89
189.192	10.07
189.412	30.55
189.631	36.69
189.851	-2.22
190.07	18.26
190.29	5.97
190.509	1.88
190.729	-18.6
190.948	-14.51
191.168	77.65
191.387	14.17
191.607	51.03
191.826	69.46
192.045	26.45
192.265	26.45
192.484	10.07
192.704	-47.27
192.923	-45.23
193.142	87.89
193.362	38.74
193.581	12.12
193.8	81.75
194.02	26.45
194.239	77.65
194.458	20.31
194.678	-8.36
194.897	87.89
195.116	40.79
195.335	-6.31
195.555	34.64
195.774	-14.51
195.993	42.84
196.212	-37.03
196.432	-39.08
196.651	-20.65
196.87	-10.41
197.089	77.65
197.308	28.5
197.528	40.79
197.747	-39.08
197.966	22.36
198.185	69.46
198.404	1.88
198.623	36.69
198.842	34.64
199.062	55.12
199.281	59.22
199.5	53.08
199.719	-4.27
199.938	67.41
200.157	36.69
200.376	69.46
200.595	75.6
200.814	30.55
201.033	-10.41
201.252	42.84
201.471	42.84
201.69	89.94
201.909	-8.36
202.128	34.64
202.347	91.99
202.566	71.51
202.785	-4.27
203.004	-47.27
203.223	85.84
203.442	51.03
203.661	8.02
203.879	34.64
204.098	48.98
204.317	1.88
204.536	36.69
204.755	46.93
204.974	18.26
205.193	-59.56
205.411	79.7
205.63	81.75
205.849	32.6
206.068	-32.94
206.287	-4.27
206.505	108.37
206.724	48.98
206.943	-4.27
207.162	-71.85
207.381	28.5
207.599	1.88
207.818	79.7
208.037	-2.22
208.255	34.64
208.474	42.84
208.693	38.74
208.911	-4.27
209.13	69.46
209.349	67.41
209.567	-14.51
209.786	44.88
210.005	44.88
210.223	18.26
210.442	-10.41
210.661	-86.19
210.879	44.88
211.098	-6.31
211.316	-10.41
211.535	102.23
211.753	30.55
211.972	73.56
212.191	-14.51
212.409	-28.84
212.628	63.32
212.846	-49.32
213.065	51.03
213.283	-47.27
213.502	-43.18
213.72	53.08
213.938	10.07
214.157	75.6
214.375	38.74
214.594	-47.27
214.812	-10.41
215.031	16.21
215.249	-28.84
215.467	91.99
215.686	-12.46
215.904	1.88
216.122	-4.27
216.341	36.69
216.559	-6.31
216.778	-34.99
216.996	51.03
217.214	18.26
217.432	75.6
217.651	-39.08
217.869	-18.6
218.087	-37.03
218.306	5.97
218.524	38.74
218.742	71.51
218.96	20.31
219.179	-26.79
219.397	-34.99
219.615	-0.17
219.833	46.93
220.051	20.31
220.27	44.88
220.488	-34.99
220.706	14.17
220.924	44.88
221.142	18.26
221.36	63.32
221.578	-28.84
221.796	55.12
222.015	-39.08
222.233	42.84
222.451	1.88
222.669	-6.31
222.887	-4.27
223.105	-51.37
223.323	20.31
223.541	-18.6
223.759	26.45
223.977	63.32
224.195	5.97
224.413	5.97
224.631	18.26
224.849	8.02
225.067	132.95
225.285	16.21
225.503	-4.27
225.721	-88.23
225.939	-18.6
226.157	32.6
226.375	51.03
226.592	-26.79
226.81	-20.65
227.028	51.03
227.246	63.32
227.464	59.22
227.682	-20.65
227.9	-14.51
228.117	108.37
228.335	28.5
228.553	-67.75
228.771	28.5
228.989	51.03
229.206	26.45
229.424	-18.6
229.642	-39.08
229.86	3.93
230.077	-30.89
230.295	-6.31
230.513	-6.31
230.731	-14.51
230.948	100.18
231.166	18.26
231.384	46.93
231.601	20.31
231.819	34.64
232.037	-47.27
232.254	26.45
232.472	67.41
232.689	26.45
232.907	38.74
233.125	5.97
233.342	-6.31
233.56	26.45
233.777	5.97
233.995	-12.46
234.213	-0.17
234.43	34.64
234.648	14.17
234.865	51.03
235.083	87.89
235.3	-86.19
235.518	-32.94
235.735	5.97
235.953	24.4
236.17	-0.17
236.388	12.12
236.605	12.12
236.822	5.97
237.04	77.65
237.257	18.26
237.475	-30.89
237.692	91.99
237.909	-18.6
238.127	36.69
238.344	8.02
238.562	5.97
238.779	-90.28
238.996	-20.65
239.214	116.56
239.431	24.4
239.648	-16.55
239.865	-39.08
240.083	-4.27
240.3	53.08
240.517	-51.37
240.735	1.88
240.952	67.41
241.169	110.42
241.386	-30.89
241.603	10.07
241.821	-22.7
242.038	26.45
242.255	34.64
242.472	59.22
242.689	-6.31
242.907	36.69
243.124	53.08
243.341	34.64
243.558	5.97
243.775	40.79
243.992	10.07
244.209	1.88
244.426	63.32
244.643	-37.03
244.86	34.64
245.078	42.84
245.295	-45.23
245.512	-12.46
245.729	-22.7
245.946	3.93
246.163	16.21
246.38	18.26
246.597	1.88
246.814	46.93
247.031	61.27
247.248	26.45
247.464	-61.61
247.681	10.07
247.898	26.45
248.115	94.04
248.332	48.98
248.549	26.45
248.766	53.08
248.983	38.74
249.2	-2.22
249.417	46.93
249.633	-30.89
249.85	48.98
250.067	-28.84
250.284	22.36
250.501	30.55
250.717	14.17
250.934	-43.18
251.151	51.03
251.368	28.5
251.585	-22.7
251.801	-18.6
252.018	18.26
252.235	10.07
252.451	-30.89
252.668	5.97
252.885	18.26
253.102	-55.47
253.318	-22.7
253.535	20.31
253.752	36.69
253.968	-26.79
254.185	-2.22
254.401	20.31
254.618	26.45
254.835	-37.03
255.051	34.64
255.268	-2.22
255.484	36.69
255.701	-24.75
255.917	-6.31
256.134	-75.95
256.351	-14.51
256.567	-55.47
256.784	-2.22
257	-37.03
257.217	-0.17
257.433	18.26
257.65	42.84
257.866	26.45
258.082	-26.79
258.299	65.36
258.515	44.88
258.732	53.08
258.948	-47.27
259.165	120.66
259.381	8.02
259.597	28.5
259.814	26.45
260.03	48.98
260.246	30.55
260.463	36.69
260.679	-37.03
260.895	-34.99
261.112	32.6
261.328	-4.27
261.544	-26.79
261.761	106.32
261.977	-12.46
262.193	-14.51
262.409	36.69
262.626	73.56
262.842	12.12
263.058	-39.08
263.274	67.41
263.49	-4.27
263.707	75.6
263.923	-30.89
264.139	10.07
264.355	32.6
264.571	55.12
264.787	18.26
265.004	110.42
265.22	59.22
265.436	-30.89
265.652	-37.03
265.868	36.69
266.084	3.93
266.3	44.88
266.516	-14.51
266.732	20.31
266.948	34.64
267.164	-14.51
267.38	14.17
267.596	83.8
267.812	44.88
268.028	5.97
268.244	-43.18
268.46	51.03
268.676	-37.03
268.892	46.93
269.108	-57.51
269.324	40.79
269.54	1.88
269.756	10.07
269.972	-24.75
270.188	-18.6
270.403	34.64
270.619	36.69
270.835	-20.65
271.051	-0.17
271.267	26.45
271.483	-55.47
271.698	-37.03
271.914	5.97
272.13	18.26
272.346	26.45
272.562	44.88
272.777	53.08
272.993	-20.65
273.209	-28.84
273.425	65.36
273.64	-4.27
273.856	42.84
274.072	-20.65
274.287	12.12
274.503	51.03
274.719	16.21
274.934	12.12
275.15	-39.08
275.366	83.8
275.581	20.31
275.797	63.32
276.012	3.93
276.228	3.93
276.444	22.36
276.659	44.88
276.875	-59.56
277.09	12.12
277.306	42.84
277.521	34.64
277.737	-16.55
277.952	44.88
278.168	1.88
278.383	42.84
278.599	10.07
278.814	22.36
279.03	46.93
279.245	83.8
279.461	108.37
279.676	44.88
279.892	-20.65
280.107	10.07
280.322	87.89
280.538	-30.89
280.753	5.97
280.969	-4.27
281.184	-26.79
281.399	91.99
281.615	40.79
281.83	28.5
282.045	-30.89
282.26	30.55
282.476	-20.65
282.691	46.93
282.906	-20.65
283.122	18.26
283.337	-37.03
283.552	36.69
283.767	-26.79
283.983	36.69
284.198	65.36
284.413	-41.13
284.628	10.07
284.843	34.64
285.058	20.31
285.274	-24.75
285.489	-55.47
285.704	32.6
285.919	1.88
286.134	28.5
286.349	22.36
286.564	59.22
286.779	12.12
286.995	10.07
287.21	8.02
287.425	-22.7
287.64	-12.46
287.855	-22.7
288.07	-53.42
288.285	26.45
288.5	14.17
288.715	59.22
288.93	-28.84
289.145	-6.31
289.36	67.41
289.575	71.51
289.79	30.55
290.004	-0.17
290.219	48.98
290.434	1.88
290.649	30.55
290.864	91.99
291.079	26.45
291.294	5.97
291.509	8.02
291.724	-26.79
291.938	-10.41
292.153	77.65
292.368	-30.89
292.583	100.18
292.798	30.55
293.012	10.07
293.227	-0.17
293.442	-96.43
293.657	85.84
293.871	12.12
294.086	12.12
294.301	77.65
294.516	34.64
294.73	57.17
294.945	51.03
295.16	-6.31
295.374	59.22
295.589	51.03
295.804	-6.31
296.018	-8.36
296.233	30.55
296.447	-0.17
296.662	-45.23
296.877	42.84
297.091	-4.27
297.306	94.04
297.52	20.31
297.735	20.31
297.949	26.45
298.164	-32.94
298.378	20.31
298.593	53.08
298.807	46.93
299.022	-30.89
299.236	36.69
299.451	36.69
299.665	42.84
299.88	89.94
300.094	59.22
300.309	-6.31
300.523	67.41
300.737	55.12
300.952	-22.7
301.166	30.55
301.381	-47.27
301.595	112.47
301.809	-14.51
302.024	44.88
302.238	28.5
302.452	40.79
302.667	44.88
302.881	59.22
303.095	-6.31
303.309	38.74
303.524	22.36
303.738	18.26
303.952	10.07
304.166	10.07
304.381	36.69
304.595	124.76
304.809	36.69
305.023	42.84
305.237	42.84
305.452	51.03
305.666	20.31
305.88	71.51
306.094	8.02
306.308	79.7
306.522	28.5
306.736	18.26
306.95	53.08
307.164	18.26
307.379	26.45
307.593	75.6
307.807	8.02
308.021	67.41
308.235	53.08
308.449	-34.99
308.663	69.46
308.877	75.6
309.091	22.36
309.305	-4.27
309.519	-47.27
309.733	5.97
309.947	-6.31
310.161	1.88
310.374	63.32
310.588	157.52
310.802	18.26
311.016	57.17
311.23	30.55
311.444	-43.18
311.658	44.88
311.872	79.7
312.085	55.12
312.299	38.74
312.513	22.36
312.727	48.98
312.941	-47.27
313.154	26.45
313.368	16.21
313.582	22.36
313.796	59.22
314.009	65.36
314.223	91.99
314.437	-22.7
314.651	42.84
314.864	-30.89
315.078	-8.36
315.292	79.7
315.505	1.88
315.719	-14.51
315.933	18.26
316.146	42.84
316.36	-8.36
316.573	55.12
316.787	5.97
317.001	59.22
317.214	22.36
317.428	14.17
317.641	-10.41
317.855	-6.31
318.068	48.98
318.282	61.27
318.495	75.6
318.709	81.75
318.922	12.12
319.136	34.64
319.349	89.94
319.563	42.84
319.776	10.07
319.99	83.8
320.203	67.41
320.417	38.74
320.63	14.17
320.843	104.28
321.057	-20.65
321.27	59.22
321.483	-22.7
321.697	63.32
321.91	51.03
322.124	81.75
322.337	-6.31
322.55	30.55
322.763	18.26
322.977	69.46
323.19	-6.31
323.403	8.02
323.617	94.04
323.83	63.32
324.043	59.22
324.256	12.12
324.469	83.8
324.683	51.03
324.896	67.41
325.109	69.46
325.322	-20.65
325.535	36.69
325.748	106.32
325.962	36.69
326.175	36.69
326.388	59.22
326.601	18.26
326.814	55.12
327.027	10.07
327.24	-14.51
327.453	-22.7
327.666	18.26
327.879	16.21
328.092	28.5
328.305	10.07
328.518	1.88
328.731	67.41
328.944	-69.8
329.157	42.84
329.37	36.69
329.583	30.55
329.796	67.41
330.009	30.55
330.222	59.22
330.435	12.12
330.648	67.41
330.861	63.32
331.073	-2.22
331.286	67.41
331.499	63.32
331.712	73.56
331.925	36.69
332.138	-84.14
332.35	87.89
332.563	12.12
332.776	28.5
332.989	-0.17
333.202	26.45
333.414	104.28
333.627	67.41
333.84	-12.46
334.053	69.46
334.265	-47.27
334.478	75.6
334.691	34.64
334.903	20.31
335.116	-28.84
335.329	44.88
335.541	77.65
335.754	69.46
335.966	59.22
336.179	28.5
336.392	75.6
336.604	-2.22
336.817	42.84
337.029	-6.31
337.242	32.6
337.454	75.6
337.667	38.74
337.88	59.22
338.092	28.5
338.305	42.84
338.517	14.17
338.729	124.76
338.942	94.04
339.154	-6.31
339.367	-16.55
339.579	53.08
339.792	3.93
340.004	69.46
340.217	-0.17
340.429	38.74
340.641	-41.13
340.854	8.02
341.066	51.03
341.278	126.8
341.491	38.74
341.703	100.18
341.915	14.17
342.128	24.4
342.34	36.69
342.552	28.5
342.764	5.97
342.977	42.84
343.189	34.64
343.401	51.03
343.613	1.88
343.826	77.65
344.038	-16.55
344.25	22.36
344.462	30.55
344.674	71.51
344.886	-53.42
345.099	75.6
345.311	42.84
345.523	51.03
345.735	-32.94
345.947	104.28
346.159	-4.27
346.371	63.32
346.583	28.5
346.795	79.7
347.007	1.88
347.219	91.99
347.431	-10.41
347.643	63.32
347.855	12.12
348.067	12.12
348.279	3.93
348.491	-20.65
348.703	59.22
348.915	75.6
349.127	-34.99
349.339	26.45
349.551	-6.31
349.763	18.26
349.975	-34.99
350.187	34.64
350.399	55.12
350.61	-12.46
350.822	-2.22
351.034	124.76
351.246	55.12
351.458	1.88
351.669	116.56
351.881	87.89
352.093	59.22
352.305	44.88
352.517	114.52
352.728	20.31
352.94	34.64
353.152	38.74
353.363	44.88
353.575	137.04
353.787	-10.41
353.999	26.45
354.21	36.69
354.422	55.12
354.633	53.08
354.845	77.65
355.057	34.64
355.268	12.12
355.48	102.23
355.692	-34.99
355.903	67.41
356.115	-16.55
356.326	42.84
356.538	34.64
356.749	-14.51
356.961	59.22
357.172	-39.08
357.384	-30.89
357.595	51.03
357.807	44.88
358.018	8.02
358.23	34.64
358.441	34.64
358.653	-20.65
358.864	-20.65
359.075	26.45
359.287	51.03
359.498	12.12
359.709	18.26
359.921	42.84
360.132	69.46
360.344	10.07
360.555	24.4
360.766	-14.51
360.977	26.45
361.189	34.64
361.4	38.74
361.611	34.64
361.823	44.88
362.034	51.03
362.245	-39.08
362.456	91.99
362.667	-4.27
362.879	12.12
363.09	18.26
363.301	48.98
363.512	-77.99
363.723	34.64
363.935	73.56
364.146	38.74
364.357	-4.27
364.568	61.27
364.779	-4.27
364.99	81.75
365.201	44.88
365.412	10.07
365.623	14.17
365.834	30.55
366.045	57.17
366.256	91.99
366.467	24.4
366.678	46.93
366.889	79.7
367.1	12.12
367.311	79.7
367.522	51.03
367.733	108.37
367.944	40.79
368.155	51.03
368.366	53.08
368.577	139.09
368.788	69.46
368.999	24.4
369.209	36.69
369.42	75.6
369.631	100.18
369.842	94.04
370.053	34.64
370.264	48.98
370.474	26.45
370.685	22.36
370.896	77.65
371.107	94.04
371.317	91.99
371.528	38.74
371.739	69.46
371.95	26.45
372.16	91.99
372.371	53.08
372.582	36.69
372.792	104.28
373.003	108.37
373.214	75.6
373.424	67.41
373.635	-43.18
373.846	28.5
374.056	67.41
374.267	57.17
374.477	36.69
374.688	-34.99
374.898	34.64
375.109	46.93
375.319	67.41
375.53	36.69
375.74	96.08
375.951	44.88
376.161	79.7
376.372	85.84
376.582	-24.75
376.793	-6.31
377.003	85.84
377.214	12.12
377.424	53.08
377.635	59.22
377.845	42.84
378.055	120.66
378.266	20.31
378.476	87.89
378.686	81.75
378.897	51.03
379.107	85.84
379.317	32.6
379.528	28.5
379.738	26.45
379.948	40.79
380.158	51.03
380.369	18.26
380.579	-22.7
380.789	16.21
380.999	53.08
381.21	51.03
381.42	55.12
381.63	57.17
381.84	-6.31
382.05	61.27
382.261	71.51
382.471	59.22
382.681	55.12
382.891	98.13
383.101	98.13
383.311	44.88
383.521	55.12
383.731	44.88
383.941	59.22
384.151	-20.65
384.361	91.99
384.571	-2.22
384.781	5.97
384.991	159.57
385.201	104.28
385.411	36.69
385.621	40.79
385.831	46.93
386.041	61.27
386.251	1.88
386.461	85.84
386.671	71.51
386.881	46.93
387.091	44.88
387.301	34.64
387.511	48.98
387.72	55.12
387.93	18.26
388.14	38.74
388.35	3.93
388.56	77.65
388.769	34.64
388.979	28.5
389.189	61.27
389.399	75.6
389.609	69.46
389.818	139.09
390.028	46.93
390.238	112.47
390.447	59.22
390.657	44.88
390.867	108.37
391.076	53.08
391.286	28.5
391.496	55.12
391.705	57.17
391.915	24.4
392.125	120.66
392.334	65.36
392.544	102.23
392.753	85.84
392.963	77.65
393.172	20.31
393.382	55.12
393.591	120.66
393.801	36.69
394.01	145.24
394.22	34.64
394.429	26.45
394.639	-20.65
394.848	108.37
395.058	71.51
395.267	59.22
395.477	100.18
395.686	24.4
395.895	83.8
396.105	141.14
396.314	44.88
396.524	89.94
396.733	42.84
396.942	120.66
397.152	55.12
397.361	139.09
397.57	51.03
397.78	91.99
397.989	100.18
398.198	171.86
398.407	59.22
398.617	124.76
398.826	120.66
399.035	104.28
399.244	143.19
399.453	165.71
399.663	59.22
399.872	110.42
400.081	98.13
400.29	96.08
400.499	104.28
400.708	89.94
400.917	208.72
401.127	135
401.336	91.99
401.545	167.76
401.754	120.66
401.963	135
402.172	83.8
402.381	110.42
402.59	110.42
402.799	153.43
403.008	112.47
403.217	124.76
403.426	116.56
403.635	135
403.844	128.85
404.053	163.67
404.262	114.52
404.471	208.72
404.68	116.56
404.888	130.9
405.097	77.65
405.306	190.29
405.515	182.1
405.724	169.81
405.933	257.87
406.142	157.52
406.35	208.72
406.559	167.76
406.768	239.44
406.977	235.35
407.185	171.86
407.394	214.87
407.603	227.15
407.812	208.72
408.02	304.98
408.229	280.4
408.438	216.91
408.646	190.29
408.855	317.26
409.064	337.74
409.272	286.54
409.481	390.99
409.69	298.83
409.898	366.42
410.107	331.6
410.315	399.18
410.524	382.8
410.733	337.74
410.941	452.43
411.15	524.11
411.358	501.58
411.567	421.71
411.775	501.58
411.984	436.05
412.192	534.35
412.401	495.44
412.609	554.83
412.818	579.4
413.026	571.21
413.234	681.8
413.443	608.08
413.651	661.32
413.86	689.99
414.068	708.43
414.276	679.75
414.485	716.62
414.693	780.11
414.901	825.16
415.11	841.54
415.318	864.07
415.526	853.83
415.734	915.27
415.943	1001.29
416.151	1040.2
416.359	1003.33
416.567	1019.72
416.776	1109.83
416.984	1095.49
417.192	1169.22
417.4	1214.27
417.608	1124.16
417.817	1197.89
418.025	1275.71
418.233	1431.36
418.441	1410.88
418.649	1388.35
418.857	1566.53
419.065	1568.57
419.273	1550.14
419.481	1673.02
419.689	1797.95
419.897	1748.79
420.105	1881.91
420.313	1857.34
420.521	1951.54
420.729	1896.25
420.937	2045.75
421.145	2090.81
421.353	2238.26
421.561	2369.33
421.769	2385.71
421.977	2443.06
422.185	2389.81
422.393	2520.88
422.601	2666.28
422.809	2535.21
423.017	2780.97
423.224	2770.73
423.432	2928.42
423.64	3059.49
423.848	3323.68
424.056	3032.87
424.263	3436.32
424.471	3393.31
424.679	3479.33
424.887	3661.6
425.094	3835.67
425.302	3856.15
425.51	3983.13
425.718	4099.86
425.925	4030.23
426.133	4151.06
426.341	4470.55
426.548	4712.21
426.756	4724.49
426.964	4765.45
427.171	5013.26
427.379	5170.95
427.586	5273.35
427.794	5410.56
428.001	5664.51
428.209	5771.01
428.417	5742.33
428.624	6133.5
428.832	6239.99
429.039	6237.94
429.247	6244.09
429.454	6639.34
429.662	7014.12
429.869	6745.84
430.076	7216.87
430.284	6958.83
430.491	7304.93
430.699	7661.28
430.906	7732.96
431.114	7706.34
431.321	8062.68
431.528	8212.18
431.736	8668.88
431.943	9148.11
432.15	8976.08
432.358	8990.41
432.565	9563.84
432.772	9572.04
432.979	9832.13
433.187	9909.95
433.394	10073.79
433.601	10839.73
433.808	11118.25
434.016	10714.8
434.223	11151.02
434.43	11677.35
434.637	11722.4
434.844	12562.07
435.052	12693.14
435.259	12609.17
435.466	12529.3
435.673	12547.73
435.88	13383.31
436.087	14061.18
436.294	13979.26
436.501	13772.42
436.708	14001.79
436.915	14651
437.122	15011.44
437.329	14970.48
437.537	15507.05
437.743	15910.5
437.95	15726.18
438.157	16467.55
438.364	17018.45
438.571	17026.64
438.778	17192.53
438.985	18722.36
439.192	17948.23
439.399	18525.75
439.606	18064.96
439.813	19138.1
440.02	20338.21
440.227	19928.61
440.433	19932.71
440.64	20594.2
440.847	20213.28
441.054	20626.97
441.261	22107.65
441.467	21777.93
441.674	22173.19
441.881	23365.1
442.088	23008.76
442.294	22883.83
442.501	23135.73
442.708	23993.83
442.914	24491.49
443.121	25800.14
443.328	24964.57
443.534	27069.88
443.741	26142.15
443.948	25492.94
444.154	27422.13
444.361	27342.26
444.568	27899.31
444.774	27706.8
444.981	28091.82
445.187	28679.58
445.394	29887.89
445.6	29330.84
445.807	32521.57
446.013	31178.11
446.22	31608.18
446.426	33187.16
446.633	33158.49
446.839	34405.7
447.046	32709.99
447.252	34370.89
447.459	34786.63
447.665	34409.8
447.871	35810.61
448.078	37575.96
448.284	35880.24
448.491	36926.75
448.697	37862.68
448.903	38323.47
449.11	38769.93
449.316	37887.25
449.522	39048.45
449.728	39881.97
449.935	40316.14
450.141	40232.18
450.347	41000.16
450.553	39970.04
450.76	40264.94
450.966	41483.48
451.172	41358.56
451.378	42339.54
451.584	41546.97
451.791	42542.28
451.997	42312.91
452.203	43015.36
452.409	42998.98
452.615	42472.65
452.821	40955.11
453.027	40731.88
453.233	43029.7
453.44	41295.07
453.646	41753.82
453.852	41893.08
454.058	42646.73
454.264	40914.15
454.47	41929.94
454.676	40598.76
454.882	42351.82
455.088	38509.83
455.294	39177.47
455.5	40353.01
455.705	40676.58
455.911	38620.42
456.117	37848.34
456.323	37547.29
456.529	35366.2
456.735	37197.09
456.941	36203.82
457.147	35976.5
457.352	34635.08
457.558	34248.01
457.764	34321.74
457.97	33514.84
458.176	32783.71
458.381	32986.46
458.587	31194.49
458.793	31180.15
458.999	29668.75
459.204	31884.65
459.41	31038.84
459.616	28685.73
459.821	29021.59
460.027	29207.96
460.233	28523.94
460.438	27252.15
460.644	27387.32
460.85	26283.46
461.055	26031.56
461.261	25638.35
461.466	23946.73
461.672	22763
461.878	24557.02
462.083	23066.1
462.289	22496.77
462.494	22214.15
462.7	21235.22
462.905	20825.62
463.111	21769.74
463.316	21593.61
463.522	21075.48
463.727	21188.11
463.932	20964.89
464.138	20778.52
464.343	20817.43
464.549	20266.53
464.754	21155.35
464.959	21110.29
465.165	20962.84
465.37	19971.62
465.575	19244.59
465.781	20045.35
465.986	20174.37
466.191	19338.8
466.397	19148.34
466.602	18310.72
466.807	19062.32
467.012	18896.44
467.218	18888.25
467.423	18591.29
467.628	18716.22
467.833	19199.54
468.038	18599.48
468.244	18280
468.449	18964.02
468.654	18390.59
468.859	18114.11
469.064	18218.56
469.269	17370.7
469.474	17727.05
469.679	18011.71
469.885	17296.97
470.09	17653.32
470.295	17716.81
470.5	17139.28
470.705	17073.74
470.91	16805.46
471.115	16649.82
471.32	17073.74
471.525	16989.78
471.73	16305.76
471.935	16561.75
472.139	15904.35
472.344	15965.79
472.549	15740.52
472.754	15717.99
472.959	15203.95
473.164	14988.91
473.369	14771.83
473.574	15693.41
473.778	15150.7
473.983	15265.39
474.188	15154.8
474.393	14347.9
474.598	14286.46
474.802	14306.94
475.007	14255.74
475.212	14378.62
475.417	13715.08
475.621	13690.5
475.826	13907.59
476.031	13350.54
476.235	13080.21
476.44	13608.58
476.645	13166.22
476.849	13239.95
477.054	13104.78
477.259	13069.97
477.463	12879.5
477.668	12498.58
477.872	12750.48
478.077	12312.22
478.282	12138.14
478.486	12222.11
478.691	12142.24
478.895	11792.03
479.1	11943.58
479.304	11781.79
479.509	11734.69
479.713	11847.33
479.918	11663.01
480.122	11187.88
480.326	11484.84
480.531	11515.56
480.735	11437.73
480.94	11429.54
481.144	11560.61
481.348	11177.64
481.553	11292.33
481.757	10919.6
481.961	11273.9
482.166	11048.62
482.37	11273.9
482.574	10909.36
482.778	11054.76
482.983	11347.62
483.187	11189.93
483.391	11282.09
483.595	10933.93
483.8	11103.92
484.004	11011.76
484.208	11120.3
484.412	11126.44
484.616	11171.5
484.821	10938.03
485.025	11069.1
485.229	10987.18
485.433	10950.32
485.637	11011.76
485.841	10972.85
486.045	11052.72
486.249	11216.55
486.453	11144.88
486.657	11032.24
486.861	11056.81
487.065	10903.21
487.269	11173.55
487.473	10817.2
487.677	11058.86
487.881	11357.86
488.085	11214.51
488.289	11009.71
488.493	10770.1
488.697	11173.55
488.901	11239.08
489.105	11267.75
489.309	11466.41
489.512	11202.22
489.716	11226.79
489.92	11273.9
490.124	11452.07
490.328	11447.97
490.531	11462.31
490.735	11437.73
490.939	11564.71
491.143	11261.61
491.346	11454.12
491.55	11568.8
491.754	11589.28
491.958	11841.18
492.161	11562.66
492.365	11628.2
492.569	11632.29
492.772	11536.04
492.976	11902.62
493.18	11869.86
493.383	11919.01
493.587	11921.06
493.79	12060.32
493.994	12150.43
494.197	12080.8
494.401	12353.18
494.605	12269.21
494.808	12461.72
495.012	12431
495.215	12750.48
495.419	12740.24
495.622	12625.56
495.825	13043.34
496.029	12881.55
496.232	13129.36
496.436	13160.08
496.639	13514.38
496.843	13350.54
497.046	13479.56
497.249	13747.84
497.453	13880.96
497.656	13930.11
497.859	13966.98
498.063	13995.65
498.266	14575.22
498.469	14290.56
498.673	14618.23
498.876	14476.92
499.079	15023.73
499.282	14771.83
499.485	15363.69
499.689	15224.43
499.892	15554.15
500.095	15607.4
500.298	16049.76
500.501	15783.52
500.705	16047.71
500.908	16432.73
501.111	16772.69
501.314	16651.86
501.517	16819.8
501.72	17086.03
501.923	17092.18
502.126	17423.95
502.329	17581.64
502.532	17679.94
502.735	17940.04
502.938	17966.66
503.141	18447.93
503.344	18673.21
503.547	18554.43
503.75	18929.2
503.953	19217.97
504.156	19232.3
504.359	19521.07
504.562	19695.14
504.765	19826.21
504.968	20495.9
505.17	20289.06
505.373	20323.87
505.576	20778.52
505.779	21063.19
505.982	21149.2
506.185	21593.61
506.387	21325.33
506.59	21499.41
506.793	22257.15
506.996	22017.54
507.198	22707.71
507.401	22574.59
507.604	22801.91
507.807	23168.5
508.009	23455.22
508.212	23404.02
508.415	23444.98
508.617	24129
508.82	24282.59
509.022	24110.57
509.225	24806.87
509.428	25052.63
509.63	24989.14
509.833	25296.34
510.035	25753.04
510.238	25910.73
510.44	26054.09
510.643	26303.94
510.845	26709.44
511.048	26518.98
511.25	26842.56
511.453	27293.11
511.655	27973.03
511.858	27690.41
512.06	28044.71
512.262	28331.43
512.465	28308.9
512.667	28464.55
512.87	28917.15
513.072	28945.82
513.274	29566.35
513.477	29908.36
513.679	30055.82
513.881	30428.55
514.084	30516.61
514.286	30489.99
514.488	31458.68
514.69	31421.81
514.893	31939.95
515.095	31526.26
515.297	32161.13
515.499	32126.32
515.701	32558.44
515.904	33015.13
516.106	33064.28
516.308	33551.7
516.51	33949.01
516.712	34170.19
516.914	34049.36
517.116	34813.25
517.318	34962.75
517.52	35194.17
517.722	35566.9
517.925	35839.28
518.127	36203.82
518.329	36338.99
518.531	36105.52
518.733	37299.48
518.935	37279
519.136	37008.67
519.338	37690.65
519.54	37858.58
519.742	38475.02
519.944	38223.12
520.146	38814.98
520.348	39312.64
520.55	39275.77
520.752	39247.1
520.954	40088.82
521.155	39836.92
521.357	40353.01
521.559	40643.82
521.761	41420
521.963	40858.85
522.164	41227.49
522.366	41221.34
522.568	42022.1
522.77	42261.71
522.971	42732.75
523.173	41907.41
523.375	42759.37
523.576	42325.2
523.778	42802.38
523.98	43355.33
524.181	43578.56
524.383	43594.94
524.584	43615.42
524.786	44184.76
524.988	43822.26
525.189	44766.38
525.391	44645.55
525.592	44700.84
525.794	44858.54
525.995	45075.62
526.197	45309.09
526.398	45368.48
526.6	45589.66
526.801	45870.23
527.003	45728.92
527.204	46140.57
527.406	46511.25
527.607	46400.66
527.808	46761.1
528.01	46322.83
528.211	46367.89
528.412	47469.7
528.614	47025.29
528.815	46830.73
529.016	47553.66
529.218	47109.25
529.419	47305.86
529.62	47283.33
529.822	47174.79
530.023	47371.39
530.224	47750.27
530.425	47780.99
530.626	47185.03
530.828	47244.42
531.029	48133.24
531.23	47365.25
531.431	47553.66
531.632	47512.7
531.833	48120.95
532.035	48049.27
532.236	47838.33
532.437	48247.93
532.638	47715.45
532.839	48442.48
533.04	48520.3
533.241	47934.59
533.442	48790.64
533.643	48292.98
533.844	48323.7
534.045	48247.93
534.246	48157.81
534.447	48815.21
534.648	48239.73
534.849	48381.04
535.05	48123
535.251	48323.7
535.451	48368.76
535.652	48432.24
535.853	48616.56
536.054	48518.26
536.255	48755.82
536.456	47987.83
536.657	48905.32
536.857	48426.1
537.058	47975.55
537.259	48663.66
537.46	48551.02
537.66	48383.09
537.861	48782.44
538.062	48104.57
538.263	48841.84
538.463	48082.04
538.664	48014.46
538.865	48749.68
539.065	48847.98
539.266	48125.05
539.466	48747.63
539.667	47840.38
539.868	49339.49
540.068	48368.76
540.269	48444.53
540.469	49175.65
540.67	48356.47
540.87	48249.97
541.071	48501.87
541.271	48536.69
541.472	48536.69
541.672	47932.54
541.873	47946.87
542.073	47727.74
542.274	48581.74
542.474	48118.9
542.675	47881.34
542.875	48264.31
543.075	48272.5
543.276	47719.55
543.476	48327.8
543.676	48082.04
543.877	48094.33
544.077	48194.68
544.277	48419.95
544.478	48166.01
544.678	48092.28
544.878	48100.47
545.078	47946.87
545.279	47854.72
545.479	48174.2
545.679	48088.18
545.879	47920.25
546.079	47889.53
546.28	47895.67
546.48	47352.96
546.68	48321.65
546.88	47875.19
547.08	48034.94
547.28	47637.63
547.48	47629.44
547.68	48131.19
547.88	47832.19
548.081	48114.81
548.281	48026.74
548.481	47463.55
548.681	48067.7
548.881	47762.56
549.081	47592.58
549.28	47479.94
549.48	47905.91
549.68	47922.3
549.88	48215.16
550.08	47639.68
550.28	47668.35
550.48	47891.58
550.68	47955.07
550.88	47266.95
551.08	47670.4
551.279	47393.92
551.479	46947.46
551.679	47535.23
551.879	47393.92
552.079	47774.84
552.278	47637.63
552.478	47336.58
552.678	47479.94
552.878	47961.21
553.077	47172.74
553.277	47395.97
553.477	47936.63
553.676	47547.52
553.876	47002.76
554.076	47475.84
554.275	47037.58
554.475	46576.78
554.674	46935.18
554.874	47373.44
555.074	47084.68
555.273	46918.79
555.473	47088.77
555.672	46965.9
555.872	46976.14
556.071	47111.3
556.271	46947.46
556.47	46396.56
556.67	46433.42
556.869	46722.19
557.068	46892.17
557.268	46644.37
557.467	46587.02
557.667	46668.94
557.866	46937.23
558.065	46466.19
558.265	46738.57
558.464	45903
558.663	47084.68
558.863	45857.95
559.062	46765.2
559.261	46007.45
559.461	46888.07
559.66	45634.72
559.859	46378.13
560.058	45890.71
560.258	46103.7
560.457	45634.72
560.656	45999.26
560.855	45509.79
561.054	46212.24
561.253	45542.56
561.453	46003.35
561.652	45638.81
561.851	45935.77
562.05	45466.78
562.249	45225.12
562.448	45636.76
562.647	45534.37
562.846	45569.18
563.045	45272.23
563.244	44903.59
563.443	45597.85
563.642	45235.36
563.841	45403.3
564.04	44805.29
564.239	45532.32
564.438	44823.72
564.637	44862.63
564.836	45073.57
565.035	44391.6
565.234	44684.46
565.432	44633.26
565.631	44397.74
565.83	44801.19
566.029	44319.92
566.228	44244.15
566.427	44266.67
566.625	44018.87
566.824	44096.69
567.023	43801.78
567.222	43670.71
567.42	43699.39
567.619	43635.9
567.818	44012.73
568.016	43678.91
568.215	43990.2
568.414	43467.97
568.612	44111.03
568.811	43596.99
569.01	43490.49
569.208	42949.83
569.407	43650.24
569.605	42742.99
569.804	43205.83
570.002	42226.9
570.201	42745.03
570.4	42751.18
570.598	42575.05
570.797	42472.65
570.995	42480.85
571.193	42171.6
571.392	42742.99
571.59	42120.4
571.789	42235.09
571.987	42056.92
572.186	41891.03
572.384	42044.63
572.582	41901.27
572.781	41602.27
572.979	41606.36
573.177	41413.85
573.376	41688.28
573.574	41487.58
573.772	41489.63
573.971	41385.18
574.169	40948.96
574.367	40799.46
574.565	41071.84
574.763	40828.13
574.962	40813.8
575.16	40670.44
575.358	41082.08
575.556	39728.38
575.754	40877.29
575.952	40174.83
576.151	40809.7
576.349	40086.77
576.547	40369.39
576.745	40172.78
576.943	40195.31
577.141	40103.15
577.339	40051.95
577.537	39830.77
577.735	39396.6
577.933	39324.93
578.131	39568.63
578.329	39425.28
578.527	39490.81
578.725	39064.83
578.923	39161.09
579.121	39173.38
579.319	39036.16
579.516	39339.26
579.714	38790.41
579.912	38651.14
580.11	38509.83
580.308	38567.18
580.506	38456.59
580.704	37975.31
580.901	38565.13
581.099	38616.33
581.297	37911.83
581.495	38083.86
581.692	38081.81
581.89	37936.4
582.088	37901.59
582.285	37725.46
582.483	37997.84
582.681	37436.7
582.878	37459.23
583.076	37291.29
583.274	37375.26
583.471	36717.86
583.669	37162.27
583.866	36693.29
584.064	37082.4
584.262	36812.07
584.459	37289.24
584.657	36826.4
584.854	36736.29
585.052	35767.6
585.249	36644.13
585.447	36433.19
585.644	36029.74
585.841	36029.74
586.039	36461.86
586.236	35765.56
586.434	36246.83
586.631	35704.12
586.828	35560.76
587.026	35640.63
587.223	35863.86
587.42	35206.46
587.618	35312.95
587.815	35087.68
588.012	34727.24
588.21	35149.12
588.407	35337.53
588.604	34598.21
588.801	34026.83
588.999	34725.19
589.196	34383.18
589.393	34409.8
589.59	34495.81
589.787	34504.01
589.984	34237.77
590.182	34141.52
590.379	34032.97
590.576	33977.68
590.773	33768.79
590.97	33934.67
591.167	33504.6
591.364	33115.48
591.561	33936.72
591.758	33013.09
591.955	33305.95
592.152	33578.32
592.349	32996.7
592.546	33381.72
592.743	33150.3
592.94	32351.59
593.137	33105.24
593.334	32914.78
593.531	32216.43
593.727	32736.61
593.924	32755.04
594.121	32533.86
594.318	32277.86
594.515	31858.03
594.712	32202.09
594.908	32370.02
595.105	31849.84
595.302	31655.28
595.499	32142.7
595.696	31741.3
595.892	31249.78
596.089	31630.71
596.286	31481.2
596.482	31419.77
596.679	31346.04
596.876	31090.04
597.072	31362.42
597.269	31085.95
597.466	30547.33
597.662	30735.74
597.859	30961.02
598.055	30633.35
598.252	30434.69
598.448	30295.43
598.645	30270.86
598.841	30449.03
599.038	30322.05
599.234	30373.25
599.431	29986.19
599.627	29564.31
599.824	30346.63
600.02	29871.5
600.217	29730.19
600.413	29312.41
600.609	29416.85
600.806	29306.26
601.002	29435.28
601.198	29226.39
601.395	29195.67
601.591	29097.37
601.787	29009.31
601.984	29275.54
602.18	28892.57
602.376	28722.59
602.572	28638.62
602.769	28622.24
602.965	28607.9
603.161	28554.66
603.357	28575.14
603.553	28347.81
603.75	28304.81
603.946	28034.47
604.142	28298.66
604.338	27975.08
604.534	28100.01
604.73	27530.67
604.926	27749.81
605.122	27874.73
605.318	27735.47
605.514	27676.08
605.71	27301.3
605.906	27506.1
606.102	27528.63
606.298	27411.89
606.494	27323.83
606.69	27397.56
606.886	27270.58
607.082	27059.64
607.278	27362.74
607.474	26564.03
607.67	26963.39
607.866	26598.85
608.062	27033.02
608.257	26523.07
608.453	26666.43
608.649	26809.79
608.845	26238.4
609.041	26523.07
609.236	26525.12
609.432	26240.45
609.628	26471.87
609.824	26258.88
610.019	25966.03
610.215	25929.16
610.411	26387.91
610.606	25861.58
610.802	25910.73
610.998	26000.84
611.193	25920.97
611.389	25873.87
611.584	25961.93
611.78	25693.65
611.976	25707.98
612.171	25703.89
612.367	25664.97
612.562	25626.06
612.758	24983
612.953	25212.37
613.149	25568.72
613.344	25216.47
613.539	25519.57
613.735	25239
613.93	25451.98
614.126	25167.32
614.321	25351.63
614.517	25150.93
614.712	25308.63
614.907	24896.99
615.103	25251.28
615.298	24716.76
615.493	24919.51
615.688	24507.87
615.884	25099.73
616.079	24413.66
616.274	24585.69
616.47	24567.26
616.665	24589.79
616.86	24432.1
617.055	24393.19
617.25	24241.64
617.445	24589.79
617.641	23721.45
617.836	24249.83
618.031	23903.72
618.226	23936.49
618.421	23909.86
618.616	24270.31
618.811	23608.81
619.006	24122.85
619.201	23252.47
619.396	23932.39
619.591	23309.81
619.786	23670.25
619.981	23174.64
620.176	23170.55
620.371	23211.51
620.566	23250.42
620.761	23123.44
620.956	23066.1
621.151	22570.49
621.346	22808.06
621.541	22224.39
621.735	22728.19
621.93	22185.47
622.125	22314.5
622.32	21870.09
622.515	22242.82
622.709	22263.3
622.904	21861.9
623.099	21581.32
623.294	21888.52
623.488	21216.79
623.683	21310.99
623.878	20954.65
624.072	21302.8
624.267	21141.01
624.462	21102.1
624.656	20887.06
624.851	20885.01
625.046	20815.38
625.24	20715.03
625.435	20325.92
625.629	20346.4
625.824	20145.7
626.018	19967.52
626.213	19885.61
626.407	20074.02
626.602	19670.57
626.796	19867.17
626.991	19723.82
627.185	19570.22
627.38	19187.25
627.574	19367.47
627.768	19097.14
627.963	18908.72
628.157	18658.87
628.352	19062.32
628.546	18447.93
628.74	18785.85
628.935	18585.15
629.129	18513.47
629.323	18339.39
629.517	18492.99
629.712	18118.21
629.906	18130.5
630.1	17657.42
630.294	18241.09
630.489	17747.53
630.683	17813.06
630.877	17614.41
631.071	17460.81
631.265	17509.96
631.459	17409.61
631.653	17301.07
631.848	17098.32
632.042	16954.96
632.236	17114.7
632.43	16862.8
632.624	16954.96
632.818	16787.03
633.012	16612.95
633.206	16541.27
633.4	16535.13
633.594	16346.72
633.788	16283.23
633.982	16361.05
634.176	15967.84
634.369	16068.19
634.563	16049.76
634.757	15971.94
634.951	15906.4
635.145	15552.1
635.339	15818.34
635.533	15455.85
635.726	15685.22
635.92	15175.28
636.114	15263.34
636.308	15517.29
636.501	15236.72
636.695	15402.6
636.889	15005.3
637.083	14913.14
637.276	14698.1
637.47	14775.92
637.664	14681.72
637.857	14993.01
638.051	14558.84
638.244	14511.74
638.438	14370.43
638.632	14524.02
638.825	14331.51
639.019	14096
639.212	14237.31
639.406	14116.48
639.599	14151.29
639.793	14012.03
639.986	13592.2
640.18	13878.91
640.373	13827.71
640.567	13627.01
640.76	13532.81
640.954	13442.7
641.147	13571.72
641.34	13207.18
641.534	13428.36
641.727	13328.01
641.92	13313.67
642.114	13198.99
642.307	13182.6
642.5	13008.53
642.694	12908.18
642.887	12603.03
643.08	12844.69
643.273	12820.11
643.467	12635.8
643.66	12387.99
643.853	12439.19
644.046	12240.54
644.239	12256.92
644.432	12478.1
644.626	12320.41
644.819	12068.51
645.012	12140.19
645.205	12125.85
645.398	12037.79
645.591	11955.87
645.784	11773.6
645.977	11765.41
646.17	11712.16
646.363	11691.68
646.556	11734.69
646.749	11665.06
646.942	11736.74
647.135	11437.73
647.328	11351.72
647.521	11470.5
647.714	10919.6
647.907	11224.75
648.099	11091.63
648.292	11196.07
648.485	11200.17
648.678	10833.58
648.871	10911.41
649.064	10890.93
649.256	10925.74
649.449	10565.3
649.642	10606.26
649.835	10573.49
650.027	10567.35
650.22	10432.18
650.413	10432.18
650.605	10137.27
650.798	10471.09
650.991	10102.46
651.183	10194.62
651.376	10067.64
651.568	10004.16
651.761	10184.38
651.954	9940.67
652.146	9889.47
652.339	9948.86
652.531	9957.05
652.724	9838.27
652.916	9756.35
653.109	9909.95
653.301	9758.4
653.494	9717.44
653.686	9434.82
653.879	9645.76
654.071	9449.16
654.263	9301.7
654.456	9393.86
654.648	9502.4
654.84	9326.28
655.033	9264.84
655.225	9105.1
655.417	9246.41
655.61	9197.26
655.802	8990.41
655.994	8845.01
656.186	8994.51
656.379	8898.25
656.571	8699.6
656.763	8916.69
656.955	8744.66
657.148	8906.45
657.34	8742.61
657.532	8648.4
657.724	8742.61
657.916	8586.96
658.108	8758.99
658.3	8421.08
658.492	8564.43
658.684	8402.65
658.876	8443.6
659.068	8201.94
659.26	8349.4
659.452	8081.11
659.644	8218.33
659.836	8167.13
660.028	8165.08
660.22	7907.04
660.412	8021.72
660.604	8031.96
660.796	7935.71
660.988	8087.26
661.18	7818.97
661.372	7767.77
661.563	7972.57
661.755	7458.53
661.947	7644.9
662.139	7597.79
662.331	7571.17
662.522	7517.92
662.714	7495.39
662.906	7452.39
663.097	7329.51
663.289	7395.04
663.481	7341.8
663.673	7427.81
663.864	7210.73
664.056	7118.57
664.247	7216.87
664.439	7147.24
664.631	7137
664.822	7122.66
665.014	7208.68
665.205	6995.69
665.397	6784.75
665.588	7085.8
665.78	6833.9
665.971	6786.8
666.163	6926.06
666.354	6891.24
666.546	6788.85
666.737	6645.49
666.929	6739.69
667.12	6530.8
667.311	6702.83
667.503	6510.32
667.694	6682.35
667.885	6489.84
668.077	6584.05
668.268	6393.59
668.459	6407.92
668.651	6510.32
668.842	6465.27
669.033	6432.5
669.224	6356.72
669.416	6409.97
669.607	6147.83
669.798	6143.74
669.989	6350.58
670.18	6192.89
670.371	6213.37
670.563	5996.28
670.754	6139.64
670.945	6018.81
671.136	6047.48
671.327	6008.57
671.518	6090.49
671.709	5873.4
671.9	5914.36
672.091	5809.92
672.282	5891.84
672.473	5754.62
672.664	5965.56
672.855	5707.52
673.046	5793.53
673.237	5752.57
673.428	5723.9
673.619	5650.18
673.809	5629.7
674	5601.02
674.191	5711.61
674.382	5574.4
674.573	5490.43
674.764	5459.71
674.954	5523.2
675.145	5523.2
675.336	5467.91
675.527	5359.36
675.717	5375.75
675.908	5445.38
676.099	5428.99
676.289	5199.62
676.48	5269.25
676.671	5334.79
676.861	5222.15
677.052	5121.8
677.243	5203.72
677.433	5115.66
677.624	5164.81
677.814	5138.18
678.005	5189.38
678.195	5123.85
678.386	5144.33
678.576	5138.18
678.767	5142.28
678.957	4906.76
679.148	5052.17
679.338	4943.63
679.529	5050.12
679.719	4894.47
679.909	4976.39
680.1	4978.44
680.29	4855.56
680.481	4871.95
680.671	4921.1
680.861	4765.45
681.052	4917
681.242	4921.1
681.432	4945.67
681.622	4835.08
681.813	4730.64
682.003	4851.47
682.193	4724.49
682.383	4681.49
682.573	4699.92
682.764	4851.47
682.954	4783.88
683.144	4724.49
683.334	4544.27
683.524	4828.94
683.714	4482.83
683.904	4675.34
684.094	4577.04
684.284	4517.65
684.474	4646.67
684.664	4531.98
684.854	4509.46
685.044	4638.48
685.234	4466.45
685.424	4384.53
685.614	4419.35
685.804	4384.53
685.994	4558.61
686.184	4540.18
686.374	4402.96
686.564	4392.72
686.753	4364.05
686.943	4230.93
687.133	4278.04
687.323	4216.6
687.513	4290.32
687.702	4269.84
687.892	4114.2
688.082	4114.2
688.272	4288.28
688.461	4153.11
688.651	4216.6
688.841	4083.48
689.03	4110.1
689.22	4046.62
689.41	4015.9
689.599	4044.57
689.789	4040.47
689.979	4048.66
690.168	4017.94
690.358	3974.94
690.547	3766.04
690.737	3835.67
690.926	3860.25
691.116	3876.63
691.305	4081.43
691.495	3895.07
691.684	3954.46
691.874	3884.83
692.063	3809.05
692.252	3747.61
692.442	3733.28
692.631	3761.95
692.82	3813.15
693.01	3686.17
693.199	3614.49
693.388	3712.8
693.578	3796.76
693.767	3743.52
693.956	3692.32
694.146	3710.75
694.335	3594.01
694.524	3495.71
694.713	3620.64
694.902	3632.93
695.092	3594.01
695.281	3624.73
695.47	3514.14
695.659	3532.58
695.848	3440.42
696.037	3534.62
696.226	3415.84
696.415	3417.89
696.604	3450.66
696.793	3499.81
696.982	3458.85
697.171	3508
697.36	3311.39
697.549	3358.5
697.738	3409.7
697.927	3360.55
698.116	3450.66
698.305	3245.86
698.494	3485.47
698.683	3225.38
698.872	3297.06
699.061	3297.06
699.25	3331.87
699.438	3163.94
699.627	3184.42
699.816	3323.68
700.005	3280.68
700.193	3198.76
700.382	3290.92
700.571	3313.44
700.76	3278.63
700.948	3319.59
701.137	3155.75
701.326	3184.42
701.514	3018.54
701.703	3309.35
701.892	3116.84
702.08	3215.14
702.269	3122.98
702.457	3059.49
702.646	3024.68
702.834	3127.08
703.023	3120.93
703.212	3114.79
703.4	3206.95
703.589	2979.62
703.777	3104.55
703.965	3016.49
704.154	3006.25
704.342	3102.5
704.531	3153.7
704.719	3022.63
704.907	3073.83
705.096	2961.19
705.284	2959.14
705.472	3008.3
705.661	2985.77
705.849	2971.43
706.037	3002.15
706.226	3018.54
706.414	3008.3
706.602	2991.91
706.79	2975.53
706.979	2998.06
707.167	2926.38
707.355	2856.75
707.543	3020.58
707.731	2942.76
707.919	2963.24
708.107	2930.47
708.296	2918.18
708.484	2873.13
708.672	2955.05
708.86	2950.95
709.048	3004.2
709.236	2903.85
709.424	2993.96
709.612	2905.9
709.8	2909.99
709.988	2957.1
710.176	2823.98
710.364	2844.46
710.551	2789.16
710.739	2813.74
710.927	2793.26
711.115	2811.69
711.303	2748.2
711.491	2856.75
711.679	2737.96
711.866	2789.16
712.054	2770.73
712.242	2803.5
712.43	2737.96
712.617	2772.78
712.805	2807.59
712.993	2680.62
713.181	2674.48
713.368	2742.06
713.556	2787.11
713.744	2668.33
713.931	2717.48
714.119	2750.25
714.306	2842.41
714.494	2615.09
714.682	2705.2
714.869	2582.32
715.057	2684.72
715.244	2639.66
715.432	2592.56
715.619	2668.33
715.807	2692.91
715.994	2654
716.182	2692.91
716.369	2649.9
716.556	2610.99
716.744	2643.76
716.931	2498.35
717.119	2617.13
717.306	2576.17
717.493	2737.96
717.681	2551.6
717.868	2631.47
718.055	2420.53
718.242	2557.74
718.43	2574.13
718.617	2545.45
718.804	2539.31
718.991	2549.55
719.179	2516.78
719.366	2498.35
719.553	2502.45
719.74	2520.88
719.927	2520.88
720.114	2434.86
720.301	2529.07
720.488	2426.67
720.676	2522.93
720.863	2488.11
721.05	2490.16
721.237	2510.64
721.424	2555.69
721.611	2508.59
721.798	2320.18
721.985	2340.66
722.172	2387.76
722.358	2320.18
722.545	2373.43
722.732	2406.19
722.919	2469.68
723.106	2443.06
723.293	2359.09
723.48	2424.62
723.667	2422.58
723.853	2271.03
724.04	2453.3
724.227	2553.65
724.414	2324.27
724.6	2418.48
724.787	2393.9
724.974	2406.19
725.161	2320.18
725.347	2295.6
725.534	2291.51
725.72	2336.56
725.907	2352.95
726.094	2357.04
726.28	2373.43
726.467	2322.23
726.653	2299.7
726.84	2318.13
727.027	2436.91
727.213	2314.03
727.4	2305.84
727.586	2324.27
727.773	2344.75
727.959	2383.66
728.145	2250.55
728.332	2293.55
728.518	2316.08
728.705	2211.64
728.891	2262.83
729.077	2205.49
729.264	2258.74
729.45	2248.5
729.636	2322.23
729.823	2199.35
730.009	2297.65
730.195	2232.12
730.382	2205.49
730.568	2311.99
730.754	2131.76
730.94	2236.21
731.126	2236.21
731.313	2109.24
731.499	2205.49
731.685	2258.74
731.871	2258.74
732.057	2303.79
732.243	2283.31
732.429	2258.74
732.615	2205.49
732.801	2248.5
732.987	2127.67
733.173	2230.07
733.359	2189.11
733.545	2271.03
733.731	2111.29
733.917	2115.38
734.103	2148.15
734.289	2094.9
734.475	2037.56
734.661	2119.48
734.847	2154.29
735.033	2158.39
735.219	2117.43
735.404	2092.85
735.59	2135.86
735.776	2025.27
735.962	2099
736.148	2066.23
736.333	2066.23
736.519	1967.93
736.705	2049.85
736.89	2115.38
737.076	2039.61
737.262	2074.42
737.447	2066.23
737.633	2080.57
737.819	1994.55
738.004	2191.16
738.19	2051.89
738.375	2058.04
738.561	1980.22
738.747	1988.41
738.932	1996.6
739.118	2029.37
739.303	2043.7
739.489	2053.94
739.674	1947.45
739.859	2049.85
740.045	1886.01
740.23	1998.65
740.416	1951.54
740.601	1994.55
740.786	1961.78
740.972	1976.12
741.157	1877.82
741.342	1886.01
741.528	1853.24
741.713	1953.59
741.898	1974.07
742.084	1926.97
742.269	1804.09
742.454	1853.24
742.639	1847.1
742.824	1814.33
743.01	1918.78
743.195	1857.34
743.38	1836.86
743.565	1851.19
743.75	1709.88
743.935	1765.18
744.12	1767.23
744.305	1779.51
744.49	1746.75
744.675	1875.77
744.86	1693.5
745.045	1812.28
745.23	1724.22
745.415	1675.07
745.6	1789.75
745.785	1746.75
745.97	1701.69
746.155	1765.18
746.34	1746.75
746.525	1722.17
746.71	1544
746.895	1644.35
747.079	1609.53
747.264	1718.08
747.449	1564.48
747.634	1703.74
747.819	1716.03
748.003	1566.53
748.188	1632.06
748.373	1681.21
748.557	1544
748.742	1558.33
748.927	1513.28
749.111	1500.99
749.296	1447.74
749.481	1541.95
749.665	1605.44
749.85	1398.59
750.034	1574.72
750.219	1384.26
750.404	1460.03
750.588	1494.85
750.773	1429.31
750.957	1517.37
751.141	1421.12
751.326	1312.58
751.51	1406.78
751.695	1361.73
751.879	1337.15
752.064	1464.13
752.248	1386.3
752.432	1408.83
752.617	1216.32
752.801	1355.58
752.985	1400.64
753.17	1365.82
753.354	1378.11
753.538	1408.83
753.722	1148.74
753.907	1259.33
754.091	1306.43
754.275	1218.37
754.459	1341.25
754.643	1255.23
754.828	1281.86
755.012	1204.03
755.196	1148.74
755.38	1216.32
755.564	1165.12
755.748	1163.08
755.932	1142.6
756.116	1181.51
756.3	1103.68
756.484	1132.36
756.668	1255.23
756.852	1085.25
757.036	1134.4
757.22	1191.75
757.404	1087.3
757.588	1054.53
757.772	1130.31
757.956	1115.97
758.14	1081.16
758.323	1083.2
758.507	1085.25
758.691	1103.68
758.875	1097.54
759.059	1148.74
759.242	1099.59
759.426	1021.77
759.61	984.9
759.794	1060.68
759.977	1072.96
760.161	1091.4
760.345	970.57
760.528	1013.57
760.712	1032.01
760.895	945.99
761.079	1097.54
761.263	1003.33
761.446	962.37
761.63	945.99
761.813	878.41
761.997	927.56
762.18	945.99
762.364	1021.77
762.547	907.08
762.731	1001.29
762.914	999.24
763.098	915.27
763.281	911.18
763.464	962.37
763.648	919.37
763.831	960.33
764.015	849.74
764.198	886.6
764.381	878.41
764.564	917.32
764.748	872.26
764.931	970.57
765.114	970.57
765.297	950.09
765.481	864.07
765.664	911.18
765.847	929.61
766.03	995.14
766.213	862.02
766.397	771.91
766.58	905.03
766.763	907.08
766.946	814.92
767.129	855.88
767.312	837.45
767.495	864.07
767.678	819.02
767.861	905.03
768.044	755.53
768.227	849.74
768.41	796.49
768.593	800.59
768.776	862.02
768.959	845.64
769.142	814.92
769.324	829.26
769.507	849.74
769.69	782.15
769.873	825.16
770.056	780.11
770.239	681.8
770.421	771.91
770.604	786.25
770.787	847.69
770.97	788.3
771.152	821.06
771.335	759.63
771.518	747.34
771.7	790.35
771.883	755.53
772.066	812.87
772.248	730.95
772.431	722.76
772.613	702.28
772.796	644.94
772.978	722.76
773.161	730.95
773.343	745.29
773.526	739.15
773.708	657.23
773.891	704.33
774.073	722.76
774.256	700.23
774.438	728.91
774.621	700.23
774.803	739.15
774.985	694.09
775.168	681.8
775.35	620.36
775.532	632.65
775.715	741.19
775.897	712.52
776.079	640.84
776.261	610.12
776.444	661.32
776.626	599.88
776.808	585.55
776.99	560.97
777.173	608.08
777.355	612.17
777.537	630.6
777.719	591.69
777.901	556.88
778.083	653.13
778.265	624.46
778.447	649.04
778.629	507.73
778.811	583.5
778.993	642.89
779.175	585.55
779.357	558.92
779.539	534.35
779.721	491.34
779.903	509.77
780.085	462.67
780.267	552.78
780.449	513.87
780.631	575.31
780.812	558.92
780.994	509.77
781.176	517.97
781.358	485.2
781.54	540.49
781.721	517.97
781.903	524.11
782.085	534.35
782.267	517.97
782.448	503.63
782.63	419.66
782.812	468.81
782.993	501.58
783.175	444.24
783.357	472.91
783.538	407.38
783.72	419.66
783.901	495.44
784.083	495.44
784.264	395.09
784.446	427.85
784.627	464.72
784.809	419.66
784.99	429.9
785.172	458.57
785.353	429.9
785.535	448.33
785.716	382.8
785.897	374.61
786.079	434
786.26	429.9
786.441	397.14
786.623	370.51
786.804	380.75
786.985	350.03
787.167	399.18
787.348	337.74
787.529	337.74
787.71	378.7
787.891	444.24
788.073	339.79
788.254	354.13
788.435	335.7
788.616	364.37
788.797	444.24
788.978	450.38
789.159	302.93
789.34	411.47
789.522	356.18
789.703	339.79
789.884	386.9
790.065	401.23
790.246	249.68
790.427	358.22
790.607	399.18
790.788	386.9
790.969	309.07
791.15	347.98
791.331	309.07
791.512	280.4
791.693	282.45
791.874	333.65
792.054	323.41
792.235	372.56
792.416	272.21
792.597	257.87
792.778	300.88
792.958	333.65
793.139	288.59
793.32	243.54
793.5	251.73
793.681	386.9
793.862	278.35
794.042	296.78
794.223	251.73
794.404	288.59
794.584	311.12
794.765	214.87
794.945	182.1
795.126	362.32
795.306	288.59
795.487	278.35
795.667	290.64
795.848	235.35
796.028	225.11
796.209	255.83
796.389	317.26
796.57	264.02
796.75	284.5
796.93	225.11
797.111	218.96
797.291	190.29
797.471	315.22
797.652	229.2
797.832	251.73
798.012	286.54
798.192	173.91
798.373	210.77
798.553	253.78
798.733	302.93
798.913	206.67
799.093	173.91
799.274	231.25
799.454	280.4
799.634	218.96
799.814	241.49
799.994	231.25
800.174	161.62
800.354	223.06
800.534	247.63
800.714	194.39
800.894	235.35
801.074	198.48
801.254	249.68
801.434	221.01
801.614	294.74
801.794	184.15
801.974	771.91
802.154	175.95
802.334	264.02
802.514	192.34
802.693	161.62
802.873	182.1
803.053	329.55
803.233	198.48
803.413	212.82
803.592	169.81
803.772	204.63
803.952	204.63
804.131	173.91
804.311	91.99
804.491	153.43
804.67	192.34
804.85	124.76
805.03	171.86
805.209	225.11
805.389	161.62
805.568	190.29
805.748	102.23
805.928	212.82
806.107	182.1
806.287	225.11
806.466	206.67
806.646	247.63
806.825	71.51
807.004	190.29
807.184	178
807.363	165.71
807.543	206.67
807.722	182.1
807.901	214.87
808.081	165.71
808.26	98.13
808.439	124.76
808.619	96.08
808.798	153.43
808.977	171.86
809.156	98.13
809.336	149.33
809.515	188.24
809.694	149.33
809.873	132.95
810.052	147.28
810.231	186.19
810.411	186.19
810.59	169.81
810.769	169.81
810.948	112.47
811.127	118.61
811.306	135
811.485	71.51
811.664	237.39
811.843	153.43
812.022	118.61
812.201	116.56
812.38	116.56
812.559	106.32
812.737	116.56
812.916	108.37
813.095	87.89
813.274	110.42
813.453	120.66
813.632	182.1
813.811	155.47
813.989	132.95
814.168	132.95
814.347	149.33
814.526	143.19
814.704	126.8
814.883	149.33
815.062	116.56
815.24	149.33
815.419	169.81
815.598	186.19
815.776	83.8
815.955	126.8
816.133	94.04
816.312	110.42
816.49	151.38
816.669	75.6
816.847	137.04
817.026	223.06
817.204	79.7
817.383	192.34
817.561	46.93
817.74	171.86
817.918	79.7
818.097	87.89
818.275	186.19
818.453	180.05
818.632	145.24
818.81	55.12
818.988	91.99
819.167	96.08
819.345	75.6
819.523	75.6
819.701	167.76
819.879	141.14
820.058	163.67
820.236	69.46
820.414	132.95
820.592	42.84
820.77	137.04
820.948	-0.17
821.127	83.8
821.305	94.04
821.483	61.27
821.661	145.24
821.839	173.91
822.017	91.99
822.195	71.51
822.373	126.8
822.551	38.74
822.729	182.1
822.907	132.95
823.085	155.47
823.262	169.81
823.44	26.45
823.618	51.03
823.796	91.99
823.974	141.14
824.152	91.99
824.329	178
824.507	26.45
824.685	163.67
824.863	149.33
825.04	51.03
825.218	59.22
825.396	26.45
825.574	100.18
825.751	20.31
825.929	85.84
826.107	59.22
826.284	143.19
826.462	67.41
826.639	36.69
826.817	98.13
826.994	135
827.172	42.84
827.349	59.22
827.527	102.23
827.704	108.37
827.882	61.27
828.059	22.36
828.237	53.08
828.414	118.61
828.591	40.79
828.769	44.88
828.946	59.22
829.124	75.6
829.301	145.24
829.478	137.04
829.655	73.56
829.833	42.84
830.01	94.04
830.187	102.23
830.364	42.84
830.542	79.7
830.719	128.85
830.896	53.08
831.073	67.41
831.25	126.8
831.427	112.47
831.604	57.17
831.782	8.02
831.959	175.95
832.136	-20.65
832.313	75.6
832.49	67.41
832.667	42.84
832.844	110.42
833.021	67.41
833.198	77.65
833.374	163.67
833.551	65.36
833.728	132.95
833.905	79.7
834.082	75.6
834.259	83.8
834.436	116.56
834.612	44.88
834.789	55.12
834.966	55.12
835.143	71.51
835.319	34.64
835.496	55.12
835.673	65.36
835.85	108.37
836.026	71.51
836.203	51.03
836.38	42.84
836.556	59.22
836.733	22.36
836.909	71.51
837.086	38.74
837.262	110.42
837.439	102.23
837.616	75.6
837.792	91.99
837.968	-10.41
838.145	-30.89
838.321	44.88
838.498	89.94
838.674	63.32
838.851	67.41
839.027	44.88
839.203	-12.46
839.38	77.65
839.556	5.97
839.732	26.45
839.909	12.12
840.085	75.6
840.261	100.18
840.437	116.56
840.614	26.45
840.79	77.65
840.966	46.93
841.142	30.55
841.318	53.08
841.494	32.6
841.671	-6.31
841.847	61.27
842.023	-12.46
842.199	141.14
842.375	48.98
842.551	26.45
842.727	42.84
842.903	24.4
843.079	53.08
843.255	-0.17
843.431	30.55
843.607	51.03
843.783	67.41
843.959	-2.22
844.134	18.26
844.31	122.71
844.486	36.69
844.662	57.17
844.838	61.27
845.013	100.18
845.189	3.93
845.365	63.32
845.541	12.12
845.716	67.41
845.892	71.51
846.068	10.07
846.244	-18.6
846.419	16.21
846.595	10.07
846.77	5.97
846.946	100.18
847.122	53.08
847.297	22.36
847.473	55.12
847.648	51.03
847.824	85.84
847.999	-69.8
848.175	28.5
848.35	1.88
848.526	96.08
848.701	40.79
848.876	5.97
849.052	5.97
849.227	28.5
849.403	-20.65
849.578	-22.7
849.753	-10.41
849.929	104.28
850.104	77.65
850.279	69.46
850.454	10.07
850.63	20.31
850.805	1.88
850.98	10.07
851.155	59.22
851.33	18.26
851.505	-24.75
851.681	83.8
851.856	-37.03
852.031	32.6
852.206	5.97
852.381	42.84
852.556	-4.27
852.731	128.85
852.906	67.41
853.081	48.98
853.256	53.08
853.431	26.45
853.606	20.31
853.781	20.31
853.956	10.07
854.131	-0.17
854.305	-22.7
854.48	28.5
854.655	26.45
854.83	-12.46
855.005	61.27
855.18	100.18
855.354	3.93
855.529	10.07
855.704	-2.22
855.879	104.28
856.053	32.6
856.228	12.12
856.403	-55.47
856.577	71.51
856.752	-4.27
856.926	10.07
857.101	-37.03
857.276	-6.31
857.45	-28.84
857.625	106.32
857.799	-12.46
857.974	44.88
858.148	5.97
858.323	61.27
858.497	67.41
858.672	14.17
858.846	-47.27
859.02	34.64
859.195	-26.79
859.369	-2.22
859.543	1.88
859.718	-10.41
859.892	10.07
860.066	-12.46
860.241	16.21
860.415	51.03
860.589	-67.75
860.763	10.07
860.938	18.26
861.112	-14.51
861.286	12.12
861.46	38.74
861.634	1.88
861.808	51.03
861.982	26.45
862.157	-118.95
862.331	53.08
862.505	-10.41
862.679	30.55
862.853	-8.36
863.027	-30.89
863.201	67.41
863.375	-32.94
863.549	53.08
863.722	-61.61
863.896	53.08
864.07	-8.36
864.244	-39.08
864.418	28.5
864.592	-86.19
864.766	-26.79
864.939	65.36
865.113	-8.36
865.287	22.36
865.461	-49.32
865.634	-55.47
865.808	22.36
865.982	-26.79
866.156	5.97
866.329	-37.03
866.503	73.56
866.676	28.5
866.85	5.97
867.024	10.07
867.197	28.5
867.371	57.17
867.544	55.12
867.718	44.88
867.891	75.6
868.065	-63.66
868.238	-61.61
868.412	-16.55
868.585	-26.79
868.759	42.84
868.932	-39.08
869.105	51.03
869.279	-84.14
869.452	-39.08
869.625	30.55
869.799	-24.75
869.972	-63.66
870.145	67.41
870.319	55.12
870.492	44.88
870.665	48.98
870.838	1.88
871.011	-24.75
871.185	1.88
871.358	-37.03
871.531	-18.6
871.704	-14.51
871.877	-14.51
872.05	-51.37
872.223	38.74
872.396	14.17
872.569	-39.08
872.742	-53.42
872.915	53.08
873.088	63.32
873.261	-22.7
873.434	1.88
873.607	32.6
873.78	12.12
873.953	-82.09
874.126	-2.22
874.299	12.12
874.471	44.88
874.644	-37.03
874.817	-65.71
874.99	42.84
875.163	10.07
875.335	5.97
875.508	3.93
875.681	63.32
875.853	30.55
876.026	36.69
876.199	-39.08
876.371	69.46
876.544	-22.7
876.717	34.64
876.889	12.12
877.062	-22.7
877.234	-88.23
877.407	-67.75
877.579	-53.42
877.752	-10.41
877.924	42.84
878.097	-10.41
878.269	3.93
878.442	-88.23
878.614	16.21
878.786	-28.84
878.959	-41.13
879.131	75.6
879.303	-2.22
879.476	69.46
879.648	38.74
879.82	10.07
879.993	40.79
880.165	1.88
880.337	1.88
880.509	22.36
880.681	-26.79
880.854	38.74
881.026	46.93
881.198	44.88
881.37	51.03
881.542	-4.27
881.714	5.97
881.886	-37.03
882.058	12.12
882.23	-55.47
882.402	12.12
882.574	-10.41
882.746	-18.6
882.918	104.28
883.09	-18.6
883.262	-20.65
883.434	-53.42
883.606	-28.84
883.778	-10.41
883.95	12.12
884.122	42.84
884.293	30.55
884.465	-37.03
884.637	46.93
884.809	1.88
884.98	48.98
885.152	3.93
885.324	30.55
885.496	1.88
885.667	-22.7
885.839	10.07
886.011	34.64
886.182	-20.65
886.354	14.17
886.525	-37.03
886.697	28.5
886.869	-6.31
887.04	-51.37
887.212	10.07
887.383	18.26
887.555	-20.65
887.726	30.55
887.897	-20.65
888.069	44.88
888.24	-82.09
888.412	-22.7
888.583	-65.71
888.754	-59.56
888.926	-57.51
889.097	-59.56
889.268	-41.13
889.44	10.07
889.611	-55.47
889.782	46.93
889.953	1.88
890.125	-6.31
890.296	-47.27
890.467	22.36
890.638	-39.08
890.809	46.93
890.98	-59.56
891.151	71.51
891.323	18.26
891.494	26.45
891.665	-2.22
891.836	14.17
892.007	-32.94
892.178	-10.41
892.349	-8.36
892.52	8.02
892.691	-37.03
892.862	-10.41
893.032	-18.6
893.203	14.17
893.374	-4.27
893.545	77.65
893.716	-41.13
893.887	81.75
894.057	-10.41
894.228	51.03
894.399	10.07
894.57	85.84
894.74	-20.65
894.911	-14.51
895.082	-16.55
895.253	-2.22
895.423	24.4
895.594	-14.51
895.764	-28.84
895.935	77.65
896.106	34.64
896.276	-24.75
896.447	46.93
896.617	-73.9
896.788	8.02
896.958	5.97
897.129	-39.08
897.299	-16.55
897.47	3.93
897.64	5.97
897.81	-51.37
897.981	55.12
898.151	65.36
898.322	1.88
898.492	-96.43
898.662	-14.51
898.832	14.17
899.003	-94.38
899.173	-30.89
899.343	22.36
899.513	59.22
