Data from USB4F104151__277__14-23-20-608.txt Node

Date: Thu Mar 13 14:23:20 EDT 2025
User: louis
Spectrometer: USB4F10415
Trigger mode: 4
Integration Time (sec): 2.000000E-2
Scans to average: 1
Electric dark correction enabled: true
Nonlinearity correction enabled: false
Boxcar width: 0
XAxis mode: Wavelengths
Number of Pixels in Spectrum: 3648
>>>>>Begin Spectral Data<<<<<
178.204	-175.95
178.424	-175.95
178.644	-175.95
178.864	-163.67
179.084	-163.67
179.304	18.6
179.524	65.71
179.744	-12.12
179.964	-1.88
180.184	47.27
180.404	-59.22
180.624	-63.32
180.844	4.27
181.064	-14.17
181.283	24.75
181.503	-14.17
181.723	4.27
181.943	-55.12
182.163	12.46
182.383	-42.84
182.602	10.41
182.822	28.84
183.042	-18.26
183.262	45.23
183.482	22.7
183.701	12.46
183.921	22.7
184.141	-102.23
184.361	112.81
184.58	41.13
184.8	-14.17
185.02	16.55
185.239	-18.26
185.459	-20.31
185.679	2.22
185.898	-12.12
186.118	26.79
186.338	-42.84
186.557	26.79
186.777	-30.55
186.997	-46.93
187.216	4.27
187.436	37.03
187.655	22.7
187.875	-22.36
188.095	59.56
188.314	63.66
188.534	39.08
188.753	-14.17
188.973	14.51
189.192	-20.31
189.412	-20.31
189.631	4.27
189.851	12.46
190.07	26.79
190.29	-10.07
190.509	-42.84
190.729	-32.6
190.948	84.14
191.168	57.51
191.387	47.27
191.607	-42.84
191.826	12.46
192.045	34.99
192.265	-8.02
192.484	45.23
192.704	34.99
192.923	-98.13
193.142	-5.97
193.362	96.43
193.581	8.36
193.8	-12.12
194.02	53.42
194.239	16.55
194.458	18.6
194.678	10.41
194.897	34.99
195.116	59.56
195.335	-20.31
195.555	2.22
195.774	-20.31
195.993	-12.12
196.212	18.6
196.432	-63.32
196.651	20.65
196.87	-18.26
197.089	94.38
197.308	43.18
197.528	2.22
197.747	-44.88
197.966	53.42
198.185	16.55
198.404	2.22
198.623	92.33
198.842	39.08
199.062	59.56
199.281	53.42
199.5	-38.74
199.719	47.27
199.938	-10.07
200.157	-22.36
200.376	-26.45
200.595	28.84
200.814	-5.97
201.033	-12.12
201.252	-10.07
201.471	26.79
201.69	-10.07
201.909	53.42
202.128	-10.07
202.347	-3.93
202.566	-34.64
202.785	-28.5
203.004	-20.31
203.223	84.14
203.442	24.75
203.661	49.32
203.879	77.99
204.098	-36.69
204.317	-5.97
204.536	77.99
204.755	-55.12
204.974	30.89
205.193	-53.08
205.411	77.99
205.63	2.22
205.849	14.51
206.068	22.7
206.287	-28.5
206.505	51.37
206.724	51.37
206.943	-22.36
207.162	4.27
207.381	-3.93
207.599	67.75
207.818	-26.45
208.037	-28.5
208.255	-22.36
208.474	57.51
208.693	-28.5
208.911	55.47
209.13	6.31
209.349	28.84
209.567	-5.97
209.786	-5.97
210.005	10.41
210.223	-1.88
210.442	-36.69
210.661	30.89
210.879	30.89
211.098	65.71
211.316	100.52
211.535	14.51
211.753	16.55
211.972	63.66
212.191	-10.07
212.409	2.22
212.628	8.36
212.846	-59.22
213.065	-38.74
213.283	-28.5
213.502	-34.64
213.72	-44.88
213.938	14.51
214.157	12.46
214.375	47.27
214.594	34.99
214.812	0.17
215.031	24.75
215.249	73.9
215.467	-5.97
215.686	2.22
215.904	75.95
216.122	-30.55
216.341	-51.03
216.559	43.18
216.778	102.57
216.996	12.46
217.214	14.51
217.432	-18.26
217.651	-5.97
217.869	16.55
218.087	-30.55
218.306	10.41
218.524	-22.36
218.742	6.31
218.96	43.18
219.179	-12.12
219.397	12.46
219.615	59.56
219.833	75.95
220.051	-42.84
220.27	-12.12
220.488	47.27
220.706	-71.51
220.924	10.41
221.142	28.84
221.36	-44.88
221.578	47.27
221.796	45.23
222.015	-5.97
222.233	-26.45
222.451	-14.17
222.669	-3.93
222.887	26.79
223.105	-30.55
223.323	59.56
223.541	-42.84
223.759	39.08
223.977	4.27
224.195	67.75
224.413	65.71
224.631	63.66
224.849	67.75
225.067	104.62
225.285	-30.55
225.503	61.61
225.721	2.22
225.939	71.85
226.157	53.42
226.375	51.37
226.592	75.95
226.81	77.99
227.028	-55.12
227.246	6.31
227.464	-30.55
227.682	49.32
227.9	26.79
228.117	-63.32
228.335	-28.5
228.553	77.99
228.771	69.8
228.989	30.89
229.206	51.37
229.424	-22.36
229.642	41.13
229.86	-16.21
230.077	-1.88
230.295	28.84
230.513	49.32
230.731	45.23
230.948	2.22
231.166	67.75
231.384	-51.03
231.601	84.14
231.819	2.22
232.037	22.7
232.254	43.18
232.472	-46.93
232.689	2.22
232.907	55.47
233.125	-63.32
233.342	88.23
233.56	-5.97
233.777	-28.5
233.995	-8.02
234.213	30.89
234.43	14.51
234.648	43.18
234.865	12.46
235.083	-40.79
235.3	-85.84
235.518	63.66
235.735	75.95
235.953	30.89
236.17	75.95
236.388	10.41
236.605	43.18
236.822	-34.64
237.04	6.31
237.257	-3.93
237.475	-26.45
237.692	28.84
237.909	0.17
238.127	-10.07
238.344	26.79
238.562	55.47
238.779	0.17
238.996	-65.36
239.214	75.95
239.431	-32.6
239.648	8.36
239.865	26.79
240.083	43.18
240.3	-3.93
240.517	-12.12
240.735	49.32
240.952	41.13
241.169	28.84
241.386	43.18
241.603	18.6
241.821	37.03
242.038	14.51
242.255	-12.12
242.472	-5.97
242.689	18.6
242.907	77.99
243.124	45.23
243.341	12.46
243.558	-32.6
243.775	53.42
243.992	-3.93
244.209	22.7
244.426	51.37
244.643	28.84
244.86	-63.32
245.078	-22.36
245.295	-36.69
245.512	18.6
245.729	-5.97
245.946	37.03
246.163	-32.6
246.38	43.18
246.597	63.66
246.814	-22.36
247.031	55.47
247.248	4.27
247.464	43.18
247.681	71.85
247.898	26.79
248.115	8.36
248.332	18.6
248.549	71.85
248.766	84.14
248.983	51.37
249.2	43.18
249.417	-18.26
249.633	12.46
249.85	84.14
250.067	-12.12
250.284	-55.12
250.501	41.13
250.717	51.37
250.934	-22.36
251.151	12.46
251.368	37.03
251.585	49.32
251.801	-30.55
252.018	20.65
252.235	28.84
252.451	47.27
252.668	-36.69
252.885	12.46
253.102	-16.21
253.318	37.03
253.535	55.47
253.752	30.89
253.968	39.08
254.185	28.84
254.401	-26.45
254.618	-51.03
254.835	157.86
255.051	12.46
255.268	49.32
255.484	-1.88
255.701	32.94
255.917	-26.45
256.134	-12.12
256.351	69.8
256.567	26.79
256.784	2.22
257	-22.36
257.217	34.99
257.433	18.6
257.65	53.42
257.866	34.99
258.082	-61.27
258.299	-28.5
258.515	30.89
258.732	-14.17
258.948	-38.74
259.165	20.65
259.381	12.46
259.597	-14.17
259.814	0.17
260.03	34.99
260.246	-1.88
260.463	92.33
260.679	-26.45
260.895	102.57
261.112	20.65
261.328	-51.03
261.544	47.27
261.761	6.31
261.977	-20.31
262.193	6.31
262.409	20.65
262.626	65.71
262.842	28.84
263.058	-69.46
263.274	-28.5
263.49	-44.88
263.707	-12.12
263.923	-22.36
264.139	34.99
264.355	8.36
264.571	102.57
264.787	-1.88
265.004	77.99
265.22	30.89
265.436	-10.07
265.652	41.13
265.868	18.6
266.084	18.6
266.3	-5.97
266.516	-18.26
266.732	37.03
266.948	-16.21
267.164	-30.55
267.38	18.6
267.596	43.18
267.812	71.85
268.028	8.36
268.244	-3.93
268.46	39.08
268.676	26.79
268.892	47.27
269.108	80.04
269.324	-42.84
269.54	-48.98
269.756	30.89
269.972	-30.55
270.188	-51.03
270.403	32.94
270.619	0.17
270.835	-12.12
271.051	34.99
271.267	-3.93
271.483	84.14
271.698	22.7
271.914	41.13
272.13	-71.51
272.346	37.03
272.562	-22.36
272.777	-30.55
272.993	-1.88
273.209	22.7
273.425	-3.93
273.64	-5.97
273.856	63.66
274.072	-14.17
274.287	-16.21
274.503	-8.02
274.719	-16.21
274.934	-12.12
275.15	45.23
275.366	2.22
275.581	18.6
275.797	12.46
276.012	-12.12
276.228	-38.74
276.444	75.95
276.659	-5.97
276.875	-22.36
277.09	-96.08
277.306	-5.97
277.521	-5.97
277.737	12.46
277.952	39.08
278.168	63.66
278.383	-18.26
278.599	-10.07
278.814	51.37
279.03	-10.07
279.245	26.79
279.461	43.18
279.676	-20.31
279.892	-22.36
280.107	20.65
280.322	-20.31
280.538	59.56
280.753	-38.74
280.969	22.7
281.184	-30.55
281.399	59.56
281.615	-32.6
281.83	-38.74
282.045	-34.64
282.26	32.94
282.476	59.56
282.691	37.03
282.906	16.55
283.122	10.41
283.337	24.75
283.552	32.94
283.767	2.22
283.983	32.94
284.198	37.03
284.413	20.65
284.628	-36.69
284.843	-12.12
285.058	-12.12
285.274	6.31
285.489	14.51
285.704	63.66
285.919	-81.75
286.134	26.79
286.349	59.56
286.564	-91.99
286.779	-3.93
286.995	2.22
287.21	-73.56
287.425	53.42
287.64	10.41
287.855	2.22
288.07	-1.88
288.285	-22.36
288.5	47.27
288.715	71.85
288.93	-5.97
289.145	28.84
289.36	12.46
289.575	-48.98
289.79	-5.97
290.004	61.61
290.219	10.41
290.434	12.46
290.649	-53.08
290.864	-55.12
291.079	-46.93
291.294	37.03
291.509	-28.5
291.724	14.51
291.938	32.94
292.153	53.42
292.368	-22.36
292.583	84.14
292.798	-3.93
293.012	67.75
293.227	41.13
293.442	14.51
293.657	80.04
293.871	65.71
294.086	32.94
294.301	-3.93
294.516	-5.97
294.73	75.95
294.945	-30.55
295.16	-12.12
295.374	34.99
295.589	116.9
295.804	14.51
296.018	8.36
296.233	59.56
296.447	-8.02
296.662	-14.17
296.877	6.31
297.091	-59.22
297.306	-10.07
297.52	-5.97
297.735	32.94
297.949	10.41
298.164	2.22
298.378	53.42
298.593	-14.17
298.807	26.79
299.022	-20.31
299.236	6.31
299.451	-10.07
299.665	-14.17
299.88	12.46
300.094	-3.93
300.309	45.23
300.523	-1.88
300.737	8.36
300.952	-16.21
301.166	-10.07
301.381	0.17
301.595	20.65
301.809	22.7
302.024	77.99
302.238	-3.93
302.452	26.79
302.667	20.65
302.881	20.65
303.095	-53.08
303.309	-30.55
303.524	-63.32
303.738	73.9
303.952	-42.84
304.166	-26.45
304.381	6.31
304.595	61.61
304.809	8.36
305.023	41.13
305.237	69.8
305.452	4.27
305.666	-28.5
305.88	-24.4
306.094	51.37
306.308	59.56
306.522	65.71
306.736	61.61
306.95	34.99
307.164	75.95
307.379	-10.07
307.593	26.79
307.807	30.89
308.021	37.03
308.235	18.6
308.449	-1.88
308.663	-8.02
308.877	34.99
309.091	12.46
309.305	34.99
309.519	-20.31
309.733	22.7
309.947	-48.98
310.161	51.37
310.374	8.36
310.588	49.32
310.802	4.27
311.016	8.36
311.23	-16.21
311.444	-38.74
311.658	18.6
311.872	28.84
312.085	75.95
312.299	100.52
312.513	80.04
312.727	2.22
312.941	26.79
313.154	-12.12
313.368	61.61
313.582	75.95
313.796	0.17
314.009	69.8
314.223	80.04
314.437	-20.31
314.651	45.23
314.864	55.47
315.078	-10.07
315.292	12.46
315.505	18.6
315.719	16.55
315.933	39.08
316.146	30.89
316.36	47.27
316.573	53.42
316.787	75.95
317.001	20.65
317.214	14.51
317.428	45.23
317.641	4.27
317.855	14.51
318.068	63.66
318.282	-34.64
318.495	53.42
318.709	10.41
318.922	-3.93
319.136	51.37
319.349	20.65
319.563	6.31
319.776	-14.17
319.99	-28.5
320.203	26.79
320.417	43.18
320.63	-14.17
320.843	45.23
321.057	-42.84
321.27	-5.97
321.483	-34.64
321.697	53.42
321.91	39.08
322.124	-5.97
322.337	37.03
322.55	20.65
322.763	4.27
322.977	4.27
323.19	55.47
323.403	6.31
323.617	-55.12
323.83	82.09
324.043	-30.55
324.256	26.79
324.469	-30.55
324.683	75.95
324.896	-69.46
325.109	14.51
325.322	-26.45
325.535	84.14
325.748	53.42
325.962	28.84
326.175	12.46
326.388	86.19
326.601	43.18
326.814	65.71
327.027	18.6
327.24	61.61
327.453	-46.93
327.666	53.42
327.879	20.65
328.092	8.36
328.305	-3.93
328.518	26.79
328.731	-67.41
328.944	53.42
329.157	-26.45
329.37	-3.93
329.583	129.19
329.796	34.99
330.009	-36.69
330.222	53.42
330.435	45.23
330.648	2.22
330.861	-18.26
331.073	37.03
331.286	67.75
331.499	-53.08
331.712	18.6
331.925	45.23
332.138	57.51
332.35	43.18
332.563	67.75
332.776	26.79
332.989	-10.07
333.202	-22.36
333.414	4.27
333.627	129.19
333.84	-48.98
334.053	20.65
334.265	-28.5
334.478	80.04
334.691	2.22
334.903	53.42
335.116	-38.74
335.329	43.18
335.541	32.94
335.754	51.37
335.966	22.7
336.179	-1.88
336.392	22.7
336.604	28.84
336.817	4.27
337.029	47.27
337.242	67.75
337.454	20.65
337.667	59.56
337.88	116.9
338.092	41.13
338.305	53.42
338.517	102.57
338.729	55.47
338.942	51.37
339.154	-30.55
339.367	30.89
339.579	51.37
339.792	26.79
340.004	77.99
340.217	51.37
340.429	18.6
340.641	-14.17
340.854	100.52
341.066	24.75
341.278	102.57
341.491	108.71
341.703	-10.07
341.915	32.94
342.128	61.61
342.34	-14.17
342.552	-28.5
342.764	2.22
342.977	-1.88
343.189	-55.12
343.401	45.23
343.613	-20.31
343.826	43.18
344.038	14.51
344.25	84.14
344.462	59.56
344.674	37.03
344.886	18.6
345.099	26.79
345.311	-32.6
345.523	-22.36
345.735	-14.17
345.947	34.99
346.159	39.08
346.371	-3.93
346.583	37.03
346.795	59.56
347.007	67.75
347.219	-1.88
347.431	57.51
347.643	41.13
347.855	-14.17
348.067	88.23
348.279	18.6
348.491	34.99
348.703	116.9
348.915	49.32
349.127	47.27
349.339	-22.36
349.551	-38.74
349.763	2.22
349.975	34.99
350.187	4.27
350.399	43.18
350.61	67.75
350.822	-5.97
351.034	39.08
351.246	22.7
351.458	18.6
351.669	37.03
351.881	-26.45
352.093	-22.36
352.305	63.66
352.517	18.6
352.728	82.09
352.94	51.37
353.152	69.8
353.363	-26.45
353.575	53.42
353.787	43.18
353.999	14.51
354.21	75.95
354.422	-46.93
354.633	26.79
354.845	67.75
355.057	-79.7
355.268	53.42
355.48	-38.74
355.692	67.75
355.903	12.46
356.115	-20.31
356.326	-12.12
356.538	94.38
356.749	41.13
356.961	-12.12
357.172	-14.17
357.384	18.6
357.595	26.79
357.807	39.08
358.018	100.52
358.23	-34.64
358.441	90.28
358.653	47.27
358.864	2.22
359.075	110.76
359.287	86.19
359.498	6.31
359.709	43.18
359.921	34.99
360.132	59.56
360.344	20.65
360.555	37.03
360.766	133.29
360.977	55.47
361.189	59.56
361.4	51.37
361.611	67.75
361.823	88.23
362.034	43.18
362.245	-10.07
362.456	47.27
362.667	-48.98
362.879	-20.31
363.09	-5.97
363.301	10.41
363.512	-10.07
363.723	34.99
363.935	-28.5
364.146	22.7
364.357	12.46
364.568	67.75
364.779	-38.74
364.99	84.14
365.201	-22.36
365.412	51.37
365.623	18.6
365.834	151.72
366.045	53.42
366.256	118.95
366.467	59.56
366.678	-67.41
366.889	71.85
367.1	-18.26
367.311	37.03
367.522	34.99
367.733	51.37
367.944	20.65
368.155	-22.36
368.366	49.32
368.577	137.38
368.788	43.18
368.999	-46.93
369.209	51.37
369.42	80.04
369.631	145.58
369.842	12.46
370.053	37.03
370.264	-14.17
370.474	24.75
370.685	67.75
370.896	67.75
371.107	71.85
371.317	43.18
371.528	-14.17
371.739	24.75
371.95	-42.84
372.16	26.79
372.371	-26.45
372.582	34.99
372.792	57.51
373.003	75.95
373.214	28.84
373.424	-18.26
373.635	77.99
373.846	30.89
374.056	-10.07
374.267	-3.93
374.477	100.52
374.688	-67.41
374.898	24.75
375.109	37.03
375.319	34.99
375.53	59.56
375.74	84.14
375.951	75.95
376.161	-34.64
376.372	43.18
376.582	18.6
376.793	53.42
377.003	0.17
377.214	75.95
377.424	28.84
377.635	20.65
377.845	47.27
378.055	88.23
378.266	-30.55
378.476	43.18
378.686	75.95
378.897	10.41
379.107	98.47
379.317	4.27
379.528	43.18
379.738	94.38
379.948	22.7
380.158	28.84
380.369	82.09
380.579	24.75
380.789	30.89
380.999	47.27
381.21	20.65
381.42	80.04
381.63	26.79
381.84	34.99
382.05	37.03
382.261	53.42
382.471	-26.45
382.681	96.43
382.891	96.43
383.101	75.95
383.311	22.7
383.521	43.18
383.731	4.27
383.941	123.05
384.151	47.27
384.361	43.18
384.571	26.79
384.781	84.14
384.991	96.43
385.201	92.33
385.411	39.08
385.621	28.84
385.831	53.42
386.041	73.9
386.251	-5.97
386.461	77.99
386.671	18.6
386.881	10.41
387.091	30.89
387.301	18.6
387.511	28.84
387.72	86.19
387.93	82.09
388.14	75.95
388.35	22.7
388.56	26.79
388.769	82.09
388.979	51.37
389.189	-36.69
389.399	102.57
389.609	92.33
389.818	14.51
390.028	-5.97
390.238	30.89
390.447	-12.12
390.657	39.08
390.867	0.17
391.076	96.43
391.286	67.75
391.496	77.99
391.705	59.56
391.915	75.95
392.125	75.95
392.334	139.43
392.544	26.79
392.753	2.22
392.963	-28.5
393.172	41.13
393.382	39.08
393.591	63.66
393.801	14.51
394.01	127.14
394.22	32.94
394.429	8.36
394.639	-18.26
394.848	92.33
395.058	94.38
395.267	26.79
395.477	65.71
395.686	32.94
395.895	45.23
396.105	100.52
396.314	41.13
396.524	51.37
396.733	43.18
396.942	170.15
397.152	94.38
397.361	116.9
397.57	63.66
397.78	51.37
397.989	112.81
398.198	106.67
398.407	10.41
398.617	133.29
398.826	84.14
399.035	32.94
399.244	98.47
399.453	92.33
399.663	100.52
399.872	133.29
400.081	-10.07
400.29	174.25
400.499	63.66
400.708	114.86
400.917	104.62
401.127	67.75
401.336	63.66
401.545	118.95
401.754	55.47
401.963	67.75
402.172	65.71
402.381	69.8
402.59	102.57
402.799	143.53
403.008	102.57
403.217	151.72
403.426	77.99
403.635	92.33
403.844	96.43
404.053	121
404.262	157.86
404.471	139.43
404.68	135.34
404.888	190.63
405.097	157.86
405.306	192.68
405.515	151.72
405.724	118.95
405.933	194.73
406.142	176.3
406.35	108.71
406.559	166.06
406.768	219.3
406.977	258.21
407.185	151.72
407.394	192.68
407.603	121
407.812	190.63
408.02	149.67
408.229	182.44
408.438	207.02
408.646	184.49
408.855	170.15
409.064	243.88
409.272	284.84
409.481	258.21
409.69	219.3
409.898	305.32
410.107	319.65
410.315	321.7
410.524	315.56
410.733	370.85
410.941	309.41
411.15	348.33
411.358	391.33
411.567	381.09
411.775	387.24
411.984	403.62
412.192	497.83
412.401	471.2
412.609	432.29
412.818	546.98
413.026	499.88
413.234	503.97
413.443	516.26
413.651	549.03
413.86	573.6
414.068	612.51
414.276	571.55
414.485	645.28
414.693	657.57
414.901	673.95
415.11	741.54
415.318	673.95
415.526	817.31
415.734	768.16
415.943	823.45
416.151	813.21
416.359	735.39
416.567	858.27
416.776	856.22
416.984	966.81
417.192	1089.69
417.4	1034.39
417.608	993.44
417.817	1052.83
418.025	1161.37
418.233	1233.05
418.441	1132.7
418.649	1253.53
418.857	1286.3
419.065	1259.67
419.273	1173.66
419.481	1337.49
419.689	1443.99
419.897	1540.24
420.105	1550.48
420.313	1624.21
420.521	1601.68
420.729	1708.18
420.937	1755.28
421.145	1812.62
421.353	1806.48
421.561	1982.6
421.769	2019.47
421.977	2115.72
422.185	2066.57
422.393	2156.68
422.601	2271.37
422.809	2369.67
423.017	2394.25
423.224	2527.36
423.432	2459.78
423.64	2558.08
423.848	2752.64
424.056	2721.92
424.263	2910.33
424.471	2967.68
424.679	2924.67
424.887	3207.29
425.094	3291.26
425.302	3238.01
425.51	3252.35
425.718	3393.65
425.925	3438.71
426.133	3592.31
426.341	3870.83
426.548	4069.48
426.756	4061.29
426.964	4092.01
427.171	4286.57
427.379	4466.79
427.586	4481.13
427.794	4747.36
428.001	4706.4
428.209	4962.4
428.417	4929.63
428.624	5304.41
428.832	5261.4
429.039	5245.02
429.247	5281.88
429.454	5802.07
429.662	6088.78
429.869	5533.78
430.076	6215.76
430.284	5978.19
430.491	6244.43
430.699	6580.29
430.906	6527.05
431.114	6656.07
431.321	6967.36
431.528	7139.39
431.736	7422.01
431.943	7575.61
432.15	7483.45
432.358	7895.09
432.565	8228.91
432.772	8087.6
432.979	8335.4
433.187	8706.09
433.394	8554.54
433.601	9226.27
433.808	9365.53
434.016	9297.95
434.223	9680.92
434.43	10260.49
434.637	9979.92
434.844	10545.16
435.052	10926.08
435.259	10702.86
435.466	10770.44
435.673	10905.6
435.88	11364.35
436.087	12068.85
436.294	12009.46
436.501	11632.63
436.708	12013.56
436.915	12425.2
437.122	12941.29
437.329	12709.86
437.537	13334.5
437.743	13606.88
437.95	13422.56
438.157	14135.25
438.364	14555.08
438.571	14467.02
438.778	14634.96
438.985	15904.7
439.192	15380.42
439.399	16009.14
439.606	15468.48
439.813	16521.13
440.02	17395.62
440.227	17100.71
440.433	16738.22
440.64	17078.18
440.847	17366.95
441.054	17807.26
441.261	18956.17
441.467	18644.88
441.674	18941.83
441.881	19859.32
442.088	19699.58
442.294	19478.4
442.501	20041.59
442.708	20346.74
442.914	21133.16
443.121	22056.79
443.328	21305.19
443.534	23035.72
443.741	22194.01
443.948	21946.2
444.154	23977.79
444.361	23531.33
444.568	23650.11
444.774	23826.24
444.981	23596.87
445.187	24305.46
445.394	25663.27
445.6	25190.19
445.807	27911.94
446.013	26539.8
446.22	27117.32
446.426	27862.79
446.633	28344.06
446.839	29208.3
447.046	28120.83
447.252	29621.99
447.459	29624.04
447.665	29552.36
447.871	30930.64
448.078	32337.6
448.284	30428.89
448.491	31350.48
448.697	32929.46
448.903	33201.84
449.11	33437.36
449.316	32771.77
449.522	33283.76
449.728	33947.3
449.935	34408.09
450.141	34494.11
450.347	35270.29
450.553	33959.59
450.76	34889.37
450.966	35700.36
451.172	35399.31
451.378	36304.51
451.584	35688.07
451.791	36411.01
451.997	36163.2
452.203	37031.54
452.409	37049.97
452.615	37316.21
452.821	35778.18
453.027	35258
453.233	37365.36
453.44	35378.83
453.646	36107.91
453.852	36273.79
454.058	36990.58
454.264	35724.94
454.47	36669.05
454.676	35360.4
454.882	36976.25
455.088	33740.46
455.294	34191.01
455.5	34418.33
455.705	35106.45
455.911	33631.91
456.117	32734.9
456.323	32849.59
456.529	31071.95
456.735	32200.38
456.941	31477.45
457.147	31086.29
457.352	30289.63
457.558	29781.73
457.764	29992.67
457.97	29411.05
458.176	28729.08
458.381	28849.91
458.587	27348.75
458.793	27461.38
458.999	26103.58
459.204	28040.96
459.41	27008.78
459.616	25687.84
459.821	25433.89
460.027	25261.87
460.233	24827.7
460.438	23652.16
460.644	23633.73
460.85	22724.43
461.055	22337.37
461.261	22355.8
461.466	20934.51
461.672	20035.45
461.878	21538.66
462.083	20121.46
462.289	19679.1
462.494	19507.07
462.7	19025.8
462.905	18093.97
463.111	18909.07
463.316	18870.15
463.522	18319.25
463.727	18585.49
463.932	18524.05
464.138	18192.28
464.343	18309.01
464.549	17713.05
464.754	18290.58
464.959	18460.56
465.165	18134.93
465.37	17426.34
465.575	16889.77
465.781	17579.93
465.986	17784.73
466.191	17192.87
466.397	16605.1
466.602	15994.81
466.807	16451.5
467.012	16437.17
467.218	16480.18
467.423	16402.35
467.628	16312.24
467.833	16959.4
468.038	16400.3
468.244	15773.63
468.449	16521.13
468.654	15935.42
468.859	15773.63
469.064	15767.48
469.269	15124.42
469.474	15267.78
469.679	15558.59
469.885	15126.47
470.09	15261.63
470.295	15372.22
470.5	14987.21
470.705	14714.83
470.91	14895.05
471.115	14675.91
471.32	14641.1
471.525	14598.09
471.73	14135.25
471.935	14141.39
472.139	13774.81
472.344	13969.37
472.549	13856.73
472.754	13727.71
472.959	13449.18
473.164	12847.08
473.369	12871.65
473.574	13486.04
473.778	13414.37
473.983	13098.98
474.188	13144.03
474.393	12562.41
474.598	12601.32
474.802	12642.28
475.007	12503.02
475.212	12623.85
475.417	11978.74
475.621	12120.05
475.826	11980.79
476.031	11759.61
476.235	11548.67
476.44	11792.37
476.645	11458.56
476.849	11589.63
477.054	11317.25
477.259	11087.87
477.463	11167.74
477.668	10924.04
477.872	11134.98
478.077	10725.38
478.282	10565.64
478.486	10504.2
478.691	10586.12
478.895	10479.63
479.1	10524.68
479.304	10334.22
479.509	10076.18
479.713	10307.6
479.918	10197.01
480.122	9959.44
480.326	10004.5
480.531	9955.35
480.735	9971.73
480.94	10000.4
481.144	9979.92
481.348	9678.87
481.553	9928.72
481.757	9584.66
481.961	9734.17
482.166	9930.77
482.37	9656.34
482.574	9615.38
482.778	9590.81
482.983	9768.98
483.187	9607.19
483.391	9736.21
483.595	9654.3
483.8	9734.17
484.004	9547.8
484.208	9760.79
484.412	9801.75
484.616	9703.45
484.821	9801.75
485.025	9695.25
485.229	9762.84
485.433	9302.04
485.637	9697.3
485.841	9447.45
486.045	9568.28
486.249	9596.95
486.453	9334.81
486.657	9642.01
486.861	9404.44
487.065	9250.85
487.269	9627.67
487.473	9574.42
487.677	9633.82
487.881	9728.02
488.085	9635.86
488.289	9680.92
488.493	9756.69
488.697	9787.41
488.901	9814.04
489.105	9562.14
489.309	9750.55
489.512	9621.53
489.716	9971.73
489.92	9652.25
490.124	9875.48
490.328	9930.77
490.531	9775.13
490.735	9758.74
490.939	9791.51
491.143	10039.31
491.346	9742.36
491.55	10086.42
491.754	10110.99
491.958	10020.88
492.161	9926.68
492.365	10125.33
492.569	10233.87
492.772	10004.5
492.976	10211.34
493.18	10276.88
493.383	10539.02
493.587	10532.87
493.79	10604.55
493.994	10389.52
494.197	10541.07
494.401	10868.74
494.605	10752.01
494.808	10760.2
495.012	10868.74
495.215	10842.12
495.419	10975.24
495.622	11042.82
495.825	11143.17
496.029	11081.73
496.232	11384.83
496.436	11364.35
496.639	11659.26
496.843	11417.6
497.046	11884.53
497.249	12056.56
497.453	11888.63
497.656	12120.05
497.859	12169.2
498.063	12224.5
498.266	12523.5
498.469	12535.79
498.673	12515.31
498.876	12916.71
499.079	12838.89
499.282	12650.47
499.485	13207.52
499.689	13336.54
499.892	13404.13
500.095	13496.28
500.298	13686.75
500.501	13809.62
500.705	13957.08
500.908	14043.09
501.111	14254.03
501.314	14587.85
501.517	14731.21
501.72	15099.84
501.923	14788.55
502.126	14985.16
502.329	15411.14
502.532	15501.25
502.735	15400.9
502.938	15785.91
503.141	16025.53
503.344	16142.26
503.547	15845.3
503.75	16449.46
503.953	16930.73
504.156	16795.56
504.359	16846.76
504.562	17065.89
504.765	17278.88
504.968	17551.26
505.17	17708.96
505.373	17934.23
505.576	18335.63
505.779	18306.96
505.982	18325.4
506.185	18691.98
506.387	18663.31
506.59	19085.19
506.793	19400.58
506.996	19347.33
507.198	20076.41
507.401	19744.64
507.604	19963.77
507.807	20668.27
508.009	20731.76
508.212	20518.77
508.415	20866.92
508.617	21270.37
508.82	21479.27
509.022	21004.14
509.225	21538.66
509.428	21972.83
509.63	22153.05
509.833	22464.34
510.035	22777.68
510.238	22708.05
510.44	22966.09
510.643	23263.05
510.845	23455.56
511.048	23347.01
511.25	23973.69
511.453	24190.78
511.655	24885.04
511.858	24575.8
512.06	24717.11
512.262	25089.84
512.465	24936.24
512.667	25919.26
512.87	26074.91
513.072	25757.47
513.274	26031.9
513.477	26693.4
513.679	26570.52
513.881	27113.23
514.084	27193.1
514.286	27475.72
514.488	27600.65
514.69	28569.33
514.893	28503.8
515.095	28073.73
515.297	28854
515.499	29052.66
515.701	29302.51
515.904	29716.2
516.106	29839.08
516.308	30297.82
516.51	30287.58
516.712	30408.41
516.914	31057.62
517.116	31481.55
517.318	31506.12
517.52	31702.73
517.722	31567.56
517.925	32071.36
518.127	32306.88
518.329	32966.32
518.531	32569.02
518.733	33605.29
518.935	33488.56
519.136	33529.52
519.338	33930.92
519.54	34399.9
519.742	34381.47
519.944	34850.45
520.146	35161.75
520.348	35421.84
520.55	35788.42
520.752	35671.69
520.954	36296.32
521.155	36159.11
521.357	36531.84
521.559	36789.88
521.761	37398.13
521.963	37330.55
522.164	37834.35
522.366	37701.23
522.568	38190.69
522.77	38450.78
522.971	38940.25
523.173	38780.51
523.375	39159.38
523.576	38833.75
523.778	39165.53
523.98	39810.64
524.181	40130.12
524.383	39771.72
524.584	40558.14
524.786	40779.32
524.988	40105.54
525.189	40910.39
525.391	41035.32
525.592	40947.26
525.794	41139.77
525.995	41508.4
526.197	41592.37
526.398	41688.62
526.6	41954.86
526.801	42161.7
527.003	42231.33
527.204	42149.42
527.406	42767.9
527.607	42346.02
527.808	42886.68
528.01	42253.86
528.211	42579.49
528.412	43714.06
528.614	42995.23
528.815	43109.91
529.016	43503.12
529.218	43042.33
529.419	43662.86
529.62	43615.76
529.822	43474.45
530.023	43677.2
530.224	43707.92
530.425	43687.44
530.626	43253.27
530.828	43329.05
531.029	44121.61
531.23	43795.98
531.431	44099.08
531.632	43970.06
531.833	44107.27
532.035	43832.85
532.236	44037.64
532.437	43857.42
532.638	43838.99
532.839	44430.85
533.04	44492.29
533.241	43503.12
533.442	44256.78
533.643	44420.61
533.844	44129.8
534.045	44094.99
534.246	43679.25
534.447	44301.83
534.648	44152.33
534.849	44365.32
535.05	43779.6
535.251	44254.73
535.451	44254.73
535.652	44514.82
535.853	43949.58
536.054	44011.02
536.255	44154.38
536.456	43994.64
536.657	44699.14
536.857	43832.85
537.058	43609.62
537.259	44527.11
537.46	43914.76
537.66	43310.61
537.861	44088.84
538.062	43441.68
538.263	43933.2
538.463	43699.73
538.664	44025.35
538.865	43941.39
539.065	44150.28
539.266	43458.07
539.466	44150.28
539.667	43433.49
539.868	43920.91
540.068	43888.14
540.269	43904.52
540.469	44011.02
540.67	43640.34
540.87	43781.65
541.071	43662.86
541.271	43519.51
541.472	43599.38
541.672	43609.62
541.873	43134.49
542.073	43210.26
542.274	44047.88
542.474	43523.6
542.675	43114.01
542.875	43529.75
543.075	43335.19
543.276	43046.43
543.476	43955.72
543.676	43265.56
543.877	43220.5
544.077	43355.67
544.277	43271.7
544.478	43374.1
544.678	43558.42
544.878	43750.93
545.078	43425.3
545.279	42872.35
545.479	43118.1
545.679	43214.36
545.879	43298.33
546.079	43564.56
546.28	42925.6
546.48	43361.81
546.68	43314.71
546.88	42571.3
547.08	43111.96
547.28	43562.51
547.48	42868.25
547.68	43519.51
547.88	43224.6
548.081	43253.27
548.281	42954.27
548.481	42892.83
548.681	43535.89
548.881	43060.76
549.081	43421.2
549.28	42677.79
549.48	42974.75
549.68	42903.07
549.88	43687.44
550.08	42944.03
550.28	43236.89
550.48	43099.67
550.68	43621.91
550.88	42685.98
551.08	42812.96
551.279	43124.25
551.479	42679.84
551.679	43021.85
551.879	42884.64
552.079	43011.61
552.278	42796.57
552.478	43204.12
552.678	43292.18
552.878	43277.85
553.077	42860.06
553.277	42702.37
553.477	43331.09
553.676	43038.23
553.876	43005.47
554.076	42792.48
554.275	42597.92
554.475	42294.82
554.674	43130.39
554.874	42935.84
555.074	42765.85
555.273	42837.53
555.473	42552.87
555.672	42384.93
555.872	42735.13
556.071	42675.74
556.271	42741.28
556.47	42671.65
556.67	42606.11
556.869	42184.23
557.068	42610.21
557.268	42626.59
557.467	42190.37
557.667	42874.4
557.866	42556.96
558.065	42509.86
558.265	42407.46
558.464	42126.89
558.663	42489.38
558.863	41924.14
559.062	42778.14
559.261	41985.58
559.461	42645.02
559.66	42075.69
559.859	41883.18
560.058	41838.12
560.258	41776.69
560.457	41741.87
560.656	42325.54
560.855	41363
561.054	42122.79
561.253	41598.51
561.453	41682.48
561.652	41807.4
561.851	41827.88
562.05	41766.45
562.249	41254.45
562.448	41926.19
562.647	41901.61
562.846	41412.15
563.045	41473.59
563.244	41238.07
563.443	41604.66
563.642	40922.68
563.841	41104.95
564.04	41307.7
564.239	41502.26
564.438	40746.56
564.637	40676.93
564.836	41244.21
565.035	40470.08
565.234	40875.58
565.432	40648.25
565.631	40484.42
565.83	40439.36
566.029	40394.31
566.228	40322.63
566.427	40263.24
566.625	40263.24
566.824	39765.58
567.023	40111.69
567.222	39118.42
567.42	40175.17
567.619	39886.41
567.818	39691.85
568.016	39607.89
568.215	39708.24
568.414	39814.73
568.612	39648.85
568.811	39331.41
569.01	39474.77
569.208	38856.28
569.407	39472.72
569.605	38743.64
569.804	39427.67
570.002	38665.82
570.201	38999.64
570.4	38422.11
570.598	38614.62
570.797	38231.65
570.995	38780.51
571.193	37908.07
571.392	38579.81
571.59	38329.95
571.789	37860.97
571.987	38190.69
572.186	38030.95
572.384	37666.41
572.582	37867.11
572.781	37809.77
572.979	37064.31
573.177	37662.32
573.376	37635.69
573.574	36986.49
573.772	37416.56
573.971	36818.55
574.169	36714.11
574.367	36662.91
574.565	37004.92
574.763	36570.75
574.962	36730.49
575.16	36288.13
575.358	36793.98
575.556	35937.93
575.754	36664.96
575.952	36241.03
576.151	36277.89
576.349	36019.85
576.547	35993.22
576.745	36191.87
576.943	35958.41
577.141	35872.39
577.339	35497.61
577.537	35544.72
577.735	35618.44
577.933	34932.37
578.131	35509.9
578.329	34946.71
578.527	35165.84
578.725	34838.17
578.923	35083.92
579.121	34459.29
579.319	34872.98
579.516	34840.22
579.714	34813.59
579.912	34121.38
580.11	34457.24
580.308	34203.3
580.506	34254.5
580.704	33885.86
580.901	34412.19
581.099	34174.63
581.297	33488.56
581.495	33660.59
581.692	33834.66
581.89	33535.66
582.088	33650.35
582.285	33492.65
582.483	33679.02
582.681	33511.08
582.878	32992.95
583.076	32990.9
583.274	33207.98
583.471	32571.07
583.669	32956.08
583.866	32702.14
584.064	32630.46
584.262	32491.19
584.459	32939.7
584.657	32392.89
584.854	32489.15
585.052	31862.47
585.249	31794.89
585.447	31909.57
585.644	31684.3
585.841	32046.79
586.039	32276.16
586.236	31719.11
586.434	31581.9
586.631	31397.58
586.828	31512.27
587.026	31596.23
587.223	31284.94
587.42	31084.24
587.618	31407.82
587.815	30875.35
588.012	30987.99
588.21	30697.17
588.407	31205.07
588.604	30521.05
588.801	30670.55
588.999	30758.61
589.196	30254.81
589.393	30328.54
589.59	30121.7
589.787	30363.36
589.984	30047.97
590.182	29914.85
590.379	30119.65
590.576	29798.12
590.773	29826.79
590.97	29427.43
591.167	29456.11
591.364	28978.93
591.561	29679.33
591.758	29347.56
591.955	29413.1
592.152	29310.7
592.349	29185.77
592.546	28956.4
592.743	29239.02
592.94	28966.64
593.137	28698.36
593.334	28894.96
593.531	28491.51
593.727	28698.36
593.924	28669.69
594.121	28245.76
594.318	28266.24
594.515	28194.56
594.712	28380.92
594.908	28376.83
595.105	28133.12
595.302	27842.31
595.499	28102.4
595.696	27619.08
595.892	27760.39
596.089	27846.4
596.286	27608.84
596.482	27629.32
596.679	27580.17
596.876	27416.33
597.072	27225.87
597.269	27197.2
597.466	27037.45
597.662	27211.53
597.859	26885.9
598.055	26816.27
598.252	26838.8
598.448	26720.02
598.645	26591
598.841	26541.85
599.038	26722.07
599.234	26461.97
599.431	26396.44
599.627	26470.17
599.824	26466.07
600.02	25929.5
600.217	26031.9
600.413	26019.61
600.609	26142.49
600.806	25831.2
601.002	25949.98
601.198	25763.62
601.395	25730.85
601.591	25587.49
601.787	25587.49
601.984	25288.49
602.18	25818.91
602.376	25208.62
602.572	25065.26
602.769	25052.97
602.965	25034.54
603.161	25087.79
603.357	25108.27
603.553	24891.18
603.75	24960.81
603.946	24799.02
604.142	25071.4
604.338	24459.06
604.534	24643.38
604.73	24139.58
604.926	24135.48
605.122	24688.43
605.318	24264.5
605.514	24207.16
605.71	24108.86
605.906	24082.24
606.102	24172.35
606.298	23992.12
606.494	23672.64
606.69	23781.18
606.886	23959.36
607.082	23328.58
607.278	23930.69
607.474	23166.79
607.67	23820.1
607.866	23371.59
608.062	23689.03
608.257	23295.82
608.453	23183.18
608.649	23439.17
608.845	23199.56
609.041	22929.23
609.236	23387.97
609.432	22976.33
609.628	23138.12
609.824	23230.28
610.019	22931.28
610.215	22714.19
610.411	23211.85
610.606	22527.83
610.802	22916.94
610.998	22724.43
611.193	22652.75
611.389	22490.96
611.584	22810.45
611.78	22531.92
611.976	22433.62
612.171	22706
612.367	22597.46
612.562	22435.67
612.758	22005.59
612.953	22161.24
613.149	22423.38
613.344	22024.03
613.539	22753.1
613.735	22480.72
613.93	22239.06
614.126	22060.89
614.321	22210.39
614.517	21954.4
614.712	21813.09
614.907	21927.77
615.103	22146.9
615.298	21733.22
615.493	22003.55
615.688	21514.08
615.884	22024.03
616.079	21639.01
616.274	21870.43
616.47	21573.47
616.665	21964.64
616.86	21552.99
617.055	21540.71
617.25	21669.73
617.445	21454.69
617.641	21094.25
617.836	21454.69
618.031	20868.97
618.226	21538.66
618.421	20985.71
618.616	21239.65
618.811	20684.66
619.006	21004.14
619.201	20426.61
619.396	20592.5
619.591	20447.09
619.786	20526.96
619.981	20416.37
620.176	20399.99
620.371	20266.87
620.566	20123.51
620.761	20064.12
620.956	20010.87
621.151	19871.61
621.346	19976.06
621.541	19580.8
621.735	20010.87
621.93	19453.83
622.125	19562.37
622.32	19195.78
622.515	19490.69
622.709	19261.32
622.904	19150.73
623.099	19058.57
623.294	18947.98
623.488	18909.07
623.683	18947.98
623.878	18417.55
624.072	18501.52
624.267	18155.41
624.462	18448.27
624.656	18024.34
624.851	18304.92
625.046	18032.54
625.24	17698.72
625.435	18108.31
625.629	17932.19
625.824	17467.3
626.018	17837.98
626.213	17391.52
626.407	17352.61
626.602	17045.41
626.796	17201.06
626.991	17235.88
627.185	16764.84
627.38	16811.95
627.574	16680.88
627.768	16654.25
627.963	16504.75
628.157	16400.3
628.352	16641.96
628.546	15943.61
628.74	16461.74
628.935	16291.76
629.129	16050.1
629.323	15949.75
629.517	15943.61
629.712	15777.72
629.906	15916.98
630.1	15687.61
630.294	15605.69
630.489	15413.18
630.683	15404.99
630.877	15398.85
631.071	15407.04
631.265	15329.22
631.459	15198.15
631.653	15110.08
631.848	14983.11
632.042	14856.14
632.236	14968.77
632.43	14534.6
632.624	14843.85
632.818	14753.74
633.012	14477.26
633.206	14550.99
633.4	14352.34
633.594	14487.5
633.788	14118.87
633.982	14381.01
634.176	14274.51
634.369	14090.2
634.563	13952.98
634.757	13846.49
634.951	13869.02
635.145	13647.83
635.339	13852.63
635.533	13787.1
635.726	13709.27
635.92	13297.63
636.114	13338.59
636.308	13119.46
636.501	13318.11
636.695	13162.47
636.889	13144.03
637.083	13015.01
637.276	12785.64
637.47	12677.1
637.664	12720.1
637.857	12908.52
638.051	12701.67
638.244	12570.6
638.438	12613.61
638.632	12480.49
638.825	12316.65
639.019	12294.13
639.212	12292.08
639.406	12079.09
639.599	12208.11
639.793	11991.03
639.986	11917.3
640.18	11851.77
640.373	11866.1
640.567	11577.34
640.76	11741.18
640.954	11589.63
641.147	11630.59
641.34	11552.76
641.534	11548.67
641.727	11589.63
641.92	11302.91
642.114	11243.52
642.307	11286.53
642.5	11165.7
642.694	10672.14
642.887	10987.52
643.08	11114.5
643.273	10782.73
643.467	10721.29
643.66	10682.38
643.853	10520.59
644.046	10698.76
644.239	10766.34
644.432	10463.24
644.626	10448.91
644.819	10579.98
645.012	10471.43
645.205	10385.42
645.398	10192.91
645.591	10209.29
645.784	10170.38
645.977	10016.79
646.17	10143.76
646.363	9908.24
646.556	9732.12
646.749	9873.43
646.942	10020.88
647.135	9834.52
647.328	9535.51
647.521	9701.4
647.714	9508.89
647.907	9621.53
648.099	9463.83
648.292	9443.35
648.485	9381.92
648.678	9152.54
648.871	9304.09
649.064	9209.89
649.256	9117.73
649.449	9148.45
649.642	9021.47
649.835	8824.87
650.027	8923.17
650.22	9029.66
650.413	9000.99
650.605	8808.48
650.798	8796.2
650.991	8734.76
651.183	8726.57
651.376	8704.04
651.568	8763.43
651.761	8507.43
651.954	8613.93
652.146	8415.27
652.339	8187.95
652.531	8472.62
652.724	8316.97
652.916	8284.2
653.109	8198.19
653.301	8120.37
653.494	8294.44
653.686	8040.5
653.879	8022.06
654.071	7948.34
654.263	8046.64
654.456	7854.13
654.648	8038.45
654.84	7929.91
655.033	8032.3
655.225	7680.05
655.417	7800.88
655.61	7766.07
655.802	7635
655.994	7555.13
656.186	7596.09
656.379	7639.09
656.571	7612.47
656.763	7335.99
656.955	7284.8
657.148	7510.07
657.34	7368.76
657.532	7262.27
657.724	7278.65
657.916	7163.97
658.108	7182.4
658.3	7221.31
658.492	7178.3
658.684	7139.39
658.876	6895.68
659.068	7049.28
659.26	6963.26
659.452	6899.78
659.644	6959.17
659.836	6955.07
660.028	6910.02
660.22	6703.17
660.412	6729.8
660.604	6809.67
660.796	6684.74
660.988	6819.91
661.18	6596.68
661.372	6666.31
661.563	6529.1
661.755	6395.98
661.947	6441.03
662.139	6432.84
662.331	6410.31
662.522	6428.74
662.714	6297.67
662.906	6481.99
663.097	6350.92
663.289	6205.52
663.481	6109.26
663.673	6174.8
663.864	5906.51
664.056	6049.87
664.247	6064.21
664.439	5941.33
664.631	6066.25
664.822	6043.73
665.014	5953.62
665.205	6109.26
665.397	5845.07
665.588	5843.03
665.78	5746.77
665.971	5679.19
666.163	5677.14
666.354	5703.76
666.546	5689.43
666.737	5732.44
666.929	5683.28
667.12	5740.63
667.311	5490.77
667.503	5533.78
667.694	5539.93
667.885	5625.94
668.077	5476.44
668.268	5435.48
668.459	5449.82
668.651	5363.8
668.842	5478.49
669.033	5335.13
669.224	5343.32
669.416	5466.2
669.607	5257.31
669.798	5283.93
669.989	5441.62
670.18	5103.71
670.371	5058.65
670.563	5185.63
670.754	5163.1
670.945	5072.99
671.136	5066.85
671.327	4933.73
671.518	5109.85
671.709	5042.27
671.9	5027.93
672.091	4843.62
672.282	4821.09
672.473	4892.77
672.664	4925.54
672.855	5036.13
673.046	5017.69
673.237	4862.05
673.428	4851.81
673.619	4806.75
673.809	4743.27
674	4796.51
674.191	4913.25
674.382	4778.08
674.573	4868.19
674.764	4751.46
674.954	4814.95
675.145	4556.9
675.336	4710.5
675.527	4524.13
675.717	4630.63
675.908	4616.29
676.099	4655.2
676.289	4501.61
676.48	4561
676.671	4440.17
676.861	4581.48
677.052	4405.35
677.243	4458.6
677.433	4436.07
677.624	4526.18
677.814	4237.42
678.005	4446.31
678.195	4446.31
678.386	4362.34
678.576	4360.3
678.767	4255.85
678.957	4329.58
679.148	4208.75
679.338	4368.49
679.529	4327.53
679.719	4171.88
679.909	4280.43
680.1	4315.24
680.29	4253.8
680.481	4393.06
680.671	4192.36
680.861	4233.32
681.052	4229.23
681.242	4108.4
681.432	4251.75
681.622	4163.69
681.813	4040.81
682.003	4157.55
682.193	3942.51
682.383	4235.37
682.573	4098.16
682.764	4034.67
682.954	4077.68
683.144	4102.25
683.334	4130.92
683.524	4040.81
683.714	3985.52
683.904	4132.97
684.094	4016.24
684.284	4173.93
684.474	3938.41
684.664	3977.33
684.854	3905.65
685.044	3909.74
685.234	3942.51
685.424	3954.8
685.614	4122.73
685.804	3999.85
685.994	3829.87
686.184	3881.07
686.374	3948.65
686.564	3864.69
686.753	3803.25
686.943	3723.38
687.133	3680.37
687.323	3903.6
687.513	3729.52
687.702	3795.06
687.892	3805.3
688.082	3688.56
688.272	3758.19
688.461	3706.99
688.651	3762.29
688.841	3602.55
689.03	3627.12
689.22	3598.45
689.41	3657.84
689.599	3715.19
689.789	3635.32
689.979	3520.63
690.168	3706.99
690.358	3530.87
690.547	3397.75
690.737	3627.12
690.926	3612.79
691.116	3575.92
691.305	3516.53
691.495	3551.35
691.684	3344.5
691.874	3522.68
692.063	3467.38
692.252	3571.83
692.442	3518.58
692.631	3559.54
692.82	3453.05
693.01	3391.61
693.199	3457.14
693.388	3510.39
693.578	3342.46
693.767	3403.89
693.956	3389.56
694.146	3311.74
694.335	3405.94
694.524	3295.35
694.713	3385.46
694.902	3432.57
695.092	3448.95
695.281	3340.41
695.47	3367.03
695.659	3242.11
695.848	3311.74
696.037	3278.97
696.226	3367.03
696.415	3309.69
696.604	3416.18
696.793	3291.26
696.982	3303.54
697.171	3244.15
697.36	3158.14
697.549	3182.71
697.738	3149.95
697.927	3311.74
698.116	3147.9
698.305	3156.09
698.494	3240.06
698.683	3106.94
698.872	3278.97
699.061	3143.8
699.25	3174.52
699.438	3186.81
699.627	3248.25
699.816	3139.71
700.005	3231.87
700.193	3221.63
700.382	3215.48
700.571	3135.61
700.76	3168.38
700.948	3166.33
701.137	3061.88
701.326	3197.05
701.514	3209.34
701.703	3131.51
701.892	3092.6
702.08	3168.38
702.269	3276.92
702.457	3166.33
702.646	3055.74
702.834	3065.98
703.023	3145.85
703.212	3156.09
703.4	3135.61
703.589	3233.91
703.777	3117.18
703.965	3068.03
704.154	3008.64
704.342	3106.94
704.531	3123.32
704.719	3082.36
704.907	3068.03
705.096	3108.99
705.284	2951.29
705.472	3049.6
705.661	3065.98
705.849	3065.98
706.037	3051.64
706.226	2967.68
706.414	3057.79
706.602	2902.14
706.79	2994.3
706.979	3008.64
707.167	2926.72
707.355	2963.58
707.543	2855.04
707.731	3008.64
707.919	2867.33
708.107	2945.15
708.296	2855.04
708.484	2947.2
708.672	3074.17
708.86	2969.73
709.048	3016.83
709.236	2918.53
709.424	2941.05
709.612	2951.29
709.8	2904.19
709.988	2779.26
710.176	2961.53
710.364	2850.94
710.551	2791.55
710.739	2881.66
710.927	2805.89
711.115	2777.22
711.303	2787.46
711.491	2705.54
711.679	2926.72
711.866	2863.23
712.054	2707.59
712.242	2795.65
712.43	2893.95
712.617	2721.92
712.805	2709.63
712.993	2836.61
713.181	2758.78
713.368	2785.41
713.556	2738.3
713.744	2805.89
713.931	2764.93
714.119	2816.13
714.306	2742.4
714.494	2674.82
714.682	2703.49
714.869	2801.79
715.057	2705.54
715.244	2697.35
715.432	2748.54
715.619	2648.19
715.807	2754.69
715.994	2672.77
716.182	2541.7
716.369	2576.52
716.556	2707.59
716.744	2578.56
716.931	2566.28
717.119	2637.95
717.306	2558.08
717.493	2576.52
717.681	2619.52
717.868	2601.09
718.055	2529.41
718.242	2617.47
718.43	2560.13
718.617	2515.08
718.804	2551.94
718.991	2558.08
719.179	2472.07
719.366	2455.69
719.553	2562.18
719.74	2445.45
719.927	2551.94
720.114	2443.4
720.301	2441.35
720.488	2476.16
720.676	2459.78
720.863	2443.4
721.05	2435.21
721.237	2564.23
721.424	2517.12
721.611	2418.82
721.798	2410.63
721.985	2445.45
722.172	2295.94
722.358	2422.92
722.545	2470.02
722.732	2304.14
722.919	2379.91
723.106	2328.71
723.293	2402.44
723.48	2365.57
723.667	2416.77
723.853	2492.55
724.04	2343.05
724.227	2293.9
724.414	2330.76
724.6	2291.85
724.787	2502.79
724.974	2332.81
725.161	2211.98
725.347	2209.93
725.534	2371.72
725.72	2238.6
725.907	2318.47
726.094	2285.7
726.28	2269.32
726.467	2209.93
726.653	2177.16
726.84	2373.77
727.027	2205.83
727.213	2254.98
727.4	2191.5
727.586	2267.27
727.773	2230.41
727.959	2254.98
728.145	2312.33
728.332	2214.02
728.518	2220.17
728.705	2185.35
728.891	2224.26
729.077	2216.07
729.264	2091.15
729.45	2109.58
729.636	2070.67
729.823	2099.34
730.009	2158.73
730.195	2150.54
730.382	2154.63
730.568	2240.65
730.754	2050.19
730.94	2025.61
731.126	2125.96
731.313	2144.39
731.499	2156.68
731.685	2111.63
731.871	2091.15
732.057	2076.81
732.243	2025.61
732.429	2052.24
732.615	2132.11
732.801	2048.14
732.987	2044.04
733.173	2091.15
733.359	2076.81
733.545	2050.19
733.731	1953.93
733.917	1955.98
734.103	2017.42
734.289	2033.8
734.475	1964.17
734.661	2113.67
734.847	2066.57
735.033	1980.56
735.219	2031.76
735.404	2021.52
735.59	1972.36
735.776	2150.54
735.962	2009.23
736.148	2033.8
736.333	1894.54
736.519	1972.36
736.705	1966.22
736.89	1915.02
737.076	2007.18
737.262	1880.21
737.447	1919.12
737.633	1800.34
737.819	1927.31
738.004	1788.05
738.19	1970.32
738.375	1955.98
738.561	1921.17
738.747	1878.16
738.932	1906.83
739.118	1962.12
739.303	1771.66
739.489	1779.86
739.674	1722.51
739.859	1777.81
740.045	1876.11
740.23	1886.35
740.416	1765.52
740.601	1792.14
740.786	1831.05
740.972	1699.98
741.157	1734.8
741.342	1790.1
741.528	1736.85
741.713	1890.45
741.898	1853.58
742.084	1763.47
742.269	1697.94
742.454	1747.09
742.639	1710.22
742.824	1718.42
743.01	1751.18
743.195	1745.04
743.38	1747.09
743.565	1573.01
743.75	1622.16
743.935	1695.89
744.12	1742.99
744.305	1697.94
744.49	1581.2
744.675	1732.75
744.86	1642.64
745.045	1609.87
745.23	1616.02
745.415	1521.81
745.6	1663.12
745.785	1607.83
745.97	1581.2
746.155	1493.14
746.34	1593.49
746.525	1525.91
746.71	1509.52
746.895	1489.04
747.079	1474.71
747.264	1489.04
747.449	1587.35
747.634	1530
747.819	1437.84
748.003	1484.95
748.188	1505.43
748.373	1474.71
748.557	1495.19
748.742	1538.2
748.927	1460.37
749.111	1349.78
749.296	1300.63
749.481	1415.32
749.665	1374.36
749.85	1437.84
750.034	1417.37
750.219	1360.02
750.404	1386.65
750.588	1370.26
750.773	1286.3
750.957	1321.11
751.141	1341.59
751.326	1427.6
751.51	1222.81
751.695	1210.52
751.879	1247.38
752.064	1310.87
752.248	1329.3
752.432	1347.73
752.617	1261.72
752.801	1185.94
752.985	1257.62
753.17	1288.34
753.354	1290.39
753.538	1233.05
753.722	1130.65
753.907	1126.55
754.091	1116.31
754.275	1136.79
754.459	1056.92
754.643	1173.66
754.828	1243.29
755.012	1151.13
755.196	1046.68
755.38	1101.98
755.564	1065.11
755.748	1118.36
755.932	1042.59
756.116	1116.31
756.3	1106.07
756.484	1116.31
756.668	1034.39
756.852	993.44
757.036	1110.17
757.22	1056.92
757.404	1079.45
757.588	913.56
757.772	1067.16
757.956	917.66
758.14	1063.07
758.323	979.1
758.507	940.19
758.691	979.1
758.875	1028.25
759.059	1026.2
759.242	903.32
759.426	956.57
759.61	958.62
759.794	901.28
759.977	966.81
760.161	1038.49
760.345	872.61
760.528	880.8
760.712	952.48
760.895	929.95
761.079	886.94
761.263	848.03
761.446	823.45
761.63	837.79
761.813	848.03
761.997	811.17
762.18	911.52
762.364	927.9
762.547	872.61
762.731	813.21
762.914	807.07
763.098	860.32
763.281	845.98
763.464	745.63
763.648	817.31
763.831	809.12
764.015	862.37
764.198	714.91
764.381	833.69
764.564	786.59
764.748	755.87
764.931	780.45
765.114	805.02
765.297	759.97
765.481	790.69
765.664	755.87
765.847	757.92
766.03	866.46
766.213	829.6
766.397	686.24
766.58	731.3
766.763	716.96
766.946	723.1
767.129	696.48
767.312	807.07
767.495	747.68
767.678	774.3
767.861	725.15
768.044	731.3
768.227	770.21
768.41	815.26
768.593	733.34
768.776	739.49
768.959	815.26
769.142	819.36
769.324	755.87
769.507	692.38
769.69	710.82
769.873	768.16
770.056	747.68
770.239	735.39
770.421	764.06
770.604	694.43
770.787	735.39
770.97	690.34
771.152	688.29
771.335	657.57
771.518	706.72
771.7	714.91
771.883	723.1
772.066	684.19
772.248	594.08
772.431	682.14
772.613	676
772.796	632.99
772.978	661.66
773.161	604.32
773.343	714.91
773.526	698.53
773.708	577.7
773.891	587.94
774.073	583.84
774.256	632.99
774.438	610.47
774.621	622.75
774.803	635.04
774.985	624.8
775.168	608.42
775.35	643.23
775.532	624.8
775.715	577.7
775.897	608.42
776.079	522.4
776.261	600.23
776.444	628.9
776.626	506.02
776.808	555.17
776.99	632.99
777.173	534.69
777.355	573.6
777.537	575.65
777.719	569.51
777.901	458.92
778.083	520.35
778.265	536.74
778.447	581.79
778.629	534.69
778.811	534.69
778.993	585.89
779.175	487.59
779.357	465.06
779.539	477.35
779.721	481.44
779.903	559.27
780.085	471.2
780.267	493.73
780.449	495.78
780.631	528.55
780.812	506.02
780.994	403.62
781.176	460.96
781.358	477.35
781.54	393.38
781.721	407.72
781.903	415.91
782.085	420
782.267	469.16
782.448	475.3
782.63	489.64
782.812	329.89
782.993	510.11
783.175	454.82
783.357	323.75
783.538	493.73
783.72	379.04
783.901	448.68
784.083	436.39
784.264	422.05
784.446	364.71
784.627	346.28
784.809	338.09
784.99	413.86
785.172	372.9
785.353	420
785.535	352.42
785.716	342.18
785.897	424.1
786.079	315.56
786.26	409.76
786.441	374.95
786.623	411.81
786.804	305.32
786.985	399.52
787.167	456.87
787.348	436.39
787.529	342.18
787.71	405.67
787.891	333.99
788.073	305.32
788.254	315.56
788.435	403.62
788.616	338.09
788.797	325.8
788.978	340.13
789.159	258.21
789.34	346.28
789.522	313.51
789.703	356.52
789.884	282.79
790.065	340.13
790.246	331.94
790.427	305.32
790.607	346.28
790.788	379.04
790.969	247.97
791.15	354.47
791.331	313.51
791.512	266.41
791.693	284.84
791.874	307.37
792.054	350.37
792.235	315.56
792.416	354.47
792.597	266.41
792.778	209.06
792.958	315.56
793.139	272.55
793.32	241.83
793.5	256.17
793.681	362.66
793.862	250.02
794.042	305.32
794.223	207.02
794.404	276.65
794.584	184.49
794.765	256.17
794.945	247.97
795.126	290.98
795.306	221.35
795.487	329.89
795.667	209.06
795.848	217.26
796.028	247.97
796.209	266.41
796.389	239.78
796.57	229.54
796.75	176.3
796.93	254.12
797.111	225.45
797.291	202.92
797.471	174.25
797.652	221.35
797.832	153.77
798.012	217.26
798.192	227.5
798.373	266.41
798.553	164.01
798.733	264.36
798.913	192.68
799.093	174.25
799.274	209.06
799.454	223.4
799.634	190.63
799.814	204.97
799.994	241.83
800.174	239.78
800.354	133.29
800.534	118.95
800.714	198.82
800.894	223.4
801.074	127.14
801.254	213.16
801.434	198.82
801.614	166.06
801.794	194.73
801.974	657.57
802.154	233.64
802.334	170.15
802.514	174.25
802.693	180.39
802.873	141.48
803.053	166.06
803.233	164.01
803.413	184.49
803.592	166.06
803.772	90.28
803.952	247.97
804.131	190.63
804.311	135.34
804.491	188.58
804.67	166.06
804.85	143.53
805.03	143.53
805.209	157.86
805.389	127.14
805.568	215.21
805.748	145.58
805.928	164.01
806.107	147.62
806.287	100.52
806.466	96.43
806.646	188.58
806.825	137.38
807.004	131.24
807.184	149.67
807.363	125.1
807.543	116.9
807.722	75.95
807.901	141.48
808.081	153.77
808.26	71.85
808.439	176.3
808.619	186.54
808.798	155.82
808.977	127.14
809.156	168.1
809.336	104.62
809.515	194.73
809.694	123.05
809.873	127.14
810.052	123.05
810.231	125.1
810.411	129.19
810.59	209.06
810.769	153.77
810.948	190.63
811.127	59.56
811.306	110.76
811.485	149.67
811.664	149.67
811.843	63.66
812.022	84.14
812.201	147.62
812.38	137.38
812.559	69.8
812.737	141.48
812.916	161.96
813.095	137.38
813.274	145.58
813.453	129.19
813.632	100.52
813.811	75.95
813.989	59.56
814.168	92.33
814.347	69.8
814.526	59.56
814.704	127.14
814.883	102.57
815.062	153.77
815.24	80.04
815.419	94.38
815.598	151.72
815.776	125.1
815.955	84.14
816.133	131.24
816.312	47.27
816.49	51.37
816.669	73.9
816.847	129.19
817.026	73.9
817.204	63.66
817.383	176.3
817.561	75.95
817.74	100.52
817.918	61.61
818.097	67.75
818.275	82.09
818.453	149.67
818.632	69.8
818.81	75.95
818.988	84.14
819.167	75.95
819.345	166.06
819.523	94.38
819.701	123.05
819.879	67.75
820.058	135.34
820.236	26.79
820.414	98.47
820.592	149.67
820.77	102.57
820.948	71.85
821.127	157.86
821.305	69.8
821.483	129.19
821.661	100.52
821.839	34.99
822.017	67.75
822.195	53.42
822.373	141.48
822.551	108.71
822.729	110.76
822.907	45.23
823.085	166.06
823.262	84.14
823.44	26.79
823.618	61.61
823.796	55.47
823.974	75.95
824.152	20.65
824.329	34.99
824.507	108.71
824.685	39.08
824.863	43.18
825.04	-30.55
825.218	45.23
825.396	125.1
825.574	75.95
825.751	94.38
825.929	53.42
826.107	108.71
826.284	59.56
826.462	10.41
826.639	20.65
826.817	75.95
826.994	75.95
827.172	34.99
827.349	145.58
827.527	34.99
827.704	61.61
827.882	-12.12
828.059	86.19
828.237	53.42
828.414	88.23
828.591	8.36
828.769	30.89
828.946	-14.17
829.124	51.37
829.301	26.79
829.478	63.66
829.655	16.55
829.833	49.32
830.01	57.51
830.187	51.37
830.364	80.04
830.542	14.51
830.719	77.99
830.896	73.9
831.073	-10.07
831.25	-5.97
831.427	47.27
831.604	125.1
831.782	59.56
831.959	92.33
832.136	26.79
832.313	82.09
832.49	47.27
832.667	47.27
832.844	-42.84
833.021	86.19
833.198	34.99
833.374	22.7
833.551	82.09
833.728	92.33
833.905	14.51
834.082	34.99
834.259	32.94
834.436	55.47
834.612	-8.02
834.789	96.43
834.966	43.18
835.143	137.38
835.319	-22.36
835.496	49.32
835.673	102.57
835.85	133.29
836.026	47.27
836.203	34.99
836.38	4.27
836.556	53.42
836.733	32.94
836.909	110.76
837.086	26.79
837.262	-18.26
837.439	26.79
837.616	-14.17
837.792	47.27
837.968	22.7
838.145	-46.93
838.321	37.03
838.498	59.56
838.674	14.51
838.851	-26.45
839.027	30.89
839.203	45.23
839.38	43.18
839.556	-1.88
839.732	34.99
839.909	0.17
840.085	0.17
840.261	55.47
840.437	86.19
840.614	92.33
840.79	73.9
840.966	-46.93
841.142	22.7
841.318	-36.69
841.494	51.37
841.671	51.37
841.847	-14.17
842.023	-8.02
842.199	49.32
842.375	30.89
842.551	26.79
842.727	80.04
842.903	69.8
843.079	43.18
843.255	43.18
843.431	104.62
843.607	67.75
843.783	-14.17
843.959	34.99
844.134	47.27
844.31	104.62
844.486	39.08
844.662	49.32
844.838	-44.88
845.013	18.6
845.189	77.99
845.365	-16.21
845.541	86.19
845.716	-38.74
845.892	4.27
846.068	59.56
846.244	10.41
846.419	51.37
846.595	4.27
846.77	30.89
846.946	53.42
847.122	30.89
847.297	90.28
847.473	88.23
847.648	51.37
847.824	53.42
847.999	26.79
848.175	-14.17
848.35	12.46
848.526	63.66
848.701	-5.97
848.876	12.46
849.052	28.84
849.227	-26.45
849.403	-28.5
849.578	-12.12
849.753	4.27
849.929	75.95
850.104	37.03
850.279	-42.84
850.454	53.42
850.63	84.14
850.805	26.79
850.98	37.03
851.155	45.23
851.33	24.75
851.505	26.79
851.681	75.95
851.856	18.6
852.031	67.75
852.206	26.79
852.381	-12.12
852.556	34.99
852.731	51.37
852.906	-24.4
853.081	22.7
853.256	-14.17
853.431	43.18
853.606	32.94
853.781	-12.12
853.956	-38.74
854.131	59.56
854.305	-14.17
854.48	-38.74
854.655	53.42
854.83	-34.64
855.005	-24.4
855.18	65.71
855.354	-26.45
855.529	26.79
855.704	-14.17
855.879	18.6
856.053	-26.45
856.228	47.27
856.403	32.94
856.577	0.17
856.752	2.22
856.926	-14.17
857.101	-1.88
857.276	45.23
857.45	6.31
857.625	88.23
857.799	34.99
857.974	51.37
858.148	-22.36
858.323	28.84
858.497	-10.07
858.672	10.41
858.846	-22.36
859.02	-8.02
859.195	-61.27
859.369	16.55
859.543	2.22
859.718	22.7
859.892	10.41
860.066	-46.93
860.241	-67.41
860.415	-5.97
860.589	-48.98
860.763	-71.51
860.938	-28.5
861.112	4.27
861.286	20.65
861.46	10.41
861.634	14.51
861.808	34.99
861.982	84.14
862.157	92.33
862.331	-16.21
862.505	53.42
862.679	-44.88
862.853	-38.74
863.027	2.22
863.201	59.56
863.375	20.65
863.549	18.6
863.722	-36.69
863.896	-5.97
864.07	2.22
864.244	-34.64
864.418	12.46
864.592	-28.5
864.766	-3.93
864.939	20.65
865.113	-5.97
865.287	22.7
865.461	4.27
865.634	43.18
865.808	-12.12
865.982	-34.64
866.156	4.27
866.329	-20.31
866.503	6.31
866.676	94.38
866.85	-5.97
867.024	47.27
867.197	-14.17
867.371	55.47
867.544	18.6
867.718	22.7
867.891	110.76
868.065	-59.22
868.238	-48.98
868.412	80.04
868.585	37.03
868.759	-71.51
868.932	-32.6
869.105	18.6
869.279	28.84
869.452	-10.07
869.625	59.56
869.799	20.65
869.972	-28.5
870.145	-61.27
870.319	67.75
870.492	-46.93
870.665	-8.02
870.838	18.6
871.011	-5.97
871.185	10.41
871.358	10.41
871.531	30.89
871.704	-28.5
871.877	-18.26
872.05	-61.27
872.223	-12.12
872.396	10.41
872.569	28.84
872.742	-8.02
872.915	49.32
873.088	-12.12
873.261	-24.4
873.434	26.79
873.607	-14.17
873.78	-22.36
873.953	-8.02
874.126	-30.55
874.299	2.22
874.471	-5.97
874.644	-24.4
874.817	37.03
874.99	20.65
875.163	-59.22
875.335	-18.26
875.508	-75.6
875.681	2.22
875.853	14.51
876.026	10.41
876.199	-36.69
876.371	-26.45
876.544	2.22
876.717	-34.64
876.889	57.51
877.062	61.61
877.234	4.27
877.407	53.42
877.579	-28.5
877.752	-55.12
877.924	-5.97
878.097	-5.97
878.269	-26.45
878.442	41.13
878.614	0.17
878.786	-24.4
878.959	16.55
879.131	24.75
879.303	-63.32
879.476	-32.6
879.648	-20.31
879.82	-26.45
879.993	4.27
880.165	-12.12
880.337	67.75
880.509	10.41
880.681	-75.6
880.854	-67.41
881.026	34.99
881.198	28.84
881.37	18.6
881.542	-1.88
881.714	-12.12
881.886	-10.07
882.058	-28.5
882.23	-3.93
882.402	-14.17
882.574	-38.74
882.746	16.55
882.918	-44.88
883.09	-26.45
883.262	-79.7
883.434	-34.64
883.606	-3.93
883.778	-40.79
883.95	16.55
884.122	-69.46
884.293	14.51
884.465	18.6
884.637	37.03
884.809	69.8
884.98	-53.08
885.152	-12.12
885.324	61.61
885.496	-18.26
885.667	-24.4
885.839	-67.41
886.011	14.51
886.182	-18.26
886.354	-28.5
886.525	10.41
886.697	14.51
886.869	-61.27
887.04	14.51
887.212	12.46
887.383	37.03
887.555	-51.03
887.726	-51.03
887.897	-14.17
888.069	-22.36
888.24	-1.88
888.412	16.55
888.583	-5.97
888.754	2.22
888.926	-30.55
889.097	39.08
889.268	0.17
889.44	-57.17
889.611	-26.45
889.782	37.03
889.953	-30.55
890.125	92.33
890.296	-46.93
890.467	-3.93
890.638	20.65
890.809	-1.88
890.98	102.57
891.151	-26.45
891.323	10.41
891.494	26.79
891.665	-12.12
891.836	-44.88
892.007	10.41
892.178	-55.12
892.349	-5.97
892.52	-36.69
892.691	-14.17
892.862	4.27
893.032	-1.88
893.203	-28.5
893.374	-30.55
893.545	-16.21
893.716	-44.88
893.887	22.7
894.057	4.27
894.228	-22.36
894.399	-26.45
894.57	-5.97
894.74	14.51
894.911	4.27
895.082	-44.88
895.253	-28.5
895.423	26.79
895.594	43.18
895.764	28.84
895.935	-10.07
896.106	12.46
896.276	-5.97
896.447	-22.36
896.617	10.41
896.788	-75.6
896.958	-71.51
897.129	6.31
897.299	14.51
897.47	30.89
897.64	-40.79
897.81	-22.36
897.981	-1.88
898.151	-24.4
898.322	45.23
898.492	26.79
898.662	-71.51
898.832	-77.65
899.003	14.51
899.173	-14.17
899.343	-34.64
899.513	14.51
