Data from USB4F104151__129__14-19-01-738.txt Node

Date: Thu Mar 13 14:19:01 EDT 2025
User: louis
Spectrometer: USB4F10415
Trigger mode: 4
Integration Time (sec): 2.000000E-2
Scans to average: 1
Electric dark correction enabled: true
Nonlinearity correction enabled: false
Boxcar width: 0
XAxis mode: Wavelengths
Number of Pixels in Spectrum: 3648
>>>>>Begin Spectral Data<<<<<
178.204	-108.88
178.424	-108.88
178.644	-108.88
178.864	-65.88
179.084	-57.68
179.304	3.75
179.524	-0.34
179.744	-18.77
179.964	54.95
180.184	-26.96
180.404	52.91
180.624	3.75
180.844	54.95
181.064	-65.88
181.283	24.23
181.503	-57.68
181.723	-24.92
181.943	-76.12
182.163	-6.49
182.383	-57.68
182.602	120.49
182.822	59.05
183.042	38.57
183.262	54.95
183.482	69.29
183.701	24.23
183.921	20.14
184.141	11.95
184.361	40.62
184.58	-8.53
184.8	-10.58
185.02	57
185.239	30.38
185.459	65.19
185.679	38.57
185.898	26.28
186.118	61.1
186.338	-18.77
186.557	13.99
186.777	24.23
186.997	65.19
187.216	-16.73
187.436	-10.58
187.655	52.91
187.875	65.19
188.095	24.23
188.314	-10.58
188.534	63.15
188.753	13.99
188.973	40.62
189.192	73.39
189.412	11.95
189.631	36.52
189.851	18.09
190.07	110.25
190.29	13.99
190.509	-4.44
190.729	13.99
190.948	40.62
191.168	143.02
191.387	22.19
191.607	54.95
191.826	61.1
192.045	-37.2
192.265	-0.34
192.484	97.96
192.704	22.19
192.923	28.33
193.142	57
193.362	7.85
193.581	79.53
193.8	104.11
194.02	36.52
194.239	20.14
194.458	69.29
194.678	3.75
194.897	46.76
195.116	54.95
195.335	-6.49
195.555	48.81
195.774	-2.39
195.993	22.19
196.212	-2.39
196.432	-0.34
196.651	26.28
196.87	69.29
197.089	65.19
197.308	24.23
197.528	5.8
197.747	-69.97
197.966	5.8
198.185	11.95
198.404	3.75
198.623	5.8
198.842	57
199.062	-47.44
199.281	52.91
199.5	40.62
199.719	147.11
199.938	54.95
200.157	-4.44
200.376	13.99
200.595	73.39
200.814	32.43
201.033	40.62
201.252	79.53
201.471	36.52
201.69	79.53
201.909	36.52
202.128	79.53
202.347	22.19
202.566	44.71
202.785	-29.01
203.004	59.05
203.223	69.29
203.442	44.71
203.661	-59.73
203.879	24.23
204.098	77.48
204.317	-0.34
204.536	3.75
204.755	28.33
204.974	11.95
205.193	34.47
205.411	73.39
205.63	26.28
205.849	-47.44
206.068	11.95
206.287	-20.82
206.505	54.95
206.724	13.99
206.943	-4.44
207.162	-33.11
207.381	-0.34
207.599	13.99
207.818	-6.49
208.037	-22.87
208.255	7.85
208.474	-51.54
208.693	24.23
208.911	69.29
209.13	3.75
209.349	83.63
209.567	-8.53
209.786	-43.35
210.005	1.71
210.223	40.62
210.442	-69.97
210.661	36.52
210.879	75.43
211.098	-20.82
211.316	46.76
211.535	30.38
211.753	7.85
211.972	61.1
212.191	-8.53
212.409	-29.01
212.628	11.95
212.846	57
213.065	71.34
213.283	32.43
213.502	22.19
213.72	-18.77
213.938	24.23
214.157	20.14
214.375	52.91
214.594	54.95
214.812	85.67
215.031	106.15
215.249	61.1
215.467	69.29
215.686	18.09
215.904	16.04
216.122	34.47
216.341	-12.63
216.559	-8.53
216.778	57
216.996	-4.44
217.214	83.63
217.432	7.85
217.651	34.47
217.869	46.76
218.087	38.57
218.306	28.33
218.524	13.99
218.742	-76.12
218.96	97.96
219.179	26.28
219.397	3.75
219.615	11.95
219.833	24.23
220.051	3.75
220.27	32.43
220.488	44.71
220.706	32.43
220.924	52.91
221.142	7.85
221.36	34.47
221.578	36.52
221.796	-29.01
222.015	22.19
222.233	11.95
222.451	30.38
222.669	95.91
222.887	65.19
223.105	7.85
223.323	-10.58
223.541	26.28
223.759	-35.16
223.977	11.95
224.195	71.34
224.413	36.52
224.631	81.58
224.849	59.05
225.067	44.71
225.285	7.85
225.503	77.48
225.721	-45.4
225.939	-10.58
226.157	61.1
226.375	97.96
226.592	11.95
226.81	32.43
227.028	11.95
227.246	16.04
227.464	5.8
227.682	81.58
227.9	-51.54
228.117	22.19
228.335	61.1
228.553	44.71
228.771	81.58
228.989	36.52
229.206	36.52
229.424	54.95
229.642	38.57
229.86	-29.01
230.077	-6.49
230.295	13.99
230.513	54.95
230.731	48.81
230.948	67.24
231.166	13.99
231.384	40.62
231.601	20.14
231.819	81.58
232.037	26.28
232.254	-78.16
232.472	5.8
232.689	71.34
232.907	20.14
233.125	-37.2
233.342	1.71
233.56	-35.16
233.777	61.1
233.995	106.15
234.213	57
234.43	22.19
234.648	34.47
234.865	11.95
235.083	-8.53
235.3	9.9
235.518	-12.63
235.735	22.19
235.953	87.72
236.17	48.81
236.388	-26.96
236.605	-31.06
236.822	42.67
237.04	83.63
237.257	65.19
237.475	22.19
237.692	69.29
237.909	57
238.127	-78.16
238.344	3.75
238.562	81.58
238.779	3.75
238.996	-51.54
239.214	22.19
239.431	3.75
239.648	63.15
239.865	95.91
240.083	79.53
240.3	-45.4
240.517	20.14
240.735	20.14
240.952	7.85
241.169	3.75
241.386	-0.34
241.603	44.71
241.821	5.8
242.038	30.38
242.255	48.81
242.472	-43.35
242.689	54.95
242.907	61.1
243.124	-20.82
243.341	-10.58
243.558	-67.92
243.775	-29.01
243.992	1.71
244.209	46.76
244.426	81.58
244.643	48.81
244.86	42.67
245.078	63.15
245.295	-8.53
245.512	22.19
245.729	-2.39
245.946	69.29
246.163	30.38
246.38	-2.39
246.597	40.62
246.814	-0.34
247.031	32.43
247.248	-35.16
247.464	-43.35
247.681	38.57
247.898	30.38
248.115	32.43
248.332	-10.58
248.549	11.95
248.766	40.62
248.983	-26.96
249.2	3.75
249.417	52.91
249.633	-8.53
249.85	-18.77
250.067	32.43
250.284	40.62
250.501	-22.87
250.717	11.95
250.934	-20.82
251.151	20.14
251.368	69.29
251.585	13.99
251.801	-47.44
252.018	-4.44
252.235	18.09
252.451	3.75
252.668	48.81
252.885	112.3
253.102	20.14
253.318	75.43
253.535	-12.63
253.752	44.71
253.968	13.99
254.185	-0.34
254.401	38.57
254.618	46.76
254.835	3.75
255.051	52.91
255.268	-12.63
255.484	1.71
255.701	52.91
255.917	87.72
256.134	57
256.351	69.29
256.567	-14.68
256.784	79.53
257	-0.34
257.217	7.85
257.433	32.43
257.65	-2.39
257.866	48.81
258.082	63.15
258.299	65.19
258.515	69.29
258.732	-8.53
258.948	46.76
259.165	44.71
259.381	-12.63
259.597	1.71
259.814	44.71
260.03	-2.39
260.246	5.8
260.463	65.19
260.679	36.52
260.895	102.06
261.112	7.85
261.328	11.95
261.544	-57.68
261.761	20.14
261.977	104.11
262.193	-24.92
262.409	71.34
262.626	32.43
262.842	28.33
263.058	46.76
263.274	32.43
263.49	81.58
263.707	59.05
263.923	1.71
264.139	-18.77
264.355	20.14
264.571	30.38
264.787	13.99
265.004	20.14
265.22	59.05
265.436	46.76
265.652	24.23
265.868	95.91
266.084	42.67
266.3	54.95
266.516	20.14
266.732	-4.44
266.948	36.52
267.164	-8.53
267.38	46.76
267.596	22.19
267.812	71.34
268.028	-53.59
268.244	28.33
268.46	73.39
268.676	7.85
268.892	44.71
269.108	-84.31
269.324	16.04
269.54	-20.82
269.756	116.39
269.972	63.15
270.188	-4.44
270.403	-8.53
270.619	5.8
270.835	67.24
271.051	79.53
271.267	-20.82
271.483	-43.35
271.698	44.71
271.914	-4.44
272.13	1.71
272.346	28.33
272.562	20.14
272.777	85.67
272.993	69.29
273.209	5.8
273.425	13.99
273.64	-2.39
273.856	71.34
274.072	40.62
274.287	9.9
274.503	-4.44
274.719	108.2
274.934	-4.44
275.15	-18.77
275.366	20.14
275.581	13.99
275.797	18.09
276.012	-2.39
276.228	5.8
276.444	28.33
276.659	61.1
276.875	30.38
277.09	52.91
277.306	-51.54
277.521	89.77
277.737	52.91
277.952	-16.73
278.168	7.85
278.383	102.06
278.599	28.33
278.814	67.24
279.03	61.1
279.245	59.05
279.461	65.19
279.676	71.34
279.892	-0.34
280.107	61.1
280.322	61.1
280.538	48.81
280.753	40.62
280.969	52.91
281.184	44.71
281.399	13.99
281.615	26.28
281.83	11.95
282.045	20.14
282.26	50.86
282.476	5.8
282.691	40.62
282.906	61.1
283.122	44.71
283.337	-35.16
283.552	20.14
283.767	-4.44
283.983	52.91
284.198	3.75
284.413	30.38
284.628	-57.68
284.843	40.62
285.058	-10.58
285.274	-4.44
285.489	38.57
285.704	7.85
285.919	-78.16
286.134	26.28
286.349	44.71
286.564	44.71
286.779	48.81
286.995	-0.34
287.21	13.99
287.425	87.72
287.64	24.23
287.855	52.91
288.07	-4.44
288.285	11.95
288.5	52.91
288.715	93.87
288.93	-10.58
289.145	-26.96
289.36	73.39
289.575	46.76
289.79	24.23
290.004	22.19
290.219	24.23
290.434	69.29
290.649	63.15
290.864	7.85
291.079	52.91
291.294	97.96
291.509	54.95
291.724	32.43
291.938	52.91
292.153	20.14
292.368	32.43
292.583	20.14
292.798	7.85
293.012	30.38
293.227	-41.3
293.442	24.23
293.657	38.57
293.871	100.01
294.086	22.19
294.301	61.1
294.516	36.52
294.73	71.34
294.945	-20.82
295.16	54.95
295.374	32.43
295.589	54.95
295.804	-29.01
296.018	22.19
296.233	83.63
296.447	-4.44
296.662	22.19
296.877	52.91
297.091	102.06
297.306	18.09
297.52	44.71
297.735	11.95
297.949	22.19
298.164	44.71
298.378	-90.45
298.593	3.75
298.807	30.38
299.022	30.38
299.236	118.44
299.451	-20.82
299.665	11.95
299.88	-35.16
300.094	42.67
300.309	-4.44
300.523	-29.01
300.737	65.19
300.952	77.48
301.166	28.33
301.381	1.71
301.595	-65.88
301.809	67.24
302.024	61.1
302.238	50.86
302.452	110.25
302.667	9.9
302.881	36.52
303.095	65.19
303.309	34.47
303.524	-20.82
303.738	34.47
303.952	97.96
304.166	11.95
304.381	-59.73
304.595	110.25
304.809	-0.34
305.023	61.1
305.237	9.9
305.452	104.11
305.666	57
305.88	54.95
306.094	28.33
306.308	93.87
306.522	-20.82
306.736	11.95
306.95	-37.2
307.164	52.91
307.379	73.39
307.593	3.75
307.807	57
308.021	54.95
308.235	20.14
308.449	-92.5
308.663	22.19
308.877	122.54
309.091	87.72
309.305	63.15
309.519	95.91
309.733	83.63
309.947	59.05
310.161	63.15
310.374	79.53
310.588	36.52
310.802	-10.58
311.016	54.95
311.23	52.91
311.444	46.76
311.658	24.23
311.872	-26.96
312.085	97.96
312.299	59.05
312.513	122.54
312.727	26.28
312.941	48.81
313.154	-24.92
313.368	36.52
313.582	5.8
313.796	71.34
314.009	102.06
314.223	46.76
314.437	57
314.651	-69.97
314.864	-10.58
315.078	16.04
315.292	32.43
315.505	30.38
315.719	7.85
315.933	30.38
316.146	5.8
316.36	-0.34
316.573	54.95
316.787	3.75
317.001	71.34
317.214	-14.68
317.428	22.19
317.641	-2.39
317.855	16.04
318.068	-2.39
318.282	-33.11
318.495	83.63
318.709	40.62
318.922	61.1
319.136	40.62
319.349	50.86
319.563	13.99
319.776	-22.87
319.99	-4.44
320.203	3.75
320.417	-4.44
320.63	11.95
320.843	30.38
321.057	54.95
321.27	46.76
321.483	79.53
321.697	34.47
321.91	9.9
322.124	42.67
322.337	32.43
322.55	-2.39
322.763	-0.34
322.977	-59.73
323.19	-51.54
323.403	-12.63
323.617	-8.53
323.83	46.76
324.043	52.91
324.256	54.95
324.469	-65.88
324.683	46.76
324.896	28.33
325.109	28.33
325.322	-26.96
325.535	81.58
325.748	93.87
325.962	54.95
326.175	65.19
326.388	-18.77
326.601	26.28
326.814	57
327.027	-29.01
327.24	11.95
327.453	-12.63
327.666	-33.11
327.879	3.75
328.092	11.95
328.305	3.75
328.518	85.67
328.731	-12.63
328.944	77.48
329.157	16.04
329.37	81.58
329.583	100.01
329.796	97.96
330.009	9.9
330.222	52.91
330.435	-10.58
330.648	36.52
330.861	114.34
331.073	-26.96
331.286	48.81
331.499	26.28
331.712	16.04
331.925	81.58
332.138	108.2
332.35	102.06
332.563	16.04
332.776	93.87
332.989	20.14
333.202	57
333.414	40.62
333.627	46.76
333.84	26.28
334.053	75.43
334.265	36.52
334.478	22.19
334.691	44.71
334.903	61.1
335.116	22.19
335.329	-59.73
335.541	110.25
335.754	61.1
335.966	-57.68
336.179	67.24
336.392	40.62
336.604	11.95
336.817	44.71
337.029	69.29
337.242	9.9
337.454	73.39
337.667	-16.73
337.88	54.95
338.092	34.47
338.305	40.62
338.517	-10.58
338.729	5.8
338.942	18.09
339.154	-37.2
339.367	20.14
339.579	102.06
339.792	38.57
340.004	108.2
340.217	28.33
340.429	-8.53
340.641	30.38
340.854	-8.53
341.066	-43.35
341.278	77.48
341.491	57
341.703	91.82
341.915	48.81
342.128	54.95
342.34	-4.44
342.552	3.75
342.764	108.2
342.977	16.04
343.189	36.52
343.401	16.04
343.613	-0.34
343.826	18.09
344.038	52.91
344.25	42.67
344.462	9.9
344.674	44.71
344.886	48.81
345.099	104.11
345.311	79.53
345.523	11.95
345.735	7.85
345.947	61.1
346.159	112.3
346.371	-18.77
346.583	24.23
346.795	118.44
347.007	112.3
347.219	44.71
347.431	97.96
347.643	-2.39
347.855	65.19
348.067	83.63
348.279	102.06
348.491	3.75
348.703	18.09
348.915	5.8
349.127	85.67
349.339	-16.73
349.551	3.75
349.763	73.39
349.975	-39.25
350.187	104.11
350.399	22.19
350.61	44.71
350.822	71.34
351.034	20.14
351.246	-24.92
351.458	63.15
351.669	7.85
351.881	50.86
352.093	83.63
352.305	57
352.517	38.57
352.728	16.04
352.94	52.91
353.152	1.71
353.363	71.34
353.575	73.39
353.787	59.05
353.999	77.48
354.21	32.43
354.422	20.14
354.633	-43.35
354.845	48.81
355.057	-20.82
355.268	65.19
355.48	40.62
355.692	44.71
355.903	-0.34
356.115	16.04
356.326	-55.64
356.538	54.95
356.749	69.29
356.961	161.45
357.172	54.95
357.384	42.67
357.595	40.62
357.807	54.95
358.018	38.57
358.23	28.33
358.441	61.1
358.653	-4.44
358.864	59.05
359.075	26.28
359.287	48.81
359.498	-10.58
359.709	-39.25
359.921	-10.58
360.132	52.91
360.344	-8.53
360.555	36.52
360.766	30.38
360.977	13.99
361.189	65.19
361.4	65.19
361.611	63.15
361.823	-2.39
362.034	118.44
362.245	48.81
362.456	22.19
362.667	124.58
362.879	46.76
363.09	-67.92
363.301	73.39
363.512	79.53
363.723	28.33
363.935	52.91
364.146	130.73
364.357	-2.39
364.568	13.99
364.779	46.76
364.99	65.19
365.201	13.99
365.412	46.76
365.623	11.95
365.834	30.38
366.045	30.38
366.256	102.06
366.467	-20.82
366.678	-18.77
366.889	61.1
367.1	65.19
367.311	69.29
367.522	48.81
367.733	36.52
367.944	69.29
368.155	-29.01
368.366	77.48
368.577	63.15
368.788	1.71
368.999	118.44
369.209	77.48
369.42	44.71
369.631	89.77
369.842	20.14
370.053	30.38
370.264	52.91
370.474	71.34
370.685	54.95
370.896	52.91
371.107	36.52
371.317	16.04
371.528	52.91
371.739	-8.53
371.95	73.39
372.16	67.24
372.371	-4.44
372.582	44.71
372.792	48.81
373.003	52.91
373.214	112.3
373.424	65.19
373.635	67.24
373.846	59.05
374.056	3.75
374.267	128.68
374.477	89.77
374.688	-37.2
374.898	61.1
375.109	102.06
375.319	48.81
375.53	79.53
375.74	30.38
375.951	28.33
376.161	24.23
376.372	13.99
376.582	28.33
376.793	69.29
377.003	-4.44
377.214	32.43
377.424	50.86
377.635	50.86
377.845	-2.39
378.055	118.44
378.266	3.75
378.476	20.14
378.686	81.58
378.897	69.29
379.107	44.71
379.317	57
379.528	63.15
379.738	89.77
379.948	30.38
380.158	63.15
380.369	89.77
380.579	32.43
380.789	63.15
380.999	95.91
381.21	97.96
381.42	85.67
381.63	-4.44
381.84	93.87
382.05	30.38
382.261	77.48
382.471	95.91
382.681	52.91
382.891	95.91
383.101	108.2
383.311	54.95
383.521	54.95
383.731	11.95
383.941	89.77
384.151	87.72
384.361	-8.53
384.571	-63.83
384.781	44.71
384.991	81.58
385.201	77.48
385.411	122.54
385.621	108.2
385.831	44.71
386.041	77.48
386.251	77.48
386.461	81.58
386.671	52.91
386.881	-2.39
387.091	36.52
387.301	46.76
387.511	61.1
387.72	-0.34
387.93	149.16
388.14	52.91
388.35	67.24
388.56	57
388.769	87.72
388.979	28.33
389.189	106.15
389.399	32.43
389.609	34.47
389.818	11.95
390.028	22.19
390.238	57
390.447	79.53
390.657	54.95
390.867	50.86
391.076	63.15
391.286	71.34
391.496	71.34
391.705	71.34
391.915	136.87
392.125	87.72
392.334	38.57
392.544	104.11
392.753	143.02
392.963	22.19
393.172	42.67
393.382	81.58
393.591	130.73
393.801	-20.82
394.01	116.39
394.22	97.96
394.429	-6.49
394.639	36.52
394.848	5.8
395.058	1.71
395.267	-0.34
395.477	61.1
395.686	83.63
395.895	114.34
396.105	165.54
396.314	71.34
396.524	145.06
396.733	28.33
396.942	67.24
397.152	24.23
397.361	106.15
397.57	61.1
397.78	81.58
397.989	79.53
398.198	118.44
398.407	118.44
398.617	75.43
398.826	110.25
399.035	110.25
399.244	167.59
399.453	128.68
399.663	16.04
399.872	102.06
400.081	-6.49
400.29	81.58
400.499	69.29
400.708	108.2
400.917	75.43
401.127	118.44
401.336	81.58
401.545	116.39
401.754	85.67
401.963	87.72
402.172	81.58
402.381	118.44
402.59	126.63
402.799	188.07
403.008	77.48
403.217	143.02
403.426	71.34
403.635	93.87
403.844	71.34
404.053	138.92
404.262	104.11
404.471	161.45
404.68	175.78
404.888	171.69
405.097	134.82
405.306	151.21
405.515	143.02
405.724	132.78
405.933	165.54
406.142	157.35
406.35	134.82
406.559	151.21
406.768	224.94
406.977	159.4
407.185	167.59
407.394	161.45
407.603	192.17
407.812	216.74
408.02	237.22
408.229	198.31
408.438	204.46
408.646	290.47
408.855	151.21
409.064	202.41
409.272	241.32
409.481	259.75
409.69	249.51
409.898	194.22
410.107	356.01
410.315	308.9
410.524	315.05
410.733	388.77
410.941	376.48
411.15	349.86
411.358	298.66
411.567	466.6
411.775	374.44
411.984	366.25
412.192	382.63
412.401	327.33
412.609	382.63
412.818	476.84
413.026	456.36
413.234	485.03
413.443	468.64
413.651	462.5
413.86	540.32
414.068	493.22
414.276	544.42
414.485	536.23
414.693	634.53
414.901	597.67
415.11	708.26
415.318	618.15
415.526	716.45
415.734	693.92
415.943	650.91
416.151	667.3
416.359	777.89
416.567	880.29
416.776	824.99
416.984	843.42
417.192	855.71
417.4	925.34
417.608	904.86
417.817	880.29
418.025	919.2
418.233	1005.21
418.441	1021.6
418.649	1072.79
418.857	1201.82
419.065	1203.86
419.273	1140.38
419.481	1205.91
419.689	1216.15
419.897	1314.45
420.105	1363.61
420.313	1400.47
420.521	1545.88
420.729	1527.44
420.937	1531.54
421.145	1601.17
421.353	1664.66
421.561	1748.62
421.769	1717.9
421.977	1816.21
422.185	1767.06
422.393	1953.42
422.601	2002.57
422.809	2012.81
423.017	2031.24
423.224	2190.99
423.432	2305.67
423.64	2262.66
423.848	2481.8
424.056	2428.55
424.263	2330.25
424.471	2561.67
424.679	2492.04
424.887	2680.45
425.094	2965.12
425.302	2870.91
425.51	2961.02
425.718	3053.18
425.925	3044.99
426.133	3223.16
426.341	3360.38
426.548	3593.84
426.756	3485.3
426.964	3509.88
427.171	3581.56
427.379	3855.98
427.586	3960.43
427.794	4097.64
428.001	4157.04
428.209	4421.22
428.417	4316.78
428.624	4656.74
428.832	4548.2
429.039	4468.33
429.247	4607.59
429.454	5021.28
429.662	5385.82
429.869	5017.18
430.076	5254.75
430.284	5226.07
430.491	5477.98
430.699	5748.31
430.906	5828.18
431.114	5844.56
431.321	6065.74
431.528	6252.11
431.736	6696.52
431.943	6690.37
432.15	6604.36
432.358	6753.86
432.565	6993.47
432.772	6989.38
432.979	7505.46
433.187	7597.62
433.394	7650.87
433.601	8033.84
433.808	8039.98
434.016	8064.56
434.223	8377.9
434.43	8988.19
434.637	8668.71
434.844	9383.45
435.052	9422.36
435.259	9356.83
435.466	9571.86
435.673	9506.33
435.88	10055.19
436.087	10446.35
436.294	10477.07
436.501	10380.81
436.708	10493.45
436.915	10948.1
437.122	11318.78
437.329	11320.83
437.537	11589.11
437.743	12002.8
437.95	11767.29
438.157	12367.34
438.364	12760.55
438.571	12707.3
438.778	12656.11
438.985	14087.64
439.192	13491.68
439.399	14024.15
439.606	13493.72
439.813	14403.02
440.02	15381.95
440.227	15023.56
440.433	14939.59
440.64	15263.17
440.847	14886.34
441.054	15414.72
441.261	16459.18
441.467	16215.48
441.674	16799.15
441.881	17323.43
442.088	17296.8
442.294	17003.94
442.501	17540.51
442.708	17864.09
442.914	18812.3
443.121	19365.25
443.328	18845.07
443.534	20295.03
443.741	19361.16
443.948	19385.73
444.154	20645.23
444.361	20366.71
444.568	20909.42
444.774	20890.99
444.981	21130.6
445.187	21327.21
445.394	22490.45
445.6	22281.56
445.807	24319.29
446.013	23047.5
446.22	23676.23
446.426	24792.37
446.633	24894.77
446.839	25554.21
447.046	24692.02
447.252	25664.8
447.459	26041.63
447.665	25984.29
447.871	26758.42
448.078	28220.67
448.284	27059.47
448.491	27405.58
448.697	28792.05
448.903	29213.93
449.11	29480.17
449.316	28787.96
449.522	29211.88
449.728	30190.81
449.935	30215.39
450.141	30061.79
450.347	31210.7
450.553	30043.36
450.76	30385.37
450.966	31468.75
451.172	31143.12
451.378	31859.91
451.584	31155.41
451.791	31950.02
451.997	32183.49
452.203	32435.39
452.409	32459.96
452.615	32095.42
452.821	31253.71
453.027	30749.91
453.233	32765.11
453.44	31415.5
453.646	31818.95
453.852	31829.19
454.058	32199.87
454.264	31362.25
454.47	32212.16
454.676	31347.92
454.882	32308.41
455.088	29717.73
455.294	30026.98
455.5	30663.89
455.705	30670.04
455.911	29295.85
456.117	28884.21
456.323	28499.19
456.529	27211.02
456.735	28161.28
456.941	27675.91
457.147	27366.67
457.352	26570.01
457.558	26291.48
457.764	26408.22
457.97	25779.49
458.176	25091.37
458.381	25302.31
458.587	24134.97
458.793	24141.11
458.999	22842.7
459.204	24507.7
459.41	23704.9
459.616	22211.93
459.821	22334.81
460.027	22064.47
460.233	21742.94
460.438	20428.15
460.644	20893.04
460.85	19772.8
461.055	19713.41
461.261	19711.36
461.466	18042.26
461.672	17569.18
461.878	18658.7
462.083	17499.55
462.289	17022.37
462.494	17057.19
462.7	16131.51
462.905	15889.85
463.111	16321.97
463.316	16453.04
463.522	16137.65
463.727	15955.38
463.932	16070.07
464.138	16108.98
464.343	15900.09
464.549	15656.38
464.754	15887.8
464.959	15943.1
465.165	15701.44
465.37	15353.28
465.575	14906.82
465.781	15220.16
465.986	15414.72
466.191	14790.09
466.397	14382.54
466.602	13635.03
466.807	14577.1
467.012	14388.69
467.218	14405.07
467.423	13991.38
467.628	14294.48
467.833	14675.4
468.038	14210.51
468.244	13825.5
468.449	14486.99
468.654	14089.68
468.859	13788.63
469.064	13723.1
469.269	13282.78
469.474	13178.34
469.679	13612.51
469.885	13145.57
470.09	13534.68
470.295	13198.82
470.5	12924.39
470.705	13006.31
470.91	12772.84
471.115	12459.5
471.32	12668.39
471.525	12758.5
471.73	12254.7
471.935	12361.2
472.139	11912.69
472.344	11996.66
472.549	12117.49
472.754	11947.51
472.959	11572.73
473.164	11152.9
473.369	11251.2
473.574	11644.41
473.778	11456
473.983	11431.42
474.188	11345.41
474.393	11144.7
474.598	10847.75
474.802	10835.46
475.007	10862.08
475.212	10931.72
475.417	10528.27
475.621	10399.24
475.826	10522.12
476.031	10124.82
476.235	10169.87
476.44	10223.12
476.645	10014.23
476.849	10210.83
477.054	9936.4
477.259	9655.83
477.463	9686.55
477.668	9729.56
477.872	9772.57
478.077	9596.44
478.282	9061.92
478.486	9195.04
478.691	9096.74
478.895	9188.89
479.1	8975.91
479.304	9047.58
479.509	8711.72
479.713	8939.04
479.918	8789.54
480.122	8668.71
480.326	8644.13
480.531	8830.5
480.735	8551.98
480.94	8666.66
481.144	8859.17
481.348	8500.78
481.553	8590.89
481.757	8336.94
481.961	8275.5
482.166	8506.92
482.37	8379.95
482.574	8326.7
482.778	8214.06
482.983	8533.54
483.187	8375.85
483.391	8277.55
483.595	8166.96
483.8	8130.09
484.004	8416.81
484.208	8490.54
484.412	8517.16
484.616	8326.7
484.821	8359.47
485.025	8218.16
485.229	8345.13
485.433	8220.21
485.637	8138.29
485.841	8212.01
486.045	8304.17
486.249	8261.16
486.453	8039.98
486.657	8386.09
486.861	8455.72
487.065	8035.89
487.269	8283.69
487.473	8162.86
487.677	8343.08
487.881	8322.6
488.085	8105.52
488.289	8388.14
488.493	8328.75
488.697	8275.5
488.901	8468.01
489.105	8453.67
489.309	8404.52
489.512	8398.38
489.716	8449.58
489.92	8214.06
490.124	8248.88
490.328	8429.1
490.531	8646.18
490.735	8351.28
490.939	8525.35
491.143	8582.7
491.346	8506.92
491.55	8830.5
491.754	8562.22
491.958	8597.03
492.161	8812.07
492.365	8738.34
492.569	8666.66
492.772	8764.96
492.976	8920.61
493.18	8848.93
493.383	8943.14
493.587	9098.78
493.79	9313.82
493.994	8853.03
494.197	9223.71
494.401	9227.81
494.605	9027.1
494.808	9313.82
495.012	9322.01
495.215	9367.07
495.419	9383.45
495.622	9395.74
495.825	9676.31
496.029	9727.51
496.232	9991.7
496.436	9715.22
496.639	9960.98
496.843	10087.95
497.046	10063.38
497.249	10321.42
497.453	10247.69
497.656	10479.11
497.859	10282.51
498.063	10640.9
498.266	10790.41
498.469	10690.06
498.673	10880.52
498.876	10964.48
499.079	11009.54
499.282	10927.62
499.485	11294.21
499.689	11335.17
499.892	11394.56
500.095	11732.47
500.298	11853.3
500.501	11617.79
500.705	12154.35
500.908	12232.18
501.111	12205.55
501.314	12455.4
501.517	12590.57
501.72	12652.01
501.923	12529.13
502.126	13116.9
502.329	13067.75
502.532	13299.17
502.735	13229.54
502.938	13454.81
503.141	13743.58
503.344	13907.41
503.547	13800.92
503.75	14128.6
503.953	14255.57
504.156	14443.98
504.359	14491.09
504.562	14550.48
504.765	14790.09
504.968	14990.79
505.17	15164.87
505.373	15013.32
505.576	15736.25
505.779	15396.29
505.982	15703.48
506.185	15955.38
506.387	16102.84
506.59	16160.18
506.793	16309.68
506.996	16260.53
507.198	16752.04
507.401	16723.37
507.604	16965.03
507.807	17589.66
508.009	17343.91
508.212	17677.72
508.415	17788.32
508.617	17943.96
508.82	18093.46
509.022	17726.88
509.225	18597.26
509.428	18951.56
509.63	18779.53
509.833	18726.28
510.035	19168.65
510.238	19172.74
510.44	19383.68
510.643	19758.46
510.845	19801.47
511.048	19721.6
511.25	20186.49
511.453	20415.86
511.655	20876.65
511.858	20604.27
512.06	21024.11
512.262	21052.78
512.465	21464.42
512.667	21523.81
512.87	21468.52
513.072	21722.46
513.274	22367.57
513.477	22146.39
513.679	22482.26
513.881	22725.97
514.084	22889.81
514.286	22838.61
514.488	22904.14
514.69	23788.86
514.893	23604.55
515.095	23764.29
515.297	23975.23
515.499	24339.77
515.701	24458.55
515.904	24747.31
516.106	24769.84
516.308	25179.43
516.51	25595.17
516.712	25220.39
516.914	25988.38
517.116	26154.27
517.318	26332.44
517.52	26432.79
517.722	26649.88
517.925	26725.65
518.127	27200.78
518.329	27053.33
518.531	27219.21
518.733	27555.08
518.935	27862.27
519.136	27989.25
519.338	28091.65
519.54	28671.22
519.742	28759.28
519.944	29201.65
520.146	29299.95
520.348	29623.53
520.55	29471.98
520.752	29730.02
520.954	30348.51
521.155	30059.74
521.357	30334.17
521.559	30573.78
521.761	30893.27
521.963	31046.86
522.164	31067.34
522.366	31188.17
522.568	31646.92
522.77	31530.19
522.971	32189.63
523.173	32175.3
523.375	32177.34
523.576	32220.35
523.778	32306.37
523.98	32931
524.181	32959.67
524.383	32910.52
524.584	33453.23
524.786	33326.25
524.988	33223.86
525.189	33668.26
525.391	34036.9
525.592	34124.96
525.794	34299.04
525.995	34288.8
526.197	34239.65
526.398	34174.11
526.6	34653.34
526.801	34808.98
527.003	35277.97
527.204	34749.59
527.406	35208.34
527.607	35247.25
527.808	35275.92
528.01	35087.51
528.211	35294.35
528.412	36164.74
528.614	35892.36
528.815	36301.95
529.016	36250.75
529.218	35810.44
529.419	36002.95
529.62	36123.78
529.822	35998.85
530.023	36592.76
530.224	36422.78
530.425	36424.83
530.626	36170.88
530.828	35841.16
531.029	36828.28
531.23	36457.6
531.431	36639.87
531.632	36586.62
531.833	36963.45
532.035	37008.5
532.236	36826.23
532.437	36779.13
532.638	36693.11
532.839	36795.51
533.04	37133.43
533.241	36328.58
533.442	37256.31
533.643	37063.8
533.844	37143.67
534.045	37207.15
534.246	36897.91
534.447	37151.86
534.648	37051.51
534.849	36979.83
535.05	36889.72
535.251	37084.28
535.451	36871.29
535.652	36885.62
535.853	36713.59
536.054	37215.35
536.255	37176.44
536.456	36660.35
536.657	37586.03
536.857	37153.91
537.058	37325.94
537.259	37123.19
537.46	37045.37
537.66	36969.59
537.861	36928.63
538.062	36947.06
538.263	37123.19
538.463	37039.22
538.664	36721.79
538.865	37194.87
539.065	37448.82
539.266	36740.22
539.466	37082.23
539.667	36531.33
539.868	37172.34
540.068	37149.81
540.269	37096.56
540.469	37244.02
540.67	36742.27
540.87	37266.55
541.071	37010.55
541.271	37080.18
541.472	36844.66
541.672	36795.51
541.873	36547.71
542.073	36447.36
542.274	37252.21
542.474	36328.58
542.675	36703.35
542.875	36859
543.075	36981.88
543.276	36490.37
543.476	37086.32
543.676	36529.28
543.877	36940.92
544.077	37184.63
544.277	36764.79
544.478	36658.3
544.678	36961.4
544.878	36881.53
545.078	36795.51
545.279	36433.02
545.479	36631.68
545.679	36467.84
545.879	36564.09
546.079	36437.12
546.28	36605.05
546.48	36496.51
546.68	36643.96
546.88	36680.83
547.08	36815.99
547.28	36299.9
547.48	36291.71
547.68	36703.35
547.88	36340.86
548.081	36525.18
548.281	36746.36
548.481	36328.58
548.681	36523.13
548.881	36629.63
549.081	36697.21
549.28	36344.96
549.48	36551.8
549.68	36320.38
549.88	37205.11
550.08	36297.86
550.28	36449.41
550.48	36406.4
550.68	36551.8
550.88	35978.37
551.08	36480.13
551.279	36299.9
551.479	36203.65
551.679	36148.36
551.879	36437.12
552.079	36207.75
552.278	36199.55
552.478	36437.12
552.678	35974.28
552.878	36273.28
553.077	36007.05
553.277	35660.94
553.477	36406.4
553.676	36115.59
553.876	36222.08
554.076	36162.69
554.275	36332.67
554.475	35355.79
554.674	36146.31
554.874	36201.6
555.074	35665.03
555.273	36230.27
555.473	36093.06
555.672	35810.44
555.872	35701.9
556.071	35964.04
556.271	35929.22
556.47	35538.06
556.67	35568.78
556.869	35675.27
557.068	35937.41
557.268	35161.23
557.467	35818.63
557.667	35689.61
557.866	35628.17
558.065	35454.09
558.265	35546.25
558.464	35150.99
558.663	35732.62
558.863	35167.38
559.062	35607.69
559.261	35110.03
559.461	35380.37
559.66	35028.12
559.859	35343.5
560.058	34862.23
560.258	35064.98
560.457	34759.83
560.656	34929.81
560.855	35050.64
561.054	34981.01
561.253	35120.27
561.453	34872.47
561.652	34991.25
561.851	34827.42
562.05	34548.89
562.249	34735.26
562.448	34864.28
562.647	34735.26
562.846	34593.95
563.045	34475.16
563.244	34397.34
563.443	34712.73
563.642	34210.98
563.841	34493.6
564.04	34204.83
564.239	34397.34
564.438	33772.71
564.637	34004.13
564.836	34122.91
565.035	33694.89
565.234	34163.87
565.432	33975.46
565.631	33905.83
565.83	33395.89
566.029	33707.18
566.228	33649.83
566.427	33617.07
566.625	33567.91
566.824	32877.75
567.023	33731.75
567.222	32734.39
567.42	33438.89
567.619	33189.04
567.818	33070.26
568.016	33139.89
568.215	33516.72
568.414	33115.31
568.612	33279.15
568.811	32695.48
569.01	32951.48
569.208	32369.85
569.407	33017.01
569.605	32609.47
569.804	32924.85
570.002	32249.02
570.201	32634.04
570.4	32156.86
570.598	32046.27
570.797	32027.84
570.995	32373.95
571.193	31966.4
571.392	32357.56
571.59	31786.18
571.789	32005.31
571.987	32195.78
572.186	31775.94
572.384	32089.28
572.582	31825.09
572.781	31732.93
572.979	31407.31
573.177	31376.59
573.376	31399.12
573.574	31196.37
573.772	31571.14
573.971	30948.56
574.169	31241.42
574.367	30907.6
574.565	31087.82
574.763	31083.73
574.962	30385.37
575.16	30815.44
575.358	30698.71
575.556	30414.04
575.754	31087.82
575.952	30145.76
576.151	30579.93
576.349	30190.81
576.547	30248.16
576.745	30026.98
576.943	30072.03
577.141	30180.57
577.339	30559.45
577.537	29994.21
577.735	30383.32
577.933	29875.43
578.131	30141.66
578.329	29680.87
578.527	29396.2
578.725	29621.48
578.923	29865.19
579.121	29539.56
579.319	29275.37
579.516	29660.39
579.714	29623.53
579.912	29121.77
580.11	29093.1
580.308	28998.9
580.506	29107.44
580.704	28804.34
580.901	29037.81
581.099	29046
581.297	28579.06
581.495	28470.52
581.692	28790
581.89	28497.14
582.088	28736.76
582.285	28562.68
582.483	28620.02
582.681	28224.76
582.878	28450.04
583.076	27768.07
583.274	28280.06
583.471	28071.17
583.669	28110.08
583.866	27729.16
584.064	27929.86
584.262	27589.89
584.459	27888.9
584.657	27475.21
584.854	27366.67
585.052	27143.44
585.249	27018.51
585.447	27606.28
585.644	27194.64
585.841	27049.23
586.039	27485.45
586.236	26694.93
586.434	27045.13
586.631	26940.69
586.828	26588.44
587.026	26705.17
587.223	26774.8
587.42	26334.49
587.618	26389.78
587.815	26596.63
588.012	26520.85
588.21	26426.65
588.407	26547.48
588.604	25931.04
588.801	25836.83
588.999	26119.45
589.196	26172.7
589.393	25830.69
589.59	25967.9
589.787	25867.55
589.984	25650.47
590.182	25466.15
590.379	25398.57
590.576	25572.64
590.773	25349.42
590.97	25462.05
591.167	25439.53
591.364	25222.44
591.561	25095.47
591.758	25083.18
591.955	24970.54
592.152	25111.85
592.349	24806.7
592.546	24835.38
592.743	24995.12
592.94	24657.2
593.137	24507.7
593.334	24859.95
593.531	24579.38
593.727	24360.25
593.924	24581.43
594.121	24395.06
594.318	24198.46
594.515	24220.99
594.712	24317.24
594.908	24198.46
595.105	24102.2
595.302	23909.69
595.499	23887.17
595.696	23764.29
595.892	23770.43
596.089	23745.86
596.286	23829.82
596.482	23817.54
596.679	23508.29
596.876	23336.26
597.072	23381.32
597.269	23649.6
597.466	23186.76
597.662	22986.06
597.859	23096.65
598.055	23323.97
598.252	22809.93
598.448	22928.72
598.645	23027.02
598.841	22902.09
599.038	22924.62
599.234	22732.11
599.431	22496.6
599.627	22138.2
599.824	22533.46
600.02	22285.65
600.217	22689.1
600.413	22197.59
600.609	22076.76
600.806	22125.91
601.002	22349.14
601.198	22027.61
601.395	21792.09
601.591	22015.32
601.787	21759.33
601.984	21593.44
602.18	21718.37
602.376	21712.22
602.572	21523.81
602.769	21679.46
602.965	21183.85
603.161	21374.31
603.357	21001.58
603.553	21192.04
603.75	21468.52
603.946	21056.87
604.142	21083.5
604.338	20651.38
604.534	20931.95
604.73	20868.46
604.926	20761.97
605.122	20954.47
605.318	20569.46
605.514	20491.63
605.71	20469.11
605.906	20598.13
606.102	20331.89
606.298	20401.52
606.494	20376.95
606.69	20301.17
606.886	20237.69
607.082	20086.14
607.278	20387.19
607.474	19877.24
607.67	20180.34
607.866	19877.24
608.062	20045.18
608.257	19826.04
608.453	19965.31
608.649	20024.7
608.845	19752.32
609.041	19565.95
609.236	19832.19
609.432	19623.3
609.628	19801.47
609.824	19613.06
610.019	19488.13
610.215	19385.73
610.411	19535.23
610.606	19428.74
610.802	19402.11
610.998	19463.55
611.193	19602.82
611.389	19068.3
611.584	19137.93
611.78	19422.59
611.976	19303.81
612.171	19371.4
612.367	19291.52
612.562	19213.7
612.758	18984.33
612.953	18972.04
613.149	19111.3
613.344	18806.16
613.539	18939.27
613.735	18828.68
613.93	18828.68
614.126	18533.78
614.321	18890.12
614.517	18814.35
614.712	18705.81
614.907	18613.65
615.103	18650.51
615.298	18603.41
615.493	18795.92
615.688	18271.64
615.884	18838.92
616.079	18181.53
616.274	18531.73
616.47	18476.43
616.665	18437.52
616.86	18099.61
617.055	18138.52
617.25	18298.26
617.445	18501.01
617.641	17790.36
617.836	17978.78
618.031	18013.59
618.226	18095.51
618.421	17808.79
618.616	17890.71
618.811	17831.32
619.006	17886.62
619.201	17640.86
619.396	17771.93
619.591	17442.21
619.786	17884.57
619.981	17198.5
620.176	17687.96
620.371	17243.56
620.566	17175.97
620.761	17221.03
620.956	17147.3
621.151	16938.41
621.346	17208.74
621.541	17040.81
621.735	16948.65
621.93	16643.5
622.125	16592.3
622.32	16768.43
622.515	16496.05
622.709	16416.18
622.904	16231.86
623.099	16182.71
623.294	16211.38
623.488	16219.57
623.683	16008.63
623.878	15709.63
624.072	15709.63
624.267	15816.12
624.462	15889.85
624.656	15375.81
624.851	15373.76
625.046	15689.15
625.24	15457.73
625.435	15269.31
625.629	15347.14
625.824	15068.61
626.018	15105.48
626.213	14712.27
626.407	15257.03
626.602	14749.13
626.796	14851.53
626.991	14923.21
627.185	14470.61
627.38	14472.65
627.574	14636.49
627.768	14259.67
627.963	14142.93
628.157	14216.66
628.352	14003.67
628.546	13936.09
628.74	13938.13
628.935	13661.66
629.129	13954.52
629.323	13723.1
629.517	13637.08
629.712	13577.69
629.906	13526.49
630.1	13395.42
630.294	13293.02
630.489	13272.54
630.683	13360.61
630.877	13141.47
631.071	13026.79
631.265	13061.6
631.459	12985.83
631.653	12940.77
631.848	12928.49
632.042	12701.16
632.236	12840.42
632.43	12629.48
632.624	12803.56
632.818	12455.4
633.012	12580.33
633.206	12223.98
633.4	12531.18
633.594	12293.62
633.788	12209.65
633.982	12025.33
634.176	12103.15
634.369	11914.74
634.563	11892.21
634.757	11773.43
634.951	11851.25
635.145	11871.73
635.339	11775.48
635.533	11556.35
635.726	11830.77
635.92	11494.91
636.114	11539.96
636.308	11294.21
636.501	11425.28
636.695	11435.52
636.889	11238.91
637.083	11130.37
637.276	10993.15
637.47	11173.38
637.664	11193.86
637.857	11023.87
638.051	11050.5
638.244	10778.12
638.438	10833.41
638.632	10757.64
638.825	10845.7
639.019	10509.83
639.212	10505.74
639.406	10571.27
639.599	10571.27
639.793	10573.32
639.986	10401.29
640.18	10472.97
640.373	10403.34
640.567	9895.44
640.76	10046.99
640.954	10044.95
641.147	10026.51
641.34	9975.31
641.534	9993.75
641.727	9920.02
641.92	9899.54
642.114	10008.08
642.307	9889.3
642.5	9702.93
642.694	9424.41
642.887	9514.52
643.08	9688.6
643.273	9670.17
643.467	9383.45
643.66	9377.31
643.853	9287.2
644.046	9211.42
644.239	9242.14
644.432	9295.39
644.626	9231.9
644.819	9236
645.012	9008.67
645.205	9059.87
645.398	8969.76
645.591	8947.23
645.784	8912.42
645.977	8853.03
646.17	8777.25
646.363	8654.37
646.556	8597.03
646.749	8734.25
646.942	8644.13
647.135	8617.51
647.328	8607.27
647.521	8453.67
647.714	8504.87
647.907	8445.48
648.099	8097.33
648.292	8402.47
648.485	8396.33
648.678	8287.79
648.871	8039.98
649.064	8175.15
649.256	8158.77
649.449	8103.47
649.642	8021.55
649.835	8126
650.027	7894.58
650.22	7820.85
650.413	7697.97
650.605	7757.36
650.798	7910.96
650.991	7634.49
651.183	7757.36
651.376	7681.59
651.568	7679.54
651.761	7470.65
651.954	7595.57
652.146	7497.27
652.339	7540.28
652.531	7405.11
652.724	7339.58
652.916	7228.99
653.109	7269.95
653.301	7272
653.494	7136.83
653.686	7142.97
653.879	7163.45
654.071	7343.67
654.263	7093.82
654.456	7009.86
654.648	7038.53
654.84	6704.71
655.033	6884.93
655.225	6878.79
655.417	6909.51
655.61	6852.16
655.802	6872.64
655.994	6764.1
656.186	6872.64
656.379	6813.25
656.571	6577.73
656.763	6549.06
656.955	6596.17
657.148	6553.16
657.34	6547.01
657.532	6571.59
657.724	6403.66
657.916	6477.38
658.108	6475.34
658.3	6372.94
658.492	6270.54
658.684	6164.04
658.876	6256.2
659.068	6237.77
659.26	6155.85
659.452	6180.43
659.644	6145.61
659.836	6184.52
660.028	6092.37
660.22	5901.9
660.412	6022.73
660.604	5811.79
660.796	5928.53
660.988	5815.89
661.18	5787.22
661.372	5881.42
661.563	5817.94
661.755	5848.66
661.947	5729.88
662.139	5815.89
662.331	5607
662.522	5543.51
662.714	5697.11
662.906	5592.66
663.097	5592.66
663.289	5631.57
663.481	5361.24
663.673	5523.03
663.864	5363.29
664.056	5561.94
664.247	5467.74
664.439	5316.19
664.631	5242.46
664.822	5414.49
665.014	5406.3
665.205	5293.66
665.397	5242.46
665.588	5328.47
665.78	5105.24
665.971	5107.29
666.163	5295.71
666.354	5172.83
666.546	5074.53
666.737	5017.18
666.929	5017.18
667.12	5109.34
667.311	5049.95
667.503	4978.27
667.694	4824.67
667.885	4992.61
668.077	4959.84
668.268	4976.22
668.459	4922.98
668.651	4984.41
668.842	4675.17
669.033	4806.24
669.224	4812.39
669.416	4906.59
669.607	4660.84
669.798	4574.82
669.989	4882.02
670.18	4750.95
670.371	4607.59
670.563	4529.77
670.754	4636.26
670.945	4542.05
671.136	4499.05
671.327	4701.79
671.518	4544.1
671.709	4468.33
671.9	4599.4
672.091	4632.16
672.282	4623.97
672.473	4458.09
672.664	4507.24
672.855	4345.45
673.046	4378.22
673.237	4542.05
673.428	4224.62
673.619	4435.56
673.809	4271.72
674	4214.38
674.191	4261.48
674.382	4142.7
674.573	4415.08
674.764	4120.17
674.954	4310.63
675.145	4185.71
675.336	4107.88
675.527	4093.55
675.717	4116.08
675.908	4050.54
676.099	4099.69
676.289	4154.99
676.48	3995.25
676.671	3929.71
676.861	4085.36
677.052	3929.71
677.243	4032.11
677.433	3960.43
677.624	4132.46
677.814	4021.87
678.005	3962.48
678.195	4009.58
678.386	3907.18
678.576	3956.33
678.767	4120.17
678.957	3829.36
679.148	3952.24
679.338	4073.07
679.529	3901.04
679.719	3806.83
679.909	4017.77
680.1	3864.18
680.29	3980.91
680.481	3812.98
680.671	3817.07
680.861	3898.99
681.052	3862.13
681.242	3864.18
681.432	3817.07
681.622	3894.9
681.813	3767.92
682.003	3829.36
682.193	3796.59
682.383	3808.88
682.573	3812.98
682.764	3735.15
682.954	3759.73
683.144	3755.63
683.334	3640.95
683.524	3649.14
683.714	3632.76
683.904	3714.67
684.094	3665.52
684.284	3640.95
684.474	3714.67
684.664	3538.55
684.854	3403.38
685.044	3595.89
685.234	3608.18
685.424	3591.8
685.614	3645.04
685.804	3567.22
685.994	3546.74
686.184	3526.26
686.374	3452.53
686.564	3395.19
686.753	3575.41
686.943	3405.43
687.133	3466.87
687.323	3448.44
687.513	3487.35
687.702	3405.43
687.892	3360.38
688.082	3348.09
688.272	3298.94
688.461	3352.18
688.651	3382.9
688.841	3372.66
689.03	3280.5
689.22	3329.66
689.41	3206.78
689.599	3221.11
689.789	3208.83
689.979	3176.06
690.168	3171.96
690.358	3247.74
690.547	3280.5
690.737	3245.69
690.926	3186.3
691.116	3174.01
691.305	3241.59
691.495	3128.95
691.684	2979.45
691.874	3022.46
692.063	3167.87
692.252	3053.18
692.442	3001.98
692.631	3042.94
692.82	2981.5
693.01	3067.52
693.199	2983.55
693.388	2889.34
693.578	2856.58
693.767	2881.15
693.956	2913.92
694.146	2911.87
694.335	2891.39
694.524	3010.17
694.713	3034.75
694.902	2891.39
695.092	2842.24
695.281	2887.29
695.47	2866.81
695.659	2907.77
695.848	2829.95
696.037	2821.76
696.226	2801.28
696.415	2809.47
696.604	2821.76
696.793	2813.57
696.982	2842.24
697.171	2870.91
697.36	2694.79
697.549	2791.04
697.738	2825.86
697.927	2680.45
698.116	2735.74
698.305	2750.08
698.494	2780.8
698.683	2698.88
698.872	2801.28
699.061	2817.66
699.25	2657.92
699.438	2614.91
699.627	2596.48
699.816	2709.12
700.005	2756.22
700.193	2655.87
700.382	2649.73
700.571	2676.35
700.76	2647.68
700.948	2739.84
701.137	2690.69
701.326	2584.2
701.514	2619.01
701.703	2670.21
701.892	2604.67
702.08	2748.03
702.269	2545.28
702.457	2471.56
702.646	2641.54
702.834	2475.65
703.023	2594.44
703.212	2588.29
703.4	2535.04
703.589	2412.17
703.777	2600.58
703.965	2563.72
704.154	2569.86
704.342	2578.05
704.531	2576
704.719	2453.13
704.907	2518.66
705.096	2403.97
705.284	2526.85
705.472	2371.21
705.661	2547.33
705.849	2571.91
706.037	2438.79
706.226	2420.36
706.414	2563.72
706.602	2320.01
706.79	2363.01
706.979	2414.21
707.167	2453.13
707.355	2250.38
707.543	2395.78
707.731	2422.41
707.919	2465.41
708.107	2277
708.296	2320.01
708.484	2408.07
708.672	2416.26
708.86	2469.51
709.048	2489.99
709.236	2346.63
709.424	2485.89
709.612	2487.94
709.8	2387.59
709.988	2297.48
710.176	2459.27
710.364	2379.4
710.551	2332.3
710.739	2422.41
710.927	2363.01
711.115	2338.44
711.303	2418.31
711.491	2297.48
711.679	2483.84
711.866	2373.25
712.054	2391.69
712.242	2338.44
712.43	2315.91
712.617	2453.13
712.805	2299.53
712.993	2281.1
713.181	2281.1
713.368	2305.67
713.556	2348.68
713.744	2342.53
713.931	2387.59
714.119	2262.66
714.306	2268.81
714.494	2262.66
714.682	2303.62
714.869	2391.69
715.057	2363.01
715.244	2242.18
715.432	2387.59
715.619	2272.9
715.807	2240.14
715.994	2203.27
716.182	2242.18
716.369	2322.06
716.556	2313.86
716.744	2186.89
716.931	2215.56
717.119	2305.67
717.306	2334.34
717.493	2379.4
717.681	2246.28
717.868	2289.29
718.055	2350.73
718.242	2233.99
718.43	2215.56
718.617	2338.44
718.804	2311.82
718.991	2262.66
719.179	2317.96
719.366	2322.06
719.553	2305.67
719.74	2199.18
719.927	2272.9
720.114	2190.99
720.301	2272.9
720.488	2252.42
720.676	2215.56
720.863	2297.48
721.05	2242.18
721.237	2178.7
721.424	2190.99
721.611	2285.19
721.798	2178.7
721.985	2129.55
722.172	2154.12
722.358	2182.79
722.545	2231.94
722.732	2250.38
722.919	2117.26
723.106	2238.09
723.293	2180.75
723.48	2145.93
723.667	2219.66
723.853	2291.34
724.04	2199.18
724.227	2330.25
724.414	2162.31
724.6	2207.37
724.787	2088.59
724.974	2158.22
725.161	2223.75
725.347	2182.79
725.534	2186.89
725.72	2229.9
725.907	2240.14
726.094	2184.84
726.28	2109.07
726.467	2174.6
726.653	2201.23
726.84	2297.48
727.027	2258.57
727.213	2205.32
727.4	2207.37
727.586	2223.75
727.773	2219.66
727.959	2197.13
728.145	2229.9
728.332	2141.83
728.518	2182.79
728.705	2221.7
728.891	2031.24
729.077	2225.8
729.264	2166.41
729.45	2162.31
729.636	2221.7
729.823	2076.3
730.009	2184.84
730.195	2027.15
730.382	2244.23
730.568	2109.07
730.754	2166.41
730.94	2094.73
731.126	2252.42
731.313	2133.64
731.499	2158.22
731.685	2176.65
731.871	2131.59
732.057	2174.6
732.243	2117.26
732.429	2100.87
732.615	2125.45
732.801	2201.23
732.987	2119.31
733.173	2168.46
733.359	2184.84
733.545	2133.64
733.731	2113.16
733.917	2094.73
734.103	2094.73
734.289	2246.28
734.475	2166.41
734.661	2125.45
734.847	2078.35
735.033	2277
735.219	2109.07
735.404	2100.87
735.59	2059.92
735.776	2113.16
735.962	2031.24
736.148	2137.74
736.333	2190.99
736.519	2092.68
736.705	2072.2
736.89	2080.39
737.076	2064.01
737.262	2043.53
737.447	2006.67
737.633	2113.16
737.819	2125.45
738.004	2047.63
738.19	2082.44
738.375	1973.9
738.561	2121.35
738.747	2084.49
738.932	2076.3
739.118	2125.45
739.303	2041.48
739.489	2055.82
739.674	2025.1
739.859	2045.58
740.045	2047.63
740.23	1963.66
740.416	1971.85
740.601	1978
740.786	1896.08
740.972	2055.82
741.157	1961.61
741.342	1920.65
741.528	1992.33
741.713	1955.47
741.898	1848.97
742.084	1875.6
742.269	1898.13
742.454	1941.13
742.639	1934.99
742.824	1840.78
743.01	1998.48
743.195	1980.04
743.38	1822.35
743.565	1924.75
743.75	1914.51
743.935	1820.3
744.12	1781.39
744.305	1855.12
744.49	1871.5
744.675	1838.73
744.86	1869.45
745.045	1760.91
745.23	1738.38
745.415	1861.26
745.6	1791.63
745.785	1822.35
745.97	1814.16
746.155	1824.4
746.34	1781.39
746.525	1681.04
746.71	1801.87
746.895	1736.34
747.079	1676.95
747.264	1650.32
747.449	1687.18
747.634	1672.85
747.819	1699.47
748.003	1613.46
748.188	1666.71
748.373	1685.14
748.557	1601.17
748.742	1582.74
748.927	1631.89
749.111	1621.65
749.296	1640.08
749.481	1486.48
749.665	1580.69
749.85	1586.83
750.034	1613.46
750.219	1562.26
750.404	1533.59
750.588	1670.8
750.773	1466
750.957	1533.59
751.141	1537.68
751.326	1506.96
751.51	1496.72
751.695	1463.96
751.879	1482.39
752.064	1537.68
752.248	1504.92
752.432	1437.33
752.617	1449.62
752.801	1447.57
752.985	1355.41
753.17	1396.37
753.354	1339.03
753.538	1357.46
753.722	1347.22
753.907	1412.76
754.091	1396.37
754.275	1365.65
754.459	1308.31
754.643	1261.21
754.828	1349.27
755.012	1248.92
755.196	1293.97
755.38	1220.25
755.564	1267.35
755.748	1193.62
755.932	1224.34
756.116	1253.02
756.3	1212.06
756.484	1214.1
756.668	1246.87
756.852	1119.9
757.036	1156.76
757.22	1263.26
757.404	1177.24
757.588	1187.48
757.772	1220.25
757.956	1162.9
758.14	1121.95
758.323	1158.81
758.507	1152.67
758.691	1005.21
758.875	1185.43
759.059	1132.19
759.242	1164.95
759.426	997.02
759.61	1056.41
759.794	1126.04
759.977	1191.58
760.161	1074.84
760.345	1044.12
760.528	1060.51
760.712	990.88
760.895	994.97
761.079	1003.16
761.263	958.11
761.446	1027.74
761.63	1021.6
761.813	1013.4
761.997	937.63
762.18	923.29
762.364	1015.45
762.547	970.4
762.731	992.92
762.914	896.67
763.098	1054.36
763.281	1029.79
763.464	1003.16
763.648	999.07
763.831	986.78
764.015	960.16
764.198	980.64
764.381	915.1
764.564	868
764.748	980.64
764.931	886.43
765.114	831.13
765.297	913.05
765.481	904.86
765.664	954.01
765.847	951.96
766.03	966.3
766.213	868
766.397	855.71
766.58	837.28
766.763	814.75
766.946	863.9
767.129	847.52
767.312	831.13
767.495	892.57
767.678	833.18
767.861	849.57
768.044	741.02
768.227	908.96
768.41	833.18
768.593	827.04
768.776	794.27
768.959	839.33
769.142	872.09
769.324	865.95
769.507	779.93
769.69	769.69
769.873	855.71
770.056	814.75
770.239	769.69
770.421	814.75
770.604	792.22
770.787	757.41
770.97	763.55
771.152	786.08
771.335	876.19
771.518	675.49
771.7	769.69
771.883	818.85
772.066	685.73
772.248	822.94
772.431	769.69
772.613	734.88
772.796	749.22
772.978	773.79
773.161	820.89
773.343	765.6
773.526	747.17
773.708	757.41
773.891	579.23
774.073	650.91
774.256	628.39
774.438	757.41
774.621	593.57
774.803	704.16
774.985	677.54
775.168	691.87
775.35	687.78
775.532	671.39
775.715	626.34
775.897	646.82
776.079	657.06
776.261	583.33
776.444	593.57
776.626	622.24
776.808	659.1
776.99	538.27
777.173	663.2
777.355	587.43
777.537	532.13
777.719	624.29
777.901	511.65
778.083	540.32
778.265	536.23
778.447	585.38
778.629	593.57
778.811	607.91
778.993	630.43
779.175	601.76
779.357	577.19
779.539	556.71
779.721	591.52
779.903	546.47
780.085	437.92
780.267	593.57
780.449	552.61
780.631	540.32
780.812	552.61
780.994	493.22
781.176	499.36
781.358	532.13
781.54	513.7
781.721	536.23
781.903	499.36
782.085	546.47
782.267	480.93
782.448	421.54
782.63	452.26
782.812	485.03
782.993	528.03
783.175	503.46
783.357	390.82
783.538	489.12
783.72	341.67
783.901	489.12
784.083	417.44
784.264	439.97
784.446	372.39
784.627	407.2
784.809	454.31
784.99	423.59
785.172	464.55
785.353	423.59
785.535	388.77
785.716	396.96
785.897	368.29
786.079	405.16
786.26	396.96
786.441	380.58
786.623	358.05
786.804	439.97
786.985	386.72
787.167	409.25
787.348	376.48
787.529	433.83
787.71	429.73
787.891	405.16
788.073	294.57
788.254	347.81
788.435	421.54
788.616	362.15
788.797	341.67
788.978	337.57
789.159	372.39
789.34	362.15
789.522	366.25
789.703	341.67
789.884	247.46
790.065	274.09
790.246	341.67
790.427	335.53
790.607	302.76
790.788	308.9
790.969	364.2
791.15	333.48
791.331	347.81
791.512	257.7
791.693	276.13
791.874	306.85
792.054	351.91
792.235	306.85
792.416	333.48
792.597	310.95
792.778	339.62
792.958	306.85
793.139	310.95
793.32	284.33
793.5	282.28
793.681	282.28
793.862	325.29
794.042	265.89
794.223	245.41
794.404	290.47
794.584	249.51
794.765	337.57
794.945	274.09
795.126	296.61
795.306	327.33
795.487	233.13
795.667	245.41
795.848	276.13
796.028	243.37
796.209	214.7
796.389	269.99
796.57	284.33
796.75	269.99
796.93	251.56
797.111	210.6
797.291	341.67
797.471	224.94
797.652	235.18
797.832	235.18
798.012	233.13
798.192	212.65
798.373	218.79
798.553	220.84
798.733	233.13
798.913	224.94
799.093	226.98
799.274	249.51
799.454	241.32
799.634	190.12
799.814	235.18
799.994	249.51
800.174	212.65
800.354	257.7
800.534	177.83
800.714	206.5
800.894	267.94
801.074	169.64
801.254	171.69
801.434	161.45
801.614	298.66
801.794	214.7
801.974	831.13
802.154	169.64
802.334	290.47
802.514	206.5
802.693	339.62
802.873	202.41
803.053	310.95
803.233	257.7
803.413	218.79
803.592	226.98
803.772	145.06
803.952	163.5
804.131	208.55
804.311	202.41
804.491	239.27
804.67	192.17
804.85	218.79
805.03	136.87
805.209	222.89
805.389	151.21
805.568	85.67
805.748	179.88
805.928	153.26
806.107	200.36
806.287	210.6
806.466	175.78
806.646	237.22
806.825	110.25
807.004	165.54
807.184	171.69
807.363	208.55
807.543	274.09
807.722	179.88
807.901	151.21
808.081	161.45
808.26	134.82
808.439	249.51
808.619	179.88
808.798	153.26
808.977	161.45
809.156	218.79
809.336	216.74
809.515	192.17
809.694	61.1
809.873	192.17
810.052	143.02
810.231	183.98
810.411	161.45
810.59	161.45
810.769	73.39
810.948	110.25
811.127	165.54
811.306	116.39
811.485	143.02
811.664	210.6
811.843	167.59
812.022	175.78
812.201	136.87
812.38	138.92
812.559	179.88
812.737	136.87
812.916	87.72
813.095	147.11
813.274	147.11
813.453	153.26
813.632	89.77
813.811	169.64
813.989	159.4
814.168	175.78
814.347	93.87
814.526	54.95
814.704	204.46
814.883	169.64
815.062	83.63
815.24	155.3
815.419	57
815.598	163.5
815.776	120.49
815.955	95.91
816.133	57
816.312	102.06
816.49	75.43
816.669	134.82
816.847	108.2
817.026	93.87
817.204	34.47
817.383	155.3
817.561	100.01
817.74	194.22
817.918	77.48
818.097	71.34
818.275	75.43
818.453	110.25
818.632	22.19
818.81	61.1
818.988	52.91
819.167	97.96
819.345	145.06
819.523	30.38
819.701	87.72
819.879	114.34
820.058	46.76
820.236	104.11
820.414	118.44
820.592	126.63
820.77	93.87
820.948	151.21
821.127	79.53
821.305	157.35
821.483	30.38
821.661	161.45
821.839	79.53
822.017	97.96
822.195	93.87
822.373	81.58
822.551	161.45
822.729	126.63
822.907	48.81
823.085	36.52
823.262	110.25
823.44	147.11
823.618	28.33
823.796	134.82
823.974	97.96
824.152	126.63
824.329	83.63
824.507	20.14
824.685	44.71
824.863	110.25
825.04	140.97
825.218	110.25
825.396	102.06
825.574	83.63
825.751	93.87
825.929	143.02
826.107	104.11
826.284	91.82
826.462	116.39
826.639	81.58
826.817	52.91
826.994	11.95
827.172	54.95
827.349	188.07
827.527	85.67
827.704	114.34
827.882	85.67
828.059	69.29
828.237	143.02
828.414	102.06
828.591	36.52
828.769	73.39
828.946	34.47
829.124	85.67
829.301	59.05
829.478	110.25
829.655	38.57
829.833	16.04
830.01	183.98
830.187	77.48
830.364	71.34
830.542	54.95
830.719	122.54
830.896	69.29
831.073	93.87
831.25	71.34
831.427	46.76
831.604	11.95
831.782	122.54
831.959	93.87
832.136	71.34
832.313	95.91
832.49	28.33
832.667	50.86
832.844	71.34
833.021	120.49
833.198	61.1
833.374	20.14
833.551	3.75
833.728	18.09
833.905	81.58
834.082	52.91
834.259	52.91
834.436	87.72
834.612	73.39
834.789	136.87
834.966	81.58
835.143	63.15
835.319	79.53
835.496	153.26
835.673	28.33
835.85	138.92
836.026	20.14
836.203	85.67
836.38	38.57
836.556	93.87
836.733	28.33
836.909	114.34
837.086	85.67
837.262	73.39
837.439	85.67
837.616	46.76
837.792	59.05
837.968	40.62
838.145	-12.63
838.321	52.91
838.498	69.29
838.674	110.25
838.851	52.91
839.027	63.15
839.203	61.1
839.38	44.71
839.556	44.71
839.732	89.77
839.909	63.15
840.085	136.87
840.261	46.76
840.437	71.34
840.614	91.82
840.79	63.15
840.966	30.38
841.142	93.87
841.318	-2.39
841.494	77.48
841.671	136.87
841.847	52.91
842.023	85.67
842.199	52.91
842.375	122.54
842.551	3.75
842.727	50.86
842.903	183.98
843.079	16.04
843.255	134.82
843.431	46.76
843.607	28.33
843.783	102.06
843.959	73.39
844.134	11.95
844.31	95.91
844.486	38.57
844.662	26.28
844.838	22.19
845.013	151.21
845.189	9.9
845.365	44.71
845.541	30.38
845.716	11.95
845.892	87.72
846.068	52.91
846.244	-0.34
846.419	130.73
846.595	75.43
846.77	54.95
846.946	-6.49
847.122	69.29
847.297	52.91
847.473	44.71
847.648	52.91
847.824	77.48
847.999	-20.82
848.175	81.58
848.35	61.1
848.526	73.39
848.701	11.95
848.876	-14.68
849.052	24.23
849.227	65.19
849.403	5.8
849.578	52.91
849.753	85.67
849.929	-18.77
850.104	-0.34
850.279	-6.49
850.454	1.71
850.63	77.48
850.805	38.57
850.98	-2.39
851.155	24.23
851.33	36.52
851.505	-16.73
851.681	97.96
851.856	-43.35
852.031	18.09
852.206	75.43
852.381	36.52
852.556	32.43
852.731	20.14
852.906	22.19
853.081	22.19
853.256	110.25
853.431	13.99
853.606	48.81
853.781	42.67
853.956	1.71
854.131	59.05
854.305	-33.11
854.48	-0.34
854.655	46.76
854.83	28.33
855.005	63.15
855.18	108.2
855.354	71.34
855.529	63.15
855.704	59.05
855.879	59.05
856.053	61.1
856.228	11.95
856.403	-72.02
856.577	44.71
856.752	-14.68
856.926	-47.44
857.101	54.95
857.276	-4.44
857.45	-16.73
857.625	38.57
857.799	-14.68
857.974	71.34
858.148	61.1
858.323	75.43
858.497	44.71
858.672	30.38
858.846	16.04
859.02	28.33
859.195	63.15
859.369	11.95
859.543	22.19
859.718	-12.63
859.892	26.28
860.066	20.14
860.241	5.8
860.415	28.33
860.589	52.91
860.763	93.87
860.938	-20.82
861.112	20.14
861.286	-2.39
861.46	57
861.634	-0.34
861.808	69.29
861.982	-14.68
862.157	-2.39
862.331	-45.4
862.505	44.71
862.679	-45.4
862.853	-26.96
863.027	13.99
863.201	63.15
863.375	36.52
863.549	38.57
863.722	40.62
863.896	28.33
864.07	36.52
864.244	-0.34
864.418	13.99
864.592	-16.73
864.766	-45.4
864.939	-4.44
865.113	13.99
865.287	61.1
865.461	-20.82
865.634	65.19
865.808	-45.4
865.982	-2.39
866.156	7.85
866.329	81.58
866.503	28.33
866.676	48.81
866.85	5.8
867.024	20.14
867.197	54.95
867.371	81.58
867.544	52.91
867.718	-49.49
867.891	26.28
868.065	36.52
868.238	-98.64
868.412	11.95
868.585	-78.16
868.759	42.67
868.932	-49.49
869.105	-12.63
869.279	3.75
869.452	44.71
869.625	-45.4
869.799	63.15
869.972	-4.44
870.145	71.34
870.319	11.95
870.492	52.91
870.665	-16.73
870.838	20.14
871.011	13.99
871.185	65.19
871.358	-33.11
871.531	-49.49
871.704	-53.59
871.877	38.57
872.05	7.85
872.223	-53.59
872.396	26.28
872.569	3.75
872.742	1.71
872.915	46.76
873.088	-43.35
873.261	20.14
873.434	114.34
873.607	7.85
873.78	95.91
873.953	-72.02
874.126	-12.63
874.299	44.71
874.471	-49.49
874.644	-20.82
874.817	32.43
874.99	11.95
875.163	-29.01
875.335	30.38
875.508	5.8
875.681	-53.59
875.853	-29.01
876.026	-69.97
876.199	20.14
876.371	-4.44
876.544	65.19
876.717	11.95
876.889	71.34
877.062	30.38
877.234	-61.78
877.407	-12.63
877.579	-0.34
877.752	54.95
877.924	40.62
878.097	-0.34
878.269	20.14
878.442	3.75
878.614	52.91
878.786	59.05
878.959	52.91
879.131	-51.54
879.303	-0.34
879.476	-6.49
879.648	126.63
879.82	52.91
879.993	-22.87
880.165	26.28
880.337	-24.92
880.509	52.91
880.681	-74.07
880.854	87.72
881.026	65.19
881.198	36.52
881.37	3.75
881.542	-18.77
881.714	38.57
881.886	11.95
882.058	11.95
882.23	44.71
882.402	26.28
882.574	-16.73
882.746	52.91
882.918	-12.63
883.09	75.43
883.262	-12.63
883.434	-0.34
883.606	-74.07
883.778	7.85
883.95	44.71
884.122	-49.49
884.293	69.29
884.465	-22.87
884.637	-33.11
884.809	3.75
884.98	1.71
885.152	-51.54
885.324	52.91
885.496	5.8
885.667	-20.82
885.839	-41.3
886.011	-29.01
886.182	11.95
886.354	52.91
886.525	32.43
886.697	36.52
886.869	-20.82
887.04	-6.49
887.212	-20.82
887.383	-4.44
887.555	69.29
887.726	-2.39
887.897	-129.36
888.069	-59.73
888.24	57
888.412	-16.73
888.583	38.57
888.754	-4.44
888.926	-39.25
889.097	-33.11
889.268	61.1
889.44	54.95
889.611	-74.07
889.782	-72.02
889.953	-74.07
890.125	-8.53
890.296	-55.64
890.467	13.99
890.638	-37.2
890.809	-12.63
890.98	-20.82
891.151	-4.44
891.323	36.52
891.494	-33.11
891.665	-4.44
891.836	28.33
892.007	-14.68
892.178	-10.58
892.349	7.85
892.52	-37.2
892.691	54.95
892.862	16.04
893.032	-51.54
893.203	-57.68
893.374	5.8
893.545	5.8
893.716	-29.01
893.887	13.99
894.057	-4.44
894.228	104.11
894.399	-53.59
894.57	-2.39
894.74	54.95
894.911	9.9
895.082	1.71
895.253	-12.63
895.423	-12.63
895.594	20.14
895.764	36.52
895.935	-8.53
896.106	7.85
896.276	79.53
896.447	13.99
896.617	26.28
896.788	-20.82
896.958	9.9
897.129	-2.39
897.299	-14.68
897.47	-8.53
897.64	3.75
897.81	-2.39
897.981	3.75
898.151	-22.87
898.322	9.9
898.492	71.34
898.662	-14.68
898.832	13.99
899.003	24.23
899.173	-69.97
899.343	36.52
899.513	-0.34
