Data from USB4F104151__297__14-23-55-113.txt Node

Date: Thu Mar 13 14:23:55 EDT 2025
User: louis
Spectrometer: USB4F10415
Trigger mode: 4
Integration Time (sec): 2.000000E-2
Scans to average: 1
Electric dark correction enabled: true
Nonlinearity correction enabled: false
Boxcar width: 0
XAxis mode: Wavelengths
Number of Pixels in Spectrum: 3648
>>>>>Begin Spectral Data<<<<<
178.204	-150.01
178.424	-150.01
178.644	-150.01
178.864	-139.77
179.084	-92.67
179.304	-41.47
179.524	28.16
179.744	-14.85
179.964	36.35
180.184	-27.14
180.404	13.82
180.624	-41.47
180.844	32.26
181.064	-14.85
181.283	81.41
181.503	-41.47
181.723	-10.75
181.943	3.58
182.163	114.17
182.383	65.02
182.602	-47.62
182.822	7.68
183.042	93.69
183.262	44.54
183.482	7.68
183.701	19.97
183.921	28.16
184.141	-6.66
184.361	110.08
184.58	32.26
184.8	60.93
185.02	36.35
185.239	79.36
185.459	-12.8
185.679	19.97
185.898	-20.99
186.118	24.06
186.338	15.87
186.557	54.78
186.777	-0.51
186.997	17.92
187.216	-0.51
187.436	103.93
187.655	24.06
187.875	22.02
188.095	22.02
188.314	95.74
188.534	36.35
188.753	30.21
188.973	32.26
189.192	75.26
189.412	77.31
189.631	34.3
189.851	89.6
190.07	36.35
190.29	-16.9
190.509	-6.66
190.729	-14.85
190.948	175.61
191.168	103.93
191.387	19.97
191.607	-14.85
191.826	54.78
192.045	73.21
192.265	24.06
192.484	95.74
192.704	71.17
192.923	22.02
193.142	91.65
193.362	3.58
193.581	11.78
193.8	-10.75
194.02	118.27
194.239	46.59
194.458	71.17
194.678	30.21
194.897	-12.8
195.116	-33.28
195.335	36.35
195.555	38.4
195.774	30.21
195.993	-2.56
196.212	15.87
196.432	73.21
196.651	-10.75
196.87	69.12
197.089	48.64
197.308	38.4
197.528	60.93
197.747	67.07
197.966	28.16
198.185	58.88
198.404	7.68
198.623	28.16
198.842	-12.8
199.062	46.59
199.281	46.59
199.5	-4.61
199.719	15.87
199.938	118.27
200.157	44.54
200.376	87.55
200.595	60.93
200.814	26.11
201.033	13.82
201.252	15.87
201.471	-47.62
201.69	-10.75
201.909	-12.8
202.128	71.17
202.347	34.3
202.566	15.87
202.785	-2.56
203.004	11.78
203.223	52.74
203.442	38.4
203.661	-8.7
203.879	-27.14
204.098	26.11
204.317	17.92
204.536	99.84
204.755	65.02
204.974	60.93
205.193	52.74
205.411	75.26
205.63	73.21
205.849	54.78
206.068	-8.7
206.287	24.06
206.505	38.4
206.724	46.59
206.943	-35.33
207.162	19.97
207.381	-33.28
207.599	28.16
207.818	22.02
208.037	87.55
208.255	5.63
208.474	28.16
208.693	30.21
208.911	3.58
209.13	11.78
209.349	60.93
209.567	60.93
209.786	44.54
210.005	81.41
210.223	32.26
210.442	83.45
210.661	22.02
210.879	3.58
211.098	-0.51
211.316	36.35
211.535	22.02
211.753	-8.7
211.972	69.12
212.191	-35.33
212.409	3.58
212.628	15.87
212.846	93.69
213.065	73.21
213.283	32.26
213.502	-8.7
213.72	67.07
213.938	-10.75
214.157	-14.85
214.375	36.35
214.594	-4.61
214.812	71.17
215.031	-2.56
215.249	73.21
215.467	56.83
215.686	-4.61
215.904	54.78
216.122	3.58
216.341	85.5
216.559	36.35
216.778	85.5
216.996	108.03
217.214	7.68
217.432	56.83
217.651	3.58
217.869	-61.95
218.087	103.93
218.306	-0.51
218.524	89.6
218.742	46.59
218.96	140.8
219.179	52.74
219.397	44.54
219.615	97.79
219.833	52.74
220.051	-8.7
220.27	71.17
220.488	85.5
220.706	54.78
220.924	58.88
221.142	36.35
221.36	44.54
221.578	148.99
221.796	52.74
222.015	56.83
222.233	34.3
222.451	36.35
222.669	-20.99
222.887	15.87
223.105	-8.7
223.323	-6.66
223.541	-43.52
223.759	26.11
223.977	-4.61
224.195	44.54
224.413	65.02
224.631	-2.56
224.849	19.97
225.067	69.12
225.285	69.12
225.503	30.21
225.721	-29.18
225.939	36.35
226.157	38.4
226.375	60.93
226.592	-10.75
226.81	52.74
227.028	40.45
227.246	77.31
227.464	19.97
227.682	56.83
227.9	30.21
228.117	44.54
228.335	52.74
228.553	30.21
228.771	85.5
228.989	52.74
229.206	28.16
229.424	79.36
229.642	60.93
229.86	-2.56
230.077	89.6
230.295	-10.75
230.513	30.21
230.731	40.45
230.948	62.98
231.166	105.98
231.384	-20.99
231.601	24.06
231.819	83.45
232.037	-2.56
232.254	15.87
232.472	-45.57
232.689	40.45
232.907	48.64
233.125	-25.09
233.342	-6.66
233.56	28.16
233.777	118.27
233.995	-27.14
234.213	24.06
234.43	69.12
234.648	71.17
234.865	44.54
235.083	15.87
235.3	38.4
235.518	52.74
235.735	56.83
235.953	38.4
236.17	73.21
236.388	-20.99
236.605	89.6
236.822	54.78
237.04	56.83
237.257	69.12
237.475	-20.99
237.692	62.98
237.909	89.6
238.127	126.46
238.344	13.82
238.562	-25.09
238.779	-45.57
238.996	34.3
239.214	69.12
239.431	52.74
239.648	40.45
239.865	93.69
240.083	69.12
240.3	13.82
240.517	89.6
240.735	77.31
240.952	81.41
241.169	54.78
241.386	15.87
241.603	22.02
241.821	50.69
242.038	58.88
242.255	46.59
242.472	-4.61
242.689	48.64
242.907	50.69
243.124	22.02
243.341	44.54
243.558	-35.33
243.775	3.58
243.992	15.87
244.209	19.97
244.426	97.79
244.643	87.55
244.86	22.02
245.078	93.69
245.295	50.69
245.512	-0.51
245.729	-6.66
245.946	46.59
246.163	-45.57
246.38	46.59
246.597	60.93
246.814	-8.7
247.031	77.31
247.248	19.97
247.464	54.78
247.681	-23.04
247.898	11.78
248.115	44.54
248.332	13.82
248.549	34.3
248.766	81.41
248.983	28.16
249.2	30.21
249.417	118.27
249.633	38.4
249.85	24.06
250.067	40.45
250.284	-6.66
250.501	34.3
250.717	15.87
250.934	-51.71
251.151	73.21
251.368	32.26
251.585	120.32
251.801	-4.61
252.018	-2.56
252.235	40.45
252.451	-12.8
252.668	-41.47
252.885	19.97
253.102	54.78
253.318	7.68
253.535	52.74
253.752	-0.51
253.968	3.58
254.185	-16.9
254.401	60.93
254.618	32.26
254.835	-2.56
255.051	79.36
255.268	19.97
255.484	56.83
255.701	52.74
255.917	22.02
256.134	75.26
256.351	69.12
256.567	-37.38
256.784	15.87
257	73.21
257.217	48.64
257.433	44.54
257.65	7.68
257.866	69.12
258.082	-2.56
258.299	56.83
258.515	54.78
258.732	44.54
258.948	11.78
259.165	-16.9
259.381	-25.09
259.597	3.58
259.814	60.93
260.03	15.87
260.246	56.83
260.463	73.21
260.679	60.93
260.895	52.74
261.112	-16.9
261.328	34.3
261.544	11.78
261.761	54.78
261.977	73.21
262.193	-25.09
262.409	79.36
262.626	75.26
262.842	19.97
263.058	-35.33
263.274	110.08
263.49	54.78
263.707	81.41
263.923	81.41
264.139	19.97
264.355	7.68
264.571	81.41
264.787	-0.51
265.004	17.92
265.22	87.55
265.436	32.26
265.652	-37.38
265.868	3.58
266.084	11.78
266.3	3.58
266.516	38.4
266.732	26.11
266.948	28.16
267.164	42.5
267.38	11.78
267.596	30.21
267.812	5.63
268.028	-33.28
268.244	11.78
268.46	3.58
268.676	52.74
268.892	101.89
269.108	11.78
269.324	22.02
269.54	-51.71
269.756	91.65
269.972	13.82
270.188	97.79
270.403	13.82
270.619	17.92
270.835	28.16
271.051	-10.75
271.267	52.74
271.483	15.87
271.698	-2.56
271.914	75.26
272.13	46.59
272.346	-2.56
272.562	-0.51
272.777	24.06
272.993	52.74
273.209	-6.66
273.425	38.4
273.64	28.16
273.856	38.4
274.072	-0.51
274.287	30.21
274.503	38.4
274.719	17.92
274.934	-20.99
275.15	-2.56
275.366	36.35
275.581	-35.33
275.797	60.93
276.012	28.16
276.228	52.74
276.444	-29.18
276.659	40.45
276.875	-14.85
277.09	-18.94
277.306	34.3
277.521	32.26
277.737	36.35
277.952	28.16
278.168	-2.56
278.383	46.59
278.599	36.35
278.814	81.41
279.03	30.21
279.245	93.69
279.461	-37.38
279.676	120.32
279.892	19.97
280.107	-0.51
280.322	19.97
280.538	56.83
280.753	65.02
280.969	7.68
281.184	62.98
281.399	118.27
281.615	11.78
281.83	19.97
282.045	-2.56
282.26	-8.7
282.476	22.02
282.691	101.89
282.906	-31.23
283.122	73.21
283.337	-6.66
283.552	-16.9
283.767	-29.18
283.983	77.31
284.198	-8.7
284.413	65.02
284.628	-25.09
284.843	5.63
285.058	30.21
285.274	28.16
285.489	5.63
285.704	22.02
285.919	9.73
286.134	28.16
286.349	44.54
286.564	120.32
286.779	48.64
286.995	40.45
287.21	26.11
287.425	52.74
287.64	22.02
287.855	52.74
288.07	-2.56
288.285	142.85
288.5	54.78
288.715	11.78
288.93	46.59
289.145	-2.56
289.36	99.84
289.575	87.55
289.79	93.69
290.004	52.74
290.219	19.97
290.434	28.16
290.649	67.07
290.864	60.93
291.079	93.69
291.294	69.12
291.509	42.5
291.724	87.55
291.938	28.16
292.153	112.13
292.368	-14.85
292.583	54.78
292.798	87.55
293.012	-4.61
293.227	65.02
293.442	11.78
293.657	40.45
293.871	126.46
294.086	54.78
294.301	36.35
294.516	3.58
294.73	101.89
294.945	40.45
295.16	93.69
295.374	60.93
295.589	69.12
295.804	-20.99
296.018	1.54
296.233	122.37
296.447	-0.51
296.662	13.82
296.877	60.93
297.091	-4.61
297.306	28.16
297.52	19.97
297.735	56.83
297.949	11.78
298.164	34.3
298.378	75.26
298.593	3.58
298.807	-39.42
299.022	69.12
299.236	67.07
299.451	26.11
299.665	-51.71
299.88	89.6
300.094	97.79
300.309	28.16
300.523	85.5
300.737	36.35
300.952	110.08
301.166	60.93
301.381	-14.85
301.595	48.64
301.809	48.64
302.024	7.68
302.238	56.83
302.452	36.35
302.667	52.74
302.881	93.69
303.095	79.36
303.309	48.64
303.524	-27.14
303.738	-20.99
303.952	-20.99
304.166	24.06
304.381	-70.14
304.595	112.13
304.809	28.16
305.023	36.35
305.237	36.35
305.452	7.68
305.666	5.63
305.88	26.11
306.094	-43.52
306.308	5.63
306.522	52.74
306.736	105.98
306.95	28.16
307.164	52.74
307.379	-76.29
307.593	110.08
307.807	11.78
308.021	-4.61
308.235	36.35
308.449	17.92
308.663	65.02
308.877	151.04
309.091	17.92
309.305	128.51
309.519	-61.95
309.733	114.17
309.947	-33.28
310.161	30.21
310.374	75.26
310.588	79.36
310.802	11.78
311.016	38.4
311.23	85.5
311.444	11.78
311.658	-2.56
311.872	40.45
312.085	69.12
312.299	52.74
312.513	69.12
312.727	19.97
312.941	-64
313.154	62.98
313.368	40.45
313.582	28.16
313.796	11.78
314.009	36.35
314.223	30.21
314.437	69.12
314.651	36.35
314.864	22.02
315.078	15.87
315.292	38.4
315.505	-4.61
315.719	124.41
315.933	44.54
316.146	28.16
316.36	81.41
316.573	69.12
316.787	85.5
317.001	32.26
317.214	28.16
317.428	-37.38
317.641	-27.14
317.855	118.27
318.068	60.93
318.282	46.59
318.495	65.02
318.709	71.17
318.922	62.98
319.136	103.93
319.349	103.93
319.563	5.63
319.776	81.41
319.99	-4.61
320.203	-12.8
320.417	30.21
320.63	42.5
320.843	56.83
321.057	114.17
321.27	101.89
321.483	105.98
321.697	65.02
321.91	-4.61
322.124	28.16
322.337	34.3
322.55	-2.56
322.763	46.59
322.977	89.6
323.19	28.16
323.403	56.83
323.617	34.3
323.83	81.41
324.043	22.02
324.256	34.3
324.469	32.26
324.683	40.45
324.896	34.3
325.109	97.79
325.322	-18.94
325.535	-33.28
325.748	3.58
325.962	69.12
326.175	-2.56
326.388	60.93
326.601	69.12
326.814	85.5
327.027	69.12
327.24	79.36
327.453	36.35
327.666	60.93
327.879	44.54
328.092	81.41
328.305	71.17
328.518	3.58
328.731	19.97
328.944	26.11
329.157	48.64
329.37	52.74
329.583	81.41
329.796	118.27
330.009	1.54
330.222	58.88
330.435	48.64
330.648	103.93
330.861	52.74
331.073	48.64
331.286	52.74
331.499	42.5
331.712	93.69
331.925	5.63
332.138	40.45
332.35	44.54
332.563	26.11
332.776	75.26
332.989	-51.71
333.202	28.16
333.414	42.5
333.627	36.35
333.84	54.78
334.053	22.02
334.265	75.26
334.478	-29.18
334.691	62.98
334.903	24.06
335.116	-18.94
335.329	69.12
335.541	52.74
335.754	81.41
335.966	40.45
336.179	40.45
336.392	69.12
336.604	38.4
336.817	60.93
337.029	58.88
337.242	-4.61
337.454	65.02
337.667	19.97
337.88	105.98
338.092	30.21
338.305	28.16
338.517	48.64
338.729	22.02
338.942	34.3
339.154	26.11
339.367	69.12
339.579	54.78
339.792	65.02
340.004	38.4
340.217	11.78
340.429	-18.94
340.641	15.87
340.854	44.54
341.066	42.5
341.278	108.03
341.491	60.93
341.703	62.98
341.915	-4.61
342.128	118.27
342.34	97.79
342.552	11.78
342.764	15.87
342.977	3.58
343.189	93.69
343.401	52.74
343.613	77.31
343.826	58.88
344.038	-33.28
344.25	69.12
344.462	36.35
344.674	65.02
344.886	60.93
345.099	62.98
345.311	126.46
345.523	79.36
345.735	56.83
345.947	28.16
346.159	65.02
346.371	73.21
346.583	24.06
346.795	93.69
347.007	77.31
347.219	44.54
347.431	69.12
347.643	81.41
347.855	-61.95
348.067	122.37
348.279	3.58
348.491	9.73
348.703	44.54
348.915	62.98
349.127	-29.18
349.339	28.16
349.551	-37.38
349.763	138.75
349.975	93.69
350.187	54.78
350.399	54.78
350.61	17.92
350.822	46.59
351.034	-18.94
351.246	73.21
351.458	40.45
351.669	30.21
351.881	73.21
352.093	-4.61
352.305	89.6
352.517	118.27
352.728	-18.94
352.94	95.74
353.152	99.84
353.363	44.54
353.575	54.78
353.787	71.17
353.999	89.6
354.21	120.32
354.422	67.07
354.633	-14.85
354.845	46.59
355.057	60.93
355.268	62.98
355.48	69.12
355.692	81.41
355.903	69.12
356.115	-43.52
356.326	22.02
356.538	118.27
356.749	11.78
356.961	77.31
357.172	50.69
357.384	103.93
357.595	65.02
357.807	3.58
358.018	1.54
358.23	38.4
358.441	99.84
358.653	36.35
358.864	69.12
359.075	62.98
359.287	15.87
359.498	30.21
359.709	60.93
359.921	11.78
360.132	-12.8
360.344	42.5
360.555	11.78
360.766	65.02
360.977	77.31
361.189	81.41
361.4	44.54
361.611	93.69
361.823	44.54
362.034	93.69
362.245	38.4
362.456	77.31
362.667	73.21
362.879	7.68
363.09	44.54
363.301	65.02
363.512	24.06
363.723	69.12
363.935	44.54
364.146	15.87
364.357	19.97
364.568	24.06
364.779	17.92
364.99	101.89
365.201	54.78
365.412	101.89
365.623	36.35
365.834	42.5
366.045	3.58
366.256	81.41
366.467	32.26
366.678	85.5
366.889	11.78
367.1	11.78
367.311	15.87
367.522	42.5
367.733	38.4
367.944	19.97
368.155	19.97
368.366	159.23
368.577	22.02
368.788	52.74
368.999	101.89
369.209	-8.7
369.42	105.98
369.631	128.51
369.842	134.65
370.053	50.69
370.264	93.69
370.474	3.58
370.685	-16.9
370.896	19.97
371.107	44.54
371.317	-0.51
371.528	44.54
371.739	81.41
371.95	28.16
372.16	136.7
372.371	60.93
372.582	46.59
372.792	126.46
373.003	81.41
373.214	93.69
373.424	69.12
373.635	44.54
373.846	67.07
374.056	-16.9
374.267	110.08
374.477	71.17
374.688	-55.81
374.898	40.45
375.109	65.02
375.319	44.54
375.53	19.97
375.74	60.93
375.951	58.88
376.161	73.21
376.372	54.78
376.582	69.12
376.793	56.83
377.003	-33.28
377.214	28.16
377.424	54.78
377.635	118.27
377.845	85.5
378.055	67.07
378.266	-0.51
378.476	5.63
378.686	28.16
378.897	40.45
379.107	-39.42
379.317	17.92
379.528	136.7
379.738	28.16
379.948	40.45
380.158	85.5
380.369	118.27
380.579	60.93
380.789	101.89
380.999	30.21
381.21	34.3
381.42	36.35
381.63	-4.61
381.84	87.55
382.05	44.54
382.261	46.59
382.471	15.87
382.681	36.35
382.891	77.31
383.101	11.78
383.311	81.41
383.521	81.41
383.731	28.16
383.941	65.02
384.151	42.5
384.361	56.83
384.571	136.7
384.781	77.31
384.991	120.32
385.201	120.32
385.411	103.93
385.621	83.45
385.831	60.93
386.041	85.5
386.251	11.78
386.461	52.74
386.671	69.12
386.881	67.07
387.091	-18.94
387.301	36.35
387.511	30.21
387.72	101.89
387.93	69.12
388.14	58.88
388.35	36.35
388.56	73.21
388.769	157.18
388.979	36.35
389.189	28.16
389.399	77.31
389.609	99.84
389.818	73.21
390.028	19.97
390.238	38.4
390.447	7.68
390.657	112.13
390.867	34.3
391.076	48.64
391.286	69.12
391.496	93.69
391.705	-6.66
391.915	52.74
392.125	48.64
392.334	38.4
392.544	77.31
392.753	85.5
392.963	60.93
393.172	36.35
393.382	-4.61
393.591	116.22
393.801	52.74
394.01	73.21
394.22	46.59
394.429	185.85
394.639	110.08
394.848	60.93
395.058	67.07
395.267	118.27
395.477	136.7
395.686	36.35
395.895	87.55
396.105	161.28
396.314	87.55
396.524	144.89
396.733	103.93
396.942	114.17
397.152	159.23
397.361	122.37
397.57	52.74
397.78	134.65
397.989	79.36
398.198	122.37
398.407	97.79
398.617	62.98
398.826	136.7
399.035	85.5
399.244	187.9
399.453	19.97
399.663	95.74
399.872	130.56
400.081	93.69
400.29	146.94
400.499	15.87
400.708	110.08
400.917	95.74
401.127	93.69
401.336	83.45
401.545	214.52
401.754	183.81
401.963	95.74
402.172	132.61
402.381	171.52
402.59	128.51
402.799	89.6
403.008	112.13
403.217	192
403.426	161.28
403.635	142.85
403.844	148.99
404.053	144.89
404.262	60.93
404.471	202.24
404.68	200.19
404.888	136.7
405.097	175.61
405.306	138.75
405.515	210.43
405.724	159.23
405.933	165.37
406.142	232.96
406.35	153.09
406.559	245.24
406.768	196.09
406.977	212.48
407.185	171.52
407.394	216.57
407.603	126.46
407.812	259.58
408.02	235
408.229	245.24
408.438	232.96
408.646	153.09
408.855	228.86
409.064	208.38
409.272	271.87
409.481	355.83
409.69	306.68
409.898	314.88
410.107	359.93
410.315	318.97
410.524	347.64
410.733	300.54
410.941	310.78
411.15	415.23
411.358	470.52
411.567	343.55
411.775	370.17
411.984	392.7
412.192	513.53
412.401	486.9
412.609	507.38
412.818	486.9
413.026	538.1
413.234	542.2
413.443	577.02
413.651	552.44
413.86	601.59
414.068	703.99
414.276	669.17
414.485	617.97
414.693	646.65
414.901	742.9
415.11	679.41
415.318	742.9
415.526	720.37
415.734	892.4
415.943	787.96
416.151	849.4
416.359	833.01
416.567	865.78
416.776	957.94
416.984	1064.43
417.192	970.23
417.4	964.08
417.608	1037.81
417.817	1068.53
418.025	1150.45
418.233	1220.08
418.441	1150.45
418.649	1320.43
418.857	1285.61
419.065	1220.08
419.273	1256.94
419.481	1465.83
419.689	1461.74
419.897	1570.28
420.105	1508.84
420.313	1646.05
420.521	1601
420.729	1605.1
420.937	1799.65
421.145	1813.99
421.353	1926.63
421.561	1936.87
421.769	2006.5
421.977	2072.03
422.185	2133.47
422.393	2282.97
422.601	2270.69
422.809	2354.65
423.017	2325.98
423.224	2555.35
423.432	2588.12
423.64	2510.3
423.848	2819.54
424.056	2629.08
424.263	2930.13
424.471	3014.1
424.679	3083.73
424.887	3194.32
425.094	3309.01
425.302	3272.14
425.51	3395.02
425.718	3489.23
425.925	3438.03
426.133	3571.15
426.341	3943.88
426.548	4005.31
426.756	4095.43
426.964	4025.79
427.171	4265.41
427.379	4359.61
427.586	4535.74
427.794	4576.7
428.001	4775.35
428.209	4890.04
428.417	4883.89
428.624	5322.16
428.832	5307.82
429.039	5363.12
429.247	5434.8
429.454	5799.34
429.662	6206.88
429.869	5797.29
430.076	6131.11
430.284	5950.89
430.491	6262.18
430.699	6673.82
430.906	6565.28
431.114	6598.04
431.321	6962.58
431.528	7165.33
431.736	7554.44
431.943	7800.2
432.15	7548.3
432.358	7624.08
432.565	7929.22
432.772	8060.29
432.979	8357.25
433.187	8674.68
433.394	8656.25
433.601	9248.11
433.808	9481.58
434.016	9192.82
434.223	9653.61
434.43	10095.97
434.637	10059.11
434.844	10702.17
435.052	10755.42
435.259	10595.68
435.466	10886.49
435.673	10571.1
435.88	11085.14
436.087	12068.17
436.294	11916.62
436.501	11644.24
436.708	11916.62
436.915	12453.19
437.122	12928.31
437.329	12778.81
437.537	13145.4
437.743	13577.52
437.95	13528.37
438.157	14382.37
438.364	14566.69
438.571	14531.87
438.778	14630.18
438.985	15797.52
439.192	15451.41
439.399	15781.14
439.606	15580.43
439.813	16239.88
440.02	17218.81
440.227	16936.19
440.433	16702.72
440.64	17091.84
440.847	17202.43
441.054	17673.46
441.261	18894.05
441.467	18494.69
441.674	18732.26
441.881	19612.88
442.088	19440.86
442.294	19293.4
442.501	19885.26
442.708	20274.38
442.914	20946.11
443.121	21869.75
443.328	21370.04
443.534	22881.44
443.741	21910.71
443.948	21845.17
444.154	23325.85
444.361	23309.47
444.568	23219.36
444.774	23530.65
444.981	23850.13
445.187	24202.38
445.394	25521.27
445.6	24865.92
445.807	27405.41
446.013	26199.15
446.22	26870.89
446.426	27733.08
446.633	28453.97
446.839	28996.68
447.046	27683.93
447.252	29357.12
447.459	29484.09
447.665	29629.5
447.871	30600.24
448.078	31845.4
448.284	30157.88
448.491	31507.49
448.697	32449.55
448.903	32957.45
449.11	32965.64
449.316	32220.18
449.522	32906.25
449.728	33934.33
449.935	34112.5
450.141	34145.27
450.347	35146.73
450.553	33866.75
450.76	34259.96
450.966	35361.76
451.172	35054.57
451.378	36248.53
451.584	35433.44
451.791	35963.87
451.997	35591.14
452.203	36590.55
452.409	36748.24
452.615	36404.18
452.821	35240.93
453.027	34540.53
453.233	36850.64
453.44	35238.89
453.646	35697.63
453.852	36369.37
454.058	36594.64
454.264	35486.69
454.47	36174.81
454.676	34943.98
454.882	36490.2
455.088	33270.79
455.294	33733.63
455.5	34257.91
455.705	34847.72
455.911	32855.05
456.117	32467.98
456.323	31943.7
456.529	30618.67
456.735	32255
456.941	31087.65
457.147	30600.24
457.352	29688.89
457.558	29471.81
457.764	29539.39
457.97	29275.2
458.176	28367.95
458.381	28466.25
458.587	27001.96
458.793	27094.11
458.999	25832.57
459.204	27561.05
459.41	26731.62
459.616	25054.34
459.821	25121.92
460.027	25035.91
460.233	24841.35
460.438	23413.91
460.644	23649.43
460.85	22682.79
461.055	22070.45
461.261	22133.93
461.466	20714.69
461.672	19780.82
461.878	21198.01
462.083	20028.62
462.289	19586.26
462.494	19193.05
462.7	18607.33
462.905	17820.91
463.111	18681.06
463.316	18470.12
463.522	18488.55
463.727	18060.52
463.932	18107.63
464.138	18169.07
464.343	18179.31
464.549	17845.49
464.754	18171.11
464.959	17865.97
465.165	17597.68
465.37	17247.48
465.575	16598.27
465.781	17028.35
465.986	17738.99
466.191	16848.13
466.397	16485.64
466.602	15529.24
466.807	15977.74
467.012	16332.04
467.218	16258.31
467.423	16043.28
467.628	16119.05
467.833	16882.94
468.038	16114.95
468.244	15549.71
468.449	16551.17
468.654	15871.25
468.859	15584.53
469.064	15605.01
469.269	14726.43
469.474	15230.23
469.679	15428.88
469.885	14718.24
470.09	15369.49
470.295	15248.66
470.5	14751.01
470.705	14601.51
470.91	14271.78
471.115	14298.41
471.32	14472.48
471.525	14486.82
471.73	14157.1
471.935	14220.58
472.139	13651.25
472.344	13884.72
472.549	13534.51
472.754	13622.58
472.959	13276.47
473.164	12844.35
473.369	12811.58
473.574	13368.63
473.778	13063.48
473.983	13055.29
474.188	12997.95
474.393	12612.93
474.598	12352.84
474.802	12303.68
475.007	12303.68
475.212	12449.09
475.417	12062.02
475.621	11771.21
475.826	11840.84
476.031	11742.54
476.235	11447.63
476.44	11390.29
476.645	11468.11
476.849	11093.33
477.054	11275.6
477.259	10974.55
477.463	11048.28
477.668	10693.98
477.872	10999.13
478.077	10952.02
478.282	10196.32
478.486	10450.27
478.691	10157.41
478.895	10257.76
479.1	10321.25
479.304	10181.99
479.509	10026.34
479.713	10437.98
479.918	9938.28
480.122	9758.06
480.326	10040.68
480.531	9930.09
480.735	9723.24
480.94	9758.06
481.144	10005.86
481.348	9379.18
481.553	9655.66
481.757	9348.47
481.961	9514.35
482.166	9731.44
482.37	9624.94
482.574	9311.6
482.778	9538.93
482.983	9450.86
483.187	9608.56
483.391	9581.93
483.595	9477.49
483.8	9217.4
484.004	9442.67
484.208	9555.31
484.412	9534.83
484.616	9426.29
484.821	9495.92
485.025	9291.12
485.229	9567.6
485.433	9430.38
485.637	9336.18
485.841	9424.24
486.045	9561.45
486.249	9223.54
486.453	9317.75
486.657	9596.27
486.861	9583.98
487.065	9366.9
487.269	9395.57
487.473	9399.66
487.677	9407.86
487.881	9670
488.085	9549.17
488.289	9420.14
488.493	9248.11
488.697	9573.74
488.901	9569.65
489.105	9575.79
489.309	9624.94
489.512	9547.12
489.716	9723.24
489.92	9448.82
490.124	9637.23
490.328	9715.05
490.531	9602.41
490.735	9747.82
490.939	9682.28
491.143	9805.16
491.346	9688.43
491.55	9891.18
491.754	9653.61
491.958	9960.81
492.161	9858.41
492.365	10106.21
492.569	9887.08
492.772	9999.72
492.976	10075.49
493.18	10196.32
493.383	10171.75
493.587	10081.64
493.79	10509.66
493.994	10181.99
494.197	10218.85
494.401	10470.75
494.605	10421.6
494.808	10495.33
495.012	10472.8
495.215	10624.35
495.419	10763.61
495.622	10945.88
495.825	10882.39
496.029	10777.95
496.232	11122.01
496.436	11158.87
496.639	11199.83
496.843	11177.3
497.046	11511.12
497.249	11832.65
497.453	11783.5
497.656	11963.72
497.859	11824.46
498.063	11752.78
498.266	12315.97
498.469	12234.05
498.673	12246.34
498.876	12457.28
499.079	12727.61
499.282	12635.46
499.485	12817.72
499.689	12791.1
499.892	13102.39
500.095	13129.02
500.298	13554.99
500.501	13294.9
500.705	13665.58
500.908	13929.77
501.111	14040.36
501.314	14290.21
501.517	14193.96
501.72	14544.16
501.923	14159.14
502.126	15002.91
502.329	14789.92
502.532	15086.87
502.735	15054.11
502.938	15392.02
503.141	15205.66
503.344	15701.26
503.547	15643.92
503.75	15895.82
503.953	16039.18
504.156	16225.54
504.359	16456.96
504.562	16473.35
504.765	16856.32
504.968	16760.06
505.17	17300.73
505.373	17040.64
505.576	17661.17
505.779	17798.38
505.982	17716.47
506.185	18255.08
506.387	18271.47
506.59	18283.75
506.793	18709.73
506.996	18728.16
507.198	19297.5
507.401	19295.45
507.604	19426.52
507.807	19813.59
508.009	19748.05
508.212	19895.5
508.415	20294.86
508.617	20368.59
508.82	20364.49
509.022	20421.83
509.225	21253.31
509.428	21243.07
509.63	21386.43
509.833	21294.27
510.035	21998.77
510.238	21910.71
510.44	22248.62
510.643	22639.78
510.845	22680.74
511.048	22473.9
511.25	23045.28
511.453	23184.54
511.655	23805.08
511.858	23794.84
512.06	24089.74
512.262	24063.12
512.465	24061.07
512.667	24771.72
512.87	24773.77
513.072	24616.07
513.274	25492.6
513.477	25517.18
513.679	25576.57
513.881	26186.86
514.084	26352.75
514.286	26092.66
514.488	26469.48
514.69	27192.42
514.893	27243.62
515.095	27425.89
515.297	27661.4
515.499	27827.29
515.701	28339.28
515.904	28376.14
516.106	28496.97
516.308	28832.84
516.51	29236.29
516.712	29170.75
516.914	29404.22
517.116	29959.22
517.318	29873.21
517.52	30264.37
517.722	30166.07
517.925	30706.73
518.127	31034.41
518.329	31314.98
518.531	31417.38
518.733	31917.08
518.935	32097.3
519.136	32119.83
519.338	32640.01
519.54	32670.73
519.742	33098.76
519.944	33080.33
520.146	33469.44
520.348	33620.99
520.55	33924.09
520.752	34204.66
520.954	34876.4
521.155	34495.47
521.357	35015.66
521.559	35167.21
521.761	35146.73
521.963	35570.66
522.164	35632.1
522.366	35402.72
522.568	36086.75
522.77	36373.46
522.971	36942.8
523.173	36824.01
523.375	36776.91
523.576	37196.74
523.778	37379.01
523.98	37895.1
524.181	37841.85
524.383	37819.33
524.584	38568.88
524.786	38738.86
524.988	38382.52
525.189	39041.96
525.391	38992.81
525.592	39293.86
525.794	39035.82
525.995	39324.58
526.197	39586.72
526.398	39523.24
526.6	39947.17
526.801	39785.38
527.003	39740.32
527.204	39951.26
527.406	40625.04
527.607	40905.62
527.808	40827.79
528.01	39951.26
528.211	40407.96
528.412	41272.2
528.614	41212.81
528.815	40864.66
529.016	41739.14
529.218	41008.01
529.419	41681.8
529.62	41454.47
529.822	41098.12
530.023	41403.27
530.224	41646.98
530.425	41649.03
530.626	41218.96
530.828	41571.21
531.029	42226.56
531.23	41307.02
531.431	41302.92
531.632	41741.19
531.833	41505.67
532.035	41786.24
532.236	42107.77
532.437	42378.11
532.638	42271.61
532.839	42144.64
533.04	42212.22
533.241	41933.7
533.442	42316.67
533.643	42003.33
533.844	42386.3
534.045	42271.61
534.246	41988.99
534.447	42013.57
534.648	42124.16
534.849	41776
535.05	41634.69
535.251	41927.55
535.451	41792.39
535.652	42038.14
535.853	42032
536.054	42060.67
536.255	42036.09
536.456	42009.47
536.657	42449.78
536.857	41696.13
537.058	42128.25
537.259	42371.96
537.46	42132.35
537.66	41986.94
537.861	42263.42
538.062	41976.7
538.263	41747.33
538.463	41646.98
538.664	41806.72
538.865	42044.29
539.065	41921.41
539.266	41157.52
539.466	42136.45
539.667	41423.75
539.868	42378.11
540.068	41634.69
540.269	41984.9
540.469	42275.71
540.67	41472.9
540.87	41917.31
541.071	41462.66
541.271	41941.89
541.472	41520.01
541.672	41606.02
541.873	41395.08
542.073	41059.21
542.274	41945.98
542.474	41499.53
542.675	41427.85
542.875	42111.87
543.075	41540.49
543.276	41059.21
543.476	41919.36
543.676	40967.05
543.877	41390.98
544.077	41575.3
544.277	41616.26
544.478	41528.2
544.678	41444.23
544.878	41560.97
545.078	41517.96
545.279	41188.24
545.479	41214.86
545.679	41573.25
545.879	41542.53
546.079	41472.9
546.28	41436.04
546.48	40766.35
546.68	41386.89
546.88	41329.55
547.08	41339.79
547.28	41597.83
547.48	40311.7
547.68	41155.47
547.88	40831.89
548.081	41433.99
548.281	41272.2
548.481	40870.8
548.681	41501.57
548.881	40778.64
549.081	40913.81
549.28	40881.04
549.48	41407.37
549.68	40967.05
549.88	41491.33
550.08	41130.89
550.28	40536.98
550.48	40852.37
550.68	41323.4
550.88	40678.29
551.08	40772.5
551.279	40766.35
551.479	40459.16
551.679	40805.27
551.879	40856.46
552.079	40922
552.278	40633.24
552.478	41094.03
552.678	41126.8
552.878	41173.9
553.077	40643.48
553.277	40424.34
553.477	41335.69
553.676	40555.41
553.876	40928.14
554.076	40416.15
554.275	40438.68
554.475	40111
554.674	41110.41
554.874	40915.86
555.074	40579.99
555.273	40733.59
555.473	40868.75
555.672	40121.24
555.872	40899.47
556.071	40651.67
556.271	40600.47
556.47	40213.4
556.67	40360.86
556.869	40432.54
557.068	40393.62
557.268	40493.97
557.467	40154.01
557.667	40184.73
557.866	40446.87
558.065	40565.65
558.265	39631.78
558.464	39732.13
558.663	40143.77
558.863	39429.03
559.062	39990.17
559.261	39877.54
559.461	40340.38
559.66	39961.5
559.859	40010.65
560.058	39492.52
560.258	39441.32
560.457	39369.64
560.656	40008.61
560.855	39644.07
561.054	40113.05
561.253	39195.56
561.453	39734.18
561.652	39736.23
561.851	39840.67
562.05	39048.11
562.249	38921.13
562.448	39521.19
562.647	39238.57
562.846	38978.48
563.045	39396.26
563.244	38691.76
563.443	39398.31
563.642	38597.56
563.841	38955.95
564.04	38759.34
564.239	38886.32
564.438	38665.14
564.637	38581.17
564.836	38521.78
565.035	37968.83
565.234	38626.23
565.432	38003.64
565.631	38300.6
565.83	38003.64
566.029	37772.22
566.228	38103.99
566.427	38147
566.625	37794.75
566.824	37667.78
567.023	38077.37
567.222	37219.27
567.42	37817.28
567.619	37540.8
567.818	37454.79
568.016	37280.71
568.215	37966.78
568.414	37526.47
568.612	37323.72
568.811	37456.84
569.01	37233.61
569.208	36938.7
569.407	37206.98
569.605	37077.96
569.804	37231.56
570.002	36862.93
570.201	36666.32
570.4	36271.06
570.598	36342.74
570.797	36482
570.995	36228.06
571.193	36180.95
571.392	36830.16
571.59	35808.22
571.789	35826.65
571.987	35951.58
572.186	36008.92
572.384	35988.44
572.582	36156.38
572.781	36047.83
572.979	35425.25
573.177	35820.51
573.376	35460.07
573.574	35249.13
573.772	35777.5
573.971	35337.19
574.169	35146.73
574.367	35015.66
574.565	35343.33
574.763	35134.44
574.962	34917.36
575.16	34735.09
575.358	34694.13
575.556	34753.52
575.754	34851.82
575.952	34536.43
576.151	34771.95
576.349	33864.7
576.547	34249.72
576.745	34251.77
576.943	34132.98
577.141	34046.97
577.339	34262.01
577.537	33874.94
577.735	33678.33
577.933	33707.01
578.131	33704.96
578.329	33592.32
578.527	33051.66
578.725	33477.63
578.923	33557.5
579.121	33117.19
579.319	33336.32
579.516	33188.87
579.714	33336.32
579.912	32918.54
580.11	32904.2
580.308	32971.78
580.506	32764.94
580.704	32355.35
580.901	32576.53
581.099	32748.56
581.297	32472.08
581.495	32584.72
581.692	32435.22
581.89	31861.79
582.088	32345.11
582.285	32156.69
582.483	32381.97
582.681	32046.1
582.878	31798.3
583.076	31802.39
583.274	31978.52
583.471	31003.69
583.669	31620.13
583.866	31165.48
584.064	31347.75
584.262	30880.81
584.459	31511.58
584.657	31185.96
584.854	31468.58
585.052	30516.27
585.249	30737.45
585.447	31220.77
585.644	30610.48
585.841	31007.78
586.039	31024.17
586.236	30510.13
586.434	30225.46
586.631	30200.88
586.828	30454.83
587.026	30151.73
587.223	29981.75
587.42	29674.56
587.618	30387.25
587.815	29383.74
588.012	29781.05
588.21	29582.4
588.407	29944.89
588.604	29744.19
588.801	29602.88
588.999	29240.39
589.196	29566.01
589.393	29258.82
589.59	29252.67
589.787	29078.6
589.984	29172.8
590.182	28611.66
590.379	28947.53
590.576	28681.29
590.773	29211.71
590.97	28777.54
591.167	28699.72
591.364	28148.82
591.561	28370
591.758	28210.26
591.955	28140.63
592.152	28394.57
592.349	27919.45
592.546	28095.57
592.743	28138.58
592.94	27681.88
593.137	28193.87
593.334	28167.25
593.531	27432.03
593.727	28015.7
593.924	27825.24
594.121	27440.22
594.318	27724.89
594.515	27368.54
594.712	27458.65
594.908	27282.53
595.105	27405.41
595.302	27063.4
595.499	27038.82
595.696	26999.91
595.892	26684.52
596.089	27147.36
596.286	26657.9
596.482	26383.47
596.679	26440.81
596.876	26836.07
597.072	26229.87
597.269	26338.41
597.466	25961.59
597.662	26418.28
597.859	26215.54
598.055	26246.26
598.252	25724.02
598.448	26160.24
598.645	25902.2
598.841	25572.47
599.038	25980.02
599.234	26010.74
599.431	25480.32
599.627	25406.59
599.824	25285.76
600.02	25349.25
600.217	25044.1
600.413	25324.67
600.609	25083.01
600.806	25058.43
601.002	25099.39
601.198	25005.19
601.395	24552.59
601.591	25066.63
601.787	24775.81
601.984	24568.97
602.18	24450.19
602.376	24583.3
602.572	24552.59
602.769	24331.4
602.965	24220.81
603.161	24249.49
603.357	24128.66
603.553	24091.79
603.75	23940.24
603.946	23899.28
604.142	23930
604.338	23796.88
604.534	23778.45
604.73	23325.85
604.926	23565.46
605.122	23751.83
605.318	23493.79
605.514	23510.17
605.71	23094.43
605.906	23032.99
606.102	22926.5
606.298	23479.45
606.494	22666.41
606.69	23010.46
606.886	22942.88
607.082	22508.71
607.278	22844.58
607.474	22367.4
607.67	22996.13
607.866	22254.76
608.062	22989.99
608.257	22525.1
608.453	22635.69
608.649	22738.09
608.845	22451.37
609.041	22449.32
609.236	22647.97
609.432	22328.49
609.628	21957.81
609.824	21859.51
610.019	22211.76
610.215	22181.04
610.411	22213.81
610.606	22060.21
610.802	22117.55
610.998	22140.08
611.193	21959.86
611.389	22148.27
611.584	21832.88
611.78	21750.96
611.976	21650.61
612.171	21576.89
612.367	21705.91
612.562	21392.57
612.758	21505.21
612.953	21492.92
613.149	21621.94
613.344	21202.11
613.539	21529.78
613.735	21378.23
613.93	21490.87
614.126	21255.36
614.321	21544.12
614.517	21148.86
614.712	21169.34
614.907	21238.97
615.103	21298.36
615.298	20935.87
615.493	21173.44
615.688	21105.85
615.884	21079.23
616.079	21048.51
616.274	21132.48
616.47	20862.15
616.665	20929.73
616.86	20663.49
617.055	20892.87
617.25	20409.54
617.445	20749.51
617.641	20378.83
617.836	20626.63
618.031	20333.77
618.226	20493.51
618.421	20554.95
618.616	20542.66
618.811	20133.07
619.006	20174.03
619.201	20174.03
619.396	20022.48
619.591	19756.24
619.786	19901.65
619.981	19616.98
620.176	19594.45
620.371	19410.14
620.566	19467.48
620.761	19573.97
620.956	19389.66
621.151	19440.86
621.346	19250.39
621.541	19104.99
621.735	19213.53
621.93	18853.09
622.125	18844.9
622.32	18685.15
622.515	18881.76
622.709	18558.18
622.904	18414.82
623.099	18468.07
623.294	18506.98
623.488	18099.44
623.683	18275.56
623.878	17872.11
624.072	17933.55
624.267	18177.26
624.462	17491.19
624.656	17622.26
624.851	17648.88
625.046	17259.77
625.24	17216.76
625.435	17167.61
625.629	17218.81
625.824	17382.65
626.018	17038.59
626.213	16776.45
626.407	16813.31
626.602	16542.98
626.796	16665.86
626.991	16745.73
627.185	16545.03
627.38	16375.05
627.574	16168.2
627.768	15914.25
627.963	16053.52
628.157	15895.82
628.352	16133.39
628.546	15740.18
628.74	16053.52
628.935	15838.48
629.129	15584.53
629.323	15404.31
629.517	15297.81
629.712	15277.33
629.906	15418.64
630.1	15002.91
630.294	15113.5
630.489	15072.54
630.683	15090.97
630.877	14847.26
631.071	14718.24
631.265	14603.55
631.459	14667.04
631.653	14439.72
631.848	14710.05
632.042	14456.1
632.236	14306.6
632.43	14382.37
632.624	14005.55
632.818	14112.04
633.012	14134.57
633.206	13942.06
633.4	13911.34
633.594	13821.23
633.788	13704.49
633.982	13485.36
634.176	13651.25
634.369	13622.58
634.563	13417.78
634.757	13425.97
634.951	13473.07
635.145	13321.52
635.339	13372.72
635.533	13055.29
635.726	13260.09
635.92	12809.53
636.114	13024.57
636.308	12789.05
636.501	12645.7
636.695	12899.64
636.889	12533.06
637.083	12442.95
637.276	12760.38
637.47	12279.11
637.664	12371.27
637.857	12508.48
638.051	12262.72
638.244	12109.13
638.438	12070.22
638.632	12266.82
638.825	11808.08
639.019	11971.91
639.212	11668.81
639.406	11720.01
639.599	11795.79
639.793	11730.25
639.986	11656.53
640.18	11744.59
640.373	11636.05
640.567	11396.43
640.76	11398.48
640.954	11279.7
641.147	11203.93
641.34	11177.3
641.534	11289.94
641.727	11042.14
641.92	11038.04
642.114	10833.24
642.307	10997.08
642.5	10777.95
642.694	10677.6
642.887	10736.99
643.08	10782.04
643.273	10597.73
643.467	10734.94
643.66	10585.44
643.853	10524
644.046	10313.06
644.239	10311.01
644.432	10354.02
644.626	10270.05
644.819	10124.65
645.012	10259.81
645.205	10071.4
645.398	10026.34
645.591	9934.18
645.784	9966.95
645.977	9766.25
646.17	9880.94
646.363	9725.29
646.556	9672.04
646.749	9493.87
646.942	9678.19
647.135	9549.17
647.328	9514.35
647.521	9377.14
647.714	9274.74
647.907	9289.07
648.099	9295.22
648.292	9309.55
648.485	9268.59
648.678	9213.3
648.871	9080.18
649.064	9094.52
649.256	9256.31
649.449	8971.64
649.642	9084.28
649.835	8877.43
650.027	8875.38
650.22	8717.69
650.413	8723.83
650.605	8574.33
650.798	8625.53
650.991	8641.92
651.183	8516.99
651.376	8394.11
651.568	8410.5
651.761	8256.9
651.954	8316.29
652.146	8377.73
652.339	8129.92
652.531	8334.72
652.724	8256.9
652.916	8123.78
653.109	8197.51
653.301	8015.24
653.494	8078.72
653.686	7929.22
653.879	7964.04
654.071	8011.14
654.263	7935.37
654.456	7894.41
654.648	7804.3
654.84	7622.03
655.033	7609.74
655.225	7536.01
655.417	7714.19
655.61	7638.41
655.802	7708.04
655.994	7409.04
656.186	7550.35
656.379	7398.8
656.571	7511.44
656.763	7406.99
656.955	7398.8
657.148	7392.66
657.34	7255.44
657.532	7163.28
657.724	7173.52
657.916	7087.51
658.108	7187.86
658.3	6929.81
658.492	7081.36
658.684	6942.1
658.876	6935.96
659.068	6854.04
659.26	6901.14
659.452	7019.92
659.644	6950.29
659.836	6729.11
660.028	6870.42
660.22	6718.87
660.412	6739.35
660.604	6630.81
660.796	6704.54
660.988	6587.8
661.18	6548.89
661.372	6393.25
661.563	6401.44
661.755	6395.29
661.947	6479.26
662.139	6469.02
662.331	6280.61
662.522	6395.29
662.714	6272.42
662.906	6096.29
663.097	6401.44
663.289	6239.65
663.481	6051.24
663.673	6114.72
663.864	6106.53
664.056	6165.92
664.247	6114.72
664.439	5969.32
664.631	6038.95
664.822	6204.83
665.014	5995.94
665.205	6018.47
665.397	5881.25
665.588	5934.5
665.78	5967.27
665.971	5705.13
666.163	5854.63
666.354	5815.72
666.546	5748.14
666.737	5574.06
666.929	5631.4
667.12	5557.68
667.311	5537.2
667.503	5545.39
667.694	5561.77
667.885	5430.7
668.077	5408.17
668.268	5430.7
668.459	5418.41
668.651	5311.92
668.842	5377.45
669.033	5512.62
669.224	5223.86
669.416	5442.99
669.607	5125.55
669.798	5381.55
669.989	5303.73
670.18	5338.54
670.371	5195.18
670.563	5166.51
670.754	5055.92
670.945	4963.76
671.136	5057.97
671.327	5047.73
671.518	5045.68
671.709	4986.29
671.9	5119.41
672.091	5076.4
672.282	4959.67
672.473	4992.44
672.664	4967.86
672.855	4994.48
673.046	5066.16
673.237	4900.28
673.428	4887.99
673.619	4814.26
673.809	4855.22
674	4914.61
674.191	4955.57
674.382	4699.58
674.573	4763.06
674.764	4779.45
674.954	4771.26
675.145	4638.14
675.336	4732.34
675.527	4812.21
675.717	4648.38
675.908	4601.27
676.099	4535.74
676.289	4701.62
676.48	4664.76
676.671	4601.27
676.861	4615.61
677.052	4576.7
677.243	4443.58
677.433	4421.05
677.624	4591.03
677.814	4543.93
678.005	4576.7
678.195	4576.7
678.386	4470.2
678.576	4574.65
678.767	4464.06
678.957	4464.06
679.148	4478.4
679.338	4500.92
679.529	4316.61
679.719	4369.85
679.909	4320.7
680.1	4478.4
680.29	4345.28
680.481	4414.91
680.671	4480.44
680.861	4357.57
681.052	4322.75
681.242	4300.22
681.432	4259.26
681.622	4261.31
681.813	4230.59
682.003	4222.4
682.193	4242.88
682.383	4277.69
682.573	4281.79
682.764	4269.5
682.954	4242.88
683.144	4144.58
683.334	4093.38
683.524	4103.62
683.714	4156.86
683.904	4046.27
684.094	4015.55
684.284	4175.3
684.474	4294.08
684.664	4111.81
684.854	4144.58
685.044	4066.75
685.234	4144.58
685.424	4011.46
685.614	3974.6
685.804	3837.38
685.994	3935.68
686.184	3870.15
686.374	3913.16
686.564	3988.93
686.753	4074.95
686.943	3786.18
687.133	3788.23
687.323	3878.34
687.513	4017.6
687.702	3853.77
687.892	3831.24
688.082	3880.39
688.272	3808.71
688.461	3800.52
688.651	3845.57
688.841	3712.46
689.03	3845.57
689.22	3659.21
689.41	3796.42
689.599	3687.88
689.789	3831.24
689.979	3653.06
690.168	3708.36
690.358	3659.21
690.547	3583.43
690.737	3694.02
690.926	3653.06
691.116	3509.71
691.305	3620.3
691.495	3575.24
691.684	3636.68
691.874	3687.88
692.063	3464.65
692.252	3587.53
692.442	3438.03
692.631	3440.08
692.82	3427.79
693.01	3501.51
693.199	3521.99
693.388	3538.38
693.578	3421.64
693.767	3472.84
693.956	3483.08
694.146	3409.36
694.335	3493.32
694.524	3417.55
694.713	3415.5
694.902	3433.93
695.092	3282.38
695.281	3165.65
695.47	3263.95
695.659	3395.02
695.848	3292.62
696.037	3225.04
696.226	3304.91
696.415	3343.82
696.604	3268.05
696.793	3388.88
696.982	3259.85
697.171	3231.18
697.36	3202.51
697.549	3280.33
697.738	3325.39
697.927	3141.07
698.116	3241.42
698.305	3255.76
698.494	3173.84
698.683	3136.98
698.872	3184.08
699.061	3208.66
699.25	3304.91
699.438	3145.17
699.627	3153.36
699.816	3286.48
700.005	3294.67
700.193	3151.31
700.382	3108.3
700.571	3130.83
700.76	3091.92
700.948	3108.3
701.137	3270.09
701.326	3204.56
701.514	3087.82
701.703	3024.34
701.892	3182.03
702.08	3249.61
702.269	3034.58
702.457	3050.96
702.646	3266
702.834	3136.98
703.023	2983.38
703.212	3044.82
703.4	3108.3
703.589	3143.12
703.777	3132.88
703.965	3063.25
704.154	3077.59
704.342	3038.67
704.531	3042.77
704.719	2893.27
704.907	3038.67
705.096	2960.85
705.284	3116.5
705.472	3198.42
705.661	2964.95
705.849	3044.82
706.037	3003.86
706.226	2901.46
706.414	2940.37
706.602	3063.25
706.79	3005.91
706.979	2999.76
707.167	2977.23
707.355	2876.88
707.543	2989.52
707.731	3083.73
707.919	2829.78
708.107	2872.79
708.296	2954.71
708.484	2864.6
708.672	2887.12
708.86	2969.04
709.048	2833.88
709.236	2989.52
709.424	2797.01
709.612	2932.18
709.8	2887.12
709.988	2866.64
710.176	2801.11
710.364	2985.43
710.551	2889.17
710.739	2821.59
710.927	2901.46
711.115	2823.64
711.303	2966.99
711.491	2840.02
711.679	2762.2
711.866	2760.15
712.054	2878.93
712.242	2797.01
712.43	2837.97
712.617	2917.84
712.805	2878.93
712.993	2809.3
713.181	2772.44
713.368	2903.51
713.556	2735.57
713.744	2694.61
713.931	2829.78
714.119	2831.83
714.306	2805.21
714.494	2758.1
714.682	2751.96
714.869	2805.21
715.057	2737.62
715.244	2721.24
715.432	2682.33
715.619	2581.98
715.807	2665.94
715.994	2803.16
716.182	2743.77
716.369	2745.81
716.556	2676.18
716.744	2622.94
716.931	2725.33
717.119	2713.05
717.306	2741.72
717.493	2678.23
717.681	2698.71
717.868	2682.33
718.055	2711
718.242	2729.43
718.43	2674.14
718.617	2708.95
718.804	2620.89
718.991	2731.48
719.179	2563.54
719.366	2665.94
719.553	2676.18
719.74	2551.26
719.927	2602.46
720.114	2594.26
720.301	2504.15
720.488	2487.77
720.676	2489.82
720.863	2629.08
721.05	2711
721.237	2713.05
721.424	2510.3
721.611	2618.84
721.798	2616.79
721.985	2602.46
722.172	2573.78
722.358	2522.59
722.545	2637.27
722.732	2428.38
722.919	2545.11
723.106	2561.5
723.293	2551.26
723.48	2510.3
723.667	2538.97
723.853	2485.72
724.04	2612.7
724.227	2495.96
724.414	2452.95
724.6	2436.57
724.787	2641.37
724.974	2477.53
725.161	2502.11
725.347	2334.17
725.534	2543.07
725.72	2506.2
725.907	2311.64
726.094	2412
726.28	2510.3
726.467	2428.38
726.653	2407.9
726.84	2452.95
727.027	2455
727.213	2360.8
727.4	2461.15
727.586	2495.96
727.773	2479.58
727.959	2379.23
728.145	2510.3
728.332	2428.38
728.518	2387.42
728.705	2414.04
728.891	2405.85
729.077	2399.71
729.264	2301.4
729.45	2315.74
729.636	2512.35
729.823	2422.24
730.009	2467.29
730.195	2452.95
730.382	2373.08
730.568	2391.52
730.754	2209.25
730.94	2420.19
731.126	2366.94
731.313	2448.86
731.499	2346.46
731.685	2297.31
731.871	2239.97
732.057	2268.64
732.243	2264.54
732.429	2442.71
732.615	2332.12
732.801	2346.46
732.987	2401.76
733.173	2371.04
733.359	2192.86
733.545	2258.4
733.731	2321.88
733.917	2274.78
734.103	2313.69
734.289	2346.46
734.475	2258.4
734.661	2299.36
734.847	2260.45
735.033	2201.05
735.219	2248.16
735.404	2262.49
735.59	2258.4
735.776	2295.26
735.962	2229.73
736.148	2272.73
736.333	2282.97
736.519	2330.08
736.705	2272.73
736.89	2112.99
737.076	2178.53
737.262	2207.2
737.447	2250.21
737.633	2190.81
737.819	2209.25
738.004	2293.21
738.19	2092.51
738.375	2121.18
738.561	2270.69
738.747	2196.96
738.932	2176.48
739.118	2268.64
739.303	2061.79
739.489	2149.86
739.674	2174.43
739.859	2133.47
740.045	2184.67
740.23	2125.28
740.416	2043.36
740.601	2190.81
740.786	1971.68
740.972	2098.66
741.157	2106.85
741.342	2084.32
741.528	2020.83
741.713	1981.92
741.898	2006.5
742.084	2108.9
742.269	2055.65
742.454	2022.88
742.639	1992.16
742.824	2026.98
743.01	2010.59
743.195	2080.22
743.38	2022.88
743.565	1992.16
743.75	2039.26
743.935	1895.91
744.12	1867.24
744.305	1943.01
744.49	1818.08
744.675	1842.66
744.86	1822.18
745.045	1922.53
745.23	1857
745.415	1928.67
745.6	1854.95
745.785	1785.32
745.97	1889.76
746.155	1766.89
746.34	1813.99
746.525	1867.24
746.71	1983.97
746.895	1797.6
747.079	1789.41
747.264	1816.04
747.449	1725.93
747.634	1803.75
747.819	1689.06
748.003	1742.31
748.188	1734.12
748.373	1672.68
748.557	1725.93
748.742	1637.86
748.927	1709.54
749.111	1601
749.296	1637.86
749.481	1752.55
749.665	1664.49
749.85	1568.23
750.034	1635.82
750.219	1592.81
750.404	1617.38
750.588	1592.81
750.773	1474.03
750.957	1609.19
751.141	1510.89
751.326	1553.9
751.51	1474.03
751.695	1517.03
751.879	1494.51
752.064	1553.9
752.248	1437.16
752.432	1527.27
752.617	1527.27
752.801	1514.98
752.985	1490.41
753.17	1553.9
753.354	1422.83
753.538	1355.24
753.722	1390.06
753.907	1420.78
754.091	1379.82
754.275	1258.99
754.459	1363.44
754.643	1408.49
754.828	1371.63
755.012	1349.1
755.196	1308.14
755.38	1316.33
755.564	1277.42
755.748	1295.85
755.932	1396.2
756.116	1326.57
756.3	1293.8
756.484	1238.51
756.668	1203.69
756.852	1244.65
757.036	1228.27
757.22	1248.75
757.404	1240.56
757.588	1215.98
757.772	1213.93
757.956	1193.45
758.14	1115.63
758.323	1150.45
758.507	1187.31
758.691	1091.06
758.875	1142.25
759.059	1154.54
759.242	1078.77
759.426	1109.49
759.61	1089.01
759.794	1060.34
759.977	1121.77
760.161	1168.88
760.345	1138.16
760.528	1154.54
760.712	1046
760.895	1052.14
761.079	1019.38
761.263	1023.47
761.446	1000.94
761.63	1150.45
761.813	1056.24
761.997	1062.38
762.18	1097.2
762.364	1101.3
762.547	1019.38
762.731	1009.14
762.914	1068.53
763.098	949.75
763.281	1019.38
763.464	904.69
763.648	978.42
763.831	949.75
764.015	974.32
764.198	988.66
764.381	888.31
764.564	1039.86
764.748	1000.94
764.931	962.03
765.114	1002.99
765.297	955.89
765.481	962.03
765.664	996.85
765.847	939.51
766.03	912.88
766.213	1060.34
766.397	953.84
766.58	888.31
766.763	1005.04
766.946	959.99
767.129	873.97
767.312	1005.04
767.495	830.96
767.678	857.59
767.861	876.02
768.044	878.07
768.227	851.44
768.41	888.31
768.593	910.83
768.776	873.97
768.959	865.78
769.142	839.16
769.324	781.81
769.507	806.39
769.69	818.68
769.873	798.2
770.056	953.84
770.239	808.44
770.421	861.68
770.604	855.54
770.787	929.27
770.97	865.78
771.152	714.23
771.335	839.16
771.518	839.16
771.7	790
771.883	808.44
772.066	773.62
772.248	761.33
772.431	818.68
772.613	747
772.796	775.67
772.978	683.51
773.161	802.29
773.343	800.24
773.526	757.24
773.708	644.6
773.891	773.62
774.073	769.52
774.256	644.6
774.438	749.04
774.621	708.09
774.803	720.37
774.985	556.54
775.168	691.7
775.35	742.9
775.532	755.19
775.715	667.13
775.897	708.09
776.079	650.74
776.261	609.78
776.444	712.18
776.626	740.85
776.808	605.69
776.99	601.59
777.173	591.35
777.355	611.83
777.537	554.49
777.719	650.74
777.901	556.54
778.083	585.21
778.265	568.82
778.447	554.49
778.629	570.87
778.811	527.86
778.993	558.58
779.175	595.45
779.357	658.93
779.539	556.54
779.721	552.44
779.903	585.21
780.085	593.4
780.267	593.4
780.449	540.15
780.631	503.29
780.812	585.21
780.994	519.67
781.176	536.06
781.358	603.64
781.54	536.06
781.721	556.54
781.903	536.06
782.085	480.76
782.267	595.45
782.448	468.47
782.63	556.54
782.812	536.06
782.993	491
783.175	505.34
783.357	491
783.538	521.72
783.72	464.38
783.901	472.57
784.083	470.52
784.264	480.76
784.446	529.91
784.627	396.79
784.809	536.06
784.99	435.71
785.172	470.52
785.353	425.47
785.535	437.75
785.716	433.66
785.897	380.41
786.079	398.84
786.26	423.42
786.441	450.04
786.623	407.03
786.804	519.67
786.985	404.99
787.167	415.23
787.348	366.07
787.529	447.99
787.71	400.89
787.891	404.99
788.073	382.46
788.254	454.14
788.435	394.75
788.616	372.22
788.797	368.12
788.978	306.68
789.159	357.88
789.34	374.27
789.522	280.06
789.703	347.64
789.884	452.09
790.065	384.51
790.246	368.12
790.427	388.6
790.607	376.31
790.788	404.99
790.969	282.11
791.15	312.83
791.331	282.11
791.512	374.27
791.693	331.26
791.874	298.49
792.054	335.35
792.235	316.92
792.416	316.92
792.597	226.81
792.778	290.3
792.958	341.5
793.139	316.92
793.32	314.88
793.5	286.2
793.681	298.49
793.862	292.35
794.042	380.41
794.223	237.05
794.404	310.78
794.584	241.15
794.765	294.4
794.945	278.01
795.126	245.24
795.306	298.49
795.487	284.16
795.667	241.15
795.848	286.2
796.028	298.49
796.209	314.88
796.389	288.25
796.57	298.49
796.75	241.15
796.93	259.58
797.111	261.63
797.291	298.49
797.471	278.01
797.652	335.35
797.832	239.1
798.012	263.68
798.192	257.53
798.373	175.61
798.553	259.58
798.733	216.57
798.913	218.62
799.093	241.15
799.274	214.52
799.454	218.62
799.634	247.29
799.814	273.92
799.994	245.24
800.174	226.81
800.354	237.05
800.534	185.85
800.714	327.16
800.894	208.38
801.074	192
801.254	224.76
801.434	198.14
801.614	151.04
801.794	167.42
801.974	824.82
802.154	206.33
802.334	214.52
802.514	202.24
802.693	216.57
802.873	306.68
803.053	249.34
803.233	167.42
803.413	208.38
803.592	130.56
803.772	192
803.952	224.76
804.131	241.15
804.311	302.59
804.491	226.81
804.67	249.34
804.85	79.36
805.03	132.61
805.209	185.85
805.389	235
805.568	192
805.748	216.57
805.928	300.54
806.107	235
806.287	192
806.466	204.28
806.646	198.14
806.825	142.85
807.004	171.52
807.184	257.53
807.363	167.42
807.543	185.85
807.722	148.99
807.901	198.14
808.081	247.29
808.26	71.17
808.439	187.9
808.619	189.95
808.798	128.51
808.977	269.82
809.156	226.81
809.336	171.52
809.515	200.19
809.694	93.69
809.873	116.22
810.052	103.93
810.231	241.15
810.411	134.65
810.59	175.61
810.769	116.22
810.948	235
811.127	116.22
811.306	177.66
811.485	153.09
811.664	204.28
811.843	173.57
812.022	167.42
812.201	142.85
812.38	122.37
812.559	196.09
812.737	216.57
812.916	218.62
813.095	93.69
813.274	179.71
813.453	95.74
813.632	126.46
813.811	177.66
813.989	105.98
814.168	142.85
814.347	171.52
814.526	208.38
814.704	224.76
814.883	144.89
815.062	146.94
815.24	167.42
815.419	122.37
815.598	142.85
815.776	101.89
815.955	142.85
816.133	65.02
816.312	200.19
816.49	89.6
816.669	128.51
816.847	171.52
817.026	122.37
817.204	110.08
817.383	95.74
817.561	124.41
817.74	81.41
817.918	138.75
818.097	161.28
818.275	85.5
818.453	220.67
818.632	144.89
818.81	103.93
818.988	138.75
819.167	52.74
819.345	146.94
819.523	134.65
819.701	126.46
819.879	161.28
820.058	110.08
820.236	110.08
820.414	118.27
820.592	52.74
820.77	105.98
820.948	108.03
821.127	50.69
821.305	175.61
821.483	169.47
821.661	103.93
821.839	71.17
822.017	105.98
822.195	116.22
822.373	142.85
822.551	67.07
822.729	93.69
822.907	83.45
823.085	103.93
823.262	62.98
823.44	110.08
823.618	73.21
823.796	95.74
823.974	128.51
824.152	122.37
824.329	105.98
824.507	124.41
824.685	187.9
824.863	93.69
825.04	120.32
825.218	60.93
825.396	101.89
825.574	99.84
825.751	93.69
825.929	142.85
826.107	56.83
826.284	69.12
826.462	93.69
826.639	71.17
826.817	101.89
826.994	177.66
827.172	87.55
827.349	79.36
827.527	93.69
827.704	120.32
827.882	124.41
828.059	95.74
828.237	144.89
828.414	151.04
828.591	58.88
828.769	77.31
828.946	65.02
829.124	71.17
829.301	159.23
829.478	130.56
829.655	79.36
829.833	112.13
830.01	36.35
830.187	62.98
830.364	81.41
830.542	110.08
830.719	167.42
830.896	56.83
831.073	71.17
831.25	101.89
831.427	56.83
831.604	101.89
831.782	148.99
831.959	118.27
832.136	46.59
832.313	19.97
832.49	85.5
832.667	130.56
832.844	36.35
833.021	185.85
833.198	87.55
833.374	71.17
833.551	81.41
833.728	3.58
833.905	60.93
834.082	112.13
834.259	85.5
834.436	128.51
834.612	44.54
834.789	24.06
834.966	56.83
835.143	54.78
835.319	34.3
835.496	77.31
835.673	81.41
835.85	44.54
836.026	46.59
836.203	73.21
836.38	42.5
836.556	108.03
836.733	-29.18
836.909	77.31
837.086	52.74
837.262	-12.8
837.439	101.89
837.616	134.65
837.792	54.78
837.968	93.69
838.145	9.73
838.321	69.12
838.498	60.93
838.674	83.45
838.851	95.74
839.027	105.98
839.203	36.35
839.38	65.02
839.556	101.89
839.732	79.36
839.909	13.82
840.085	103.93
840.261	19.97
840.437	118.27
840.614	95.74
840.79	142.85
840.966	71.17
841.142	62.98
841.318	54.78
841.494	85.5
841.671	60.93
841.847	81.41
842.023	-61.95
842.199	101.89
842.375	79.36
842.551	34.3
842.727	36.35
842.903	144.89
843.079	30.21
843.255	130.56
843.431	87.55
843.607	30.21
843.783	-0.51
843.959	22.02
844.134	22.02
844.31	73.21
844.486	-23.04
844.662	19.97
844.838	101.89
845.013	77.31
845.189	97.79
845.365	85.5
845.541	15.87
845.716	38.4
845.892	11.78
846.068	36.35
846.244	22.02
846.419	36.35
846.595	87.55
846.77	79.36
846.946	69.12
847.122	101.89
847.297	22.02
847.473	71.17
847.648	54.78
847.824	151.04
847.999	-66.05
848.175	118.27
848.35	62.98
848.526	56.83
848.701	11.78
848.876	69.12
849.052	52.74
849.227	81.41
849.403	159.23
849.578	54.78
849.753	19.97
849.929	52.74
850.104	22.02
850.279	38.4
850.454	19.97
850.63	56.83
850.805	89.6
850.98	71.17
851.155	77.31
851.33	108.03
851.505	56.83
851.681	69.12
851.856	-4.61
852.031	101.89
852.206	77.31
852.381	65.02
852.556	48.64
852.731	89.6
852.906	56.83
853.081	38.4
853.256	101.89
853.431	-43.52
853.606	71.17
853.781	-94.72
853.956	93.69
854.131	-10.75
854.305	-33.28
854.48	56.83
854.655	93.69
854.83	-2.56
855.005	54.78
855.18	1.54
855.354	-4.61
855.529	60.93
855.704	46.59
855.879	32.26
856.053	24.06
856.228	30.21
856.403	-53.76
856.577	112.13
856.752	32.26
856.926	46.59
857.101	46.59
857.276	42.5
857.45	5.63
857.625	36.35
857.799	40.45
857.974	71.17
858.148	-41.47
858.323	89.6
858.497	22.02
858.672	38.4
858.846	19.97
859.02	40.45
859.195	-51.71
859.369	40.45
859.543	-18.94
859.718	-0.51
859.892	28.16
860.066	69.12
860.241	-66.05
860.415	44.54
860.589	-43.52
860.763	44.54
860.938	54.78
861.112	46.59
861.286	-4.61
861.46	19.97
861.634	30.21
861.808	120.32
861.982	-23.04
862.157	38.4
862.331	-35.33
862.505	19.97
862.679	1.54
862.853	73.21
863.027	-16.9
863.201	79.36
863.375	13.82
863.549	-2.56
863.722	30.21
863.896	105.98
864.07	38.4
864.244	1.54
864.418	36.35
864.592	-10.75
864.766	-14.85
864.939	-0.51
865.113	38.4
865.287	60.93
865.461	13.82
865.634	19.97
865.808	-74.24
865.982	54.78
866.156	38.4
866.329	-25.09
866.503	81.41
866.676	87.55
866.85	110.08
867.024	30.21
867.197	36.35
867.371	73.21
867.544	42.5
867.718	17.92
867.891	34.3
868.065	1.54
868.238	-8.7
868.412	46.59
868.585	85.5
868.759	60.93
868.932	11.78
869.105	-45.57
869.279	69.12
869.452	44.54
869.625	-4.61
869.799	-4.61
869.972	81.41
870.145	7.68
870.319	54.78
870.492	128.51
870.665	-10.75
870.838	79.36
871.011	-18.94
871.185	-8.7
871.358	-27.14
871.531	-4.61
871.704	-8.7
871.877	-4.61
872.05	54.78
872.223	-29.18
872.396	62.98
872.569	-37.38
872.742	-20.99
872.915	-12.8
873.088	-37.38
873.261	-29.18
873.434	52.74
873.607	-27.14
873.78	91.65
873.953	-51.71
874.126	85.5
874.299	15.87
874.471	101.89
874.644	22.02
874.817	-41.47
874.99	46.59
875.163	-61.95
875.335	93.69
875.508	11.78
875.681	85.5
875.853	19.97
876.026	15.87
876.199	48.64
876.371	28.16
876.544	34.3
876.717	-64
876.889	15.87
877.062	-18.94
877.234	-4.61
877.407	7.68
877.579	36.35
877.752	19.97
877.924	97.79
878.097	36.35
878.269	97.79
878.442	-35.33
878.614	17.92
878.786	17.92
878.959	36.35
879.131	28.16
879.303	-53.76
879.476	13.82
879.648	95.74
879.82	36.35
879.993	26.11
880.165	-18.94
880.337	5.63
880.509	-57.86
880.681	-119.29
880.854	30.21
881.026	-43.52
881.198	91.65
881.37	17.92
881.542	22.02
881.714	19.97
881.886	60.93
882.058	22.02
882.23	22.02
882.402	-14.85
882.574	120.32
882.746	7.68
882.918	77.31
883.09	-4.61
883.262	-12.8
883.434	42.5
883.606	-33.28
883.778	-31.23
883.95	77.31
884.122	-29.18
884.293	85.5
884.465	-8.7
884.637	65.02
884.809	-20.99
884.98	-0.51
885.152	40.45
885.324	32.26
885.496	91.65
885.667	-25.09
885.839	1.54
886.011	138.75
886.182	79.36
886.354	15.87
886.525	22.02
886.697	5.63
886.869	-66.05
887.04	-70.14
887.212	60.93
887.383	60.93
887.555	81.41
887.726	-61.95
887.897	11.78
888.069	77.31
888.24	7.68
888.412	5.63
888.583	-35.33
888.754	-23.04
888.926	-6.66
889.097	15.87
889.268	24.06
889.44	-12.8
889.611	-0.51
889.782	-45.57
889.953	3.58
890.125	114.17
890.296	-70.14
890.467	60.93
890.638	-61.95
890.809	60.93
890.98	-25.09
891.151	79.36
891.323	-4.61
891.494	15.87
891.665	67.07
891.836	-12.8
892.007	9.73
892.178	30.21
892.349	19.97
892.52	-20.99
892.691	24.06
892.862	-23.04
893.032	-4.61
893.203	22.02
893.374	28.16
893.545	62.98
893.716	22.02
893.887	19.97
894.057	36.35
894.228	-29.18
894.399	-94.72
894.57	30.21
894.74	5.63
894.911	54.78
895.082	54.78
895.253	-14.85
895.423	13.82
895.594	17.92
895.764	13.82
895.935	-33.28
896.106	-37.38
896.276	22.02
896.447	67.07
896.617	38.4
896.788	-33.28
896.958	36.35
897.129	-10.75
897.299	-37.38
897.47	7.68
897.64	89.6
897.81	-18.94
897.981	75.26
898.151	-2.56
898.322	13.82
898.492	60.93
898.662	-78.33
898.832	22.02
899.003	7.68
899.173	-20.99
899.343	3.58
899.513	-35.33
