Data from USB4F104151__134__14-19-07-456.txt Node

Date: Thu Mar 13 14:19:07 EDT 2025
User: louis
Spectrometer: USB4F10415
Trigger mode: 4
Integration Time (sec): 2.000000E-2
Scans to average: 1
Electric dark correction enabled: true
Nonlinearity correction enabled: false
Boxcar width: 0
XAxis mode: Wavelengths
Number of Pixels in Spectrum: 3648
>>>>>Begin Spectral Data<<<<<
178.204	-139.94
178.424	-139.94
178.644	-139.94
178.864	-70.31
179.084	-39.59
179.304	-21.16
179.524	52.56
179.744	52.56
179.964	-123.56
180.184	11.61
180.404	-17.07
180.624	-10.92
180.844	-12.97
181.064	-21.16
181.283	27.99
181.503	40.28
181.723	21.85
181.943	3.41
182.163	36.18
182.383	13.65
182.602	101.72
182.822	19.8
183.042	120.15
183.262	-23.21
183.482	11.61
183.701	19.8
183.921	122.2
184.141	-6.83
184.361	-4.78
184.58	-8.87
184.8	105.81
185.02	79.19
185.239	111.96
185.459	-15.02
185.679	52.56
185.898	-8.87
186.118	1.37
186.338	42.32
186.557	46.42
186.777	54.61
186.997	-21.16
187.216	46.42
187.436	95.57
187.655	95.57
187.875	89.43
188.095	73.04
188.314	56.66
188.534	46.42
188.753	-43.69
188.973	11.61
189.192	60.76
189.412	5.46
189.631	34.13
189.851	40.28
190.07	77.14
190.29	30.04
190.509	-0.68
190.729	-29.35
190.948	71
191.168	126.29
191.387	56.66
191.607	-27.31
191.826	19.8
192.045	3.41
192.265	-12.97
192.484	75.09
192.704	34.13
192.923	36.18
193.142	105.81
193.362	32.08
193.581	48.47
193.8	81.24
194.02	79.19
194.239	15.7
194.458	124.24
194.678	36.18
194.897	68.95
195.116	-25.26
195.335	44.37
195.555	36.18
195.774	93.52
195.993	52.56
196.212	-8.87
196.432	-4.78
196.651	56.66
196.87	-37.55
197.089	99.67
197.308	60.76
197.528	91.48
197.747	17.75
197.966	56.66
198.185	38.23
198.404	40.28
198.623	23.89
198.842	79.19
199.062	40.28
199.281	48.47
199.5	11.61
199.719	34.13
199.938	21.85
200.157	46.42
200.376	85.33
200.595	73.04
200.814	46.42
201.033	38.23
201.252	32.08
201.471	44.37
201.69	81.24
201.909	25.94
202.128	7.51
202.347	-25.26
202.566	40.28
202.785	-41.64
203.004	19.8
203.223	77.14
203.442	23.89
203.661	89.43
203.879	1.37
204.098	66.9
204.317	-6.83
204.536	52.56
204.755	-37.55
204.974	99.67
205.193	85.33
205.411	71
205.63	68.95
205.849	60.76
206.068	7.51
206.287	89.43
206.505	17.75
206.724	-45.74
206.943	-2.73
207.162	48.47
207.381	93.52
207.599	83.28
207.818	56.66
208.037	85.33
208.255	11.61
208.474	44.37
208.693	38.23
208.911	62.8
209.13	60.76
209.349	118.1
209.567	30.04
209.786	114
210.005	66.9
210.223	38.23
210.442	3.41
210.661	52.56
210.879	52.56
211.098	-10.92
211.316	-2.73
211.535	79.19
211.753	40.28
211.972	87.38
212.191	85.33
212.409	52.56
212.628	-37.55
212.846	48.47
213.065	38.23
213.283	93.52
213.502	21.85
213.72	11.61
213.938	114
214.157	81.24
214.375	-12.97
214.594	25.94
214.812	50.52
215.031	77.14
215.249	34.13
215.467	62.8
215.686	27.99
215.904	126.29
216.122	60.76
216.341	44.37
216.559	73.04
216.778	15.7
216.996	46.42
217.214	40.28
217.432	21.85
217.651	-21.16
217.869	-58.03
218.087	13.65
218.306	64.85
218.524	48.47
218.742	-37.55
218.96	60.76
219.179	-21.16
219.397	11.61
219.615	52.56
219.833	54.61
220.051	27.99
220.27	89.43
220.488	97.62
220.706	68.95
220.924	19.8
221.142	-2.73
221.36	42.32
221.578	56.66
221.796	32.08
222.015	-12.97
222.233	-21.16
222.451	85.33
222.669	-10.92
222.887	62.8
223.105	-45.74
223.323	60.76
223.541	15.7
223.759	56.66
223.977	73.04
224.195	97.62
224.413	3.41
224.631	73.04
224.849	-2.73
225.067	109.91
225.285	85.33
225.503	60.76
225.721	-23.21
225.939	87.38
226.157	36.18
226.375	85.33
226.592	17.75
226.81	71
227.028	15.7
227.246	44.37
227.464	27.99
227.682	44.37
227.9	21.85
228.117	56.66
228.335	27.99
228.553	-2.73
228.771	89.43
228.989	50.52
229.206	64.85
229.424	-21.16
229.642	32.08
229.86	38.23
230.077	109.91
230.295	32.08
230.513	36.18
230.731	-17.07
230.948	152.92
231.166	36.18
231.384	25.94
231.601	38.23
231.819	150.87
232.037	-17.07
232.254	48.47
232.472	60.76
232.689	23.89
232.907	62.8
233.125	9.56
233.342	42.32
233.56	7.51
233.777	-0.68
233.995	60.76
234.213	142.68
234.43	71
234.648	95.57
234.865	21.85
235.083	19.8
235.3	56.66
235.518	7.51
235.735	-27.31
235.953	103.76
236.17	5.46
236.388	68.95
236.605	15.7
236.822	40.28
237.04	77.14
237.257	21.85
237.475	3.41
237.692	62.8
237.909	56.66
238.127	15.7
238.344	19.8
238.562	109.91
238.779	13.65
238.996	-74.41
239.214	48.47
239.431	114
239.648	3.41
239.865	101.72
240.083	17.75
240.3	-12.97
240.517	23.89
240.735	19.8
240.952	124.24
241.169	40.28
241.386	-51.88
241.603	7.51
241.821	-2.73
242.038	11.61
242.255	54.61
242.472	-19.11
242.689	42.32
242.907	68.95
243.124	38.23
243.341	103.76
243.558	7.51
243.775	118.1
243.992	-19.11
244.209	93.52
244.426	85.33
244.643	122.2
244.86	54.61
245.078	99.67
245.295	56.66
245.512	-12.97
245.729	17.75
245.946	81.24
246.163	60.76
246.38	68.95
246.597	19.8
246.814	17.75
247.031	17.75
247.248	13.65
247.464	3.41
247.681	3.41
247.898	68.95
248.115	81.24
248.332	-25.26
248.549	105.81
248.766	73.04
248.983	-0.68
249.2	111.96
249.417	36.18
249.633	32.08
249.85	48.47
250.067	-4.78
250.284	38.23
250.501	19.8
250.717	134.48
250.934	7.51
251.151	-4.78
251.368	87.38
251.585	146.77
251.801	3.41
252.018	17.75
252.235	19.8
252.451	-10.92
252.668	64.85
252.885	-29.35
253.102	23.89
253.318	93.52
253.535	77.14
253.752	-4.78
253.968	21.85
254.185	-10.92
254.401	-10.92
254.618	46.42
254.835	21.85
255.051	95.57
255.268	64.85
255.484	85.33
255.701	11.61
255.917	73.04
256.134	-12.97
256.351	25.94
256.567	5.46
256.784	85.33
257	71
257.217	60.76
257.433	56.66
257.65	19.8
257.866	42.32
258.082	-23.21
258.299	9.56
258.515	79.19
258.732	40.28
258.948	40.28
259.165	116.05
259.381	77.14
259.597	75.09
259.814	52.56
260.03	-4.78
260.246	64.85
260.463	40.28
260.679	75.09
260.895	77.14
261.112	83.28
261.328	19.8
261.544	27.99
261.761	77.14
261.977	-21.16
262.193	1.37
262.409	56.66
262.626	30.04
262.842	81.24
263.058	52.56
263.274	15.7
263.49	85.33
263.707	23.89
263.923	101.72
264.139	21.85
264.355	17.75
264.571	60.76
264.787	48.47
265.004	62.8
265.22	54.61
265.436	44.37
265.652	44.37
265.868	79.19
266.084	23.89
266.3	23.89
266.516	27.99
266.732	-17.07
266.948	27.99
267.164	5.46
267.38	27.99
267.596	-2.73
267.812	71
268.028	36.18
268.244	-0.68
268.46	77.14
268.676	15.7
268.892	46.42
269.108	30.04
269.324	27.99
269.54	-25.26
269.756	19.8
269.972	-10.92
270.188	7.51
270.403	-12.97
270.619	44.37
270.835	-2.73
271.051	60.76
271.267	32.08
271.483	1.37
271.698	52.56
271.914	60.76
272.13	-12.97
272.346	36.18
272.562	-4.78
272.777	48.47
272.993	23.89
273.209	19.8
273.425	50.52
273.64	21.85
273.856	93.52
274.072	27.99
274.287	1.37
274.503	99.67
274.719	109.91
274.934	36.18
275.15	-33.45
275.366	83.28
275.581	3.41
275.797	30.04
276.012	44.37
276.228	-12.97
276.444	85.33
276.659	120.15
276.875	-21.16
277.09	38.23
277.306	32.08
277.521	46.42
277.737	75.09
277.952	68.95
278.168	77.14
278.383	30.04
278.599	66.9
278.814	38.23
279.03	64.85
279.245	85.33
279.461	52.56
279.676	68.95
279.892	-27.31
280.107	52.56
280.322	95.57
280.538	3.41
280.753	23.89
280.969	34.13
281.184	-25.26
281.399	93.52
281.615	-27.31
281.83	40.28
282.045	-55.98
282.26	-0.68
282.476	44.37
282.691	68.95
282.906	-39.59
283.122	-27.31
283.337	25.94
283.552	109.91
283.767	-10.92
283.983	48.47
284.198	-10.92
284.413	38.23
284.628	44.37
284.843	120.15
285.058	52.56
285.274	64.85
285.489	-0.68
285.704	130.39
285.919	36.18
286.134	44.37
286.349	68.95
286.564	27.99
286.779	50.52
286.995	36.18
287.21	-60.07
287.425	30.04
287.64	87.38
287.855	138.58
288.07	32.08
288.285	64.85
288.5	36.18
288.715	40.28
288.93	27.99
289.145	36.18
289.36	34.13
289.575	23.89
289.79	71
290.004	34.13
290.219	48.47
290.434	30.04
290.649	-33.45
290.864	95.57
291.079	-6.83
291.294	79.19
291.509	17.75
291.724	93.52
291.938	34.13
292.153	54.61
292.368	-25.26
292.583	40.28
292.798	128.34
293.012	87.38
293.227	54.61
293.442	52.56
293.657	77.14
293.871	114
294.086	27.99
294.301	68.95
294.516	52.56
294.73	62.8
294.945	-6.83
295.16	23.89
295.374	89.43
295.589	93.52
295.804	-33.45
296.018	36.18
296.233	3.41
296.447	73.04
296.662	52.56
296.877	71
297.091	21.85
297.306	134.48
297.52	58.71
297.735	21.85
297.949	52.56
298.164	60.76
298.378	40.28
298.593	38.23
298.807	-0.68
299.022	79.19
299.236	52.56
299.451	23.89
299.665	5.46
299.88	-2.73
300.094	-0.68
300.309	159.06
300.523	58.71
300.737	36.18
300.952	52.56
301.166	3.41
301.381	11.61
301.595	77.14
301.809	73.04
302.024	36.18
302.238	54.61
302.452	101.72
302.667	30.04
302.881	128.34
303.095	79.19
303.309	87.38
303.524	19.8
303.738	44.37
303.952	46.42
304.166	44.37
304.381	7.51
304.595	71
304.809	56.66
305.023	71
305.237	46.42
305.452	13.65
305.666	60.76
305.88	146.77
306.094	17.75
306.308	93.52
306.522	9.56
306.736	75.09
306.95	68.95
307.164	46.42
307.379	-19.11
307.593	73.04
307.807	36.18
308.021	30.04
308.235	-27.31
308.449	-10.92
308.663	40.28
308.877	116.05
309.091	19.8
309.305	52.56
309.519	-21.16
309.733	3.41
309.947	5.46
310.161	58.71
310.374	3.41
310.588	169.3
310.802	46.42
311.016	38.23
311.23	42.32
311.444	48.47
311.658	40.28
311.872	95.57
312.085	62.8
312.299	101.72
312.513	118.1
312.727	79.19
312.941	30.04
313.154	36.18
313.368	23.89
313.582	-0.68
313.796	11.61
314.009	52.56
314.223	-2.73
314.437	32.08
314.651	44.37
314.864	71
315.078	73.04
315.292	5.46
315.505	79.19
315.719	13.65
315.933	13.65
316.146	11.61
316.36	21.85
316.573	85.33
316.787	64.85
317.001	54.61
317.214	40.28
317.428	85.33
317.641	60.76
317.855	109.91
318.068	116.05
318.282	38.23
318.495	73.04
318.709	140.63
318.922	122.2
319.136	116.05
319.349	81.24
319.563	7.51
319.776	91.48
319.99	-35.5
320.203	75.09
320.417	-17.07
320.63	48.47
320.843	21.85
321.057	15.7
321.27	34.13
321.483	23.89
321.697	3.41
321.91	-0.68
322.124	77.14
322.337	116.05
322.55	103.76
322.763	50.52
322.977	77.14
323.19	-27.31
323.403	34.13
323.617	7.51
323.83	126.29
324.043	40.28
324.256	44.37
324.469	13.65
324.683	101.72
324.896	36.18
325.109	81.24
325.322	5.46
325.535	19.8
325.748	-2.73
325.962	13.65
326.175	40.28
326.388	103.76
326.601	68.95
326.814	85.33
327.027	103.76
327.24	89.43
327.453	-21.16
327.666	89.43
327.879	101.72
328.092	83.28
328.305	-2.73
328.518	114
328.731	-4.78
328.944	36.18
329.157	25.94
329.37	91.48
329.583	130.39
329.796	93.52
330.009	38.23
330.222	32.08
330.435	87.38
330.648	62.8
330.861	27.99
331.073	3.41
331.286	25.94
331.499	38.23
331.712	40.28
331.925	58.71
332.138	7.51
332.35	-8.87
332.563	42.32
332.776	3.41
332.989	-15.02
333.202	15.7
333.414	23.89
333.627	54.61
333.84	60.76
334.053	52.56
334.265	-12.97
334.478	9.56
334.691	46.42
334.903	87.38
335.116	19.8
335.329	44.37
335.541	19.8
335.754	75.09
335.966	13.65
336.179	-12.97
336.392	-37.55
336.604	44.37
336.817	99.67
337.029	-29.35
337.242	68.95
337.454	56.66
337.667	77.14
337.88	32.08
338.092	54.61
338.305	62.8
338.517	48.47
338.729	124.24
338.942	44.37
339.154	50.52
339.367	19.8
339.579	62.8
339.792	58.71
340.004	95.57
340.217	3.41
340.429	19.8
340.641	-45.74
340.854	15.7
341.066	38.23
341.278	68.95
341.491	60.76
341.703	85.33
341.915	66.9
342.128	150.87
342.34	30.04
342.552	87.38
342.764	-15.02
342.977	3.41
343.189	89.43
343.401	75.09
343.613	44.37
343.826	21.85
344.038	93.52
344.25	21.85
344.462	56.66
344.674	44.37
344.886	38.23
345.099	62.8
345.311	54.61
345.523	-10.92
345.735	32.08
345.947	44.37
346.159	44.37
346.371	40.28
346.583	36.18
346.795	126.29
347.007	30.04
347.219	46.42
347.431	81.24
347.643	52.56
347.855	-29.35
348.067	79.19
348.279	-4.78
348.491	71
348.703	99.67
348.915	60.76
349.127	-35.5
349.339	40.28
349.551	75.09
349.763	122.2
349.975	-21.16
350.187	109.91
350.399	85.33
350.61	85.33
350.822	66.9
351.034	77.14
351.246	71
351.458	93.52
351.669	34.13
351.881	64.85
352.093	54.61
352.305	105.81
352.517	62.8
352.728	85.33
352.94	1.37
353.152	27.99
353.363	21.85
353.575	101.72
353.787	81.24
353.999	154.96
354.21	52.56
354.422	77.14
354.633	34.13
354.845	-45.74
355.057	58.71
355.268	89.43
355.48	46.42
355.692	17.75
355.903	44.37
356.115	25.94
356.326	68.95
356.538	97.62
356.749	34.13
356.961	93.52
357.172	68.95
357.384	-19.11
357.595	89.43
357.807	87.38
358.018	128.34
358.23	44.37
358.441	144.72
358.653	11.61
358.864	71
359.075	77.14
359.287	15.7
359.498	60.76
359.709	36.18
359.921	87.38
360.132	38.23
360.344	23.89
360.555	64.85
360.766	134.48
360.977	-53.93
361.189	85.33
361.4	32.08
361.611	36.18
361.823	52.56
362.034	167.25
362.245	42.32
362.456	40.28
362.667	42.32
362.879	7.51
363.09	13.65
363.301	11.61
363.512	48.47
363.723	71
363.935	97.62
364.146	114
364.357	21.85
364.568	-4.78
364.779	54.61
364.99	56.66
365.201	36.18
365.412	118.1
365.623	60.76
365.834	68.95
366.045	36.18
366.256	99.67
366.467	17.75
366.678	71
366.889	36.18
367.1	38.23
367.311	138.58
367.522	109.91
367.733	13.65
367.944	-4.78
368.155	-0.68
368.366	83.28
368.577	85.33
368.788	44.37
368.999	5.46
369.209	27.99
369.42	54.61
369.631	95.57
369.842	36.18
370.053	87.38
370.264	93.52
370.474	7.51
370.685	44.37
370.896	109.91
371.107	97.62
371.317	89.43
371.528	-27.31
371.739	83.28
371.95	87.38
372.16	42.32
372.371	54.61
372.582	71
372.792	68.95
373.003	81.24
373.214	73.04
373.424	161.11
373.635	-19.11
373.846	68.95
374.056	124.24
374.267	60.76
374.477	7.51
374.688	60.76
374.898	64.85
375.109	-17.07
375.319	60.76
375.53	111.96
375.74	44.37
375.951	21.85
376.161	134.48
376.372	120.15
376.582	54.61
376.793	-37.55
377.003	-2.73
377.214	32.08
377.424	32.08
377.635	60.76
377.845	-10.92
378.055	44.37
378.266	19.8
378.476	40.28
378.686	71
378.897	27.99
379.107	56.66
379.317	60.76
379.528	21.85
379.738	27.99
379.948	60.76
380.158	71
380.369	-2.73
380.579	13.65
380.789	71
380.999	62.8
381.21	97.62
381.42	66.9
381.63	40.28
381.84	118.1
382.05	21.85
382.261	130.39
382.471	83.28
382.681	5.46
382.891	93.52
383.101	-53.93
383.311	64.85
383.521	46.42
383.731	99.67
383.941	81.24
384.151	79.19
384.361	79.19
384.571	36.18
384.781	9.56
384.991	64.85
385.201	75.09
385.411	52.56
385.621	36.18
385.831	36.18
386.041	73.04
386.251	62.8
386.461	77.14
386.671	-15.02
386.881	97.62
387.091	11.61
387.301	97.62
387.511	44.37
387.72	101.72
387.93	93.52
388.14	87.38
388.35	85.33
388.56	-12.97
388.769	159.06
388.979	38.23
389.189	68.95
389.399	44.37
389.609	124.24
389.818	83.28
390.028	60.76
390.238	105.81
390.447	114
390.657	19.8
390.867	93.52
391.076	64.85
391.286	44.37
391.496	107.86
391.705	62.8
391.915	71
392.125	83.28
392.334	3.41
392.544	87.38
392.753	71
392.963	85.33
393.172	103.76
393.382	85.33
393.591	46.42
393.801	122.2
394.01	36.18
394.22	25.94
394.429	130.39
394.639	77.14
394.848	126.29
395.058	111.96
395.267	97.62
395.477	105.81
395.686	54.61
395.895	97.62
396.105	210.26
396.314	97.62
396.524	77.14
396.733	169.3
396.942	68.95
397.152	77.14
397.361	187.73
397.57	159.06
397.78	128.34
397.989	111.96
398.198	150.87
398.407	79.19
398.617	140.63
398.826	101.72
399.035	122.2
399.244	136.53
399.453	130.39
399.663	132.44
399.872	105.81
400.081	103.76
400.29	87.38
400.499	130.39
400.708	97.62
400.917	111.96
401.127	105.81
401.336	136.53
401.545	163.15
401.754	116.05
401.963	77.14
402.172	118.1
402.381	122.2
402.59	66.9
402.799	175.44
403.008	114
403.217	122.2
403.426	109.91
403.635	128.34
403.844	75.09
404.053	89.43
404.262	101.72
404.471	216.4
404.68	103.76
404.888	169.3
405.097	204.11
405.306	118.1
405.515	167.25
405.724	185.68
405.933	191.83
406.142	161.11
406.35	243.03
406.559	177.49
406.768	210.26
406.977	195.92
407.185	249.17
407.394	177.49
407.603	204.11
407.812	249.17
408.02	251.22
408.229	185.68
408.438	240.98
408.646	249.17
408.855	240.98
409.064	316.75
409.272	236.88
409.481	240.98
409.69	265.55
409.898	306.51
410.107	372.05
410.315	245.07
410.524	341.33
410.733	439.63
410.941	312.66
411.15	339.28
411.358	441.68
411.567	425.29
411.775	365.9
411.984	400.72
412.192	427.34
412.401	380.24
412.609	472.4
412.818	464.21
413.026	505.17
413.234	439.63
413.443	433.49
413.651	494.93
413.86	480.59
414.068	470.35
414.276	626
414.485	507.21
414.693	576.84
414.901	617.8
415.11	695.63
415.318	621.9
415.526	693.58
415.734	748.87
415.943	679.24
416.151	881.99
416.359	804.17
416.567	785.74
416.776	920.9
416.984	920.9
417.192	937.29
417.4	931.14
417.608	857.42
417.817	896.33
418.025	1066.31
418.233	1160.52
418.441	990.53
418.649	980.29
418.857	1172.8
419.065	1174.85
419.273	1127.75
419.481	1267.01
419.689	1299.78
419.897	1375.55
420.105	1307.97
420.313	1439.04
420.521	1535.29
420.729	1502.53
420.937	1490.24
421.145	1674.56
421.353	1742.14
421.561	1740.09
421.769	1731.9
421.977	1813.82
422.185	1848.63
422.393	2010.42
422.601	2035
422.809	2061.62
423.017	2002.23
423.224	2295.09
423.432	2204.98
423.64	2284.85
423.848	2487.6
424.056	2387.25
424.263	2633.01
424.471	2684.2
424.679	2698.54
424.887	2772.27
425.094	2774.31
425.302	2893.1
425.51	2979.11
425.718	3132.71
425.925	3083.56
426.133	3243.3
426.341	3464.48
426.548	3538.21
426.756	3411.23
426.964	3644.7
427.171	3833.11
427.379	3755.29
427.586	3941.66
427.794	4066.58
428.001	4265.24
428.209	4486.42
428.417	4279.57
428.624	4691.21
428.832	4592.91
429.039	4820.24
429.247	4625.68
429.454	5149.96
429.662	5375.24
429.869	5174.53
430.076	5385.48
430.284	5164.29
430.491	5387.52
430.699	5926.14
430.906	5840.12
431.114	5944.57
431.321	6032.63
431.528	6292.73
431.736	6776.05
431.943	6849.77
432.15	6728.94
432.358	6935.79
432.565	7292.13
432.772	7097.58
432.979	7734.5
433.187	7636.19
433.394	7666.91
433.601	8156.38
433.808	8275.16
434.016	8269.02
434.223	8617.17
434.43	9002.19
434.637	8991.95
434.844	9153.74
435.052	9602.24
435.259	9399.49
435.466	9696.45
435.673	9573.57
435.88	10382.52
436.087	10503.35
436.294	10646.71
436.501	10292.41
436.708	10937.52
436.915	11031.73
437.122	11535.53
437.329	11371.69
437.537	11715.75
437.743	11975.84
437.95	11898.02
438.157	12579.99
438.364	12956.82
438.571	12831.89
438.778	12973.2
438.985	14296.19
439.192	13345.93
439.399	14148.73
439.606	13583.49
439.813	14414.97
440.02	15322.22
440.227	15156.33
440.433	14842.99
440.64	15510.63
440.847	15246.44
441.054	15846.5
441.261	16696.41
441.467	16413.79
441.674	16895.06
441.881	17470.54
442.088	17292.37
442.294	16985.17
442.501	17697.86
442.708	18089.03
442.914	18658.36
443.121	19633.19
443.328	18750.52
443.534	20276.26
443.741	19633.19
443.948	19190.83
444.154	20698.14
444.361	20851.74
444.568	20935.7
444.774	21187.6
444.981	21031.96
445.187	21664.78
445.394	22328.32
445.6	22281.22
445.807	24484.83
446.013	23161.84
446.22	24089.57
446.426	24601.57
446.633	24814.55
446.839	25918.41
447.046	24783.84
447.252	26041.29
447.459	26137.54
447.665	25889.74
447.871	26956.73
448.078	28369.83
448.284	27085.75
448.491	27909.04
448.697	28695.46
448.903	29307.8
449.11	29326.23
449.316	29084.57
449.522	29715.34
449.728	30270.34
449.935	30438.28
450.141	30387.08
450.347	31327.1
450.553	30036.88
450.76	30671.75
450.966	31474.55
451.172	31488.88
451.378	31699.83
451.584	31245.18
451.791	32070.51
451.997	31998.83
452.203	32709.47
452.409	32639.84
452.615	32482.15
452.821	31273.85
453.027	30946.17
453.233	32465.77
453.44	31480.69
453.646	31622
453.852	31777.65
454.058	32125.8
454.264	31271.8
454.47	32260.97
454.676	31816.56
454.882	32699.23
455.088	29414.29
455.294	30155.66
455.5	30419.85
455.705	30997.37
455.911	29725.58
456.117	29103
456.323	28670.88
456.529	27112.38
456.735	28394.4
456.941	27794.35
457.147	27128.76
457.352	26555.33
457.558	26096.58
457.764	25979.85
457.97	25742.28
458.176	25295.83
458.381	25166.81
458.587	24079.33
458.793	24138.72
458.999	22748.15
459.204	24368.1
459.41	23768.04
459.616	22328.32
459.821	22254.59
460.027	22039.56
460.233	21607.44
460.438	20593.69
460.644	20644.89
460.85	19870.76
461.055	19541.04
461.261	19407.92
461.466	18123.84
461.672	17630.28
461.878	18996.28
462.083	17472.59
462.289	17192.01
462.494	17353.8
462.7	16280.67
462.905	15819.88
463.111	16464.99
463.316	16479.32
463.522	16133.22
463.727	16026.72
463.932	16069.73
464.138	15981.67
464.343	16016.48
464.549	15574.12
464.754	16270.43
464.959	15748.2
465.165	15748.2
465.37	15115.37
465.575	14777.46
465.781	15293.55
465.986	15463.53
466.191	14842.99
466.397	14543.99
466.602	14072.96
466.807	14083.2
467.012	14451.83
467.218	14378.11
467.423	14115.97
467.628	14234.75
467.833	14756.98
468.038	14210.17
468.244	13988.99
468.449	14474.36
468.654	13839.49
468.859	13741.19
469.064	13882.5
469.269	13040.78
469.474	13331.59
469.679	13509.77
469.885	13175.95
470.09	13218.96
470.295	13345.93
470.5	12938.38
470.705	12866.7
470.91	12659.86
471.115	12641.43
471.32	12821.65
471.525	12438.68
471.73	12416.15
471.935	12291.23
472.139	11990.17
472.344	12264.6
472.549	12063.9
472.754	11742.37
472.959	11660.45
473.164	11312.3
473.369	11216.04
473.574	11838.62
473.778	11613.35
473.983	11488.42
474.188	11418.79
474.393	10974.38
474.598	11046.06
474.802	10908.85
475.007	10831.02
475.212	10876.08
475.417	10464.44
475.621	10337.46
475.826	10581.17
476.031	10251.45
476.235	10063.04
476.44	10337.46
476.645	9841.86
476.849	10083.52
477.054	9891.01
477.259	9841.86
477.463	9835.71
477.668	9290.95
477.872	9587.91
478.077	9481.41
478.282	9080.01
478.486	9266.38
478.691	9082.06
478.895	8987.85
479.1	9163.98
479.304	8994
479.509	8707.28
479.713	8924.37
479.918	8920.27
480.122	8684.75
480.326	8402.13
480.531	8574.16
480.735	8506.58
480.94	8213.72
481.144	8707.28
481.348	8359.13
481.553	8449.24
481.757	8156.38
481.961	8383.7
482.166	8598.74
482.37	8385.75
482.574	8162.52
482.778	8307.93
482.983	8561.87
483.187	8262.87
483.391	8180.95
483.595	8193.24
483.8	8195.29
484.004	8228.06
484.208	8352.98
484.412	8318.17
484.616	8283.35
484.821	8352.98
485.025	7982.3
485.229	8271.06
485.433	8289.49
485.637	8150.23
485.841	8254.68
486.045	8207.58
486.249	8451.28
486.453	8260.82
486.657	8355.03
486.861	8424.66
487.065	8256.73
487.269	8207.58
487.473	7949.53
487.677	8301.78
487.881	8189.14
488.085	8187.1
488.289	8334.55
488.493	8228.06
488.697	8369.37
488.901	8410.33
489.105	8223.96
489.309	8285.4
489.512	8482
489.716	8246.49
489.92	8391.89
490.124	8461.52
490.328	8596.69
490.531	8377.56
490.735	8543.44
490.939	8459.48
491.143	8555.73
491.346	8451.28
491.55	8813.77
491.754	8529.11
491.958	8547.54
492.161	8547.54
492.365	8619.22
492.569	8582.35
492.772	8750.29
492.976	8713.42
493.18	8719.57
493.383	8936.65
493.587	8998.09
493.79	9073.87
493.994	9014.48
494.197	8938.7
494.401	9241.8
494.605	9227.46
494.808	9293
495.012	9284.81
495.215	9217.22
495.419	9407.69
495.622	9376.97
495.825	9505.99
496.029	9532.61
496.232	9655.49
496.436	9657.54
496.639	9936.06
496.843	9757.89
497.046	9999.55
497.249	10118.33
497.453	10120.38
497.656	10286.26
497.859	10269.88
498.063	10486.97
498.266	10788.02
498.469	10730.67
498.673	10910.89
498.876	10996.91
499.079	10894.51
499.282	10927.28
499.485	11398.31
499.689	11267.24
499.892	11291.82
500.095	11365.54
500.298	11734.18
500.501	11732.13
500.705	12336.28
500.908	12061.85
501.111	12160.16
501.314	12119.2
501.517	12434.58
501.72	12508.31
501.923	12416.15
502.126	12889.23
502.329	13036.69
502.532	12938.38
502.735	13194.38
502.938	13405.32
503.141	13446.28
503.344	13591.69
503.547	13685.89
503.75	13890.69
503.953	14068.86
504.156	14128.25
504.359	14326.91
504.562	14130.3
504.765	14716.02
504.968	14957.68
505.17	14953.59
505.373	15125.61
505.576	15217.77
505.779	15279.21
505.982	15402.09
506.185	15889.51
506.387	15764.58
506.59	16084.06
506.793	16407.64
506.996	16172.13
507.198	16712.79
507.401	16655.45
507.604	16841.81
507.807	17261.65
508.009	17343.56
508.212	17482.83
508.415	17617.99
508.617	17685.58
508.82	17966.15
509.022	17685.58
509.225	18353.21
509.428	18259.01
509.63	18539.58
509.833	18541.63
510.035	18914.36
510.238	18736.18
510.44	19194.93
510.643	19459.12
510.845	19616.81
511.048	19592.23
511.25	19870.76
511.453	19958.82
511.655	20704.28
511.858	20605.98
512.06	20708.38
512.262	20939.8
512.465	20673.56
512.667	21359.63
512.87	21451.79
513.072	21416.97
513.274	21982.21
513.477	22275.07
513.679	22328.32
513.881	22359.04
514.084	22875.13
514.286	22672.38
514.488	22588.41
514.69	23524.33
514.893	23526.38
515.095	23428.08
515.297	23962.6
515.499	24040.42
515.701	24040.42
515.904	24572.89
516.106	24636.38
516.308	24900.57
516.51	25222.1
516.712	25052.12
516.914	25344.98
517.116	26041.29
517.318	25848.78
517.52	25977.8
517.722	26426.31
517.925	26190.79
518.127	26948.54
518.329	27089.85
518.531	26788.8
518.733	27446.19
518.935	27753.39
519.136	27483.06
519.338	27567.02
519.54	28066.73
519.742	28429.22
519.944	28324.77
520.146	28720.03
520.348	28976.03
520.55	28924.83
520.752	29189.02
520.954	29733.78
521.155	29801.36
521.357	30118.79
521.559	30104.46
521.761	30702.46
521.963	30444.42
522.164	30673.79
522.366	30911.36
522.568	31232.89
522.77	31251.32
522.971	31886.19
523.173	31474.55
523.375	31976.3
523.576	32054.12
523.778	31994.73
523.98	32486.25
524.181	32344.94
524.383	32482.15
524.584	32908.13
524.786	33014.62
524.988	32652.13
525.189	32932.7
525.391	33489.75
525.592	33717.07
525.794	33663.83
525.995	33710.93
526.197	33821.52
526.398	33921.87
526.6	34390.86
526.801	34466.63
527.003	34392.9
527.204	34495.3
527.406	34833.22
527.607	35015.49
527.808	34945.86
528.01	34503.49
528.211	34411.34
528.412	35255.1
528.614	35279.67
528.815	35203.9
529.016	36012.85
529.218	34962.24
529.419	35492.66
529.62	35554.1
529.822	35748.66
530.023	35760.95
530.224	35844.91
530.425	35916.59
530.626	35828.53
530.828	35486.52
531.029	36297.52
531.23	35777.33
531.431	36096.81
531.632	36064.05
531.833	36170.54
532.035	35861.3
532.236	36242.22
532.437	36223.79
532.638	35752.76
532.839	36586.28
533.04	36395.82
533.241	35984.18
533.442	36825.89
533.643	36406.06
533.844	36463.4
534.045	36401.96
534.246	35941.17
534.447	36829.99
534.648	36520.74
534.849	36354.86
535.05	35701.56
535.251	36606.76
535.451	36209.45
535.652	36442.92
535.853	36395.82
536.054	36459.31
536.255	36721.44
536.456	35871.54
536.657	36768.55
536.857	36600.61
537.058	36309.8
537.259	36434.73
537.46	36367.15
537.66	36371.24
537.861	36293.42
538.062	36371.24
538.263	36555.56
538.463	36227.88
538.664	36244.27
538.865	36586.28
539.065	36422.44
539.266	36078.38
539.466	36881.19
539.667	36225.84
539.868	36739.88
540.068	36352.81
540.269	36211.5
540.469	36375.34
540.67	36309.8
540.87	36475.69
541.071	36303.66
541.271	36201.26
541.472	36211.5
541.672	36012.85
541.873	36029.23
542.073	35832.63
542.274	36551.46
542.474	35980.08
542.675	35943.22
542.875	36561.7
543.075	36193.07
543.276	35926.83
543.476	36674.34
543.676	36025.14
543.877	36295.47
544.077	36021.04
544.277	35996.46
544.478	35822.39
544.678	36404.01
544.878	36037.42
545.078	36133.68
545.279	35885.87
545.479	36045.62
545.679	36309.8
545.879	35738.42
546.079	36105.01
546.28	35431.22
546.48	35902.26
546.68	36182.83
546.88	35726.13
547.08	35930.93
547.28	35994.42
547.48	35599.16
547.68	36145.97
547.88	35511.1
548.081	35754.8
548.281	35769.14
548.481	35541.82
548.681	36313.9
548.881	35523.38
549.081	35783.48
549.28	35676.98
549.48	35949.36
549.68	35652.41
549.88	36053.81
550.08	35719.99
550.28	36084.53
550.48	35550.01
550.68	35615.54
550.88	35861.3
551.08	35887.92
551.279	36045.62
551.479	35158.84
551.679	36180.78
551.879	35742.52
552.079	35842.87
552.278	35588.92
552.478	35572.53
552.678	35484.47
552.878	35826.48
553.077	35754.8
553.277	35543.86
553.477	35717.94
553.676	35406.65
553.876	35394.36
554.076	35486.52
554.275	35048.25
554.475	35058.49
554.674	35558.2
554.874	35341.11
555.074	35107.65
555.273	35343.16
555.473	35298.11
555.672	35140.41
555.872	35298.11
556.071	35042.11
556.271	35267.39
556.47	35076.93
556.67	34624.32
556.869	34753.35
557.068	35195.71
557.268	34777.92
557.467	34968.38
557.667	34896.7
557.866	34573.13
558.065	34779.97
558.265	34618.18
558.464	34571.08
558.663	34642.76
558.863	34419.53
559.062	35035.97
559.261	34280.27
559.461	35091.26
559.66	34263.88
559.859	34810.69
560.058	34220.88
560.258	34513.73
560.457	34278.22
560.656	34526.02
560.855	34298.7
561.054	34192.2
561.253	34171.72
561.453	33968.97
561.652	34061.13
561.851	34251.59
562.05	34102.09
562.249	33874.77
562.448	34577.22
562.647	33842
562.846	33946.45
563.045	33801.04
563.244	33243.99
563.443	33893.2
563.642	33278.81
563.841	33915.73
564.04	33209.18
564.239	33657.68
564.438	33581.91
564.637	33672.02
564.836	33379.16
565.035	33110.88
565.234	33590.1
565.432	32998.24
565.631	33160.03
565.83	33188.7
566.029	32940.89
566.228	32926.56
566.427	32908.13
566.625	32557.92
566.824	32490.34
567.023	32828.26
567.222	32045.93
567.42	32707.43
567.619	32426.85
567.818	32578.4
568.016	32117.61
568.215	32654.18
568.414	32256.87
568.612	32516.97
568.811	32240.49
569.01	31896.43
569.208	31654.77
569.407	32349.03
569.605	31435.64
569.804	32043.88
570.002	31683.44
570.201	31720.31
570.4	31427.45
570.598	31296.38
570.797	31110.01
570.995	31560.56
571.193	30944.13
571.392	31654.77
571.59	30931.84
571.789	31120.25
571.987	30894.97
572.186	31095.67
572.384	30956.41
572.582	31001.47
572.781	31126.39
572.979	30632.83
573.177	30768
573.376	30909.31
573.574	30141.32
573.772	30516.1
573.971	30509.96
574.169	30430.08
574.367	30100.36
574.565	30274.44
574.763	30131.08
574.962	30290.82
575.16	29721.49
575.358	29963.15
575.556	29432.72
575.754	30192.52
575.952	29490.07
576.151	30110.6
576.349	29592.47
576.547	29356.95
576.745	29584.27
576.943	29457.3
577.141	29514.64
577.339	29211.54
577.537	29488.02
577.735	29023.13
577.933	29090.71
578.131	29221.78
578.329	28887.96
578.527	28740.51
578.725	28738.46
578.923	29166.49
579.121	28443.56
579.319	28623.78
579.516	28509.09
579.714	28644.26
579.912	28406.69
580.11	28308.39
580.308	28224.42
580.506	28064.68
580.704	27595.7
580.901	28253.09
581.099	28249
581.297	27763.63
581.495	27962.28
581.692	28025.77
581.89	27724.72
582.088	27724.72
582.285	27712.43
582.483	27843.5
582.681	27282.36
582.878	27771.82
583.076	27046.84
583.274	27403.19
583.471	27005.88
583.669	27163.57
583.866	27028.41
584.064	27204.53
584.262	26903.48
584.459	27188.15
584.657	26829.76
584.854	27114.42
585.052	26463.17
585.249	26774.46
585.447	26610.62
585.644	26266.56
585.841	26143.69
586.039	26467.27
586.236	26381.25
586.434	26348.48
586.631	26422.21
586.828	25969.61
587.026	26084.3
587.223	25992.14
587.42	25695.18
587.618	25576.4
587.815	25807.82
588.012	25848.78
588.21	25291.73
588.407	25422.8
588.604	25385.94
588.801	25463.76
588.999	24959.96
589.196	25299.92
589.393	25301.97
589.59	25281.49
589.787	24951.77
589.984	24689.63
590.182	24806.36
590.379	25105.37
590.576	24759.26
590.773	24787.93
590.97	24568.8
591.167	24763.36
591.364	24693.72
591.561	24658.91
591.758	24474.59
591.955	24163.3
592.152	24562.65
592.349	24263.65
592.546	24007.65
592.743	24165.35
592.94	23768.04
593.137	24173.54
593.334	23907.3
593.531	23710.7
593.727	23976.94
593.924	23829.48
594.121	23667.69
594.318	23688.17
594.515	23088.12
594.712	23581.68
594.908	23323.63
595.105	23333.87
595.302	23016.44
595.499	23342.07
595.696	22862.84
595.892	22903.8
596.089	22940.66
596.286	22942.71
596.482	22836.22
596.679	22696.95
596.876	23112.69
597.072	22557.69
597.269	22402.05
597.466	22418.43
597.662	22270.98
597.859	22387.71
598.055	22371.33
598.252	22588.41
598.448	22195.2
598.645	22225.92
598.841	21857.29
599.038	22012.93
599.234	22066.18
599.431	22006.79
599.627	21867.53
599.824	21871.62
600.02	21535.76
600.217	21627.92
600.413	21443.6
600.609	21482.51
600.806	21376.02
601.002	21543.95
601.198	21130.26
601.395	21290
601.591	21144.59
601.787	21230.61
601.984	21134.35
602.18	21306.38
602.376	21019.67
602.572	20743.19
602.769	20775.96
602.965	20485.15
603.161	20483.1
603.357	20399.13
603.553	20524.06
603.75	20472.86
603.946	20413.47
604.142	20519.96
604.338	20147.23
604.534	20427.81
604.73	20120.61
604.926	20106.27
605.122	20073.51
605.318	19905.57
605.514	20057.12
605.71	19960.87
605.906	19702.82
606.102	19745.83
606.298	20050.98
606.494	19960.87
606.69	19680.3
606.886	19930.15
607.082	19395.63
607.278	19715.11
607.474	19485.74
607.67	19803.18
607.866	19276.85
608.062	19674.15
608.257	19215.41
608.453	19186.74
608.649	19344.43
608.845	19225.65
609.041	19098.67
609.236	19375.15
609.432	19102.77
609.628	18871.35
609.824	19106.87
610.019	18879.54
610.215	19026.99
610.411	18744.38
610.606	18682.94
610.802	18658.36
610.998	19035.19
611.193	18906.16
611.389	18549.82
611.584	18654.26
611.78	18558.01
611.976	18811.96
612.171	18734.14
612.367	18601.02
612.562	18625.59
612.758	18033.73
612.953	18340.93
613.149	18648.12
613.344	18230.34
613.539	18351.17
613.735	18144.32
613.93	17992.77
614.126	18095.17
614.321	18289.73
614.517	18259.01
614.712	18054.21
614.907	18136.13
615.103	18201.66
615.298	18037.83
615.493	18172.99
615.688	17691.72
615.884	18238.53
616.079	17554.51
616.274	17781.83
616.47	17943.62
616.665	17706.06
616.86	17787.97
617.055	17828.93
617.25	17681.48
617.445	17964.1
617.641	17417.29
617.836	17581.13
618.031	17437.77
618.226	17542.22
618.421	17095.76
618.616	17640.52
618.811	17110.1
619.006	17450.06
619.201	16929.88
619.396	17581.13
619.591	16649.3
619.786	16948.31
619.981	16843.86
620.176	16841.81
620.371	16647.26
620.566	16630.87
620.761	16499.8
620.956	16886.87
621.151	16411.74
621.346	16493.66
621.541	16206.94
621.735	16659.54
621.93	15848.55
622.125	16358.49
622.32	16098.4
622.515	16055.39
622.709	15813.73
622.904	15965.28
623.099	15719.53
623.294	15924.32
623.488	15623.27
623.683	15535.21
623.878	15469.67
624.072	15414.38
624.267	15420.52
624.462	15191.15
624.656	15131.76
624.851	15289.45
625.046	14797.94
625.24	14681.21
625.435	14742.64
625.629	14851.19
625.824	14771.32
626.018	14734.45
626.213	14414.97
626.407	14251.13
626.602	14369.91
626.796	14093.44
626.991	14457.98
627.185	14107.77
627.38	13790.34
627.574	13900.93
627.768	13872.26
627.963	13663.36
628.157	13558.92
628.352	13585.54
628.546	13274.25
628.74	13681.8
628.935	13298.83
629.129	13300.87
629.323	13290.63
629.517	13028.49
629.712	13335.69
629.906	13145.23
630.1	13055.12
630.294	12846.23
630.489	12743.83
630.683	13028.49
630.877	12627.09
631.071	12719.25
631.265	12797.07
631.459	12754.07
631.653	12594.33
631.848	12420.25
632.042	12252.31
632.236	12393.62
632.43	12096.67
632.624	12227.74
632.818	12135.58
633.012	12074.14
633.206	11912.35
633.4	12008.61
633.594	11898.02
633.788	11879.58
633.982	11881.63
634.176	11898.02
634.369	11506.85
634.563	11596.96
634.757	11627.68
634.951	11508.9
635.145	11383.98
635.339	11467.94
635.533	11216.04
635.726	11318.44
635.92	11046.06
636.114	11154.6
636.308	11009.2
636.501	11007.15
636.695	10945.71
636.889	10878.13
637.083	10626.23
637.276	10499.25
637.47	10654.9
637.664	10681.52
637.857	10587.32
638.051	10472.63
638.244	10489.01
638.438	10611.89
638.632	10290.36
638.825	10251.45
639.019	10333.37
639.212	10081.47
639.406	10126.52
639.599	9991.36
639.793	10190.01
639.986	10050.75
640.18	9966.78
640.373	10017.98
640.567	9680.07
640.76	9870.53
640.954	9747.65
641.147	9667.78
641.34	9706.69
641.534	9874.62
641.727	9694.4
641.92	9669.83
642.114	9524.42
642.307	9432.26
642.5	9217.22
642.694	9305.29
642.887	9276.62
643.08	9264.33
643.273	9256.14
643.467	9024.72
643.66	9245.9
643.853	9010.38
644.046	8684.75
644.239	9016.52
644.432	8811.73
644.626	8772.82
644.819	8678.61
645.012	8867.02
645.205	8774.86
645.398	8494.29
645.591	8502.48
645.784	8813.77
645.977	8363.22
646.17	8592.59
646.363	8391.89
646.556	8303.83
646.749	8287.45
646.942	8516.82
647.135	8291.54
647.328	8289.49
647.521	8199.38
647.714	8099.03
647.907	8154.33
648.099	8287.45
648.292	7970.01
648.485	7859.42
648.678	7920.86
648.871	7847.13
649.064	7851.23
649.256	7814.37
649.449	7822.56
649.642	7558.37
649.835	7486.69
650.027	7562.47
650.22	7574.75
650.413	7421.16
650.605	7539.94
650.798	7558.37
650.991	7326.95
651.183	7433.44
651.376	7220.46
651.568	7382.24
651.761	7220.46
651.954	7212.26
652.146	7314.66
652.339	7134.44
652.531	7288.04
652.724	7142.63
652.916	6939.88
653.109	6954.22
653.301	6970.6
653.494	6986.99
653.686	6886.64
653.879	7029.99
654.071	6847.72
654.263	6864.11
654.456	6831.34
654.648	6829.29
654.84	6593.78
655.033	6724.85
655.225	6581.49
655.417	6561.01
655.61	6696.18
655.802	6632.69
655.994	6454.51
656.186	6604.02
656.379	6401.27
656.571	6415.6
656.763	6405.36
656.955	6296.82
657.148	6388.98
657.34	6384.88
657.532	6104.31
657.724	6323.44
657.916	6210.81
658.108	6067.45
658.3	6124.79
658.492	6173.94
658.684	6026.49
658.876	6073.59
659.068	5977.34
659.26	5942.52
659.452	5821.69
659.644	5952.76
659.836	5770.49
660.028	5983.48
660.22	5715.2
660.412	5766.4
660.604	5811.45
660.796	5702.91
660.988	5694.72
661.18	5788.92
661.372	5575.94
661.563	5664
661.755	5635.33
661.947	5500.16
662.139	5518.59
662.331	5491.97
662.522	5377.28
662.714	5375.24
662.906	5496.07
663.097	5324.04
663.289	5346.56
663.481	5199.11
663.673	5328.13
663.864	5264.64
664.056	5223.69
664.247	5330.18
664.439	5164.29
664.631	5065.99
664.822	5223.69
665.014	5203.21
665.205	5065.99
665.397	5129.48
665.588	4965.64
665.78	4955.4
665.971	5006.6
666.163	4971.79
666.354	5002.5
666.546	4771.08
666.737	4885.77
666.929	4855.05
667.12	4820.24
667.311	4832.52
667.503	4918.54
667.694	4934.92
667.885	4693.26
668.077	4662.54
668.268	4732.17
668.459	4738.32
668.651	4787.47
668.842	4791.56
669.033	4570.38
669.224	4644.11
669.416	4640.01
669.607	4556.05
669.798	4476.18
669.989	4627.73
670.18	4519.18
670.371	4408.59
670.563	4445.46
670.754	4545.81
670.945	4420.88
671.136	4429.07
671.327	4312.34
671.518	4480.27
671.709	4439.31
671.9	4390.16
672.091	4257.04
672.282	4345.11
672.473	4123.93
672.664	4230.42
672.855	4220.18
673.046	4246.8
673.237	4273.43
673.428	4220.18
673.619	4295.96
673.809	4160.79
674	4054.3
674.191	4187.41
674.382	4089.11
674.573	4136.21
674.764	4181.27
674.954	4189.46
675.145	4138.26
675.336	4048.15
675.527	3929.37
675.717	4181.27
675.908	3943.71
676.099	4033.82
676.289	3966.23
676.48	3851.55
676.671	3802.4
676.861	3988.76
677.052	3908.89
677.243	3990.81
677.433	3953.94
677.624	3968.28
677.814	3704.09
678.005	3933.47
678.195	3968.28
678.386	3767.58
678.576	3898.65
678.767	3730.72
678.957	3755.29
679.148	3929.37
679.338	3800.35
679.529	3697.95
679.719	3740.96
679.909	3814.68
680.1	3771.68
680.29	3876.12
680.481	3806.49
680.671	3845.4
680.861	3687.71
681.052	3747.1
681.242	3771.68
681.432	3656.99
681.622	3542.3
681.813	3654.94
682.003	3714.33
682.193	3642.65
682.383	3640.61
682.573	3620.13
682.764	3521.82
682.954	3620.13
683.144	3566.88
683.334	3575.07
683.524	3562.78
683.714	3472.67
683.904	3560.73
684.094	3624.22
684.284	3626.27
684.474	3558.69
684.664	3550.5
684.854	3511.58
685.044	3341.6
685.234	3403.04
685.424	3511.58
685.614	3396.9
685.804	3458.34
685.994	3452.19
686.184	3542.3
686.374	3444
686.564	3396.9
686.753	3376.42
686.943	3296.55
687.133	3405.09
687.323	3351.84
687.513	3378.47
687.702	3271.97
687.892	3394.85
688.082	3251.49
688.272	3312.93
688.461	3290.4
688.651	3304.74
688.841	3317.03
689.03	3157.29
689.22	3284.26
689.41	3222.82
689.599	3169.57
689.789	3212.58
689.979	3126.57
690.168	3042.6
690.358	3210.53
690.547	3042.6
690.737	3069.22
690.926	2989.35
691.116	3020.07
691.305	3188
691.495	3050.79
691.684	2913.58
691.874	3130.66
692.063	3089.7
692.252	3069.22
692.442	3058.98
692.631	2936.1
692.82	2923.82
693.01	2905.38
693.199	3058.98
693.388	3001.64
693.578	2870.57
693.767	2909.48
693.956	2975.02
694.146	2845.99
694.335	2823.47
694.524	2735.4
694.713	2839.85
694.902	2882.86
695.092	2897.19
695.281	2800.94
695.47	2788.65
695.659	2618.67
695.848	2747.69
696.037	2878.76
696.226	2864.43
696.415	2706.73
696.604	2829.61
696.793	2702.64
696.982	2690.35
697.171	2694.44
697.36	2739.5
697.549	2673.96
697.738	2647.34
697.927	2731.31
698.116	2821.42
698.305	2608.43
698.494	2624.81
698.683	2559.28
698.872	2700.59
699.061	2532.65
699.25	2608.43
699.438	2700.59
699.627	2669.87
699.816	2694.44
700.005	2624.81
700.193	2594.09
700.382	2594.09
700.571	2524.46
700.76	2676.01
700.948	2667.82
701.137	2532.65
701.326	2538.8
701.514	2510.13
701.703	2637.1
701.892	2649.39
702.08	2673.96
702.269	2624.81
702.457	2493.74
702.646	2540.85
702.834	2493.74
703.023	2497.84
703.212	2575.66
703.4	2534.7
703.589	2506.03
703.777	2452.78
703.965	2405.68
704.154	2553.13
704.342	2483.5
704.531	2409.78
704.719	2467.12
704.907	2454.83
705.096	2362.67
705.284	2510.13
705.472	2428.21
705.661	2444.59
705.849	2546.99
706.037	2407.73
706.226	2467.12
706.414	2430.26
706.602	2309.43
706.79	2348.34
706.979	2258.23
707.167	2454.83
707.355	2463.02
707.543	2481.46
707.731	2506.03
707.919	2436.4
708.107	2534.7
708.296	2305.33
708.484	2463.02
708.672	2422.06
708.86	2356.53
709.048	2397.49
709.236	2254.13
709.424	2469.17
709.612	2411.82
709.8	2334
709.988	2434.35
710.176	2405.68
710.364	2411.82
710.551	2452.78
710.739	2452.78
710.927	2422.06
711.115	2293.04
711.303	2452.78
711.491	2411.82
711.679	2360.63
711.866	2331.95
712.054	2315.57
712.242	2229.56
712.43	2389.3
712.617	2282.8
712.805	2221.36
712.993	2338.1
713.181	2272.56
713.368	2241.84
713.556	2473.26
713.744	2364.72
713.931	2440.5
714.119	2415.92
714.306	2278.71
714.494	2207.03
714.682	2288.95
714.869	2262.32
715.057	2209.08
715.244	2194.74
715.432	2313.52
715.619	2307.38
715.807	2190.64
715.994	2188.6
716.182	2264.37
716.369	2231.6
716.556	2301.23
716.744	2276.66
716.931	2301.23
717.119	2280.75
717.306	2342.19
717.493	2438.45
717.681	2301.23
717.868	2317.62
718.055	2207.03
718.242	2280.75
718.43	2301.23
718.617	2247.99
718.804	2342.19
718.991	2286.9
719.179	2329.91
719.366	2168.12
719.553	2239.8
719.74	2305.33
719.927	2305.33
720.114	2233.65
720.301	2227.51
720.488	2266.42
720.676	2243.89
720.863	2233.65
721.05	2192.69
721.237	2194.74
721.424	2231.6
721.611	2284.85
721.798	2135.35
721.985	2280.75
722.172	2186.55
722.358	2190.64
722.545	2178.36
722.732	2231.6
722.919	2217.27
723.106	2145.59
723.293	2207.03
723.48	2159.92
723.667	2174.26
723.853	2278.71
724.04	2284.85
724.227	2278.71
724.414	2174.26
724.6	2284.85
724.787	2235.7
724.974	2223.41
725.161	2108.73
725.347	2190.64
725.534	2204.98
725.72	2133.3
725.907	2153.78
726.094	2250.03
726.28	2186.55
726.467	2084.15
726.653	2075.96
726.84	2266.42
727.027	2174.26
727.213	2225.46
727.4	2321.71
727.586	2217.27
727.773	2243.89
727.959	2256.18
728.145	2090.29
728.332	2133.3
728.518	2141.49
728.705	2217.27
728.891	2073.91
729.077	2233.65
729.264	2157.88
729.45	2184.5
729.636	2313.52
729.823	2170.16
730.009	2108.73
730.195	2145.59
730.382	2108.73
730.568	2129.2
730.754	2235.7
730.94	2211.12
731.126	2141.49
731.313	2200.88
731.499	2186.55
731.685	2250.03
731.871	2186.55
732.057	2198.84
732.243	2202.93
732.429	2182.45
732.615	2204.98
732.801	2241.84
732.987	2149.68
733.173	2139.44
733.359	2067.77
733.545	2145.59
733.731	2166.07
733.917	2133.3
734.103	2182.45
734.289	2215.22
734.475	2143.54
734.661	2209.08
734.847	2176.31
735.033	2153.78
735.219	2123.06
735.404	2159.92
735.59	2141.49
735.776	2149.68
735.962	2080.05
736.148	2192.69
736.333	2075.96
736.519	2078.01
736.705	2096.44
736.89	2073.91
737.076	2182.45
737.262	2102.58
737.447	2088.25
737.633	2094.39
737.819	2032.95
738.004	2045.24
738.19	2110.77
738.375	2094.39
738.561	2051.38
738.747	2145.59
738.932	2004.28
739.118	2049.33
739.303	2063.67
739.489	1996.09
739.674	2127.16
739.859	2075.96
740.045	2026.81
740.23	1975.61
740.416	1940.79
740.601	1985.85
740.786	1924.41
740.972	1871.16
741.157	2014.52
741.342	1905.98
741.528	1897.78
741.713	2069.81
741.898	2004.28
742.084	1914.17
742.269	1965.37
742.454	2047.29
742.639	2100.53
742.824	1891.64
743.01	1805.63
743.195	1912.12
743.38	1944.89
743.565	1871.16
743.75	1842.49
743.935	1916.22
744.12	2022.71
744.305	1793.34
744.49	1799.48
744.675	1789.24
744.86	1750.33
745.045	1807.67
745.23	1912.12
745.415	1756.47
745.6	1938.74
745.785	1774.91
745.97	1807.67
746.155	1854.78
746.34	1805.63
746.525	1733.95
746.71	1867.06
746.895	1668.41
747.079	1770.81
747.264	1723.71
747.449	1715.52
747.634	1756.47
747.819	1668.41
748.003	1660.22
748.188	1662.27
748.373	1649.98
748.557	1725.75
748.742	1684.8
748.927	1690.94
749.111	1609.02
749.296	1609.02
749.481	1652.03
749.665	1566.01
749.85	1568.06
750.034	1592.64
750.219	1609.02
750.404	1514.81
750.588	1609.02
750.773	1586.49
750.957	1576.25
751.141	1418.56
751.326	1563.97
751.51	1465.66
751.695	1535.29
751.879	1393.98
752.064	1518.91
752.248	1469.76
752.432	1471.81
752.617	1445.18
752.801	1523.01
752.985	1355.07
753.17	1463.62
753.354	1506.62
753.538	1389.89
753.722	1314.11
753.907	1353.02
754.091	1246.53
754.275	1406.27
754.459	1420.61
754.643	1363.26
754.828	1273.15
755.012	1330.5
755.196	1291.59
755.38	1240.39
755.564	1346.88
755.748	1264.96
755.932	1326.4
756.116	1301.83
756.3	1252.67
756.484	1301.83
756.668	1191.24
756.852	1162.56
757.036	1281.35
757.22	1240.39
757.404	1203.52
757.588	1062.21
757.772	1224
757.956	1224
758.14	1197.38
758.323	1142.08
758.507	1099.08
758.691	1015.11
758.875	1115.46
759.059	1113.41
759.242	1117.51
759.426	1144.13
759.61	1097.03
759.794	1086.79
759.977	1051.97
760.161	1158.47
760.345	1086.79
760.528	1121.6
760.712	988.49
760.895	1174.85
761.079	1027.4
761.263	1043.78
761.446	990.53
761.63	1047.88
761.813	1029.45
761.997	965.96
762.18	1060.17
762.364	1039.69
762.547	900.42
762.731	910.66
762.914	937.29
763.098	933.19
763.281	1006.92
763.464	970.05
763.648	1039.69
763.831	941.38
764.015	1002.82
764.198	935.24
764.381	904.52
764.564	945.48
764.748	1060.17
764.931	1072.45
765.114	908.62
765.297	918.86
765.481	937.29
765.664	888.14
765.847	890.18
766.03	904.52
766.213	851.27
766.397	871.75
766.58	888.14
766.763	914.76
766.946	841.03
767.129	855.37
767.312	990.53
767.495	890.18
767.678	789.83
767.861	843.08
768.044	838.98
768.227	814.41
768.41	838.98
768.593	771.4
768.776	728.39
768.959	929.1
769.142	847.18
769.324	779.59
769.507	873.8
769.69	873.8
769.873	863.56
770.056	816.46
770.239	763.21
770.421	761.16
770.604	781.64
770.787	761.16
770.97	703.82
771.152	757.07
771.335	808.27
771.518	750.92
771.7	789.83
771.883	822.6
772.066	806.22
772.248	759.11
772.431	750.92
772.613	814.41
772.796	752.97
772.978	871.75
773.161	687.43
773.343	685.39
773.526	691.53
773.708	816.46
773.891	716.11
774.073	734.54
774.256	654.67
774.438	732.49
774.621	701.77
774.803	679.24
774.985	685.39
775.168	640.33
775.35	642.38
775.532	687.43
775.715	611.66
775.897	687.43
776.079	724.3
776.261	617.8
776.444	732.49
776.626	587.08
776.808	642.38
776.99	562.51
777.173	671.05
777.355	603.47
777.537	576.84
777.719	603.47
777.901	679.24
778.083	644.43
778.265	499.02
778.447	613.71
778.629	585.04
778.811	554.32
778.993	656.72
779.175	638.28
779.357	617.8
779.539	582.99
779.721	533.84
779.903	519.5
780.085	675.15
780.267	550.22
780.449	572.75
780.631	570.7
780.812	574.8
780.994	535.89
781.176	554.32
781.358	539.98
781.54	507.21
781.721	544.08
781.903	466.25
782.085	472.4
782.267	529.74
782.448	490.83
782.63	494.93
782.812	472.4
782.993	570.7
783.175	456.01
783.357	482.64
783.538	511.31
783.72	466.25
783.901	447.82
784.083	429.39
784.264	519.5
784.446	478.54
784.627	396.62
784.809	486.73
784.99	470.35
785.172	402.77
785.353	413.01
785.535	443.73
785.716	333.14
785.897	456.01
786.079	464.21
786.26	363.86
786.441	413.01
786.623	374.1
786.804	372.05
786.985	343.38
787.167	363.86
787.348	359.76
787.529	370
787.71	464.21
787.891	339.28
788.073	294.22
788.254	298.32
788.435	453.97
788.616	326.99
788.797	343.38
788.978	353.62
789.159	359.76
789.34	372.05
789.522	388.43
789.703	290.13
789.884	341.33
790.065	376.14
790.246	367.95
790.427	292.18
790.607	384.34
790.788	365.9
790.969	290.13
791.15	300.37
791.331	335.18
791.512	306.51
791.693	398.67
791.874	341.33
792.054	413.01
792.235	310.61
792.416	296.27
792.597	277.84
792.778	318.8
792.958	294.22
793.139	320.85
793.32	283.99
793.5	306.51
793.681	421.2
793.862	290.13
794.042	326.99
794.223	257.36
794.404	374.1
794.584	320.85
794.765	341.33
794.945	314.7
795.126	318.8
795.306	355.66
795.487	390.48
795.667	232.79
795.848	265.55
796.028	286.03
796.209	380.24
796.389	245.07
796.57	240.98
796.75	281.94
796.93	253.27
797.111	324.94
797.291	249.17
797.471	314.7
797.652	185.68
797.832	234.83
798.012	331.09
798.192	189.78
798.373	273.75
798.553	298.32
798.733	261.46
798.913	267.6
799.093	200.02
799.274	273.75
799.454	197.97
799.634	210.26
799.814	320.85
799.994	206.16
800.174	193.87
800.354	259.41
800.534	253.27
800.714	249.17
800.894	240.98
801.074	228.69
801.254	273.75
801.434	290.13
801.614	136.53
801.794	216.4
801.974	718.15
802.154	216.4
802.334	195.92
802.514	179.54
802.693	306.51
802.873	202.07
803.053	271.7
803.233	183.63
803.413	214.35
803.592	206.16
803.772	202.07
803.952	167.25
804.131	204.11
804.311	175.44
804.491	238.93
804.67	212.31
804.85	179.54
805.03	183.63
805.209	191.83
805.389	159.06
805.568	206.16
805.748	193.87
805.928	234.83
806.107	232.79
806.287	243.03
806.466	232.79
806.646	175.44
806.825	232.79
807.004	161.11
807.184	118.1
807.363	195.92
807.543	95.57
807.722	175.44
807.901	197.97
808.081	171.35
808.26	144.72
808.439	216.4
808.619	208.21
808.798	161.11
808.977	181.59
809.156	253.27
809.336	195.92
809.515	169.3
809.694	118.1
809.873	220.5
810.052	118.1
810.231	193.87
810.411	144.72
810.59	206.16
810.769	138.58
810.948	195.92
811.127	152.92
811.306	163.15
811.485	195.92
811.664	183.63
811.843	200.02
812.022	169.3
812.201	126.29
812.38	167.25
812.559	148.82
812.737	161.11
812.916	144.72
813.095	191.83
813.274	111.96
813.453	245.07
813.632	101.72
813.811	122.2
813.989	68.95
814.168	161.11
814.347	159.06
814.526	146.77
814.704	165.2
814.883	171.35
815.062	85.33
815.24	142.68
815.419	218.45
815.598	109.91
815.776	144.72
815.955	120.15
816.133	93.52
816.312	134.48
816.49	99.67
816.669	130.39
816.847	150.87
817.026	150.87
817.204	44.37
817.383	83.28
817.561	130.39
817.74	114
817.918	93.52
818.097	85.33
818.275	118.1
818.453	200.02
818.632	118.1
818.81	68.95
818.988	71
819.167	220.5
819.345	107.86
819.523	97.62
819.701	81.24
819.879	142.68
820.058	138.58
820.236	105.81
820.414	118.1
820.592	159.06
820.77	152.92
820.948	126.29
821.127	36.18
821.305	138.58
821.483	118.1
821.661	208.21
821.839	128.34
822.017	144.72
822.195	101.72
822.373	206.16
822.551	144.72
822.729	118.1
822.907	142.68
823.085	109.91
823.262	60.76
823.44	101.72
823.618	93.52
823.796	173.39
823.974	73.04
824.152	52.56
824.329	27.99
824.507	167.25
824.685	71
824.863	134.48
825.04	148.82
825.218	142.68
825.396	114
825.574	122.2
825.751	105.81
825.929	109.91
826.107	5.46
826.284	118.1
826.462	134.48
826.639	103.76
826.817	52.56
826.994	-10.92
827.172	124.24
827.349	126.29
827.527	171.35
827.704	120.15
827.882	118.1
828.059	85.33
828.237	154.96
828.414	62.8
828.591	19.8
828.769	120.15
828.946	99.67
829.124	173.39
829.301	171.35
829.478	56.66
829.655	77.14
829.833	60.76
830.01	68.95
830.187	126.29
830.364	68.95
830.542	142.68
830.719	81.24
830.896	118.1
831.073	54.61
831.25	128.34
831.427	114
831.604	68.95
831.782	60.76
831.959	103.76
832.136	73.04
832.313	3.41
832.49	52.56
832.667	189.78
832.844	77.14
833.021	154.96
833.198	134.48
833.374	34.13
833.551	138.58
833.728	134.48
833.905	103.76
834.082	40.28
834.259	54.61
834.436	77.14
834.612	73.04
834.789	93.52
834.966	87.38
835.143	118.1
835.319	60.76
835.496	126.29
835.673	62.8
835.85	132.44
836.026	122.2
836.203	134.48
836.38	44.37
836.556	64.85
836.733	58.71
836.909	136.53
837.086	93.52
837.262	68.95
837.439	38.23
837.616	68.95
837.792	140.63
837.968	71
838.145	95.57
838.321	118.1
838.498	-0.68
838.674	81.24
838.851	116.05
839.027	19.8
839.203	75.09
839.38	13.65
839.556	48.47
839.732	56.66
839.909	27.99
840.085	44.37
840.261	40.28
840.437	71
840.614	68.95
840.79	27.99
840.966	3.41
841.142	126.29
841.318	97.62
841.494	30.04
841.671	75.09
841.847	48.47
842.023	-0.68
842.199	132.44
842.375	68.95
842.551	-17.07
842.727	11.61
842.903	44.37
843.079	60.76
843.255	105.81
843.431	-12.97
843.607	52.56
843.783	105.81
843.959	-35.5
844.134	71
844.31	111.96
844.486	73.04
844.662	38.23
844.838	44.37
845.013	79.19
845.189	40.28
845.365	52.56
845.541	27.99
845.716	101.72
845.892	-33.45
846.068	97.62
846.244	1.37
846.419	118.1
846.595	54.61
846.77	-21.16
846.946	103.76
847.122	77.14
847.297	-8.87
847.473	142.68
847.648	-4.78
847.824	-10.92
847.999	44.37
848.175	48.47
848.35	40.28
848.526	79.19
848.701	36.18
848.876	56.66
849.052	38.23
849.227	52.56
849.403	15.7
849.578	87.38
849.753	81.24
849.929	54.61
850.104	23.89
850.279	77.14
850.454	52.56
850.63	68.95
850.805	87.38
850.98	118.1
851.155	21.85
851.33	3.41
851.505	-0.68
851.681	64.85
851.856	56.66
852.031	44.37
852.206	-8.87
852.381	27.99
852.556	-0.68
852.731	68.95
852.906	81.24
853.081	40.28
853.256	73.04
853.431	107.86
853.606	52.56
853.781	79.19
853.956	38.23
854.131	-4.78
854.305	38.23
854.48	-2.73
854.655	58.71
854.83	11.61
855.005	75.09
855.18	93.52
855.354	-8.87
855.529	25.94
855.704	7.51
855.879	27.99
856.053	7.51
856.228	52.56
856.403	13.65
856.577	91.48
856.752	5.46
856.926	79.19
857.101	-4.78
857.276	73.04
857.45	23.89
857.625	93.52
857.799	23.89
857.974	75.09
858.148	-19.11
858.323	54.61
858.497	-10.92
858.672	58.71
858.846	-60.07
859.02	40.28
859.195	32.08
859.369	62.8
859.543	75.09
859.718	-29.35
859.892	42.32
860.066	23.89
860.241	13.65
860.415	85.33
860.589	27.99
860.763	30.04
860.938	60.76
861.112	30.04
861.286	32.08
861.46	52.56
861.634	-12.97
861.808	105.81
861.982	7.51
862.157	5.46
862.331	32.08
862.505	52.56
862.679	-35.5
862.853	19.8
863.027	81.24
863.201	68.95
863.375	13.65
863.549	64.85
863.722	3.41
863.896	68.95
864.07	30.04
864.244	-41.64
864.418	23.89
864.592	-27.31
864.766	27.99
864.939	46.42
865.113	21.85
865.287	32.08
865.461	-0.68
865.634	114
865.808	32.08
865.982	7.51
866.156	-2.73
866.329	3.41
866.503	-64.17
866.676	54.61
866.85	85.33
867.024	-66.22
867.197	-2.73
867.371	-12.97
867.544	13.65
867.718	-19.11
867.891	27.99
868.065	-4.78
868.238	50.52
868.412	15.7
868.585	11.61
868.759	3.41
868.932	21.85
869.105	36.18
869.279	48.47
869.452	-12.97
869.625	-19.11
869.799	3.41
869.972	71
870.145	-37.55
870.319	15.7
870.492	68.95
870.665	-51.88
870.838	68.95
871.011	-6.83
871.185	19.8
871.358	95.57
871.531	-2.73
871.704	-25.26
871.877	32.08
872.05	85.33
872.223	-4.78
872.396	36.18
872.569	23.89
872.742	-21.16
872.915	142.68
873.088	-12.97
873.261	52.56
873.434	-0.68
873.607	25.94
873.78	21.85
873.953	-35.5
874.126	3.41
874.299	-4.78
874.471	60.76
874.644	48.47
874.817	17.75
874.99	122.2
875.163	-45.74
875.335	46.42
875.508	50.52
875.681	91.48
875.853	32.08
876.026	30.04
876.199	44.37
876.371	-19.11
876.544	30.04
876.717	34.13
876.889	54.61
877.062	23.89
877.234	-2.73
877.407	95.57
877.579	13.65
877.752	11.61
877.924	48.47
878.097	140.63
878.269	-0.68
878.442	-12.97
878.614	27.99
878.786	44.37
878.959	54.61
879.131	77.14
879.303	38.23
879.476	60.76
879.648	109.91
879.82	66.9
879.993	54.61
880.165	85.33
880.337	32.08
880.509	85.33
880.681	-27.31
880.854	-12.97
881.026	81.24
881.198	56.66
881.37	-2.73
881.542	1.37
881.714	13.65
881.886	27.99
882.058	77.14
882.23	-4.78
882.402	3.41
882.574	46.42
882.746	-2.73
882.918	19.8
883.09	44.37
883.262	9.56
883.434	9.56
883.606	-6.83
883.778	44.37
883.95	75.09
884.122	-4.78
884.293	36.18
884.465	19.8
884.637	-29.35
884.809	5.46
884.98	19.8
885.152	34.13
885.324	91.48
885.496	1.37
885.667	3.41
885.839	7.51
886.011	9.56
886.182	-4.78
886.354	52.56
886.525	-8.87
886.697	32.08
886.869	52.56
887.04	38.23
887.212	85.33
887.383	114
887.555	21.85
887.726	60.76
887.897	81.24
888.069	52.56
888.24	44.37
888.412	21.85
888.583	13.65
888.754	60.76
888.926	19.8
889.097	-29.35
889.268	-21.16
889.44	-15.02
889.611	44.37
889.782	-6.83
889.953	-10.92
890.125	52.56
890.296	46.42
890.467	19.8
890.638	46.42
890.809	44.37
890.98	19.8
891.151	32.08
891.323	36.18
891.494	87.38
891.665	-51.88
891.836	30.04
892.007	-2.73
892.178	85.33
892.349	54.61
892.52	-70.31
892.691	44.37
892.862	46.42
893.032	36.18
893.203	-31.4
893.374	71
893.545	71
893.716	-88.75
893.887	36.18
894.057	-17.07
894.228	89.43
894.399	-60.07
894.57	27.99
894.74	-0.68
894.911	52.56
895.082	13.65
895.253	27.99
895.423	17.75
895.594	19.8
895.764	19.8
895.935	-2.73
896.106	-27.31
896.276	64.85
896.447	-33.45
896.617	23.89
896.788	21.85
896.958	-33.45
897.129	-23.21
897.299	36.18
897.47	91.48
897.64	118.1
897.81	68.95
897.981	40.28
898.151	-33.45
898.322	-55.98
898.492	71
898.662	23.89
898.832	-27.31
899.003	-12.97
899.173	-0.68
899.343	40.28
899.513	11.61
