Data from USB4F104151__208__14-20-45-381.txt Node

Date: Thu Mar 13 14:20:45 EDT 2025
User: louis
Spectrometer: USB4F10415
Trigger mode: 4
Integration Time (sec): 2.000000E-2
Scans to average: 1
Electric dark correction enabled: true
Nonlinearity correction enabled: false
Boxcar width: 0
XAxis mode: Wavelengths
Number of Pixels in Spectrum: 3648
>>>>>Begin Spectral Data<<<<<
178.204	-143.7
178.424	-143.7
178.644	-143.7
178.864	-98.64
179.084	-106.84
179.304	-22.87
179.524	-24.92
179.744	9.9
179.964	-31.06
180.184	-12.63
180.404	-2.39
180.624	52.91
180.844	36.52
181.064	-16.73
181.283	-24.92
181.503	24.23
181.723	11.95
181.943	44.71
182.163	85.67
182.383	44.71
182.602	42.67
182.822	-8.53
183.042	87.72
183.262	-10.58
183.482	52.91
183.701	-12.63
183.921	89.77
184.141	-6.49
184.361	89.77
184.58	13.99
184.8	65.19
185.02	-24.92
185.239	38.57
185.459	26.28
185.679	18.09
185.898	-20.82
186.118	65.19
186.338	38.57
186.557	65.19
186.777	32.43
186.997	18.09
187.216	-41.3
187.436	57
187.655	50.86
187.875	18.09
188.095	-69.97
188.314	-37.2
188.534	-14.68
188.753	26.28
188.973	40.62
189.192	85.67
189.412	-26.96
189.631	34.47
189.851	-12.63
190.07	18.09
190.29	-0.34
190.509	108.2
190.729	42.67
190.948	20.14
191.168	138.92
191.387	71.34
191.607	61.1
191.826	57
192.045	-33.11
192.265	-8.53
192.484	-4.44
192.704	1.71
192.923	-88.4
193.142	116.39
193.362	77.48
193.581	85.67
193.8	32.43
194.02	122.54
194.239	1.71
194.458	79.53
194.678	-14.68
194.897	1.71
195.116	-24.92
195.335	57
195.555	79.53
195.774	16.04
195.993	100.01
196.212	-2.39
196.432	97.96
196.651	-24.92
196.87	63.15
197.089	89.77
197.308	118.44
197.528	32.43
197.747	-72.02
197.966	81.58
198.185	28.33
198.404	18.09
198.623	73.39
198.842	20.14
199.062	-20.82
199.281	24.23
199.5	79.53
199.719	11.95
199.938	32.43
200.157	114.34
200.376	71.34
200.595	44.71
200.814	77.48
201.033	65.19
201.252	50.86
201.471	32.43
201.69	59.05
201.909	36.52
202.128	36.52
202.347	106.15
202.566	34.47
202.785	57
203.004	81.58
203.223	85.67
203.442	79.53
203.661	77.48
203.879	-6.49
204.098	91.82
204.317	20.14
204.536	50.86
204.755	59.05
204.974	130.73
205.193	32.43
205.411	91.82
205.63	163.5
205.849	11.95
206.068	-39.25
206.287	20.14
206.505	-6.49
206.724	28.33
206.943	-4.44
207.162	40.62
207.381	26.28
207.599	97.96
207.818	44.71
208.037	5.8
208.255	-35.16
208.474	-31.06
208.693	28.33
208.911	-12.63
209.13	7.85
209.349	79.53
209.567	65.19
209.786	75.43
210.005	-8.53
210.223	73.39
210.442	61.1
210.661	50.86
210.879	59.05
211.098	61.1
211.316	-0.34
211.535	28.33
211.753	24.23
211.972	-18.77
212.191	50.86
212.409	-33.11
212.628	26.28
212.846	18.09
213.065	44.71
213.283	67.24
213.502	9.9
213.72	32.43
213.938	48.81
214.157	44.71
214.375	75.43
214.594	54.95
214.812	11.95
215.031	48.81
215.249	-33.11
215.467	81.58
215.686	73.39
215.904	42.67
216.122	26.28
216.341	32.43
216.559	89.77
216.778	-29.01
216.996	97.96
217.214	-0.34
217.432	-78.16
217.651	114.34
217.869	26.28
218.087	22.19
218.306	91.82
218.524	69.29
218.742	-33.11
218.96	91.82
219.179	16.04
219.397	57
219.615	102.06
219.833	-10.58
220.051	7.85
220.27	87.72
220.488	34.47
220.706	18.09
220.924	42.67
221.142	24.23
221.36	22.19
221.578	9.9
221.796	57
222.015	5.8
222.233	130.73
222.451	-14.68
222.669	26.28
222.887	151.21
223.105	26.28
223.323	32.43
223.541	57
223.759	7.85
223.977	-16.73
224.195	69.29
224.413	48.81
224.631	42.67
224.849	7.85
225.067	57
225.285	28.33
225.503	52.91
225.721	-88.4
225.939	91.82
226.157	-41.3
226.375	124.58
226.592	-12.63
226.81	42.67
227.028	124.58
227.246	102.06
227.464	57
227.682	48.81
227.9	57
228.117	-0.34
228.335	50.86
228.553	52.91
228.771	59.05
228.989	65.19
229.206	1.71
229.424	16.04
229.642	106.15
229.86	16.04
230.077	130.73
230.295	28.33
230.513	-10.58
230.731	65.19
230.948	112.3
231.166	48.81
231.384	44.71
231.601	83.63
231.819	87.72
232.037	61.1
232.254	38.57
232.472	7.85
232.689	-33.11
232.907	65.19
233.125	48.81
233.342	91.82
233.56	24.23
233.777	18.09
233.995	26.28
234.213	73.39
234.43	61.1
234.648	24.23
234.865	3.75
235.083	40.62
235.3	32.43
235.518	9.9
235.735	106.15
235.953	134.82
236.17	44.71
236.388	52.91
236.605	-2.39
236.822	-22.87
237.04	87.72
237.257	-18.77
237.475	32.43
237.692	24.23
237.909	73.39
238.127	-14.68
238.344	85.67
238.562	42.67
238.779	32.43
238.996	-4.44
239.214	32.43
239.431	73.39
239.648	57
239.865	34.47
240.083	79.53
240.3	32.43
240.517	48.81
240.735	65.19
240.952	120.49
241.169	32.43
241.386	11.95
241.603	110.25
241.821	-14.68
242.038	11.95
242.255	-14.68
242.472	34.47
242.689	-4.44
242.907	57
243.124	106.15
243.341	91.82
243.558	-37.2
243.775	40.62
243.992	7.85
244.209	-24.92
244.426	7.85
244.643	16.04
244.86	5.8
245.078	83.63
245.295	71.34
245.512	40.62
245.729	32.43
245.946	48.81
246.163	11.95
246.38	-26.96
246.597	79.53
246.814	69.29
247.031	69.29
247.248	110.25
247.464	85.67
247.681	44.71
247.898	73.39
248.115	83.63
248.332	11.95
248.549	54.95
248.766	57
248.983	106.15
249.2	9.9
249.417	48.81
249.633	89.77
249.85	7.85
250.067	61.1
250.284	69.29
250.501	-16.73
250.717	-2.39
250.934	16.04
251.151	67.24
251.368	-26.96
251.585	73.39
251.801	91.82
252.018	-16.73
252.235	34.47
252.451	65.19
252.668	-16.73
252.885	81.58
253.102	-4.44
253.318	1.71
253.535	40.62
253.752	77.48
253.968	57
254.185	-6.49
254.401	75.43
254.618	61.1
254.835	65.19
255.051	83.63
255.268	63.15
255.484	30.38
255.701	65.19
255.917	57
256.134	87.72
256.351	-8.53
256.567	28.33
256.784	30.38
257	3.75
257.217	48.81
257.433	42.67
257.65	1.71
257.866	110.25
258.082	-29.01
258.299	50.86
258.515	40.62
258.732	9.9
258.948	32.43
259.165	24.23
259.381	73.39
259.597	67.24
259.814	75.43
260.03	28.33
260.246	-16.73
260.463	75.43
260.679	89.77
260.895	30.38
261.112	83.63
261.328	69.29
261.544	16.04
261.761	163.5
261.977	91.82
262.193	40.62
262.409	44.71
262.626	63.15
262.842	18.09
263.058	-8.53
263.274	26.28
263.49	89.77
263.707	48.81
263.923	16.04
264.139	13.99
264.355	130.73
264.571	57
264.787	65.19
265.004	69.29
265.22	93.87
265.436	32.43
265.652	48.81
265.868	-0.34
266.084	30.38
266.3	52.91
266.516	40.62
266.732	3.75
266.948	-26.96
267.164	67.24
267.38	102.06
267.596	59.05
267.812	136.87
268.028	42.67
268.244	42.67
268.46	7.85
268.676	85.67
268.892	57
269.108	9.9
269.324	36.52
269.54	42.67
269.756	108.2
269.972	-33.11
270.188	9.9
270.403	-24.92
270.619	5.8
270.835	38.57
271.051	16.04
271.267	18.09
271.483	-22.87
271.698	81.58
271.914	-20.82
272.13	-16.73
272.346	1.71
272.562	1.71
272.777	24.23
272.993	34.47
273.209	3.75
273.425	77.48
273.64	61.1
273.856	40.62
274.072	40.62
274.287	-65.88
274.503	50.86
274.719	-33.11
274.934	73.39
275.15	-29.01
275.366	-14.68
275.581	44.71
275.797	106.15
276.012	13.99
276.228	69.29
276.444	44.71
276.659	155.3
276.875	42.67
277.09	59.05
277.306	24.23
277.521	9.9
277.737	130.73
277.952	54.95
278.168	54.95
278.383	-2.39
278.599	46.76
278.814	50.86
279.03	16.04
279.245	26.28
279.461	42.67
279.676	69.29
279.892	34.47
280.107	28.33
280.322	-37.2
280.538	44.71
280.753	32.43
280.969	114.34
281.184	91.82
281.399	28.33
281.615	28.33
281.83	-4.44
282.045	34.47
282.26	9.9
282.476	89.77
282.691	11.95
282.906	20.14
283.122	57
283.337	26.28
283.552	36.52
283.767	89.77
283.983	16.04
284.198	54.95
284.413	100.01
284.628	-6.49
284.843	52.91
285.058	69.29
285.274	28.33
285.489	-0.34
285.704	34.47
285.919	3.75
286.134	40.62
286.349	-8.53
286.564	-2.39
286.779	73.39
286.995	67.24
287.21	-8.53
287.425	110.25
287.64	93.87
287.855	106.15
288.07	28.33
288.285	9.9
288.5	-0.34
288.715	57
288.93	16.04
289.145	-14.68
289.36	91.82
289.575	57
289.79	85.67
290.004	52.91
290.219	30.38
290.434	-12.63
290.649	32.43
290.864	22.19
291.079	63.15
291.294	32.43
291.509	18.09
291.724	28.33
291.938	-8.53
292.153	65.19
292.368	-41.3
292.583	34.47
292.798	57
293.012	20.14
293.227	40.62
293.442	-2.39
293.657	44.71
293.871	57
294.086	18.09
294.301	122.54
294.516	93.87
294.73	36.52
294.945	-49.49
295.16	-24.92
295.374	52.91
295.589	30.38
295.804	-0.34
296.018	81.58
296.233	132.78
296.447	102.06
296.662	67.24
296.877	-8.53
297.091	20.14
297.306	-12.63
297.52	32.43
297.735	44.71
297.949	42.67
298.164	-4.44
298.378	5.8
298.593	-2.39
298.807	24.23
299.022	3.75
299.236	79.53
299.451	83.63
299.665	-24.92
299.88	69.29
300.094	1.71
300.309	50.86
300.523	57
300.737	9.9
300.952	59.05
301.166	48.81
301.381	57
301.595	57
301.809	7.85
302.024	89.77
302.238	67.24
302.452	57
302.667	75.43
302.881	69.29
303.095	61.1
303.309	11.95
303.524	59.05
303.738	18.09
303.952	63.15
304.166	26.28
304.381	-6.49
304.595	26.28
304.809	-31.06
305.023	106.15
305.237	32.43
305.452	48.81
305.666	57
305.88	110.25
306.094	61.1
306.308	108.2
306.522	34.47
306.736	26.28
306.95	106.15
307.164	122.54
307.379	46.76
307.593	57
307.807	79.53
308.021	116.39
308.235	67.24
308.449	-43.35
308.663	81.58
308.877	50.86
309.091	48.81
309.305	85.67
309.519	32.43
309.733	48.81
309.947	9.9
310.161	89.77
310.374	34.47
310.588	91.82
310.802	67.24
311.016	48.81
311.23	-10.58
311.444	-6.49
311.658	65.19
311.872	61.1
312.085	16.04
312.299	126.63
312.513	36.52
312.727	44.71
312.941	3.75
313.154	57
313.368	97.96
313.582	24.23
313.796	59.05
314.009	79.53
314.223	52.91
314.437	-2.39
314.651	52.91
314.864	-96.6
315.078	34.47
315.292	7.85
315.505	7.85
315.719	22.19
315.933	7.85
316.146	40.62
316.36	42.67
316.573	124.58
316.787	100.01
317.001	46.76
317.214	-14.68
317.428	69.29
317.641	32.43
317.855	18.09
318.068	1.71
318.282	87.72
318.495	40.62
318.709	75.43
318.922	13.99
319.136	147.11
319.349	97.96
319.563	67.24
319.776	-37.2
319.99	38.57
320.203	114.34
320.417	83.63
320.63	108.2
320.843	71.34
321.057	1.71
321.27	44.71
321.483	50.86
321.697	106.15
321.91	87.72
322.124	1.71
322.337	16.04
322.55	85.67
322.763	-10.58
322.977	61.1
323.19	61.1
323.403	42.67
323.617	38.57
323.83	110.25
324.043	5.8
324.256	65.19
324.469	-8.53
324.683	83.63
324.896	40.62
325.109	18.09
325.322	16.04
325.535	110.25
325.748	65.19
325.962	48.81
326.175	83.63
326.388	91.82
326.601	18.09
326.814	11.95
327.027	91.82
327.24	89.77
327.453	-4.44
327.666	69.29
327.879	116.39
328.092	67.24
328.305	128.68
328.518	48.81
328.731	20.14
328.944	140.97
329.157	44.71
329.37	11.95
329.583	57
329.796	83.63
330.009	1.71
330.222	42.67
330.435	106.15
330.648	122.54
330.861	61.1
331.073	-8.53
331.286	89.77
331.499	91.82
331.712	-0.34
331.925	110.25
332.138	52.91
332.35	59.05
332.563	44.71
332.776	114.34
332.989	44.71
333.202	40.62
333.414	-2.39
333.627	97.96
333.84	-33.11
334.053	46.76
334.265	71.34
334.478	57
334.691	50.86
334.903	63.15
335.116	52.91
335.329	36.52
335.541	61.1
335.754	122.54
335.966	-12.63
336.179	120.49
336.392	77.48
336.604	75.43
336.817	77.48
337.029	40.62
337.242	85.67
337.454	44.71
337.667	130.73
337.88	65.19
338.092	26.28
338.305	106.15
338.517	9.9
338.729	48.81
338.942	73.39
339.154	106.15
339.367	44.71
339.579	126.63
339.792	-6.49
340.004	97.96
340.217	77.48
340.429	44.71
340.641	71.34
340.854	57
341.066	3.75
341.278	73.39
341.491	32.43
341.703	61.1
341.915	36.52
342.128	102.06
342.34	143.02
342.552	7.85
342.764	20.14
342.977	50.86
343.189	3.75
343.401	-0.34
343.613	16.04
343.826	138.92
344.038	40.62
344.25	57
344.462	28.33
344.674	9.9
344.886	116.39
345.099	42.67
345.311	106.15
345.523	11.95
345.735	36.52
345.947	34.47
346.159	26.28
346.371	-8.53
346.583	-31.06
346.795	145.06
347.007	9.9
347.219	114.34
347.431	34.47
347.643	112.3
347.855	81.58
348.067	106.15
348.279	-24.92
348.491	24.23
348.703	61.1
348.915	11.95
349.127	7.85
349.339	57
349.551	71.34
349.763	97.96
349.975	61.1
350.187	9.9
350.399	67.24
350.61	61.1
350.822	16.04
351.034	97.96
351.246	57
351.458	122.54
351.669	130.73
351.881	108.2
352.093	91.82
352.305	102.06
352.517	67.24
352.728	81.58
352.94	48.81
353.152	85.67
353.363	32.43
353.575	59.05
353.787	48.81
353.999	34.47
354.21	100.01
354.422	38.57
354.633	-2.39
354.845	48.81
355.057	26.28
355.268	40.62
355.48	93.87
355.692	40.62
355.903	24.23
356.115	-8.53
356.326	7.85
356.538	67.24
356.749	9.9
356.961	91.82
357.172	61.1
357.384	-33.11
357.595	1.71
357.807	87.72
358.018	32.43
358.23	-43.35
358.441	104.11
358.653	16.04
358.864	20.14
359.075	50.86
359.287	73.39
359.498	124.58
359.709	63.15
359.921	67.24
360.132	100.01
360.344	50.86
360.555	26.28
360.766	65.19
360.977	9.9
361.189	65.19
361.4	71.34
361.611	145.06
361.823	79.53
362.034	9.9
362.245	-33.11
362.456	61.1
362.667	50.86
362.879	138.92
363.09	61.1
363.301	34.47
363.512	28.33
363.723	44.71
363.935	67.24
364.146	46.76
364.357	61.1
364.568	97.96
364.779	-55.64
364.99	106.15
365.201	-14.68
365.412	57
365.623	32.43
365.834	147.11
366.045	65.19
366.256	104.11
366.467	87.72
366.678	63.15
366.889	26.28
367.1	-22.87
367.311	143.02
367.522	38.57
367.733	16.04
367.944	163.5
368.155	79.53
368.366	79.53
368.577	73.39
368.788	89.77
368.999	106.15
369.209	59.05
369.42	50.86
369.631	108.2
369.842	93.87
370.053	110.25
370.264	40.62
370.474	65.19
370.685	110.25
370.896	48.81
371.107	77.48
371.317	87.72
371.528	130.73
371.739	16.04
371.95	81.58
372.16	40.62
372.371	24.23
372.582	54.95
372.792	59.05
373.003	147.11
373.214	63.15
373.424	57
373.635	7.85
373.846	100.01
374.056	108.2
374.267	100.01
374.477	81.58
374.688	20.14
374.898	1.71
375.109	71.34
375.319	38.57
375.53	67.24
375.74	34.47
375.951	34.47
376.161	85.67
376.372	97.96
376.582	46.76
376.793	63.15
377.003	83.63
377.214	20.14
377.424	89.77
377.635	34.47
377.845	61.1
378.055	181.93
378.266	30.38
378.476	100.01
378.686	61.1
378.897	110.25
379.107	36.52
379.317	61.1
379.528	61.1
379.738	97.96
379.948	24.23
380.158	110.25
380.369	65.19
380.579	89.77
380.789	106.15
380.999	81.58
381.21	89.77
381.42	130.73
381.63	40.62
381.84	112.3
382.05	73.39
382.261	52.91
382.471	71.34
382.681	67.24
382.891	114.34
383.101	118.44
383.311	61.1
383.521	85.67
383.731	102.06
383.941	85.67
384.151	65.19
384.361	50.86
384.571	13.99
384.781	91.82
384.991	161.45
385.201	91.82
385.411	79.53
385.621	130.73
385.831	110.25
386.041	143.02
386.251	44.71
386.461	48.81
386.671	57
386.881	57
387.091	108.2
387.301	73.39
387.511	61.1
387.72	122.54
387.93	110.25
388.14	104.11
388.35	87.72
388.56	79.53
388.769	16.04
388.979	106.15
389.189	73.39
389.399	73.39
389.609	128.68
389.818	97.96
390.028	61.1
390.238	52.91
390.447	81.58
390.657	83.63
390.867	65.19
391.076	79.53
391.286	87.72
391.496	42.67
391.705	83.63
391.915	89.77
392.125	102.06
392.334	130.73
392.544	87.72
392.753	93.87
392.963	97.96
393.172	81.58
393.382	83.63
393.591	61.1
393.801	91.82
394.01	157.35
394.22	155.3
394.429	110.25
394.639	42.67
394.848	89.77
395.058	140.97
395.267	75.43
395.477	48.81
395.686	54.95
395.895	157.35
396.105	73.39
396.314	65.19
396.524	89.77
396.733	77.48
396.942	163.5
397.152	143.02
397.361	155.3
397.57	155.3
397.78	147.11
397.989	89.77
398.198	245.41
398.407	97.96
398.617	132.78
398.826	147.11
399.035	106.15
399.244	116.39
399.453	132.78
399.663	89.77
399.872	149.16
400.081	179.88
400.29	171.69
400.499	87.72
400.708	130.73
400.917	120.49
401.127	229.03
401.336	183.98
401.545	237.22
401.754	206.5
401.963	183.98
402.172	143.02
402.381	147.11
402.59	81.58
402.799	130.73
403.008	196.26
403.217	159.4
403.426	181.93
403.635	175.78
403.844	190.12
404.053	171.69
404.262	147.11
404.471	202.41
404.68	188.07
404.888	171.69
405.097	245.41
405.306	183.98
405.515	239.27
405.724	204.46
405.933	200.36
406.142	198.31
406.35	280.23
406.559	251.56
406.768	206.5
406.977	231.08
407.185	282.28
407.394	257.7
407.603	218.79
407.812	269.99
408.02	300.71
408.229	274.09
408.438	331.43
408.646	278.18
408.855	392.87
409.064	272.04
409.272	294.57
409.481	313
409.69	288.42
409.898	362.15
410.107	313
410.315	456.36
410.524	349.86
410.733	382.63
410.941	392.87
411.15	431.78
411.358	485.03
411.567	550.56
411.775	509.6
411.984	480.93
412.192	552.61
412.401	485.03
412.609	530.08
412.818	607.91
413.026	614.05
413.234	622.24
413.443	648.86
413.651	763.55
413.86	745.12
414.068	794.27
414.276	835.23
414.485	747.17
414.693	802.46
414.901	870.05
415.11	927.39
415.318	972.44
415.526	949.92
415.734	949.92
415.943	958.11
416.151	1015.45
416.359	1115.8
416.567	1162.9
416.776	1126.04
416.984	1130.14
417.192	1085.08
417.4	1244.82
417.608	1269.4
417.817	1285.78
418.025	1222.3
418.233	1490.58
418.441	1353.37
418.649	1486.48
418.857	1631.89
419.065	1711.76
419.273	1722
419.481	1629.84
419.689	1724.05
419.897	1861.26
420.105	1842.83
420.313	1992.33
420.521	2031.24
420.729	2031.24
420.937	2170.51
421.145	2258.57
421.353	2334.34
421.561	2506.37
421.769	2401.93
421.977	2494.08
422.185	2633.35
422.393	2657.92
422.601	2821.76
422.809	2875.01
423.017	2803.33
423.224	3004.03
423.432	3094.14
423.64	3118.72
423.848	3460.73
424.056	3335.8
424.263	3731.06
424.471	3686
424.679	3630.71
424.887	3800.69
425.094	3997.29
425.302	3913.33
425.51	4073.07
425.718	4236.91
425.925	4310.63
426.133	4486.76
426.341	4755.04
426.548	4822.63
426.756	4957.79
426.964	5086.81
427.171	5246.55
427.379	5219.93
427.586	5451.35
427.794	5709.4
428.001	5826.13
428.209	6221.39
428.417	6055.5
428.624	6512.2
428.832	6628.93
429.039	6489.67
429.247	6508.1
429.454	6954.56
429.662	7505.46
429.869	6919.75
430.076	7478.84
430.284	7433.79
430.491	7530.04
430.699	8144.43
430.906	7861.81
431.114	8142.38
431.321	8478.25
431.528	8560.17
431.736	9188.89
431.943	9537.05
432.15	9182.75
432.358	9487.9
432.565	10030.61
432.772	9766.42
432.979	10364.43
433.187	10434.06
433.394	10507.79
433.601	11353.6
433.808	11472.38
434.016	11333.12
434.223	11789.81
434.43	12318.19
434.637	12248.56
434.844	12875.24
435.052	13143.52
435.259	12903.91
435.466	13307.36
435.673	12963.3
435.88	13788.63
436.087	14806.47
436.294	14519.76
436.501	14233.04
436.708	14646.73
436.915	15168.96
437.122	15599.04
437.329	15664.57
437.537	16133.56
437.743	16676.27
437.95	16293.3
438.157	17040.81
438.364	17868.19
438.571	17751.45
438.778	17771.93
438.985	19498.37
439.192	18857.35
439.399	19299.72
439.606	18734.48
439.813	19877.24
440.02	21202.28
440.227	20565.36
440.433	20417.91
440.64	20964.71
440.847	20960.62
441.054	21560.67
441.261	23248.2
441.467	22902.09
441.674	23151.95
441.881	24241.46
442.088	23921.98
442.294	23588.16
442.501	24284.47
442.708	24675.63
442.914	25785.63
443.121	26809.62
443.328	26414.36
443.534	27862.27
443.741	27227.4
443.948	26918.16
444.154	28605.69
444.361	28423.42
444.568	28808.44
444.774	28519.67
444.981	28859.63
445.187	29908.19
445.394	31153.36
445.6	30424.28
445.807	33592.49
446.013	31939.78
446.22	32926.9
446.426	34012.32
446.633	34221.22
446.839	35282.06
447.046	33895.59
447.252	35519.63
447.459	35953.8
447.665	35583.12
447.871	37514.35
448.078	38921.3
448.284	37059.7
448.491	38003.81
448.697	39433.3
448.903	39900.23
449.11	40838.2
449.316	39566.41
449.522	40234.05
449.728	41407.54
449.935	41815.08
450.141	41233.46
450.347	42501.15
450.553	41102.39
450.76	41659.44
450.966	42959.9
451.172	42812.45
451.378	43432.98
451.584	42695.71
451.791	43635.73
451.997	43502.61
452.203	44311.56
452.409	44221.45
452.615	44252.17
452.821	42550.31
453.027	41743.41
453.233	44172.3
453.44	42570.79
453.646	43037.72
453.852	42953.76
454.058	44002.32
454.264	42591.26
454.47	43774.99
454.676	42370.08
454.882	44000.27
455.088	40055.88
455.294	40946.75
455.5	41339.96
455.705	41688.11
455.911	40092.74
456.117	39081.05
456.323	39093.33
456.529	37178.48
456.735	38521.95
456.941	37241.97
457.147	37317.75
457.352	35693.71
457.558	35476.62
457.764	35648.65
457.97	34577.56
458.176	34077.86
458.381	34321.57
458.587	32509.11
458.793	32263.36
458.999	30903.51
459.204	32761.01
459.41	32038.08
459.616	30055.65
459.821	29955.3
460.027	30180.57
460.233	28968.18
460.438	27680
460.644	28228.86
460.85	26782.99
461.055	26361.11
461.261	26737.94
461.466	24616.24
461.672	23878.97
461.878	25451.81
462.083	23809.34
462.289	23117.13
462.494	23090.51
462.7	21990.75
462.905	21443.94
463.111	22412.63
463.316	22046.04
463.522	21753.18
463.727	21908.83
463.932	21710.18
464.138	21542.24
464.343	21749.09
464.549	21067.11
464.754	21810.53
464.959	21556.58
465.165	21378.4
465.37	20237.69
465.575	20034.94
465.781	20862.32
465.986	20530.55
466.191	19828.09
466.397	19543.42
466.602	18683.28
466.807	19107.21
467.012	19467.65
467.218	19156.36
467.423	19015.05
467.628	19438.98
467.833	19989.88
468.038	19099.02
468.244	18840.97
468.449	19389.83
468.654	18822.54
468.859	18630.03
469.064	18605.45
469.269	17903
469.474	17970.58
469.679	18328.98
469.885	17718.68
470.09	17907.1
470.295	17792.41
470.5	17204.64
470.705	17487.26
470.91	17116.58
471.115	16846.25
471.32	17407.39
471.525	17094.05
471.73	16858.54
471.935	16614.83
472.139	16090.55
472.344	16197.04
472.549	16248.24
472.754	15979.96
472.959	15533.5
473.164	15254.98
473.369	15089.09
473.574	15568.32
473.778	15492.54
473.983	15261.12
474.188	15437.25
474.393	14826.95
474.598	14845.38
474.802	14724.55
475.007	14648.78
475.212	14822.86
475.417	13936.09
475.621	14126.55
475.826	14181.84
476.031	13690.33
476.235	13721.05
476.44	13694.43
476.645	13383.13
476.849	13616.6
477.054	13420
477.259	13075.94
477.463	13254.11
477.668	12811.75
477.872	12899.81
478.077	12924.39
478.282	12596.71
478.486	12350.96
478.691	12332.53
478.895	12195.31
479.1	12023.28
479.304	12037.62
479.509	11847.16
479.713	12148.21
479.918	11757.05
480.122	11427.32
480.326	11810.29
480.531	11759.1
480.735	11718.14
480.94	11628.03
481.144	11742.71
481.348	11499
481.553	11286.01
481.757	11044.35
481.961	11333.12
482.166	11451.9
482.37	11367.93
482.574	11298.3
482.778	11171.33
482.983	11265.53
483.187	11349.5
483.391	11412.99
483.595	11169.28
483.8	11062.79
484.004	11300.35
484.208	11193.86
484.412	11095.55
484.616	11173.38
484.821	11347.45
485.025	11038.21
485.229	11292.16
485.433	11169.28
485.637	11216.38
485.841	11083.27
486.045	11197.95
486.249	11003.39
486.453	11091.46
486.657	11394.56
486.861	11187.71
487.065	10980.87
487.269	11181.57
487.473	10853.89
487.677	11070.98
487.881	11378.17
488.085	10960.39
488.289	11353.6
488.493	11152.9
488.697	11384.32
488.901	11453.95
489.105	11290.11
489.309	11265.53
489.512	11351.55
489.716	11212.29
489.92	11292.16
490.124	11159.04
490.328	11525.63
490.531	11412.99
490.735	11474.43
490.939	11615.74
491.143	11392.51
491.346	11458.04
491.55	11755
491.754	11628.03
491.958	11806.2
492.161	11562.49
492.365	11808.25
492.569	11539.96
492.772	11728.38
492.976	12125.68
493.18	11711.99
493.383	12197.36
493.587	11955.7
493.79	12275.18
493.994	12156.4
494.197	12285.42
494.401	12404.21
494.605	12506.6
494.808	12606.95
495.012	12525.04
495.215	12723.69
495.419	12805.61
495.622	12586.47
495.825	13049.32
496.029	13065.7
496.232	13049.32
496.436	12969.44
496.639	13579.74
496.843	13317.6
497.046	13594.08
497.249	13878.74
497.453	13864.41
497.656	14097.88
497.859	13884.89
498.063	13888.98
498.266	14673.35
498.469	14482.89
498.673	14566.86
498.876	14714.31
499.079	14810.57
499.282	14747.08
499.485	15314.37
499.689	15357.38
499.892	15521.21
500.095	15490.49
500.298	16160.18
500.501	15631.8
500.705	16217.52
500.908	16459.18
501.111	16717.23
501.314	16500.14
501.517	16809.39
501.72	16962.98
501.923	17038.76
502.126	17352.1
502.329	17753.5
502.532	17618.33
502.735	17843.61
502.938	18220.44
503.141	18337.17
503.344	18488.72
503.547	18474.38
503.75	19074.44
503.953	18998.66
504.156	19357.06
504.359	19244.42
504.562	19606.91
504.765	20016.51
504.968	20116.86
505.17	20292.98
505.373	20434.29
505.576	20768.11
505.779	20831.6
505.982	21165.42
506.185	21294.44
506.387	21474.66
506.59	21519.71
506.793	22412.63
506.996	21775.71
507.198	22426.96
507.401	22560.08
507.604	22797.65
507.807	23180.62
508.009	23393.61
508.212	23461.19
508.415	23680.32
508.617	23786.82
508.82	24149.31
509.022	24163.64
509.225	24589.62
509.428	25068.84
509.63	25036.08
509.833	25062.7
510.035	26088.73
510.238	25552.16
510.44	25746.72
510.643	26152.22
510.845	26584.34
511.048	26412.31
511.25	26629.4
511.453	26948.88
511.655	27954.43
511.858	27290.89
512.06	27938.05
512.262	28341.5
512.465	27960.58
512.667	28493.05
512.87	29019.38
513.072	28867.83
513.274	29609.19
513.477	29832.42
513.679	30043.36
513.881	30399.71
514.084	30659.8
514.286	30373.08
514.488	31354.06
514.69	31741.13
514.893	31446.22
515.095	31352.01
515.297	31816.9
515.499	32208.06
515.701	32419
515.904	32941.24
516.106	33256.62
516.308	33105.07
516.51	33586.35
516.712	33893.54
516.914	34208.93
517.116	34739.35
517.318	34671.77
517.52	34747.54
517.722	34993.3
517.925	35441.81
518.127	36111.49
518.329	35937.41
518.531	35951.75
518.733	36400.26
518.935	37082.23
519.136	36865.14
519.338	37366.9
519.54	37493.87
519.742	37993.57
519.944	37829.74
520.146	38577.25
520.348	38376.55
520.55	39074.9
520.752	38839.39
520.954	39578.7
521.155	39212.12
521.357	39904.33
521.559	40444.99
521.761	40610.88
521.963	40741.95
522.164	40705.09
522.366	40901.69
522.568	41573.42
522.77	41305.14
522.971	42093.61
523.173	42271.78
523.375	42062.89
523.576	42382.37
523.778	42509.35
523.98	42796.06
524.181	42368.04
524.383	43029.53
524.584	43578.39
524.786	43455.51
524.988	43281.43
525.189	44239.88
525.391	44155.91
525.592	44272.65
525.794	44243.98
525.995	44504.07
526.197	44379.14
526.398	44852.22
526.6	45183.99
526.801	45286.39
527.003	45526
527.204	45386.74
527.406	45327.35
527.607	45605.87
527.808	45808.62
528.01	45306.87
528.211	45718.51
528.412	46894.05
528.614	46105.58
528.815	46177.26
529.016	46683.11
529.218	46384.1
529.419	46580.71
529.62	46646.24
529.822	46660.58
530.023	46586.85
530.224	47004.64
530.425	46717.92
530.626	46124.01
530.828	46549.99
531.029	47854.54
531.23	47016.93
531.431	46937.05
531.632	47188.95
531.833	46799.84
532.035	47031.26
532.236	47047.64
532.437	47748.05
532.638	46836.7
532.839	47512.53
533.04	47555.54
533.241	47109.08
533.442	47825.87
533.643	47256.54
533.844	47248.35
534.045	47555.54
534.246	46984.16
534.447	47674.32
534.648	47420.38
534.849	47332.31
535.05	46982.11
535.251	47352.79
535.451	47264.73
535.652	47283.16
535.853	47168.47
536.054	47813.59
536.255	47459.29
536.456	47250.39
536.657	47698.9
536.857	46722.02
537.058	47213.53
537.259	47899.6
537.46	47287.26
537.66	47600.6
537.861	47373.27
538.062	47643.6
538.263	47320.02
538.463	47371.22
538.664	47348.7
538.865	47403.99
539.065	47737.81
539.266	47010.78
539.466	47743.95
539.667	46945.25
539.868	47633.36
540.068	47283.16
540.269	47143.9
540.469	47768.53
540.67	47162.33
540.87	46920.67
541.071	47109.08
541.271	47225.82
541.472	46957.53
541.672	47096.8
541.873	46492.65
542.073	46515.17
542.274	47141.85
542.474	47035.36
542.675	46658.53
542.875	47182.81
543.075	46992.35
543.276	46445.54
543.476	47533.01
543.676	46836.7
543.877	47014.88
544.077	46853.09
544.277	47182.81
544.478	46734.31
544.678	46928.86
544.878	46717.92
545.078	46511.08
545.279	46861.28
545.479	46805.98
545.679	47006.69
545.879	46722.02
546.079	46580.71
546.28	46894.05
546.48	46306.28
546.68	47135.71
546.88	46941.15
547.08	46676.96
547.28	46337
547.48	46308.33
547.68	46517.22
547.88	46240.75
548.081	46623.72
548.281	46736.35
548.481	46416.87
548.681	46689.25
548.881	46595.04
549.081	46296.04
549.28	45951.98
549.48	46715.87
549.68	46631.91
549.88	47084.51
550.08	45974.51
550.28	46527.46
550.48	46316.52
550.68	46582.76
550.88	46187.5
551.08	46656.48
551.279	46355.43
551.479	45855.73
551.679	46162.92
551.879	46107.63
552.079	46347.24
552.278	46035.95
552.478	45966.32
552.678	45978.61
552.878	46101.48
553.077	46156.78
553.277	45915.12
553.477	45951.98
553.676	46101.48
553.876	46279.66
554.076	45880.3
554.275	46195.69
554.475	45513.72
554.674	45779.95
554.874	46355.43
555.074	45777.9
555.273	45775.86
555.473	45945.84
555.672	45427.7
555.872	45675.51
556.071	45945.84
556.271	45974.51
556.47	45612.02
556.67	45519.86
556.869	45495.28
557.068	45706.23
557.268	45462.52
557.467	46085.1
557.667	45990.89
557.866	45661.17
558.065	45530.1
558.265	45079.55
558.464	44956.67
558.663	45489.14
558.863	44958.72
559.062	45724.66
559.261	45050.88
559.461	45317.11
559.66	44706.82
559.859	44735.49
560.058	44504.07
560.258	45091.83
560.457	44762.11
560.656	45173.75
560.855	44983.29
561.054	44932.09
561.253	44846.08
561.453	44606.47
561.652	45020.16
561.851	44735.49
562.05	44526.6
562.249	44024.84
562.448	44364.81
562.647	44700.67
562.846	44504.07
563.045	44491.78
563.244	44096.52
563.443	44868.61
563.642	43785.23
563.841	43985.93
564.04	44188.68
564.239	44129.29
564.438	44018.7
564.637	44373
564.836	43822.09
565.035	43416.6
565.234	43680.78
565.432	43461.65
565.631	43574.29
565.83	43240.47
566.029	43478.04
566.228	43138.07
566.427	43349.01
566.625	43125.78
566.824	43033.63
567.023	43451.41
567.222	42742.81
567.42	43568.15
567.619	42798.11
567.818	42574.88
568.016	42791.97
568.215	42902.56
568.414	42255.4
568.612	43041.82
568.811	42423.33
569.01	42675.23
569.208	41755.69
569.407	42525.73
569.605	41878.57
569.804	42767.39
570.002	41628.72
570.201	42413.09
570.4	41837.61
570.598	41436.21
570.797	41120.82
570.995	41684.01
571.193	41339.96
571.392	41718.83
571.59	41393.2
571.789	41731.12
571.987	41679.92
572.186	41266.23
572.384	40987.71
572.582	41114.68
572.781	41339.96
572.979	40436.8
573.177	40830.01
573.376	41043
573.574	40406.08
573.772	40189
573.971	40434.75
574.169	40342.6
574.367	40340.55
574.565	40516.67
574.763	40053.83
574.962	39973.96
575.16	39521.36
575.358	40045.64
575.556	39550.03
575.754	39724.11
575.952	39457.87
576.151	39803.98
576.349	39474.26
576.547	39611.47
576.745	39517.26
576.943	39390.29
577.141	39042.13
577.339	39490.64
577.537	39185.49
577.735	38587.49
577.933	38462.56
578.131	38816.86
578.329	38730.84
578.527	38589.53
578.725	38444.13
578.923	38732.89
579.121	38685.79
579.319	38282.34
579.516	38253.67
579.714	38671.45
579.912	37809.26
580.11	38161.51
580.308	38337.63
580.506	38153.32
580.704	37375.09
580.901	37633.13
581.099	38081.64
581.297	37407.86
581.495	37295.22
581.692	37522.54
581.89	37033.08
582.088	37176.44
582.285	37016.69
582.483	37160.05
582.681	36928.63
582.878	36883.58
583.076	36701.31
583.274	36887.67
583.471	36598.91
583.669	36555.9
583.866	36670.59
584.064	36539.52
584.262	35918.98
584.459	36025.48
584.657	35873.93
584.854	36267.14
585.052	35779.72
585.249	35927.17
585.447	36109.44
585.644	35581.07
585.841	35611.79
586.039	35619.98
586.236	35546.25
586.434	35277.97
586.631	35054.74
586.828	35126.42
587.026	35175.57
587.223	34991.25
587.42	34931.86
587.618	34952.34
587.815	34585.75
588.012	34507.93
588.21	34296.99
588.407	34811.03
588.604	34415.77
588.801	34421.92
588.999	34477.21
589.196	34032.8
589.393	34184.35
589.59	34026.66
589.787	33821.86
589.984	33825.96
590.182	33184.94
590.379	33828.01
590.576	33533.1
590.773	33590.44
590.97	33496.24
591.167	33621.16
591.364	32887.99
591.561	33242.29
591.758	32761.01
591.955	32785.59
592.152	33449.13
592.349	33316.01
592.546	32646.33
592.743	32558.27
592.94	32066.75
593.137	32459.96
593.334	32486.59
593.531	32210.11
593.727	32644.28
593.924	32046.27
594.121	31724.74
594.318	32189.63
594.515	31634.63
594.712	32072.9
594.908	31689.93
595.105	31544.52
595.302	31323.34
595.499	31675.59
595.696	31472.84
595.892	30987.47
596.089	31446.22
596.286	31157.46
596.482	30780.63
596.679	31227.09
596.876	31063.25
597.072	30555.35
597.269	30571.74
597.466	30463.19
597.662	30330.08
597.859	30328.03
598.055	30684.37
598.252	30182.62
598.448	30364.89
598.645	29994.21
598.841	29857
599.038	29986.02
599.234	29934.82
599.431	29506.79
599.627	29660.39
599.824	29877.47
600.02	29592.81
600.217	29705.45
600.413	29215.98
600.609	29052.14
600.806	28974.32
601.002	29103.34
601.198	28957.94
601.395	28806.39
601.591	28814.58
601.787	28898.55
601.984	28450.04
602.18	28857.59
602.376	28703.99
602.572	28386.55
602.769	28212.48
602.965	27841.79
603.161	28091.65
603.357	28075.26
603.553	27725.06
603.75	28228.86
603.946	27647.24
604.142	27825.41
604.338	27811.07
604.534	27720.96
604.73	27469.06
604.926	27352.33
605.122	27516.17
605.318	27376.9
605.514	27282.7
605.71	27157.77
605.906	27239.69
606.102	27233.55
606.298	26981.65
606.494	26760.47
606.69	26963.22
606.886	26471.7
607.082	26293.53
607.278	26715.41
607.474	26258.71
607.67	26543.38
607.866	26078.49
608.062	26866.96
608.257	26469.65
608.453	26133.79
608.649	26158.36
608.845	26332.44
609.041	26162.46
609.236	26148.12
609.432	26041.63
609.628	26240.28
609.824	25888.03
610.019	25900.32
610.215	26023.2
610.411	25965.85
610.606	25824.54
610.802	25922.85
610.998	25877.79
611.193	25890.08
611.389	25498.92
611.584	25300.26
611.78	25566.5
611.976	25529.64
612.171	25314.6
612.367	25466.15
612.562	25339.18
612.758	25122.09
612.953	25009.45
613.149	25038.12
613.344	25052.46
613.539	25369.9
613.735	25154.86
613.93	25079.08
614.126	24902.96
614.321	24794.42
614.517	24976.69
614.712	24681.78
614.907	24513.84
615.103	24900.91
615.298	24706.35
615.493	24743.22
615.688	24560.95
615.884	24948.01
616.079	24388.92
616.274	24223.03
616.47	24732.98
616.665	24298.81
616.86	24294.71
617.055	24177.98
617.25	24235.32
617.445	24190.27
617.641	23571.78
617.836	24055.1
618.031	23895.36
618.226	24157.5
618.421	23696.71
618.616	24003.9
618.811	23403.85
619.006	23661.89
619.201	23201.1
619.396	23717.18
619.591	23029.07
619.786	23459.14
619.981	22947.15
620.176	23100.75
620.371	22797.65
620.566	22945.1
620.761	22709.58
620.956	22795.6
621.151	22367.57
621.346	22693.2
621.541	22271.32
621.735	22631.76
621.93	22164.82
622.125	22429.01
622.32	21478.75
622.515	21947.74
622.709	21677.41
622.904	21906.78
623.099	21486.95
623.294	21726.56
623.488	21261.67
623.683	21331.3
623.878	21020.01
624.072	20979.05
624.267	21138.79
624.462	20782.45
624.656	20712.81
624.851	20524.4
625.046	20352.37
625.24	20436.34
625.435	20243.83
625.629	20233.59
625.824	19787.13
626.018	20057.46
626.213	19457.41
626.407	20145.53
626.602	19783.04
626.796	19598.72
626.991	19451.27
627.185	19619.2
627.38	19348.87
627.574	19146.12
627.768	19045.77
627.963	18840.97
628.157	18609.55
628.352	18918.79
628.546	18605.45
628.74	18677.13
628.935	18218.39
629.129	18488.72
629.323	18394.51
629.517	18152.85
629.712	18255.25
629.906	18032.02
630.1	17511.84
630.294	17882.52
630.489	18007.45
630.683	17714.59
630.877	17309.09
631.071	17118.63
631.265	17374.63
631.459	17190.31
631.653	17268.13
631.848	17384.87
632.042	17337.76
632.236	16811.43
632.43	16989.61
632.624	16897.45
632.818	16594.35
633.012	16311.73
633.206	16514.48
633.4	16418.22
633.594	16137.65
633.788	16330.16
633.982	16455.09
634.176	16156.08
634.369	16117.17
634.563	16006.58
634.757	15867.32
634.951	15979.96
635.145	15859.13
635.339	15906.23
635.533	15261.12
635.726	15523.26
635.92	15064.52
636.114	15402.43
636.308	15254.98
636.501	15265.22
636.695	15103.43
636.889	14906.82
637.083	14962.12
637.276	14996.93
637.47	14665.16
637.664	14497.23
637.857	14749.13
638.051	14745.03
638.244	14319.06
638.438	14454.22
638.632	14446.03
638.825	14484.94
639.019	14269.9
639.212	13954.52
639.406	14114.26
639.599	13970.9
639.793	14173.65
639.986	13788.63
640.18	13796.82
640.373	13616.6
640.567	13729.24
640.76	13721.05
640.954	13303.26
641.147	13295.07
641.34	13526.49
641.534	13229.54
641.727	13067.75
641.92	13327.84
642.114	12967.4
642.307	13137.38
642.5	13082.08
642.694	12674.54
642.887	12744.17
643.08	12729.83
643.273	12672.49
643.467	12813.8
643.66	12453.36
643.853	12596.71
644.046	12467.69
644.239	12246.51
644.432	12185.07
644.626	12062.19
644.819	12209.65
645.012	12295.66
645.205	12228.08
645.398	12092.91
645.591	11869.69
645.784	11836.92
645.977	11689.46
646.17	11812.34
646.363	11562.49
646.556	11464.19
646.749	11609.59
646.942	11603.45
647.135	11208.19
647.328	11269.63
647.521	11507.2
647.714	11339.26
647.907	11197.95
648.099	11132.42
648.292	11011.59
648.485	11140.61
648.678	10808.84
648.871	10817.03
649.064	10630.66
649.256	10841.61
649.449	10821.13
649.642	10645
649.835	10642.95
650.027	10739.21
650.22	10526.22
650.413	10485.26
650.605	10448.4
650.798	10235.41
650.991	10247.69
651.183	10210.83
651.376	10014.23
651.568	10268.17
651.761	10096.14
651.954	10096.14
652.146	9981.46
652.339	9989.65
652.531	9727.51
652.724	9850.39
652.916	9547.29
653.109	9670.17
653.301	9842.2
653.494	9651.74
653.686	9518.62
653.879	9627.16
654.071	9502.23
654.263	9485.85
654.456	9322.01
654.648	9455.13
654.84	9336.35
655.033	9301.53
655.225	9305.63
655.417	9207.33
655.61	9055.78
655.802	9012.77
655.994	9045.54
656.186	8998.43
656.379	8939.04
656.571	8949.28
656.763	8715.81
656.955	8867.36
657.148	8740.39
657.34	8846.88
657.532	8695.33
657.724	8549.93
657.916	8554.02
658.108	8551.98
658.3	8357.42
658.492	8609.32
658.684	8453.67
658.876	8330.8
659.068	8306.22
659.26	8398.38
659.452	8365.61
659.644	8144.43
659.836	8183.34
660.028	8101.42
660.22	8015.41
660.412	8003.12
660.604	7921.2
660.796	8013.36
660.988	7913.01
661.18	7845.43
661.372	7833.14
661.563	7781.94
661.755	7894.58
661.947	7732.79
662.139	7734.84
662.331	7654.97
662.522	7548.47
662.714	7552.57
662.906	7527.99
663.097	7450.17
663.289	7349.82
663.481	7405.11
663.673	7274.04
663.864	7327.29
664.056	7126.59
664.247	7175.74
664.439	7269.95
664.631	7310.91
664.822	7327.29
665.014	7341.63
665.205	7202.36
665.397	6983.23
665.588	7016
665.78	6860.35
665.971	6889.03
666.163	6929.98
666.354	6805.06
666.546	6860.35
666.737	6714.95
666.929	6643.27
667.12	6774.34
667.311	6604.36
667.503	6544.97
667.694	6565.45
667.885	6518.34
668.077	6688.32
668.268	6426.18
668.459	6553.16
668.651	6512.2
668.842	6381.13
669.033	6334.03
669.224	6221.39
669.416	6483.53
669.607	6501.96
669.798	6327.88
669.989	6356.55
670.18	6342.22
670.371	6278.73
670.563	6159.95
670.754	6157.9
670.945	6164.04
671.136	6071.89
671.327	6004.3
671.518	5955.15
671.709	6155.85
671.9	6088.27
672.091	5959.25
672.282	5926.48
672.473	6049.36
672.664	6022.73
672.855	5822.03
673.046	5828.18
673.237	5815.89
673.428	5725.78
673.619	5793.36
673.809	5693.01
674	5619.28
674.191	5654.1
674.382	5572.18
674.573	5715.54
674.764	5457.5
674.954	5563.99
675.145	5498.45
675.336	5512.79
675.527	5473.88
675.717	5549.65
675.908	5463.64
676.099	5549.65
676.289	5414.49
676.48	5299.8
676.671	5328.47
676.861	5324.38
677.052	5287.51
677.243	5191.26
677.433	5383.77
677.624	5303.9
677.814	5197.4
678.005	5219.93
678.195	5242.46
678.386	5258.84
678.576	5140.06
678.767	5127.77
678.957	5221.98
679.148	5131.87
679.338	5183.07
679.529	5070.43
679.719	5078.62
679.909	5152.35
680.1	4972.13
680.29	5117.53
680.481	4875.87
680.671	5078.62
680.861	4970.08
681.052	4976.22
681.242	4841.06
681.432	4941.41
681.622	4771.43
681.813	4853.34
682.003	4687.46
682.193	4744.8
682.383	4763.23
682.573	4877.92
682.764	4800.1
682.954	4791.91
683.144	4683.36
683.334	4869.73
683.524	4720.23
683.714	4845.15
683.904	4759.14
684.094	4861.54
684.284	4689.51
684.474	4800.1
684.664	4734.56
684.854	4529.77
685.044	4636.26
685.234	4671.08
685.424	4712.03
685.614	4470.37
685.804	4521.57
685.994	4709.99
686.184	4607.59
686.374	4562.53
686.564	4509.29
686.753	4265.58
686.943	4234.86
687.133	4292.2
687.323	4370.02
687.513	4476.52
687.702	4302.44
687.892	4255.34
688.082	4353.64
688.272	4247.15
688.461	4157.04
688.651	4251.24
688.841	4226.67
689.03	4202.09
689.22	4114.03
689.41	4185.71
689.599	3956.33
689.789	4206.19
689.979	4234.86
690.168	4187.75
690.358	4138.6
690.547	4030.06
690.737	4103.79
690.926	4038.25
691.116	3944.05
691.305	4165.23
691.495	3966.57
691.684	3866.22
691.874	3886.7
692.063	4058.73
692.252	3909.23
692.442	4003.44
692.631	3825.26
692.82	3929.71
693.01	3704.43
693.199	3915.37
693.388	3647.09
693.578	3815.02
693.767	3794.54
693.956	3839.6
694.146	3729.01
694.335	3755.63
694.524	3739.25
694.713	3649.14
694.902	3645.04
695.092	3745.39
695.281	3591.8
695.47	3526.26
695.659	3688.05
695.848	3585.65
696.037	3546.74
696.226	3622.52
696.415	3473.01
696.604	3540.6
696.793	3647.09
696.982	3505.78
697.171	3616.37
697.36	3624.56
697.549	3638.9
697.738	3550.84
697.927	3491.45
698.116	3475.06
698.305	3456.63
698.494	3497.59
698.683	3423.86
698.872	3401.33
699.061	3315.32
699.25	3305.08
699.438	3405.43
699.627	3354.23
699.816	3417.72
700.005	3370.62
700.193	3368.57
700.382	3341.94
700.571	3358.33
700.76	3450.49
700.948	3442.29
701.137	3341.94
701.326	3274.36
701.514	3184.25
701.703	3255.93
701.892	3387
702.08	3221.11
702.269	3335.8
702.457	3303.03
702.646	3343.99
702.834	3219.07
703.023	3241.59
703.212	3202.68
703.4	3221.11
703.589	3178.11
703.777	3147.39
703.965	3169.91
704.154	3200.63
704.342	3079.8
704.531	3063.42
704.719	3145.34
704.907	3145.34
705.096	3047.04
705.284	3184.25
705.472	2954.88
705.661	3040.89
705.849	3108.48
706.037	3161.72
706.226	3112.57
706.414	3030.65
706.602	3075.71
706.79	3042.94
706.979	3079.8
707.167	2981.5
707.355	3067.52
707.543	3067.52
707.731	2981.5
707.919	2956.93
708.107	2885.25
708.296	3014.27
708.484	2989.69
708.672	3008.12
708.86	2975.36
709.048	2991.74
709.236	2956.93
709.424	2987.65
709.612	2969.21
709.8	2991.74
709.988	2887.29
710.176	2860.67
710.364	2989.69
710.551	2952.83
710.739	2928.25
710.927	2950.78
711.115	2805.38
711.303	2909.82
711.491	2907.77
711.679	2938.49
711.866	2784.9
712.054	2776.7
712.242	2791.04
712.43	2895.49
712.617	2809.47
712.805	2805.38
712.993	2907.77
713.181	2741.89
713.368	2915.97
713.556	2795.14
713.744	2723.46
713.931	2842.24
714.119	2733.7
714.306	2803.33
714.494	2784.9
714.682	2705.03
714.869	2793.09
715.057	2817.66
715.244	2557.57
715.432	2735.74
715.619	2676.35
715.807	2748.03
715.994	2614.91
716.182	2686.59
716.369	2641.54
716.556	2731.65
716.744	2616.96
716.931	2715.27
717.119	2735.74
717.306	2748.03
717.493	2705.03
717.681	2678.4
717.868	2717.31
718.055	2702.98
718.242	2590.34
718.43	2596.48
718.617	2700.93
718.804	2672.26
718.991	2653.83
719.179	2762.37
719.366	2492.04
719.553	2580.1
719.74	2565.76
719.927	2592.39
720.114	2655.87
720.301	2539.14
720.488	2487.94
720.676	2518.66
720.863	2657.92
721.05	2612.87
721.237	2549.38
721.424	2522.76
721.611	2473.6
721.798	2524.8
721.985	2504.32
722.172	2494.08
722.358	2473.6
722.545	2438.79
722.732	2459.27
722.919	2502.28
723.106	2354.82
723.293	2465.41
723.48	2350.73
723.667	2506.37
723.853	2442.89
724.04	2377.35
724.227	2442.89
724.414	2397.83
724.6	2395.78
724.787	2358.92
724.974	2436.74
725.161	2418.31
725.347	2381.45
725.534	2416.26
725.72	2416.26
725.907	2418.31
726.094	2338.44
726.28	2375.3
726.467	2344.58
726.653	2256.52
726.84	2360.97
727.027	2463.37
727.213	2473.6
727.4	2338.44
727.586	2352.77
727.773	2408.07
727.959	2262.66
728.145	2342.53
728.332	2246.28
728.518	2307.72
728.705	2309.77
728.891	2403.97
729.077	2295.43
729.264	2248.33
729.45	2197.13
729.636	2371.21
729.823	2322.06
730.009	2334.34
730.195	2381.45
730.382	2377.35
730.568	2285.19
730.754	2373.25
730.94	2260.62
731.126	2309.77
731.313	2262.66
731.499	2227.85
731.685	2246.28
731.871	2311.82
732.057	2379.4
732.243	2252.42
732.429	2260.62
732.615	2178.7
732.801	2221.7
732.987	2152.07
733.173	2272.9
733.359	2244.23
733.545	2258.57
733.731	2172.55
733.917	2279.05
734.103	2221.7
734.289	2178.7
734.475	2107.02
734.661	2195.08
734.847	2242.18
735.033	2227.85
735.219	2182.79
735.404	2137.74
735.59	2121.35
735.776	2264.71
735.962	2197.13
736.148	2188.94
736.333	2174.6
736.519	2186.89
736.705	2133.64
736.89	2190.99
737.076	2139.79
737.262	2023.05
737.447	2025.1
737.633	2150.03
737.819	2098.83
738.004	2145.93
738.19	2172.55
738.375	2162.31
738.561	2117.26
738.747	1984.14
738.932	2012.81
739.118	2029.2
739.303	2041.48
739.489	1959.56
739.674	2066.06
739.859	2010.76
740.045	2111.11
740.23	2027.15
740.416	1848.97
740.601	2066.06
740.786	2016.91
740.972	2043.53
741.157	2004.62
741.342	2016.91
741.528	1982.09
741.713	2039.44
741.898	2025.1
742.084	1949.32
742.269	1891.98
742.454	1982.09
742.639	1978
742.824	1889.93
743.01	2059.92
743.195	1971.85
743.38	1861.26
743.565	1951.37
743.75	1887.89
743.935	1773.2
744.12	1939.09
744.305	1689.23
744.49	1773.2
744.675	1851.02
744.86	1801.87
745.045	1846.93
745.23	1785.49
745.415	1740.43
745.6	1760.91
745.785	1760.91
745.97	1834.64
746.155	1631.89
746.34	1846.93
746.525	1742.48
746.71	1818.25
746.895	1728.14
747.079	1660.56
747.264	1709.71
747.449	1642.13
747.634	1769.1
747.819	1705.62
748.003	1558.16
748.188	1615.51
748.373	1672.85
748.557	1648.27
748.742	1638.03
748.927	1572.5
749.111	1660.56
749.296	1601.17
749.481	1623.7
749.665	1543.83
749.85	1459.86
750.034	1601.17
750.219	1547.92
750.404	1474.2
750.588	1441.43
750.773	1435.28
750.957	1490.58
751.141	1515.16
751.326	1535.64
751.51	1400.47
751.695	1433.24
751.879	1517.2
752.064	1506.96
752.248	1449.62
752.432	1388.18
752.617	1449.62
752.801	1461.91
752.985	1410.71
753.17	1369.75
753.354	1334.93
753.538	1339.03
753.722	1414.81
753.907	1312.41
754.091	1355.41
754.275	1320.6
754.459	1312.41
754.643	1226.39
754.828	1302.17
755.012	1334.93
755.196	1228.44
755.38	1261.21
755.564	1310.36
755.748	1296.02
755.932	1318.55
756.116	1244.82
756.3	1197.72
756.484	1148.57
756.668	1230.49
756.852	1203.86
757.036	1183.38
757.22	1246.87
757.404	1205.91
757.588	1187.48
757.772	1162.9
757.956	1171.1
758.14	1142.43
758.323	1095.32
758.507	1025.69
758.691	1146.52
758.875	1130.14
759.059	1134.23
759.242	1089.18
759.426	1107.61
759.61	1158.81
759.794	1123.99
759.977	1035.93
760.161	1052.31
760.345	1056.41
760.528	1099.42
760.712	1134.23
760.895	974.49
761.079	1007.26
761.263	1037.98
761.446	1052.31
761.63	1003.16
761.813	1011.36
761.997	962.2
762.18	1040.03
762.364	917.15
762.547	878.24
762.731	1042.07
762.914	896.67
763.098	949.92
763.281	974.49
763.464	888.48
763.648	822.94
763.831	884.38
764.015	886.43
764.198	994.97
764.381	1001.12
764.564	843.42
764.748	954.01
764.931	925.34
765.114	878.24
765.297	896.67
765.481	954.01
765.664	904.86
765.847	933.53
766.03	962.2
766.213	788.13
766.397	831.13
766.58	870.05
766.763	853.66
766.946	833.18
767.129	829.09
767.312	833.18
767.495	925.34
767.678	808.61
767.861	935.58
768.044	892.57
768.227	802.46
768.41	855.71
768.593	781.98
768.776	798.37
768.959	847.52
769.142	812.7
769.324	800.41
769.507	777.89
769.69	720.54
769.873	726.69
770.056	818.85
770.239	888.48
770.421	868
770.604	804.51
770.787	700.06
770.97	829.09
771.152	849.57
771.335	781.98
771.518	695.97
771.7	786.08
771.883	843.42
772.066	810.65
772.248	734.88
772.431	698.02
772.613	745.12
772.796	794.27
772.978	704.16
773.161	687.78
773.343	700.06
773.526	646.82
773.708	677.54
773.891	708.26
774.073	698.02
774.256	650.91
774.438	851.61
774.621	720.54
774.803	753.31
774.985	673.44
775.168	691.87
775.35	646.82
775.532	687.78
775.715	663.2
775.897	677.54
776.079	618.15
776.261	714.4
776.444	626.34
776.626	689.82
776.808	683.68
776.99	630.43
777.173	630.43
777.355	657.06
777.537	548.51
777.719	661.15
777.901	548.51
778.083	646.82
778.265	577.19
778.447	671.39
778.629	673.44
778.811	556.71
778.993	597.67
779.175	607.91
779.357	595.62
779.539	532.13
779.721	622.24
779.903	564.9
780.085	597.67
780.267	513.7
780.449	622.24
780.631	614.05
780.812	540.32
780.994	560.8
781.176	540.32
781.358	593.57
781.54	560.8
781.721	501.41
781.903	503.46
782.085	470.69
782.267	525.99
782.448	507.55
782.63	437.92
782.812	448.16
782.993	491.17
783.175	466.6
783.357	501.41
783.538	476.84
783.72	446.12
783.901	409.25
784.083	460.45
784.264	497.32
784.446	356.01
784.627	478.88
784.809	489.12
784.99	480.93
785.172	423.59
785.353	448.16
785.535	482.98
785.716	460.45
785.897	392.87
786.079	460.45
786.26	439.97
786.441	450.21
786.623	384.68
786.804	378.53
786.985	347.81
787.167	380.58
787.348	376.48
787.529	337.57
787.71	437.92
787.891	392.87
788.073	372.39
788.254	335.53
788.435	454.31
788.616	431.78
788.797	290.47
788.978	356.01
789.159	347.81
789.34	378.53
789.522	345.77
789.703	280.23
789.884	388.77
790.065	390.82
790.246	343.72
790.427	327.33
790.607	409.25
790.788	384.68
790.969	358.05
791.15	335.53
791.331	313
791.512	411.3
791.693	313
791.874	298.66
792.054	370.34
792.235	384.68
792.416	356.01
792.597	288.42
792.778	263.85
792.958	396.96
793.139	335.53
793.32	329.38
793.5	315.05
793.681	290.47
793.862	269.99
794.042	298.66
794.223	267.94
794.404	327.33
794.584	212.65
794.765	278.18
794.945	276.13
795.126	306.85
795.306	315.05
795.487	263.85
795.667	339.62
795.848	380.58
796.028	253.61
796.209	253.61
796.389	261.8
796.57	278.18
796.75	296.61
796.93	231.08
797.111	331.43
797.291	319.14
797.471	286.37
797.652	231.08
797.832	313
798.012	298.66
798.192	296.61
798.373	255.65
798.553	255.65
798.733	190.12
798.913	190.12
799.093	179.88
799.274	196.26
799.454	274.09
799.634	261.8
799.814	210.6
799.994	276.13
800.174	245.41
800.354	216.74
800.534	220.84
800.714	257.7
800.894	257.7
801.074	171.69
801.254	231.08
801.434	269.99
801.614	206.5
801.794	200.36
801.974	771.74
802.154	226.98
802.334	229.03
802.514	208.55
802.693	245.41
802.873	229.03
803.053	222.89
803.233	224.94
803.413	229.03
803.592	216.74
803.772	155.3
803.952	165.54
804.131	224.94
804.311	247.46
804.491	286.37
804.67	206.5
804.85	179.88
805.03	165.54
805.209	222.89
805.389	220.84
805.568	226.98
805.748	122.54
805.928	190.12
806.107	194.22
806.287	202.41
806.466	267.94
806.646	204.46
806.825	233.13
807.004	106.15
807.184	237.22
807.363	181.93
807.543	122.54
807.722	140.97
807.901	196.26
808.081	220.84
808.26	192.17
808.439	183.98
808.619	181.93
808.798	126.63
808.977	175.78
809.156	190.12
809.336	196.26
809.515	151.21
809.694	169.64
809.873	222.89
810.052	202.41
810.231	132.78
810.411	130.73
810.59	171.69
810.769	155.3
810.948	159.4
811.127	116.39
811.306	165.54
811.485	147.11
811.664	220.84
811.843	171.69
812.022	165.54
812.201	145.06
812.38	169.64
812.559	126.63
812.737	192.17
812.916	124.58
813.095	175.78
813.274	126.63
813.453	153.26
813.632	186.02
813.811	138.92
813.989	165.54
814.168	106.15
814.347	100.01
814.526	192.17
814.704	224.94
814.883	132.78
815.062	114.34
815.24	163.5
815.419	138.92
815.598	114.34
815.776	161.45
815.955	138.92
816.133	126.63
816.312	151.21
816.49	75.43
816.669	132.78
816.847	124.58
817.026	138.92
817.204	159.4
817.383	140.97
817.561	93.87
817.74	190.12
817.918	171.69
818.097	85.67
818.275	114.34
818.453	67.24
818.632	151.21
818.81	132.78
818.988	122.54
819.167	102.06
819.345	106.15
819.523	147.11
819.701	114.34
819.879	122.54
820.058	132.78
820.236	161.45
820.414	54.95
820.592	126.63
820.77	83.63
820.948	97.96
821.127	106.15
821.305	59.05
821.483	145.06
821.661	136.87
821.839	124.58
822.017	89.77
822.195	173.74
822.373	130.73
822.551	145.06
822.729	161.45
822.907	130.73
823.085	163.5
823.262	171.69
823.44	151.21
823.618	132.78
823.796	171.69
823.974	93.87
824.152	155.3
824.329	61.1
824.507	110.25
824.685	149.16
824.863	134.82
825.04	77.48
825.218	116.39
825.396	93.87
825.574	151.21
825.751	157.35
825.929	104.11
826.107	97.96
826.284	106.15
826.462	112.3
826.639	46.76
826.817	114.34
826.994	38.57
827.172	97.96
827.349	85.67
827.527	97.96
827.704	75.43
827.882	77.48
828.059	73.39
828.237	69.29
828.414	89.77
828.591	65.19
828.769	65.19
828.946	36.52
829.124	18.09
829.301	108.2
829.478	59.05
829.655	108.2
829.833	147.11
830.01	67.24
830.187	38.57
830.364	40.62
830.542	77.48
830.719	108.2
830.896	116.39
831.073	50.86
831.25	163.5
831.427	102.06
831.604	91.82
831.782	30.38
831.959	106.15
832.136	73.39
832.313	57
832.49	75.43
832.667	165.54
832.844	100.01
833.021	116.39
833.198	120.49
833.374	9.9
833.551	20.14
833.728	34.47
833.905	136.87
834.082	48.81
834.259	32.43
834.436	157.35
834.612	32.43
834.789	65.19
834.966	38.57
835.143	118.44
835.319	44.71
835.496	77.48
835.673	81.58
835.85	138.92
836.026	112.3
836.203	134.82
836.38	44.71
836.556	-35.16
836.733	11.95
836.909	102.06
837.086	44.71
837.262	36.52
837.439	50.86
837.616	83.63
837.792	67.24
837.968	97.96
838.145	-8.53
838.321	81.58
838.498	77.48
838.674	102.06
838.851	89.77
839.027	73.39
839.203	44.71
839.38	69.29
839.556	118.44
839.732	130.73
839.909	34.47
840.085	100.01
840.261	30.38
840.437	118.44
840.614	73.39
840.79	106.15
840.966	130.73
841.142	61.1
841.318	7.85
841.494	116.39
841.671	50.86
841.847	57
842.023	-4.44
842.199	75.43
842.375	93.87
842.551	-6.49
842.727	32.43
842.903	102.06
843.079	42.67
843.255	89.77
843.431	89.77
843.607	114.34
843.783	-41.3
843.959	100.01
844.134	57
844.31	124.58
844.486	85.67
844.662	34.47
844.838	-6.49
845.013	106.15
845.189	50.86
845.365	26.28
845.541	9.9
845.716	38.57
845.892	118.44
846.068	57
846.244	75.43
846.419	-18.77
846.595	77.48
846.77	61.1
846.946	52.91
847.122	126.63
847.297	-6.49
847.473	67.24
847.648	79.53
847.824	93.87
847.999	-0.34
848.175	97.96
848.35	65.19
848.526	28.33
848.701	114.34
848.876	1.71
849.052	100.01
849.227	11.95
849.403	65.19
849.578	42.67
849.753	30.38
849.929	89.77
850.104	24.23
850.279	59.05
850.454	36.52
850.63	73.39
850.805	46.76
850.98	13.99
851.155	63.15
851.33	28.33
851.505	-6.49
851.681	69.29
851.856	3.75
852.031	57
852.206	20.14
852.381	7.85
852.556	89.77
852.731	-6.49
852.906	59.05
853.081	97.96
853.256	67.24
853.431	81.58
853.606	16.04
853.781	-53.59
853.956	-20.82
854.131	67.24
854.305	32.43
854.48	9.9
854.655	108.2
854.83	32.43
855.005	18.09
855.18	89.77
855.354	32.43
855.529	61.1
855.704	97.96
855.879	91.82
856.053	-18.77
856.228	40.62
856.403	-39.25
856.577	16.04
856.752	-2.39
856.926	13.99
857.101	16.04
857.276	-22.87
857.45	122.54
857.625	24.23
857.799	16.04
857.974	-41.3
858.148	-41.3
858.323	59.05
858.497	-61.78
858.672	24.23
858.846	48.81
859.02	11.95
859.195	11.95
859.369	48.81
859.543	-41.3
859.718	67.24
859.892	52.91
860.066	100.01
860.241	1.71
860.415	83.63
860.589	26.28
860.763	77.48
860.938	9.9
861.112	85.67
861.286	16.04
861.46	22.19
861.634	16.04
861.808	44.71
861.982	-35.16
862.157	-0.34
862.331	18.09
862.505	81.58
862.679	-14.68
862.853	42.67
863.027	63.15
863.201	50.86
863.375	34.47
863.549	91.82
863.722	40.62
863.896	91.82
864.07	-67.92
864.244	38.57
864.418	32.43
864.592	-22.87
864.766	36.52
864.939	-43.35
865.113	57
865.287	9.9
865.461	28.33
865.634	24.23
865.808	-6.49
865.982	32.43
866.156	73.39
866.329	11.95
866.503	50.86
866.676	38.57
866.85	48.81
867.024	-31.06
867.197	67.24
867.371	-0.34
867.544	18.09
867.718	-63.83
867.891	24.23
868.065	24.23
868.238	-4.44
868.412	67.24
868.585	52.91
868.759	57
868.932	-8.53
869.105	-29.01
869.279	48.81
869.452	24.23
869.625	16.04
869.799	61.1
869.972	-12.63
870.145	48.81
870.319	-16.73
870.492	50.86
870.665	-69.97
870.838	18.09
871.011	7.85
871.185	-29.01
871.358	-65.88
871.531	26.28
871.704	32.43
871.877	116.39
872.05	9.9
872.223	30.38
872.396	104.11
872.569	57
872.742	-20.82
872.915	28.33
873.088	50.86
873.261	-31.06
873.434	-6.49
873.607	46.76
873.78	32.43
873.953	18.09
874.126	42.67
874.299	91.82
874.471	18.09
874.644	34.47
874.817	7.85
874.99	16.04
875.163	7.85
875.335	54.95
875.508	75.43
875.681	7.85
875.853	34.47
876.026	-22.87
876.199	50.86
876.371	65.19
876.544	57
876.717	24.23
876.889	16.04
877.062	77.48
877.234	-6.49
877.407	9.9
877.579	-0.34
877.752	38.57
877.924	50.86
878.097	24.23
878.269	57
878.442	50.86
878.614	36.52
878.786	44.71
878.959	42.67
879.131	44.71
879.303	16.04
879.476	1.71
879.648	-8.53
879.82	18.09
879.993	34.47
880.165	20.14
880.337	-8.53
880.509	48.81
880.681	-65.88
880.854	-29.01
881.026	50.86
881.198	42.67
881.37	20.14
881.542	48.81
881.714	57
881.886	40.62
882.058	-84.31
882.23	7.85
882.402	-6.49
882.574	34.47
882.746	-57.68
882.918	73.39
883.09	-14.68
883.262	52.91
883.434	-4.44
883.606	48.81
883.778	52.91
883.95	50.86
884.122	69.29
884.293	50.86
884.465	50.86
884.637	81.58
884.809	36.52
884.98	-14.68
885.152	38.57
885.324	59.05
885.496	7.85
885.667	-74.07
885.839	18.09
886.011	32.43
886.182	36.52
886.354	57
886.525	11.95
886.697	-14.68
886.869	65.19
887.04	65.19
887.212	116.39
887.383	57
887.555	36.52
887.726	-6.49
887.897	34.47
888.069	48.81
888.24	-39.25
888.412	5.8
888.583	89.77
888.754	24.23
888.926	57
889.097	-0.34
889.268	36.52
889.44	61.1
889.611	9.9
889.782	-16.73
889.953	-12.63
890.125	5.8
890.296	7.85
890.467	44.71
890.638	7.85
890.809	-20.82
890.98	-12.63
891.151	67.24
891.323	-0.34
891.494	-8.53
891.665	16.04
891.836	63.15
892.007	18.09
892.178	67.24
892.349	73.39
892.52	-16.73
892.691	-8.53
892.862	22.19
893.032	-35.16
893.203	67.24
893.374	40.62
893.545	-0.34
893.716	18.09
893.887	65.19
894.057	22.19
894.228	-18.77
894.399	-37.2
894.57	24.23
894.74	-0.34
894.911	40.62
895.082	1.71
895.253	67.24
895.423	-24.92
895.594	3.75
895.764	38.57
895.935	24.23
896.106	9.9
896.276	-41.3
896.447	16.04
896.617	7.85
896.788	-35.16
896.958	-14.68
897.129	-4.44
897.299	63.15
897.47	71.34
897.64	28.33
897.81	97.96
897.981	20.14
898.151	-53.59
898.322	40.62
898.492	-4.44
898.662	-57.68
898.832	-4.44
899.003	26.28
899.173	24.23
899.343	42.67
899.513	9.9
