Data from USB4F104151__96__14-18-01-000.txt Node

Date: Thu Mar 13 14:18:01 EDT 2025
User: louis
Spectrometer: USB4F10415
Trigger mode: 4
Integration Time (sec): 2.000000E-2
Scans to average: 1
Electric dark correction enabled: true
Nonlinearity correction enabled: false
Boxcar width: 0
XAxis mode: Wavelengths
Number of Pixels in Spectrum: 3648
>>>>>Begin Spectral Data<<<<<
178.204	-97.62
178.424	-97.62
178.644	-97.62
178.864	-105.81
179.084	-144.72
179.304	41.64
179.524	-15.7
179.744	-1.37
179.964	70.31
180.184	-17.75
180.404	33.45
180.624	-38.23
180.844	-5.46
181.064	-46.42
181.283	-83.28
181.503	25.26
181.723	37.55
181.943	17.07
182.163	84.65
182.383	27.31
182.602	98.99
182.822	39.59
183.042	-1.37
183.262	35.5
183.482	4.78
183.701	0.68
183.921	94.89
184.141	-5.46
184.361	68.27
184.58	10.92
184.8	25.26
185.02	2.73
185.239	129.7
185.459	-48.47
185.679	49.83
185.898	-85.33
186.118	148.14
186.338	43.69
186.557	27.31
186.777	107.18
186.997	82.6
187.216	12.97
187.436	27.31
187.655	-3.41
187.875	94.89
188.095	51.88
188.314	70.31
188.534	90.79
188.753	4.78
188.973	6.83
189.192	25.26
189.412	68.27
189.631	2.73
189.851	43.69
190.07	117.42
190.29	-3.41
190.509	2.73
190.729	43.69
190.948	21.16
191.168	139.94
191.387	92.84
191.607	4.78
191.826	60.07
192.045	25.26
192.265	2.73
192.484	19.11
192.704	31.4
192.923	39.59
193.142	131.75
193.362	49.83
193.581	21.16
193.8	49.83
194.02	33.45
194.239	19.11
194.458	90.79
194.678	37.55
194.897	84.65
195.116	66.22
195.335	66.22
195.555	41.64
195.774	10.92
195.993	58.03
196.212	17.07
196.432	-7.51
196.651	27.31
196.87	-15.7
197.089	72.36
197.308	23.21
197.528	29.35
197.747	-77.14
197.966	23.21
198.185	66.22
198.404	53.93
198.623	49.83
198.842	82.6
199.062	70.31
199.281	117.42
199.5	-19.8
199.719	17.07
199.938	127.66
200.157	68.27
200.376	17.07
200.595	-36.18
200.814	23.21
201.033	72.36
201.252	105.13
201.471	74.41
201.69	68.27
201.909	98.99
202.128	27.31
202.347	41.64
202.566	-32.08
202.785	6.83
203.004	8.87
203.223	150.18
203.442	66.22
203.661	17.07
203.879	62.12
204.098	92.84
204.317	-15.7
204.536	41.64
204.755	49.83
204.974	25.26
205.193	60.07
205.411	76.46
205.63	49.83
205.849	72.36
206.068	-7.51
206.287	51.88
206.505	76.46
206.724	41.64
206.943	51.88
207.162	55.98
207.381	33.45
207.599	60.07
207.818	58.03
208.037	-27.99
208.255	-30.04
208.474	82.6
208.693	41.64
208.911	76.46
209.13	133.8
209.349	8.87
209.567	74.41
209.786	45.74
210.005	33.45
210.223	58.03
210.442	17.07
210.661	115.37
210.879	8.87
211.098	-7.51
211.316	-40.28
211.535	86.7
211.753	74.41
211.972	60.07
212.191	-5.46
212.409	72.36
212.628	45.74
212.846	33.45
213.065	86.7
213.283	76.46
213.502	27.31
213.72	-23.89
213.938	21.16
214.157	0.68
214.375	4.78
214.594	-15.7
214.812	41.64
215.031	41.64
215.249	21.16
215.467	39.59
215.686	41.64
215.904	105.13
216.122	37.55
216.341	60.07
216.559	98.99
216.778	98.99
216.996	33.45
217.214	2.73
217.432	51.88
217.651	74.41
217.869	115.37
218.087	27.31
218.306	-13.65
218.524	-13.65
218.742	33.45
218.96	66.22
219.179	25.26
219.397	-13.65
219.615	2.73
219.833	70.31
220.051	-32.08
220.27	53.93
220.488	19.11
220.706	129.7
220.924	6.83
221.142	21.16
221.36	49.83
221.578	35.5
221.796	17.07
222.015	76.46
222.233	-5.46
222.451	58.03
222.669	0.68
222.887	90.79
223.105	64.17
223.323	58.03
223.541	-23.89
223.759	49.83
223.977	8.87
224.195	45.74
224.413	109.22
224.631	27.31
224.849	60.07
225.067	33.45
225.285	10.92
225.503	12.97
225.721	-13.65
225.939	19.11
226.157	0.68
226.375	197.29
226.592	-40.28
226.81	25.26
227.028	51.88
227.246	10.92
227.464	6.83
227.682	8.87
227.9	66.22
228.117	66.22
228.335	49.83
228.553	10.92
228.771	-32.08
228.989	76.46
229.206	25.26
229.424	43.69
229.642	33.45
229.86	53.93
230.077	33.45
230.295	68.27
230.513	62.12
230.731	76.46
230.948	21.16
231.166	103.08
231.384	0.68
231.601	82.6
231.819	49.83
232.037	41.64
232.254	62.12
232.472	103.08
232.689	105.13
232.907	53.93
233.125	49.83
233.342	53.93
233.56	21.16
233.777	43.69
233.995	27.31
234.213	25.26
234.43	94.89
234.648	0.68
234.865	4.78
235.083	117.42
235.3	-21.85
235.518	53.93
235.735	90.79
235.953	-32.08
236.17	12.97
236.388	45.74
236.605	84.65
236.822	78.51
237.04	82.6
237.257	4.78
237.475	-32.08
237.692	27.31
237.909	66.22
238.127	33.45
238.344	74.41
238.562	2.73
238.779	62.12
238.996	-15.7
239.214	90.79
239.431	8.87
239.648	-30.04
239.865	35.5
240.083	94.89
240.3	101.03
240.517	35.5
240.735	17.07
240.952	74.41
241.169	82.6
241.386	-36.18
241.603	-34.13
241.821	39.59
242.038	47.79
242.255	47.79
242.472	27.31
242.689	129.7
242.907	25.26
243.124	-52.56
243.341	21.16
243.558	12.97
243.775	0.68
243.992	-38.23
244.209	33.45
244.426	70.31
244.643	41.64
244.86	21.16
245.078	0.68
245.295	0.68
245.512	53.93
245.729	-11.61
245.946	-7.51
246.163	58.03
246.38	12.97
246.597	58.03
246.814	27.31
247.031	-27.99
247.248	49.83
247.464	68.27
247.681	6.83
247.898	29.35
248.115	92.84
248.332	27.31
248.549	76.46
248.766	158.38
248.983	-23.89
249.2	35.5
249.417	41.64
249.633	41.64
249.85	33.45
250.067	8.87
250.284	25.26
250.501	82.6
250.717	78.51
250.934	66.22
251.151	2.73
251.368	62.12
251.585	72.36
251.801	90.79
252.018	25.26
252.235	127.66
252.451	-23.89
252.668	8.87
252.885	98.99
253.102	68.27
253.318	10.92
253.535	29.35
253.752	39.59
253.968	-25.94
254.185	41.64
254.401	-15.7
254.618	27.31
254.835	12.97
255.051	68.27
255.268	21.16
255.484	-13.65
255.701	31.4
255.917	98.99
256.134	84.65
256.351	29.35
256.567	49.83
256.784	23.21
257	74.41
257.217	82.6
257.433	17.07
257.65	86.7
257.866	53.93
258.082	68.27
258.299	10.92
258.515	66.22
258.732	-40.28
258.948	60.07
259.165	68.27
259.381	2.73
259.597	74.41
259.814	2.73
260.03	76.46
260.246	98.99
260.463	41.64
260.679	49.83
260.895	23.21
261.112	68.27
261.328	10.92
261.544	27.31
261.761	82.6
261.977	6.83
262.193	-11.61
262.409	80.55
262.626	21.16
262.842	27.31
263.058	17.07
263.274	53.93
263.49	76.46
263.707	115.37
263.923	43.69
264.139	82.6
264.355	51.88
264.571	41.64
264.787	35.5
265.004	47.79
265.22	41.64
265.436	66.22
265.652	51.88
265.868	70.31
266.084	6.83
266.3	45.74
266.516	-30.04
266.732	-30.04
266.948	0.68
267.164	55.98
267.38	10.92
267.596	17.07
267.812	156.33
268.028	88.75
268.244	90.79
268.46	35.5
268.676	64.17
268.892	41.64
269.108	-15.7
269.324	8.87
269.54	-7.51
269.756	133.8
269.972	-3.41
270.188	66.22
270.403	37.55
270.619	74.41
270.835	113.32
271.051	60.07
271.267	33.45
271.483	2.73
271.698	2.73
271.914	58.03
272.13	12.97
272.346	-11.61
272.562	66.22
272.777	51.88
272.993	0.68
273.209	27.31
273.425	53.93
273.64	98.99
273.856	103.08
274.072	76.46
274.287	12.97
274.503	96.94
274.719	82.6
274.934	-56.66
275.15	76.46
275.366	19.11
275.581	58.03
275.797	21.16
276.012	-9.56
276.228	19.11
276.444	-23.89
276.659	51.88
276.875	27.31
277.09	15.02
277.306	64.17
277.521	39.59
277.737	92.84
277.952	19.11
278.168	6.83
278.383	64.17
278.599	10.92
278.814	119.46
279.03	58.03
279.245	109.22
279.461	-1.37
279.676	4.78
279.892	90.79
280.107	68.27
280.322	53.93
280.538	17.07
280.753	109.22
280.969	131.75
281.184	33.45
281.399	92.84
281.615	78.51
281.83	33.45
282.045	-23.89
282.26	17.07
282.476	45.74
282.691	141.99
282.906	41.64
283.122	60.07
283.337	0.68
283.552	27.31
283.767	25.26
283.983	33.45
284.198	43.69
284.413	166.57
284.628	8.87
284.843	74.41
285.058	6.83
285.274	98.99
285.489	82.6
285.704	10.92
285.919	-15.7
286.134	4.78
286.349	29.35
286.564	90.79
286.779	74.41
286.995	60.07
287.21	19.11
287.425	49.83
287.64	92.84
287.855	43.69
288.07	8.87
288.285	72.36
288.5	74.41
288.715	45.74
288.93	21.16
289.145	58.03
289.36	21.16
289.575	49.83
289.79	27.31
290.004	37.55
290.219	43.69
290.434	25.26
290.649	-40.28
290.864	-1.37
291.079	0.68
291.294	66.22
291.509	88.75
291.724	78.51
291.938	74.41
292.153	-40.28
292.368	-17.75
292.583	55.98
292.798	21.16
293.012	82.6
293.227	86.7
293.442	49.83
293.657	49.83
293.871	66.22
294.086	45.74
294.301	53.93
294.516	15.02
294.73	82.6
294.945	74.41
295.16	41.64
295.374	70.31
295.589	133.8
295.804	33.45
296.018	37.55
296.233	29.35
296.447	92.84
296.662	-17.75
296.877	107.18
297.091	74.41
297.306	55.98
297.52	27.31
297.735	137.9
297.949	41.64
298.164	103.08
298.378	-7.51
298.593	64.17
298.807	25.26
299.022	76.46
299.236	76.46
299.451	-73.04
299.665	25.26
299.88	10.92
300.094	66.22
300.309	53.93
300.523	43.69
300.737	29.35
300.952	101.03
301.166	76.46
301.381	-11.61
301.595	12.97
301.809	58.03
302.024	-5.46
302.238	37.55
302.452	107.18
302.667	31.4
302.881	107.18
303.095	49.83
303.309	68.27
303.524	-7.51
303.738	105.13
303.952	58.03
304.166	66.22
304.381	8.87
304.595	12.97
304.809	12.97
305.023	41.64
305.237	31.4
305.452	-32.08
305.666	35.5
305.88	21.16
306.094	35.5
306.308	88.75
306.522	29.35
306.736	62.12
306.95	96.94
307.164	-50.52
307.379	-27.99
307.593	19.11
307.807	58.03
308.021	68.27
308.235	15.02
308.449	55.98
308.663	21.16
308.877	84.65
309.091	86.7
309.305	10.92
309.519	17.07
309.733	82.6
309.947	-7.51
310.161	0.68
310.374	60.07
310.588	25.26
310.802	31.4
311.016	4.78
311.23	90.79
311.444	27.31
311.658	17.07
311.872	76.46
312.085	74.41
312.299	84.65
312.513	101.03
312.727	82.6
312.941	92.84
313.154	98.99
313.368	60.07
313.582	90.79
313.796	37.55
314.009	25.26
314.223	96.94
314.437	58.03
314.651	33.45
314.864	0.68
315.078	78.51
315.292	2.73
315.505	47.79
315.719	66.22
315.933	74.41
316.146	39.59
316.36	-17.75
316.573	109.22
316.787	84.65
317.001	-5.46
317.214	21.16
317.428	41.64
317.641	-23.89
317.855	70.31
318.068	27.31
318.282	98.99
318.495	58.03
318.709	35.5
318.922	113.32
319.136	84.65
319.349	98.99
319.563	58.03
319.776	103.08
319.99	-48.47
320.203	84.65
320.417	51.88
320.63	129.7
320.843	113.32
321.057	107.18
321.27	49.83
321.483	129.7
321.697	133.8
321.91	86.7
322.124	45.74
322.337	-5.46
322.55	0.68
322.763	37.55
322.977	60.07
323.19	64.17
323.403	-17.75
323.617	58.03
323.83	109.22
324.043	70.31
324.256	68.27
324.469	17.07
324.683	98.99
324.896	66.22
325.109	-21.85
325.322	51.88
325.535	86.7
325.748	-19.8
325.962	8.87
326.175	137.9
326.388	27.31
326.601	33.45
326.814	74.41
327.027	-17.75
327.24	74.41
327.453	25.26
327.666	109.22
327.879	84.65
328.092	70.31
328.305	41.64
328.518	98.99
328.731	-7.51
328.944	123.56
329.157	45.74
329.37	68.27
329.583	189.1
329.796	115.37
330.009	10.92
330.222	78.51
330.435	98.99
330.648	92.84
330.861	58.03
331.073	41.64
331.286	53.93
331.499	119.46
331.712	0.68
331.925	-19.8
332.138	82.6
332.35	84.65
332.563	-11.61
332.776	43.69
332.989	12.97
333.202	74.41
333.414	-17.75
333.627	27.31
333.84	33.45
334.053	55.98
334.265	92.84
334.478	6.83
334.691	60.07
334.903	72.36
335.116	41.64
335.329	8.87
335.541	-13.65
335.754	23.21
335.966	-48.47
336.179	27.31
336.392	27.31
336.604	25.26
336.817	86.7
337.029	21.16
337.242	107.18
337.454	115.37
337.667	58.03
337.88	117.42
338.092	15.02
338.305	111.27
338.517	17.07
338.729	150.18
338.942	70.31
339.154	-15.7
339.367	58.03
339.579	88.75
339.792	-13.65
340.004	86.7
340.217	-44.37
340.429	98.99
340.641	74.41
340.854	4.78
341.066	8.87
341.278	58.03
341.491	148.14
341.703	98.99
341.915	76.46
342.128	-21.85
342.34	17.07
342.552	2.73
342.764	-30.04
342.977	4.78
343.189	43.69
343.401	105.13
343.613	68.27
343.826	58.03
344.038	8.87
344.25	135.85
344.462	58.03
344.674	35.5
344.886	29.35
345.099	41.64
345.311	131.75
345.523	37.55
345.735	55.98
345.947	45.74
346.159	78.51
346.371	101.03
346.583	27.31
346.795	76.46
347.007	60.07
347.219	8.87
347.431	-23.89
347.643	101.03
347.855	66.22
348.067	60.07
348.279	17.07
348.491	90.79
348.703	49.83
348.915	60.07
349.127	33.45
349.339	45.74
349.551	8.87
349.763	119.46
349.975	107.18
350.187	82.6
350.399	84.65
350.61	37.55
350.822	58.03
351.034	103.08
351.246	96.94
351.458	80.55
351.669	131.75
351.881	37.55
352.093	53.93
352.305	152.23
352.517	33.45
352.728	45.74
352.94	86.7
353.152	43.69
353.363	-5.46
353.575	43.69
353.787	117.42
353.999	123.56
354.21	72.36
354.422	51.88
354.633	86.7
354.845	72.36
355.057	49.83
355.268	49.83
355.48	107.18
355.692	15.02
355.903	68.27
356.115	-19.8
356.326	-17.75
356.538	144.04
356.749	49.83
356.961	35.5
357.172	68.27
357.384	68.27
357.595	74.41
357.807	4.78
358.018	41.64
358.23	109.22
358.441	94.89
358.653	41.64
358.864	129.7
359.075	123.56
359.287	86.7
359.498	168.62
359.709	35.5
359.921	62.12
360.132	86.7
360.344	98.99
360.555	103.08
360.766	119.46
360.977	53.93
361.189	86.7
361.4	98.99
361.611	49.83
361.823	45.74
362.034	64.17
362.245	2.73
362.456	123.56
362.667	17.07
362.879	76.46
363.09	41.64
363.301	37.55
363.512	64.17
363.723	8.87
363.935	51.88
364.146	115.37
364.357	144.04
364.568	47.79
364.779	2.73
364.99	12.97
365.201	43.69
365.412	98.99
365.623	-13.65
365.834	76.46
366.045	53.93
366.256	107.18
366.467	90.79
366.678	92.84
366.889	82.6
367.1	8.87
367.311	60.07
367.522	41.64
367.733	74.41
367.944	33.45
368.155	33.45
368.366	84.65
368.577	51.88
368.788	129.7
368.999	92.84
369.209	107.18
369.42	176.81
369.631	135.85
369.842	33.45
370.053	90.79
370.264	96.94
370.474	17.07
370.685	43.69
370.896	6.83
371.107	60.07
371.317	53.93
371.528	76.46
371.739	109.22
371.95	80.55
372.16	78.51
372.371	-15.7
372.582	51.88
372.792	86.7
373.003	15.02
373.214	4.78
373.424	49.83
373.635	10.92
373.846	60.07
374.056	-5.46
374.267	94.89
374.477	-34.13
374.688	90.79
374.898	31.4
375.109	62.12
375.319	60.07
375.53	62.12
375.74	72.36
375.951	70.31
376.161	33.45
376.372	76.46
376.582	62.12
376.793	185
377.003	-7.51
377.214	80.55
377.424	27.31
377.635	53.93
377.845	35.5
378.055	187.05
378.266	-23.89
378.476	8.87
378.686	121.51
378.897	105.13
379.107	160.42
379.317	53.93
379.528	41.64
379.738	152.23
379.948	19.11
380.158	180.9
380.369	37.55
380.579	62.12
380.789	17.07
380.999	62.12
381.21	80.55
381.42	66.22
381.63	92.84
381.84	0.68
382.05	86.7
382.261	88.75
382.471	64.17
382.681	37.55
382.891	82.6
383.101	86.7
383.311	68.27
383.521	53.93
383.731	74.41
383.941	117.42
384.151	119.46
384.361	123.56
384.571	90.79
384.781	58.03
384.991	74.41
385.201	129.7
385.411	103.08
385.621	139.94
385.831	49.83
386.041	111.27
386.251	105.13
386.461	174.76
386.671	64.17
386.881	117.42
387.091	60.07
387.301	115.37
387.511	66.22
387.72	78.51
387.93	78.51
388.14	101.03
388.35	49.83
388.56	135.85
388.769	107.18
388.979	41.64
389.189	74.41
389.399	90.79
389.609	86.7
389.818	92.84
390.028	88.75
390.238	96.94
390.447	76.46
390.657	98.99
390.867	6.83
391.076	115.37
391.286	25.26
391.496	31.4
391.705	86.7
391.915	139.94
392.125	131.75
392.334	60.07
392.544	135.85
392.753	33.45
392.963	70.31
393.172	27.31
393.382	101.03
393.591	64.17
393.801	66.22
394.01	160.42
394.22	127.66
394.429	119.46
394.639	96.94
394.848	117.42
395.058	84.65
395.267	66.22
395.477	148.14
395.686	72.36
395.895	123.56
396.105	113.32
396.314	113.32
396.524	129.7
396.733	115.37
396.942	160.42
397.152	58.03
397.361	139.94
397.57	111.27
397.78	141.99
397.989	90.79
398.198	176.81
398.407	156.33
398.617	60.07
398.826	96.94
399.035	135.85
399.244	156.33
399.453	68.27
399.663	176.81
399.872	123.56
400.081	82.6
400.29	166.57
400.499	60.07
400.708	139.94
400.917	133.8
401.127	164.52
401.336	90.79
401.545	223.91
401.754	209.58
401.963	199.34
402.172	141.99
402.381	144.04
402.59	154.28
402.799	137.9
403.008	154.28
403.217	133.8
403.426	197.29
403.635	164.52
403.844	189.1
404.053	123.56
404.262	135.85
404.471	187.05
404.68	236.2
404.888	217.77
405.097	185
405.306	217.77
405.515	207.53
405.724	238.25
405.933	240.29
406.142	293.54
406.35	158.38
406.559	213.67
406.768	250.53
406.977	240.29
407.185	242.34
407.394	279.21
407.603	242.34
407.812	230.06
408.02	279.21
408.229	254.63
408.438	223.91
408.646	275.11
408.855	295.59
409.064	307.88
409.272	297.64
409.481	305.83
409.69	328.36
409.898	354.98
410.107	328.36
410.315	410.28
410.524	410.28
410.733	455.33
410.941	412.32
411.15	445.09
411.358	363.17
411.567	535.2
411.775	477.86
411.984	492.2
412.192	481.96
412.401	555.68
412.609	617.12
412.818	615.07
413.026	549.54
413.234	641.7
413.443	602.79
413.651	709.28
413.86	680.61
414.068	748.19
414.276	651.94
414.485	721.57
414.693	819.87
414.901	787.1
415.11	830.11
415.318	887.45
415.526	885.41
415.734	846.49
415.943	922.27
416.151	993.95
416.359	1016.48
416.567	983.71
416.776	1114.78
416.984	1073.82
417.192	1174.17
417.4	1106.59
417.608	1233.56
417.817	1217.18
418.025	1282.71
418.233	1401.49
418.441	1303.19
418.649	1419.92
418.857	1606.29
419.065	1608.34
419.273	1575.57
419.481	1657.49
419.689	1716.88
419.897	1727.12
420.105	1831.57
420.313	1888.91
420.521	1860.24
420.729	1989.26
420.937	2030.22
421.145	2065.04
421.353	2226.82
421.561	2327.18
421.769	2226.82
421.977	2392.71
422.185	2454.15
422.393	2560.64
422.601	2706.05
422.809	2626.18
423.017	2779.78
423.224	2878.08
423.432	3019.39
423.64	3062.4
423.848	3246.71
424.056	3170.94
424.263	3371.64
424.471	3281.53
424.679	3445.37
424.887	3723.89
425.094	3744.37
425.302	3793.52
425.51	3957.36
425.718	3959.41
425.925	4072.04
426.133	4285.03
426.341	4393.58
426.548	4665.96
426.756	4661.86
426.964	4575.84
427.171	4962.91
427.379	5028.45
427.586	5235.29
427.794	5304.92
428.001	5562.97
428.209	5696.08
428.417	5757.52
428.624	6156.88
428.832	6226.51
429.039	6120.01
429.247	6054.48
429.454	6603.33
429.662	7072.32
429.869	6761.03
430.076	7144
430.284	6941.25
430.491	7285.31
430.699	7635.51
430.906	7756.34
431.114	7658.04
431.321	8186.41
431.528	8251.95
431.736	8593.96
431.943	9128.48
432.15	8741.41
432.358	8809
432.565	9529.88
432.772	9427.48
432.979	9888.28
433.187	10093.07
433.394	10252.81
433.601	10748.42
433.808	10930.69
434.016	10957.32
434.223	11184.64
434.43	11803.13
434.637	11604.47
434.844	12247.54
435.052	12593.64
435.259	12648.94
435.466	12554.73
435.673	12370.41
435.88	13140.45
436.087	13992.41
436.294	13912.53
436.501	13570.52
436.708	13890.01
436.915	14397.9
437.122	14983.62
437.329	15174.08
437.537	15473.09
437.743	15708.6
437.95	15841.72
438.157	16282.03
438.364	17011.11
438.571	16796.07
438.778	17162.66
438.985	18340.24
439.192	17801.63
439.399	18221.46
439.606	17818.01
439.813	18917.77
440.02	19951.99
440.227	19749.25
440.433	19456.39
440.64	19859.84
440.847	20015.48
441.054	20527.47
441.261	22045.02
441.467	21483.87
441.674	22098.27
441.881	22569.3
442.088	22724.94
442.294	22690.13
442.501	22638.93
442.708	23732.54
442.914	24600.88
443.121	25678.11
443.328	24750.38
443.534	26597.65
443.741	25712.93
443.948	25340.2
444.154	27726.08
444.361	27146.51
444.568	27527.43
444.774	27511.05
444.981	27457.8
445.187	28168.44
445.394	30034.14
445.6	29049.07
445.807	31979.71
446.013	30765.27
446.22	30972.11
446.426	32211.14
446.633	32420.03
446.839	33700.01
447.046	32413.88
447.252	33587.37
447.459	34326.69
447.665	33904.81
447.871	35481.74
448.078	36745.34
448.284	35211.41
448.491	36407.42
448.697	37126.26
448.903	38162.53
449.11	38047.85
449.316	37507.18
449.522	38191.2
449.728	39489.62
449.935	39653.45
450.141	39225.43
450.347	40441.92
450.553	38856.79
450.76	39841.87
450.966	41074.74
451.172	40759.36
451.378	41183.29
451.584	40894.52
451.791	41834.54
451.997	41797.68
452.203	42170.41
452.409	42264.61
452.615	42256.42
452.821	40253.51
453.027	39876.68
453.233	42553.38
453.44	40562.75
453.646	40874.04
453.852	41189.43
454.058	42242.09
454.264	40616
454.47	41330.74
454.676	40497.22
454.882	41799.72
455.088	37630.06
455.294	38817.88
455.5	39499.86
455.705	39897.16
455.911	38195.3
456.117	37574.77
456.323	37095.54
456.529	35537.04
456.735	36696.19
456.941	35684.49
457.147	35508.36
457.352	34435.23
457.558	33763.5
457.764	34082.98
457.97	33249.46
458.176	32708.79
458.381	32446.65
458.587	30892.24
458.793	31166.67
458.999	29133.04
459.204	31416.52
459.41	30544.09
459.616	28401.91
459.821	28471.54
460.027	28762.36
460.233	27994.37
460.438	26601.75
460.644	27001.1
460.85	25628.96
461.055	25399.59
461.261	25205.03
461.466	23304.52
461.672	22868.3
461.878	24021.31
462.083	22743.38
462.289	22077.79
462.494	22124.89
462.7	20904.3
462.905	20408.69
463.111	21248.36
463.316	21426.53
463.522	20908.4
463.727	20818.28
463.932	21039.47
464.138	20310.39
464.343	20666.74
464.549	20277.62
464.754	20531.57
464.959	20767.09
465.165	20482.42
465.37	19483.01
465.575	18938.25
465.781	19812.73
465.986	19908.99
466.191	19143.05
466.397	18981.26
466.602	17791.39
466.807	18737.55
467.012	18733.45
467.218	18680.21
467.423	18432.4
467.628	18465.17
467.833	19237.25
468.038	18549.14
468.244	18139.54
468.449	18305.43
468.654	17994.14
468.859	17908.12
469.064	17549.73
469.269	17090.98
469.474	17256.87
469.679	17527.2
469.885	17058.21
470.09	17248.68
470.295	17154.47
470.5	16875.95
470.705	17168.8
470.91	16724.4
471.115	16261.55
471.32	16636.33
471.525	16662.96
471.73	16261.55
471.935	16085.43
472.139	15354.3
472.344	15729.08
472.549	15602.11
472.754	15524.29
472.959	15129.03
473.164	14576.08
473.369	14596.56
473.574	15348.16
473.778	15004.1
473.983	14942.66
474.188	14942.66
474.393	14338.51
474.598	14246.35
474.802	14246.35
475.007	13922.77
475.212	13900.25
475.417	13468.13
475.621	13816.28
475.826	13507.04
476.031	13332.96
476.235	13001.19
476.44	13007.33
476.645	13066.72
476.849	13214.18
477.054	12614.12
477.259	12788.2
477.463	12673.51
477.668	12413.42
477.872	12509.68
478.077	12184.05
478.282	12075.51
478.486	11938.29
478.691	11987.44
478.895	11850.23
479.1	11778.55
479.304	11741.69
479.509	11592.19
479.713	11690.49
479.918	11254.27
480.122	11082.24
480.326	11424.25
480.531	11403.77
480.735	11248.13
480.94	10985.99
481.144	11588.09
481.348	11035.14
481.553	11063.81
481.757	10670.6
481.961	11006.47
482.166	11076.1
482.37	10955.27
482.574	10977.8
482.778	10783.24
482.983	10951.17
483.187	10850.82
483.391	10863.11
483.595	10836.49
483.8	10789.38
484.004	10924.55
484.208	11117.06
484.412	10922.5
484.616	11002.37
484.821	11121.15
485.025	10490.38
485.229	10820.1
485.433	10850.82
485.637	10791.43
485.841	10816.01
486.045	10885.64
486.249	10908.16
486.453	10586.63
486.657	10799.62
486.861	10844.68
487.065	10545.67
487.269	10897.92
487.473	10469.9
487.677	10752.52
487.881	10953.22
488.085	10955.27
488.289	10965.51
488.493	10746.37
488.697	11041.28
488.901	10910.21
489.105	10822.15
489.309	11065.86
489.512	10824.2
489.716	10996.23
489.92	10955.27
490.124	10916.36
490.328	11178.5
490.531	11100.67
490.735	11244.03
490.939	11315.71
491.143	11067.91
491.346	11110.91
491.55	11299.33
491.754	11106.82
491.958	11241.98
492.161	11127.3
492.365	11360.77
492.569	11362.81
492.772	11278.85
492.976	11583.99
493.18	11655.67
493.383	11817.46
493.587	11749.88
493.79	11878.9
493.994	11710.97
494.197	11792.89
494.401	12120.56
494.605	12085.75
494.808	12171.76
495.012	12218.86
495.215	12288.5
495.419	12394.99
495.622	12542.44
495.825	12624.36
496.029	12306.93
496.232	12839.4
496.436	12943.85
496.639	13183.46
496.843	12820.97
497.046	13418.97
497.249	13470.17
497.453	13517.28
497.656	13625.82
497.859	13722.07
498.063	13945.3
498.266	13920.73
498.469	13947.35
498.673	14438.86
498.876	14494.16
499.079	14219.73
499.282	14459.34
499.485	14715.34
499.689	14950.85
499.892	15229.38
500.095	15116.74
500.298	15360.45
500.501	15366.59
500.705	15610.3
500.908	15700.41
501.111	16146.87
501.314	16015.8
501.517	16515.5
501.72	16808.36
501.923	16624.04
502.126	16974.25
502.329	17342.88
502.532	17244.58
502.735	17486.24
502.938	17832.35
503.141	17875.35
503.344	18147.73
503.547	18053.53
503.75	18377.11
503.953	18686.35
504.156	18710.93
504.359	19028.36
504.562	19200.39
504.765	19425.67
504.968	19558.78
505.17	19700.09
505.373	19767.68
505.576	20218.23
505.779	20361.59
505.982	20478.32
506.185	20824.43
506.387	21006.7
506.59	21029.23
506.793	21231.97
506.996	21657.95
507.198	22145.37
507.401	22104.41
507.604	22409.56
507.807	22767.95
508.009	22806.86
508.212	22724.94
508.415	23152.97
508.617	23533.89
508.82	23421.25
509.022	23753.02
509.225	23863.61
509.428	24193.34
509.63	24596.79
509.833	24963.37
510.035	25262.38
510.238	25190.7
510.44	25735.46
510.643	25653.54
510.845	25825.57
511.048	25913.63
511.25	26425.62
511.453	26538.26
511.655	27431.18
511.858	26906.9
512.06	27121.93
512.262	27640.07
512.465	27564.29
512.667	27730.18
512.87	28383.48
513.072	28270.84
513.274	28956.91
513.477	29294.83
513.679	29401.32
513.881	29618.41
514.084	30095.58
514.286	30011.62
514.488	30562.52
514.69	31183.05
514.893	31203.53
515.095	31037.65
515.297	31469.77
515.499	31963.33
515.701	32092.35
515.904	32458.94
516.106	32559.29
516.308	32809.14
516.51	33136.82
516.712	33067.19
516.914	33575.08
517.116	34064.55
517.318	34199.71
517.52	34158.75
517.722	34502.81
517.925	35063.96
518.127	35186.83
518.329	35606.67
518.531	35289.23
518.733	36108.42
518.935	36083.84
519.136	36161.67
519.338	37064.82
519.54	36819.06
519.742	37447.79
519.944	37460.08
520.146	38135.91
520.348	38262.88
520.55	38232.16
520.752	38514.78
520.954	39071.83
521.155	39012.44
521.357	39497.81
521.559	39653.45
521.761	40147.01
521.963	40003.66
522.164	40513.6
522.366	40699.97
522.568	40644.67
522.77	40945.72
522.971	41639.98
523.173	41779.25
523.375	41752.62
523.576	42078.25
523.778	42143.78
523.98	42616.86
524.181	42848.28
524.383	42700.83
524.584	43325.46
524.786	43489.3
524.988	42999.83
525.189	43919.37
525.391	43843.6
525.592	44351.49
525.794	44216.33
525.995	44431.36
526.197	44466.18
526.398	44861.44
526.6	45131.77
526.801	45062.14
527.003	45203.45
527.204	45236.22
527.406	45567.99
527.607	45129.72
527.808	46551.01
528.01	45500.4
528.211	45862.89
528.412	46483.43
528.614	46024.68
528.815	46682.08
529.016	46819.3
529.218	46491.62
529.419	46792.67
529.62	46288.87
529.822	46553.06
530.023	46663.65
530.224	47167.45
530.425	46483.43
530.626	46043.12
530.828	46788.58
531.029	47380.44
531.23	47038.43
531.431	46839.78
531.632	47372.25
531.833	47495.13
532.035	47386.58
532.236	47570.9
532.437	47699.92
532.638	47167.45
532.839	47517.65
533.04	47734.74
533.241	46870.5
533.442	48185.29
533.643	47697.87
533.844	47443.93
534.045	47837.14
534.246	47333.34
534.447	48132.04
534.648	47706.07
534.849	48060.37
535.05	47650.77
535.251	47845.33
535.451	47814.61
535.652	48162.76
535.853	47601.62
536.054	48228.3
536.255	48060.37
536.456	47681.49
536.657	48408.52
536.857	47642.58
537.058	47798.23
537.259	48154.57
537.46	48177.1
537.66	48009.17
537.861	47982.54
538.062	47726.55
538.263	48121.8
538.463	47714.26
538.664	47531.99
538.865	47806.42
539.065	47773.65
539.266	47779.79
539.466	48431.05
539.667	47595.48
539.868	48199.63
540.068	47319
540.269	48127.95
540.469	48189.39
540.67	47523.8
540.87	47742.93
541.071	48050.13
541.271	48017.36
541.472	47851.47
541.672	47644.63
541.873	47710.16
542.073	47091.68
542.274	47747.03
542.474	47534.04
542.675	47583.19
542.875	47847.38
543.075	48043.98
543.276	46995.42
543.476	48052.17
543.676	47310.81
543.877	48039.89
544.077	47544.28
544.277	47337.43
544.478	47464.41
544.678	47658.96
544.878	47228.89
545.078	47570.9
545.279	47470.55
545.479	47273.95
545.679	47474.65
545.879	47347.67
546.079	47507.41
546.28	47128.54
546.48	46856.16
546.68	47435.73
546.88	47747.03
547.08	47243.23
547.28	47396.82
547.48	46634.98
547.68	47560.66
547.88	46782.43
548.081	47636.44
548.281	47153.12
548.481	47146.97
548.681	47540.18
548.881	47056.86
549.081	47341.53
549.28	47144.92
549.48	47597.52
549.68	47194.07
549.88	47407.06
550.08	46864.35
550.28	47347.67
550.48	47386.58
550.68	47450.07
550.88	46974.94
551.08	47108.06
551.279	47531.99
551.479	46594.02
551.679	47060.96
551.879	46976.99
552.079	47359.96
552.278	47114.2
552.478	47413.21
552.678	46897.12
552.878	47675.35
553.077	46784.48
553.277	46462.95
553.477	47437.78
553.676	46725.09
553.876	46751.71
554.076	46919.65
554.275	46350.31
554.475	46534.63
554.674	46630.88
554.874	46594.02
555.074	46798.82
555.273	46692.32
555.473	46917.6
555.672	46317.54
555.872	46542.82
556.071	46315.5
556.271	46444.52
556.47	46231.53
556.67	46118.89
556.869	46411.75
557.068	46512.1
557.268	46077.93
557.467	46297.06
557.667	46594.02
557.866	45998.06
558.065	45692.91
558.265	45905.9
558.464	45570.04
558.663	46008.3
558.863	45768.69
559.062	46362.6
559.261	45651.95
559.461	46178.28
559.66	45350.9
559.859	45619.19
560.058	45127.67
560.258	45869.04
560.457	44988.41
560.656	45807.6
560.855	45387.77
561.054	45430.77
561.253	45119.48
561.453	45154.3
561.652	45428.73
561.851	45365.24
562.05	44781.57
562.249	44644.35
562.448	45418.49
562.647	45301.75
562.846	45068.28
563.045	44941.31
563.244	44374.02
563.443	45252.6
563.642	44324.87
563.841	44918.78
564.04	44070.92
564.239	45010.94
564.438	44142.6
564.637	44388.36
564.836	44470.28
565.035	43667.47
565.234	44412.93
565.432	44032.01
565.631	44269.58
565.83	44034.06
566.029	43726.86
566.228	43837.45
566.427	43712.53
566.625	43769.87
566.824	43235.35
567.023	43749.39
567.222	42686.5
567.42	43366.42
567.619	43198.49
567.818	42942.49
568.016	42709.02
568.215	43227.16
568.414	42784.8
568.612	43194.39
568.811	42455.07
569.01	43186.2
569.208	42068.01
569.407	42448.93
569.605	42188.84
569.804	42586.14
570.002	42356.77
570.201	42270.76
570.4	41938.99
570.598	41478.19
570.797	42090.54
570.995	42199.08
571.193	41429.04
571.392	41736.24
571.59	41373.75
571.789	41539.63
571.987	41269.3
572.186	41254.97
572.384	41175.09
572.582	41451.57
572.781	41410.61
572.979	40570.94
573.177	41152.57
573.376	40710.21
573.574	40785.98
573.772	41103.42
573.971	40865.85
574.169	40089.67
574.367	40233.03
574.565	40480.83
574.763	40347.71
574.962	40118.34
575.16	40126.53
575.358	40011.85
575.556	39514.19
575.754	40020.04
575.952	39657.55
576.151	39833.67
576.349	39346.26
576.547	39467.09
576.745	39452.75
576.943	39131.22
577.141	39555.15
577.339	39250
577.537	39016.54
577.735	38928.47
577.933	38533.21
578.131	39196.76
578.329	38445.15
578.527	38615.13
578.725	38379.62
578.923	38465.63
579.121	38338.66
579.319	38447.2
579.516	38574.17
579.714	38371.43
579.912	38049.89
580.11	37980.26
580.308	37902.44
580.506	37824.62
580.704	37542
580.901	37628.01
581.099	37951.59
581.297	37568.62
581.495	37417.07
581.692	37470.32
581.89	36669.56
582.088	37247.09
582.285	36886.65
582.483	36927.61
582.681	37130.36
582.878	36503.68
583.076	36434.05
583.274	36610.17
583.471	36128.9
583.669	36581.5
583.866	36104.32
584.064	36589.69
584.262	35930.25
584.459	36135.04
584.657	36067.46
584.854	35954.82
585.052	35338.38
585.249	36012.17
585.447	35709.07
585.644	35096.72
585.841	35543.18
586.039	35623.05
586.236	34836.63
586.434	35123.35
586.631	34953.37
586.828	34689.18
587.026	34803.86
587.223	34586.78
587.42	34793.62
587.618	34945.17
587.815	34177.19
588.012	34214.05
588.21	34128.03
588.407	34224.29
588.604	33800.36
588.801	33460.4
588.999	34087.07
589.196	33642.67
589.393	33937.57
589.59	33697.96
589.787	33689.77
589.984	33345.71
590.182	33079.47
590.379	33833.13
590.576	33190.06
590.773	32938.16
590.97	32921.78
591.167	33058.99
591.364	32551.1
591.561	32706.74
591.758	32444.6
591.955	32475.32
592.152	32592.06
592.349	32065.73
592.546	32606.39
592.743	32393.4
592.94	31848.64
593.137	32065.73
593.334	32207.04
593.531	31736.01
593.727	31860.93
593.924	31715.53
594.121	31496.39
594.318	31662.28
594.515	31219.92
594.712	31598.79
594.908	31340.75
595.105	31326.41
595.302	30855.38
595.499	31031.51
595.696	30818.52
595.892	30841.04
596.089	30783.7
596.286	30750.93
596.482	30673.11
596.679	30453.98
596.876	30550.23
597.072	30460.12
597.269	30122.21
597.466	29880.55
597.662	30499.03
597.859	29868.26
598.055	29980.9
598.252	29966.56
598.448	29878.5
598.645	29513.96
598.841	29382.89
599.038	29479.14
599.234	29589.74
599.431	28905.71
599.627	29272.3
599.824	29481.19
600.02	29159.66
600.217	28930.29
600.413	28858.61
600.609	29065.46
600.806	28623.09
601.002	28872.95
601.198	28537.08
601.395	28553.46
601.591	28365.05
601.787	28283.13
601.984	28260.6
602.18	28760.31
602.376	28174.59
602.572	27652.36
602.769	27904.26
602.965	27861.25
603.161	27762.95
603.357	27707.65
603.553	27537.67
603.75	27644.16
603.946	27242.76
604.142	27476.23
604.338	27244.81
604.534	27332.87
604.73	26943.76
604.926	26925.33
605.122	27097.36
605.318	26812.69
605.514	26419.48
605.71	26546.45
605.906	26900.75
606.102	26409.24
606.298	26671.38
606.494	26401.05
606.69	26550.55
606.886	26628.37
607.082	25846.05
607.278	26290.46
607.474	25872.67
607.67	26124.57
607.866	25624.87
608.062	26165.53
608.257	25471.27
608.453	25512.23
608.649	25782.56
608.845	25516.33
609.041	25690.4
609.236	25594.15
609.432	25618.72
609.628	25811.23
609.824	25375.02
610.019	25174.31
610.215	25237.8
610.411	25325.86
610.606	25059.63
610.802	25014.57
610.998	25147.69
611.193	24965.42
611.389	24883.5
611.584	25033
611.78	25055.53
611.976	25073.96
612.171	24793.39
612.367	24795.44
612.562	24615.22
612.758	24242.49
612.953	24594.74
613.149	24799.54
613.344	24416.57
613.539	24734
613.735	24437.05
613.93	24428.85
614.126	24449.33
614.321	24324.41
614.517	24162.62
614.712	24265.02
614.907	24348.98
615.103	24260.92
615.298	23931.2
615.493	24551.73
615.688	23873.85
615.884	24576.31
616.079	23732.54
616.274	23890.24
616.47	23732.54
616.665	23851.33
616.86	23597.38
617.055	23556.42
617.25	23771.46
617.445	23757.12
617.641	23218.5
617.836	23724.35
618.031	23253.32
618.226	23388.49
618.421	23224.65
618.616	23546.18
618.811	23142.73
619.006	23167.31
619.201	22806.86
619.396	23030.09
619.591	22643.03
619.786	23001.42
619.981	22294.87
620.176	22565.2
620.371	22360.41
620.566	22475.09
620.761	22204.76
620.956	22362.45
621.151	22178.14
621.346	22210.9
621.541	21641.57
621.735	21856.61
621.93	21358.95
622.125	21539.17
622.32	21070.19
622.515	21473.63
622.709	21160.3
622.904	21082.47
623.099	21102.95
623.294	20967.79
623.488	20797.81
623.683	20765.04
623.878	20500.85
624.072	20621.68
624.267	20681.07
624.462	20390.26
624.656	20181.37
624.851	20550
625.046	20244.85
625.24	19847.55
625.435	19919.23
625.629	19802.49
625.824	19749.25
626.018	19652.99
626.213	19102.09
626.407	19081.61
626.602	19046.79
626.796	19046.79
626.991	18706.83
627.185	18948.49
627.38	18997.64
627.574	18772.36
627.768	18459.03
627.963	18616.72
628.157	18241.94
628.352	18504.08
628.546	18096.53
628.74	18293.14
628.935	17885.59
629.129	18031
629.323	17719.71
629.517	17934.74
629.712	17908.12
629.906	17494.43
630.1	17398.18
630.294	17426.85
630.489	17172.9
630.683	17316.26
630.877	17138.09
631.071	16966.06
631.265	17187.24
631.459	16910.76
631.653	16783.79
631.848	16910.76
632.042	16753.07
632.236	16574.89
632.43	16550.32
632.624	16622
632.818	16515.5
633.012	16163.25
633.206	16175.54
633.4	16044.47
633.594	15919.54
633.788	16105.91
633.982	15913.4
634.176	15940.02
634.369	15378.88
634.563	15464.89
634.757	15450.56
634.951	15544.77
635.145	15456.7
635.339	15507.9
635.533	15045.06
635.726	15192.51
635.92	15126.98
636.114	14897.61
636.308	14711.24
636.501	14637.52
636.695	15024.58
636.889	14627.28
637.083	14461.39
637.276	14432.72
637.47	14320.08
637.664	14229.97
637.857	14416.33
638.051	14555.6
638.244	14096.85
638.438	14229.97
638.632	14070.23
638.825	13943.25
639.019	13836.76
639.212	13697.5
639.406	13625.82
639.599	13638.11
639.793	13650.39
639.986	13384.16
640.18	13509.08
640.373	13476.32
640.567	13199.84
640.76	13234.66
640.954	13031.91
641.147	12947.94
641.34	12966.37
641.534	13181.41
641.727	12698.09
641.92	12913.13
642.114	12657.13
642.307	12874.21
642.5	12730.86
642.694	12245.49
642.887	12276.21
643.08	12460.52
643.273	12354.03
643.467	12235.25
643.66	12216.82
643.853	11999.73
644.046	12028.4
644.239	11934.2
644.432	11899.38
644.626	11805.17
644.819	11788.79
645.012	11876.85
645.205	11758.07
645.398	11678.2
645.591	11936.24
645.784	11479.55
645.977	11299.33
646.17	11557.37
646.363	11190.78
646.556	11141.63
646.749	11074.05
646.942	11389.44
647.135	11293.18
647.328	11207.17
647.521	11084.29
647.714	10826.25
647.907	11129.34
648.099	10555.91
648.292	10691.08
648.485	10822.15
648.678	10473.99
648.871	10766.85
649.064	10615.3
649.256	10457.61
649.449	10433.04
649.642	10347.02
649.835	10416.65
650.027	10359.31
650.22	10375.69
650.413	9925.14
650.605	10166.8
650.798	9962
650.991	9941.52
651.183	10232.33
651.376	9751.06
651.568	10043.92
651.761	9871.89
651.954	9638.42
652.146	9658.9
652.339	9804.31
652.531	9638.42
652.724	9531.93
652.916	9501.21
653.109	9574.94
653.301	9325.08
653.494	9306.65
653.686	9239.07
653.879	9323.04
654.071	9095.71
654.263	9341.47
654.456	9052.7
654.648	9067.04
654.84	8915.49
655.033	8886.82
655.225	9218.59
655.417	8882.72
655.61	8897.06
655.802	8983.07
655.994	8845.86
656.186	8614.44
656.379	8739.37
656.571	8618.54
656.763	8407.59
656.955	8393.26
657.148	8475.18
657.34	8677.93
657.532	8401.45
657.724	8303.15
657.916	8311.34
658.108	8417.83
658.3	8030.77
658.492	8176.17
658.684	8122.93
658.876	8231.47
659.068	8153.65
659.26	7895.6
659.452	8051.25
659.644	7983.66
659.836	7893.55
660.028	7952.95
660.22	7696.95
660.412	7787.06
660.604	7619.13
660.796	7748.15
660.988	7672.37
661.18	7477.82
661.372	7432.76
661.563	7520.82
661.755	7322.17
661.947	7582.26
662.139	7473.72
662.331	7500.34
662.522	7443
662.714	7504.44
662.906	7275.07
663.097	7307.84
663.289	7021.12
663.481	7096.89
663.673	7170.62
663.864	7025.22
664.056	6996.54
664.247	7049.79
664.439	6857.28
664.631	6931.01
664.822	6996.54
665.014	7098.94
665.205	6873.67
665.397	6806.08
665.588	6642.25
665.78	6758.98
665.971	6730.31
666.163	6713.92
666.354	6687.3
666.546	6746.69
666.737	6769.22
666.929	6531.65
667.12	6574.66
667.311	6765.12
667.503	6464.07
667.694	6394.44
667.885	6449.74
668.077	6490.7
668.268	6324.81
668.459	6365.77
668.651	6218.32
668.842	6279.75
669.033	6459.98
669.224	6048.33
669.416	6234.7
669.607	6197.84
669.798	6148.68
669.989	6163.02
670.18	6185.55
670.371	6144.59
670.563	5984.85
670.754	6054.48
670.945	5999.18
671.136	6070.86
671.327	5853.78
671.518	5919.31
671.709	5669.46
671.9	5939.79
672.091	5902.93
672.282	5765.71
672.473	5700.18
672.664	5816.91
672.855	5741.14
673.046	5747.28
673.237	5837.39
673.428	5507.67
673.619	5620.31
673.809	5517.91
674	5636.69
674.191	5423.7
674.382	5524.05
674.573	5542.49
674.764	5628.5
674.954	5485.14
675.145	5397.08
675.336	5605.97
675.527	5376.6
675.717	5362.26
675.908	5349.98
676.099	5354.07
676.289	5411.42
676.48	5130.84
676.671	5446.23
676.861	5218.91
677.052	5106.27
677.243	5380.7
677.433	5225.05
677.624	5134.94
677.814	5096.03
678.005	5220.95
678.195	5124.7
678.386	5057.12
678.576	5177.95
678.767	5073.5
678.957	4967.01
679.148	5255.77
679.338	5100.12
679.529	5112.41
679.719	5177.95
679.909	5216.86
680.1	4983.39
680.29	5114.46
680.481	4936.29
680.671	4967.01
680.861	4811.36
681.052	4983.39
681.242	4840.03
681.432	4815.46
681.622	4889.18
681.813	4948.58
682.003	5020.25
682.193	5055.07
682.383	4823.65
682.573	4897.38
682.764	4825.7
682.954	4723.3
683.144	4790.88
683.334	4751.97
683.524	4870.75
683.714	4776.55
683.904	4717.15
684.094	4840.03
684.284	4747.87
684.474	4698.72
684.664	4655.72
684.854	4684.39
685.044	4643.43
685.234	4514.41
685.424	4649.57
685.614	4498.02
685.804	4498.02
685.994	4602.47
686.184	4668
686.374	4618.85
686.564	4543.08
686.753	4536.93
686.943	4551.27
687.133	4446.82
687.323	4352.62
687.513	4473.45
687.702	4354.66
687.892	4330.09
688.082	4371.05
688.272	4399.72
688.461	4225.64
688.651	4264.55
688.841	4311.66
689.03	4176.49
689.22	4366.95
689.41	4293.23
689.599	4123.24
689.789	4186.73
689.979	4113
690.168	4201.07
690.358	4129.39
690.547	4104.81
690.737	4014.7
690.926	4092.52
691.116	4049.52
691.305	4053.61
691.495	4067.95
691.684	3900.02
691.874	4137.58
692.063	3936.88
692.252	4090.48
692.442	4084.33
692.631	3912.3
692.82	3877.49
693.01	3934.83
693.199	4004.46
693.388	3807.86
693.578	3838.58
693.767	3932.78
693.956	3846.77
694.146	3830.38
694.335	3889.78
694.524	3730.03
694.713	3910.25
694.902	3764.85
695.092	3750.51
695.281	3760.75
695.47	3711.6
695.659	3713.65
695.848	3754.61
696.037	3779.18
696.226	3664.5
696.415	3641.97
696.604	3777.14
696.793	3662.45
696.982	3558
697.171	3721.84
697.36	3797.62
697.549	3664.5
697.738	3474.04
697.927	3529.33
698.116	3697.27
698.305	3590.77
698.494	3699.31
698.683	3580.53
698.872	3588.72
699.061	3564.15
699.25	3502.71
699.438	3539.57
699.627	3500.66
699.816	3510.9
700.005	3474.04
700.193	3510.9
700.382	3412.6
700.571	3541.62
700.76	3420.79
700.948	3625.59
701.137	3433.08
701.326	3459.7
701.514	3398.26
701.703	3459.7
701.892	3363.45
702.08	3564.15
702.269	3359.35
702.457	3383.93
702.646	3402.36
702.834	3312.25
703.023	3306.1
703.212	3404.41
703.4	3461.75
703.589	3371.64
703.777	3361.4
703.965	3326.58
704.154	3375.74
704.342	3324.54
704.531	3402.36
704.719	3320.44
704.907	3418.74
705.096	3385.97
705.284	3381.88
705.472	3326.58
705.661	3310.2
705.849	3324.54
706.037	3295.86
706.226	3289.72
706.414	3277.43
706.602	3404.41
706.79	3289.72
706.979	3142.27
707.167	3154.55
707.355	3244.67
707.543	3211.9
707.731	3240.57
707.919	3162.75
708.107	3132.03
708.296	3109.5
708.484	3121.79
708.672	3238.52
708.86	3224.19
709.048	3265.14
709.236	3310.2
709.424	3195.51
709.612	3179.13
709.8	3093.12
709.988	3154.55
710.176	3136.12
710.364	3048.06
710.551	3207.8
710.739	3197.56
710.927	3029.63
711.115	3084.92
711.303	3080.83
711.491	3123.83
711.679	3101.31
711.866	3107.45
712.054	3078.78
712.242	2978.43
712.43	3226.23
712.617	3099.26
712.805	3107.45
712.993	3105.4
713.181	3074.68
713.368	2949.76
713.556	3023.48
713.744	3017.34
713.931	3099.26
714.119	3066.49
714.306	2990.72
714.494	3105.4
714.682	3052.16
714.869	2906.75
715.057	2990.72
715.244	3076.73
715.432	3005.05
715.619	2953.85
715.807	3054.2
715.994	3052.16
716.182	2970.24
716.369	2966.14
716.556	2998.91
716.744	2990.72
716.931	2919.04
717.119	3015.29
717.306	2953.85
717.493	2941.57
717.681	2925.18
717.868	2951.81
718.055	3029.63
718.242	2845.31
718.43	2796.16
718.617	3019.39
718.804	2892.41
718.991	2984.57
719.179	3011.2
719.366	2839.17
719.553	2761.34
719.74	2826.88
719.927	2919.04
720.114	2867.84
720.301	2884.22
720.488	2935.42
720.676	2699.91
720.863	2722.43
721.05	3021.44
721.237	2859.65
721.424	2773.63
721.611	2826.88
721.798	2822.78
721.985	2732.67
722.172	2658.95
722.358	2790.02
722.545	2761.34
722.732	2841.22
722.919	2740.86
723.106	2779.78
723.293	2808.45
723.48	2787.97
723.667	2691.71
723.853	2773.63
724.04	2820.74
724.227	2744.96
724.414	2710.15
724.6	2753.15
724.787	2720.39
724.974	2728.58
725.161	2646.66
725.347	2693.76
725.534	2724.48
725.72	2744.96
725.907	2781.82
726.094	2671.23
726.28	2617.99
726.467	2767.49
726.653	2642.56
726.84	2648.71
727.027	2734.72
727.213	2663.04
727.4	2759.3
727.586	2638.47
727.773	2781.82
727.959	2665.09
728.145	2765.44
728.332	2597.51
728.518	2730.62
728.705	2595.46
728.891	2640.51
729.077	2624.13
729.264	2587.27
729.45	2654.85
729.636	2751.1
729.823	2607.75
730.009	2665.09
730.195	2568.84
730.382	2593.41
730.568	2671.23
730.754	2605.7
730.94	2607.75
731.126	2632.32
731.313	2558.6
731.499	2714.24
731.685	2448.01
731.871	2611.84
732.057	2474.63
732.243	2531.97
732.429	2648.71
732.615	2665.09
732.801	2572.93
732.987	2675.33
733.173	2562.69
733.359	2558.6
733.545	2632.32
733.731	2607.75
733.917	2550.4
734.103	2640.51
734.289	2601.6
734.475	2478.72
734.661	2671.23
734.847	2538.12
735.033	2593.41
735.219	2572.93
735.404	2450.05
735.59	2480.77
735.776	2503.3
735.962	2531.97
736.148	2435.72
736.333	2525.83
736.519	2480.77
736.705	2523.78
736.89	2564.74
737.076	2560.64
737.262	2441.86
737.447	2413.19
737.633	2478.72
737.819	2437.77
738.004	2480.77
738.19	2515.59
738.375	2382.47
738.561	2437.77
738.747	2409.09
738.932	2370.18
739.118	2493.06
739.303	2460.29
739.489	2548.36
739.674	2425.48
739.859	2259.59
740.045	2364.04
740.23	2491.01
740.416	2228.87
740.601	2314.89
740.786	2259.59
740.972	2294.41
741.157	2294.41
741.342	2218.63
741.528	2286.22
741.713	2249.35
741.898	2200.2
742.084	2237.06
742.269	2286.22
742.454	2220.68
742.639	2241.16
742.824	2200.2
743.01	2218.63
743.195	2224.78
743.38	2220.68
743.565	2204.3
743.75	2237.06
743.935	2163.34
744.12	2163.34
744.305	2071.18
744.49	2163.34
744.675	2192.01
744.86	2015.88
745.045	2007.69
745.23	2151.05
745.415	2052.75
745.6	2097.8
745.785	2081.42
745.97	2091.66
746.155	2149
746.34	2065.04
746.525	2081.42
746.71	1966.73
746.895	2009.74
747.079	1976.97
747.264	1999.5
747.449	2011.79
747.634	1862.29
747.819	1997.45
748.003	1919.63
748.188	1925.77
748.373	2003.6
748.557	1880.72
748.742	1948.3
748.927	1841.81
749.111	1798.8
749.296	1821.33
749.481	1925.77
749.665	1786.51
749.85	1735.31
750.034	1870.48
750.219	1804.94
750.404	1739.41
750.588	1706.64
750.773	1725.07
750.957	1860.24
751.141	1737.36
751.326	1852.05
751.51	1823.37
751.695	1692.3
751.879	1723.02
752.064	1784.46
752.248	1641.11
752.432	1585.81
752.617	1606.29
752.801	1698.45
752.985	1688.21
753.17	1659.54
753.354	1665.68
753.538	1659.54
753.722	1614.48
753.907	1641.11
754.091	1450.64
754.275	1540.76
754.459	1507.99
754.643	1385.11
754.828	1557.14
755.012	1516.18
755.196	1530.52
755.38	1460.88
755.564	1442.45
755.748	1434.26
755.932	1454.74
756.116	1356.44
756.3	1507.99
756.484	1323.67
756.668	1487.51
756.852	1370.77
757.036	1362.58
757.22	1319.57
757.404	1389.21
757.588	1366.68
757.772	1393.3
757.956	1340.05
758.14	1315.48
758.323	1338.01
758.507	1309.33
758.691	1323.67
758.875	1288.85
759.059	1213.08
759.242	1229.46
759.426	1321.62
759.61	1249.94
759.794	1282.71
759.977	1264.28
760.161	1268.38
760.345	1376.92
760.528	1223.32
760.712	1233.56
760.895	1151.64
761.079	1149.59
761.263	1108.63
761.446	1176.22
761.63	1139.35
761.813	1161.88
761.997	1071.77
762.18	1168.02
762.364	1155.74
762.547	1065.63
762.731	1147.55
762.914	1086.11
763.098	1043.1
763.281	1028.76
763.464	1098.39
763.648	1116.83
763.831	1116.83
764.015	1094.3
764.198	1043.1
764.381	1114.78
764.564	1092.25
764.748	993.95
764.931	1075.87
765.114	1137.31
765.297	1163.93
765.481	977.56
765.664	1020.57
765.847	963.23
766.03	1036.95
766.213	985.76
766.397	1022.62
766.58	952.99
766.763	985.76
766.946	987.8
767.129	1010.33
767.312	1026.71
767.495	950.94
767.678	889.5
767.861	1049.24
768.044	866.97
768.227	987.8
768.41	903.84
768.593	942.75
768.776	1018.52
768.959	989.85
769.142	975.52
769.324	893.6
769.507	965.28
769.69	1008.28
769.873	920.22
770.056	1045.15
770.239	950.94
770.421	963.23
770.604	952.99
770.787	887.45
770.97	907.93
771.152	826.01
771.335	821.92
771.518	918.17
771.7	852.64
771.883	864.93
772.066	840.35
772.248	864.93
772.431	803.49
772.613	891.55
772.796	821.92
772.978	799.39
773.161	871.07
773.343	803.49
773.526	813.73
773.708	918.17
773.891	815.77
774.073	729.76
774.256	795.29
774.438	875.17
774.621	797.34
774.803	848.54
774.985	795.29
775.168	840.35
775.35	737.95
775.532	740
775.715	727.71
775.897	666.27
776.079	664.22
776.261	787.1
776.444	684.7
776.626	721.57
776.808	828.06
776.99	688.8
777.173	656.03
777.355	690.85
777.537	717.47
777.719	668.32
777.901	690.85
778.083	672.42
778.265	721.57
778.447	696.99
778.629	674.46
778.811	772.77
778.993	631.46
779.175	647.84
779.357	633.5
779.539	580.26
779.721	647.84
779.903	641.7
780.085	699.04
780.267	602.79
780.449	604.83
780.631	570.02
780.812	582.31
780.994	549.54
781.176	668.32
781.358	590.5
781.54	647.84
781.721	606.88
781.903	563.87
782.085	549.54
782.267	623.27
782.448	578.21
782.63	512.67
782.812	518.82
782.993	557.73
783.175	584.35
783.357	457.38
783.538	557.73
783.72	488.1
783.901	508.58
784.083	574.11
784.264	504.48
784.446	477.86
784.627	453.28
784.809	572.07
784.99	533.15
785.172	443.04
785.353	453.28
785.535	529.06
785.716	477.86
785.897	535.2
786.079	539.3
786.26	543.39
786.441	486.05
786.623	418.47
786.804	467.62
786.985	490.15
787.167	545.44
787.348	481.96
787.529	467.62
787.71	445.09
787.891	447.14
788.073	402.08
788.254	418.47
788.435	428.71
788.616	395.94
788.797	385.7
788.978	471.72
789.159	459.43
789.34	426.66
789.522	438.95
789.703	467.62
789.884	361.13
790.065	344.74
790.246	404.13
790.427	445.09
790.607	395.94
790.788	354.98
790.969	453.28
791.15	432.8
791.331	289.45
791.512	332.45
791.693	338.6
791.874	393.89
792.054	395.94
792.235	385.7
792.416	361.13
792.597	344.74
792.778	451.24
792.958	420.52
793.139	262.82
793.32	344.74
793.5	336.55
793.681	346.79
793.862	330.41
794.042	443.04
794.223	193.19
794.404	402.08
794.584	293.54
794.765	289.45
794.945	346.79
795.126	348.84
795.306	314.02
795.487	344.74
795.667	330.41
795.848	314.02
796.028	254.63
796.209	385.7
796.389	357.03
796.57	262.82
796.75	299.69
796.93	303.78
797.111	234.15
797.291	334.5
797.471	273.06
797.652	285.35
797.832	271.01
798.012	393.89
798.192	215.72
798.373	332.45
798.553	289.45
798.733	219.82
798.913	248.49
799.093	291.49
799.274	281.25
799.454	285.35
799.634	252.58
799.814	234.15
799.994	318.12
800.174	279.21
800.354	230.06
800.534	236.2
800.714	254.63
800.894	209.58
801.074	291.49
801.254	301.73
801.434	303.78
801.614	201.38
801.794	197.29
801.974	797.34
802.154	262.82
802.334	328.36
802.514	230.06
802.693	256.68
802.873	232.1
803.053	287.4
803.233	258.73
803.413	293.54
803.592	197.29
803.772	189.1
803.952	230.06
804.131	160.42
804.311	207.53
804.491	246.44
804.67	164.52
804.85	201.38
805.03	264.87
805.209	201.38
805.389	168.62
805.568	178.86
805.748	191.14
805.928	193.19
806.107	221.86
806.287	205.48
806.466	234.15
806.646	266.92
806.825	193.19
807.004	199.34
807.184	264.87
807.363	279.21
807.543	213.67
807.722	185
807.901	309.93
808.081	246.44
808.26	101.03
808.439	230.06
808.619	223.91
808.798	240.29
808.977	172.71
809.156	264.87
809.336	199.34
809.515	221.86
809.694	160.42
809.873	119.46
810.052	172.71
810.231	164.52
810.411	131.75
810.59	221.86
810.769	232.1
810.948	164.52
811.127	156.33
811.306	225.96
811.485	150.18
811.664	189.1
811.843	125.61
812.022	199.34
812.201	199.34
812.38	238.25
812.559	70.31
812.737	199.34
812.916	168.62
813.095	172.71
813.274	111.27
813.453	180.9
813.632	172.71
813.811	182.95
813.989	146.09
814.168	178.86
814.347	166.57
814.526	78.51
814.704	139.94
814.883	185
815.062	191.14
815.24	133.8
815.419	176.81
815.598	205.48
815.776	80.55
815.955	90.79
816.133	105.13
816.312	156.33
816.49	98.99
816.669	197.29
816.847	123.56
817.026	207.53
817.204	172.71
817.383	115.37
817.561	174.76
817.74	152.23
817.918	156.33
818.097	103.08
818.275	66.22
818.453	127.66
818.632	123.56
818.81	131.75
818.988	158.38
819.167	111.27
819.345	174.76
819.523	92.84
819.701	117.42
819.879	115.37
820.058	103.08
820.236	164.52
820.414	117.42
820.592	205.48
820.77	80.55
820.948	68.27
821.127	107.18
821.305	119.46
821.483	178.86
821.661	148.14
821.839	58.03
822.017	141.99
822.195	191.14
822.373	166.57
822.551	115.37
822.729	133.8
822.907	98.99
823.085	182.95
823.262	180.9
823.44	164.52
823.618	92.84
823.796	180.9
823.974	119.46
824.152	125.61
824.329	172.71
824.507	141.99
824.685	160.42
824.863	101.03
825.04	103.08
825.218	152.23
825.396	4.78
825.574	133.8
825.751	115.37
825.929	86.7
826.107	107.18
826.284	131.75
826.462	58.03
826.639	62.12
826.817	119.46
826.994	133.8
827.172	58.03
827.349	139.94
827.527	139.94
827.704	78.51
827.882	166.57
828.059	109.22
828.237	174.76
828.414	94.89
828.591	70.31
828.769	86.7
828.946	58.03
829.124	96.94
829.301	90.79
829.478	80.55
829.655	107.18
829.833	109.22
830.01	78.51
830.187	131.75
830.364	90.79
830.542	74.41
830.719	92.84
830.896	172.71
831.073	111.27
831.25	133.8
831.427	119.46
831.604	113.32
831.782	51.88
831.959	123.56
832.136	195.24
832.313	64.17
832.49	158.38
832.667	141.99
832.844	94.89
833.021	58.03
833.198	119.46
833.374	82.6
833.551	49.83
833.728	92.84
833.905	49.83
834.082	66.22
834.259	107.18
834.436	109.22
834.612	127.66
834.789	37.55
834.966	84.65
835.143	156.33
835.319	21.16
835.496	101.03
835.673	41.64
835.85	150.18
836.026	101.03
836.203	141.99
836.38	49.83
836.556	115.37
836.733	27.31
836.909	166.57
837.086	27.31
837.262	135.85
837.439	39.59
837.616	98.99
837.792	70.31
837.968	25.26
838.145	58.03
838.321	115.37
838.498	45.74
838.674	139.94
838.851	92.84
839.027	92.84
839.203	101.03
839.38	76.46
839.556	58.03
839.732	123.56
839.909	82.6
840.085	98.99
840.261	41.64
840.437	98.99
840.614	-7.51
840.79	156.33
840.966	121.51
841.142	19.11
841.318	80.55
841.494	115.37
841.671	74.41
841.847	-21.85
842.023	86.7
842.199	66.22
842.375	103.08
842.551	8.87
842.727	10.92
842.903	68.27
843.079	17.07
843.255	45.74
843.431	53.93
843.607	33.45
843.783	17.07
843.959	43.69
844.134	25.26
844.31	139.94
844.486	68.27
844.662	41.64
844.838	43.69
845.013	101.03
845.189	90.79
845.365	49.83
845.541	49.83
845.716	74.41
845.892	76.46
846.068	139.94
846.244	53.93
846.419	47.79
846.595	25.26
846.77	62.12
846.946	68.27
847.122	94.89
847.297	15.02
847.473	39.59
847.648	-48.47
847.824	105.13
847.999	21.16
848.175	60.07
848.35	84.65
848.526	58.03
848.701	70.31
848.876	35.5
849.052	-3.41
849.227	45.74
849.403	21.16
849.578	-30.04
849.753	29.35
849.929	86.7
850.104	58.03
850.279	62.12
850.454	47.79
850.63	45.74
850.805	88.75
850.98	-15.7
851.155	37.55
851.33	17.07
851.505	68.27
851.681	51.88
851.856	37.55
852.031	101.03
852.206	76.46
852.381	19.11
852.556	51.88
852.731	58.03
852.906	37.55
853.081	90.79
853.256	168.62
853.431	62.12
853.606	35.5
853.781	68.27
853.956	27.31
854.131	29.35
854.305	10.92
854.48	8.87
854.655	19.11
854.83	53.93
855.005	139.94
855.18	98.99
855.354	60.07
855.529	66.22
855.704	39.59
855.879	53.93
856.053	37.55
856.228	58.03
856.403	0.68
856.577	-9.56
856.752	-5.46
856.926	55.98
857.101	37.55
857.276	47.79
857.45	33.45
857.625	45.74
857.799	60.07
857.974	27.31
858.148	-1.37
858.323	43.69
858.497	17.07
858.672	27.31
858.846	17.07
859.02	146.09
859.195	90.79
859.369	49.83
859.543	43.69
859.718	53.93
859.892	17.07
860.066	70.31
860.241	27.31
860.415	25.26
860.589	86.7
860.763	103.08
860.938	92.84
861.112	41.64
861.286	23.21
861.46	-7.51
861.634	27.31
861.808	62.12
861.982	-40.28
862.157	25.26
862.331	43.69
862.505	2.73
862.679	-25.94
862.853	43.69
863.027	51.88
863.201	88.75
863.375	17.07
863.549	82.6
863.722	6.83
863.896	98.99
864.07	-3.41
864.244	74.41
864.418	23.21
864.592	60.07
864.766	39.59
864.939	-11.61
865.113	53.93
865.287	49.83
865.461	84.65
865.634	35.5
865.808	19.11
865.982	-21.85
866.156	-32.08
866.329	10.92
866.503	76.46
866.676	43.69
866.85	45.74
867.024	98.99
867.197	55.98
867.371	29.35
867.544	90.79
867.718	49.83
867.891	78.51
868.065	-50.52
868.238	25.26
868.412	82.6
868.585	12.97
868.759	-52.56
868.932	17.07
869.105	2.73
869.279	66.22
869.452	66.22
869.625	49.83
869.799	47.79
869.972	17.07
870.145	-9.56
870.319	-17.75
870.492	12.97
870.665	45.74
870.838	51.88
871.011	21.16
871.185	-5.46
871.358	10.92
871.531	82.6
871.704	-34.13
871.877	70.31
872.05	23.21
872.223	76.46
872.396	10.92
872.569	-11.61
872.742	-34.13
872.915	41.64
873.088	-5.46
873.261	-5.46
873.434	33.45
873.607	-7.51
873.78	33.45
873.953	-13.65
874.126	60.07
874.299	-25.94
874.471	2.73
874.644	33.45
874.817	98.99
874.99	12.97
875.163	-13.65
875.335	19.11
875.508	-42.32
875.681	43.69
875.853	2.73
876.026	58.03
876.199	15.02
876.371	58.03
876.544	-54.61
876.717	60.07
876.889	94.89
877.062	45.74
877.234	-93.52
877.407	33.45
877.579	-5.46
877.752	37.55
877.924	19.11
878.097	-54.61
878.269	-13.65
878.442	53.93
878.614	41.64
878.786	-7.51
878.959	6.83
879.131	23.21
879.303	19.11
879.476	74.41
879.648	-5.46
879.82	29.35
879.993	-21.85
880.165	66.22
880.337	-3.41
880.509	41.64
880.681	-21.85
880.854	27.31
881.026	10.92
881.198	55.98
881.37	98.99
881.542	103.08
881.714	29.35
881.886	94.89
882.058	39.59
882.23	84.65
882.402	2.73
882.574	21.16
882.746	-30.04
882.918	185
883.09	49.83
883.262	-23.89
883.434	92.84
883.606	-7.51
883.778	29.35
883.95	53.93
884.122	-36.18
884.293	68.27
884.465	8.87
884.637	74.41
884.809	19.11
884.98	62.12
885.152	19.11
885.324	84.65
885.496	0.68
885.667	49.83
885.839	94.89
886.011	90.79
886.182	51.88
886.354	68.27
886.525	4.78
886.697	82.6
886.869	-42.32
887.04	76.46
887.212	58.03
887.383	90.79
887.555	19.11
887.726	-19.8
887.897	37.55
888.069	-21.85
888.24	37.55
888.412	6.83
888.583	-11.61
888.754	49.83
888.926	0.68
889.097	-21.85
889.268	-21.85
889.44	10.92
889.611	51.88
889.782	64.17
889.953	39.59
890.125	-11.61
890.296	-48.47
890.467	-36.18
890.638	-3.41
890.809	39.59
890.98	-32.08
891.151	58.03
891.323	123.56
891.494	-62.8
891.665	-15.7
891.836	27.31
892.007	-7.51
892.178	82.6
892.349	51.88
892.52	-27.99
892.691	17.07
892.862	47.79
893.032	-19.8
893.203	27.31
893.374	49.83
893.545	35.5
893.716	-3.41
893.887	49.83
894.057	8.87
894.228	15.02
894.399	-11.61
894.57	64.17
894.74	27.31
894.911	74.41
895.082	-46.42
895.253	0.68
895.423	-11.61
895.594	43.69
895.764	-11.61
895.935	60.07
896.106	27.31
896.276	2.73
896.447	0.68
896.617	21.16
896.788	-40.28
896.958	37.55
897.129	-42.32
897.299	25.26
897.47	4.78
897.64	64.17
897.81	-58.71
897.981	33.45
898.151	-25.94
898.322	12.97
898.492	12.97
898.662	4.78
898.832	39.59
899.003	29.35
899.173	8.87
899.343	-48.47
899.513	-81.24
