Data from USB4F104151__202__14-20-37-844.txt Node

Date: Thu Mar 13 14:20:37 EDT 2025
User: louis
Spectrometer: USB4F10415
Trigger mode: 4
Integration Time (sec): 2.000000E-2
Scans to average: 1
Electric dark correction enabled: true
Nonlinearity correction enabled: false
Boxcar width: 0
XAxis mode: Wavelengths
Number of Pixels in Spectrum: 3648
>>>>>Begin Spectral Data<<<<<
178.204	-122.54
178.424	-122.54
178.644	-122.54
178.864	-155.3
179.084	-73.39
179.304	18.77
179.524	18.77
179.744	-57
179.964	51.54
180.184	18.77
180.404	-7.85
180.624	6.49
180.844	-61.1
181.064	-36.52
181.283	10.58
181.503	-3.75
181.723	41.3
181.943	-16.04
182.163	102.74
182.383	59.73
182.602	-22.19
182.822	20.82
183.042	74.07
183.262	-1.71
183.482	33.11
183.701	26.96
183.921	65.88
184.141	4.44
184.361	115.03
184.58	29.01
184.8	-32.43
185.02	-1.71
185.239	24.92
185.459	39.25
185.679	-5.8
185.898	0.34
186.118	51.54
186.338	12.63
186.557	35.16
186.777	6.49
186.997	-5.8
187.216	-52.91
187.436	90.45
187.655	133.46
187.875	65.88
188.095	-69.29
188.314	78.16
188.534	88.4
188.753	29.01
188.973	18.77
189.192	33.11
189.412	10.58
189.631	57.68
189.851	94.55
190.07	149.84
190.29	29.01
190.509	-16.04
190.729	-38.57
190.948	0.34
191.168	115.03
191.387	-16.04
191.607	0.34
191.826	26.96
192.045	-18.09
192.265	69.97
192.484	24.92
192.704	33.11
192.923	37.2
193.142	53.59
193.362	-1.71
193.581	37.2
193.8	-30.38
194.02	51.54
194.239	53.59
194.458	10.58
194.678	102.74
194.897	22.87
195.116	10.58
195.335	51.54
195.555	0.34
195.774	18.77
195.993	78.16
196.212	69.97
196.432	6.49
196.651	26.96
196.87	59.73
197.089	65.88
197.308	14.68
197.528	92.5
197.747	0.34
197.966	2.39
198.185	-3.75
198.404	57.68
198.623	-38.57
198.842	115.03
199.062	59.73
199.281	33.11
199.5	-5.8
199.719	26.96
199.938	53.59
200.157	16.73
200.376	88.4
200.595	43.35
200.814	0.34
201.033	14.68
201.252	55.64
201.471	69.97
201.69	53.59
201.909	24.92
202.128	8.53
202.347	65.88
202.566	61.78
202.785	59.73
203.004	22.87
203.223	26.96
203.442	127.32
203.661	-40.62
203.879	4.44
204.098	0.34
204.317	90.45
204.536	59.73
204.755	33.11
204.974	24.92
205.193	-16.04
205.411	78.16
205.63	106.84
205.849	72.02
206.068	57.68
206.287	41.3
206.505	41.3
206.724	26.96
206.943	-13.99
207.162	61.78
207.381	-7.85
207.599	43.35
207.818	61.78
208.037	86.36
208.255	12.63
208.474	84.31
208.693	-13.99
208.911	76.12
209.13	10.58
209.349	112.98
209.567	67.92
209.786	33.11
210.005	-5.8
210.223	90.45
210.442	59.73
210.661	22.87
210.879	41.3
211.098	63.83
211.316	45.4
211.535	74.07
211.753	20.82
211.972	49.49
212.191	33.11
212.409	26.96
212.628	90.45
212.846	41.3
213.065	41.3
213.283	41.3
213.502	2.39
213.72	-20.14
213.938	74.07
214.157	41.3
214.375	57.68
214.594	67.92
214.812	53.59
215.031	16.73
215.249	10.58
215.467	69.97
215.686	0.34
215.904	69.97
216.122	-42.67
216.341	74.07
216.559	-40.62
216.778	76.12
216.996	80.21
217.214	18.77
217.432	39.25
217.651	12.63
217.869	49.49
218.087	84.31
218.306	51.54
218.524	24.92
218.742	45.4
218.96	16.73
219.179	86.36
219.397	29.01
219.615	82.26
219.833	92.5
220.051	57.68
220.27	0.34
220.488	41.3
220.706	63.83
220.924	4.44
221.142	4.44
221.36	22.87
221.578	45.4
221.796	33.11
222.015	84.31
222.233	51.54
222.451	129.36
222.669	39.25
222.887	106.84
223.105	-38.57
223.323	61.78
223.541	4.44
223.759	41.3
223.977	26.96
224.195	74.07
224.413	43.35
224.631	78.16
224.849	106.84
225.067	147.8
225.285	4.44
225.503	57.68
225.721	2.39
225.939	82.26
226.157	41.3
226.375	78.16
226.592	31.06
226.81	65.88
227.028	65.88
227.246	115.03
227.464	-3.75
227.682	35.16
227.9	45.4
228.117	82.26
228.335	45.4
228.553	76.12
228.771	39.25
228.989	65.88
229.206	49.49
229.424	29.01
229.642	0.34
229.86	88.4
230.077	33.11
230.295	45.4
230.513	164.18
230.731	78.16
230.948	-7.85
231.166	166.23
231.384	0.34
231.601	45.4
231.819	2.39
232.037	2.39
232.254	-30.38
232.472	59.73
232.689	-9.9
232.907	98.64
233.125	33.11
233.342	16.73
233.56	16.73
233.777	41.3
233.995	45.4
234.213	53.59
234.43	51.54
234.648	-13.99
234.865	16.73
235.083	78.16
235.3	2.39
235.518	-3.75
235.735	86.36
235.953	88.4
236.17	43.35
236.388	29.01
236.605	-3.75
236.822	45.4
237.04	82.26
237.257	-20.14
237.475	20.82
237.692	41.3
237.909	74.07
238.127	29.01
238.344	49.49
238.562	90.45
238.779	6.49
238.996	26.96
239.214	-24.23
239.431	82.26
239.648	72.02
239.865	49.49
240.083	84.31
240.3	-11.95
240.517	-3.75
240.735	74.07
240.952	61.78
241.169	115.03
241.386	37.2
241.603	24.92
241.821	18.77
242.038	29.01
242.255	106.84
242.472	0.34
242.689	31.06
242.907	24.92
243.124	-32.43
243.341	80.21
243.558	67.92
243.775	57.68
243.992	-24.23
244.209	16.73
244.426	41.3
244.643	102.74
244.86	49.49
245.078	-40.62
245.295	-7.85
245.512	98.64
245.729	22.87
245.946	18.77
246.163	18.77
246.38	49.49
246.597	69.97
246.814	78.16
247.031	78.16
247.248	106.84
247.464	-13.99
247.681	117.08
247.898	51.54
248.115	65.88
248.332	76.12
248.549	106.84
248.766	106.84
248.983	84.31
249.2	2.39
249.417	-3.75
249.633	4.44
249.85	49.49
250.067	82.26
250.284	2.39
250.501	24.92
250.717	43.35
250.934	-5.8
251.151	39.25
251.368	74.07
251.585	33.11
251.801	47.44
252.018	6.49
252.235	61.78
252.451	18.77
252.668	10.58
252.885	106.84
253.102	-11.95
253.318	31.06
253.535	37.2
253.752	41.3
253.968	14.68
254.185	-7.85
254.401	78.16
254.618	92.5
254.835	59.73
255.051	35.16
255.268	82.26
255.484	63.83
255.701	31.06
255.917	16.73
256.134	-32.43
256.351	37.2
256.567	37.2
256.784	2.39
257	16.73
257.217	51.54
257.433	43.35
257.65	26.96
257.866	57.68
258.082	-40.62
258.299	35.16
258.515	67.92
258.732	0.34
258.948	31.06
259.165	57.68
259.381	33.11
259.597	-20.14
259.814	35.16
260.03	41.3
260.246	22.87
260.463	127.32
260.679	117.08
260.895	69.97
261.112	43.35
261.328	14.68
261.544	82.26
261.761	147.8
261.977	22.87
262.193	12.63
262.409	10.58
262.626	33.11
262.842	72.02
263.058	16.73
263.274	33.11
263.49	67.92
263.707	4.44
263.923	45.4
264.139	8.53
264.355	14.68
264.571	115.03
264.787	35.16
265.004	108.88
265.22	-26.28
265.436	26.96
265.652	8.53
265.868	24.92
266.084	2.39
266.3	6.49
266.516	18.77
266.732	41.3
266.948	45.4
267.164	45.4
267.38	-24.23
267.596	41.3
267.812	43.35
268.028	67.92
268.244	65.88
268.46	78.16
268.676	41.3
268.892	14.68
269.108	59.73
269.324	-38.57
269.54	33.11
269.756	102.74
269.972	35.16
270.188	65.88
270.403	67.92
270.619	82.26
270.835	45.4
271.051	37.2
271.267	45.4
271.483	84.31
271.698	90.45
271.914	45.4
272.13	37.2
272.346	106.84
272.562	59.73
272.777	69.97
272.993	12.63
273.209	12.63
273.425	-57
273.64	10.58
273.856	-1.71
274.072	59.73
274.287	-9.9
274.503	-71.34
274.719	33.11
274.934	92.5
275.15	90.45
275.366	51.54
275.581	26.96
275.797	74.07
276.012	8.53
276.228	24.92
276.444	43.35
276.659	86.36
276.875	-7.85
277.09	45.4
277.306	16.73
277.521	45.4
277.737	0.34
277.952	90.45
278.168	18.77
278.383	53.59
278.599	106.84
278.814	57.68
279.03	82.26
279.245	106.84
279.461	74.07
279.676	69.97
279.892	16.73
280.107	0.34
280.322	10.58
280.538	45.4
280.753	0.34
280.969	164.18
281.184	65.88
281.399	57.68
281.615	94.55
281.83	94.55
282.045	-24.23
282.26	29.01
282.476	74.07
282.691	61.78
282.906	41.3
283.122	59.73
283.337	-5.8
283.552	135.51
283.767	-9.9
283.983	100.69
284.198	-5.8
284.413	-11.95
284.628	67.92
284.843	123.22
285.058	74.07
285.274	100.69
285.489	-22.19
285.704	31.06
285.919	65.88
286.134	74.07
286.349	98.64
286.564	14.68
286.779	135.51
286.995	10.58
287.21	18.77
287.425	108.88
287.64	12.63
287.855	74.07
288.07	-22.19
288.285	43.35
288.5	84.31
288.715	98.64
288.93	-3.75
289.145	74.07
289.36	115.03
289.575	-16.04
289.79	26.96
290.004	24.92
290.219	59.73
290.434	0.34
290.649	74.07
290.864	2.39
291.079	41.3
291.294	49.49
291.509	12.63
291.724	-22.19
291.938	-16.04
292.153	49.49
292.368	-3.75
292.583	-7.85
292.798	24.92
293.012	82.26
293.227	49.49
293.442	51.54
293.657	74.07
293.871	57.68
294.086	98.64
294.301	51.54
294.516	53.59
294.73	76.12
294.945	33.11
295.16	45.4
295.374	39.25
295.589	115.03
295.804	33.11
296.018	102.74
296.233	90.45
296.447	94.55
296.662	43.35
296.877	78.16
297.091	43.35
297.306	55.64
297.52	-52.91
297.735	65.88
297.949	20.82
298.164	-13.99
298.378	67.92
298.593	45.4
298.807	18.77
299.022	76.12
299.236	67.92
299.451	80.21
299.665	-44.71
299.88	24.92
300.094	67.92
300.309	78.16
300.523	-16.04
300.737	10.58
300.952	39.25
301.166	8.53
301.381	80.21
301.595	96.6
301.809	82.26
302.024	84.31
302.238	18.77
302.452	123.22
302.667	-32.43
302.881	76.12
303.095	88.4
303.309	49.49
303.524	8.53
303.738	12.63
303.952	53.59
304.166	67.92
304.381	24.92
304.595	104.79
304.809	22.87
305.023	61.78
305.237	74.07
305.452	47.44
305.666	82.26
305.88	49.49
306.094	90.45
306.308	74.07
306.522	84.31
306.736	33.11
306.95	45.4
307.164	74.07
307.379	47.44
307.593	131.41
307.807	43.35
308.021	45.4
308.235	29.01
308.449	-3.75
308.663	41.3
308.877	57.68
309.091	115.03
309.305	127.32
309.519	8.53
309.733	22.87
309.947	61.78
310.161	0.34
310.374	49.49
310.588	98.64
310.802	51.54
311.016	86.36
311.23	94.55
311.444	-26.28
311.658	57.68
311.872	90.45
312.085	67.92
312.299	49.49
312.513	63.83
312.727	49.49
312.941	24.92
313.154	39.25
313.368	8.53
313.582	84.31
313.796	53.59
314.009	78.16
314.223	72.02
314.437	82.26
314.651	84.31
314.864	33.11
315.078	-1.71
315.292	45.4
315.505	35.16
315.719	43.35
315.933	55.64
316.146	63.83
316.36	51.54
316.573	94.55
316.787	86.36
317.001	0.34
317.214	39.25
317.428	-30.38
317.641	45.4
317.855	41.3
318.068	53.59
318.282	55.64
318.495	98.64
318.709	69.97
318.922	43.35
319.136	123.22
319.349	41.3
319.563	84.31
319.776	57.68
319.99	57.68
320.203	26.96
320.417	53.59
320.63	59.73
320.843	131.41
321.057	102.74
321.27	24.92
321.483	43.35
321.697	74.07
321.91	33.11
322.124	106.84
322.337	53.59
322.55	59.73
322.763	16.73
322.977	82.26
323.19	45.4
323.403	80.21
323.617	84.31
323.83	104.79
324.043	16.73
324.256	92.5
324.469	24.92
324.683	74.07
324.896	16.73
325.109	-7.85
325.322	16.73
325.535	92.5
325.748	96.6
325.962	41.3
326.175	-36.52
326.388	33.11
326.601	65.88
326.814	94.55
327.027	92.5
327.24	-16.04
327.453	20.82
327.666	119.12
327.879	110.93
328.092	26.96
328.305	31.06
328.518	14.68
328.731	8.53
328.944	98.64
329.157	45.4
329.37	22.87
329.583	69.97
329.796	24.92
330.009	12.63
330.222	51.54
330.435	0.34
330.648	41.3
330.861	57.68
331.073	67.92
331.286	49.49
331.499	74.07
331.712	22.87
331.925	57.68
332.138	67.92
332.35	31.06
332.563	108.88
332.776	69.97
332.989	24.92
333.202	53.59
333.414	8.53
333.627	115.03
333.84	53.59
334.053	82.26
334.265	84.31
334.478	39.25
334.691	67.92
334.903	61.78
335.116	45.4
335.329	53.59
335.541	78.16
335.754	100.69
335.966	98.64
336.179	78.16
336.392	16.73
336.604	51.54
336.817	110.93
337.029	65.88
337.242	69.97
337.454	55.64
337.667	45.4
337.88	51.54
338.092	29.01
338.305	29.01
338.517	-5.8
338.729	24.92
338.942	16.73
339.154	24.92
339.367	78.16
339.579	69.97
339.792	37.2
340.004	108.88
340.217	14.68
340.429	26.96
340.641	82.26
340.854	10.58
341.066	35.16
341.278	106.84
341.491	59.73
341.703	123.22
341.915	41.3
342.128	86.36
342.34	49.49
342.552	-11.95
342.764	84.31
342.977	24.92
343.189	94.55
343.401	90.45
343.613	69.97
343.826	65.88
344.038	67.92
344.25	74.07
344.462	49.49
344.674	106.84
344.886	49.49
345.099	31.06
345.311	-11.95
345.523	57.68
345.735	-1.71
345.947	24.92
346.159	63.83
346.371	69.97
346.583	90.45
346.795	192.85
347.007	10.58
347.219	78.16
347.431	86.36
347.643	90.45
347.855	33.11
348.067	123.22
348.279	63.83
348.491	112.98
348.703	47.44
348.915	45.4
349.127	-9.9
349.339	16.73
349.551	96.6
349.763	92.5
349.975	41.3
350.187	14.68
350.399	84.31
350.61	82.26
350.822	88.4
351.034	33.11
351.246	45.4
351.458	69.97
351.669	196.95
351.881	82.26
352.093	86.36
352.305	59.73
352.517	45.4
352.728	94.55
352.94	43.35
353.152	37.2
353.363	63.83
353.575	166.23
353.787	24.92
353.999	82.26
354.21	115.03
354.422	69.97
354.633	37.2
354.845	18.77
355.057	86.36
355.268	29.01
355.48	94.55
355.692	59.73
355.903	69.97
356.115	61.78
356.326	-7.85
356.538	112.98
356.749	147.8
356.961	76.12
357.172	82.26
357.384	59.73
357.595	117.08
357.807	82.26
358.018	20.82
358.23	74.07
358.441	135.51
358.653	51.54
358.864	69.97
359.075	102.74
359.287	29.01
359.498	141.65
359.709	90.45
359.921	80.21
360.132	12.63
360.344	51.54
360.555	33.11
360.766	26.96
360.977	104.79
361.189	123.22
361.4	51.54
361.611	49.49
361.823	57.68
362.034	90.45
362.245	-13.99
362.456	131.41
362.667	123.22
362.879	102.74
363.09	35.16
363.301	106.84
363.512	106.84
363.723	141.65
363.935	-30.38
364.146	24.92
364.357	20.82
364.568	69.97
364.779	10.58
364.99	51.54
365.201	14.68
365.412	127.32
365.623	49.49
365.834	59.73
366.045	51.54
366.256	90.45
366.467	76.12
366.678	108.88
366.889	33.11
367.1	-16.04
367.311	20.82
367.522	10.58
367.733	76.12
367.944	65.88
368.155	76.12
368.366	108.88
368.577	86.36
368.788	131.41
368.999	49.49
369.209	86.36
369.42	102.74
369.631	137.56
369.842	59.73
370.053	74.07
370.264	41.3
370.474	63.83
370.685	74.07
370.896	0.34
371.107	98.64
371.317	82.26
371.528	94.55
371.739	16.73
371.95	115.03
372.16	94.55
372.371	37.2
372.582	76.12
372.792	67.92
373.003	63.83
373.214	67.92
373.424	35.16
373.635	45.4
373.846	133.46
374.056	2.39
374.267	119.12
374.477	76.12
374.688	65.88
374.898	115.03
375.109	33.11
375.319	12.63
375.53	78.16
375.74	98.64
375.951	53.59
376.161	115.03
376.372	94.55
376.582	55.64
376.793	76.12
377.003	67.92
377.214	33.11
377.424	65.88
377.635	115.03
377.845	72.02
378.055	86.36
378.266	16.73
378.476	108.88
378.686	-63.15
378.897	143.7
379.107	102.74
379.317	16.73
379.528	20.82
379.738	92.5
379.948	53.59
380.158	53.59
380.369	80.21
380.579	151.89
380.789	39.25
380.999	90.45
381.21	61.78
381.42	123.22
381.63	26.96
381.84	90.45
382.05	49.49
382.261	147.8
382.471	53.59
382.681	98.64
382.891	139.6
383.101	174.42
383.311	90.45
383.521	125.27
383.731	135.51
383.941	125.27
384.151	74.07
384.361	149.84
384.571	67.92
384.781	141.65
384.991	57.68
385.201	125.27
385.411	115.03
385.621	143.7
385.831	76.12
386.041	59.73
386.251	41.3
386.461	74.07
386.671	4.44
386.881	123.22
387.091	24.92
387.301	115.03
387.511	31.06
387.72	115.03
387.93	92.5
388.14	106.84
388.35	35.16
388.56	131.41
388.769	57.68
388.979	80.21
389.189	55.64
389.399	78.16
389.609	182.61
389.818	135.51
390.028	-7.85
390.238	106.84
390.447	102.74
390.657	98.64
390.867	-9.9
391.076	33.11
391.286	98.64
391.496	119.12
391.705	90.45
391.915	82.26
392.125	112.98
392.334	76.12
392.544	129.36
392.753	104.79
392.963	123.22
393.172	170.32
393.382	59.73
393.591	131.41
393.801	139.6
394.01	176.47
394.22	141.65
394.429	131.41
394.639	90.45
394.848	164.18
395.058	131.41
395.267	115.03
395.477	51.54
395.686	155.99
395.895	172.37
396.105	166.23
396.314	98.64
396.524	94.55
396.733	127.32
396.942	110.93
397.152	110.93
397.361	155.99
397.57	123.22
397.78	100.69
397.989	133.46
398.198	158.03
398.407	84.31
398.617	69.97
398.826	131.41
399.035	108.88
399.244	207.19
399.453	203.09
399.663	115.03
399.872	196.95
400.081	145.75
400.29	137.56
400.499	100.69
400.708	180.56
400.917	108.88
401.127	164.18
401.336	102.74
401.545	198.99
401.754	160.08
401.963	231.76
402.172	106.84
402.381	198.99
402.59	119.12
402.799	166.23
403.008	180.56
403.217	166.23
403.426	149.84
403.635	143.7
403.844	115.03
404.053	121.17
404.262	178.51
404.471	217.43
404.68	160.08
404.888	211.28
405.097	96.6
405.306	201.04
405.515	176.47
405.724	201.04
405.933	291.15
406.142	145.75
406.35	211.28
406.559	153.94
406.768	205.14
406.977	323.92
407.185	342.35
407.394	299.34
407.603	246.1
407.812	272.72
408.02	338.26
408.229	325.97
408.438	348.5
408.646	266.58
408.855	344.4
409.064	389.46
409.272	364.88
409.481	393.55
409.69	352.59
409.898	246.1
410.107	432.46
410.315	467.28
410.524	495.95
410.733	516.43
410.941	387.41
411.15	444.75
411.358	532.81
411.567	528.72
411.775	498
411.984	592.2
412.192	586.06
412.401	541.01
412.609	643.4
412.818	590.16
413.026	647.5
413.234	606.54
413.443	663.88
413.651	696.65
413.86	663.88
414.068	745.8
414.276	766.28
414.485	876.87
414.693	852.3
414.901	926.02
415.11	911.69
415.318	909.64
415.526	909.64
415.734	952.65
415.943	1012.04
416.151	1083.72
416.359	1044.81
416.567	1171.78
416.776	1194.31
416.984	1237.31
417.192	1302.85
417.4	1331.52
417.608	1255.75
417.817	1343.81
418.025	1337.66
418.233	1556.8
418.441	1409.34
418.649	1550.65
418.857	1608
419.065	1673.53
419.273	1665.34
419.481	1777.98
419.689	1927.48
419.897	1917.24
420.105	1925.43
420.313	1997.11
420.521	2066.74
420.729	2126.13
420.937	2214.2
421.145	2279.73
421.353	2418.99
421.561	2343.22
421.769	2445.62
421.977	2679.08
422.185	2588.97
422.393	2689.32
422.601	2920.74
422.809	3025.19
423.017	2978.09
423.224	3137.83
423.432	3150.12
423.64	3303.71
423.848	3494.18
424.056	3434.78
424.263	3617.05
424.471	3565.85
424.679	3715.36
424.887	4047.13
425.094	4086.04
425.302	3997.98
425.51	4083.99
425.718	4309.27
425.925	4460.82
426.133	4540.69
426.341	4720.91
426.548	5032.2
426.756	4956.43
426.964	5097.74
427.171	5472.51
427.379	5482.75
427.586	5609.73
427.794	5914.88
428.001	5941.5
428.209	6338.8
428.417	6177.02
428.624	6783.21
428.832	6582.51
429.039	6666.48
429.247	6693.1
429.454	7426.28
429.662	7735.52
429.869	7219.43
430.076	7876.83
430.284	7477.48
430.491	7807.2
430.699	8317.14
430.906	8237.27
431.114	8487.12
431.321	8669.39
431.528	8814.8
431.736	9437.38
431.943	9844.93
432.15	9625.79
432.358	9408.71
432.565	10461.37
432.772	10272.95
432.979	10662.07
433.187	10856.62
433.394	11026.61
433.601	11737.25
433.808	11649.19
434.016	11438.25
434.223	12017.82
434.43	12951.7
434.637	12591.25
434.844	13334.67
435.052	13473.93
435.259	13478.02
435.466	13549.7
435.673	13418.63
435.88	14327.93
436.087	15061.1
436.294	15198.32
436.501	14727.28
436.708	14983.28
436.915	15509.61
437.122	16476.25
437.329	16197.73
437.537	16734.29
437.743	16818.26
437.95	16971.86
438.157	17614.92
438.364	18364.48
438.571	18282.56
438.778	18360.38
438.985	20084.77
439.192	19421.23
439.399	19976.23
439.606	19454
439.813	20596.76
440.02	22147.08
440.227	21418
440.433	21221.39
440.64	21917.7
440.847	21821.45
441.054	22243.33
441.261	23871.47
441.467	23693.29
441.674	23758.83
441.881	24840.15
442.088	24727.52
442.294	24451.04
442.501	25128.92
442.708	25552.85
442.914	26531.78
443.121	27471.79
443.328	27199.41
443.534	28966.81
443.741	28022.7
443.948	27400.12
444.154	29487
444.361	29540.24
444.568	29597.59
444.774	29462.42
444.981	29767.57
445.187	30863.23
445.394	31901.55
445.6	31829.87
445.807	34395.98
446.013	33087.32
446.22	33619.8
446.426	35006.27
446.633	35370.81
446.839	36247.34
447.046	34899.78
447.252	36818.72
447.459	36831.01
447.665	37064.48
447.871	38397.71
448.078	39780.09
448.284	38020.88
448.491	39108.35
448.697	40417
448.903	41445.08
449.11	41416.41
449.316	40619.75
449.522	41584.35
449.728	42157.78
449.935	43028.16
450.141	42774.22
450.347	43585.21
450.553	42428.11
450.76	42979.01
450.966	44320.43
451.172	43828.92
451.378	44867.24
451.584	43970.23
451.791	45057.7
451.997	44832.43
452.203	45442.72
452.409	45952.66
452.615	45639.32
452.821	43814.58
453.027	43259.59
453.233	45719.2
453.44	44013.24
453.646	44287.67
453.852	44734.12
454.058	45207.2
454.264	43968.18
454.47	45151.91
454.676	43161.28
454.882	45094.57
455.088	41381.6
455.294	41993.94
455.5	42444.49
455.705	42895.05
455.911	41144.03
456.117	40664.81
456.323	40050.42
456.529	37857.04
456.735	39679.74
456.941	38604.55
457.147	37809.94
457.352	37228.32
457.558	36462.38
457.764	36312.88
457.97	35860.27
458.176	35239.74
458.381	34948.93
458.587	33535.83
458.793	33382.23
458.999	31412.09
459.204	33826.64
459.41	33058.65
459.616	30914.43
459.821	30893.95
460.027	30951.29
460.233	30248.84
460.438	28659.62
460.644	29251.48
460.85	27594.67
461.055	27123.64
461.261	27097.02
461.466	25075.67
461.672	24639.45
461.878	26429.38
462.083	24661.98
462.289	24201.19
462.494	23728.11
462.7	22898.68
462.905	22003.72
463.111	22947.83
463.316	22669.31
463.522	22437.89
463.727	22519.81
463.932	22609.92
464.138	22220.8
464.343	22179.84
464.549	21807.11
464.754	22304.77
464.959	22165.51
465.165	22042.63
465.37	21012.5
465.575	20355.1
465.781	21723.15
465.986	21549.07
466.191	20432.93
466.397	20213.79
466.602	19312.69
466.807	20088.87
467.012	19906.6
467.218	20080.67
467.423	19791.91
467.628	20013.09
467.833	20486.17
468.038	19871.78
468.244	18944.05
468.449	20054.05
468.654	19210.29
468.859	19023.92
469.064	19253.3
469.269	18421.82
469.474	18765.88
469.679	18901.04
469.885	18098.24
470.09	18534.46
470.295	18757.69
470.5	18143.3
470.705	18063.43
470.91	17729.61
471.115	17506.38
471.32	17762.37
471.525	17614.92
471.73	17147.98
471.935	17080.4
472.139	16597.08
472.344	16820.31
472.549	16822.36
472.754	16584.79
472.959	16281.69
473.164	15802.47
473.369	15863.91
473.574	16306.27
473.778	16111.71
473.983	16027.74
474.188	15976.55
474.393	15057.01
474.598	15257.71
474.802	15085.68
475.007	15136.88
475.212	14911.6
475.417	14516.34
475.621	14594.17
475.826	14774.39
476.031	14420.09
476.235	13844.61
476.44	14069.89
476.645	13832.32
476.849	13897.86
477.054	13815.94
477.259	13668.48
477.463	13697.16
477.668	13021.33
477.872	13453.45
478.077	13047.95
478.282	12753.04
478.486	12581.01
478.691	12619.92
478.895	12486.81
479.1	12390.55
479.304	12423.32
479.509	12181.66
479.713	12322.97
479.918	11993.25
480.122	11751.59
480.326	11880.61
480.531	12279.96
480.735	11903.14
480.94	11856.03
481.144	12155.04
481.348	11651.24
481.553	11563.17
481.757	11378.86
481.961	11669.67
482.166	11853.98
482.37	11686.05
482.574	11491.49
482.778	11536.55
482.983	11747.49
483.187	11720.87
483.391	11641
483.595	11387.05
483.8	11399.34
484.004	11610.28
484.208	11432.1
484.412	11376.81
484.616	11606.18
484.821	11743.39
485.025	11432.1
485.229	11534.5
485.433	11430.05
485.637	11741.35
485.841	11528.36
486.045	11419.82
486.249	11663.52
486.453	11354.28
486.657	11495.59
486.861	11626.66
487.065	11317.42
487.269	11485.35
487.473	11112.62
487.677	11419.82
487.881	11489.45
488.085	11520.17
488.289	11589.8
488.493	11452.58
488.697	11565.22
488.901	11641
489.105	11446.44
489.309	11487.4
489.512	11495.59
489.716	11552.93
489.92	11641
490.124	11677.86
490.328	11962.53
490.531	11817.12
490.735	11880.61
490.939	11772.07
491.143	11745.44
491.346	11753.63
491.55	11948.19
491.754	11976.86
491.958	12050.59
492.161	11821.22
492.365	12075.17
492.569	11952.29
492.772	12163.23
492.976	12273.82
493.18	12251.29
493.383	12347.54
493.587	12482.71
493.79	12423.32
493.994	12245.15
494.197	12501.14
494.401	12507.29
494.605	12660.88
494.808	13082.77
495.012	12763.28
495.215	13146.25
495.419	13082.77
495.622	13224.08
495.825	13336.71
496.029	13414.54
496.232	13346.95
496.436	13392.01
496.639	13959.3
496.843	13854.85
497.046	14084.22
497.249	14164.09
497.453	14178.43
497.656	14540.92
497.859	14272.64
498.063	14659.7
498.266	14823.54
498.469	14712.95
498.673	14801.01
498.876	15138.93
499.079	15253.61
499.282	15204.46
499.485	15542.38
499.689	15747.17
499.892	15841.38
500.095	15829.09
500.298	16353.37
500.501	16013.41
500.705	16613.46
500.908	16947.28
501.111	16687.19
501.314	17287.25
501.517	17363.02
501.72	17778.76
501.923	17498.19
502.126	17942.6
502.329	18149.44
502.532	18270.27
502.735	18268.22
502.938	18839.61
503.141	18942
503.344	18933.81
503.547	18968.63
503.75	19347.5
503.953	19603.5
504.156	19777.58
504.359	19853.35
504.562	20004.9
504.765	20377.63
504.968	20607
505.17	20975.64
505.373	20815.9
505.576	21364.75
505.779	21749.77
505.982	21506.06
506.185	21975.05
506.387	22278.15
506.59	22284.29
506.793	22521.85
506.996	22503.42
507.198	23371.76
507.401	23132.15
507.604	23537.65
507.807	23873.51
508.009	24133.61
508.212	24137.7
508.415	24262.63
508.617	24639.45
508.82	24938.46
509.022	24745.95
509.225	25673.68
509.428	25645.01
509.63	25753.55
509.833	25907.15
510.035	26363.84
510.238	26599.36
510.44	26738.62
510.643	26808.25
510.845	27375.54
511.048	27154.36
511.25	27672.5
511.453	28006.31
511.655	29081.5
511.858	28458.92
512.06	28360.61
512.262	28772.25
512.465	28880.8
512.667	29554.58
512.87	29566.87
513.072	29681.55
513.274	29865.87
513.477	30302.09
513.679	30586.75
513.881	31047.55
514.084	31440.76
514.286	31629.17
514.488	31694.71
514.69	32438.12
514.893	32337.77
515.095	32812.9
515.297	33263.45
515.499	32974.69
515.701	33509.21
515.904	33689.43
516.106	34213.71
516.308	34258.76
516.51	34426.7
516.712	34496.33
516.914	34623.3
517.116	35256.12
517.318	35534.65
517.52	35706.68
517.722	36007.73
517.925	36187.95
518.127	36910.88
518.329	36935.46
518.531	36859.68
518.733	37666.58
518.935	37592.86
519.136	37744.41
519.338	38027.03
519.54	38553.35
519.742	38807.3
519.944	38862.6
520.146	39489.27
520.348	39552.76
520.55	40105.71
520.752	40066.8
520.954	40685.29
521.155	40255.22
521.357	41236.19
521.559	41178.85
521.761	41717.46
521.963	41619.16
522.164	41821.91
522.366	41979.6
522.568	42405.58
522.77	42628.81
522.971	43423.42
523.173	43026.12
523.375	43364.03
523.576	43241.15
523.778	43146.95
523.98	43605.69
524.181	43579.07
524.383	44035.77
524.584	44633.77
524.786	44553.9
524.988	44768.94
525.189	45127.33
525.391	45463.2
525.592	45078.18
525.794	45407.9
525.995	45364.9
526.197	45692.57
526.398	45893.27
526.6	46478.99
526.801	46454.42
527.003	46622.35
527.204	46784.14
527.406	46872.2
527.607	46591.63
527.808	47365.76
528.01	46247.57
528.211	46657.17
528.412	48055.93
528.614	47359.62
528.815	47543.94
529.016	48064.12
529.218	47582.85
529.419	47818.36
529.62	48041.59
529.822	47797.88
530.023	47922.81
530.224	48060.02
530.425	47750.78
530.626	47718.01
530.828	47552.13
531.029	48522.86
531.23	47992.44
531.431	47941.24
531.632	48215.67
531.833	48545.39
532.035	48488.05
532.236	48361.08
532.437	48494.19
532.638	48105.08
532.839	48805.48
533.04	48778.86
533.241	48461.43
533.442	48895.6
533.643	48655.98
533.844	48424.56
534.045	49067.62
534.246	48094.84
534.447	48678.51
534.648	48500.34
534.849	48561.78
535.05	47847.04
535.251	48545.39
535.451	48225.91
535.652	48819.82
535.853	48608.88
536.054	48746.09
536.255	48658.03
536.456	48354.93
536.657	49067.62
536.857	48371.32
537.058	47998.58
537.259	48799.34
537.46	48975.47
537.66	48567.92
537.861	48582.26
538.062	48182.9
538.263	48270.96
538.463	48324.21
538.664	48143.99
538.865	48715.37
539.065	48782.96
539.266	47838.84
539.466	48526.96
539.667	47933.05
539.868	48676.46
540.068	48201.33
540.269	47806.08
540.469	48709.23
540.67	48129.65
540.87	48422.51
541.071	48594.54
541.271	48410.23
541.472	48060.02
541.672	48318.07
541.873	48172.66
542.073	47629.95
542.274	48502.39
542.474	48490.1
542.675	47957.63
542.875	48346.74
543.075	48150.13
543.276	47711.87
543.476	48172.66
543.676	47607.42
543.877	48242.29
544.077	48041.59
544.277	48035.45
544.478	48043.64
544.678	47980.15
544.878	48211.57
545.078	48035.45
545.279	47672.96
545.479	47832.7
545.679	48215.67
545.879	47672.96
546.079	47931
546.28	48000.63
546.48	47027.85
546.68	47806.08
546.88	48094.84
547.08	47832.7
547.28	47509.12
547.48	47484.54
547.68	47879.8
547.88	47689.34
548.081	47996.54
548.281	47601.28
548.481	47361.67
548.681	48041.59
548.881	47568.51
549.081	48068.22
549.28	47314.56
549.48	47691.39
549.68	47447.68
549.88	48541.3
550.08	47705.73
550.28	48088.7
550.48	47574.66
550.68	47722.11
550.88	47363.71
551.08	47777.4
551.279	47615.61
551.479	47345.28
551.679	47658.62
551.879	46968.46
552.079	47771.26
552.278	46950.02
552.478	47445.63
552.678	47732.35
552.878	47416.96
553.077	47388.29
553.277	46976.65
553.477	47732.35
553.676	47271.56
553.876	47478.4
554.076	47232.64
554.275	47353.47
554.475	46845.58
554.674	47410.82
554.874	47548.03
555.074	47081.09
555.273	47341.19
555.473	47361.67
555.672	47029.9
555.872	47257.22
556.071	47257.22
556.271	47529.6
556.47	46626.45
556.67	47009.42
556.869	46935.69
557.068	46980.74
557.268	46507.66
557.467	46755.47
557.667	46415.51
557.866	46945.93
558.065	46571.15
558.265	46478.99
558.464	46231.19
558.663	47027.85
558.863	46155.41
559.062	46698.12
559.261	46067.35
559.461	46823.05
559.66	46126.74
559.859	46298.77
560.058	45995.67
560.258	46108.31
560.457	45797.02
560.656	45848.22
560.855	45868.7
561.054	46151.32
561.253	45717.15
561.453	45905.56
561.652	45854.36
561.851	45866.65
562.05	45700.76
562.249	45541.02
562.448	45794.97
562.647	45614.75
562.846	45954.71
563.045	45727.39
563.244	44707.5
563.443	45670.04
563.642	44512.94
563.841	45078.18
564.04	45080.23
564.239	45248.16
564.438	45086.37
564.637	45338.27
564.836	45151.91
565.035	44734.12
565.234	44979.88
565.432	44451.5
565.631	44783.27
565.83	44754.6
566.029	44267.19
566.228	44338.86
566.427	44154.55
566.625	43882.17
566.824	43908.79
567.023	44451.5
567.222	43673.27
567.42	43959.99
567.619	43976.37
567.818	43919.03
568.016	43570.88
568.215	44027.57
568.414	43710.14
568.612	43982.52
568.811	43177.67
569.01	43802.3
569.208	43413.18
569.407	43710.14
569.605	43175.62
569.804	43677.37
570.002	43108.04
570.201	42643.15
570.4	42874.57
570.598	42817.22
570.797	43065.03
570.995	43007.69
571.193	42497.74
571.392	42727.11
571.59	42299.09
571.789	42653.39
571.987	42362.57
572.186	42047.19
572.384	42077.91
572.582	42358.48
572.781	42202.83
572.979	41871.06
573.177	42174.16
573.376	41965.27
573.574	41193.18
573.772	41860.82
573.971	41475.8
574.169	41486.04
574.367	40965.86
574.565	41545.44
574.763	41109.22
574.962	41084.64
575.16	40689.38
575.358	41174.75
575.556	40287.98
575.754	41283.3
575.952	40582.89
576.151	41031.4
576.349	40685.29
576.547	40300.27
576.745	40675.05
576.943	40226.54
577.141	40374
577.339	40439.53
577.537	40074.99
577.735	40199.92
577.933	39487.23
578.131	39812.85
578.329	39556.86
578.527	39388.92
578.725	39362.3
578.923	39614.2
579.121	39266.05
579.319	39098.11
579.516	39419.64
579.714	39200.51
579.912	38889.22
580.11	38813.45
580.308	38989.57
580.506	38919.94
580.704	37977.87
580.901	38547.21
581.099	39036.67
581.297	38422.28
581.495	38395.66
581.692	38438.67
581.89	37676.82
582.088	38328.08
582.285	37478.17
582.483	38205.2
582.681	37924.63
582.878	37705.49
583.076	37660.44
583.274	37672.73
583.471	37443.35
583.669	37338.91
583.866	37168.93
584.064	37492.51
584.262	36718.37
584.459	36972.32
584.657	37213.98
584.854	37736.21
585.052	36284.2
585.249	37111.58
585.447	36955.94
585.644	36333.35
585.841	36706.09
586.039	36826.92
586.236	36058.93
586.434	35958.58
586.631	36054.83
586.828	36036.4
587.026	36103.98
587.223	35776.31
587.42	35821.36
587.618	35841.84
587.815	35655.48
588.012	35499.83
588.21	35258.17
588.407	35278.65
588.604	35301.18
588.801	34783.04
588.999	35219.26
589.196	34711.36
589.393	35092.29
589.59	34543.43
589.787	34295.63
589.984	34633.54
590.182	34135.88
590.379	34584.39
590.576	34463.56
590.773	34733.89
590.97	34078.54
591.167	34193.23
591.364	33847.12
591.561	34131.79
591.758	33824.59
591.955	33351.51
592.152	33752.91
592.349	33529.69
592.546	33441.62
592.743	33437.53
592.94	33032.03
593.137	33300.31
593.334	33406.81
593.531	32943.97
593.727	33138.52
593.924	32800.61
594.121	32870.24
594.318	32816.99
594.515	32311.14
594.712	32946.01
594.908	32354.15
595.105	32456.55
595.302	32051.05
595.499	32862.05
595.696	32057.2
595.892	31786.86
596.089	31952.75
596.286	32114.54
596.482	31852.4
596.679	31833.97
596.876	31670.13
597.072	31485.81
597.269	31518.58
597.466	31233.91
597.662	30996.35
597.859	31209.34
598.055	31346.55
598.252	30904.19
598.448	31123.32
598.645	31104.89
598.841	30711.68
599.038	30406.53
599.234	30836.61
599.431	30394.25
599.627	30472.07
599.824	30361.48
600.02	30465.92
600.217	30506.88
600.413	29790.09
600.609	29925.26
600.806	29958.03
601.002	29951.88
601.198	29646.74
601.395	29388.69
601.591	29468.56
601.787	29753.23
601.984	29325.21
602.18	29581.2
602.376	29407.12
602.572	29441.94
602.769	29327.25
602.965	29015.96
603.161	29003.67
603.357	28319.65
603.553	28743.58
603.75	28762.01
603.946	28377
604.142	28721.06
604.338	27916.2
604.534	28270.5
604.73	28374.95
604.926	28043.18
605.122	28288.93
605.318	28041.13
605.514	28006.31
605.71	27883.44
605.906	27793.33
606.102	27731.89
606.298	27858.86
606.494	27494.32
606.69	27799.47
606.886	27672.5
607.082	27199.41
607.278	27731.89
607.474	27178.93
607.67	27131.83
607.866	27023.29
608.062	27348.92
608.257	26978.23
608.453	27164.6
608.649	27103.16
608.845	26709.95
609.041	26671.04
609.236	27246.52
609.432	26812.35
609.628	26781.63
609.824	26695.61
610.019	26636.22
610.215	26587.07
610.411	26359.75
610.606	26249.16
610.802	26732.48
610.998	26523.58
611.193	26177.48
611.389	26238.92
611.584	26052.55
611.78	26302.4
611.976	26343.36
612.171	26089.42
612.367	26038.22
612.562	25966.54
612.758	25589.71
612.953	25630.67
613.149	26185.67
613.344	25442.26
613.539	25905.1
613.735	25589.71
613.93	25610.19
614.126	25460.69
614.321	25651.15
614.517	25726.92
614.712	25610.19
614.907	25079.77
615.103	25755.6
615.298	25290.71
615.493	25303
615.688	24946.65
615.884	25532.37
616.079	24805.34
616.274	25130.97
616.47	24932.31
616.665	24713.18
616.86	24958.94
617.055	24819.67
617.25	24891.35
617.445	25036.76
617.641	24301.54
617.836	24737.76
618.031	24524.77
618.226	24399.84
618.421	24391.65
618.616	24750.04
618.811	24092.65
619.006	24551.39
619.201	23990.25
619.396	24272.87
619.591	23777.26
619.786	23799.79
619.981	23451.63
620.176	23900.14
620.371	23445.49
620.566	23574.51
620.761	23355.38
620.956	23750.63
621.151	23007.22
621.346	23109.62
621.541	22808.57
621.735	23134.2
621.93	22794.23
622.125	22605.82
622.32	22439.93
622.515	22620.16
622.709	22200.32
622.904	21995.53
623.099	22093.83
623.294	22247.43
623.488	21747.72
623.683	21903.37
623.878	21512.21
624.072	21575.69
624.267	21581.84
624.462	21458.96
624.656	21374.99
624.851	21231.63
625.046	20799.51
625.24	21067.8
625.435	20922.39
625.629	21028.88
625.824	20533.28
626.018	20553.76
626.213	20029.48
626.407	20326.43
626.602	20086.82
626.796	20187.17
626.991	20140.07
627.185	19922.98
627.38	19585.07
627.574	19777.58
627.768	19478.57
627.963	19566.63
628.157	19415.09
628.352	19779.62
628.546	19066.93
628.74	19187.76
628.935	18714.68
629.129	18901.04
629.323	18812.98
629.517	18655.29
629.712	18442.3
629.906	18307.13
630.1	18311.23
630.294	18415.68
630.489	18059.33
630.683	18434.11
630.877	17963.08
631.071	17848.39
631.265	17829.96
631.459	17680.46
631.653	17567.82
631.848	17465.42
632.042	17461.32
632.236	17471.56
632.43	17320.01
632.624	17172.56
632.818	17162.32
633.012	17055.83
633.206	16619.61
633.4	16787.54
633.594	16609.37
633.788	16922.71
633.982	16820.31
634.176	16549.98
634.369	16255.07
634.563	16328.8
634.757	16492.63
634.951	16279.64
635.145	16035.94
635.339	16054.37
635.533	15872.1
635.726	16031.84
635.92	15880.29
636.114	16001.12
636.308	15532.14
636.501	15536.23
636.695	15599.72
636.889	15450.22
637.083	15155.31
637.276	15247.47
637.47	15353.96
637.664	15026.29
637.857	15034.48
638.051	14968.94
638.244	15173.74
638.438	14837.87
638.632	14700.66
638.825	14491.77
639.019	14581.88
639.212	14481.53
639.406	14526.58
639.599	14405.75
639.793	14409.85
639.986	14053.5
640.18	14143.61
640.373	14198.91
640.567	13961.34
640.76	13668.48
640.954	13795.46
641.147	13502.6
641.34	13607.05
641.534	13617.29
641.727	13418.63
641.92	13627.53
642.114	13387.91
642.307	13435.02
642.5	13275.27
642.694	13093.01
642.887	13027.47
643.08	13093.01
643.273	12976.27
643.467	13043.85
643.66	13041.81
643.853	12628.12
644.046	12656.79
644.239	12710.04
644.432	12478.61
644.626	12574.87
644.819	12384.41
645.012	12546.2
645.205	12296.35
645.398	12476.57
645.591	12183.71
645.784	12122.27
645.977	12124.32
646.17	12091.55
646.363	11987.1
646.556	11964.57
646.749	11833.5
646.942	11716.77
647.135	11516.07
647.328	11821.22
647.521	11520.17
647.714	11393.19
647.907	11571.36
648.099	11704.48
648.292	11305.13
648.485	11360.42
648.678	11176.11
648.871	11305.13
649.064	10981.55
649.256	11315.37
649.449	11077.8
649.642	10889.39
649.835	11042.99
650.027	10836.14
650.22	10733.75
650.413	10940.59
650.605	10705.07
650.798	10674.35
650.991	10455.22
651.183	10541.24
651.376	10250.42
651.568	10481.85
651.761	10313.91
651.954	10397.88
652.146	10248.38
652.339	10172.6
652.531	10004.67
652.724	10307.77
652.916	9904.32
653.109	9953.47
653.301	9894.08
653.494	9892.03
653.686	9715.91
653.879	9961.66
654.071	9765.06
654.263	9593.03
654.456	9629.89
654.648	9830.59
654.84	9490.63
655.033	9416.9
655.225	9552.07
655.417	9570.5
655.61	9507.01
655.802	9302.22
655.994	9257.16
656.186	9136.33
656.379	9210.06
656.571	9081.03
656.763	8999.12
656.955	9134.28
657.148	8906.96
657.34	8986.83
657.532	8708.3
657.724	8847.57
657.916	8669.39
658.108	8913.1
658.3	8855.76
658.492	8640.72
658.684	8790.22
658.876	8444.12
659.068	8372.44
659.26	8546.51
659.452	8358.1
659.644	8610
659.836	8360.15
660.028	8345.81
660.22	8163.54
660.412	8351.96
660.604	8274.14
660.796	8356.05
660.988	8274.14
661.18	7839.97
661.372	8044.76
661.563	8026.33
661.755	7950.56
661.947	7839.97
662.139	7827.68
662.331	7956.7
662.522	7764.19
662.714	7665.89
662.906	7635.17
663.097	7659.74
663.289	7604.45
663.481	7743.71
663.673	7528.67
663.864	7590.11
664.056	7532.77
664.247	7516.39
664.439	7389.41
664.631	7461.09
664.822	7239.91
665.014	7272.68
665.205	7149.8
665.397	7268.58
665.588	7176.42
665.78	7053.55
665.971	7129.32
666.163	7157.99
666.354	6934.76
666.546	7123.18
666.737	6959.34
666.929	6793.45
667.12	6963.44
667.311	6879.47
667.503	6809.84
667.694	6889.71
667.885	6783.21
668.077	6809.84
668.268	6693.1
668.459	6834.41
668.651	6680.82
668.842	6633.71
669.033	6588.66
669.224	6713.58
669.416	6490.35
669.607	6539.51
669.798	6369.52
669.989	6525.17
670.18	6410.48
670.371	6357.24
670.563	6422.77
670.754	6404.34
670.945	6351.09
671.136	6230.26
671.327	6177.02
671.518	6392.05
671.709	6230.26
671.9	6138.1
672.091	6111.48
672.282	6064.38
672.473	5996.79
672.664	6197.49
672.855	6088.95
673.046	6052.09
673.237	5980.41
673.428	5941.5
673.619	6027.51
673.809	5861.63
674	5943.55
674.191	5830.91
674.382	5925.11
674.573	5734.65
674.764	5693.69
674.954	5894.4
675.145	5748.99
675.336	5669.12
675.527	5685.5
675.717	5828.86
675.908	5728.51
676.099	5841.15
676.289	5742.85
676.48	5536
676.671	5505.28
676.861	5554.43
677.052	5581.06
677.243	5409.03
677.433	5523.71
677.624	5417.22
677.814	5449.99
678.005	5572.86
678.195	5439.75
678.386	5435.65
678.576	5474.56
678.767	5402.88
678.957	5372.16
679.148	5337.35
679.338	5447.94
679.529	5359.88
679.719	5382.4
679.909	5304.58
680.1	5130.5
680.29	5296.39
680.481	5341.44
680.671	5247.24
680.861	5185.8
681.052	5146.89
681.242	5030.15
681.432	5132.55
681.622	5114.12
681.813	5237
682.003	5103.88
682.193	5019.91
682.383	5187.85
682.573	5181.7
682.764	4989.19
682.954	5046.54
683.144	4997.39
683.334	4817.16
683.524	4997.39
683.714	4944.14
683.904	4892.94
684.094	4903.18
684.284	4989.19
684.474	4813.07
684.664	4948.23
684.854	4862.22
685.044	4948.23
685.234	4862.22
685.424	4923.66
685.614	4770.06
685.804	4772.11
685.994	4788.49
686.184	4874.51
686.374	4897.03
686.564	4737.29
686.753	4712.72
686.943	4686.09
687.133	4538.64
687.323	4665.61
687.513	4653.33
687.702	4581.65
687.892	4518.16
688.082	4477.2
688.272	4600.08
688.461	4583.7
688.651	4483.34
688.841	4350.23
689.03	4520.21
689.22	4444.43
689.41	4417.81
689.599	4356.37
689.789	4315.41
689.979	4399.38
690.168	4333.84
690.358	4149.53
690.547	4208.92
690.737	4260.12
690.926	4335.89
691.116	4243.73
691.305	4215.06
691.495	4112.66
691.684	4043.03
691.874	4260.12
692.063	4210.97
692.252	4202.77
692.442	4147.48
692.631	3979.54
692.82	3957.02
693.01	4055.32
693.199	3844.38
693.388	3836.19
693.578	3967.26
693.767	4034.84
693.956	3883.29
694.146	3977.5
694.335	3721.5
694.524	3885.34
694.713	3889.43
694.902	3873.05
695.092	3934.49
695.281	3789.08
695.47	3830.04
695.659	3957.02
695.848	3735.84
696.037	3809.56
696.226	3928.35
696.415	3911.96
696.604	3819.8
696.793	3768.6
696.982	3719.45
697.171	3733.79
697.36	3721.5
697.549	3576.09
697.738	3569.95
697.927	3588.38
698.116	3715.36
698.305	3662.11
698.494	3684.64
698.683	3602.72
698.872	3658.01
699.061	3584.29
699.25	3615.01
699.438	3670.3
699.627	3567.9
699.816	3641.63
700.005	3545.38
700.193	3645.73
700.382	3617.05
700.571	3653.92
700.76	3490.08
700.948	3629.34
701.137	3682.59
701.326	3477.79
701.514	3449.12
701.703	3471.65
701.892	3473.7
702.08	3508.51
702.269	3653.92
702.457	3455.26
702.646	3500.32
702.834	3393.83
703.023	3354.91
703.212	3320.1
703.4	3445.02
703.589	3350.82
703.777	3322.15
703.965	3336.48
704.154	3580.19
704.342	3260.71
704.531	3393.83
704.719	3275.04
704.907	3346.72
705.096	3162.41
705.284	3297.57
705.472	3203.36
705.661	3408.16
705.849	3203.36
706.037	3348.77
706.226	3146.02
706.414	3309.86
706.602	3375.39
706.79	3115.3
706.979	3236.13
707.167	3252.52
707.355	3207.46
707.543	3111.21
707.731	3182.88
707.919	3197.22
708.107	3121.45
708.296	3264.8
708.484	3254.56
708.672	3125.54
708.86	3096.87
709.048	3100.97
709.236	3168.55
709.424	3121.45
709.612	3289.38
709.8	3105.06
709.988	3176.74
710.176	3189.03
710.364	3219.75
710.551	3137.83
710.739	3096.87
710.927	3125.54
711.115	3146.02
711.303	3115.3
711.491	3033.38
711.679	3010.86
711.866	3066.15
712.054	3051.81
712.242	2949.42
712.43	2988.33
712.617	2922.79
712.805	2982.18
712.993	3082.53
713.181	2957.61
713.368	3049.77
713.556	3070.25
713.744	2935.08
713.931	3002.66
714.119	3025.19
714.306	3039.53
714.494	2859.31
714.682	2875.69
714.869	2883.88
715.057	2953.51
715.244	2982.18
715.432	2959.66
715.619	2926.89
715.807	2838.83
715.994	2912.55
716.182	3000.62
716.369	2941.22
716.556	2920.74
716.744	2871.59
716.931	2822.44
717.119	2967.85
717.306	2953.51
717.493	2822.44
717.681	2875.69
717.868	2754.86
718.055	2763.05
718.242	2816.3
718.43	2984.23
718.617	2885.93
718.804	2908.46
718.991	2857.26
719.179	2859.31
719.366	2875.69
719.553	2918.7
719.74	2771.24
719.927	2894.12
720.114	2785.58
720.301	2664.75
720.488	2756.91
720.676	2756.91
720.863	2744.62
721.05	2793.77
721.237	2685.23
721.424	2752.81
721.611	2834.73
721.798	2718
721.985	2683.18
722.172	2711.85
722.358	2742.57
722.545	2687.28
722.732	2621.74
722.919	2705.71
723.106	2615.6
723.293	2599.21
723.48	2588.97
723.667	2679.08
723.853	2771.24
724.04	2619.69
724.227	2738.48
724.414	2722.09
724.6	2621.74
724.787	2681.13
724.974	2629.93
725.161	2490.67
725.347	2566.45
725.534	2674.99
725.72	2691.37
725.907	2625.84
726.094	2697.52
726.28	2623.79
726.467	2656.56
726.653	2597.17
726.84	2593.07
727.027	2715.95
727.213	2558.25
727.4	2531.63
727.586	2576.69
727.773	2564.4
727.959	2574.64
728.145	2482.48
728.332	2574.64
728.518	2459.95
728.705	2615.6
728.891	2505.01
729.077	2539.82
729.264	2470.19
729.45	2466.1
729.636	2597.17
729.823	2511.15
730.009	2609.45
730.195	2548.01
730.382	2619.69
730.568	2453.81
730.754	2484.53
730.94	2580.78
731.126	2525.49
731.313	2470.19
731.499	2433.33
731.685	2523.44
731.871	2646.32
732.057	2521.39
732.243	2570.54
732.429	2453.81
732.615	2511.15
732.801	2490.67
732.987	2330.93
733.173	2435.38
733.359	2531.63
733.545	2408.75
733.731	2339.12
733.917	2394.42
734.103	2531.63
734.289	2556.21
734.475	2459.95
734.661	2390.32
734.847	2451.76
735.033	2433.33
735.219	2384.18
735.404	2441.52
735.59	2335.03
735.776	2396.46
735.962	2341.17
736.148	2359.6
736.333	2347.31
736.519	2441.52
736.705	2453.81
736.89	2277.68
737.076	2369.84
737.262	2294.07
737.447	2378.03
737.633	2326.83
737.819	2345.27
738.004	2234.68
738.19	2337.07
738.375	2337.07
738.561	2281.78
738.747	2242.87
738.932	2124.08
739.118	2361.65
739.303	2255.15
739.489	2330.93
739.674	2328.88
739.859	2224.44
740.045	2361.65
740.23	2296.11
740.416	2101.56
740.601	2163
740.786	2206
740.972	2156.85
741.157	2140.47
741.342	2242.87
741.528	2187.57
741.713	2179.38
741.898	2132.28
742.084	2220.34
742.269	2154.8
742.454	2154.8
742.639	2193.72
742.824	2150.71
743.01	2060.6
743.195	2171.19
743.38	2097.46
743.565	2070.84
743.75	2132.28
743.935	2052.41
744.12	2091.32
744.305	2085.17
744.49	2132.28
744.675	1982.78
744.86	2048.31
745.045	1947.96
745.23	2011.45
745.415	1999.16
745.6	2011.45
745.785	1866.04
745.97	2115.89
746.155	1868.09
746.34	1904.95
746.525	1884.47
746.71	1972.54
746.895	1857.85
747.079	1878.33
747.264	1829.18
747.449	1915.19
747.634	2031.93
747.819	1825.08
748.003	1835.32
748.188	1812.79
748.373	1851.71
748.557	1788.22
748.742	1892.66
748.927	1761.59
749.111	1843.51
749.296	1724.73
749.481	1827.13
749.665	1763.64
749.85	1689.92
750.034	1765.69
750.219	1829.18
750.404	1743.16
750.588	1661.24
750.773	1716.54
750.957	1646.91
751.141	1765.69
751.326	1667.39
751.51	1610.04
751.695	1622.33
751.879	1651
752.064	1601.85
752.248	1562.94
752.432	1624.38
752.617	1534.27
752.801	1620.28
752.985	1575.23
753.17	1472.83
753.354	1431.87
753.538	1474.88
753.722	1435.97
753.907	1481.02
754.091	1476.93
754.275	1564.99
754.459	1382.72
754.643	1444.16
754.828	1317.19
755.012	1376.58
755.196	1343.81
755.38	1247.55
755.564	1380.67
755.748	1368.38
755.932	1397.06
756.116	1358.14
756.3	1352
756.484	1337.66
756.668	1392.96
756.852	1280.32
757.036	1343.81
757.22	1382.72
757.404	1360.19
757.588	1278.27
757.772	1274.18
757.956	1308.99
758.14	1241.41
758.323	1284.42
758.507	1227.07
758.691	1200.45
758.875	1243.46
759.059	1202.5
759.242	1130.82
759.426	1261.89
759.61	1165.64
759.794	1204.55
759.977	1163.59
760.161	1352
760.345	1200.45
760.528	1190.21
760.712	1143.11
760.895	1141.06
761.079	1161.54
761.263	1104.2
761.446	971.08
761.63	1114.44
761.813	1163.59
761.997	1069.38
762.18	1040.71
762.364	1106.24
762.547	1112.39
762.731	1085.76
762.914	1089.86
763.098	966.98
763.281	1096
763.464	960.84
763.648	1065.29
763.831	991.56
764.015	1003.85
764.198	1028.42
764.381	999.75
764.564	1028.42
764.748	1083.72
764.931	1009.99
765.114	1020.23
765.297	954.69
765.481	979.27
765.664	934.22
765.847	1028.42
766.03	1071.43
766.213	1065.29
766.397	977.22
766.58	942.41
766.763	864.58
766.946	917.83
767.129	893.26
767.312	932.17
767.495	966.98
767.678	938.31
767.861	975.17
768.044	915.78
768.227	905.54
768.41	964.93
768.593	942.41
768.776	991.56
768.959	862.54
769.142	1005.89
769.324	844.1
769.507	954.69
769.69	844.1
769.873	862.54
770.056	962.89
770.239	903.5
770.421	876.87
770.604	913.74
770.787	862.54
770.97	799.05
771.152	878.92
771.335	870.73
771.518	829.77
771.7	917.83
771.883	844.1
772.066	803.15
772.248	831.82
772.431	852.3
772.613	823.62
772.796	756.04
772.978	823.62
773.161	758.09
773.343	772.43
773.526	846.15
773.708	745.8
773.891	739.66
774.073	667.98
774.256	774.47
774.438	782.67
774.621	735.56
774.803	747.85
774.985	731.47
775.168	706.89
775.35	696.65
775.532	786.76
775.715	733.51
775.897	655.69
776.079	686.41
776.261	684.36
776.444	674.12
776.626	684.36
776.808	688.46
776.99	706.89
777.173	704.84
777.355	657.74
777.537	749.9
777.719	674.12
777.901	663.88
778.083	706.89
778.265	708.94
778.447	680.27
778.629	629.07
778.811	622.92
778.993	602.44
779.175	635.21
779.357	667.98
779.539	606.54
779.721	659.79
779.903	596.3
780.085	561.48
780.267	639.31
780.449	579.92
780.631	573.77
780.812	647.5
780.994	549.2
781.176	665.93
781.358	553.29
781.54	538.96
781.721	495.95
781.903	586.06
782.085	610.64
782.267	618.83
782.448	491.85
782.63	528.72
782.812	534.86
782.993	553.29
783.175	532.81
783.357	549.2
783.538	526.67
783.72	430.41
783.901	516.43
784.083	559.44
784.264	541.01
784.446	454.99
784.627	459.09
784.809	436.56
784.99	414.03
785.172	565.58
785.353	522.57
785.535	411.98
785.716	442.7
785.897	407.89
786.079	459.09
786.26	444.75
786.441	483.66
786.623	379.22
786.804	420.17
786.985	434.51
787.167	487.76
787.348	444.75
787.529	436.56
787.71	469.33
787.891	446.8
788.073	403.79
788.254	385.36
788.435	487.76
788.616	500.05
788.797	424.27
788.978	395.6
789.159	385.36
789.34	397.65
789.522	393.55
789.703	336.21
789.884	321.87
790.065	422.22
790.246	291.15
790.427	459.09
790.607	385.36
790.788	418.13
790.969	344.4
791.15	393.55
791.331	346.45
791.512	393.55
791.693	291.15
791.874	352.59
792.054	393.55
792.235	414.03
792.416	256.34
792.597	336.21
792.778	377.17
792.958	344.4
793.139	395.6
793.32	282.96
793.5	338.26
793.681	352.59
793.862	330.06
794.042	287.06
794.223	268.63
794.404	321.87
794.584	315.73
794.765	266.58
794.945	332.11
795.126	254.29
795.306	287.06
795.487	325.97
795.667	278.87
795.848	289.1
796.028	346.45
796.209	313.68
796.389	311.63
796.57	368.98
796.75	239.95
796.93	229.71
797.111	311.63
797.291	229.71
797.471	276.82
797.652	250.19
797.832	237.91
798.012	287.06
798.192	313.68
798.373	264.53
798.553	254.29
798.733	291.15
798.913	276.82
799.093	223.57
799.274	338.26
799.454	344.4
799.634	311.63
799.814	242
799.994	262.48
800.174	282.96
800.354	291.15
800.534	184.66
800.714	287.06
800.894	217.43
801.074	174.42
801.254	237.91
801.434	295.25
801.614	213.33
801.794	184.66
801.974	790.86
802.154	213.33
802.334	287.06
802.514	194.9
802.693	266.58
802.873	262.48
803.053	252.24
803.233	217.43
803.413	190.8
803.592	217.43
803.772	205.14
803.952	233.81
804.131	123.22
804.311	276.82
804.491	272.72
804.67	213.33
804.85	196.95
805.03	242
805.209	237.91
805.389	217.43
805.568	188.75
805.748	221.52
805.928	278.87
806.107	258.39
806.287	239.95
806.466	176.47
806.646	198.99
806.825	235.86
807.004	182.61
807.184	336.21
807.363	252.24
807.543	211.28
807.722	223.57
807.901	231.76
808.081	250.19
808.26	104.79
808.439	176.47
808.619	248.15
808.798	289.1
808.977	213.33
809.156	182.61
809.336	158.03
809.515	229.71
809.694	110.93
809.873	160.08
810.052	172.37
810.231	248.15
810.411	196.95
810.59	237.91
810.769	108.88
810.948	205.14
811.127	84.31
811.306	184.66
811.485	147.8
811.664	172.37
811.843	182.61
812.022	209.23
812.201	106.84
812.38	115.03
812.559	94.55
812.737	266.58
812.916	104.79
813.095	166.23
813.274	104.79
813.453	225.62
813.632	151.89
813.811	186.71
813.989	158.03
814.168	242
814.347	168.27
814.526	225.62
814.704	162.13
814.883	180.56
815.062	115.03
815.24	149.84
815.419	205.14
815.598	139.6
815.776	147.8
815.955	172.37
816.133	121.17
816.312	139.6
816.49	106.84
816.669	117.08
816.847	143.7
817.026	82.26
817.204	69.97
817.383	172.37
817.561	82.26
817.74	166.23
817.918	129.36
818.097	143.7
818.275	82.26
818.453	82.26
818.632	178.51
818.81	149.84
818.988	123.22
819.167	74.07
819.345	86.36
819.523	158.03
819.701	131.41
819.879	153.94
820.058	194.9
820.236	139.6
820.414	141.65
820.592	180.56
820.77	166.23
820.948	100.69
821.127	59.73
821.305	174.42
821.483	131.41
821.661	76.12
821.839	67.92
822.017	131.41
822.195	190.8
822.373	94.55
822.551	110.93
822.729	172.37
822.907	123.22
823.085	155.99
823.262	127.32
823.44	98.64
823.618	133.46
823.796	139.6
823.974	72.02
824.152	139.6
824.329	104.79
824.507	125.27
824.685	180.56
824.863	131.41
825.04	133.46
825.218	182.61
825.396	90.45
825.574	149.84
825.751	123.22
825.929	158.03
826.107	110.93
826.284	43.35
826.462	86.36
826.639	147.8
826.817	123.22
826.994	37.2
827.172	82.26
827.349	147.8
827.527	119.12
827.704	35.16
827.882	127.32
828.059	72.02
828.237	98.64
828.414	98.64
828.591	123.22
828.769	164.18
828.946	108.88
829.124	82.26
829.301	92.5
829.478	92.5
829.655	82.26
829.833	123.22
830.01	33.11
830.187	158.03
830.364	63.83
830.542	80.21
830.719	155.99
830.896	84.31
831.073	-3.75
831.25	108.88
831.427	67.92
831.604	123.22
831.782	82.26
831.959	119.12
832.136	31.06
832.313	104.79
832.49	164.18
832.667	41.3
832.844	86.36
833.021	110.93
833.198	41.3
833.374	149.84
833.551	131.41
833.728	125.27
833.905	76.12
834.082	94.55
834.259	35.16
834.436	49.49
834.612	-7.85
834.789	78.16
834.966	-16.04
835.143	104.79
835.319	49.49
835.496	123.22
835.673	16.73
835.85	90.45
836.026	41.3
836.203	59.73
836.38	61.78
836.556	78.16
836.733	151.89
836.909	86.36
837.086	61.78
837.262	112.98
837.439	53.59
837.616	33.11
837.792	90.45
837.968	119.12
838.145	16.73
838.321	82.26
838.498	80.21
838.674	74.07
838.851	76.12
839.027	102.74
839.203	26.96
839.38	67.92
839.556	22.87
839.732	98.64
839.909	115.03
840.085	57.68
840.261	18.77
840.437	45.4
840.614	88.4
840.79	155.99
840.966	96.6
841.142	2.39
841.318	24.92
841.494	39.25
841.671	65.88
841.847	12.63
842.023	4.44
842.199	139.6
842.375	72.02
842.551	-3.75
842.727	-5.8
842.903	143.7
843.079	72.02
843.255	121.17
843.431	31.06
843.607	84.31
843.783	12.63
843.959	43.35
844.134	43.35
844.31	147.8
844.486	123.22
844.662	57.68
844.838	88.4
845.013	127.32
845.189	45.4
845.365	49.49
845.541	-24.23
845.716	33.11
845.892	106.84
846.068	51.54
846.244	43.35
846.419	-20.14
846.595	29.01
846.77	82.26
846.946	94.55
847.122	14.68
847.297	65.88
847.473	8.53
847.648	-54.95
847.824	-57
847.999	45.4
848.175	33.11
848.35	123.22
848.526	76.12
848.701	24.92
848.876	98.64
849.052	61.78
849.227	51.54
849.403	90.45
849.578	24.92
849.753	69.97
849.929	-5.8
850.104	24.92
850.279	-38.57
850.454	100.69
850.63	53.59
850.805	-3.75
850.98	49.49
851.155	78.16
851.33	49.49
851.505	-13.99
851.681	141.65
851.856	-13.99
852.031	76.12
852.206	82.26
852.381	49.49
852.556	51.54
852.731	61.78
852.906	53.59
853.081	80.21
853.256	49.49
853.431	65.88
853.606	12.63
853.781	67.92
853.956	-36.52
854.131	86.36
854.305	-106.15
854.48	78.16
854.655	2.39
854.83	-11.95
855.005	37.2
855.18	49.49
855.354	47.44
855.529	43.35
855.704	125.27
855.879	41.3
856.053	-46.76
856.228	12.63
856.403	41.3
856.577	49.49
856.752	-5.8
856.926	82.26
857.101	65.88
857.276	98.64
857.45	35.16
857.625	35.16
857.799	53.59
857.974	29.01
858.148	12.63
858.323	61.78
858.497	69.97
858.672	49.49
858.846	49.49
859.02	76.12
859.195	51.54
859.369	24.92
859.543	63.83
859.718	-24.23
859.892	37.2
860.066	102.74
860.241	69.97
860.415	59.73
860.589	49.49
860.763	43.35
860.938	86.36
861.112	90.45
861.286	61.78
861.46	131.41
861.634	8.53
861.808	49.49
861.982	47.44
862.157	18.77
862.331	4.44
862.505	41.3
862.679	-79.53
862.853	24.92
863.027	-46.76
863.201	131.41
863.375	24.92
863.549	51.54
863.722	24.92
863.896	78.16
864.07	4.44
864.244	59.73
864.418	53.59
864.592	16.73
864.766	-16.04
864.939	12.63
865.113	74.07
865.287	-32.43
865.461	57.68
865.634	16.73
865.808	41.3
865.982	-36.52
866.156	35.16
866.329	33.11
866.503	43.35
866.676	90.45
866.85	-24.23
867.024	-11.95
867.197	20.82
867.371	43.35
867.544	72.02
867.718	31.06
867.891	78.16
868.065	10.58
868.238	63.83
868.412	82.26
868.585	-16.04
868.759	-32.43
868.932	29.01
869.105	2.39
869.279	59.73
869.452	35.16
869.625	29.01
869.799	41.3
869.972	2.39
870.145	39.25
870.319	53.59
870.492	-22.19
870.665	18.77
870.838	0.34
871.011	-32.43
871.185	57.68
871.358	-22.19
871.531	53.59
871.704	20.82
871.877	41.3
872.05	35.16
872.223	86.36
872.396	-5.8
872.569	49.49
872.742	-7.85
872.915	69.97
873.088	57.68
873.261	-32.43
873.434	59.73
873.607	24.92
873.78	-7.85
873.953	26.96
874.126	33.11
874.299	49.49
874.471	47.44
874.644	125.27
874.817	16.73
874.99	143.7
875.163	29.01
875.335	24.92
875.508	-79.53
875.681	41.3
875.853	0.34
876.026	12.63
876.199	76.12
876.371	26.96
876.544	-5.8
876.717	49.49
876.889	22.87
877.062	18.77
877.234	4.44
877.407	43.35
877.579	59.73
877.752	-3.75
877.924	18.77
878.097	65.88
878.269	29.01
878.442	31.06
878.614	16.73
878.786	35.16
878.959	8.53
879.131	16.73
879.303	-83.63
879.476	98.64
879.648	26.96
879.82	53.59
879.993	20.82
880.165	8.53
880.337	18.77
880.509	29.01
880.681	-5.8
880.854	-7.85
881.026	98.64
881.198	41.3
881.37	-11.95
881.542	26.96
881.714	0.34
881.886	-3.75
882.058	-24.23
882.23	12.63
882.402	0.34
882.574	61.78
882.746	45.4
882.918	41.3
883.09	8.53
883.262	-18.09
883.434	90.45
883.606	-30.38
883.778	-7.85
883.95	96.6
884.122	49.49
884.293	-3.75
884.465	-5.8
884.637	-5.8
884.809	20.82
884.98	76.12
885.152	-1.71
885.324	16.73
885.496	-24.23
885.667	12.63
885.839	33.11
886.011	41.3
886.182	57.68
886.354	20.82
886.525	-13.99
886.697	41.3
886.869	8.53
887.04	2.39
887.212	20.82
887.383	117.08
887.555	49.49
887.726	-16.04
887.897	39.25
888.069	69.97
888.24	8.53
888.412	12.63
888.583	24.92
888.754	6.49
888.926	4.44
889.097	-36.52
889.268	12.63
889.44	-3.75
889.611	-11.95
889.782	22.87
889.953	-20.14
890.125	16.73
890.296	-28.33
890.467	49.49
890.638	-16.04
890.809	41.3
890.98	-71.34
891.151	16.73
891.323	-18.09
891.494	65.88
891.665	74.07
891.836	53.59
892.007	-7.85
892.178	49.49
892.349	35.16
892.52	-40.62
892.691	41.3
892.862	-3.75
893.032	10.58
893.203	16.73
893.374	61.78
893.545	67.92
893.716	8.53
893.887	41.3
894.057	49.49
894.228	10.58
894.399	20.82
894.57	-9.9
894.74	45.4
894.911	29.01
895.082	-1.71
895.253	4.44
895.423	10.58
895.594	-3.75
895.764	-16.04
895.935	16.73
896.106	76.12
896.276	41.3
896.447	49.49
896.617	98.64
896.788	4.44
896.958	-16.04
897.129	-7.85
897.299	33.11
897.47	-7.85
897.64	16.73
897.81	53.59
897.981	74.07
898.151	-18.09
898.322	57.68
898.492	74.07
898.662	8.53
898.832	76.12
899.003	-30.38
899.173	22.87
899.343	-7.85
899.513	-16.04
