Data from USB4F104151__227__14-21-39-042.txt Node

Date: Thu Mar 13 14:21:39 EDT 2025
User: louis
Spectrometer: USB4F10415
Trigger mode: 4
Integration Time (sec): 2.000000E-2
Scans to average: 1
Electric dark correction enabled: true
Nonlinearity correction enabled: false
Boxcar width: 0
XAxis mode: Wavelengths
Number of Pixels in Spectrum: 3648
>>>>>Begin Spectral Data<<<<<
178.204	-156.16
178.424	-156.16
178.644	-156.16
178.864	-123.39
179.084	-84.48
179.304	3.58
179.524	-25.09
179.744	24.06
179.964	15.87
180.184	17.92
180.404	9.73
180.624	-31.23
180.844	1.54
181.064	-8.7
181.283	32.26
181.503	-41.47
181.723	1.54
181.943	-16.9
182.163	-0.51
182.383	-8.7
182.602	24.06
182.822	17.92
183.042	42.5
183.262	19.97
183.482	24.06
183.701	11.78
183.921	58.88
184.141	44.54
184.361	34.3
184.58	-0.51
184.8	58.88
185.02	40.45
185.239	32.26
185.459	28.16
185.679	42.5
185.898	-96.77
186.118	60.93
186.338	-41.47
186.557	103.93
186.777	15.87
186.997	36.35
187.216	-25.09
187.436	26.11
187.655	73.21
187.875	44.54
188.095	-37.38
188.314	75.26
188.534	124.41
188.753	52.74
188.973	28.16
189.192	81.41
189.412	48.64
189.631	28.16
189.851	11.78
190.07	-8.7
190.29	7.68
190.509	91.65
190.729	-45.57
190.948	108.03
191.168	136.7
191.387	38.4
191.607	32.26
191.826	30.21
192.045	38.4
192.265	17.92
192.484	-4.61
192.704	-23.04
192.923	-41.47
193.142	60.93
193.362	-14.85
193.581	34.3
193.8	1.54
194.02	112.13
194.239	79.36
194.458	9.73
194.678	69.12
194.897	24.06
195.116	-16.9
195.335	89.6
195.555	50.69
195.774	26.11
195.993	-55.81
196.212	67.07
196.432	17.92
196.651	77.31
196.87	7.68
197.089	1.54
197.308	58.88
197.528	50.69
197.747	97.79
197.966	17.92
198.185	48.64
198.404	32.26
198.623	22.02
198.842	89.6
199.062	62.98
199.281	15.87
199.5	24.06
199.719	-6.66
199.938	52.74
200.157	101.89
200.376	85.5
200.595	130.56
200.814	15.87
201.033	-0.51
201.252	73.21
201.471	179.71
201.69	22.02
201.909	19.97
202.128	65.02
202.347	97.79
202.566	77.31
202.785	-18.94
203.004	-49.66
203.223	77.31
203.442	1.54
203.661	-4.61
203.879	-10.75
204.098	34.3
204.317	50.69
204.536	58.88
204.755	42.5
204.974	3.58
205.193	52.74
205.411	99.84
205.63	114.17
205.849	83.45
206.068	-8.7
206.287	30.21
206.505	19.97
206.724	-33.28
206.943	7.68
207.162	-23.04
207.381	1.54
207.599	15.87
207.818	146.94
208.037	-14.85
208.255	3.58
208.474	32.26
208.693	17.92
208.911	-14.85
209.13	81.41
209.349	15.87
209.567	85.5
209.786	19.97
210.005	60.93
210.223	-8.7
210.442	-6.66
210.661	60.93
210.879	19.97
211.098	-4.61
211.316	69.12
211.535	15.87
211.753	7.68
211.972	-8.7
212.191	3.58
212.409	65.02
212.628	11.78
212.846	-45.57
213.065	110.08
213.283	87.55
213.502	56.83
213.72	40.45
213.938	73.21
214.157	-8.7
214.375	50.69
214.594	-0.51
214.812	58.88
215.031	101.89
215.249	24.06
215.467	-0.51
215.686	-25.09
215.904	56.83
216.122	40.45
216.341	-16.9
216.559	56.83
216.778	-0.51
216.996	83.45
217.214	50.69
217.432	52.74
217.651	-55.81
217.869	-92.67
218.087	48.64
218.306	1.54
218.524	58.88
218.742	15.87
218.96	77.31
219.179	52.74
219.397	34.3
219.615	75.26
219.833	36.35
220.051	38.4
220.27	-35.33
220.488	62.98
220.706	54.78
220.924	15.87
221.142	-2.56
221.36	-18.94
221.578	-2.56
221.796	48.64
222.015	30.21
222.233	-4.61
222.451	67.07
222.669	34.3
222.887	-14.85
223.105	38.4
223.323	44.54
223.541	75.26
223.759	3.58
223.977	28.16
224.195	42.5
224.413	1.54
224.631	44.54
224.849	77.31
225.067	97.79
225.285	-25.09
225.503	56.83
225.721	-27.14
225.939	75.26
226.157	48.64
226.375	60.93
226.592	-4.61
226.81	36.35
227.028	48.64
227.246	99.84
227.464	3.58
227.682	77.31
227.9	75.26
228.117	48.64
228.335	89.6
228.553	26.11
228.771	7.68
228.989	56.83
229.206	40.45
229.424	24.06
229.642	28.16
229.86	89.6
230.077	26.11
230.295	-16.9
230.513	89.6
230.731	65.02
230.948	5.63
231.166	62.98
231.384	-12.8
231.601	1.54
231.819	40.45
232.037	-39.42
232.254	-23.04
232.472	-33.28
232.689	7.68
232.907	163.33
233.125	-55.81
233.342	11.78
233.56	26.11
233.777	56.83
233.995	48.64
234.213	32.26
234.43	114.17
234.648	65.02
234.865	46.59
235.083	65.02
235.3	26.11
235.518	65.02
235.735	40.45
235.953	40.45
236.17	24.06
236.388	105.98
236.605	-8.7
236.822	17.92
237.04	-6.66
237.257	77.31
237.475	1.54
237.692	26.11
237.909	42.5
238.127	15.87
238.344	19.97
238.562	79.36
238.779	7.68
238.996	-2.56
239.214	1.54
239.431	73.21
239.648	28.16
239.865	-23.04
240.083	67.07
240.3	3.58
240.517	-16.9
240.735	44.54
240.952	50.69
241.169	50.69
241.386	24.06
241.603	-2.56
241.821	-31.23
242.038	60.93
242.255	85.5
242.472	7.68
242.689	46.59
242.907	24.06
243.124	-8.7
243.341	32.26
243.558	28.16
243.775	19.97
243.992	-8.7
244.209	-8.7
244.426	77.31
244.643	67.07
244.86	-31.23
245.078	32.26
245.295	-12.8
245.512	65.02
245.729	52.74
245.946	-6.66
246.163	40.45
246.38	36.35
246.597	52.74
246.814	-20.99
247.031	13.82
247.248	-0.51
247.464	26.11
247.681	17.92
247.898	65.02
248.115	19.97
248.332	85.5
248.549	42.5
248.766	-8.7
248.983	-12.8
249.2	-10.75
249.417	89.6
249.633	24.06
249.85	83.45
250.067	3.58
250.284	24.06
250.501	40.45
250.717	81.41
250.934	32.26
251.151	-29.18
251.368	-16.9
251.585	108.03
251.801	15.87
252.018	40.45
252.235	22.02
252.451	19.97
252.668	19.97
252.885	69.12
253.102	24.06
253.318	1.54
253.535	44.54
253.752	-8.7
253.968	58.88
254.185	11.78
254.401	-41.47
254.618	17.92
254.835	56.83
255.051	73.21
255.268	42.5
255.484	122.37
255.701	-25.09
255.917	42.5
256.134	-68.09
256.351	32.26
256.567	-0.51
256.784	34.3
257	32.26
257.217	58.88
257.433	60.93
257.65	11.78
257.866	144.89
258.082	58.88
258.299	-23.04
258.515	9.73
258.732	67.07
258.948	-41.47
259.165	-16.9
259.381	-8.7
259.597	-20.99
259.814	32.26
260.03	19.97
260.246	60.93
260.463	-20.99
260.679	91.65
260.895	-16.9
261.112	28.16
261.328	15.87
261.544	-37.38
261.761	116.22
261.977	-25.09
262.193	-2.56
262.409	32.26
262.626	-0.51
262.842	69.12
263.058	-57.86
263.274	46.59
263.49	42.5
263.707	1.54
263.923	-6.66
264.139	-61.95
264.355	-25.09
264.571	112.13
264.787	-0.51
265.004	67.07
265.22	32.26
265.436	-59.9
265.652	7.68
265.868	77.31
266.084	-0.51
266.3	110.08
266.516	-8.7
266.732	50.69
266.948	15.87
267.164	9.73
267.38	138.75
267.596	19.97
267.812	36.35
268.028	85.5
268.244	-8.7
268.46	19.97
268.676	101.89
268.892	32.26
269.108	-4.61
269.324	32.26
269.54	-14.85
269.756	56.83
269.972	40.45
270.188	32.26
270.403	-29.18
270.619	-25.09
270.835	50.69
271.051	116.22
271.267	1.54
271.483	42.5
271.698	13.82
271.914	42.5
272.13	-41.47
272.346	-43.52
272.562	-12.8
272.777	89.6
272.993	3.58
273.209	50.69
273.425	-23.04
273.64	-23.04
273.856	11.78
274.072	22.02
274.287	44.54
274.503	50.69
274.719	15.87
274.934	3.58
275.15	-47.62
275.366	93.69
275.581	1.54
275.797	42.5
276.012	87.55
276.228	67.07
276.444	-41.47
276.659	30.21
276.875	-25.09
277.09	69.12
277.306	13.82
277.521	91.65
277.737	13.82
277.952	89.6
278.168	81.41
278.383	-14.85
278.599	54.78
278.814	77.31
279.03	-16.9
279.245	97.79
279.461	-45.57
279.676	89.6
279.892	19.97
280.107	3.58
280.322	81.41
280.538	95.74
280.753	5.63
280.969	32.26
281.184	-14.85
281.399	46.59
281.615	15.87
281.83	-23.04
282.045	9.73
282.26	-10.75
282.476	-18.94
282.691	48.64
282.906	-57.86
283.122	48.64
283.337	40.45
283.552	97.79
283.767	32.26
283.983	120.32
284.198	48.64
284.413	58.88
284.628	17.92
284.843	46.59
285.058	28.16
285.274	46.59
285.489	-0.51
285.704	1.54
285.919	77.31
286.134	48.64
286.349	26.11
286.564	26.11
286.779	116.22
286.995	32.26
287.21	-35.33
287.425	93.69
287.64	-8.7
287.855	-0.51
288.07	58.88
288.285	30.21
288.5	83.45
288.715	81.41
288.93	48.64
289.145	77.31
289.36	32.26
289.575	19.97
289.79	89.6
290.004	-39.42
290.219	-4.61
290.434	17.92
290.649	1.54
290.864	-29.18
291.079	62.98
291.294	15.87
291.509	11.78
291.724	52.74
291.938	42.5
292.153	9.73
292.368	-20.99
292.583	58.88
292.798	22.02
293.012	26.11
293.227	-4.61
293.442	112.13
293.657	48.64
293.871	95.74
294.086	28.16
294.301	34.3
294.516	28.16
294.73	56.83
294.945	3.58
295.16	95.74
295.374	60.93
295.589	48.64
295.804	13.82
296.018	48.64
296.233	-25.09
296.447	83.45
296.662	-90.62
296.877	48.64
297.091	134.65
297.306	40.45
297.52	-41.47
297.735	71.17
297.949	52.74
298.164	122.37
298.378	36.35
298.593	5.63
298.807	-25.09
299.022	65.02
299.236	56.83
299.451	-0.51
299.665	19.97
299.88	81.41
300.094	26.11
300.309	-6.66
300.523	-6.66
300.737	-16.9
300.952	105.98
301.166	-8.7
301.381	32.26
301.595	40.45
301.809	7.68
302.024	44.54
302.238	24.06
302.452	48.64
302.667	26.11
302.881	26.11
303.095	15.87
303.309	42.5
303.524	19.97
303.738	40.45
303.952	1.54
304.166	89.6
304.381	-4.61
304.595	120.32
304.809	58.88
305.023	50.69
305.237	58.88
305.452	-18.94
305.666	34.3
305.88	24.06
306.094	40.45
306.308	3.58
306.522	50.69
306.736	73.21
306.95	3.58
307.164	52.74
307.379	-4.61
307.593	42.5
307.807	93.69
308.021	-27.14
308.235	32.26
308.449	58.88
308.663	-16.9
308.877	11.78
309.091	26.11
309.305	24.06
309.519	46.59
309.733	58.88
309.947	28.16
310.161	65.02
310.374	56.83
310.588	1.54
310.802	19.97
311.016	26.11
311.23	-16.9
311.444	60.93
311.658	52.74
311.872	24.06
312.085	77.31
312.299	17.92
312.513	50.69
312.727	48.64
312.941	15.87
313.154	58.88
313.368	62.98
313.582	40.45
313.796	30.21
314.009	19.97
314.223	58.88
314.437	-8.7
314.651	-2.56
314.864	32.26
315.078	83.45
315.292	-31.23
315.505	83.45
315.719	32.26
315.933	-8.7
316.146	-12.8
316.36	40.45
316.573	26.11
316.787	34.3
317.001	126.46
317.214	-6.66
317.428	71.17
317.641	19.97
317.855	19.97
318.068	50.69
318.282	17.92
318.495	138.75
318.709	40.45
318.922	-4.61
319.136	73.21
319.349	24.06
319.563	73.21
319.776	5.63
319.99	7.68
320.203	19.97
320.417	11.78
320.63	-41.47
320.843	73.21
321.057	-4.61
321.27	-2.56
321.483	-31.23
321.697	65.02
321.91	89.6
322.124	65.02
322.337	13.82
322.55	67.07
322.763	52.74
322.977	15.87
323.19	101.89
323.403	34.3
323.617	67.07
323.83	40.45
324.043	-4.61
324.256	-4.61
324.469	-0.51
324.683	65.02
324.896	65.02
325.109	89.6
325.322	69.12
325.535	54.78
325.748	38.4
325.962	40.45
326.175	9.73
326.388	95.74
326.601	85.5
326.814	73.21
327.027	34.3
327.24	48.64
327.453	-29.18
327.666	24.06
327.879	15.87
328.092	75.26
328.305	-25.09
328.518	50.69
328.731	-33.28
328.944	-25.09
329.157	67.07
329.37	36.35
329.583	24.06
329.796	26.11
330.009	7.68
330.222	73.21
330.435	17.92
330.648	79.36
330.861	-8.7
331.073	73.21
331.286	48.64
331.499	3.58
331.712	-39.42
331.925	28.16
332.138	34.3
332.35	60.93
332.563	-6.66
332.776	99.84
332.989	-16.9
333.202	44.54
333.414	69.12
333.627	46.59
333.84	36.35
334.053	30.21
334.265	1.54
334.478	42.5
334.691	48.64
334.903	-0.51
335.116	32.26
335.329	54.78
335.541	50.69
335.754	28.16
335.966	-4.61
336.179	38.4
336.392	3.58
336.604	-12.8
336.817	87.55
337.029	126.46
337.242	81.41
337.454	28.16
337.667	65.02
337.88	65.02
338.092	15.87
338.305	71.17
338.517	22.02
338.729	110.08
338.942	30.21
339.154	9.73
339.367	32.26
339.579	105.98
339.792	42.5
340.004	58.88
340.217	89.6
340.429	36.35
340.641	1.54
340.854	36.35
341.066	67.07
341.278	60.93
341.491	40.45
341.703	71.17
341.915	34.3
342.128	15.87
342.34	85.5
342.552	-33.28
342.764	75.26
342.977	26.11
343.189	19.97
343.401	83.45
343.613	9.73
343.826	-12.8
344.038	-33.28
344.25	-0.51
344.462	71.17
344.674	99.84
344.886	50.69
345.099	40.45
345.311	24.06
345.523	65.02
345.735	65.02
345.947	42.5
346.159	52.74
346.371	40.45
346.583	36.35
346.795	9.73
347.007	7.68
347.219	42.5
347.431	83.45
347.643	7.68
347.855	99.84
348.067	67.07
348.279	-8.7
348.491	38.4
348.703	50.69
348.915	73.21
349.127	-39.42
349.339	58.88
349.551	24.06
349.763	60.93
349.975	93.69
350.187	19.97
350.399	1.54
350.61	85.5
350.822	52.74
351.034	22.02
351.246	83.45
351.458	75.26
351.669	1.54
351.881	24.06
352.093	13.82
352.305	97.79
352.517	17.92
352.728	116.22
352.94	65.02
353.152	19.97
353.363	-4.61
353.575	48.64
353.787	42.5
353.999	50.69
354.21	77.31
354.422	81.41
354.633	75.26
354.845	56.83
355.057	32.26
355.268	15.87
355.48	81.41
355.692	-59.9
355.903	32.26
356.115	-25.09
356.326	42.5
356.538	52.74
356.749	56.83
356.961	34.3
357.172	56.83
357.384	7.68
357.595	75.26
357.807	46.59
358.018	118.27
358.23	-0.51
358.441	54.78
358.653	32.26
358.864	3.58
359.075	-31.23
359.287	99.84
359.498	99.84
359.709	-20.99
359.921	65.02
360.132	-8.7
360.344	58.88
360.555	89.6
360.766	65.02
360.977	62.98
361.189	108.03
361.4	22.02
361.611	77.31
361.823	52.74
362.034	32.26
362.245	-76.29
362.456	44.54
362.667	81.41
362.879	81.41
363.09	28.16
363.301	60.93
363.512	89.6
363.723	65.02
363.935	132.61
364.146	79.36
364.357	-18.94
364.568	69.12
364.779	65.02
364.99	17.92
365.201	73.21
365.412	122.37
365.623	36.35
365.834	24.06
366.045	22.02
366.256	40.45
366.467	56.83
366.678	42.5
366.889	15.87
367.1	38.4
367.311	17.92
367.522	-8.7
367.733	101.89
367.944	130.56
368.155	-43.52
368.366	77.31
368.577	89.6
368.788	69.12
368.999	103.93
369.209	62.98
369.42	105.98
369.631	65.02
369.842	110.08
370.053	44.54
370.264	42.5
370.474	65.02
370.685	114.17
370.896	60.93
371.107	85.5
371.317	54.78
371.528	36.35
371.739	97.79
371.95	13.82
372.16	28.16
372.371	116.22
372.582	28.16
372.792	97.79
373.003	67.07
373.214	40.45
373.424	-12.8
373.635	24.06
373.846	50.69
374.056	62.98
374.267	52.74
374.477	69.12
374.688	26.11
374.898	34.3
375.109	48.64
375.319	97.79
375.53	93.69
375.74	95.74
375.951	-12.8
376.161	120.32
376.372	40.45
376.582	-20.99
376.793	9.73
377.003	-6.66
377.214	34.3
377.424	114.17
377.635	89.6
377.845	24.06
378.055	108.03
378.266	-41.47
378.476	67.07
378.686	89.6
378.897	81.41
379.107	105.98
379.317	62.98
379.528	42.5
379.738	58.88
379.948	-53.76
380.158	114.17
380.369	58.88
380.579	146.94
380.789	11.78
380.999	67.07
381.21	19.97
381.42	87.55
381.63	19.97
381.84	81.41
382.05	73.21
382.261	99.84
382.471	24.06
382.681	7.68
382.891	67.07
383.101	22.02
383.311	3.58
383.521	40.45
383.731	28.16
383.941	126.46
384.151	148.99
384.361	77.31
384.571	50.69
384.781	91.65
384.991	85.5
385.201	112.13
385.411	122.37
385.621	11.78
385.831	-18.94
386.041	97.79
386.251	69.12
386.461	32.26
386.671	28.16
386.881	-12.8
387.091	99.84
387.301	40.45
387.511	1.54
387.72	56.83
387.93	75.26
388.14	56.83
388.35	91.65
388.56	48.64
388.769	22.02
388.979	163.33
389.189	75.26
389.399	95.74
389.609	85.5
389.818	56.83
390.028	118.27
390.238	122.37
390.447	122.37
390.657	30.21
390.867	65.02
391.076	60.93
391.286	77.31
391.496	-12.8
391.705	73.21
391.915	73.21
392.125	62.98
392.334	56.83
392.544	105.98
392.753	15.87
392.963	42.5
393.172	60.93
393.382	99.84
393.591	108.03
393.801	42.5
394.01	126.46
394.22	79.36
394.429	60.93
394.639	52.74
394.848	155.13
395.058	67.07
395.267	97.79
395.477	58.88
395.686	118.27
395.895	116.22
396.105	163.33
396.314	48.64
396.524	97.79
396.733	32.26
396.942	73.21
397.152	148.99
397.361	155.13
397.57	38.4
397.78	95.74
397.989	65.02
398.198	118.27
398.407	105.98
398.617	116.22
398.826	101.89
399.035	85.5
399.244	85.5
399.453	181.76
399.663	83.45
399.872	163.33
400.081	-35.33
400.29	148.99
400.499	97.79
400.708	89.6
400.917	91.65
401.127	118.27
401.336	32.26
401.545	134.65
401.754	163.33
401.963	163.33
402.172	89.6
402.381	132.61
402.59	112.13
402.799	132.61
403.008	116.22
403.217	128.51
403.426	85.5
403.635	97.79
403.844	77.31
404.053	173.57
404.262	81.41
404.471	124.41
404.68	157.18
404.888	204.28
405.097	167.42
405.306	108.03
405.515	185.85
405.724	89.6
405.933	177.66
406.142	138.75
406.35	165.37
406.559	151.04
406.768	220.67
406.977	187.9
407.185	228.86
407.394	241.15
407.603	167.42
407.812	189.95
408.02	183.81
408.229	179.71
408.438	251.39
408.646	130.56
408.855	194.05
409.064	278.01
409.272	253.44
409.481	216.57
409.69	208.38
409.898	298.49
410.107	323.07
410.315	366.07
410.524	288.25
410.733	333.31
410.941	282.11
411.15	384.51
411.358	273.92
411.567	388.6
411.775	331.26
411.984	323.07
412.192	409.08
412.401	359.93
412.609	345.59
412.818	447.99
413.026	441.85
413.234	488.95
413.443	468.47
413.651	472.57
413.86	523.77
414.068	597.49
414.276	564.73
414.485	564.73
414.693	646.65
414.901	603.64
415.11	675.32
415.318	577.02
415.526	650.74
415.734	679.41
415.943	665.08
416.151	712.18
416.359	765.43
416.567	703.99
416.776	814.58
416.984	830.96
417.192	900.59
417.4	941.55
417.608	804.34
417.817	933.36
418.025	1011.18
418.233	1134.06
418.441	953.84
418.649	1068.53
418.857	1086.96
419.065	1197.55
419.273	1105.39
419.481	1179.12
419.689	1326.57
419.897	1342.96
420.105	1396.2
420.313	1369.58
420.521	1478.12
420.729	1408.49
420.937	1539.56
421.145	1443.31
421.353	1611.24
421.561	1703.4
421.769	1727.97
421.977	1842.66
422.185	1666.53
422.393	1990.11
422.601	1959.39
422.809	1969.63
423.017	2004.45
423.224	2137.57
423.432	2215.39
423.64	2215.39
423.848	2463.19
424.056	2424.28
424.263	2516.44
424.471	2508.25
424.679	2520.54
424.887	2633.18
425.094	2760.15
425.302	2694.61
425.51	2825.68
425.718	2891.22
425.925	2940.37
426.133	3194.32
426.341	3370.44
426.548	3515.85
426.756	3382.73
426.964	3481.03
427.171	3587.53
427.379	3745.22
427.586	3857.86
427.794	4015.55
428.001	4083.14
428.209	4361.66
428.417	4244.93
428.624	4484.54
428.832	4570.55
429.039	4400.57
429.247	4429.24
429.454	4939.19
429.662	5221.81
429.869	4873.65
430.076	5088.69
430.284	5096.88
430.491	5283.25
430.699	5610.92
430.906	5490.09
431.114	5602.73
431.321	5940.65
431.528	6071.72
431.736	6389.15
431.943	6790.55
432.15	6362.53
432.358	6544.8
432.565	6882.71
432.772	6858.14
432.979	7275.92
433.187	7314.83
433.394	7396.75
433.601	7753.1
433.808	7857.54
434.016	7875.98
434.223	8217.99
434.43	8830.33
434.637	8619.39
434.844	9051.51
435.052	9305.46
435.259	8988.02
435.466	9264.5
435.673	9012.6
435.88	9500.02
436.087	10102.12
436.294	10268
436.501	9839.98
436.708	10255.72
436.915	10423.65
437.122	11093.33
437.329	11019.61
437.537	11330.9
437.743	11498.83
437.95	11363.67
438.157	11722.06
438.364	12158.28
438.571	12221.77
438.778	12453.19
438.985	13565.23
439.192	13083.96
439.399	13456.69
439.606	13176.12
439.813	13997.35
440.02	14503.2
440.227	14654.75
440.433	14511.39
440.64	14976.28
440.847	14824.73
441.054	15303.96
441.261	16125.19
441.467	15705.36
441.674	16065.8
441.881	16911.61
442.088	16981.24
442.294	16485.64
442.501	17235.19
442.708	17415.41
442.914	18013.42
443.121	18844.9
443.328	18343.14
443.534	19614.93
443.741	18941.15
443.948	18758.88
444.154	20212.94
444.361	19987.66
444.568	20221.13
444.774	19813.59
444.981	20450.5
445.187	20817.09
445.394	21791.92
445.6	21726.39
445.807	23567.51
446.013	22654.12
446.22	22871.2
446.426	24099.98
446.633	24149.14
446.839	24716.42
447.046	23803.03
447.252	25134.21
447.459	25259.13
447.665	24896.64
447.871	26264.69
448.078	27118.69
448.284	26104.95
448.491	26713.19
448.697	27808.86
448.903	28464.21
449.11	28294.22
449.316	27896.92
449.522	28363.86
449.728	28927.05
449.935	29180.99
450.141	29273.15
450.347	30049.33
450.553	29183.04
450.76	29615.16
450.966	30368.82
451.172	29858.87
451.378	30594.09
451.584	30295.09
451.791	30977.06
451.997	30532.65
452.203	31282.21
452.409	31562.78
452.615	31308.83
452.821	30102.58
453.027	29842.49
453.233	31208.48
453.44	29938.74
453.646	30280.75
453.852	30536.75
454.058	31110.18
454.264	30370.86
454.47	30897.19
454.676	30069.81
454.882	30870.57
455.088	28740.68
455.294	28752.97
455.5	29271.11
455.705	29498.43
455.911	28410.96
456.117	27761.75
456.323	27376.73
456.529	26225.78
456.735	26987.62
456.941	26580.07
457.147	26031.22
457.352	25435.26
457.558	24861.83
457.764	24804.49
457.97	24824.97
458.176	23962.77
458.381	24157.33
458.587	22998.18
458.793	22766.76
458.999	21634.23
459.204	23391.39
459.41	22242.48
459.616	20991.17
459.821	21204.16
460.027	21236.92
460.233	20778.18
460.438	20071.63
460.644	20036.81
460.85	19148
461.055	18625.76
461.261	18611.43
461.466	17394.93
461.672	16528.64
461.878	18085.1
462.083	16930.05
462.289	16438.53
462.494	16403.72
462.7	15746.32
462.905	15080.73
463.111	15830.29
463.316	15795.47
463.522	15389.97
463.727	15469.84
463.932	15295.77
464.138	15056.15
464.343	15320.34
464.549	14814.49
464.754	15226.14
464.959	15402.26
465.165	15209.75
465.37	14601.51
465.575	14093.61
465.781	14736.67
465.986	14736.67
466.191	14212.39
466.397	14144.81
466.602	13301.05
466.807	13780.27
467.012	13884.72
467.218	13819.18
467.423	13583.66
467.628	13722.93
467.833	14130.47
468.038	13798.7
468.244	13077.82
468.449	13704.49
468.654	13114.68
468.859	13376.82
469.064	13313.33
469.269	12778.81
469.474	12727.61
469.679	12905.79
469.885	12789.05
470.09	12694.85
470.295	12817.72
470.5	12234.05
470.705	12453.19
470.91	12295.49
471.115	12285.25
471.32	12426.56
471.525	12315.97
471.73	11849.04
471.935	12049.74
472.139	11595.09
472.344	11664.72
472.549	11369.81
472.754	11550.03
472.959	11271.51
473.164	10919.26
473.369	10913.11
473.574	11437.39
473.778	11136.34
473.983	10898.78
474.188	10972.5
474.393	10421.6
474.598	10487.14
474.802	10311.01
475.007	10206.56
475.212	10364.26
475.417	9938.28
475.621	10181.99
475.826	9981.29
476.031	9784.68
476.235	9620.85
476.44	9756.01
476.645	9543.02
476.849	9737.58
477.054	9626.99
477.259	9416.05
477.463	9323.89
477.668	9151.86
477.872	9350.51
478.077	9168.24
478.282	8787.32
478.486	8723.83
478.691	8807.8
478.895	8744.31
479.1	8787.32
479.304	8834.43
479.509	8469.89
479.713	8578.43
479.918	8385.92
480.122	8349.06
480.326	8408.45
480.531	8400.26
480.735	8281.47
480.94	8342.91
481.144	8547.71
481.348	8029.57
481.553	8330.62
481.757	7957.89
481.961	8322.43
482.166	8428.93
482.37	8160.64
482.574	8170.88
482.778	8134.02
482.983	8289.67
483.187	8134.02
483.391	8062.34
483.595	8101.25
483.8	8050.05
484.004	8084.87
484.208	8095.11
484.412	8179.08
484.616	8093.06
484.821	8220.03
485.025	7890.31
485.229	8037.77
485.433	7828.87
485.637	8154.5
485.841	8048.01
486.045	7982.47
486.249	8217.99
486.453	8099.2
486.657	8211.84
486.861	8154.5
487.065	8027.53
487.269	8052.1
487.473	7771.53
487.677	8121.73
487.881	8347.01
488.085	8019.33
488.289	8162.69
488.493	8146.31
488.697	8160.64
488.901	8211.84
489.105	8154.5
489.309	8248.71
489.512	8191.36
489.716	8119.68
489.92	8355.2
490.124	8177.03
490.328	8281.47
490.531	8248.71
490.735	8338.82
490.939	8355.2
491.143	8306.05
491.346	8328.58
491.55	8498.56
491.754	8437.12
491.958	8742.27
492.161	8461.69
492.365	8519.04
492.569	8498.56
492.772	8646.01
492.976	8693.12
493.18	8693.12
493.383	8699.26
493.587	8842.62
493.79	8875.38
493.994	8842.62
494.197	8951.16
494.401	9002.36
494.605	8949.11
494.808	9246.07
495.012	9276.79
495.215	9205.11
495.419	9317.75
495.622	9115
495.825	9461.1
496.029	9631.09
496.232	9670
496.436	9338.23
496.639	9854.31
496.843	9612.65
497.046	9868.65
497.249	10050.92
497.453	10048.87
497.656	10083.69
497.859	9932.14
498.063	10386.79
498.266	10501.47
498.469	10378.59
498.673	10444.13
498.876	10870.11
499.079	10902.87
499.282	10800.48
499.485	10976.6
499.689	11101.53
499.892	11326.8
500.095	11345.23
500.298	11715.92
500.501	11576.66
500.705	11693.39
500.908	11767.12
501.111	11935.05
501.314	12010.82
501.517	12287.3
501.72	12723.52
501.923	12342.6
502.126	12754.24
502.329	12813.63
502.532	13012.28
502.735	12969.27
502.938	13253.94
503.141	13086.01
503.344	13534.51
503.547	13423.92
503.75	13845.8
503.953	13960.49
504.156	13909.29
504.359	14302.5
504.562	14269.73
504.765	14490.91
504.968	14677.28
505.17	14736.67
505.373	14851.36
505.576	15219.99
505.779	15447.32
505.982	15342.87
506.185	15805.71
506.387	16141.58
506.59	16024.84
506.793	16049.42
506.996	16274.7
507.198	16508.16
507.401	16385.29
507.604	16807.17
507.807	17456.37
508.009	17179.9
508.212	17474.81
508.415	17278.2
508.617	17423.61
508.82	17812.72
509.022	17755.38
509.225	18201.83
509.428	18240.75
509.63	18390.25
509.833	18367.72
510.035	19197.15
510.238	18685.15
510.44	18975.97
510.643	19487.96
510.845	19285.21
511.048	19430.62
511.25	19811.54
511.453	19678.42
511.655	20761.8
511.858	20407.5
512.06	20675.78
512.262	20874.43
512.465	20704.45
512.667	21402.81
512.87	21386.43
513.072	21572.79
513.274	21744.82
513.477	22367.4
513.679	22418.6
513.881	22375.59
514.084	22693.03
514.286	22572.2
514.488	23076
514.69	23485.59
514.893	23557.27
515.095	23567.51
515.297	23911.57
515.499	23841.94
515.701	24427.66
515.904	24663.18
516.106	24573.07
516.308	25019.52
516.51	25427.07
516.712	25050.24
516.914	25500.79
517.116	25996.4
517.318	26180.72
517.52	26018.93
517.722	26231.92
517.925	26547.31
518.127	26780.78
518.329	27303.01
518.531	27149.41
518.733	27354.21
518.935	27671.64
519.136	27790.42
519.338	28179.54
519.54	28470.35
519.742	28439.63
519.944	28597.32
520.146	28900.42
520.348	28929.09
520.55	29338.69
520.752	29707.32
520.954	30045.24
521.155	29447.23
521.357	30080.05
521.559	30448.69
521.761	31013.93
521.963	30698.54
522.164	30977.06
522.366	31192.1
522.568	31431.71
522.77	31562.78
522.971	31951.9
523.173	31745.05
523.375	31962.14
523.576	31921.18
523.778	32341.01
523.98	32891.91
524.181	33000.46
524.383	33020.94
524.584	33356.8
524.786	33338.37
524.988	33285.12
525.189	33893.37
525.391	33903.61
525.592	34182.13
525.794	33811.45
525.995	34292.72
526.197	34337.78
526.398	34847.72
526.6	34325.49
526.801	34612.21
527.003	35199.97
527.204	34694.13
527.406	35271.65
527.607	35249.13
527.808	35488.74
528.01	35019.75
528.211	35132.39
528.412	36137.94
528.614	35582.95
528.815	35861.47
529.016	36008.92
529.218	35597.28
529.419	36275.16
529.62	36117.46
529.822	36017.11
530.023	36258.77
530.224	36199.38
530.425	36387.8
530.626	35970.01
530.828	35836.89
531.029	37090.25
531.23	36561.87
531.431	36539.35
531.632	37088.2
531.833	36858.83
532.035	36858.83
532.236	36672.46
532.437	36869.07
532.638	36840.4
532.839	36778.96
533.04	37282.76
533.241	36551.63
533.442	37610.43
533.643	37139.4
533.844	37352.39
534.045	37270.47
534.246	36826.06
534.447	37473.22
534.648	36985.8
534.849	37041.1
535.05	36719.57
535.251	37186.5
535.451	37053.39
535.652	37178.31
535.853	37225.42
536.054	37243.85
536.255	37970.88
536.456	36727.76
536.657	37458.88
536.857	36903.88
537.058	37012.43
537.259	37333.96
537.46	37284.81
537.66	37041.1
537.861	37299.14
538.062	37047.24
538.263	37356.49
538.463	36934.6
538.664	37362.63
538.865	36977.61
539.065	37475.27
539.266	36932.56
539.466	37661.63
539.667	36799.44
539.868	37374.92
540.068	37182.41
540.269	36977.61
540.469	37630.91
540.67	37067.72
540.87	37063.63
541.071	37374.92
541.271	37182.41
541.472	37282.76
541.672	36867.02
541.873	36998.09
542.073	36557.78
542.274	37239.75
542.474	37092.3
542.675	36760.53
542.875	37561.28
543.075	36922.32
543.276	36725.71
543.476	37362.63
543.676	36525.01
543.877	37032.91
544.077	36821.97
544.277	36758.48
544.478	36793.29
544.678	37039.05
544.878	36531.15
545.078	36959.18
545.279	36885.45
545.479	36604.88
545.679	36660.18
545.879	37094.35
546.079	36621.27
546.28	36664.27
546.48	36735.95
546.68	37082.06
546.88	36502.48
547.08	36936.65
547.28	36883.41
547.48	36109.27
547.68	36643.79
547.88	36664.27
548.081	37010.38
548.281	36961.23
548.481	36721.62
548.681	36662.22
548.881	36643.79
549.081	36465.62
549.28	36645.84
549.48	36697.04
549.68	36746.19
549.88	36969.42
550.08	36348.89
550.28	36864.97
550.48	36715.47
550.68	36586.45
550.88	36482
551.08	36455.38
551.279	36641.74
551.479	36039.64
551.679	36447.19
551.879	36377.56
552.079	36649.94
552.278	36248.53
552.478	36342.74
552.678	36418.52
552.878	36613.07
553.077	36676.56
553.277	36447.19
553.477	36586.45
553.676	36352.98
553.876	36254.68
554.076	36164.57
554.275	36287.45
554.475	35947.48
554.674	36139.99
554.874	36332.5
555.074	35689.44
555.273	36309.97
555.473	36279.25
555.672	35875.8
555.872	36178.9
556.071	35947.48
556.271	36252.63
556.47	35949.53
556.67	35304.42
556.869	35763.17
557.068	35935.2
557.268	35877.85
557.467	35783.65
557.667	35503.07
557.866	35640.29
558.065	35840.99
558.265	35761.12
558.464	35378.15
558.663	35718.11
558.863	35671.01
559.062	36017.11
559.261	35435.49
559.461	35793.89
559.66	35062.76
559.859	35271.65
560.058	35273.7
560.258	35193.83
560.457	34903.02
560.656	35105.77
560.855	34941.93
561.054	35181.54
561.253	34651.12
561.453	34999.27
561.652	34913.26
561.851	35068.9
562.05	34665.46
562.249	34524.15
562.448	34771.95
562.647	34601.97
562.846	34905.07
563.045	34548.72
563.244	34126.84
563.443	34986.99
563.642	34073.59
563.841	34724.85
564.04	34554.86
564.239	34532.34
564.438	33817.6
564.637	34132.98
564.836	34239.48
565.035	33833.98
565.234	34094.07
565.432	33707.01
565.631	33727.49
565.83	33809.4
566.029	33747.97
566.228	33692.67
566.427	33434.63
566.625	33440.77
566.824	32979.98
567.023	33616.9
567.222	32728.08
567.42	33557.5
567.619	33022.98
567.818	33119.24
568.016	33102.85
568.215	33192.97
568.414	33115.14
568.612	33278.98
568.811	32492.56
569.01	32578.57
569.208	32529.42
569.407	32883.72
569.605	32357.39
569.804	32484.37
570.002	32637.97
570.201	32687.12
570.4	32300.05
570.598	32326.67
570.797	32091.16
570.995	31812.63
571.193	31964.18
571.392	31968.28
571.59	31822.87
571.789	32052.25
571.987	31527.97
572.186	31743
572.384	31220.77
572.582	31808.54
572.781	31581.21
572.979	31101.99
573.177	31157.28
573.376	31419.42
573.574	31153.19
573.772	31323.17
573.971	31112.23
574.169	30815.27
574.367	31140.9
574.565	30745.64
574.763	30628.91
574.962	30647.34
575.16	30356.53
575.358	30567.47
575.556	30534.7
575.754	30778.41
575.952	30006.33
576.151	30546.99
576.349	29987.89
576.547	30088.24
576.745	29930.55
576.943	30172.21
577.141	29850.68
577.339	30057.53
577.537	29801.53
577.735	29635.64
577.933	29832.25
578.131	29369.41
578.329	29518.91
578.527	29393.98
578.725	29609.02
578.923	29480
579.121	29283.39
579.319	29273.15
579.516	29074.5
579.714	29320.26
579.912	28816.46
580.11	28736.59
580.308	28701.77
580.506	28683.34
580.704	28437.58
580.901	28646.47
581.099	28834.89
581.297	28195.92
581.495	28507.21
581.692	28425.29
581.89	28318.8
582.088	28367.95
582.285	28173.39
582.483	28398.67
582.681	28349.52
582.878	28001.36
583.076	27354.21
583.274	28048.47
583.471	27608.15
583.669	27671.64
583.866	27579.48
584.064	27477.08
584.262	27122.79
584.459	27423.84
584.657	27298.91
584.854	27511.9
585.052	26641.51
585.249	27309.15
585.447	27030.63
585.644	27018.34
585.841	26952.8
586.039	26852.45
586.236	26795.11
586.434	26463.34
586.631	26731.62
586.828	26725.48
587.026	26408.05
587.223	26360.94
587.42	26313.84
587.618	26129.52
587.815	25787.51
588.012	25980.02
588.21	25851
588.407	26131.57
588.604	26078.32
588.801	25601.15
588.999	25865.33
589.196	25658.49
589.393	25541.75
589.59	25601.15
589.787	25500.79
589.984	25476.22
590.182	24822.92
590.379	25230.46
590.576	25175.17
590.773	25291.9
590.97	24980.61
591.167	25142.4
591.364	24620.17
591.561	24784.01
591.758	24654.98
591.955	24503.43
592.152	24829.06
592.349	24485
592.546	24507.53
592.743	24568.97
592.94	23997.59
593.137	24382.6
593.334	24321.16
593.531	23909.52
593.727	24089.74
593.924	24054.93
594.121	23780.5
594.318	24159.38
594.515	23721.11
594.712	24108.18
594.908	23714.97
595.105	23653.53
595.302	23594.14
595.499	23512.22
595.696	23493.79
595.892	23194.78
596.089	23393.44
596.286	23346.33
596.482	23231.65
596.679	23102.62
596.876	22906.02
597.072	22789.28
597.269	23063.71
597.466	22553.77
597.662	22621.35
597.859	22889.63
598.055	22666.41
598.252	22357.16
598.448	22627.49
598.645	22305.96
598.841	22185.13
599.038	22516.9
599.234	22273.2
599.431	22113.45
599.627	22004.91
599.824	21851.31
600.02	21701.81
600.217	21839.03
600.413	21699.76
600.609	21748.92
600.806	21466.3
601.002	22027.44
601.198	21484.73
601.395	21427.39
601.591	21431.48
601.787	21359.8
601.984	21378.23
602.18	21693.62
602.376	21400.76
602.572	21073.09
602.769	20892.87
602.965	20948.16
603.161	20864.19
603.357	20882.63
603.553	20925.63
603.75	21046.46
603.946	20612.29
604.142	20765.89
604.338	20446.41
604.534	20303.05
604.73	20333.77
604.926	20319.43
605.122	20462.79
605.318	20233.42
605.514	20317.39
605.71	19967.18
605.906	19954.9
606.102	20071.63
606.298	20020.43
606.494	20024.53
606.69	20128.97
606.886	19844.31
607.082	19870.93
607.278	19776.72
607.474	19522.77
607.67	19946.7
607.866	19696.85
608.062	19555.54
608.257	19522.77
608.453	19631.32
608.649	19647.7
608.845	19344.6
609.041	19174.62
609.236	19266.78
609.432	19367.13
609.628	18851.04
609.824	19158.24
610.019	18910.43
610.215	19125.47
610.411	19160.28
610.606	19000.54
610.802	18912.48
610.998	19111.13
611.193	19137.76
611.389	18799.84
611.584	18805.99
611.78	18547.94
611.976	18787.55
612.171	18957.53
612.367	18574.56
612.562	18535.65
612.758	18441.45
612.953	18349.29
613.149	18576.61
613.344	18320.62
613.539	18625.76
613.735	18308.33
613.93	18167.02
614.126	18369.77
614.321	18398.44
614.517	18320.62
614.712	18197.74
614.907	18003.18
615.103	18160.87
615.298	18083.05
615.493	18318.57
615.688	17818.86
615.884	18517.22
616.079	17908.97
616.274	17978.61
616.47	17614.07
616.665	17714.42
616.86	17601.78
617.055	17855.73
617.25	17714.42
617.445	17831.15
617.641	17358.07
617.836	17691.89
618.031	17333.5
618.226	17616.12
618.421	17276.15
618.616	17597.68
618.811	17181.95
619.006	17343.74
619.201	17155.32
619.396	17319.16
619.591	16770.3
619.786	17085.69
619.981	16813.31
620.176	17261.82
620.371	16661.76
620.566	16796.93
620.761	16540.93
620.956	16794.88
621.151	16508.16
621.346	16411.91
621.541	16129.29
621.735	16551.17
621.93	16008.46
622.125	16262.41
622.32	16026.89
622.515	16198.92
622.709	15854.86
622.904	16022.8
623.099	15553.81
623.294	15770.9
623.488	15750.42
623.683	15693.07
623.878	15324.44
624.072	15230.23
624.267	15361.3
624.462	15207.7
624.656	15027.48
624.851	15174.94
625.046	14880.03
625.24	15000.86
625.435	14863.65
625.629	14886.17
625.824	14642.46
626.018	14681.38
626.213	14421.28
626.407	14470.44
626.602	14277.93
626.796	14452
626.991	14497.06
627.185	14116.14
627.38	14056.75
627.574	14183.72
627.768	14103.85
627.963	13958.44
628.157	13774.13
628.352	13888.81
628.546	13755.69
628.74	13694.26
628.935	13565.23
629.129	13636.91
629.323	13493.55
629.517	13403.44
629.712	13389.11
629.906	13434.16
630.1	13008.19
630.294	12930.36
630.489	12746.05
630.683	13083.96
630.877	12909.88
631.071	12725.57
631.265	12899.64
631.459	12551.49
631.653	12561.73
631.848	12522.82
632.042	12436.8
632.236	12313.92
632.43	12283.2
632.624	12356.93
632.818	12000.58
633.012	11941.19
633.206	11963.72
633.4	12047.69
633.594	11935.05
633.788	11967.82
633.982	11885.9
634.176	11752.78
634.369	11683.15
634.563	11658.57
634.757	11640.14
634.951	11453.78
635.145	11550.03
635.339	11392.34
635.533	11187.54
635.726	11238.74
635.92	11062.62
636.114	11144.53
636.308	11142.49
636.501	10927.45
636.695	11083.09
636.889	10849.63
637.083	10796.38
637.276	10792.28
637.47	10696.03
637.664	10796.38
637.857	10685.79
638.051	10751.32
638.244	10319.2
638.438	10542.43
638.632	10431.84
638.825	10372.45
639.019	10175.84
639.212	10083.69
639.406	10141.03
639.599	10028.39
639.793	10055.01
639.986	9979.24
640.18	10122.6
640.373	10067.3
640.567	9729.39
640.76	9942.38
640.954	9923.94
641.147	9864.55
641.34	9665.9
641.534	9694.57
641.727	9747.82
641.92	9629.04
642.114	9391.47
642.307	9565.55
642.5	9442.67
642.694	9211.25
642.887	9319.79
643.08	9391.47
643.273	9248.11
643.467	9184.63
643.66	9059.7
643.853	9014.65
644.046	8977.78
644.239	9188.72
644.432	8699.26
644.626	8703.36
644.819	8781.18
645.012	8762.75
645.205	8603
645.398	8867.19
645.591	8605.05
645.784	8375.68
645.977	8695.16
646.17	8514.94
646.363	8406.4
646.556	8572.29
646.749	8404.35
646.942	8347.01
647.135	8256.9
647.328	8115.59
647.521	8318.34
647.714	8027.53
647.907	8105.35
648.099	8070.53
648.292	8029.57
648.485	7863.69
648.678	7783.82
648.871	7867.78
649.064	7751.05
649.256	7773.58
649.449	7855.5
649.642	7581.07
649.835	7519.63
650.027	7685.51
650.22	7642.51
650.413	7464.33
650.605	7513.49
650.798	7431.57
650.991	7349.65
651.183	7390.61
651.376	7376.27
651.568	7277.97
651.761	7269.78
651.954	7320.98
652.146	7216.53
652.339	7232.91
652.531	7183.76
652.724	7196.05
652.916	7013.78
653.109	7024.02
653.301	7200.15
653.494	7005.59
653.686	7011.73
653.879	7083.41
654.071	6876.57
654.263	6860.18
654.456	6792.6
654.648	6686.11
654.84	6675.87
655.033	6847.9
655.225	6604.19
655.417	6698.39
655.61	6528.41
655.802	6491.55
655.994	6493.6
656.186	6552.99
656.379	6428.06
656.571	6323.62
656.763	6327.71
656.955	6100.39
657.148	6421.92
657.34	6417.82
657.532	6245.79
657.724	6176.16
657.916	6213.03
658.108	6219.17
658.3	6122.91
658.492	5995.94
658.684	5926.31
658.876	6028.71
659.068	5995.94
659.26	5893.54
659.452	6006.18
659.644	5885.35
659.836	5750.18
660.028	5877.16
660.22	5774.76
660.412	5692.84
660.604	5666.22
660.796	5735.85
660.988	5639.59
661.18	5676.46
661.372	5598.63
661.563	5594.54
661.755	5635.5
661.947	5629.35
662.139	5377.45
662.331	5402.03
662.522	5488.04
662.714	5508.52
662.906	5449.13
663.097	5426.61
663.289	5318.06
663.481	5473.71
663.673	5365.17
663.864	5268.91
664.056	5440.94
664.247	5225.9
664.439	5203.38
664.631	5207.47
664.822	5109.17
665.014	5000.63
665.205	5049.78
665.397	5186.99
665.588	5088.69
665.78	4988.34
665.971	5064.11
666.163	4971.96
666.354	5088.69
666.546	4976.05
666.737	4816.31
666.929	5037.49
667.12	4883.89
667.311	4750.78
667.503	4773.3
667.694	4916.66
667.885	4726.2
668.077	4816.31
668.268	4699.58
668.459	4730.3
668.651	4754.87
668.842	4691.38
669.033	4722.1
669.224	4533.69
669.416	4533.69
669.607	4607.42
669.798	4574.65
669.989	4631.99
670.18	4550.07
670.371	4539.83
670.563	4613.56
670.754	4429.24
670.945	4445.63
671.136	4488.64
671.327	4531.64
671.518	4378.05
671.709	4246.98
671.9	4486.59
672.091	4412.86
672.282	4472.25
672.473	4283.84
672.664	4271.55
672.855	4246.98
673.046	4386.24
673.237	4294.08
673.428	4253.12
673.619	4097.47
673.809	4214.21
674	4214.21
674.191	4126.15
674.382	4234.69
674.573	4117.95
674.764	4167.1
674.954	4091.33
675.145	4167.1
675.336	3978.69
675.527	4109.76
675.717	4130.24
675.908	3907.01
676.099	4128.19
676.289	4079.04
676.48	4070.85
676.671	4079.04
676.861	3947.97
677.052	3900.87
677.243	3816.9
677.433	3939.78
677.624	4087.23
677.814	3972.55
678.005	3923.4
678.195	4117.95
678.386	3878.34
678.576	3978.69
678.767	3990.98
678.957	3763.65
679.148	3855.81
679.338	3843.53
679.529	3829.19
679.719	3775.94
679.909	3935.68
680.1	3775.94
680.29	3829.19
680.481	3730.89
680.671	3718.6
680.861	3898.82
681.052	3722.7
681.242	3712.46
681.432	3839.43
681.622	3655.11
681.813	3608.01
682.003	3792.33
682.193	3622.34
682.383	3759.56
682.573	3628.49
682.764	3694.02
682.954	3757.51
683.144	3657.16
683.334	3722.7
683.524	3681.74
683.714	3673.54
683.904	3632.58
684.094	3532.23
684.284	3530.19
684.474	3749.32
684.664	3626.44
684.854	3608.01
685.044	3603.91
685.234	3423.69
685.424	3691.98
685.614	3534.28
685.804	3464.65
685.994	3431.88
686.184	3565
686.374	3489.23
686.564	3509.71
686.753	3415.5
686.943	3331.53
687.133	3470.8
687.323	3511.75
687.513	3349.96
687.702	3354.06
687.892	3319.25
688.082	3354.06
688.272	3368.4
688.461	3360.2
688.651	3339.73
688.841	3450.32
689.03	3253.71
689.22	3366.35
689.41	3296.72
689.599	3237.33
689.789	3202.51
689.979	3157.46
690.168	3231.18
690.358	3194.32
690.547	3317.2
690.737	3210.7
690.926	3171.79
691.116	3149.26
691.305	2989.52
691.495	3040.72
691.684	3147.22
691.874	3048.91
692.063	2997.71
692.252	3091.92
692.442	2981.33
692.631	2971.09
692.82	3010
693.01	2954.71
693.199	2934.23
693.388	2919.89
693.578	2921.94
693.767	2915.8
693.956	2999.76
694.146	3087.82
694.335	2909.65
694.524	2846.16
694.713	2950.61
694.902	2821.59
695.092	2919.89
695.281	2868.69
695.47	2711
695.659	2833.88
695.848	2792.92
696.037	2864.6
696.226	2780.63
696.415	2719.19
696.604	2809.3
696.793	2639.32
696.982	2797.01
697.171	2784.73
697.36	2819.54
697.549	2637.27
697.738	2792.92
697.927	2711
698.116	2661.85
698.305	2686.42
698.494	2684.38
698.683	2766.29
698.872	2825.68
699.061	2821.59
699.25	2563.54
699.438	2784.73
699.627	2522.59
699.816	2551.26
700.005	2620.89
700.193	2647.51
700.382	2702.81
700.571	2647.51
700.76	2571.74
700.948	2737.62
701.137	2719.19
701.326	2678.23
701.514	2653.66
701.703	2579.93
701.892	2649.56
702.08	2643.42
702.269	2704.85
702.457	2592.22
702.646	2579.93
702.834	2510.3
703.023	2575.83
703.212	2579.93
703.4	2514.39
703.589	2557.4
703.777	2508.25
703.965	2514.39
704.154	2475.48
704.342	2629.08
704.531	2498.01
704.719	2612.7
704.907	2667.99
705.096	2559.45
705.284	2530.78
705.472	2514.39
705.661	2538.97
705.849	2516.44
706.037	2530.78
706.226	2532.83
706.414	2514.39
706.602	2444.76
706.79	2504.15
706.979	2440.67
707.167	2483.67
707.355	2473.43
707.543	2551.26
707.731	2557.4
707.919	2504.15
708.107	2448.86
708.296	2553.31
708.484	2317.79
708.672	2538.97
708.86	2424.28
709.048	2430.43
709.236	2412
709.424	2383.32
709.612	2412
709.8	2440.67
709.988	2416.09
710.176	2446.81
710.364	2368.99
710.551	2325.98
710.739	2334.17
710.927	2293.21
711.115	2354.65
711.303	2407.9
711.491	2383.32
711.679	2328.03
711.866	2379.23
712.054	2405.85
712.242	2311.64
712.43	2399.71
712.617	2313.69
712.805	2237.92
712.993	2389.47
713.181	2346.46
713.368	2350.56
713.556	2233.82
713.744	2295.26
713.931	2352.6
714.119	2350.56
714.306	2305.5
714.494	2285.02
714.682	2205.15
714.869	2358.75
715.057	2264.54
715.244	2137.57
715.432	2371.04
715.619	2350.56
715.807	2280.93
715.994	2352.6
716.182	2156
716.369	2287.07
716.556	2254.3
716.744	2368.99
716.931	2211.29
717.119	2235.87
717.306	2268.64
717.493	2287.07
717.681	2221.53
717.868	2199.01
718.055	2325.98
718.242	2248.16
718.43	2217.44
718.617	2203.1
718.804	2248.16
718.991	2227.68
719.179	2270.69
719.366	2254.3
719.553	2196.96
719.74	2104.8
719.927	2209.25
720.114	2276.83
720.301	2121.18
720.488	2072.03
720.676	2162.14
720.863	2090.46
721.05	2225.63
721.237	2170.33
721.424	2244.06
721.611	2156
721.798	2194.91
721.985	2055.65
722.172	2125.28
722.358	2045.41
722.545	2223.58
722.732	2192.86
722.919	2168.29
723.106	2108.9
723.293	2086.37
723.48	2205.15
723.667	2100.7
723.853	2039.26
724.04	2106.85
724.227	2098.66
724.414	2039.26
724.6	2033.12
724.787	2131.42
724.974	2063.84
725.161	2057.7
725.347	2035.17
725.534	2088.42
725.72	2090.46
725.907	2074.08
726.094	2082.27
726.28	2057.7
726.467	2026.98
726.653	2188.77
726.84	2080.22
727.027	2237.92
727.213	2057.7
727.4	2141.66
727.586	1990.11
727.773	2162.14
727.959	2010.59
728.145	2088.42
728.332	2067.94
728.518	2059.74
728.705	2043.36
728.891	2022.88
729.077	1955.3
729.264	2035.17
729.45	2010.59
729.636	2057.7
729.823	2131.42
730.009	2022.88
730.195	1867.24
730.382	2055.65
730.568	1932.77
730.754	2039.26
730.94	2076.13
731.126	1965.54
731.313	1994.21
731.499	1977.83
731.685	1949.15
731.871	1949.15
732.057	1992.16
732.243	2037.22
732.429	2002.4
732.615	1977.83
732.801	1983.97
732.987	1865.19
733.173	2010.59
733.359	1891.81
733.545	1930.72
733.731	1940.96
733.917	1967.59
734.103	1916.39
734.289	2045.41
734.475	1981.92
734.661	2018.79
734.847	1975.78
735.033	1986.02
735.219	1891.81
735.404	1904.1
735.59	1891.81
735.776	1885.67
735.962	1973.73
736.148	1900
736.333	1893.86
736.519	1912.29
736.705	1983.97
736.89	1900
737.076	1854.95
737.262	1820.13
737.447	1953.25
737.633	1820.13
737.819	1887.72
738.004	1904.1
738.19	1877.48
738.375	1869.28
738.561	1918.43
738.747	1893.86
738.932	1869.28
739.118	1811.94
739.303	2000.35
739.489	1805.8
739.674	1674.73
739.859	1789.41
740.045	1785.32
740.23	1752.55
740.416	1687.01
740.601	1900
740.786	1928.67
740.972	1793.51
741.157	1727.97
741.342	1785.32
741.528	1787.36
741.713	1844.71
741.898	1699.3
742.084	1691.11
742.269	1760.74
742.454	1768.93
742.639	1680.87
742.824	1631.72
743.01	1687.01
743.195	1711.59
743.38	1748.45
743.565	1664.49
743.75	1654.25
743.935	1680.87
744.12	1752.55
744.305	1637.86
744.49	1701.35
744.675	1596.9
744.86	1713.64
745.045	1617.38
745.23	1592.81
745.415	1621.48
745.6	1607.14
745.785	1514.98
745.97	1637.86
746.155	1656.29
746.34	1564.14
746.525	1498.6
746.71	1547.75
746.895	1498.6
747.079	1461.74
747.264	1517.03
747.449	1551.85
747.634	1564.14
747.819	1465.83
748.003	1502.7
748.188	1510.89
748.373	1576.42
748.557	1433.07
748.742	1410.54
748.927	1486.31
749.111	1539.56
749.296	1451.5
749.481	1445.35
749.665	1517.03
749.85	1246.7
750.034	1467.88
750.219	1302
750.404	1302
750.588	1353.2
750.773	1367.53
750.957	1326.57
751.141	1465.83
751.326	1318.38
751.51	1234.41
751.695	1310.19
751.879	1230.32
752.064	1330.67
752.248	1291.76
752.432	1316.33
752.617	1293.8
752.801	1271.28
752.985	1222.13
753.17	1254.89
753.354	1220.08
753.538	1254.89
753.722	1193.45
753.907	1285.61
754.091	1162.73
754.275	1220.08
754.459	1150.45
754.643	1166.83
754.828	1195.5
755.012	1162.73
755.196	1201.65
755.38	1123.82
755.564	1148.4
755.748	1129.97
755.932	1158.64
756.116	1023.47
756.3	1089.01
756.484	1082.86
756.668	1138.16
756.852	1091.06
757.036	996.85
757.22	1015.28
757.404	1015.28
757.588	1048.05
757.772	1089.01
757.956	1011.18
758.14	1037.81
758.323	974.32
758.507	966.13
758.691	876.02
758.875	1050.1
759.059	1064.43
759.242	959.99
759.426	968.18
759.61	966.13
759.794	933.36
759.977	957.94
760.161	1009.14
760.345	976.37
760.528	980.47
760.712	890.35
760.895	959.99
761.079	937.46
761.263	867.83
761.446	941.55
761.63	849.4
761.813	859.63
761.997	796.15
762.18	724.47
762.364	876.02
762.547	843.25
762.731	835.06
762.914	867.83
763.098	900.59
763.281	900.59
763.464	863.73
763.648	933.36
763.831	902.64
764.015	802.29
764.198	841.2
764.381	837.11
764.564	828.92
764.748	851.44
764.931	859.63
765.114	712.18
765.297	855.54
765.481	816.63
765.664	826.87
765.847	749.04
766.03	904.69
766.213	775.67
766.397	804.34
766.58	790
766.763	747
766.946	755.19
767.129	830.96
767.312	773.62
767.495	771.57
767.678	706.04
767.861	835.06
768.044	730.61
768.227	724.47
768.41	781.81
768.593	744.95
768.776	720.37
768.959	732.66
769.142	744.95
769.324	712.18
769.507	675.32
769.69	720.37
769.873	724.47
770.056	730.61
770.239	783.86
770.421	763.38
770.604	728.56
770.787	663.03
770.97	683.51
771.152	646.65
771.335	697.85
771.518	679.41
771.7	644.6
771.883	777.72
772.066	736.76
772.248	695.8
772.431	697.85
772.613	744.95
772.796	603.64
772.978	716.28
773.161	640.5
773.343	718.33
773.526	613.88
773.708	591.35
773.891	558.58
774.073	556.54
774.256	685.56
774.438	654.84
774.621	622.07
774.803	673.27
774.985	628.21
775.168	591.35
775.35	550.39
775.532	581.11
775.715	640.5
775.897	613.88
776.079	622.07
776.261	540.15
776.444	638.45
776.626	632.31
776.808	636.41
776.99	548.34
777.173	550.39
777.355	544.25
777.537	564.73
777.719	509.43
777.901	531.96
778.083	558.58
778.265	443.9
778.447	470.52
778.629	460.28
778.811	486.9
778.993	517.62
779.175	572.92
779.357	556.54
779.539	488.95
779.721	515.58
779.903	540.15
780.085	521.72
780.267	429.56
780.449	476.66
780.631	509.43
780.812	425.47
780.994	435.71
781.176	419.32
781.358	454.14
781.54	433.66
781.721	390.65
781.903	458.23
782.085	417.27
782.267	480.76
782.448	462.33
782.63	400.89
782.812	433.66
782.993	480.76
783.175	443.9
783.357	476.66
783.538	411.13
783.72	413.18
783.901	417.27
784.083	419.32
784.264	386.55
784.446	378.36
784.627	411.13
784.809	402.94
784.99	400.89
785.172	491
785.353	400.89
785.535	361.98
785.716	364.03
785.897	359.93
786.079	323.07
786.26	384.51
786.441	323.07
786.623	312.83
786.804	357.88
786.985	347.64
787.167	386.55
787.348	304.64
787.529	337.4
787.71	323.07
787.891	394.75
788.073	335.35
788.254	294.4
788.435	327.16
788.616	318.97
788.797	333.31
788.978	353.79
789.159	364.03
789.34	298.49
789.522	351.74
789.703	308.73
789.884	368.12
790.065	306.68
790.246	323.07
790.427	282.11
790.607	323.07
790.788	271.87
790.969	318.97
791.15	331.26
791.331	349.69
791.512	269.82
791.693	210.43
791.874	325.12
792.054	335.35
792.235	402.94
792.416	222.72
792.597	187.9
792.778	249.34
792.958	253.44
793.139	226.81
793.32	407.03
793.5	280.06
793.681	237.05
793.862	286.2
794.042	327.16
794.223	257.53
794.404	280.06
794.584	284.16
794.765	169.47
794.945	204.28
795.126	318.97
795.306	192
795.487	267.77
795.667	212.48
795.848	282.11
796.028	226.81
796.209	265.72
796.389	208.38
796.57	261.63
796.75	251.39
796.93	208.38
797.111	198.14
797.291	187.9
797.471	210.43
797.652	273.92
797.832	187.9
798.012	222.72
798.192	187.9
798.373	224.76
798.553	263.68
798.733	212.48
798.913	237.05
799.093	228.86
799.274	173.57
799.454	204.28
799.634	214.52
799.814	241.15
799.994	224.76
800.174	224.76
800.354	144.89
800.534	163.33
800.714	171.52
800.894	269.82
801.074	159.23
801.254	157.18
801.434	220.67
801.614	144.89
801.794	142.85
801.974	751.09
802.154	171.52
802.334	161.28
802.514	204.28
802.693	177.66
802.873	161.28
803.053	255.48
803.233	239.1
803.413	144.89
803.592	194.05
803.772	220.67
803.952	130.56
804.131	216.57
804.311	212.48
804.491	232.96
804.67	122.37
804.85	161.28
805.03	198.14
805.209	171.52
805.389	167.42
805.568	216.57
805.748	159.23
805.928	189.95
806.107	161.28
806.287	101.89
806.466	159.23
806.646	218.62
806.825	222.72
807.004	163.33
807.184	187.9
807.363	179.71
807.543	171.52
807.722	198.14
807.901	200.19
808.081	187.9
808.26	122.37
808.439	237.05
808.619	151.04
808.798	220.67
808.977	210.43
809.156	140.8
809.336	157.18
809.515	212.48
809.694	93.69
809.873	155.13
810.052	148.99
810.231	157.18
810.411	161.28
810.59	198.14
810.769	165.37
810.948	157.18
811.127	112.13
811.306	126.46
811.485	212.48
811.664	153.09
811.843	114.17
812.022	148.99
812.201	140.8
812.38	146.94
812.559	138.75
812.737	163.33
812.916	200.19
813.095	75.26
813.274	130.56
813.453	146.94
813.632	122.37
813.811	97.79
813.989	112.13
814.168	124.41
814.347	97.79
814.526	153.09
814.704	159.23
814.883	142.85
815.062	140.8
815.24	157.18
815.419	93.69
815.598	138.75
815.776	116.22
815.955	163.33
816.133	146.94
816.312	56.83
816.49	130.56
816.669	85.5
816.847	48.64
817.026	89.6
817.204	52.74
817.383	146.94
817.561	134.65
817.74	60.93
817.918	153.09
818.097	36.35
818.275	65.02
818.453	114.17
818.632	124.41
818.81	138.75
818.988	44.54
819.167	126.46
819.345	58.88
819.523	140.8
819.701	97.79
819.879	89.6
820.058	114.17
820.236	120.32
820.414	112.13
820.592	50.69
820.77	7.68
820.948	118.27
821.127	58.88
821.305	89.6
821.483	60.93
821.661	110.08
821.839	93.69
822.017	65.02
822.195	79.36
822.373	108.03
822.551	44.54
822.729	83.45
822.907	5.63
823.085	116.22
823.262	77.31
823.44	40.45
823.618	81.41
823.796	46.59
823.974	89.6
824.152	56.83
824.329	28.16
824.507	56.83
824.685	19.97
824.863	136.7
825.04	65.02
825.218	130.56
825.396	62.98
825.574	126.46
825.751	69.12
825.929	67.07
826.107	24.06
826.284	79.36
826.462	181.76
826.639	65.02
826.817	30.21
826.994	122.37
827.172	93.69
827.349	95.74
827.527	38.4
827.704	112.13
827.882	187.9
828.059	34.3
828.237	54.78
828.414	7.68
828.591	-31.23
828.769	30.21
828.946	75.26
829.124	97.79
829.301	118.27
829.478	108.03
829.655	114.17
829.833	58.88
830.01	110.08
830.187	116.22
830.364	-0.51
830.542	105.98
830.719	138.75
830.896	50.69
831.073	48.64
831.25	97.79
831.427	81.41
831.604	67.07
831.782	146.94
831.959	163.33
832.136	65.02
832.313	-31.23
832.49	13.82
832.667	26.11
832.844	105.98
833.021	136.7
833.198	-0.51
833.374	89.6
833.551	19.97
833.728	138.75
833.905	48.64
834.082	46.59
834.259	65.02
834.436	48.64
834.612	-23.04
834.789	114.17
834.966	85.5
835.143	1.54
835.319	126.46
835.496	112.13
835.673	93.69
835.85	105.98
836.026	71.17
836.203	196.09
836.38	9.73
836.556	77.31
836.733	-25.09
836.909	91.65
837.086	-8.7
837.262	-0.51
837.439	105.98
837.616	-4.61
837.792	126.46
837.968	71.17
838.145	7.68
838.321	48.64
838.498	60.93
838.674	81.41
838.851	-49.66
839.027	56.83
839.203	52.74
839.38	36.35
839.556	-29.18
839.732	-12.8
839.909	54.78
840.085	138.75
840.261	15.87
840.437	36.35
840.614	42.5
840.79	73.21
840.966	105.98
841.142	7.68
841.318	36.35
841.494	32.26
841.671	87.55
841.847	32.26
842.023	1.54
842.199	97.79
842.375	58.88
842.551	116.22
842.727	3.58
842.903	126.46
843.079	-12.8
843.255	-0.51
843.431	73.21
843.607	7.68
843.783	-74.24
843.959	114.17
844.134	17.92
844.31	58.88
844.486	101.89
844.662	28.16
844.838	-8.7
845.013	103.93
845.189	79.36
845.365	60.93
845.541	58.88
845.716	69.12
845.892	50.69
846.068	124.41
846.244	17.92
846.419	24.06
846.595	24.06
846.77	-29.18
846.946	81.41
847.122	89.6
847.297	-16.9
847.473	69.12
847.648	56.83
847.824	7.68
847.999	1.54
848.175	73.21
848.35	38.4
848.526	22.02
848.701	32.26
848.876	48.64
849.052	83.45
849.227	48.64
849.403	15.87
849.578	148.99
849.753	42.5
849.929	99.84
850.104	83.45
850.279	38.4
850.454	75.26
850.63	105.98
850.805	17.92
850.98	-0.51
851.155	3.58
851.33	30.21
851.505	36.35
851.681	87.55
851.856	38.4
852.031	-0.51
852.206	50.69
852.381	42.5
852.556	17.92
852.731	1.54
852.906	46.59
853.081	60.93
853.256	44.54
853.431	15.87
853.606	32.26
853.781	22.02
853.956	-23.04
854.131	38.4
854.305	-70.14
854.48	34.3
854.655	-33.28
854.83	-14.85
855.005	-35.33
855.18	24.06
855.354	-6.66
855.529	7.68
855.704	-37.38
855.879	108.03
856.053	-29.18
856.228	56.83
856.403	7.68
856.577	-29.18
856.752	-8.7
856.926	-39.42
857.101	13.82
857.276	-0.51
857.45	3.58
857.625	114.17
857.799	34.3
857.974	24.06
858.148	15.87
858.323	56.83
858.497	-12.8
858.672	-20.99
858.846	22.02
859.02	5.63
859.195	-33.28
859.369	-27.14
859.543	75.26
859.718	7.68
859.892	-16.9
860.066	58.88
860.241	65.02
860.415	50.69
860.589	9.73
860.763	-6.66
860.938	-31.23
861.112	-68.09
861.286	81.41
861.46	17.92
861.634	89.6
861.808	85.5
861.982	-16.9
862.157	46.59
862.331	-57.86
862.505	15.87
862.679	26.11
862.853	-8.7
863.027	28.16
863.201	40.45
863.375	28.16
863.549	-8.7
863.722	19.97
863.896	69.12
864.07	-16.9
864.244	28.16
864.418	32.26
864.592	-4.61
864.766	7.68
864.939	5.63
865.113	28.16
865.287	-14.85
865.461	-29.18
865.634	15.87
865.808	-2.56
865.982	58.88
866.156	-20.99
866.329	-6.66
866.503	48.64
866.676	93.69
866.85	40.45
867.024	-20.99
867.197	103.93
867.371	81.41
867.544	38.4
867.718	-45.57
867.891	91.65
868.065	15.87
868.238	-4.61
868.412	65.02
868.585	-0.51
868.759	-0.51
868.932	-8.7
869.105	15.87
869.279	7.68
869.452	52.74
869.625	40.45
869.799	19.97
869.972	-64
870.145	26.11
870.319	24.06
870.492	-8.7
870.665	-20.99
870.838	-0.51
871.011	-113.15
871.185	-23.04
871.358	26.11
871.531	28.16
871.704	-49.66
871.877	7.68
872.05	-31.23
872.223	-18.94
872.396	-16.9
872.569	15.87
872.742	-90.62
872.915	73.21
873.088	15.87
873.261	15.87
873.434	26.11
873.607	1.54
873.78	-27.14
873.953	28.16
874.126	-12.8
874.299	48.64
874.471	19.97
874.644	13.82
874.817	67.07
874.99	13.82
875.163	11.78
875.335	19.97
875.508	38.4
875.681	101.89
875.853	38.4
876.026	67.07
876.199	95.74
876.371	56.83
876.544	-12.8
876.717	-0.51
876.889	75.26
877.062	-0.51
877.234	-37.38
877.407	3.58
877.579	42.5
877.752	50.69
877.924	-10.75
878.097	75.26
878.269	11.78
878.442	15.87
878.614	42.5
878.786	60.93
878.959	-4.61
879.131	65.02
879.303	-37.38
879.476	-49.66
879.648	15.87
879.82	-23.04
879.993	-35.33
880.165	-51.71
880.337	24.06
880.509	-29.18
880.681	11.78
880.854	36.35
881.026	-25.09
881.198	-4.61
881.37	-25.09
881.542	26.11
881.714	26.11
881.886	-23.04
882.058	34.3
882.23	11.78
882.402	65.02
882.574	-31.23
882.746	91.65
882.918	97.79
883.09	44.54
883.262	24.06
883.434	17.92
883.606	22.02
883.778	-8.7
883.95	95.74
884.122	24.06
884.293	24.06
884.465	32.26
884.637	69.12
884.809	-16.9
884.98	-8.7
885.152	42.5
885.324	60.93
885.496	24.06
885.667	42.5
885.839	-18.94
886.011	1.54
886.182	17.92
886.354	81.41
886.525	15.87
886.697	7.68
886.869	56.83
887.04	11.78
887.212	34.3
887.383	146.94
887.555	-12.8
887.726	-31.23
887.897	-0.51
888.069	-12.8
888.24	52.74
888.412	40.45
888.583	-18.94
888.754	15.87
888.926	-66.05
889.097	-49.66
889.268	44.54
889.44	91.65
889.611	-37.38
889.782	3.58
889.953	-39.42
890.125	56.83
890.296	26.11
890.467	1.54
890.638	28.16
890.809	9.73
890.98	44.54
891.151	24.06
891.323	17.92
891.494	34.3
891.665	105.98
891.836	30.21
892.007	3.58
892.178	-25.09
892.349	52.74
892.52	58.88
892.691	38.4
892.862	69.12
893.032	-90.62
893.203	-8.7
893.374	-0.51
893.545	9.73
893.716	-12.8
893.887	58.88
894.057	-0.51
894.228	-0.51
894.399	-45.57
894.57	9.73
894.74	40.45
894.911	67.07
895.082	-0.51
895.253	28.16
895.423	65.02
895.594	-8.7
895.764	3.58
895.935	-70.14
896.106	44.54
896.276	52.74
896.447	3.58
896.617	-41.47
896.788	9.73
896.958	-23.04
897.129	9.73
897.299	-33.28
897.47	32.26
897.64	22.02
897.81	-33.28
897.981	-0.51
898.151	-0.51
898.322	44.54
898.492	-45.57
898.662	-4.61
898.832	52.74
899.003	48.64
899.173	5.63
899.343	-6.66
899.513	-41.47
