Data from USB4F104151__102__14-18-07-257.txt Node

Date: Thu Mar 13 14:18:07 EDT 2025
User: louis
Spectrometer: USB4F10415
Trigger mode: 4
Integration Time (sec): 2.000000E-2
Scans to average: 1
Electric dark correction enabled: true
Nonlinearity correction enabled: false
Boxcar width: 0
XAxis mode: Wavelengths
Number of Pixels in Spectrum: 3648
>>>>>Begin Spectral Data<<<<<
178.204	-106.32
178.424	-106.32
178.644	-106.32
178.864	-94.04
179.084	-55.12
179.304	6.31
179.524	-55.12
179.744	-36.69
179.964	61.61
180.184	32.94
180.404	49.32
180.624	-89.94
180.844	10.41
181.064	-32.6
181.283	28.84
181.503	-44.88
181.723	69.8
181.943	-44.88
182.163	30.89
182.383	-34.64
182.602	67.75
182.822	-28.5
183.042	16.55
183.262	-46.93
183.482	73.9
183.701	41.13
183.921	26.79
184.141	-48.98
184.361	-18.26
184.58	10.41
184.8	116.9
185.02	-24.4
185.239	75.95
185.459	24.75
185.679	57.51
185.898	-3.93
186.118	0.17
186.338	-48.98
186.557	-22.36
186.777	-1.88
186.997	-36.69
187.216	69.8
187.436	47.27
187.655	-12.12
187.875	55.47
188.095	61.61
188.314	106.67
188.534	-20.31
188.753	80.04
188.973	41.13
189.192	102.57
189.412	-26.45
189.631	10.41
189.851	0.17
190.07	73.9
190.29	51.37
190.509	-48.98
190.729	12.46
190.948	51.37
191.168	204.97
191.387	88.23
191.607	-34.64
191.826	39.08
192.045	92.33
192.265	24.75
192.484	8.36
192.704	-8.02
192.923	16.55
193.142	32.94
193.362	32.94
193.581	-28.5
193.8	59.56
194.02	61.61
194.239	-40.79
194.458	61.61
194.678	-22.36
194.897	32.94
195.116	34.99
195.335	49.32
195.555	16.55
195.774	34.99
195.993	98.47
196.212	57.51
196.432	28.84
196.651	26.79
196.87	12.46
197.089	137.38
197.308	10.41
197.528	73.9
197.747	53.42
197.966	32.94
198.185	102.57
198.404	37.03
198.623	-8.02
198.842	32.94
199.062	100.52
199.281	59.56
199.5	-16.21
199.719	57.51
199.938	73.9
200.157	-16.21
200.376	41.13
200.595	24.75
200.814	41.13
201.033	-3.93
201.252	-3.93
201.471	73.9
201.69	8.36
201.909	37.03
202.128	-16.21
202.347	71.85
202.566	104.62
202.785	-28.5
203.004	-22.36
203.223	90.28
203.442	24.75
203.661	-10.07
203.879	32.94
204.098	39.08
204.317	41.13
204.536	2.22
204.755	49.32
204.974	26.79
205.193	88.23
205.411	61.61
205.63	49.32
205.849	45.23
206.068	43.18
206.287	12.46
206.505	41.13
206.724	75.95
206.943	84.14
207.162	90.28
207.381	14.51
207.599	37.03
207.818	49.32
208.037	43.18
208.255	2.22
208.474	26.79
208.693	14.51
208.911	10.41
209.13	92.33
209.349	-24.4
209.567	-3.93
209.786	69.8
210.005	18.6
210.223	55.47
210.442	0.17
210.661	30.89
210.879	4.27
211.098	24.75
211.316	49.32
211.535	32.94
211.753	6.31
211.972	121
212.191	-16.21
212.409	57.51
212.628	51.37
212.846	26.79
213.065	-5.97
213.283	73.9
213.502	-5.97
213.72	-14.17
213.938	-8.02
214.157	59.56
214.375	0.17
214.594	49.32
214.812	32.94
215.031	90.28
215.249	-24.4
215.467	32.94
215.686	24.75
215.904	47.27
216.122	-12.12
216.341	106.67
216.559	22.7
216.778	32.94
216.996	-3.93
217.214	28.84
217.432	-5.97
217.651	-48.98
217.869	-40.79
218.087	-40.79
218.306	-14.17
218.524	94.38
218.742	32.94
218.96	129.19
219.179	114.86
219.397	73.9
219.615	84.14
219.833	12.46
220.051	20.65
220.27	86.19
220.488	53.42
220.706	49.32
220.924	6.31
221.142	2.22
221.36	-8.02
221.578	57.51
221.796	-8.02
222.015	80.04
222.233	14.51
222.451	24.75
222.669	75.95
222.887	32.94
223.105	22.7
223.323	55.47
223.541	-10.07
223.759	67.75
223.977	57.51
224.195	16.55
224.413	104.62
224.631	94.38
224.849	26.79
225.067	92.33
225.285	-5.97
225.503	41.13
225.721	10.41
225.939	-5.97
226.157	61.61
226.375	63.66
226.592	16.55
226.81	16.55
227.028	51.37
227.246	69.8
227.464	51.37
227.682	45.23
227.9	16.55
228.117	20.65
228.335	18.6
228.553	63.66
228.771	-16.21
228.989	24.75
229.206	22.7
229.424	34.99
229.642	16.55
229.86	10.41
230.077	16.55
230.295	-24.4
230.513	73.9
230.731	53.42
230.948	82.09
231.166	73.9
231.384	49.32
231.601	-8.02
231.819	-73.56
232.037	28.84
232.254	-8.02
232.472	8.36
232.689	-12.12
232.907	10.41
233.125	39.08
233.342	47.27
233.56	18.6
233.777	61.61
233.995	8.36
234.213	18.6
234.43	-8.02
234.648	32.94
234.865	32.94
235.083	-20.31
235.3	26.79
235.518	41.13
235.735	59.56
235.953	28.84
236.17	43.18
236.388	59.56
236.605	43.18
236.822	98.47
237.04	73.9
237.257	125.1
237.475	-65.36
237.692	110.76
237.909	65.71
238.127	45.23
238.344	-24.4
238.562	32.94
238.779	-65.36
238.996	14.51
239.214	47.27
239.431	39.08
239.648	49.32
239.865	92.33
240.083	57.51
240.3	30.89
240.517	-30.55
240.735	82.09
240.952	86.19
241.169	24.75
241.386	63.66
241.603	-20.31
241.821	14.51
242.038	90.28
242.255	8.36
242.472	39.08
242.689	-3.93
242.907	34.99
243.124	8.36
243.341	-24.4
243.558	26.79
243.775	24.75
243.992	-14.17
244.209	65.71
244.426	45.23
244.643	51.37
244.86	24.75
245.078	32.94
245.295	55.47
245.512	18.6
245.729	-12.12
245.946	14.51
246.163	45.23
246.38	104.62
246.597	-30.55
246.814	16.55
247.031	82.09
247.248	37.03
247.464	45.23
247.681	86.19
247.898	55.47
248.115	18.6
248.332	24.75
248.549	67.75
248.766	49.32
248.983	139.43
249.2	32.94
249.417	-5.97
249.633	12.46
249.85	94.38
250.067	61.61
250.284	57.51
250.501	41.13
250.717	39.08
250.934	24.75
251.151	34.99
251.368	57.51
251.585	-30.55
251.801	-16.21
252.018	4.27
252.235	4.27
252.451	-5.97
252.668	30.89
252.885	61.61
253.102	8.36
253.318	-14.17
253.535	84.14
253.752	-30.55
253.968	2.22
254.185	-14.17
254.401	41.13
254.618	41.13
254.835	12.46
255.051	106.67
255.268	34.99
255.484	49.32
255.701	18.6
255.917	49.32
256.134	26.79
256.351	-63.32
256.567	43.18
256.784	110.76
257	10.41
257.217	67.75
257.433	18.6
257.65	75.95
257.866	-10.07
258.082	43.18
258.299	-5.97
258.515	10.41
258.732	-26.45
258.948	6.31
259.165	14.51
259.381	-30.55
259.597	20.65
259.814	75.95
260.03	106.67
260.246	0.17
260.463	37.03
260.679	47.27
260.895	65.71
261.112	16.55
261.328	98.47
261.544	12.46
261.761	43.18
261.977	45.23
262.193	-16.21
262.409	94.38
262.626	2.22
262.842	86.19
263.058	12.46
263.274	34.99
263.49	20.65
263.707	82.09
263.923	-1.88
264.139	37.03
264.355	-14.17
264.571	104.62
264.787	20.65
265.004	49.32
265.22	59.56
265.436	94.38
265.652	20.65
265.868	14.51
266.084	-12.12
266.3	45.23
266.516	8.36
266.732	94.38
266.948	61.61
267.164	18.6
267.38	61.61
267.596	63.66
267.812	67.75
268.028	-1.88
268.244	59.56
268.46	2.22
268.676	8.36
268.892	92.33
269.108	82.09
269.324	49.32
269.54	-22.36
269.756	24.75
269.972	37.03
270.188	24.75
270.403	2.22
270.619	28.84
270.835	49.32
271.051	16.55
271.267	-10.07
271.483	-20.31
271.698	24.75
271.914	39.08
272.13	39.08
272.346	63.66
272.562	-24.4
272.777	20.65
272.993	12.46
273.209	18.6
273.425	24.75
273.64	-16.21
273.856	22.7
274.072	2.22
274.287	-24.4
274.503	22.7
274.719	-46.93
274.934	2.22
275.15	28.84
275.366	59.56
275.581	51.37
275.797	53.42
276.012	0.17
276.228	-28.5
276.444	67.75
276.659	45.23
276.875	-57.17
277.09	49.32
277.306	-20.31
277.521	65.71
277.737	32.94
277.952	32.94
278.168	18.6
278.383	16.55
278.599	-3.93
278.814	59.56
279.03	-85.84
279.245	32.94
279.461	6.31
279.676	22.7
279.892	-24.4
280.107	24.75
280.322	57.51
280.538	37.03
280.753	-16.21
280.969	102.57
281.184	-40.79
281.399	43.18
281.615	16.55
281.83	28.84
282.045	-34.64
282.26	43.18
282.476	-38.74
282.691	24.75
282.906	37.03
283.122	39.08
283.337	8.36
283.552	-10.07
283.767	4.27
283.983	82.09
284.198	-3.93
284.413	41.13
284.628	-14.17
284.843	41.13
285.058	84.14
285.274	121
285.489	28.84
285.704	-8.02
285.919	116.9
286.134	-8.02
286.349	67.75
286.564	82.09
286.779	94.38
286.995	16.55
287.21	-28.5
287.425	65.71
287.64	34.99
287.855	8.36
288.07	30.89
288.285	51.37
288.5	20.65
288.715	80.04
288.93	8.36
289.145	30.89
289.36	8.36
289.575	80.04
289.79	69.8
290.004	24.75
290.219	92.33
290.434	-38.74
290.649	61.61
290.864	41.13
291.079	49.32
291.294	16.55
291.509	32.94
291.724	45.23
291.938	8.36
292.153	32.94
292.368	57.51
292.583	114.86
292.798	37.03
293.012	-16.21
293.227	10.41
293.442	82.09
293.657	14.51
293.871	4.27
294.086	65.71
294.301	92.33
294.516	90.28
294.73	-55.12
294.945	43.18
295.16	26.79
295.374	75.95
295.589	82.09
295.804	-40.79
296.018	-73.56
296.233	137.38
296.447	98.47
296.662	26.79
296.877	75.95
297.091	10.41
297.306	100.52
297.52	59.56
297.735	57.51
297.949	-16.21
298.164	57.51
298.378	71.85
298.593	18.6
298.807	0.17
299.022	32.94
299.236	139.43
299.451	-5.97
299.665	30.89
299.88	32.94
300.094	69.8
300.309	12.46
300.523	32.94
300.737	34.99
300.952	-8.02
301.166	84.14
301.381	-8.02
301.595	-16.21
301.809	41.13
302.024	108.71
302.238	57.51
302.452	100.52
302.667	-44.88
302.881	63.66
303.095	26.79
303.309	98.47
303.524	16.55
303.738	0.17
303.952	0.17
304.166	24.75
304.381	-102.23
304.595	67.75
304.809	-30.55
305.023	32.94
305.237	-26.45
305.452	45.23
305.666	57.51
305.88	53.42
306.094	-1.88
306.308	82.09
306.522	65.71
306.736	73.9
306.95	28.84
307.164	-3.93
307.379	-34.64
307.593	32.94
307.807	71.85
308.021	94.38
308.235	77.99
308.449	-30.55
308.663	-8.02
308.877	69.8
309.091	26.79
309.305	67.75
309.519	-32.6
309.733	82.09
309.947	18.6
310.161	84.14
310.374	-16.21
310.588	34.99
310.802	8.36
311.016	2.22
311.23	18.6
311.444	4.27
311.658	51.37
311.872	63.66
312.085	-77.65
312.299	73.9
312.513	80.04
312.727	30.89
312.941	32.94
313.154	39.08
313.368	41.13
313.582	-22.36
313.796	16.55
314.009	92.33
314.223	65.71
314.437	92.33
314.651	-12.12
314.864	28.84
315.078	20.65
315.292	8.36
315.505	102.57
315.719	106.67
315.933	16.55
316.146	73.9
316.36	10.41
316.573	65.71
316.787	32.94
317.001	8.36
317.214	-18.26
317.428	114.86
317.641	96.43
317.855	10.41
318.068	131.24
318.282	22.7
318.495	77.99
318.709	-36.69
318.922	-3.93
319.136	55.47
319.349	49.32
319.563	8.36
319.776	45.23
319.99	-8.02
320.203	69.8
320.417	32.94
320.63	16.55
320.843	34.99
321.057	41.13
321.27	110.76
321.483	73.9
321.697	41.13
321.91	47.27
322.124	2.22
322.337	24.75
322.55	34.99
322.763	63.66
322.977	0.17
323.19	-34.64
323.403	-14.17
323.617	-5.97
323.83	84.14
324.043	51.37
324.256	26.79
324.469	-3.93
324.683	82.09
324.896	90.28
325.109	34.99
325.322	65.71
325.535	135.34
325.748	137.38
325.962	65.71
326.175	39.08
326.388	41.13
326.601	53.42
326.814	67.75
327.027	8.36
327.24	108.71
327.453	20.65
327.666	18.6
327.879	49.32
328.092	131.24
328.305	69.8
328.518	32.94
328.731	32.94
328.944	4.27
329.157	118.95
329.37	30.89
329.583	18.6
329.796	45.23
330.009	2.22
330.222	114.86
330.435	51.37
330.648	51.37
330.861	-22.36
331.073	57.51
331.286	55.47
331.499	0.17
331.712	12.46
331.925	6.31
332.138	55.47
332.35	98.47
332.563	57.51
332.776	57.51
332.989	41.13
333.202	16.55
333.414	45.23
333.627	0.17
333.84	65.71
334.053	10.41
334.265	51.37
334.478	45.23
334.691	61.61
334.903	24.75
335.116	-30.55
335.329	41.13
335.541	26.79
335.754	77.99
335.966	61.61
336.179	8.36
336.392	69.8
336.604	41.13
336.817	32.94
337.029	49.32
337.242	82.09
337.454	-14.17
337.667	49.32
337.88	102.57
338.092	16.55
338.305	59.56
338.517	18.6
338.729	53.42
338.942	100.52
339.154	18.6
339.367	34.99
339.579	49.32
339.792	32.94
340.004	102.57
340.217	-3.93
340.429	77.99
340.641	28.84
340.854	51.37
341.066	24.75
341.278	77.99
341.491	45.23
341.703	143.53
341.915	94.38
342.128	84.14
342.34	-22.36
342.552	12.46
342.764	8.36
342.977	24.75
343.189	45.23
343.401	45.23
343.613	30.89
343.826	-32.6
344.038	8.36
344.25	26.79
344.462	0.17
344.674	24.75
344.886	51.37
345.099	6.31
345.311	34.99
345.523	71.85
345.735	8.36
345.947	57.51
346.159	92.33
346.371	55.47
346.583	37.03
346.795	41.13
347.007	73.9
347.219	82.09
347.431	-10.07
347.643	69.8
347.855	30.89
348.067	26.79
348.279	-5.97
348.491	-5.97
348.703	141.48
348.915	43.18
349.127	41.13
349.339	73.9
349.551	-12.12
349.763	108.71
349.975	100.52
350.187	41.13
350.399	-3.93
350.61	67.75
350.822	8.36
351.034	45.23
351.246	-24.4
351.458	59.56
351.669	26.79
351.881	39.08
352.093	30.89
352.305	67.75
352.517	41.13
352.728	55.47
352.94	57.51
353.152	53.42
353.363	65.71
353.575	77.99
353.787	49.32
353.999	121
354.21	143.53
354.422	110.76
354.633	26.79
354.845	143.53
355.057	43.18
355.268	71.85
355.48	71.85
355.692	86.19
355.903	10.41
356.115	84.14
356.326	-14.17
356.538	57.51
356.749	34.99
356.961	73.9
357.172	57.51
357.384	-8.02
357.595	80.04
357.807	-20.31
358.018	14.51
358.23	41.13
358.441	69.8
358.653	88.23
358.864	14.51
359.075	77.99
359.287	43.18
359.498	73.9
359.709	32.94
359.921	4.27
360.132	37.03
360.344	49.32
360.555	37.03
360.766	106.67
360.977	-24.4
361.189	82.09
361.4	53.42
361.611	110.76
361.823	57.51
362.034	94.38
362.245	28.84
362.456	59.56
362.667	39.08
362.879	10.41
363.09	8.36
363.301	49.32
363.512	123.05
363.723	16.55
363.935	8.36
364.146	14.51
364.357	61.61
364.568	0.17
364.779	10.41
364.99	28.84
365.201	30.89
365.412	137.38
365.623	32.94
365.834	135.34
366.045	69.8
366.256	37.03
366.467	106.67
366.678	20.65
366.889	75.95
367.1	34.99
367.311	80.04
367.522	0.17
367.733	73.9
367.944	172.2
368.155	-5.97
368.366	53.42
368.577	96.43
368.788	18.6
368.999	18.6
369.209	41.13
369.42	102.57
369.631	61.61
369.842	73.9
370.053	69.8
370.264	12.46
370.474	82.09
370.685	92.33
370.896	45.23
371.107	67.75
371.317	114.86
371.528	41.13
371.739	92.33
371.95	106.67
372.16	73.9
372.371	65.71
372.582	49.32
372.792	39.08
373.003	82.09
373.214	77.99
373.424	164.01
373.635	43.18
373.846	94.38
374.056	51.37
374.267	82.09
374.477	37.03
374.688	51.37
374.898	65.71
375.109	100.52
375.319	26.79
375.53	41.13
375.74	30.89
375.951	73.9
376.161	90.28
376.372	125.1
376.582	61.61
376.793	49.32
377.003	61.61
377.214	10.41
377.424	77.99
377.635	98.47
377.845	53.42
378.055	61.61
378.266	-42.84
378.476	24.75
378.686	43.18
378.897	20.65
379.107	75.95
379.317	18.6
379.528	69.8
379.738	73.9
379.948	10.41
380.158	49.32
380.369	37.03
380.579	51.37
380.789	75.95
380.999	180.39
381.21	125.1
381.42	104.62
381.63	-30.55
381.84	98.47
382.05	77.99
382.261	67.75
382.471	39.08
382.681	69.8
382.891	32.94
383.101	57.51
383.311	16.55
383.521	37.03
383.731	131.24
383.941	123.05
384.151	82.09
384.361	0.17
384.571	67.75
384.781	45.23
384.991	174.25
385.201	100.52
385.411	71.85
385.621	98.47
385.831	77.99
386.041	92.33
386.251	26.79
386.461	82.09
386.671	0.17
386.881	90.28
387.091	45.23
387.301	49.32
387.511	18.6
387.72	32.94
387.93	22.7
388.14	45.23
388.35	108.71
388.56	2.22
388.769	108.71
388.979	129.19
389.189	32.94
389.399	24.75
389.609	149.67
389.818	77.99
390.028	92.33
390.238	43.18
390.447	77.99
390.657	110.76
390.867	65.71
391.076	8.36
391.286	94.38
391.496	77.99
391.705	39.08
391.915	92.33
392.125	49.32
392.334	51.37
392.544	108.71
392.753	129.19
392.963	67.75
393.172	49.32
393.382	71.85
393.591	141.48
393.801	84.14
394.01	84.14
394.22	65.71
394.429	139.43
394.639	57.51
394.848	98.47
395.058	110.76
395.267	63.66
395.477	123.05
395.686	106.67
395.895	116.9
396.105	188.58
396.314	104.62
396.524	114.86
396.733	104.62
396.942	155.82
397.152	123.05
397.361	114.86
397.57	84.14
397.78	131.24
397.989	90.28
398.198	114.86
398.407	123.05
398.617	28.84
398.826	69.8
399.035	125.1
399.244	102.57
399.453	149.67
399.663	118.95
399.872	121
400.081	90.28
400.29	94.38
400.499	133.29
400.708	147.62
400.917	118.95
401.127	151.72
401.336	143.53
401.545	116.9
401.754	114.86
401.963	166.06
402.172	114.86
402.381	92.33
402.59	133.29
402.799	118.95
403.008	139.43
403.217	153.77
403.426	137.38
403.635	164.01
403.844	147.62
404.053	190.63
404.262	69.8
404.471	133.29
404.68	157.86
404.888	186.54
405.097	159.91
405.306	174.25
405.515	137.38
405.724	196.78
405.933	223.4
406.142	147.62
406.35	207.02
406.559	174.25
406.768	196.78
406.977	264.36
407.185	229.54
407.394	315.56
407.603	233.64
407.812	254.12
408.02	270.5
408.229	207.02
408.438	278.69
408.646	270.5
408.855	274.6
409.064	198.82
409.272	319.65
409.481	297.13
409.69	295.08
409.898	385.19
410.107	270.5
410.315	354.47
410.524	329.89
410.733	403.62
410.941	401.57
411.15	389.28
411.358	434.34
411.567	405.67
411.775	405.67
411.984	460.96
412.192	522.4
412.401	561.31
412.609	516.26
412.818	559.27
413.026	577.7
413.234	606.37
413.443	604.32
413.651	657.57
413.86	702.62
414.068	606.37
414.276	764.06
414.485	729.25
414.693	753.82
414.901	766.11
415.11	762.02
415.318	854.17
415.526	788.64
415.734	827.55
415.943	915.61
416.151	886.94
416.359	921.76
416.567	975
416.776	1032.35
416.984	1040.54
417.192	1136.79
417.4	1247.38
417.608	1083.55
417.817	1224.86
418.025	1192.09
418.233	1259.67
418.441	1224.86
418.649	1403.03
418.857	1478.8
419.065	1374.36
419.273	1487
419.481	1536.15
419.689	1622.16
419.897	1691.79
420.105	1722.51
420.313	1829.01
420.521	1790.1
420.729	1837.2
420.937	1941.65
421.145	1876.11
421.353	2064.52
421.561	2183.31
421.769	2228.36
421.977	2400.39
422.185	2265.22
422.393	2576.52
422.601	2597
422.809	2601.09
423.017	2582.66
423.224	2685.06
423.432	2834.56
423.64	2805.89
423.848	3201.15
424.056	2924.67
424.263	3221.63
424.471	3088.51
424.679	3219.58
424.887	3381.37
425.094	3645.56
425.302	3448.95
425.51	3739.76
425.718	3852.4
425.925	3698.8
426.133	4003.95
426.341	4151.4
426.548	4419.69
426.756	4343.91
426.964	4395.11
427.171	4573.28
427.379	4825.19
427.586	5003.36
427.794	4946.02
428.001	5202.01
428.209	5435.48
428.417	5103.71
428.624	5699.67
428.832	5728.34
429.039	5820.5
429.247	5742.68
429.454	6197.32
429.662	6545.48
429.869	6307.91
430.076	6778.95
430.284	6578.25
430.491	6703.17
430.699	7168.06
430.906	7135.29
431.114	7237.69
431.321	7678.01
431.528	7569.46
431.736	8108.08
431.943	8601.64
432.15	8413.23
432.358	8482.86
432.565	8945.7
432.772	8677.41
432.979	9330.72
433.187	9590.81
433.394	9508.89
433.601	10194.96
433.808	10115.09
434.016	10113.04
434.223	10532.87
434.43	11036.67
434.637	10928.13
434.844	11601.91
435.052	11771.9
435.259	11743.22
435.466	11831.29
435.673	11775.99
435.88	12376.05
436.087	13070.31
436.294	13033.44
436.501	12629.99
436.708	13066.21
436.915	13613.02
437.122	14104.53
437.329	14233.55
437.537	14387.15
437.743	14854.09
437.95	14811.08
438.157	15601.6
438.364	16107.44
438.571	15984.57
438.778	15976.37
438.985	17483.68
439.192	16832.43
439.399	17297.31
439.606	16857
439.813	17985.43
440.02	19148.68
440.227	18603.92
440.433	18491.28
440.64	19003.27
440.847	18767.76
441.054	19502.98
441.261	20531.06
441.467	20524.91
441.674	20914.03
441.881	21534.56
442.088	21356.39
442.294	21469.03
442.501	22021.98
442.708	22275.93
442.914	23230.28
443.121	24350.52
443.328	23697.22
443.534	25208.62
443.741	24399.67
443.948	23914.3
444.154	25739.04
444.361	26017.57
444.568	25808.67
444.774	26195.74
444.981	26177.31
445.187	26726.16
445.394	27576.07
445.6	27727.62
445.807	30559.96
446.013	29112.05
446.22	29581.03
446.426	30895.83
446.633	31039.19
446.839	32112.32
447.046	30551.77
447.252	32184
447.459	32351.93
447.665	32147.14
447.871	33658.54
448.078	35077.78
448.284	33298.09
448.491	34369.18
448.697	35634.83
448.903	36265.6
449.11	36378.24
449.316	35640.97
449.522	36519.55
449.728	37058.17
449.935	37654.12
450.141	37508.72
450.347	38495.84
450.553	37437.04
450.76	37924.46
450.966	38911.58
451.172	38596.19
451.378	39540.3
451.584	38448.74
451.791	39839.31
451.997	39663.18
452.203	40076.87
452.409	40009.29
452.615	39827.02
452.821	38647.39
453.027	38366.82
453.233	40332.87
453.44	38485.6
453.646	38856.28
453.852	39276.12
454.058	40087.11
454.264	38747.74
454.47	39884.36
454.676	38598.24
454.882	39872.07
455.088	36519.55
455.294	37017.21
455.5	37508.72
455.705	37480.05
455.911	36302.46
456.117	35618.44
456.323	35417.74
456.529	33746.6
456.735	35270.29
456.941	33920.68
457.147	33666.73
457.352	32626.36
457.558	32106.18
457.764	32612.03
457.97	31610.57
458.176	30944.98
458.381	31069.9
458.587	29404.91
458.793	29423.34
458.999	27965.18
459.204	30271.2
459.41	28841.71
459.616	27330.31
459.821	27352.84
460.027	27277.07
460.233	26900.24
460.438	25378.6
460.644	25782.05
460.85	24500.02
461.055	24274.74
461.261	24282.94
461.466	22384.47
461.672	21718.88
461.878	23209.8
462.083	21610.34
462.289	21624.67
462.494	21100.39
462.7	20182.9
462.905	19558.27
463.111	20365.17
463.316	20354.93
463.522	19740.54
463.727	19963.77
463.932	19957.63
464.138	19398.53
464.343	19810.17
464.549	19285.89
464.754	20012.92
464.959	19640.19
465.165	19300.23
465.37	18737.04
465.575	18290.58
465.781	19099.53
465.986	19163.01
466.191	18364.31
466.397	17989.53
466.602	17192.87
466.807	17854.36
467.012	17797.02
467.218	17581.98
467.423	17491.87
467.628	17801.12
467.833	18386.83
468.038	17491.87
468.244	17248.16
468.449	17782.68
468.654	16979.88
468.859	17037.22
469.064	16949.16
469.269	16070.58
469.474	16299.95
469.679	16820.14
469.885	16185.27
470.09	16564.14
470.295	16508.85
470.5	16172.98
470.705	16236.47
470.91	15818.68
471.115	15482.81
471.32	15988.66
471.525	15878.07
471.73	15519.68
471.935	15269.83
472.139	14876.62
472.344	15062.98
472.549	14919.62
472.754	14634.96
472.959	14313.42
473.164	14045.14
473.369	14024.66
473.574	14505.93
473.778	14462.93
473.983	14215.12
474.188	14063.57
474.393	13586.4
474.598	13524.96
474.802	13369.31
475.007	13434.85
475.212	13354.97
475.417	12929
475.621	12931.05
475.826	12967.91
476.031	12742.63
476.235	12361.71
476.44	12869.61
476.645	12355.57
476.849	12376.05
477.054	12120.05
477.259	11962.36
477.463	11950.07
477.668	11810.81
477.872	12193.78
478.077	11755.51
478.282	11358.21
478.486	11323.39
478.691	11411.45
478.895	11386.88
479.1	10993.67
479.304	11241.47
479.509	10840.07
479.713	11059.2
479.918	10903.56
480.122	10487.82
480.326	10823.69
480.531	10815.49
480.735	10788.87
480.94	10602.5
481.144	10811.4
481.348	10414.09
481.553	10561.55
481.757	10373.13
481.961	10614.79
482.166	10670.09
482.37	10469.39
482.574	10242.06
482.778	10532.87
482.983	10536.97
483.187	10381.32
483.391	10588.17
483.595	10448.91
483.8	10240.01
484.004	10401.8
484.208	10430.48
484.412	10379.28
484.616	10379.28
484.821	10504.2
485.025	10201.1
485.229	10321.93
485.433	10291.21
485.637	10438.67
485.841	10289.17
486.045	10201.1
486.249	10369.04
486.453	10323.98
486.657	10293.26
486.861	10227.73
487.065	10190.86
487.269	10268.69
487.473	10192.91
487.677	10596.36
487.881	10469.39
488.085	10453
488.289	10502.15
488.493	10489.87
488.697	10174.48
488.901	10428.43
489.105	10534.92
489.309	10602.5
489.512	10520.59
489.716	10575.88
489.92	10561.55
490.124	10551.31
490.328	10694.66
490.531	10698.76
490.735	10715.14
490.939	10805.25
491.143	10715.14
491.346	10629.13
491.55	10835.97
491.754	10725.38
491.958	10788.87
492.161	10936.32
492.365	10881.03
492.569	11139.07
492.772	10940.42
492.976	11061.25
493.18	10969.09
493.383	11444.22
493.587	11247.62
493.79	11534.33
493.994	11280.38
494.197	11485.18
494.401	11483.13
494.605	11661.3
494.808	11780.09
495.012	11649.02
495.215	11868.15
495.419	11849.72
495.622	11702.26
495.825	12066.8
496.029	12120.05
496.232	12519.4
496.436	12169.2
496.639	12623.85
496.843	12394.48
497.046	12812.26
497.249	12943.33
497.453	12906.47
497.656	12834.79
497.859	13080.55
498.063	13352.93
498.266	13451.23
498.469	13354.97
498.673	13408.22
498.876	13676.51
499.079	14000.09
499.282	13895.64
499.485	14395.34
499.689	14317.52
499.892	14622.67
500.095	14501.84
500.298	14921.67
500.501	14720.97
500.705	14958.53
500.908	15263.68
501.111	15214.53
501.314	15458.24
501.517	15910.84
501.72	16003
501.923	16179.12
502.126	16136.12
502.329	16447.41
502.532	16689.07
502.735	16742.32
502.938	16926.63
503.141	17121.19
503.344	17373.09
503.547	17280.93
503.75	17684.38
503.953	17721.24
504.156	18216.85
504.359	18161.56
504.562	18579.34
504.765	18481.04
504.968	18909.07
505.17	18884.49
505.373	19011.46
505.576	19455.87
505.779	19470.21
505.982	19937.15
506.185	20234.1
506.387	20258.68
506.59	20260.73
506.793	20615.02
506.996	20785.01
507.198	21141.35
507.401	21051.24
507.604	21366.63
507.807	21757.79
508.009	21942.11
508.212	21938.01
508.415	22640.47
508.617	22830.93
508.82	22742.86
509.022	22310.74
509.225	23174.99
509.428	23406.41
509.63	23652.16
509.833	23633.73
510.035	24254.26
510.238	24153.91
510.44	24352.57
510.643	24928.05
510.845	25052.97
511.048	24956.72
511.25	25364.26
511.453	25466.66
511.655	26547.99
511.858	26109.72
512.06	26046.24
512.262	26556.18
512.465	26689.3
512.667	27160.33
512.87	27369.23
513.072	27019.02
513.274	27803.39
513.477	28231.42
513.679	28491.51
513.881	28706.55
514.084	28821.23
514.286	29110
514.488	29161.2
514.69	29980.39
514.893	29839.08
515.095	29886.18
515.297	30430.94
515.499	30801.62
515.701	30766.81
515.904	31057.62
516.106	31575.75
516.308	31565.51
516.51	32048.83
516.712	32054.98
516.914	32347.84
517.116	32894.64
517.318	32931.51
517.52	33097.39
517.722	33052.34
517.925	33681.06
518.127	34387.61
518.329	34289.31
518.531	34231.97
518.733	34860.69
518.935	35198.61
519.136	35344.02
519.338	35602.06
519.54	35927.69
519.742	36193.92
519.944	36226.69
520.146	37013.11
520.348	36808.31
520.55	37215.86
520.752	37353.07
520.954	37920.36
521.155	37705.32
521.357	38344.29
521.559	38463.07
521.761	38737.5
521.963	38678.11
522.164	38909.53
522.366	39468.62
522.568	39466.58
522.77	39824.97
522.971	40320.58
523.173	40191.56
523.375	40750.65
523.576	40552
523.778	40465.99
523.98	41387.57
524.181	41397.81
524.383	41770.54
524.584	41834.03
524.786	41780.78
524.988	41449.01
525.189	42083.88
525.391	42257.96
525.592	42495.52
525.794	42753.57
525.995	42925.6
526.197	42929.69
526.398	43042.33
526.6	43615.76
526.801	43580.95
527.003	43576.85
527.204	43781.65
527.406	44191.24
527.607	43994.64
527.808	44473.86
528.01	43537.94
528.211	44340.74
528.412	45282.81
528.614	44877.31
528.815	44975.61
529.016	45307.38
529.218	44951.04
529.419	44928.51
529.62	45456.89
529.822	44791.3
530.023	45047.29
530.224	45475.32
530.425	45364.73
530.626	45112.83
530.828	45168.12
531.029	46036.46
531.23	45188.6
531.431	45737.46
531.632	45266.42
531.833	45825.52
532.035	45772.27
532.236	46102
532.437	46011.88
532.638	45852.14
532.839	46540.26
533.04	46419.43
533.241	46126.57
533.442	46583.27
533.643	46331.37
533.844	46069.23
534.045	46339.56
534.246	45741.55
534.447	46093.8
534.648	46206.44
534.849	46323.18
535.05	46058.99
535.251	46401
535.451	46271.98
535.652	46493.16
535.853	46425.57
536.054	46087.66
536.255	46013.93
536.456	45938.16
536.657	46839.26
536.857	46413.29
537.058	46042.6
537.259	46570.98
537.46	46411.24
537.66	46575.08
537.861	46454.25
538.062	46028.27
538.263	46509.54
538.463	46274.02
538.664	46194.15
538.865	46204.39
539.065	46577.12
539.266	46085.61
539.466	46702.05
539.667	46112.24
539.868	46513.64
540.068	46566.88
540.269	46241.26
540.469	46577.12
540.67	46061.04
540.87	46310.89
541.071	46253.54
541.271	46259.69
541.472	45964.78
541.672	45995.5
541.873	45891.05
542.073	45544.95
542.274	46581.22
542.474	45942.25
542.675	45604.34
542.875	46650.85
543.075	46212.59
543.276	45479.41
543.476	46597.6
543.676	45401.59
543.877	46231.02
544.077	46128.62
544.277	45913.58
544.478	46196.2
544.678	45964.78
544.878	46003.69
545.078	46290.41
545.279	45641.2
545.479	45452.79
545.679	46028.27
545.879	45968.88
546.079	45684.21
546.28	45612.53
546.48	45110.78
546.68	45893.1
546.88	46134.76
547.08	45915.63
547.28	45624.82
547.48	46003.69
547.68	45819.38
547.88	45635.06
548.081	45788.66
548.281	46175.72
548.481	45577.72
548.681	45676.02
548.881	45694.45
549.081	45735.41
549.28	45620.72
549.48	45592.05
549.68	45403.64
549.88	46054.89
550.08	45850.1
550.28	45792.75
550.48	45393.4
550.68	45929.97
550.88	45590
551.08	45499.89
551.279	45397.49
551.479	45260.28
551.679	45807.09
551.879	45487.6
552.079	45690.35
552.278	45137.4
552.478	45325.82
552.678	45207.03
552.878	45428.21
553.077	45534.71
553.277	45149.69
553.477	45929.97
553.676	45409.78
553.876	45415.93
554.076	45235.7
554.275	45164.03
554.475	44725.76
554.674	45024.76
554.874	45200.89
555.074	45200.89
555.273	45037.05
555.473	45491.7
555.672	44887.55
555.872	44934.65
556.071	45346.29
556.271	45051.39
556.47	45159.93
556.67	44649.99
556.869	45035
557.068	44869.12
557.268	44576.26
557.467	44965.37
557.667	44447.24
557.866	44674.56
558.065	44756.48
558.265	44320.26
558.464	44131.85
558.663	44719.62
558.863	43972.11
559.062	44809.73
559.261	44221.96
559.461	44357.13
559.66	43920.91
559.859	44242.44
560.058	43779.6
560.258	43992.59
560.457	44076.55
560.656	44101.13
560.855	43920.91
561.054	44033.55
561.253	43888.14
561.453	43849.23
561.652	44027.4
561.851	43576.85
562.05	43413.01
562.249	43320.85
562.448	43775.5
562.647	43324.95
562.846	43316.76
563.045	43503.12
563.244	43263.51
563.443	43791.89
563.642	42874.4
563.841	43525.65
564.04	43273.75
564.239	43374.1
564.438	42876.44
564.637	43257.37
564.836	43296.28
565.035	42720.8
565.234	42960.41
565.432	42491.43
565.631	42313.25
565.83	42690.08
566.029	42667.55
566.228	42278.44
566.427	42104.36
566.625	41864.75
566.824	41528.88
567.023	42167.85
567.222	41541.17
567.42	42249.77
567.619	41610.8
567.818	41854.51
568.016	41907.76
568.215	41799.21
568.414	41633.33
568.612	41848.36
568.811	41446.96
569.01	41780.78
569.208	40971.83
569.407	41850.41
569.605	40922.68
569.804	41788.97
570.002	40908.35
570.201	41141.81
570.4	41035.32
570.598	40830.52
570.797	40296
570.995	40588.86
571.193	39917.13
571.392	40582.72
571.59	40232.52
571.789	40166.98
571.987	40080.97
572.186	40529.47
572.384	40154.69
572.582	40433.22
572.781	40240.71
572.979	39269.97
573.177	39990.86
573.376	39970.38
573.574	39331.41
573.772	39927.37
573.971	39079.51
574.169	39235.16
574.367	38897.24
574.565	39556.69
574.763	39183.96
574.962	38919.77
575.16	38575.71
575.358	39009.88
575.556	38409.82
575.754	38909.53
575.952	38344.29
576.151	38469.22
576.349	38254.18
576.547	38381.15
576.745	38307.43
576.943	38239.84
577.141	37946.98
577.339	38418.02
577.537	37733.99
577.735	37803.63
577.933	37578.35
578.131	37502.57
578.329	37269.11
578.527	37138.04
578.725	37168.76
578.923	37246.58
579.121	37009.01
579.319	37183.09
579.516	37539.44
579.714	37269.11
579.912	36931.19
580.11	37232.24
580.308	37391.98
580.506	36546.17
580.704	36433.53
580.901	36626.04
581.099	36695.67
581.297	36417.15
581.495	36300.42
581.692	36519.55
581.89	35876.49
582.088	35980.93
582.285	35716.75
582.483	36073.09
582.681	35960.45
582.878	35618.44
583.076	35827.34
583.274	35905.16
583.471	35247.76
583.669	35446.41
583.866	34940.57
584.064	35444.37
584.262	34842.26
584.459	35210.9
584.657	34664.09
584.854	35208.85
585.052	34522.78
585.249	34729.62
585.447	34641.56
585.644	34160.29
585.841	34328.22
586.039	34737.82
586.236	33719.98
586.434	33990.31
586.631	33500.84
586.828	34004.64
587.026	34025.12
587.223	33476.27
587.42	33724.07
587.618	33762.98
587.815	33506.99
588.012	33445.55
588.21	33410.73
588.407	33615.53
588.604	33134.26
588.801	32863.93
588.999	32712.38
589.196	32816.82
589.393	32820.92
589.59	32399.04
589.787	32976.56
589.984	32796.34
590.182	32143.04
590.379	32528.06
590.576	32263.87
590.773	32073.41
590.97	31854.28
591.167	32247.49
591.364	31725.25
591.561	31825.61
591.758	31643.34
591.955	31672.01
592.152	31839.94
592.349	31366.86
592.546	31989.44
592.743	31289.04
592.94	31110.86
593.137	31399.63
593.334	31190.73
593.531	30697.17
593.727	30805.72
593.924	30611.16
594.121	30379.74
594.318	30822.1
594.515	30568.15
594.712	30623.45
594.908	30416.6
595.105	30545.62
595.302	30099.17
595.499	30289.63
595.696	29996.77
595.892	30019.3
596.089	30152.41
596.286	30351.07
596.482	29753.06
596.679	29683.43
596.876	29763.3
597.072	29538.02
597.269	29538.02
597.466	29325.04
597.662	29314.8
597.859	29292.27
598.055	28993.26
598.252	28706.55
598.448	28925.68
598.645	28774.13
598.841	28577.53
599.038	28833.52
599.234	28731.12
599.431	28376.83
599.627	28598.01
599.824	28350.2
600.02	28112.64
600.217	28403.45
600.413	27830.02
600.609	27899.65
600.806	27868.93
601.002	27719.43
601.198	27623.17
601.395	27539.21
601.591	27821.83
601.787	27602.69
601.984	27584.26
602.18	27584.26
602.376	27170.57
602.572	27070.22
602.769	27201.29
602.965	26896.14
603.161	27029.26
603.357	26713.88
603.553	26724.11
603.75	26869.52
603.946	26574.61
604.142	27072.27
604.338	25902.88
604.534	26265.37
604.73	26324.76
604.926	26339.1
605.122	26222.36
605.318	25947.93
605.514	26085.15
605.71	26134.3
605.906	26015.52
606.102	25780
606.298	26124.06
606.494	25427.75
606.69	25894.69
606.886	25790.24
607.082	25241.39
607.278	25435.94
607.474	25057.07
607.67	25429.8
607.866	25157.42
608.062	25515.81
608.257	24919.85
608.453	25235.24
608.649	25188.14
608.845	24983.34
609.041	24887.09
609.236	25167.66
609.432	24796.98
609.628	24743.73
609.824	25057.07
610.019	24401.72
610.215	24579.89
610.411	24637.23
610.606	24569.65
610.802	24655.67
610.998	24782.64
611.193	24258.36
611.389	24500.02
611.584	24170.3
611.78	23926.59
611.976	24401.72
612.171	24393.53
612.367	24231.74
612.562	24184.63
612.758	23826.24
612.953	23795.52
613.149	24004.41
613.344	23717.7
613.539	24115
613.735	23904.06
613.93	23670.59
614.126	23639.87
614.321	23553.86
614.517	23822.14
614.712	23691.07
614.907	23400.26
615.103	23715.65
615.298	23568.2
615.493	23445.32
615.688	23088.97
615.884	23437.13
616.079	23213.9
616.274	23320.39
616.47	22865.74
616.665	23406.41
616.86	23183.18
617.055	23201.61
617.25	22886.22
617.445	22837.07
617.641	22632.27
617.836	22957.9
618.031	22601.55
618.226	22974.28
618.421	22718.29
618.616	22478.68
618.811	22290.26
619.006	22859.6
619.201	21931.87
619.396	22218.58
619.591	21991.26
619.786	22200.15
619.981	21714.78
620.176	22052.7
620.371	21770.08
620.566	21938.01
620.761	21653.34
620.956	21692.26
621.151	21440.36
621.346	21526.37
621.541	21010.28
621.735	21305.19
621.93	21165.93
622.125	21055.34
622.32	20473.71
622.515	20711.28
622.709	20866.92
622.904	20451.19
623.099	20295.54
623.294	20375.41
623.488	20250.49
623.683	20172.66
623.878	19955.58
624.072	20160.38
624.267	19607.42
624.462	19720.06
624.656	19367.81
624.851	19586.94
625.046	19621.76
625.24	19302.28
625.435	19048.33
625.629	18859.91
625.824	19099.53
626.018	18972.55
626.213	18524.05
626.407	18884.49
626.602	18526.1
626.796	18587.54
626.991	18628.49
627.185	18169.75
627.38	18014.1
627.574	18235.28
627.768	18276.24
627.963	17973.14
628.157	17756.06
628.352	17870.75
628.546	17733.53
628.74	17807.26
628.935	17436.58
629.129	17461.15
629.323	17233.83
629.517	16957.35
629.712	17203.11
629.906	16848.81
630.1	16830.38
630.294	16992.17
630.489	16687.02
630.683	16756.65
630.877	16580.53
631.071	16590.77
631.265	16750.51
631.459	16306.1
631.653	16369.58
631.848	16109.49
632.042	16013.24
632.236	16052.15
632.43	15884.22
632.624	15804.35
632.818	15984.57
633.012	15687.61
633.206	15335.36
633.4	15704
633.594	15546.3
633.788	15564.73
633.982	15192
634.176	15493.05
634.369	15149
634.563	14976.97
634.757	14948.29
634.951	14960.58
635.145	15052.74
635.339	14895.05
635.533	14696.39
635.726	14925.77
635.92	14454.73
636.114	14338
636.308	14464.97
636.501	14378.96
636.695	14383.06
636.889	14065.62
637.083	14147.54
637.276	14077.91
637.47	13832.15
637.664	13787.1
637.857	13903.83
638.051	13856.73
638.244	13623.26
638.438	13807.58
638.632	13420.51
638.825	13354.97
639.019	13228
639.212	13008.87
639.406	13307.87
639.599	13148.13
639.793	13146.08
639.986	12765.16
640.18	13234.14
640.373	12859.37
640.567	12711.91
640.76	12767.21
640.954	12597.23
641.147	12330.99
641.34	12453.87
641.534	12414.96
641.727	12433.39
641.92	12242.93
642.114	12296.18
642.307	12238.83
642.5	12150.77
642.694	12034.04
642.887	11943.92
643.08	12064.75
643.273	12031.99
643.467	11608.06
643.66	11816.95
643.853	11773.94
644.046	11436.03
644.239	11581.43
644.432	11223.04
644.626	11657.21
644.819	11210.75
645.012	11536.38
645.205	11403.26
645.398	11378.69
645.591	11046.91
645.784	11116.55
645.977	11055.11
646.17	10899.46
646.363	10844.17
646.556	10670.09
646.749	10682.38
646.942	11026.43
647.135	10610.7
647.328	10682.38
647.521	10768.39
647.714	10674.18
647.907	10307.6
648.099	10354.7
648.292	10371.08
648.485	10332.17
648.678	10115.09
648.871	10053.65
649.064	10252.3
649.256	10182.67
649.449	9975.83
649.642	10035.22
649.835	9922.58
650.027	9715.73
650.22	9775.13
650.413	9744.41
650.605	9773.08
650.798	9662.49
650.991	9480.22
651.183	9633.82
651.376	9472.03
651.568	9377.82
651.761	9437.21
651.954	9236.51
652.146	9322.52
652.339	9228.32
652.531	9308.19
652.724	8953.89
652.916	9101.34
653.109	8992.8
653.301	9080.86
653.494	8919.07
653.686	8732.71
653.879	9064.48
654.071	8917.03
654.263	8790.05
654.456	8814.63
654.648	8888.36
654.84	8542.25
655.033	8904.74
655.225	8579.11
655.417	8611.88
655.61	8618.02
655.802	8560.68
655.994	8396.84
656.186	8312.88
656.379	8085.55
656.571	8347.69
656.763	8177.71
656.955	8284.2
657.148	8208.43
657.34	8331.31
657.532	8138.8
657.724	7915.57
657.916	8060.98
658.108	8024.11
658.3	7852.08
658.492	7905.33
658.684	7843.89
658.876	7899.19
659.068	8007.73
659.26	7733.3
659.452	7792.69
659.644	7678.01
659.836	7579.7
660.028	7524.41
660.22	7366.71
660.412	7553.08
660.604	7381.05
660.796	7340.09
660.988	7239.74
661.18	7301.18
661.372	7254.08
661.563	7290.94
661.755	7196.73
661.947	7432.25
662.139	7159.87
662.331	7225.4
662.522	6993.98
662.714	6846.53
662.906	7004.22
663.097	6897.73
663.289	6930.5
663.481	6760.52
663.673	6750.28
663.864	6721.6
664.056	6664.26
664.247	6760.52
664.439	6690.88
664.631	6611.01
664.822	6686.79
665.014	6631.49
665.205	6613.06
665.397	6514.76
665.588	6424.65
665.78	6318.15
665.971	6275.15
666.163	6484.04
666.354	6398.03
666.546	6375.5
666.737	6355.02
666.929	6375.5
667.12	6260.81
667.311	6113.36
667.503	6287.43
667.694	6211.66
667.885	6148.17
668.077	6209.61
668.268	5980.24
668.459	6129.74
668.651	6010.96
668.842	6015.05
669.033	5992.53
669.224	5840.98
669.416	6088.78
669.607	6010.96
669.798	5898.32
669.989	5859.41
670.18	5806.16
670.371	5718.1
670.563	5638.23
670.754	5709.91
670.945	5656.66
671.136	5722.2
671.327	5668.95
671.518	5701.72
671.709	5709.91
671.9	5654.61
672.091	5650.52
672.282	5482.58
672.473	5576.79
672.664	5689.43
672.855	5451.86
673.046	5361.75
673.237	5564.5
673.428	5402.71
673.619	5447.77
673.809	5496.92
674	5339.23
674.191	5390.42
674.382	5271.64
674.573	5341.27
674.764	5396.57
674.954	5220.44
675.145	5312.6
675.336	5206.11
675.527	5218.4
675.717	5150.81
675.908	5091.42
676.099	5374.04
676.289	5183.58
676.48	5146.72
676.671	5097.56
676.861	5169.24
677.052	4960.35
677.243	5011.55
677.433	4964.45
677.624	4974.69
677.814	4857.95
678.005	4911.2
678.195	5005.41
678.386	4890.72
678.576	4845.66
678.767	4866.14
678.957	4886.62
679.148	4878.43
679.338	4763.75
679.529	4950.11
679.719	4843.62
679.909	4950.11
680.1	4857.95
680.29	4872.29
680.481	4878.43
680.671	4866.14
680.861	4622.44
681.052	4767.84
681.242	4704.35
681.432	4716.64
681.622	4726.88
681.813	4505.7
682.003	4730.98
682.193	4692.07
682.383	4634.72
682.573	4673.64
682.764	4628.58
682.954	4685.92
683.144	4702.31
683.334	4513.89
683.524	4780.13
683.714	4462.69
683.904	4614.24
684.094	4638.82
684.284	4583.52
684.474	4462.69
684.664	4423.78
684.854	4419.69
685.044	4456.55
685.234	4481.13
685.424	4558.95
685.614	4505.7
685.804	4565.09
685.994	4409.45
686.184	4425.83
686.374	4460.65
686.564	4302.95
686.753	4337.77
686.943	4376.68
687.133	4354.15
687.323	4307.05
687.513	4251.75
687.702	4294.76
687.892	4204.65
688.082	4286.57
688.272	4276.33
688.461	4204.65
688.651	4307.05
688.841	4055.15
689.03	4202.6
689.22	4132.97
689.41	4278.38
689.599	4104.3
689.789	4032.62
689.979	4071.53
690.168	3981.42
690.358	3924.08
690.547	4069.48
690.737	3948.65
690.926	3971.18
691.116	3997.81
691.305	3993.71
691.495	3977.33
691.684	3842.16
691.874	3932.27
692.063	3975.28
692.252	3887.22
692.442	3840.11
692.631	3795.06
692.82	3891.31
693.01	3674.23
693.199	3842.16
693.388	3801.2
693.578	3737.71
693.767	3653.75
693.956	3795.06
694.146	3770.48
694.335	3666.03
694.524	3659.89
694.713	3670.13
694.902	3600.5
695.092	3666.03
695.281	3596.4
695.47	3557.49
695.659	3416.18
695.848	3688.56
696.037	3580.02
696.226	3541.11
696.415	3588.21
696.604	3620.98
696.793	3502.2
696.982	3455.09
697.171	3524.72
697.36	3580.02
697.549	3477.62
697.738	3412.09
697.927	3379.32
698.116	3465.33
698.305	3623.03
698.494	3563.64
698.683	3432.57
698.872	3526.77
699.061	3442.81
699.25	3494.01
699.438	3557.49
699.627	3309.69
699.816	3467.38
700.005	3330.17
700.193	3471.48
700.382	3407.99
700.571	3391.61
700.76	3498.1
700.948	3483.77
701.137	3424.37
701.326	3424.37
701.514	3434.61
701.703	3260.54
701.892	3405.94
702.08	3369.08
702.269	3358.84
702.457	3272.82
702.646	3227.77
702.834	3319.93
703.023	3266.68
703.212	3338.36
703.4	3440.76
703.589	3303.54
703.777	3420.28
703.965	3207.29
704.154	3334.26
704.342	3297.4
704.531	3317.88
704.719	3260.54
704.907	3305.59
705.096	3162.23
705.284	3063.93
705.472	3246.2
705.661	3151.99
705.849	3213.43
706.037	3240.06
706.226	3072.12
706.414	3049.6
706.602	3014.78
706.79	3133.56
706.979	3068.03
707.167	3264.63
707.355	2957.44
707.543	2926.72
707.731	3076.22
707.919	3065.98
708.107	3000.44
708.296	3102.84
708.484	2932.86
708.672	3047.55
708.86	3018.88
709.048	3041.4
709.236	3049.6
709.424	2959.49
709.612	2949.25
709.8	3080.32
709.988	2922.62
710.176	3002.49
710.364	2984.06
710.551	3022.97
710.739	3049.6
710.927	2957.44
711.115	2941.05
711.303	2926.72
711.491	2963.58
711.679	2932.86
711.866	2994.3
712.054	2977.92
712.242	2971.77
712.43	2982.01
712.617	2994.3
712.805	2924.67
712.993	2902.14
713.181	2785.41
713.368	2947.2
713.556	2859.14
713.744	2809.98
713.931	2936.96
714.119	2859.14
714.306	2873.47
714.494	2846.85
714.682	2836.61
714.869	2795.65
715.057	2777.22
715.244	2754.69
715.432	2879.61
715.619	2715.78
715.807	2777.22
715.994	2793.6
716.182	2756.74
716.369	2789.5
716.556	2697.35
716.744	2793.6
716.931	2801.79
717.119	2736.26
717.306	2809.98
717.493	2685.06
717.681	2744.45
717.868	2881.66
718.055	2656.39
718.242	2779.26
718.43	2799.74
718.617	2687.11
718.804	2646.15
718.991	2732.16
719.179	2670.72
719.366	2787.46
719.553	2648.19
719.74	2728.07
719.927	2717.83
720.114	2662.53
720.301	2619.52
720.488	2662.53
720.676	2637.95
720.863	2650.24
721.05	2705.54
721.237	2599.04
721.424	2547.84
721.611	2654.34
721.798	2707.59
721.985	2656.39
722.172	2590.85
722.358	2607.23
722.545	2488.45
722.732	2529.41
722.919	2732.16
723.106	2605.19
723.293	2625.67
723.48	2558.08
723.667	2525.32
723.853	2562.18
724.04	2529.41
724.227	2580.61
724.414	2556.04
724.6	2629.76
724.787	2558.08
724.974	2613.38
725.161	2484.36
725.347	2572.42
725.534	2613.38
725.72	2457.73
725.907	2502.79
726.094	2502.79
726.28	2480.26
726.467	2422.92
726.653	2437.25
726.84	2549.89
727.027	2588.8
727.213	2353.29
727.4	2506.88
727.586	2474.12
727.773	2486.4
727.959	2515.08
728.145	2416.77
728.332	2406.53
728.518	2418.82
728.705	2474.12
728.891	2492.55
729.077	2459.78
729.264	2459.78
729.45	2365.57
729.636	2422.92
729.823	2427.01
730.009	2336.9
730.195	2457.73
730.382	2406.53
730.568	2482.31
730.754	2357.38
730.94	2474.12
731.126	2488.45
731.313	2459.78
731.499	2347.14
731.685	2435.21
731.871	2306.18
732.057	2379.91
732.243	2361.48
732.429	2478.21
732.615	2328.71
732.801	2457.73
732.987	2347.14
733.173	2437.25
733.359	2431.11
733.545	2306.18
733.731	2302.09
733.917	2326.66
734.103	2330.76
734.289	2359.43
734.475	2263.18
734.661	2351.24
734.847	2367.62
735.033	2365.57
735.219	2252.94
735.404	2336.9
735.59	2343.05
735.776	2263.18
735.962	2277.51
736.148	2353.29
736.333	2367.62
736.519	2369.67
736.705	2295.94
736.89	2345.09
737.076	2322.57
737.262	2261.13
737.447	2195.59
737.633	2277.51
737.819	2261.13
738.004	2154.63
738.19	2224.26
738.375	2207.88
738.561	2171.02
738.747	2252.94
738.932	2066.57
739.118	2216.07
739.303	2125.96
739.489	2168.97
739.674	2195.59
739.859	2115.72
740.045	2289.8
740.23	2156.68
740.416	2150.54
740.601	2134.15
740.786	2107.53
740.972	1929.36
741.157	2117.77
741.342	2044.04
741.528	2121.87
741.713	2005.13
741.898	2101.39
742.084	2056.33
742.269	2074.76
742.454	2007.18
742.639	2089.1
742.824	2056.33
743.01	2230.41
743.195	2005.13
743.38	1980.56
743.565	2013.32
743.75	2029.71
743.935	2023.56
744.12	1921.17
744.305	1941.65
744.49	2013.32
744.675	1986.7
744.86	1912.97
745.045	1935.5
745.23	2039.95
745.415	1865.87
745.6	1857.68
745.785	1781.9
745.97	1953.93
746.155	1974.41
746.34	1781.9
746.525	1853.58
746.71	1880.21
746.895	1763.47
747.079	1726.61
747.264	1835.15
747.449	1851.53
747.634	1794.19
747.819	1755.28
748.003	1677.46
748.188	1706.13
748.373	1611.92
748.557	1749.14
748.742	1687.7
748.927	1740.94
749.111	1720.46
749.296	1665.17
749.481	1745.04
749.665	1710.22
749.85	1632.4
750.034	1659.03
750.219	1708.18
750.404	1663.12
750.588	1618.07
750.773	1530
750.957	1560.72
751.141	1482.9
751.326	1566.87
751.51	1437.84
751.695	1577.11
751.879	1570.96
752.064	1517.72
752.248	1642.64
752.432	1523.86
752.617	1548.44
752.801	1536.15
752.985	1376.41
753.17	1474.71
753.354	1384.6
753.538	1441.94
753.722	1425.56
753.907	1443.99
754.091	1376.41
754.275	1484.95
754.459	1360.02
754.643	1312.92
754.828	1392.79
755.012	1394.84
755.196	1321.11
755.38	1265.82
755.564	1294.49
755.748	1343.64
755.932	1269.91
756.116	1300.63
756.3	1314.97
756.484	1292.44
756.668	1298.58
756.852	1310.87
757.036	1220.76
757.22	1245.34
757.404	1087.64
757.588	1294.49
757.772	1163.42
757.956	1171.61
758.14	1179.8
758.323	1173.66
758.507	1179.8
758.691	1122.46
758.875	1251.48
759.059	1237.14
759.242	1149.08
759.426	1245.34
759.61	1173.66
759.794	1126.55
759.977	1155.23
760.161	1171.61
760.345	1083.55
760.528	1192.09
760.712	1114.27
760.895	1067.16
761.079	1175.7
761.263	1061.02
761.446	1196.18
761.63	1101.98
761.813	1091.74
761.997	1013.92
762.18	991.39
762.364	1073.31
762.547	942.24
762.731	964.76
762.914	1065.11
763.098	991.39
763.281	1015.96
763.464	972.96
763.648	1003.68
763.831	970.91
764.015	1036.44
764.198	1048.73
764.381	979.1
764.564	972.96
764.748	950.43
764.931	995.48
765.114	958.62
765.297	952.48
765.481	993.44
765.664	946.33
765.847	960.67
766.03	921.76
766.213	964.76
766.397	956.57
766.58	970.91
766.763	901.28
766.946	954.52
767.129	888.99
767.312	794.78
767.495	911.52
767.678	874.65
767.861	893.09
768.044	872.61
768.227	960.67
768.41	919.71
768.593	854.17
768.776	911.52
768.959	882.85
769.142	905.37
769.324	888.99
769.507	884.89
769.69	854.17
769.873	852.13
770.056	868.51
770.239	876.7
770.421	794.78
770.604	854.17
770.787	796.83
770.97	784.54
771.152	737.44
771.335	696.48
771.518	792.73
771.7	786.59
771.883	796.83
772.066	829.6
772.248	772.25
772.431	815.26
772.613	725.15
772.796	770.21
772.978	725.15
773.161	800.93
773.343	704.67
773.526	837.79
773.708	698.53
773.891	805.02
774.073	782.49
774.256	786.59
774.438	737.44
774.621	727.2
774.803	782.49
774.985	694.43
775.168	721.06
775.35	692.38
775.532	680.1
775.715	624.8
775.897	723.1
776.079	682.14
776.261	630.95
776.444	614.56
776.626	729.25
776.808	708.77
776.99	690.34
777.173	671.9
777.355	680.1
777.537	721.06
777.719	630.95
777.901	673.95
778.083	620.71
778.265	561.31
778.447	653.47
778.629	663.71
778.811	643.23
778.993	555.17
779.175	667.81
779.357	635.04
779.539	516.26
779.721	630.95
779.903	671.9
780.085	594.08
780.267	655.52
780.449	616.61
780.631	641.18
780.812	540.83
780.994	579.75
781.176	469.16
781.358	506.02
781.54	450.72
781.721	491.68
781.903	557.22
782.085	530.59
782.267	618.66
782.448	495.78
782.63	546.98
782.812	540.83
782.993	516.26
783.175	473.25
783.357	471.2
783.538	479.4
783.72	475.3
783.901	528.55
784.083	540.83
784.264	460.96
784.446	432.29
784.627	458.92
784.809	516.26
784.99	430.24
785.172	477.35
785.353	499.88
785.535	458.92
785.716	465.06
785.897	420
786.079	417.96
786.26	401.57
786.441	417.96
786.623	401.57
786.804	403.62
786.985	385.19
787.167	377
787.348	381.09
787.529	440.48
787.71	389.28
787.891	381.09
788.073	385.19
788.254	409.76
788.435	428.2
788.616	348.33
788.797	366.76
788.978	342.18
789.159	315.56
789.34	393.38
789.522	364.71
789.703	420
789.884	297.13
790.065	434.34
790.246	385.19
790.427	346.28
790.607	401.57
790.788	417.96
790.969	311.46
791.15	344.23
791.331	352.42
791.512	329.89
791.693	282.79
791.874	313.51
792.054	368.81
792.235	389.28
792.416	288.93
792.597	258.21
792.778	336.04
792.958	329.89
793.139	329.89
793.32	346.28
793.5	239.78
793.681	213.16
793.862	282.79
794.042	272.55
794.223	258.21
794.404	346.28
794.584	317.61
794.765	374.95
794.945	282.79
795.126	297.13
795.306	395.43
795.487	278.69
795.667	299.17
795.848	321.7
796.028	266.41
796.209	319.65
796.389	260.26
796.57	256.17
796.75	229.54
796.93	270.5
797.111	245.93
797.291	272.55
797.471	245.93
797.652	315.56
797.832	217.26
798.012	219.3
798.192	204.97
798.373	231.59
798.553	247.97
798.733	215.21
798.913	250.02
799.093	219.3
799.274	192.68
799.454	299.17
799.634	149.67
799.814	250.02
799.994	213.16
800.174	207.02
800.354	213.16
800.534	135.34
800.714	207.02
800.894	147.62
801.074	176.3
801.254	209.06
801.434	229.54
801.614	288.93
801.794	239.78
801.974	788.64
802.154	239.78
802.334	188.58
802.514	207.02
802.693	233.64
802.873	204.97
803.053	254.12
803.233	241.83
803.413	194.73
803.592	256.17
803.772	164.01
803.952	172.2
804.131	133.29
804.311	176.3
804.491	250.02
804.67	202.92
804.85	186.54
805.03	245.93
805.209	174.25
805.389	192.68
805.568	192.68
805.748	190.63
805.928	233.64
806.107	172.2
806.287	221.35
806.466	155.82
806.646	182.44
806.825	170.15
807.004	149.67
807.184	159.91
807.363	207.02
807.543	194.73
807.722	149.67
807.901	237.74
808.081	196.78
808.26	102.57
808.439	164.01
808.619	213.16
808.798	200.87
808.977	235.69
809.156	297.13
809.336	147.62
809.515	258.21
809.694	198.82
809.873	172.2
810.052	190.63
810.231	272.55
810.411	168.1
810.59	170.15
810.769	174.25
810.948	182.44
811.127	170.15
811.306	186.54
811.485	159.91
811.664	180.39
811.843	125.1
812.022	98.47
812.201	127.14
812.38	200.87
812.559	106.67
812.737	149.67
812.916	211.11
813.095	180.39
813.274	133.29
813.453	176.3
813.632	137.38
813.811	147.62
813.989	102.57
814.168	180.39
814.347	161.96
814.526	180.39
814.704	157.86
814.883	94.38
815.062	168.1
815.24	133.29
815.419	55.47
815.598	178.34
815.776	84.14
815.955	164.01
816.133	116.9
816.312	82.09
816.49	98.47
816.669	75.95
816.847	123.05
817.026	153.77
817.204	141.48
817.383	131.24
817.561	59.56
817.74	182.44
817.918	172.2
818.097	139.43
818.275	106.67
818.453	139.43
818.632	114.86
818.81	73.9
818.988	147.62
819.167	77.99
819.345	155.82
819.523	92.33
819.701	157.86
819.879	57.51
820.058	141.48
820.236	143.53
820.414	151.72
820.592	168.1
820.77	75.95
820.948	49.32
821.127	55.47
821.305	166.06
821.483	114.86
821.661	172.2
821.839	135.34
822.017	106.67
822.195	90.28
822.373	161.96
822.551	100.52
822.729	151.72
822.907	98.47
823.085	112.81
823.262	110.76
823.44	114.86
823.618	102.57
823.796	164.01
823.974	49.32
824.152	106.67
824.329	24.75
824.507	108.71
824.685	94.38
824.863	39.08
825.04	116.9
825.218	172.2
825.396	2.22
825.574	161.96
825.751	176.3
825.929	92.33
826.107	34.99
826.284	131.24
826.462	98.47
826.639	75.95
826.817	67.75
826.994	225.45
827.172	123.05
827.349	207.02
827.527	41.13
827.704	61.61
827.882	49.32
828.059	141.48
828.237	4.27
828.414	75.95
828.591	18.6
828.769	90.28
828.946	53.42
829.124	116.9
829.301	71.85
829.478	110.76
829.655	106.67
829.833	137.38
830.01	28.84
830.187	100.52
830.364	77.99
830.542	69.8
830.719	135.34
830.896	12.46
831.073	24.75
831.25	86.19
831.427	37.03
831.604	102.57
831.782	24.75
831.959	161.96
832.136	28.84
832.313	49.32
832.49	57.51
832.667	90.28
832.844	20.65
833.021	106.67
833.198	104.62
833.374	75.95
833.551	100.52
833.728	96.43
833.905	94.38
834.082	69.8
834.259	116.9
834.436	110.76
834.612	0.17
834.789	174.25
834.966	92.33
835.143	100.52
835.319	28.84
835.496	100.52
835.673	92.33
835.85	157.86
836.026	59.56
836.203	188.58
836.38	69.8
836.556	116.9
836.733	-16.21
836.909	67.75
837.086	26.79
837.262	51.37
837.439	90.28
837.616	16.55
837.792	-26.45
837.968	82.09
838.145	10.41
838.321	84.14
838.498	100.52
838.674	90.28
838.851	86.19
839.027	43.18
839.203	20.65
839.38	98.47
839.556	14.51
839.732	123.05
839.909	2.22
840.085	114.86
840.261	34.99
840.437	32.94
840.614	65.71
840.79	4.27
840.966	30.89
841.142	57.51
841.318	37.03
841.494	96.43
841.671	34.99
841.847	69.8
842.023	34.99
842.199	16.55
842.375	108.71
842.551	10.41
842.727	16.55
842.903	123.05
843.079	114.86
843.255	55.47
843.431	55.47
843.607	65.71
843.783	-18.26
843.959	24.75
844.134	20.65
844.31	133.29
844.486	-22.36
844.662	88.23
844.838	26.79
845.013	28.84
845.189	135.34
845.365	104.62
845.541	32.94
845.716	12.46
845.892	65.71
846.068	14.51
846.244	10.41
846.419	116.9
846.595	45.23
846.77	39.08
846.946	69.8
847.122	164.01
847.297	22.7
847.473	12.46
847.648	-20.31
847.824	57.51
847.999	8.36
848.175	69.8
848.35	16.55
848.526	65.71
848.701	57.51
848.876	114.86
849.052	164.01
849.227	32.94
849.403	2.22
849.578	114.86
849.753	61.61
849.929	49.32
850.104	-28.5
850.279	75.95
850.454	94.38
850.63	65.71
850.805	2.22
850.98	57.51
851.155	37.03
851.33	77.99
851.505	37.03
851.681	131.24
851.856	-57.17
852.031	57.51
852.206	53.42
852.381	98.47
852.556	0.17
852.731	129.19
852.906	49.32
853.081	10.41
853.256	75.95
853.431	73.9
853.606	65.71
853.781	-44.88
853.956	-5.97
854.131	-42.84
854.305	26.79
854.48	77.99
854.655	16.55
854.83	-14.17
855.005	34.99
855.18	57.51
855.354	-8.02
855.529	55.47
855.704	28.84
855.879	8.36
856.053	59.56
856.228	131.24
856.403	8.36
856.577	12.46
856.752	110.76
856.926	-18.26
857.101	41.13
857.276	0.17
857.45	10.41
857.625	77.99
857.799	2.22
857.974	80.04
858.148	75.95
858.323	51.37
858.497	51.37
858.672	26.79
858.846	-16.21
859.02	12.46
859.195	24.75
859.369	73.9
859.543	43.18
859.718	67.75
859.892	-32.6
860.066	24.75
860.241	-1.88
860.415	-20.31
860.589	24.75
860.763	106.67
860.938	149.67
861.112	34.99
861.286	-53.08
861.46	45.23
861.634	0.17
861.808	65.71
861.982	-20.31
862.157	-24.4
862.331	51.37
862.505	-44.88
862.679	45.23
862.853	16.55
863.027	41.13
863.201	65.71
863.375	12.46
863.549	-48.98
863.722	22.7
863.896	10.41
864.07	24.75
864.244	26.79
864.418	20.65
864.592	106.67
864.766	-30.55
864.939	82.09
865.113	0.17
865.287	12.46
865.461	10.41
865.634	65.71
865.808	49.32
865.982	55.47
866.156	67.75
866.329	18.6
866.503	20.65
866.676	24.75
866.85	75.95
867.024	-32.6
867.197	39.08
867.371	114.86
867.544	53.42
867.718	-28.5
867.891	28.84
868.065	-14.17
868.238	-14.17
868.412	28.84
868.585	-1.88
868.759	-18.26
868.932	-12.12
869.105	-34.64
869.279	4.27
869.452	37.03
869.625	-12.12
869.799	-20.31
869.972	41.13
870.145	-1.88
870.319	26.79
870.492	-16.21
870.665	24.75
870.838	18.6
871.011	-57.17
871.185	47.27
871.358	26.79
871.531	8.36
871.704	8.36
871.877	28.84
872.05	-16.21
872.223	30.89
872.396	49.32
872.569	-38.74
872.742	65.71
872.915	59.56
873.088	0.17
873.261	28.84
873.434	-18.26
873.607	34.99
873.78	34.99
873.953	-8.02
874.126	2.22
874.299	67.75
874.471	32.94
874.644	16.55
874.817	-14.17
874.99	43.18
875.163	-10.07
875.335	-67.41
875.508	41.13
875.681	41.13
875.853	-24.4
876.026	24.75
876.199	14.51
876.371	8.36
876.544	-36.69
876.717	16.55
876.889	-59.22
877.062	-36.69
877.234	-32.6
877.407	32.94
877.579	41.13
877.752	-12.12
877.924	-18.26
878.097	37.03
878.269	67.75
878.442	41.13
878.614	-28.5
878.786	32.94
878.959	41.13
879.131	-8.02
879.303	-20.31
879.476	-24.4
879.648	-28.5
879.82	-10.07
879.993	24.75
880.165	37.03
880.337	-30.55
880.509	10.41
880.681	-81.75
880.854	-24.4
881.026	-5.97
881.198	98.47
881.37	-18.26
881.542	24.75
881.714	41.13
881.886	-55.12
882.058	65.71
882.23	16.55
882.402	-5.97
882.574	39.08
882.746	26.79
882.918	16.55
883.09	34.99
883.262	10.41
883.434	-46.93
883.606	65.71
883.778	0.17
883.95	26.79
884.122	116.9
884.293	-14.17
884.465	10.41
884.637	8.36
884.809	22.7
884.98	49.32
885.152	-8.02
885.324	67.75
885.496	-40.79
885.667	43.18
885.839	0.17
886.011	34.99
886.182	0.17
886.354	0.17
886.525	45.23
886.697	2.22
886.869	-32.6
887.04	-14.17
887.212	10.41
887.383	77.99
887.555	-40.79
887.726	24.75
887.897	2.22
888.069	26.79
888.24	41.13
888.412	28.84
888.583	2.22
888.754	65.71
888.926	-46.93
889.097	-36.69
889.268	2.22
889.44	-34.64
889.611	-71.51
889.782	2.22
889.953	8.36
890.125	41.13
890.296	-5.97
890.467	-81.75
890.638	0.17
890.809	0.17
890.98	-36.69
891.151	24.75
891.323	-16.21
891.494	-18.26
891.665	26.79
891.836	0.17
892.007	-44.88
892.178	16.55
892.349	32.94
892.52	67.75
892.691	49.32
892.862	73.9
893.032	-55.12
893.203	6.31
893.374	-32.6
893.545	-8.02
893.716	18.6
893.887	34.99
894.057	41.13
894.228	57.51
894.399	-30.55
894.57	22.7
894.74	-28.5
894.911	43.18
895.082	-53.08
895.253	-28.5
895.423	-40.79
895.594	28.84
895.764	-14.17
895.935	-85.84
896.106	34.99
896.276	16.55
896.447	16.55
896.617	24.75
896.788	-59.22
896.958	-46.93
897.129	-36.69
897.299	-28.5
897.47	65.71
897.64	24.75
897.81	28.84
897.981	37.03
898.151	4.27
898.322	12.46
898.492	0.17
898.662	-3.93
898.832	-24.4
899.003	41.13
899.173	123.05
899.343	-26.45
899.513	-30.55
