Data from USB4F104151__217__14-21-14-290.txt Node

Date: Thu Mar 13 14:21:14 EDT 2025
User: louis
Spectrometer: USB4F10415
Trigger mode: 4
Integration Time (sec): 2.000000E-2
Scans to average: 1
Electric dark correction enabled: true
Nonlinearity correction enabled: false
Boxcar width: 0
XAxis mode: Wavelengths
Number of Pixels in Spectrum: 3648
>>>>>Begin Spectral Data<<<<<
178.204	-79.02
178.424	-79.02
178.644	-79.02
178.864	-138.41
179.084	-158.89
179.304	39.76
179.524	-23.72
179.744	-3.24
179.964	-25.77
180.184	-9.39
180.404	19.29
180.624	23.38
180.844	33.62
181.064	-48.3
181.283	-36.01
181.503	27.48
181.723	2.9
181.943	-40.11
182.163	21.33
182.383	-1.19
182.602	35.67
182.822	56.15
183.042	-15.53
183.262	23.38
183.482	97.11
183.701	68.44
183.921	47.96
184.141	2.9
184.361	35.67
184.58	-17.58
184.8	23.38
185.02	11.09
185.239	11.09
185.459	64.34
185.679	-23.72
185.898	-19.63
186.118	64.34
186.338	15.19
186.557	-52.39
186.777	41.81
186.997	47.96
187.216	56.15
187.436	47.96
187.655	-13.48
187.875	64.34
188.095	-21.67
188.314	21.33
188.534	95.06
188.753	9.05
188.973	99.16
189.192	105.3
189.412	56.15
189.631	-7.34
189.851	72.53
190.07	39.76
190.29	27.48
190.509	60.24
190.729	23.38
190.948	93.01
191.168	154.45
191.387	43.86
191.607	72.53
191.826	52.05
192.045	41.81
192.265	90.96
192.484	66.39
192.704	70.48
192.923	-48.3
193.142	37.72
193.362	56.15
193.581	19.29
193.8	31.57
194.02	88.92
194.239	47.96
194.458	-21.67
194.678	99.16
194.897	9.05
195.116	7
195.335	64.34
195.555	2.9
195.774	47.96
195.993	50
196.212	97.11
196.432	113.49
196.651	2.9
196.87	47.96
197.089	80.72
197.308	82.77
197.528	105.3
197.747	-15.53
197.966	9.05
198.185	23.38
198.404	-74.92
198.623	11.09
198.842	-19.63
199.062	56.15
199.281	-23.72
199.5	-7.34
199.719	17.24
199.938	35.67
200.157	-1.19
200.376	27.48
200.595	56.15
200.814	80.72
201.033	-5.29
201.252	60.24
201.471	23.38
201.69	82.77
201.909	41.81
202.128	-13.48
202.347	160.59
202.566	-21.67
202.785	33.62
203.004	33.62
203.223	64.34
203.442	-19.63
203.661	125.78
203.879	39.76
204.098	113.49
204.317	23.38
204.536	17.24
204.755	29.52
204.974	80.72
205.193	66.39
205.411	54.1
205.63	4.95
205.849	43.86
206.068	-15.53
206.287	31.57
206.505	82.77
206.724	-5.29
206.943	64.34
207.162	-9.39
207.381	80.72
207.599	19.29
207.818	9.05
208.037	25.43
208.255	76.63
208.474	37.72
208.693	0.85
208.911	17.24
209.13	47.96
209.349	39.76
209.567	105.3
209.786	-7.34
210.005	-5.29
210.223	62.29
210.442	-9.39
210.661	35.67
210.879	62.29
211.098	9.05
211.316	43.86
211.535	31.57
211.753	19.29
211.972	72.53
212.191	70.48
212.409	-15.53
212.628	50
212.846	56.15
213.065	-21.67
213.283	15.19
213.502	21.33
213.72	54.1
213.938	15.19
214.157	27.48
214.375	66.39
214.594	27.48
214.812	101.2
215.031	-17.58
215.249	39.76
215.467	-1.19
215.686	4.95
215.904	-5.29
216.122	68.44
216.341	-3.24
216.559	23.38
216.778	109.4
216.996	101.2
217.214	50
217.432	7
217.651	9.05
217.869	-3.24
218.087	-7.34
218.306	-9.39
218.524	113.49
218.742	37.72
218.96	86.87
219.179	97.11
219.397	-1.19
219.615	33.62
219.833	17.24
220.051	31.57
220.27	2.9
220.488	41.81
220.706	60.24
220.924	-17.58
221.142	105.3
221.36	0.85
221.578	88.92
221.796	43.86
222.015	39.76
222.233	17.24
222.451	39.76
222.669	29.52
222.887	50
223.105	11.09
223.323	-1.19
223.541	78.68
223.759	47.96
223.977	97.11
224.195	68.44
224.413	76.63
224.631	15.19
224.849	52.05
225.067	58.2
225.285	23.38
225.503	33.62
225.721	-25.77
225.939	31.57
226.157	-19.63
226.375	99.16
226.592	78.68
226.81	90.96
227.028	31.57
227.246	99.16
227.464	41.81
227.682	47.96
227.9	64.34
228.117	39.76
228.335	39.76
228.553	23.38
228.771	37.72
228.989	-29.87
229.206	41.81
229.424	66.39
229.642	52.05
229.86	99.16
230.077	11.09
230.295	37.72
230.513	72.53
230.731	58.2
230.948	70.48
231.166	23.38
231.384	-25.77
231.601	47.96
231.819	25.43
232.037	33.62
232.254	2.9
232.472	52.05
232.689	2.9
232.907	47.96
233.125	60.24
233.342	2.9
233.56	43.86
233.777	19.29
233.995	17.24
234.213	107.35
234.43	31.57
234.648	-1.19
234.865	39.76
235.083	-1.19
235.3	15.19
235.518	84.82
235.735	-5.29
235.953	146.26
236.17	31.57
236.388	47.96
236.605	54.1
236.822	88.92
237.04	80.72
237.257	187.22
237.475	39.76
237.692	72.53
237.909	52.05
238.127	29.52
238.344	50
238.562	86.87
238.779	-1.19
238.996	-15.53
239.214	-9.39
239.431	84.82
239.648	17.24
239.865	17.24
240.083	17.24
240.3	31.57
240.517	11.09
240.735	109.4
240.952	56.15
241.169	97.11
241.386	58.2
241.603	50
241.821	50
242.038	41.81
242.255	121.68
242.472	33.62
242.689	31.57
242.907	-3.24
243.124	0.85
243.341	54.1
243.558	-1.19
243.775	17.24
243.992	-17.58
244.209	-38.06
244.426	82.77
244.643	97.11
244.86	-66.73
245.078	66.39
245.295	58.2
245.512	39.76
245.729	58.2
245.946	43.86
246.163	-42.15
246.38	66.39
246.597	56.15
246.814	47.96
247.031	43.86
247.248	74.58
247.464	21.33
247.681	15.19
247.898	97.11
248.115	72.53
248.332	45.91
248.549	64.34
248.766	84.82
248.983	95.06
249.2	66.39
249.417	52.05
249.633	47.96
249.85	64.34
250.067	19.29
250.284	56.15
250.501	72.53
250.717	80.72
250.934	-38.06
251.151	-15.53
251.368	-1.19
251.585	41.81
251.801	146.26
252.018	7
252.235	39.76
252.451	-5.29
252.668	50
252.885	88.92
253.102	-25.77
253.318	52.05
253.535	52.05
253.752	99.16
253.968	-9.39
254.185	-38.06
254.401	88.92
254.618	39.76
254.835	47.96
255.051	64.34
255.268	52.05
255.484	58.2
255.701	41.81
255.917	90.96
256.134	21.33
256.351	45.91
256.567	-3.24
256.784	11.09
257	23.38
257.217	29.52
257.433	72.53
257.65	47.96
257.866	84.82
258.082	11.09
258.299	7
258.515	23.38
258.732	23.38
258.948	64.34
259.165	11.09
259.381	31.57
259.597	-19.63
259.814	33.62
260.03	23.38
260.246	9.05
260.463	0.85
260.679	39.76
260.895	43.86
261.112	43.86
261.328	78.68
261.544	-9.39
261.761	195.41
261.977	50
262.193	-21.67
262.409	25.43
262.626	31.57
262.842	-29.87
263.058	-27.82
263.274	129.88
263.49	47.96
263.707	43.86
263.923	99.16
264.139	64.34
264.355	39.76
264.571	97.11
264.787	58.2
265.004	80.72
265.22	64.34
265.436	23.38
265.652	23.38
265.868	33.62
266.084	15.19
266.3	72.53
266.516	11.09
266.732	27.48
266.948	76.63
267.164	-25.77
267.38	86.87
267.596	47.96
267.812	101.2
268.028	80.72
268.244	21.33
268.46	64.34
268.676	37.72
268.892	88.92
269.108	23.38
269.324	-23.72
269.54	15.19
269.756	123.73
269.972	35.67
270.188	-1.19
270.403	37.72
270.619	4.95
270.835	74.58
271.051	-31.91
271.267	37.72
271.483	17.24
271.698	39.76
271.914	41.81
272.13	-31.91
272.346	76.63
272.562	11.09
272.777	25.43
272.993	78.68
273.209	103.25
273.425	64.34
273.64	64.34
273.856	60.24
274.072	31.57
274.287	47.96
274.503	60.24
274.719	17.24
274.934	-1.19
275.15	-9.39
275.366	-21.67
275.581	50
275.797	72.53
276.012	33.62
276.228	88.92
276.444	109.4
276.659	93.01
276.875	-52.39
277.09	54.1
277.306	39.76
277.521	109.4
277.737	95.06
277.952	129.88
278.168	-23.72
278.383	0.85
278.599	-42.15
278.814	138.07
279.03	47.96
279.245	64.34
279.461	72.53
279.676	33.62
279.892	23.38
280.107	11.09
280.322	7
280.538	-9.39
280.753	70.48
280.969	-25.77
281.184	72.53
281.399	107.35
281.615	-17.58
281.83	-9.39
282.045	-33.96
282.26	72.53
282.476	21.33
282.691	17.24
282.906	-13.48
283.122	0.85
283.337	-7.34
283.552	47.96
283.767	80.72
283.983	41.81
284.198	23.38
284.413	47.96
284.628	74.58
284.843	80.72
285.058	7
285.274	9.05
285.489	-9.39
285.704	131.92
285.919	50
286.134	-7.34
286.349	39.76
286.564	35.67
286.779	84.82
286.995	58.2
287.21	15.19
287.425	86.87
287.64	37.72
287.855	0.85
288.07	56.15
288.285	156.5
288.5	86.87
288.715	74.58
288.93	-5.29
289.145	7
289.36	107.35
289.575	50
289.79	17.24
290.004	33.62
290.219	43.86
290.434	47.96
290.649	-66.73
290.864	39.76
291.079	64.34
291.294	31.57
291.509	109.4
291.724	15.19
291.938	-33.96
292.153	23.38
292.368	72.53
292.583	35.67
292.798	41.81
293.012	50
293.227	19.29
293.442	47.96
293.657	0.85
293.871	129.88
294.086	7
294.301	93.01
294.516	17.24
294.73	9.05
294.945	-9.39
295.16	43.86
295.374	80.72
295.589	90.96
295.804	23.38
296.018	56.15
296.233	60.24
296.447	47.96
296.662	70.48
296.877	45.91
297.091	58.2
297.306	58.2
297.52	0.85
297.735	15.19
297.949	64.34
298.164	13.14
298.378	17.24
298.593	-15.53
298.807	13.14
299.022	56.15
299.236	11.09
299.451	-5.29
299.665	60.24
299.88	23.38
300.094	56.15
300.309	107.35
300.523	56.15
300.737	35.67
300.952	121.68
301.166	33.62
301.381	113.49
301.595	43.86
301.809	72.53
302.024	60.24
302.238	27.48
302.452	47.96
302.667	-31.91
302.881	-23.72
303.095	113.49
303.309	121.68
303.524	39.76
303.738	-23.72
303.952	7
304.166	17.24
304.381	-46.25
304.595	90.96
304.809	56.15
305.023	93.01
305.237	66.39
305.452	23.38
305.666	23.38
305.88	33.62
306.094	64.34
306.308	56.15
306.522	50
306.736	29.52
306.95	15.19
307.164	2.9
307.379	-3.24
307.593	88.92
307.807	64.34
308.021	74.58
308.235	11.09
308.449	15.19
308.663	56.15
308.877	80.72
309.091	-5.29
309.305	58.2
309.519	-31.91
309.733	27.48
309.947	-38.06
310.161	33.62
310.374	-3.24
310.588	43.86
310.802	-50.35
311.016	39.76
311.23	15.19
311.444	4.95
311.658	99.16
311.872	47.96
312.085	101.2
312.299	43.86
312.513	64.34
312.727	4.95
312.941	0.85
313.154	7
313.368	13.14
313.582	84.82
313.796	95.06
314.009	33.62
314.223	97.11
314.437	58.2
314.651	101.2
314.864	-17.58
315.078	2.9
315.292	27.48
315.505	-1.19
315.719	72.53
315.933	23.38
316.146	88.92
316.36	25.43
316.573	113.49
316.787	88.92
317.001	68.44
317.214	31.57
317.428	-17.58
317.641	19.29
317.855	43.86
318.068	97.11
318.282	101.2
318.495	80.72
318.709	64.34
318.922	2.9
319.136	66.39
319.349	50
319.563	-1.19
319.776	64.34
319.99	2.9
320.203	-52.39
320.417	25.43
320.63	25.43
320.843	115.54
321.057	72.53
321.27	27.48
321.483	23.38
321.697	43.86
321.91	50
322.124	74.58
322.337	25.43
322.55	99.16
322.763	97.11
322.977	66.39
323.19	60.24
323.403	31.57
323.617	15.19
323.83	43.86
324.043	-25.77
324.256	15.19
324.469	41.81
324.683	76.63
324.896	23.38
325.109	62.29
325.322	45.91
325.535	129.88
325.748	29.52
325.962	117.59
326.175	41.81
326.388	170.83
326.601	140.12
326.814	66.39
327.027	23.38
327.24	105.3
327.453	64.34
327.666	111.44
327.879	72.53
328.092	39.76
328.305	-11.43
328.518	82.77
328.731	76.63
328.944	21.33
329.157	60.24
329.37	19.29
329.583	72.53
329.796	179.03
330.009	-25.77
330.222	25.43
330.435	31.57
330.648	23.38
330.861	47.96
331.073	31.57
331.286	33.62
331.499	45.91
331.712	2.9
331.925	-1.19
332.138	58.2
332.35	129.88
332.563	31.57
332.776	107.35
332.989	17.24
333.202	4.95
333.414	80.72
333.627	121.68
333.84	13.14
334.053	125.78
334.265	9.05
334.478	68.44
334.691	50
334.903	15.19
335.116	-1.19
335.329	82.77
335.541	105.3
335.754	154.45
335.966	56.15
336.179	76.63
336.392	101.2
336.604	25.43
336.817	-25.77
337.029	7
337.242	62.29
337.454	43.86
337.667	-5.29
337.88	47.96
338.092	107.35
338.305	29.52
338.517	56.15
338.729	72.53
338.942	41.81
339.154	-1.19
339.367	99.16
339.579	113.49
339.792	2.9
340.004	117.59
340.217	72.53
340.429	47.96
340.641	31.57
340.854	11.09
341.066	41.81
341.278	99.16
341.491	64.34
341.703	25.43
341.915	50
342.128	97.11
342.34	70.48
342.552	86.87
342.764	23.38
342.977	39.76
343.189	-36.01
343.401	101.2
343.613	-19.63
343.826	35.67
344.038	88.92
344.25	109.4
344.462	41.81
344.674	72.53
344.886	27.48
345.099	80.72
345.311	66.39
345.523	9.05
345.735	21.33
345.947	162.64
346.159	-17.58
346.371	97.11
346.583	68.44
346.795	136.02
347.007	60.24
347.219	39.76
347.431	-5.29
347.643	66.39
347.855	60.24
348.067	142.16
348.279	31.57
348.491	82.77
348.703	0.85
348.915	17.24
349.127	35.67
349.339	148.31
349.551	29.52
349.763	41.81
349.975	17.24
350.187	15.19
350.399	52.05
350.61	131.92
350.822	95.06
351.034	11.09
351.246	84.82
351.458	80.72
351.669	54.1
351.881	97.11
352.093	64.34
352.305	47.96
352.517	105.3
352.728	142.16
352.94	62.29
353.152	90.96
353.363	50
353.575	23.38
353.787	158.55
353.999	47.96
354.21	121.68
354.422	33.62
354.633	17.24
354.845	35.67
355.057	-33.96
355.268	56.15
355.48	23.38
355.692	4.95
355.903	23.38
356.115	13.14
356.326	31.57
356.538	84.82
356.749	56.15
356.961	80.72
357.172	15.19
357.384	9.05
357.595	27.48
357.807	66.39
358.018	68.44
358.23	127.83
358.441	27.48
358.653	97.11
358.864	74.58
359.075	23.38
359.287	138.07
359.498	64.34
359.709	121.68
359.921	17.24
360.132	105.3
360.344	15.19
360.555	64.34
360.766	76.63
360.977	72.53
361.189	117.59
361.4	88.92
361.611	41.81
361.823	41.81
362.034	84.82
362.245	39.76
362.456	78.68
362.667	136.02
362.879	23.38
363.09	148.31
363.301	-21.67
363.512	39.76
363.723	23.38
363.935	58.2
364.146	31.57
364.357	23.38
364.568	82.77
364.779	39.76
364.99	56.15
365.201	136.02
365.412	80.72
365.623	31.57
365.834	25.43
366.045	82.77
366.256	60.24
366.467	80.72
366.678	113.49
366.889	4.95
367.1	56.15
367.311	27.48
367.522	50
367.733	74.58
367.944	82.77
368.155	21.33
368.366	33.62
368.577	88.92
368.788	52.05
368.999	64.34
369.209	125.78
369.42	117.59
369.631	138.07
369.842	111.44
370.053	50
370.264	123.73
370.474	52.05
370.685	62.29
370.896	97.11
371.107	50
371.317	50
371.528	23.38
371.739	76.63
371.95	41.81
372.16	80.72
372.371	62.29
372.582	56.15
372.792	105.3
373.003	129.88
373.214	72.53
373.424	105.3
373.635	66.39
373.846	80.72
374.056	37.72
374.267	72.53
374.477	56.15
374.688	93.01
374.898	33.62
375.109	82.77
375.319	25.43
375.53	76.63
375.74	54.1
375.951	56.15
376.161	64.34
376.372	84.82
376.582	27.48
376.793	74.58
377.003	-17.58
377.214	66.39
377.424	54.1
377.635	15.19
377.845	17.24
378.055	95.06
378.266	93.01
378.476	0.85
378.686	50
378.897	113.49
379.107	19.29
379.317	-5.29
379.528	43.86
379.738	27.48
379.948	99.16
380.158	82.77
380.369	109.4
380.579	82.77
380.789	35.67
380.999	80.72
381.21	113.49
381.42	125.78
381.63	58.2
381.84	103.25
382.05	47.96
382.261	68.44
382.471	60.24
382.681	-3.24
382.891	103.25
383.101	107.35
383.311	97.11
383.521	105.3
383.731	52.05
383.941	103.25
384.151	45.91
384.361	7
384.571	111.44
384.781	15.19
384.991	0.85
385.201	119.64
385.411	117.59
385.621	123.73
385.831	31.57
386.041	33.62
386.251	131.92
386.461	43.86
386.671	88.92
386.881	82.77
387.091	78.68
387.301	64.34
387.511	39.76
387.72	47.96
387.93	107.35
388.14	66.39
388.35	76.63
388.56	162.64
388.769	136.02
388.979	88.92
389.189	15.19
389.399	82.77
389.609	86.87
389.818	60.24
390.028	-5.29
390.238	72.53
390.447	60.24
390.657	105.3
390.867	41.81
391.076	97.11
391.286	64.34
391.496	66.39
391.705	78.68
391.915	80.72
392.125	109.4
392.334	64.34
392.544	121.68
392.753	121.68
392.963	113.49
393.172	72.53
393.382	105.3
393.591	207.7
393.801	125.78
394.01	179.03
394.22	29.52
394.429	31.57
394.639	105.3
394.848	99.16
395.058	93.01
395.267	113.49
395.477	154.45
395.686	121.68
395.895	90.96
396.105	131.92
396.314	148.31
396.524	72.53
396.733	97.11
396.942	138.07
397.152	142.16
397.361	133.97
397.57	93.01
397.78	123.73
397.989	43.86
398.198	123.73
398.407	101.2
398.617	205.65
398.826	109.4
399.035	105.3
399.244	84.82
399.453	74.58
399.663	142.16
399.872	170.83
400.081	97.11
400.29	140.12
400.499	45.91
400.708	136.02
400.917	203.6
401.127	105.3
401.336	148.31
401.545	195.41
401.754	187.22
401.963	107.35
402.172	164.69
402.381	113.49
402.59	133.97
402.799	146.26
403.008	201.55
403.217	162.64
403.426	219.99
403.635	199.51
403.844	140.12
404.053	185.17
404.262	150.36
404.471	181.07
404.68	150.36
404.888	185.17
405.097	195.41
405.306	166.74
405.515	187.22
405.724	213.84
405.933	154.45
406.142	174.93
406.35	310.1
406.559	179.03
406.768	133.97
406.977	238.42
407.185	254.8
407.394	252.75
407.603	228.18
407.812	265.04
408.02	334.67
408.229	224.08
408.438	289.62
408.646	293.71
408.855	240.47
409.064	330.58
409.272	303.95
409.481	418.64
409.69	248.66
409.898	371.54
410.107	318.29
410.315	381.78
410.524	396.11
410.733	310.1
410.941	412.5
411.15	506.7
411.358	502.61
411.567	502.61
411.775	559.95
411.984	478.03
412.192	537.42
412.401	467.79
412.609	551.76
412.818	588.62
413.026	648.01
413.234	633.68
413.443	629.58
413.651	670.54
413.86	588.62
414.068	678.73
414.276	744.27
414.485	672.59
414.693	678.73
414.901	850.76
415.11	779.08
415.318	932.68
415.526	887.62
415.734	924.49
415.943	928.58
416.151	994.12
416.359	949.06
416.567	1039.17
416.776	1069.89
416.984	1149.76
417.192	1049.41
417.4	1258.31
417.608	1104.71
417.817	1200.96
418.025	1383.23
418.233	1424.19
418.441	1334.08
418.649	1403.71
418.857	1602.36
419.065	1538.88
419.273	1532.73
419.481	1592.13
419.689	1702.72
419.897	1768.25
420.105	1841.98
420.313	1915.7
420.521	1893.18
420.729	2014.01
420.937	1999.67
421.145	2095.93
421.353	2218.8
421.561	2327.35
421.769	2306.87
421.977	2450.22
422.185	2372.4
422.393	2636.59
422.601	2829.1
422.809	2720.56
423.017	2669.36
423.224	2868.01
423.432	2894.63
423.64	3048.23
423.848	3242.79
424.056	3128.1
424.263	3400.48
424.471	3336.99
424.679	3459.87
424.887	3762.97
425.094	3711.77
425.302	3783.45
425.51	3945.24
425.718	4053.78
425.925	3937.05
426.133	4174.61
426.341	4432.66
426.548	4637.45
426.756	4616.97
426.964	4594.45
427.171	4911.88
427.379	5038.86
427.586	4981.51
427.794	5315.33
428.001	5348.1
428.209	5856
428.417	5778.17
428.624	6150.9
428.832	6122.23
429.039	5980.92
429.247	6003.45
429.454	6669.04
429.662	7045.87
429.869	6599.41
430.076	7088.87
430.284	6947.56
430.491	7217.9
430.699	7598.82
430.906	7613.15
431.114	7699.17
431.321	7865.05
431.528	7951.07
431.736	8674
431.943	8968.91
432.15	8659.67
432.358	8985.29
432.565	9413.32
432.772	9503.43
432.979	9898.69
433.187	10109.63
433.394	10134.2
433.601	10517.17
433.808	10812.08
434.016	10764.98
434.223	11164.33
434.43	11709.09
434.637	11451.05
434.844	12434.07
435.052	12442.26
435.259	12520.09
435.466	12597.91
435.673	12231.32
435.88	13243.02
436.087	13990.53
436.294	13838.98
436.501	13435.53
436.708	14008.96
436.915	14404.22
437.122	14928.5
437.329	14899.83
437.537	15530.6
437.743	15700.58
437.95	15567.46
438.157	16347.74
438.364	16589.4
438.571	16777.81
438.778	16804.44
438.985	18342.46
439.192	17687.11
439.399	18496.06
439.606	18065.99
439.813	18924.08
440.02	20161.06
440.227	19554.86
440.433	19550.76
440.64	20142.63
440.847	19962.4
441.054	20576.8
441.261	22002.18
441.467	21674.51
441.674	21922.31
441.881	22721.02
442.088	22665.72
442.294	22501.89
442.501	23269.87
442.708	23527.92
442.914	24494.56
443.121	25471.44
443.328	25061.85
443.534	26495.43
443.741	25811.4
443.948	25442.77
444.154	27390.39
444.361	27128.25
444.568	27331
444.774	27206.07
444.981	27609.52
445.187	28125.61
445.394	29587.86
445.6	29104.54
445.807	32086.38
446.013	30198.15
446.22	31172.99
446.426	32602.47
446.633	32956.77
446.839	33720.66
447.046	32334.18
447.252	34015.57
447.459	33941.84
447.665	33800.53
447.871	35461.43
448.078	37357.85
448.284	34992.45
448.491	36344.11
448.697	37320.99
448.903	38197.52
449.11	38523.15
449.316	37908.75
449.522	38357.26
449.728	39614.71
449.935	39655.67
450.141	39600.38
450.347	40198.38
450.553	39223.55
450.76	39633.14
450.966	41195.74
451.172	40759.53
451.378	41474.27
451.584	40917.22
451.791	41912.53
451.997	41926.87
452.203	42225.87
452.409	42756.3
452.615	42098.9
452.821	40624.36
453.027	39946.48
453.233	42483.92
453.44	40741.1
453.646	41378.01
453.852	41294.05
454.058	42051.8
454.264	40829.16
454.47	41650.39
454.676	40251.63
454.882	41566.43
455.088	38031.63
455.294	38877.44
455.5	39827.7
455.705	39899.38
455.911	38293.77
456.117	37619.99
456.323	36886.82
456.529	35195.2
456.735	36626.73
456.941	35703.09
457.147	35291.45
457.352	34156.88
457.558	33612.12
457.764	34326.86
457.97	33229.15
458.176	32657.76
458.381	32887.14
458.587	30888.32
458.793	30669.19
458.999	29239.7
459.204	31340.92
459.41	30585.22
459.616	28676.51
459.821	28901.79
460.027	28787.1
460.233	27961.77
460.438	26829.24
460.644	27097.53
460.85	25782.73
461.055	25493.97
461.261	25422.29
461.466	23405.04
461.672	22776.31
461.878	24451.55
462.083	23026.17
462.289	22391.3
462.494	22168.07
462.7	21463.57
462.905	20761.11
463.111	21316.11
463.316	21551.63
463.522	20996.63
463.727	21090.84
463.932	21031.44
464.138	20916.76
464.343	20967.96
464.549	20300.32
464.754	21006.87
464.959	21064.21
465.165	20615.71
465.37	19751.46
465.575	19065.39
465.781	19958.31
465.986	20298.27
466.191	19262
466.397	19106.35
466.602	18127.42
466.807	18424.38
467.012	18850.36
467.218	18711.1
467.423	18405.95
467.628	18717.24
467.833	19284.53
468.038	18729.53
468.244	18123.33
468.449	18717.24
468.654	18135.62
468.859	18041.41
469.064	18055.75
469.269	17261.13
469.474	17500.75
469.679	17572.43
469.885	16915.03
470.09	17500.75
470.295	17375.82
470.5	16792.15
470.705	16953.94
470.91	16530.01
471.115	16648.79
471.32	16886.36
471.525	16644.7
471.73	16300.64
471.935	15970.91
472.139	15553.13
472.344	15956.58
472.549	15374.95
472.754	15555.18
472.959	15151.73
473.164	15106.67
473.369	14697.08
473.574	15141.49
473.778	15084.14
473.983	15295.08
474.188	15198.83
474.393	14127.74
474.598	14146.17
474.802	14277.24
475.007	13849.22
475.212	13947.52
475.417	13419.14
475.621	13781.64
475.826	13687.43
476.031	13230.73
476.235	13025.93
476.44	13509.26
476.645	12941.97
476.849	13345.42
477.054	12929.68
477.259	12657.3
477.463	12925.58
477.668	12575.38
477.872	12472.98
478.077	12300.95
478.282	11942.56
478.486	11917.98
478.691	11950.75
478.895	12040.86
479.1	11684.52
479.304	11942.56
479.509	11686.56
479.713	11672.23
479.918	11535.01
480.122	11399.85
480.326	11600.55
480.531	11340.46
480.735	11219.63
480.94	11037.36
481.144	11492.01
481.348	10996.4
481.553	11293.35
481.757	10885.81
481.961	11258.54
482.166	11266.73
482.37	11092.65
482.574	10877.62
482.778	11074.22
482.983	11106.99
483.187	10850.99
483.391	11078.32
483.595	10939.05
483.8	10822.32
484.004	11049.64
484.208	11025.07
484.412	10998.45
484.616	11018.93
484.821	10904.24
485.025	10681.01
485.229	11074.22
485.433	10918.57
485.637	11090.6
485.841	10773.17
486.045	10832.56
486.249	10672.82
486.453	10920.62
486.657	10947.25
486.861	11205.29
487.065	10859.18
487.269	10939.05
487.473	10943.15
487.677	10992.3
487.881	11154.09
488.085	10947.25
488.289	10975.92
488.493	11115.18
488.697	11068.08
488.901	10887.86
489.105	11092.65
489.309	11080.36
489.512	11139.76
489.716	11100.84
489.92	11043.5
490.124	11045.55
490.328	11309.74
490.531	11174.57
490.735	11213.48
490.939	11211.43
491.143	11238.06
491.346	11104.94
491.55	11313.83
491.754	11492.01
491.958	11780.77
492.161	11465.38
492.365	11610.79
492.569	11438.76
492.772	11545.25
492.976	11610.79
493.18	11907.74
493.383	11776.67
493.587	11997.85
493.79	12030.62
493.994	11815.59
494.197	12087.96
494.401	12235.42
494.605	12470.94
494.808	12403.35
495.012	12323.48
495.215	12642.96
495.419	12429.98
495.622	12335.77
495.825	12311.19
496.029	12737.17
496.232	13048.46
496.436	12991.12
496.639	13148.81
496.843	13218.44
497.046	13363.85
497.249	13501.06
497.453	13566.6
497.656	13671.04
497.859	13550.21
498.063	13918.85
498.266	14281.34
498.469	14285.44
498.673	14244.48
498.876	14594.68
499.079	14805.62
499.282	14742.13
499.485	15374.95
499.689	15266.41
499.892	15262.32
500.095	15311.47
500.298	15647.33
500.501	15583.85
500.705	15972.96
500.908	16151.13
501.111	16386.65
501.314	16470.62
501.517	16595.54
501.72	16925.27
501.923	16642.65
502.126	17144.4
502.329	17318.48
502.532	17605.19
502.735	17572.43
502.938	18018.88
503.141	18037.31
503.344	18399.8
503.547	18422.33
503.75	18866.74
503.953	18821.69
504.156	19321.39
504.359	19348.01
504.562	19188.27
504.765	19954.21
504.968	19946.02
505.17	20073
505.373	20236.83
505.576	20564.51
505.779	20349.47
505.982	21103.12
506.185	21144.08
506.387	21520.91
506.59	21393.93
506.793	22028.81
506.996	21924.36
507.198	22534.65
507.401	22186.5
507.604	22610.43
507.807	23161.33
508.009	23175.67
508.212	23079.41
508.415	23837.16
508.617	23908.84
508.82	23775.72
509.022	23841.26
509.225	24533.47
509.428	24617.44
509.63	25006.55
509.833	24977.88
510.035	25383.38
510.238	25387.47
510.44	25872.84
510.643	26102.22
510.845	26427.84
511.048	26329.54
511.25	27044.28
511.453	27027.9
511.655	27365.81
511.858	27277.75
512.06	27832.75
512.262	28043.69
512.465	27888.04
512.667	28414.37
512.87	28584.35
513.072	28760.48
513.274	29270.42
513.477	29770.13
513.679	29690.26
513.881	29997.45
514.084	30257.54
514.286	30376.33
514.488	30597.51
514.69	31619.44
514.893	31336.82
515.095	31586.68
515.297	32053.61
515.499	31703.41
515.701	32643.43
515.904	32946.53
516.106	32784.74
516.308	33159.52
516.51	33319.26
516.712	33470.81
516.914	34275.66
517.116	34482.5
517.318	34500.93
517.52	34978.11
517.722	35084.61
517.925	35203.39
518.127	35690.8
518.329	36026.67
518.531	35658.04
518.733	36688.17
518.935	36868.39
519.136	36907.3
519.338	37187.87
519.54	37488.92
519.742	37875.99
519.944	37966.1
520.146	38504.71
520.348	38484.23
520.55	38568.2
520.752	38674.7
520.954	39446.78
521.155	39160.06
521.357	39524.6
521.559	40423.66
521.761	40247.54
521.963	40501.48
522.164	40405.23
522.366	41115.87
522.568	41255.14
522.77	41550.04
522.971	42094.8
523.173	41861.33
523.375	42178.77
523.576	42037.46
523.778	42336.46
523.98	42637.51
524.181	43071.68
524.383	43372.74
524.584	43653.31
524.786	43780.28
524.988	43692.22
525.189	44028.09
525.391	44107.96
525.592	44382.38
525.794	44507.31
525.995	44861.61
526.197	44806.31
526.398	44507.31
526.6	44906.66
526.801	45516.96
527.003	45576.35
527.204	45494.43
527.406	45592.73
527.607	46012.57
527.808	46588.05
528.01	45656.22
528.211	46200.98
528.412	46688.4
528.614	46430.35
528.815	46489.74
529.016	47036.55
529.218	46518.42
529.419	46712.97
529.62	47515.78
529.822	46850.19
530.023	47063.18
530.224	46944.39
530.425	47022.22
530.626	46930.06
530.828	47171.72
531.029	47917.18
531.23	47145.09
531.431	47300.74
531.632	47528.06
531.833	47650.94
532.035	47448.19
532.236	47945.85
532.437	47845.5
532.638	47337.6
532.839	47966.33
533.04	47814.78
533.241	47487.1
533.442	48162.93
533.643	48312.44
533.844	48011.38
534.045	48230.52
534.246	47622.27
534.447	48324.72
534.648	47816.83
534.849	48052.34
535.05	47462.53
535.251	47753.34
535.451	47958.14
535.652	48101.5
535.853	48103.54
536.054	48132.21
536.255	47888.51
536.456	47714.43
536.657	48463.99
536.857	47947.9
537.058	47900.79
537.259	48445.55
537.46	48353.4
537.66	48171.13
537.861	48322.68
538.062	48136.31
538.263	48257.14
538.463	47724.67
538.664	47636.61
538.865	48218.23
539.065	48304.24
539.266	47845.5
539.466	48029.82
539.667	47419.52
539.868	48318.58
540.068	47843.45
540.269	48097.4
540.469	48085.11
540.67	47675.52
540.87	47829.12
541.071	47956.09
541.271	48025.72
541.472	47560.83
541.672	47661.18
541.873	47915.13
542.073	47435.91
542.274	48224.37
542.474	47708.29
542.675	47501.44
542.875	47739
543.075	47710.33
543.276	47313.03
543.476	48046.2
543.676	47665.28
543.877	47863.93
544.077	47542.4
544.277	47536.26
544.478	47689.85
544.678	47655.04
544.878	48015.48
545.078	47822.97
545.279	47175.81
545.479	47407.23
545.679	47485.06
545.879	47353.99
546.079	47503.49
546.28	47507.58
546.48	47206.53
546.68	47284.36
546.88	47411.33
547.08	47644.8
547.28	47581.31
547.48	47075.46
547.68	47906.94
547.88	47278.21
548.081	47425.67
548.281	47181.96
548.481	47605.89
548.681	47550.59
548.881	47509.63
549.081	47333.51
549.28	47280.26
549.48	47448.19
549.68	47399.04
549.88	47624.32
550.08	46919.82
550.28	47097.99
550.48	47032.46
550.68	47753.34
550.88	46903.43
551.08	46948.49
551.279	47276.16
551.479	46774.41
551.679	47093.89
551.879	47069.32
552.079	47141
552.278	46542.99
552.478	46909.58
552.678	47065.22
552.878	47394.95
553.077	46934.15
553.277	46430.35
553.477	47272.07
553.676	46837.9
553.876	47118.47
554.076	46895.24
554.275	46622.86
554.475	46362.77
554.674	46766.22
554.874	46622.86
555.074	46461.07
555.273	46661.77
555.473	46481.55
555.672	46364.82
555.872	46538.9
556.071	46454.93
556.271	46631.05
556.47	46454.93
556.67	46227.6
556.869	46352.53
557.068	46506.13
557.268	46200.98
557.467	46282.9
557.667	46373.01
557.866	46168.21
558.065	46008.47
558.265	46076.05
558.464	45824.15
558.663	46309.52
558.863	45633.69
559.062	46020.76
559.261	45562.01
559.461	46014.62
559.66	45744.28
559.859	45645.98
560.058	45785.24
560.258	45449.38
560.457	45164.71
560.656	45682.84
560.855	45367.46
561.054	45549.73
561.253	44853.42
561.453	45568.16
561.652	45600.93
561.851	45600.93
562.05	44982.44
562.249	45023.4
562.448	45045.93
562.647	45017.25
562.846	44601.52
563.045	44877.99
563.244	44452.02
563.443	44978.34
563.642	44452.02
563.841	44648.62
564.04	44402.86
564.239	44794.03
564.438	44619.95
564.637	44841.13
564.836	44703.92
565.035	43870.39
565.234	44468.4
565.432	44208.31
565.631	43894.97
565.83	43905.21
566.029	43868.34
566.228	44021.94
566.427	43806.9
566.625	43622.59
566.824	43454.65
567.023	44028.09
567.222	43108.55
567.42	43851.96
567.619	43294.91
567.818	43296.96
568.016	43305.15
568.215	43419.84
568.414	43333.82
568.612	43444.41
568.811	42838.22
569.01	43169.99
569.208	42594.51
569.407	42643.66
569.605	42363.09
569.804	42787.02
570.002	42074.32
570.201	42877.13
570.4	42184.91
570.598	42125.52
570.797	42080.47
570.995	42287.31
571.193	41550.04
571.392	42348.75
571.59	41644.25
571.789	42037.46
571.987	41750.74
572.186	41707.74
572.384	41494.75
572.582	41683.16
572.781	41480.41
572.979	40984.8
573.177	41152.74
573.376	40878.31
573.574	40974.56
573.772	41038.05
573.971	40767.72
574.169	40661.22
574.367	39995.64
574.565	40880.36
574.763	40358.13
574.962	40532.2
575.16	39948.53
575.358	40255.73
575.556	40161.52
575.754	40206.58
575.952	39932.15
576.151	40208.62
576.349	39973.11
576.547	39842.04
576.745	39973.11
576.943	39768.31
577.141	39844.09
577.339	39774.45
577.537	38824.2
577.735	39266.56
577.933	39166.21
578.131	39284.99
578.329	38893.83
578.527	38828.29
578.725	38990.08
578.923	38945.03
579.121	38494.47
579.319	38453.51
579.516	38834.44
579.714	38566.15
579.912	38441.23
580.11	38295.82
580.308	38117.65
580.506	38127.89
580.704	37802.26
580.901	37933.33
581.099	38267.15
581.297	37857.56
581.495	37742.87
581.692	37775.64
581.89	37404.95
582.088	37701.91
582.285	37372.19
582.483	37286.17
582.681	37085.47
582.878	37060.9
583.076	36579.62
583.274	37169.44
583.471	36282.67
583.669	36776.23
583.866	36645.16
584.064	36868.39
584.262	36268.33
584.459	36626.73
584.657	35948.85
584.854	36643.11
585.052	35707.19
585.249	36204.84
585.447	35989.81
585.644	35477.82
585.841	35977.52
586.039	36251.95
586.236	35449.14
586.434	35524.92
586.631	35430.71
586.828	35234.11
587.026	35322.17
587.223	35311.93
587.42	34818.37
587.618	34967.87
587.815	34431.3
588.012	34822.47
588.21	34947.39
588.407	34924.86
588.604	34511.17
588.801	34369.86
588.999	34533.7
589.196	34289.99
589.393	34257.23
589.59	33915.22
589.787	34087.25
589.984	33704.28
590.182	33462.61
590.379	34089.29
590.576	33493.33
590.773	33636.69
590.97	32993.63
591.167	33587.54
591.364	33294.68
591.561	33104.22
591.758	32831.84
591.955	33044.83
592.152	32962.91
592.349	32854.37
592.546	33108.32
592.743	32606.56
592.94	31955.31
593.137	32639.33
593.334	32594.28
593.531	31930.73
593.727	32256.36
593.924	32532.84
594.121	32127.34
594.318	32004.46
594.515	31711.6
594.712	32412.01
594.908	31791.47
595.105	31459.7
595.302	31426.93
595.499	31619.44
595.696	31332.73
595.892	31263.1
596.089	31283.58
596.286	31527.28
596.482	31156.6
596.679	31068.54
596.876	30978.43
597.072	30757.25
597.269	30775.68
597.466	30769.54
597.662	30527.88
597.859	30413.19
598.055	30640.51
598.252	30212.49
598.448	30402.95
598.645	30060.94
598.841	29806.99
599.038	29970.83
599.234	29911.44
599.431	29634.96
599.627	29350.29
599.824	29700.5
600.02	29538.71
600.217	29700.5
600.413	29174.17
600.609	29297.05
600.806	28778.91
601.002	28889.5
601.198	28696.99
601.395	28746.14
601.591	28766.62
601.787	29022.62
601.984	28465.57
602.18	28957.08
602.376	28336.55
602.572	28608.93
602.769	28209.57
602.965	28039.59
603.161	28264.87
603.357	28297.64
603.553	27750.83
603.75	27916.72
603.946	27650.48
604.142	27990.44
604.338	27218.36
604.534	27701.68
604.73	27687.34
604.926	27664.82
605.122	27625.9
605.318	27134.39
605.514	26960.31
605.71	27142.58
605.906	27103.67
606.102	27189.69
606.298	27224.5
606.494	26993.08
606.69	26870.2
606.886	26892.73
607.082	26264
607.278	26732.99
607.474	26157.51
607.67	26747.33
607.866	26081.74
608.062	26474.95
608.257	26296.77
608.453	26229.19
608.649	26573.25
608.845	25930.19
609.041	26206.66
609.236	26196.42
609.432	26221
609.628	26024.39
609.824	25709.01
610.019	25680.33
610.215	25891.27
610.411	25891.27
610.606	25602.51
610.802	25762.25
610.998	25604.56
611.193	25874.89
611.389	25588.17
611.584	25346.51
611.78	25063.89
611.976	25686.48
612.171	25383.38
612.367	25465.3
612.562	25186.77
612.758	24951.26
612.953	24832.47
613.149	25420.24
613.344	24867.29
613.539	25178.58
613.735	25172.44
613.93	24873.43
614.126	24855
614.321	24830.43
614.517	25016.79
614.712	24824.28
614.907	24646.11
615.103	24758.75
615.298	24637.92
615.493	25051.61
615.688	24689.12
615.884	24850.91
616.079	24494.56
616.274	24535.52
616.47	24328.67
616.665	24304.1
616.86	24084.97
617.055	24189.41
617.25	24193.51
617.445	24211.94
617.641	23785.96
617.836	24046.05
618.031	23845.35
618.226	24089.06
618.421	23779.82
618.616	23634.41
618.811	23321.07
619.006	23843.31
619.201	23155.19
619.396	23323.12
619.591	23214.58
619.786	23120.37
619.981	22972.92
620.176	23161.33
620.371	22381.06
620.566	22923.77
620.761	22780.41
620.956	22929.91
621.151	22393.34
621.346	22407.68
621.541	22544.89
621.735	22469.12
621.93	21940.74
622.125	22067.72
622.32	21662.22
622.515	22022.66
622.709	21658.12
622.904	21860.87
623.099	21463.57
623.294	21537.29
623.488	21121.56
623.683	21637.64
623.878	20826.65
624.072	20988.44
624.267	21316.11
624.462	21049.88
624.656	20513.31
624.851	20550.17
625.046	20333.09
625.24	20093.47
625.435	19978.79
625.629	20326.94
625.824	19911.21
626.018	19827.24
626.213	19374.64
626.407	19896.87
626.602	19427.88
626.796	19583.53
626.991	19546.67
627.185	19317.29
627.38	19161.65
627.574	19210.8
627.768	18778.68
627.963	19003.96
628.157	18598.46
628.352	18596.41
628.546	18567.74
628.74	18539.07
628.935	18147.9
629.129	18373.18
629.323	18250.3
629.517	18283.07
629.712	18055.75
629.906	18061.89
630.1	17805.89
630.294	17752.65
630.489	17752.65
630.683	17594.95
630.877	17533.51
631.071	17103.44
631.265	17386.06
631.459	17429.07
631.653	17152.59
631.848	17211.98
632.042	17005.14
632.236	17345.1
632.43	16562.78
632.624	16841.3
632.818	16595.54
633.012	16403.04
633.206	16392.8
633.4	16573.02
633.594	16124.51
633.788	16132.7
633.982	16280.16
634.176	16108.13
634.369	15841.89
634.563	16056.93
634.757	15811.17
634.951	15874.66
635.145	15633
635.339	15575.66
635.533	15319.66
635.726	15374.95
635.92	15346.28
636.114	15274.6
636.308	15430.25
636.501	15237.74
636.695	14967.41
636.889	14709.36
637.083	14768.76
637.276	14873.2
637.47	14748.28
637.664	14584.44
637.857	14783.09
638.051	14498.42
638.244	14285.44
638.438	14195.32
638.632	14164.61
638.825	14199.42
639.019	14115.45
639.212	13838.98
639.406	13845.12
639.599	14008.96
639.793	13785.73
639.986	13630.09
640.18	13714.05
640.373	13554.31
640.567	13621.89
640.76	13341.32
640.954	13329.03
641.147	13478.54
641.34	13261.45
641.534	13091.47
641.727	13163.15
641.92	13126.29
642.114	13167.24
642.307	12688.02
642.5	12722.84
642.694	12769.94
642.887	12550.81
643.08	12864.15
643.273	12802.71
643.467	12569.24
643.66	12296.86
643.853	12403.35
644.046	12262.04
644.239	12233.37
644.432	12180.12
644.626	11965.09
644.819	12016.29
645.012	11893.41
645.205	12051.1
645.398	11676.32
645.591	11659.94
645.784	11917.98
645.977	11754.15
646.17	11688.61
646.363	11455.14
646.556	11463.33
646.749	11453.09
646.942	11506.34
647.135	11389.61
647.328	11182.76
647.521	11111.08
647.714	11123.37
647.907	11174.57
648.099	11307.69
648.292	11188.91
648.485	10896.05
648.678	10889.9
648.871	10816.18
649.064	10668.72
649.256	10764.98
649.449	10521.27
649.642	10554.04
649.835	10595
650.027	10545.84
650.22	10347.19
650.413	10320.57
650.605	10410.68
650.798	10203.83
650.991	10011.32
651.183	10109.63
651.376	10025.66
651.568	10103.48
651.761	10060.48
651.954	9951.93
652.146	9886.4
652.339	9968.32
652.531	9824.96
652.724	9669.31
652.916	9480.9
653.109	9673.41
653.301	9470.66
653.494	9568.96
653.686	9415.37
653.879	9528
654.071	9532.1
654.263	9339.59
654.456	9214.66
654.648	9292.49
654.84	9112.27
655.033	9235.14
655.225	9265.86
655.417	8993.48
655.61	8952.52
655.802	9056.97
655.994	9145.03
656.186	8989.39
656.379	8966.86
656.571	8819.41
656.763	8893.13
656.955	8839.89
657.148	8895.18
657.34	8669.91
657.532	8504.02
657.724	8487.64
657.916	8501.97
658.108	8774.35
658.3	8342.23
658.492	8276.7
658.684	8280.79
658.876	8295.13
659.068	8231.64
659.26	8385.24
659.452	8248.02
659.644	8172.25
659.836	7871.2
660.028	8164.06
660.22	7936.73
660.412	7944.92
660.604	7838.43
660.796	7955.16
660.988	7805.66
661.18	7797.47
661.372	7611.11
661.563	7789.28
661.755	7746.27
661.947	7596.77
662.139	7363.3
662.331	7578.34
662.522	7482.08
662.714	7559.91
662.906	7537.38
663.097	7314.15
663.289	7295.72
663.481	7203.56
663.673	7299.81
663.864	7320.29
664.056	7002.86
664.247	7207.66
664.439	7062.25
664.631	7154.41
664.822	7031.53
665.014	7095.02
665.205	6978.28
665.397	6978.28
665.588	7107.3
665.78	6961.9
665.971	6849.26
666.163	6920.94
666.354	6841.07
666.546	6804.21
666.737	6658.8
666.929	6699.76
667.12	6703.86
667.311	6650.61
667.503	6562.55
667.694	6595.31
667.885	6478.58
668.077	6345.46
668.268	6435.57
668.459	6460.15
668.651	6417.14
668.842	6288.12
669.033	6439.67
669.224	6331.12
669.416	6359.8
669.607	6208.25
669.798	6200.05
669.989	6433.52
670.18	6046.46
670.371	6150.9
670.563	6150.9
670.754	5974.78
670.945	5862.14
671.136	5901.05
671.327	6152.95
671.518	6013.69
671.709	5937.91
671.9	5962.49
672.091	5925.63
672.282	5952.25
672.473	5905.15
672.664	5743.36
672.855	5827.32
673.046	5845.76
673.237	5776.13
673.428	5890.81
673.619	5511.94
673.809	5741.31
674	5696.25
674.191	5724.93
674.382	5507.84
674.573	5622.53
674.764	5518.08
674.954	5430.02
675.145	5530.37
675.336	5446.4
675.527	5489.41
675.717	5548.8
675.908	5538.56
676.099	5509.89
676.289	5341.96
676.48	5286.66
676.671	5421.83
676.861	5358.34
677.052	5292.8
677.243	5262.09
677.433	5323.52
677.624	5280.52
677.814	5317.38
678.005	5020.42
678.195	5135.11
678.386	5253.89
678.576	5161.73
678.767	5028.62
678.957	5137.16
679.148	5217.03
679.338	5104.39
679.529	5053.19
679.719	5171.97
679.909	4989.71
680.1	4899.59
680.29	4997.9
680.481	5077.77
680.671	4881.16
680.861	4999.95
681.052	4872.97
681.242	5036.81
681.432	4963.08
681.622	4864.78
681.813	4825.87
682.003	4913.93
682.193	4735.76
682.383	4750.09
682.573	4834.06
682.764	4700.94
682.954	4942.6
683.144	4868.88
683.334	4651.79
683.524	4823.82
683.714	4766.48
683.904	4733.71
684.094	4799.24
684.284	4643.6
684.474	4709.13
684.664	4709.13
684.854	4553.49
685.044	4475.67
685.234	4502.29
685.424	4514.58
685.614	4422.42
685.804	4416.27
685.994	4659.98
686.184	4576.02
686.374	4414.23
686.564	4369.17
686.753	4360.98
686.943	4277.01
687.133	4453.14
687.323	4395.79
687.513	4449.04
687.702	4266.77
687.892	4332.31
688.082	4311.83
688.272	4211.48
688.461	4307.73
688.651	4274.96
688.841	4254.48
689.03	4254.48
689.22	3980.06
689.41	4193.05
689.599	4021.02
689.789	4152.09
689.979	4049.69
690.168	4098.84
690.358	3975.96
690.547	3973.91
690.737	4102.93
690.926	4055.83
691.116	3939.1
691.305	4041.5
691.495	3867.42
691.684	3832.6
691.874	3891.99
692.063	4012.82
692.252	3830.55
692.442	3842.84
692.631	3855.13
692.82	3726.11
693.01	3760.92
693.199	3871.51
693.388	3762.97
693.578	3705.63
693.767	3560.22
693.956	3670.81
694.146	3748.64
694.335	3570.46
694.524	3717.92
694.713	3701.53
694.902	3652.38
695.092	3617.57
695.281	3697.44
695.47	3676.96
695.659	3480.35
695.848	3488.54
696.037	3382.05
696.226	3619.61
696.415	3521.31
696.604	3592.99
696.793	3361.57
696.982	3425.06
697.171	3543.84
697.36	3336.99
697.549	3441.44
697.738	3513.12
697.927	3353.38
698.116	3578.65
698.305	3433.25
698.494	3433.25
698.683	3570.46
698.872	3382.05
699.061	3324.71
699.25	3347.23
699.438	3373.86
699.627	3367.71
699.816	3349.28
700.005	3392.29
700.193	3349.28
700.382	3328.8
700.571	3289.89
700.76	3324.71
700.948	3285.8
701.137	3320.61
701.326	3316.51
701.514	3277.6
701.703	3369.76
701.892	3144.49
702.08	3175.2
702.269	3234.6
702.457	3222.31
702.646	3124.01
702.834	3191.59
703.023	3226.4
703.212	3187.49
703.4	3124.01
703.589	3117.86
703.777	3224.36
703.965	3138.34
704.154	3076.9
704.342	3042.09
704.531	3007.27
704.719	3162.92
704.907	3185.44
705.096	3111.72
705.284	3146.53
705.472	3087.14
705.661	3048.23
705.849	3050.28
706.037	3113.77
706.226	3095.33
706.414	3095.33
706.602	3005.22
706.79	3119.91
706.979	2818.86
707.167	3095.33
707.355	3029.8
707.543	2908.97
707.731	3070.76
707.919	3060.52
708.107	2943.78
708.296	3009.32
708.484	2773.8
708.672	2992.94
708.86	2849.58
709.048	2859.82
709.236	3070.76
709.424	2974.5
709.612	2968.36
709.8	2923.3
709.988	3021.61
710.176	2997.03
710.364	2876.2
710.551	2915.11
710.739	2777.9
710.927	2818.86
711.115	2800.43
711.303	2949.93
711.491	2921.26
711.679	2878.25
711.866	2865.96
712.054	2859.82
712.242	2818.86
712.43	2906.92
712.617	2818.86
712.805	2898.73
712.993	2812.71
713.181	2931.5
713.368	2816.81
713.556	2775.85
713.744	2724.65
713.931	2861.87
714.119	2771.76
714.306	2714.41
714.494	2814.76
714.682	2714.41
714.869	2646.83
715.057	2685.74
715.244	2704.17
715.432	2761.52
715.619	2743.08
715.807	2759.47
715.994	2663.21
716.182	2726.7
716.369	2589.49
716.556	2726.7
716.744	2702.12
716.931	2718.51
717.119	2612.01
717.306	2579.25
717.493	2628.4
717.681	2646.83
717.868	2573.1
718.055	2605.87
718.242	2679.6
718.43	2669.36
718.617	2628.4
718.804	2624.3
718.991	2585.39
719.179	2655.02
719.366	2587.44
719.553	2712.36
719.74	2646.83
719.927	2491.18
720.114	2591.53
720.301	2554.67
720.488	2454.32
720.676	2538.29
720.863	2614.06
721.05	2546.48
721.237	2636.59
721.424	2503.47
721.611	2534.19
721.798	2378.55
721.985	2446.13
722.172	2505.52
722.358	2534.19
722.545	2493.23
722.732	2489.14
722.919	2677.55
723.106	2558.77
723.293	2480.94
723.48	2540.33
723.667	2450.22
723.853	2507.57
724.04	2521.9
724.227	2482.99
724.414	2470.7
724.6	2491.18
724.787	2417.46
724.974	2419.5
725.161	2478.9
725.347	2351.92
725.534	2485.04
725.72	2456.37
725.907	2452.27
726.094	2429.74
726.28	2239.28
726.467	2374.45
726.653	2513.71
726.84	2421.55
727.027	2609.97
727.213	2415.41
727.4	2261.81
727.586	2482.99
727.773	2390.83
727.959	2409.26
728.145	2378.55
728.332	2431.79
728.518	2464.56
728.705	2407.22
728.891	2251.57
729.077	2394.93
729.264	2284.34
729.45	2423.6
729.636	2313.01
729.823	2343.73
730.009	2403.12
730.195	2284.34
730.382	2278.19
730.568	2382.64
730.754	2310.96
730.94	2349.87
731.126	2323.25
731.313	2480.94
731.499	2259.76
731.685	2261.81
731.871	2446.13
732.057	2280.24
732.243	2272.05
732.429	2208.56
732.615	2294.58
732.801	2286.39
732.987	2349.87
733.173	2239.28
733.359	2229.04
733.545	2284.34
733.731	2245.43
733.917	2337.59
734.103	2296.63
734.289	2194.23
734.475	2210.61
734.661	2327.35
734.847	2290.48
735.033	2290.48
735.219	2274.1
735.404	2237.24
735.59	2163.51
735.776	2190.13
735.962	2364.21
736.148	2220.85
736.333	2360.11
736.519	2202.42
736.705	2259.76
736.89	2239.28
737.076	2063.16
737.262	2227
737.447	2100.02
737.633	2122.55
737.819	2186.04
738.004	2188.08
738.19	2179.89
738.375	2122.55
738.561	2171.7
738.747	2120.5
738.932	2130.74
739.118	2177.84
739.303	2130.74
739.489	2112.31
739.674	2075.45
739.859	2030.39
740.045	2067.25
740.23	2095.93
740.416	2011.96
740.601	2153.27
740.786	1876.79
740.972	2054.97
741.157	2005.81
741.342	1948.47
741.528	1932.09
741.713	1948.47
741.898	2020.15
742.084	1991.48
742.269	1997.62
742.454	1977.14
742.639	1983.29
742.824	1999.67
743.01	1919.8
743.195	2067.25
743.38	1923.9
743.565	1960.76
743.75	1936.18
743.935	1950.52
744.12	2005.81
744.305	1856.31
744.49	1887.03
744.675	1841.98
744.86	1811.26
745.045	1889.08
745.23	1860.41
745.415	1852.22
745.6	1846.07
745.785	1858.36
745.97	1848.12
746.155	1766.2
746.34	1798.97
746.525	1844.03
746.71	1753.91
746.895	1780.54
747.079	1708.86
747.264	1837.88
747.449	1768.25
747.634	1829.69
747.819	1641.28
748.003	1731.39
748.188	1704.76
748.373	1661.76
748.557	1624.89
748.742	1633.08
748.927	1694.52
749.111	1686.33
749.296	1573.69
749.481	1694.52
749.665	1657.66
749.85	1616.7
750.034	1653.56
750.219	1631.04
750.404	1432.38
750.588	1606.46
750.773	1514.3
750.957	1518.4
751.141	1538.88
751.326	1555.26
751.51	1551.17
751.695	1514.3
751.879	1573.69
752.064	1375.04
752.248	1465.15
752.432	1456.96
752.617	1401.66
752.801	1481.53
752.985	1450.82
753.17	1446.72
753.354	1493.82
753.538	1444.67
753.722	1407.81
753.907	1442.62
754.091	1309.51
754.275	1317.7
754.459	1301.31
754.643	1350.46
754.828	1338.18
755.012	1352.51
755.196	1256.26
755.38	1411.9
755.564	1252.16
755.748	1303.36
755.932	1327.94
756.116	1227.59
756.3	1305.41
756.484	1246.02
756.668	1231.68
756.852	1211.2
757.036	1135.43
757.22	1203.01
757.404	1227.59
757.588	1260.35
757.772	1178.44
757.956	1237.83
758.14	1207.11
758.323	1104.71
758.507	1176.39
758.691	1180.48
758.875	1129.28
759.059	1237.83
759.242	1127.24
759.426	1104.71
759.61	1145.67
759.794	1104.71
759.977	1127.24
760.161	1147.72
760.345	1092.42
760.528	1139.52
760.712	1092.42
760.895	1047.37
761.079	1147.72
761.263	1043.27
761.446	1092.42
761.63	1104.71
761.813	1041.22
761.997	969.54
762.18	1035.08
762.364	1071.94
762.547	987.97
762.731	959.3
762.914	1080.13
763.098	1030.98
763.281	1000.26
763.464	934.73
763.648	1041.22
763.831	996.17
764.015	1022.79
764.198	1043.27
764.381	940.87
764.564	1035.08
764.748	928.58
764.931	987.97
765.114	965.45
765.297	881.48
765.481	883.53
765.664	981.83
765.847	998.21
766.03	992.07
766.213	871.24
766.397	998.21
766.58	920.39
766.763	959.3
766.946	908.1
767.129	893.77
767.312	916.3
767.495	928.58
767.678	932.68
767.861	883.53
768.044	887.62
768.227	977.73
768.41	953.16
768.593	795.47
768.776	858.95
768.959	801.61
769.142	875.34
769.324	852.81
769.507	928.58
769.69	844.62
769.873	766.79
770.056	920.39
770.239	852.81
770.421	908.1
770.604	891.72
770.787	746.31
770.97	856.9
771.152	736.07
771.335	770.89
771.518	740.17
771.7	836.42
771.883	805.71
772.066	736.07
772.248	787.27
772.431	801.61
772.613	832.33
772.796	727.88
772.978	779.08
773.161	840.52
773.343	777.03
773.526	695.11
773.708	736.07
773.891	719.69
774.073	754.51
774.256	781.13
774.438	768.84
774.621	721.74
774.803	736.07
774.985	762.7
775.168	762.7
775.35	723.79
775.532	672.59
775.715	691.02
775.897	695.11
776.079	695.11
776.261	750.41
776.444	568.14
776.626	742.22
776.808	705.35
776.99	721.74
777.173	613.2
777.355	686.92
777.537	648.01
777.719	631.63
777.901	631.63
778.083	605
778.265	686.92
778.447	736.07
778.629	725.83
778.811	648.01
778.993	654.16
779.175	641.87
779.357	701.26
779.539	498.51
779.721	525.13
779.903	580.43
780.085	582.48
780.267	607.05
780.449	531.28
780.631	613.2
780.812	453.45
780.994	514.89
781.176	557.9
781.358	652.11
781.54	539.47
781.721	531.28
781.903	459.6
782.085	539.47
782.267	564.04
782.448	426.83
782.63	539.47
782.812	578.38
782.993	539.47
783.175	482.13
783.357	496.46
783.538	588.62
783.72	516.94
783.901	516.94
784.083	443.21
784.264	424.78
784.446	426.83
784.627	514.89
784.809	502.61
784.99	463.69
785.172	451.41
785.353	453.45
785.535	385.87
785.716	494.41
785.897	383.82
786.079	361.3
786.26	457.55
786.441	426.83
786.623	412.5
786.804	461.65
786.985	379.73
787.167	473.93
787.348	392.02
787.529	420.69
787.71	437.07
787.891	396.11
788.073	463.69
788.254	445.26
788.435	400.21
788.616	469.84
788.797	400.21
788.978	418.64
789.159	355.15
789.34	412.5
789.522	402.26
789.703	449.36
789.884	396.11
790.065	387.92
790.246	375.63
790.427	342.86
790.607	398.16
790.788	385.87
790.969	332.62
791.15	344.91
791.331	301.9
791.512	375.63
791.693	318.29
791.874	310.1
792.054	432.97
792.235	287.57
792.416	324.43
792.597	394.06
792.778	369.49
792.958	371.54
793.139	336.72
793.32	361.3
793.5	338.77
793.681	318.29
793.862	258.9
794.042	432.97
794.223	301.9
794.404	326.48
794.584	301.9
794.765	279.38
794.945	265.04
795.126	318.29
795.306	363.34
795.487	279.38
795.667	287.57
795.848	396.11
796.028	326.48
796.209	277.33
796.389	262.99
796.57	281.43
796.75	355.15
796.93	265.04
797.111	277.33
797.291	295.76
797.471	285.52
797.652	312.14
797.832	183.12
798.012	320.34
798.192	246.61
798.373	277.33
798.553	203.6
798.733	310.1
798.913	189.27
799.093	252.75
799.274	287.57
799.454	303.95
799.634	232.27
799.814	299.86
799.994	191.31
800.174	248.66
800.354	269.14
800.534	195.41
800.714	203.6
800.894	174.93
801.074	242.51
801.254	256.85
801.434	246.61
801.614	232.27
801.794	228.18
801.974	793.42
802.154	252.75
802.334	281.43
802.514	246.61
802.693	244.56
802.873	170.83
803.053	242.51
803.233	107.35
803.413	219.99
803.592	195.41
803.772	164.69
803.952	224.08
804.131	176.98
804.311	228.18
804.491	256.85
804.67	232.27
804.85	232.27
805.03	228.18
805.209	254.8
805.389	211.79
805.568	187.22
805.748	172.88
805.928	197.46
806.107	174.93
806.287	207.7
806.466	187.22
806.646	215.89
806.825	172.88
807.004	248.66
807.184	262.99
807.363	142.16
807.543	138.07
807.722	248.66
807.901	162.64
808.081	240.47
808.26	113.49
808.439	211.79
808.619	162.64
808.798	138.07
808.977	162.64
809.156	213.84
809.336	269.14
809.515	154.45
809.694	140.12
809.873	117.59
810.052	131.92
810.231	199.51
810.411	144.21
810.59	219.99
810.769	211.79
810.948	291.66
811.127	105.3
811.306	154.45
811.485	187.22
811.664	262.99
811.843	164.69
812.022	123.73
812.201	138.07
812.38	230.23
812.559	50
812.737	187.22
812.916	93.01
813.095	115.54
813.274	179.03
813.453	181.07
813.632	129.88
813.811	195.41
813.989	88.92
814.168	215.89
814.347	123.73
814.526	121.68
814.704	209.75
814.883	140.12
815.062	213.84
815.24	97.11
815.419	121.68
815.598	172.88
815.776	97.11
815.955	115.54
816.133	115.54
816.312	244.56
816.49	162.64
816.669	150.36
816.847	136.02
817.026	107.35
817.204	113.49
817.383	82.77
817.561	82.77
817.74	133.97
817.918	150.36
818.097	148.31
818.275	144.21
818.453	164.69
818.632	191.31
818.81	101.2
818.988	162.64
819.167	105.3
819.345	80.72
819.523	66.39
819.701	142.16
819.879	86.87
820.058	84.82
820.236	123.73
820.414	99.16
820.592	103.25
820.77	107.35
820.948	213.84
821.127	74.58
821.305	109.4
821.483	103.25
821.661	172.88
821.839	88.92
822.017	129.88
822.195	195.41
822.373	107.35
822.551	131.92
822.729	170.83
822.907	72.53
823.085	123.73
823.262	119.64
823.44	35.67
823.618	129.88
823.796	181.07
823.974	82.77
824.152	113.49
824.329	158.55
824.507	60.24
824.685	146.26
824.863	117.59
825.04	103.25
825.218	117.59
825.396	152.4
825.574	174.93
825.751	66.39
825.929	154.45
826.107	113.49
826.284	97.11
826.462	52.05
826.639	80.72
826.817	113.49
826.994	127.83
827.172	54.1
827.349	123.73
827.527	111.44
827.704	101.2
827.882	56.15
828.059	66.39
828.237	52.05
828.414	88.92
828.591	56.15
828.769	99.16
828.946	121.68
829.124	115.54
829.301	111.44
829.478	115.54
829.655	164.69
829.833	97.11
830.01	25.43
830.187	93.01
830.364	125.78
830.542	107.35
830.719	105.3
830.896	95.06
831.073	82.77
831.25	105.3
831.427	82.77
831.604	113.49
831.782	33.62
831.959	115.54
832.136	211.79
832.313	170.83
832.49	58.2
832.667	125.78
832.844	60.24
833.021	142.16
833.198	41.81
833.374	146.26
833.551	158.55
833.728	84.82
833.905	74.58
834.082	105.3
834.259	156.5
834.436	113.49
834.612	25.43
834.789	58.2
834.966	11.09
835.143	88.92
835.319	103.25
835.496	39.76
835.673	113.49
835.85	113.49
836.026	21.33
836.203	72.53
836.38	97.11
836.556	88.92
836.733	99.16
836.909	88.92
837.086	70.48
837.262	84.82
837.439	133.97
837.616	140.12
837.792	101.2
837.968	43.86
838.145	41.81
838.321	62.29
838.498	90.96
838.674	68.44
838.851	80.72
839.027	37.72
839.203	82.77
839.38	105.3
839.556	72.53
839.732	88.92
839.909	189.27
840.085	88.92
840.261	19.29
840.437	129.88
840.614	35.67
840.79	62.29
840.966	74.58
841.142	121.68
841.318	64.34
841.494	129.88
841.671	125.78
841.847	64.34
842.023	23.38
842.199	82.77
842.375	125.78
842.551	39.76
842.727	25.43
842.903	131.92
843.079	-9.39
843.255	39.76
843.431	162.64
843.607	80.72
843.783	29.52
843.959	66.39
844.134	27.48
844.31	33.62
844.486	60.24
844.662	43.86
844.838	43.86
845.013	113.49
845.189	41.81
845.365	33.62
845.541	52.05
845.716	72.53
845.892	97.11
846.068	7
846.244	50
846.419	82.77
846.595	9.05
846.77	68.44
846.946	76.63
847.122	56.15
847.297	9.05
847.473	54.1
847.648	27.48
847.824	90.96
847.999	23.38
848.175	76.63
848.35	0.85
848.526	93.01
848.701	-1.19
848.876	64.34
849.052	121.68
849.227	43.86
849.403	-40.11
849.578	66.39
849.753	41.81
849.929	117.59
850.104	78.68
850.279	76.63
850.454	101.2
850.63	66.39
850.805	-1.19
850.98	82.77
851.155	45.91
851.33	39.76
851.505	-13.48
851.681	168.79
851.856	19.29
852.031	0.85
852.206	25.43
852.381	25.43
852.556	-7.34
852.731	21.33
852.906	7
853.081	80.72
853.256	74.58
853.431	58.2
853.606	93.01
853.781	23.38
853.956	31.57
854.131	-9.39
854.305	2.9
854.48	41.81
854.655	21.33
854.83	27.48
855.005	31.57
855.18	56.15
855.354	52.05
855.529	74.58
855.704	-42.15
855.879	72.53
856.053	19.29
856.228	97.11
856.403	17.24
856.577	99.16
856.752	45.91
856.926	11.09
857.101	33.62
857.276	99.16
857.45	47.96
857.625	15.19
857.799	-46.25
857.974	21.33
858.148	33.62
858.323	56.15
858.497	82.77
858.672	27.48
858.846	-13.48
859.02	25.43
859.195	-62.63
859.369	-15.53
859.543	58.2
859.718	-46.25
859.892	70.48
860.066	80.72
860.241	11.09
860.415	-7.34
860.589	60.24
860.763	50
860.938	2.9
861.112	47.96
861.286	29.52
861.46	23.38
861.634	7
861.808	90.96
861.982	121.68
862.157	43.86
862.331	56.15
862.505	-81.07
862.679	-40.11
862.853	50
863.027	-7.34
863.201	97.11
863.375	-40.11
863.549	97.11
863.722	-19.63
863.896	17.24
864.07	-21.67
864.244	-33.96
864.418	2.9
864.592	64.34
864.766	29.52
864.939	76.63
865.113	-29.87
865.287	50
865.461	-1.19
865.634	50
865.808	25.43
865.982	25.43
866.156	-17.58
866.329	-13.48
866.503	31.57
866.676	23.38
866.85	41.81
867.024	31.57
867.197	66.39
867.371	-7.34
867.544	11.09
867.718	56.15
867.891	0.85
868.065	72.53
868.238	47.96
868.412	62.29
868.585	35.67
868.759	33.62
868.932	-52.39
869.105	-1.19
869.279	43.86
869.452	45.91
869.625	33.62
869.799	11.09
869.972	41.81
870.145	25.43
870.319	19.29
870.492	-33.96
870.665	-48.3
870.838	4.95
871.011	-48.3
871.185	-5.29
871.358	2.9
871.531	58.2
871.704	27.48
871.877	29.52
872.05	9.05
872.223	-7.34
872.396	97.11
872.569	23.38
872.742	0.85
872.915	23.38
873.088	9.05
873.261	13.14
873.434	31.57
873.607	37.72
873.78	39.76
873.953	-62.63
874.126	-9.39
874.299	-1.19
874.471	88.92
874.644	47.96
874.817	31.57
874.99	31.57
875.163	-1.19
875.335	-33.96
875.508	66.39
875.681	115.54
875.853	23.38
876.026	15.19
876.199	23.38
876.371	43.86
876.544	-7.34
876.717	-7.34
876.889	19.29
877.062	11.09
877.234	15.19
877.407	-27.82
877.579	15.19
877.752	105.3
877.924	17.24
878.097	27.48
878.269	-9.39
878.442	-7.34
878.614	-7.34
878.786	115.54
878.959	29.52
879.131	9.05
879.303	-42.15
879.476	-62.63
879.648	41.81
879.82	41.81
879.993	19.29
880.165	72.53
880.337	-21.67
880.509	7
880.681	35.67
880.854	15.19
881.026	37.72
881.198	41.81
881.37	-40.11
881.542	25.43
881.714	-46.25
881.886	-1.19
882.058	7
882.23	-17.58
882.402	-3.24
882.574	58.2
882.746	41.81
882.918	43.86
883.09	11.09
883.262	9.05
883.434	-25.77
883.606	39.76
883.778	15.19
883.95	121.68
884.122	-7.34
884.293	60.24
884.465	43.86
884.637	31.57
884.809	-15.53
884.98	-9.39
885.152	-21.67
885.324	15.19
885.496	-7.34
885.667	-42.15
885.839	-1.19
886.011	13.14
886.182	29.52
886.354	50
886.525	64.34
886.697	-15.53
886.869	27.48
887.04	4.95
887.212	31.57
887.383	64.34
887.555	31.57
887.726	-83.11
887.897	-5.29
888.069	-27.82
888.24	-1.19
888.412	-36.01
888.583	2.9
888.754	-42.15
888.926	-25.77
889.097	39.76
889.268	19.29
889.44	0.85
889.611	-19.63
889.782	9.05
889.953	64.34
890.125	7
890.296	-62.63
890.467	-29.87
890.638	33.62
890.809	74.58
890.98	-25.77
891.151	7
891.323	33.62
891.494	7
891.665	50
891.836	41.81
892.007	25.43
892.178	19.29
892.349	35.67
892.52	29.52
892.691	0.85
892.862	7
893.032	-15.53
893.203	-15.53
893.374	45.91
893.545	21.33
893.716	15.19
893.887	13.14
894.057	-5.29
894.228	39.76
894.399	4.95
894.57	99.16
894.74	15.19
894.911	99.16
895.082	-36.01
895.253	-25.77
895.423	13.14
895.594	-36.01
895.764	-1.19
895.935	-31.91
896.106	-62.63
896.276	-17.58
896.447	-42.15
896.617	47.96
896.788	-31.91
896.958	-1.19
897.129	25.43
897.299	58.2
897.47	121.68
897.64	17.24
897.81	35.67
897.981	-74.92
898.151	39.76
898.322	60.24
898.492	7
898.662	-1.19
898.832	-36.01
899.003	47.96
899.173	15.19
899.343	-33.96
899.513	62.29
