Data from USB4F104151__233__14-22-06-572.txt Node

Date: Thu Mar 13 14:22:06 EDT 2025
User: louis
Spectrometer: USB4F10415
Trigger mode: 4
Integration Time (sec): 2.000000E-2
Scans to average: 1
Electric dark correction enabled: true
Nonlinearity correction enabled: false
Boxcar width: 0
XAxis mode: Wavelengths
Number of Pixels in Spectrum: 3648
>>>>>Begin Spectral Data<<<<<
178.204	-89.77
178.424	-89.77
178.644	-89.77
178.864	-81.58
179.084	-147.11
179.304	-32.43
179.524	-46.76
179.744	-7.85
179.964	18.77
180.184	78.16
180.404	51.54
180.624	47.44
180.844	41.3
181.064	-83.63
181.283	-7.85
181.503	-67.24
181.723	8.53
181.943	-48.81
182.163	117.08
182.383	-32.43
182.602	31.06
182.822	26.96
183.042	24.92
183.262	51.54
183.482	-9.9
183.701	39.25
183.921	49.49
184.141	-50.86
184.361	6.49
184.58	53.59
184.8	82.26
185.02	35.16
185.239	82.26
185.459	16.73
185.679	96.6
185.898	6.49
186.118	41.3
186.338	8.53
186.557	51.54
186.777	22.87
186.997	33.11
187.216	6.49
187.436	78.16
187.655	59.73
187.875	63.83
188.095	74.07
188.314	76.12
188.534	14.68
188.753	-22.19
188.973	6.49
189.192	63.83
189.412	43.35
189.631	-32.43
189.851	-38.57
190.07	55.64
190.29	0.34
190.509	2.39
190.729	72.02
190.948	43.35
191.168	76.12
191.387	45.4
191.607	39.25
191.826	90.45
192.045	35.16
192.265	6.49
192.484	-7.85
192.704	94.55
192.923	-9.9
193.142	22.87
193.362	18.77
193.581	190.8
193.8	14.68
194.02	55.64
194.239	22.87
194.458	92.5
194.678	80.21
194.897	41.3
195.116	-13.99
195.335	-22.19
195.555	96.6
195.774	59.73
195.993	90.45
196.212	22.87
196.432	14.68
196.651	0.34
196.87	47.44
197.089	137.56
197.308	-11.95
197.528	43.35
197.747	-24.23
197.966	-7.85
198.185	106.84
198.404	41.3
198.623	102.74
198.842	47.44
199.062	59.73
199.281	94.55
199.5	53.59
199.719	63.83
199.938	26.96
200.157	14.68
200.376	92.5
200.595	14.68
200.814	72.02
201.033	33.11
201.252	88.4
201.471	78.16
201.69	43.35
201.909	26.96
202.128	8.53
202.347	57.68
202.566	-11.95
202.785	-9.9
203.004	31.06
203.223	106.84
203.442	4.44
203.661	55.64
203.879	35.16
204.098	59.73
204.317	14.68
204.536	65.88
204.755	43.35
204.974	-32.43
205.193	-5.8
205.411	76.12
205.63	33.11
205.849	22.87
206.068	55.64
206.287	43.35
206.505	51.54
206.724	14.68
206.943	112.98
207.162	94.55
207.381	41.3
207.599	31.06
207.818	100.69
208.037	49.49
208.255	12.63
208.474	74.07
208.693	55.64
208.911	53.59
209.13	43.35
209.349	-1.71
209.567	63.83
209.786	82.26
210.005	96.6
210.223	-40.62
210.442	-1.71
210.661	49.49
210.879	74.07
211.098	47.44
211.316	72.02
211.535	-5.8
211.753	22.87
211.972	31.06
212.191	57.68
212.409	14.68
212.628	80.21
212.846	2.39
213.065	35.16
213.283	24.92
213.502	39.25
213.72	55.64
213.938	12.63
214.157	37.2
214.375	39.25
214.594	47.44
214.812	51.54
215.031	49.49
215.249	-20.14
215.467	45.4
215.686	84.31
215.904	63.83
216.122	26.96
216.341	49.49
216.559	0.34
216.778	59.73
216.996	43.35
217.214	47.44
217.432	-30.38
217.651	47.44
217.869	22.87
218.087	57.68
218.306	57.68
218.524	6.49
218.742	22.87
218.96	88.4
219.179	88.4
219.397	35.16
219.615	8.53
219.833	63.83
220.051	-1.71
220.27	106.84
220.488	-1.71
220.706	26.96
220.924	-18.09
221.142	6.49
221.36	51.54
221.578	51.54
221.796	88.4
222.015	24.92
222.233	26.96
222.451	24.92
222.669	43.35
222.887	80.21
223.105	-11.95
223.323	-20.14
223.541	78.16
223.759	49.49
223.977	53.59
224.195	69.97
224.413	59.73
224.631	47.44
224.849	-9.9
225.067	88.4
225.285	55.64
225.503	72.02
225.721	-32.43
225.939	121.17
226.157	55.64
226.375	24.92
226.592	33.11
226.81	-9.9
227.028	133.46
227.246	129.36
227.464	-9.9
227.682	78.16
227.9	80.21
228.117	96.6
228.335	55.64
228.553	59.73
228.771	96.6
228.989	47.44
229.206	35.16
229.424	0.34
229.642	37.2
229.86	14.68
230.077	67.92
230.295	6.49
230.513	65.88
230.731	39.25
230.948	22.87
231.166	57.68
231.384	26.96
231.601	47.44
231.819	41.3
232.037	-3.75
232.254	-30.38
232.472	72.02
232.689	20.82
232.907	39.25
233.125	22.87
233.342	-1.71
233.56	0.34
233.777	14.68
233.995	57.68
234.213	76.12
234.43	55.64
234.648	-18.09
234.865	16.73
235.083	41.3
235.3	72.02
235.518	39.25
235.735	-9.9
235.953	6.49
236.17	20.82
236.388	47.44
236.605	37.2
236.822	18.77
237.04	18.77
237.257	0.34
237.475	-54.95
237.692	43.35
237.909	117.08
238.127	65.88
238.344	0.34
238.562	45.4
238.779	53.59
238.996	14.68
239.214	65.88
239.431	63.83
239.648	26.96
239.865	41.3
240.083	10.58
240.3	18.77
240.517	35.16
240.735	51.54
240.952	35.16
241.169	22.87
241.386	0.34
241.603	35.16
241.821	55.64
242.038	96.6
242.255	100.69
242.472	0.34
242.689	88.4
242.907	98.64
243.124	-16.04
243.341	-50.86
243.558	6.49
243.775	8.53
243.992	26.96
244.209	8.53
244.426	14.68
244.643	31.06
244.86	41.3
245.078	72.02
245.295	43.35
245.512	16.73
245.729	-50.86
245.946	10.58
246.163	-44.71
246.38	33.11
246.597	67.92
246.814	2.39
247.031	-18.09
247.248	80.21
247.464	80.21
247.681	78.16
247.898	108.88
248.115	55.64
248.332	31.06
248.549	24.92
248.766	125.27
248.983	26.96
249.2	88.4
249.417	-30.38
249.633	55.64
249.85	129.36
250.067	14.68
250.284	141.65
250.501	35.16
250.717	63.83
250.934	47.44
251.151	59.73
251.368	33.11
251.585	72.02
251.801	80.21
252.018	4.44
252.235	61.78
252.451	104.79
252.668	61.78
252.885	125.27
253.102	49.49
253.318	49.49
253.535	74.07
253.752	39.25
253.968	26.96
254.185	49.49
254.401	47.44
254.618	55.64
254.835	29.01
255.051	82.26
255.268	18.77
255.484	63.83
255.701	72.02
255.917	16.73
256.134	-5.8
256.351	39.25
256.567	6.49
256.784	14.68
257	20.82
257.217	12.63
257.433	39.25
257.65	92.5
257.866	125.27
258.082	6.49
258.299	-1.71
258.515	8.53
258.732	4.44
258.948	-18.09
259.165	6.49
259.381	29.01
259.597	63.83
259.814	-79.53
260.03	57.68
260.246	74.07
260.463	84.31
260.679	67.92
260.895	-11.95
261.112	131.41
261.328	12.63
261.544	4.44
261.761	135.51
261.977	24.92
262.193	8.53
262.409	84.31
262.626	-26.28
262.842	80.21
263.058	-13.99
263.274	72.02
263.49	39.25
263.707	125.27
263.923	18.77
264.139	-16.04
264.355	8.53
264.571	14.68
264.787	47.44
265.004	96.6
265.22	14.68
265.436	22.87
265.652	12.63
265.868	51.54
266.084	31.06
266.3	16.73
266.516	-13.99
266.732	51.54
266.948	18.77
267.164	39.25
267.38	80.21
267.596	164.18
267.812	22.87
268.028	82.26
268.244	39.25
268.46	-1.71
268.676	-18.09
268.892	92.5
269.108	8.53
269.324	26.96
269.54	31.06
269.756	96.6
269.972	-22.19
270.188	-16.04
270.403	-20.14
270.619	37.2
270.835	-7.85
271.051	16.73
271.267	31.06
271.483	63.83
271.698	31.06
271.914	-11.95
272.13	92.5
272.346	35.16
272.562	-30.38
272.777	98.64
272.993	-9.9
273.209	16.73
273.425	115.03
273.64	39.25
273.856	39.25
274.072	115.03
274.287	-16.04
274.503	112.98
274.719	65.88
274.934	63.83
275.15	90.45
275.366	121.17
275.581	10.58
275.797	39.25
276.012	18.77
276.228	61.78
276.444	26.96
276.659	108.88
276.875	59.73
277.09	6.49
277.306	-18.09
277.521	110.93
277.737	47.44
277.952	47.44
278.168	55.64
278.383	-7.85
278.599	49.49
278.814	145.75
279.03	92.5
279.245	112.98
279.461	24.92
279.676	41.3
279.892	-24.23
280.107	47.44
280.322	-34.47
280.538	92.5
280.753	20.82
280.969	112.98
281.184	4.44
281.399	67.92
281.615	-26.28
281.83	29.01
282.045	94.55
282.26	-36.52
282.476	10.58
282.691	33.11
282.906	72.02
283.122	59.73
283.337	16.73
283.552	108.88
283.767	14.68
283.983	84.31
284.198	26.96
284.413	-5.8
284.628	0.34
284.843	104.79
285.058	67.92
285.274	-34.47
285.489	24.92
285.704	0.34
285.919	96.6
286.134	-22.19
286.349	22.87
286.564	29.01
286.779	61.78
286.995	53.59
287.21	26.96
287.425	82.26
287.64	51.54
287.855	24.92
288.07	69.97
288.285	96.6
288.5	12.63
288.715	153.94
288.93	49.49
289.145	76.12
289.36	49.49
289.575	16.73
289.79	22.87
290.004	18.77
290.219	0.34
290.434	74.07
290.649	-18.09
290.864	43.35
291.079	65.88
291.294	84.31
291.509	117.08
291.724	88.4
291.938	80.21
292.153	35.16
292.368	14.68
292.583	16.73
292.798	-18.09
293.012	88.4
293.227	96.6
293.442	90.45
293.657	45.4
293.871	84.31
294.086	55.64
294.301	121.17
294.516	69.97
294.73	92.5
294.945	10.58
295.16	63.83
295.374	117.08
295.589	96.6
295.804	82.26
296.018	47.44
296.233	31.06
296.447	72.02
296.662	2.39
296.877	98.64
297.091	86.36
297.306	-36.52
297.52	61.78
297.735	82.26
297.949	20.82
298.164	35.16
298.378	76.12
298.593	39.25
298.807	-3.75
299.022	49.49
299.236	14.68
299.451	-9.9
299.665	88.4
299.88	72.02
300.094	88.4
300.309	65.88
300.523	74.07
300.737	92.5
300.952	22.87
301.166	31.06
301.381	106.84
301.595	24.92
301.809	96.6
302.024	31.06
302.238	10.58
302.452	33.11
302.667	108.88
302.881	0.34
303.095	127.32
303.309	96.6
303.524	29.01
303.738	35.16
303.952	-26.28
304.166	55.64
304.381	69.97
304.595	123.22
304.809	14.68
305.023	22.87
305.237	72.02
305.452	96.6
305.666	57.68
305.88	51.54
306.094	33.11
306.308	43.35
306.522	88.4
306.736	20.82
306.95	22.87
307.164	92.5
307.379	43.35
307.593	100.69
307.807	37.2
308.021	123.22
308.235	55.64
308.449	14.68
308.663	59.73
308.877	39.25
309.091	102.74
309.305	2.39
309.519	-44.71
309.733	100.69
309.947	10.58
310.161	51.54
310.374	127.32
310.588	35.16
310.802	39.25
311.016	35.16
311.23	65.88
311.444	86.36
311.658	65.88
311.872	57.68
312.085	137.56
312.299	121.17
312.513	47.44
312.727	90.45
312.941	18.77
313.154	39.25
313.368	57.68
313.582	43.35
313.796	92.5
314.009	6.49
314.223	39.25
314.437	63.83
314.651	74.07
314.864	6.49
315.078	8.53
315.292	31.06
315.505	47.44
315.719	90.45
315.933	82.26
316.146	16.73
316.36	69.97
316.573	47.44
316.787	61.78
317.001	0.34
317.214	63.83
317.428	86.36
317.641	-46.76
317.855	143.7
318.068	-59.05
318.282	0.34
318.495	43.35
318.709	55.64
318.922	78.16
319.136	88.4
319.349	115.03
319.563	110.93
319.776	43.35
319.99	26.96
320.203	67.92
320.417	80.21
320.63	100.69
320.843	88.4
321.057	20.82
321.27	-24.23
321.483	76.12
321.697	108.88
321.91	82.26
322.124	22.87
322.337	55.64
322.55	72.02
322.763	162.13
322.977	74.07
323.19	-7.85
323.403	92.5
323.617	31.06
323.83	80.21
324.043	26.96
324.256	-18.09
324.469	24.92
324.683	100.69
324.896	47.44
325.109	51.54
325.322	47.44
325.535	82.26
325.748	39.25
325.962	-7.85
326.175	121.17
326.388	39.25
326.601	94.55
326.814	96.6
327.027	55.64
327.24	67.92
327.453	16.73
327.666	-16.04
327.879	53.59
328.092	76.12
328.305	39.25
328.518	121.17
328.731	59.73
328.944	51.54
329.157	55.64
329.37	22.87
329.583	141.65
329.796	33.11
330.009	6.49
330.222	63.83
330.435	92.5
330.648	-7.85
330.861	47.44
331.073	137.56
331.286	74.07
331.499	39.25
331.712	106.84
331.925	170.32
332.138	69.97
332.35	39.25
332.563	47.44
332.776	65.88
332.989	-16.04
333.202	65.88
333.414	96.6
333.627	112.98
333.84	69.97
334.053	63.83
334.265	104.79
334.478	14.68
334.691	63.83
334.903	84.31
335.116	-5.8
335.329	18.77
335.541	63.83
335.754	155.99
335.966	63.83
336.179	43.35
336.392	121.17
336.604	98.64
336.817	84.31
337.029	41.3
337.242	43.35
337.454	92.5
337.667	2.39
337.88	90.45
338.092	72.02
338.305	22.87
338.517	35.16
338.729	43.35
338.942	96.6
339.154	57.68
339.367	39.25
339.579	49.49
339.792	39.25
340.004	43.35
340.217	14.68
340.429	55.64
340.641	0.34
340.854	-42.67
341.066	24.92
341.278	115.03
341.491	170.32
341.703	112.98
341.915	35.16
342.128	106.84
342.34	39.25
342.552	-3.75
342.764	39.25
342.977	33.11
343.189	26.96
343.401	55.64
343.613	0.34
343.826	41.3
344.038	31.06
344.25	112.98
344.462	47.44
344.674	47.44
344.886	98.64
345.099	72.02
345.311	59.73
345.523	98.64
345.735	35.16
345.947	104.79
346.159	57.68
346.371	47.44
346.583	0.34
346.795	76.12
347.007	59.73
347.219	61.78
347.431	67.92
347.643	133.46
347.855	88.4
348.067	96.6
348.279	72.02
348.491	100.69
348.703	65.88
348.915	-9.9
349.127	45.4
349.339	57.68
349.551	26.96
349.763	84.31
349.975	41.3
350.187	100.69
350.399	108.88
350.61	121.17
350.822	24.92
351.034	74.07
351.246	112.98
351.458	78.16
351.669	31.06
351.881	104.79
352.093	31.06
352.305	49.49
352.517	80.21
352.728	39.25
352.94	88.4
353.152	33.11
353.363	51.54
353.575	59.73
353.787	129.36
353.999	90.45
354.21	96.6
354.422	-20.14
354.633	55.64
354.845	55.64
355.057	29.01
355.268	0.34
355.48	33.11
355.692	-5.8
355.903	26.96
356.115	4.44
356.326	31.06
356.538	115.03
356.749	100.69
356.961	104.79
357.172	47.44
357.384	61.78
357.595	115.03
357.807	153.94
358.018	-42.67
358.23	123.22
358.441	43.35
358.653	80.21
358.864	61.78
359.075	90.45
359.287	133.46
359.498	106.84
359.709	16.73
359.921	57.68
360.132	-32.43
360.344	14.68
360.555	47.44
360.766	94.55
360.977	65.88
361.189	115.03
361.4	33.11
361.611	-18.09
361.823	147.8
362.034	39.25
362.245	31.06
362.456	14.68
362.667	100.69
362.879	33.11
363.09	57.68
363.301	129.36
363.512	84.31
363.723	67.92
363.935	63.83
364.146	102.74
364.357	55.64
364.568	72.02
364.779	-36.52
364.99	33.11
365.201	106.84
365.412	82.26
365.623	51.54
365.834	92.5
366.045	41.3
366.256	55.64
366.467	76.12
366.678	24.92
366.889	43.35
367.1	86.36
367.311	110.93
367.522	67.92
367.733	125.27
367.944	22.87
368.155	45.4
368.366	59.73
368.577	162.13
368.788	63.83
368.999	88.4
369.209	112.98
369.42	147.8
369.631	141.65
369.842	16.73
370.053	20.82
370.264	127.32
370.474	31.06
370.685	26.96
370.896	133.46
371.107	55.64
371.317	65.88
371.528	82.26
371.739	-9.9
371.95	106.84
372.16	108.88
372.371	14.68
372.582	55.64
372.792	96.6
373.003	18.77
373.214	31.06
373.424	51.54
373.635	14.68
373.846	92.5
374.056	80.21
374.267	45.4
374.477	67.92
374.688	39.25
374.898	96.6
375.109	80.21
375.319	119.12
375.53	155.99
375.74	72.02
375.951	112.98
376.161	33.11
376.372	90.45
376.582	84.31
376.793	115.03
377.003	108.88
377.214	22.87
377.424	80.21
377.635	63.83
377.845	6.49
378.055	59.73
378.266	22.87
378.476	4.44
378.686	76.12
378.897	65.88
379.107	129.36
379.317	33.11
379.528	63.83
379.738	86.36
379.948	88.4
380.158	129.36
380.369	63.83
380.579	168.27
380.789	72.02
380.999	39.25
381.21	76.12
381.42	174.42
381.63	14.68
381.84	18.77
382.05	69.97
382.261	135.51
382.471	96.6
382.681	82.26
382.891	61.78
383.101	112.98
383.311	63.83
383.521	57.68
383.731	129.36
383.941	61.78
384.151	49.49
384.361	76.12
384.571	-13.99
384.781	90.45
384.991	131.41
385.201	92.5
385.411	88.4
385.621	57.68
385.831	137.56
386.041	63.83
386.251	76.12
386.461	84.31
386.671	98.64
386.881	47.44
387.091	82.26
387.301	51.54
387.511	88.4
387.72	121.17
387.93	26.96
388.14	8.53
388.35	-1.71
388.56	129.36
388.769	96.6
388.979	88.4
389.189	16.73
389.399	82.26
389.609	104.79
389.818	139.6
390.028	133.46
390.238	88.4
390.447	131.41
390.657	57.68
390.867	69.97
391.076	84.31
391.286	10.58
391.496	170.32
391.705	129.36
391.915	82.26
392.125	104.79
392.334	108.88
392.544	194.9
392.753	94.55
392.963	104.79
393.172	155.99
393.382	59.73
393.591	135.51
393.801	112.98
394.01	121.17
394.22	110.93
394.429	90.45
394.639	96.6
394.848	80.21
395.058	115.03
395.267	72.02
395.477	188.75
395.686	92.5
395.895	174.42
396.105	112.98
396.314	160.08
396.524	135.51
396.733	69.97
396.942	151.89
397.152	53.59
397.361	178.51
397.57	92.5
397.78	131.41
397.989	162.13
398.198	221.52
398.407	180.56
398.617	194.9
398.826	149.84
399.035	117.08
399.244	153.94
399.453	178.51
399.663	67.92
399.872	115.03
400.081	104.79
400.29	227.67
400.499	80.21
400.708	186.71
400.917	182.61
401.127	115.03
401.336	176.47
401.545	227.67
401.754	235.86
401.963	170.32
402.172	102.74
402.381	145.75
402.59	102.74
402.799	129.36
403.008	162.13
403.217	178.51
403.426	280.91
403.635	147.8
403.844	198.99
404.053	168.27
404.262	194.9
404.471	188.75
404.68	221.52
404.888	258.39
405.097	153.94
405.306	235.86
405.515	203.09
405.724	153.94
405.933	239.95
406.142	227.67
406.35	303.44
406.559	229.71
406.768	180.56
406.977	305.49
407.185	225.62
407.394	301.39
407.603	289.1
407.812	285.01
408.02	340.3
408.229	264.53
408.438	319.82
408.646	371.02
408.855	272.72
409.064	371.02
409.272	336.21
409.481	303.44
409.69	334.16
409.898	375.12
410.107	387.41
410.315	424.27
410.524	436.56
410.733	491.85
410.941	405.84
411.15	510.29
411.358	411.98
411.567	547.15
411.775	584.01
411.984	440.65
412.192	604.49
412.401	606.54
412.609	676.17
412.818	663.88
413.026	641.36
413.234	596.3
413.443	713.03
413.651	655.69
413.86	780.62
414.068	844.1
414.276	792.91
414.485	905.54
414.693	891.21
414.901	883.02
415.11	923.98
415.318	942.41
415.526	919.88
415.734	1038.66
415.943	940.36
416.151	1237.31
416.359	1018.18
416.567	1171.78
416.776	1147.2
416.984	1261.89
417.192	1229.12
417.4	1251.65
417.608	1296.71
417.817	1360.19
418.025	1409.34
418.233	1505.6
418.441	1456.45
418.649	1550.65
418.857	1696.06
419.065	1587.52
419.273	1567.04
419.481	1734.97
419.689	1890.62
419.897	1902.9
420.105	1917.24
420.313	1988.92
420.521	2005.3
420.729	2173.24
420.937	2218.29
421.145	2214.2
421.353	2351.41
421.561	2537.77
421.769	2421.04
421.977	2572.59
422.185	2566.45
422.393	2736.43
422.601	2906.41
422.809	2906.41
423.017	2869.55
423.224	3021.1
423.432	3092.77
423.64	3307.81
423.848	3508.51
424.056	3473.7
424.263	3563.81
424.471	3594.53
424.679	3772.7
424.887	3854.62
425.094	4000.02
425.302	4036.89
425.51	4217.11
425.718	4358.42
425.925	4348.18
426.133	4456.72
426.341	4944.14
426.548	4995.34
426.756	4942.09
426.964	5224.71
427.171	5316.87
427.379	5384.45
427.586	5454.08
427.794	5822.72
428.001	6072.57
428.209	6281.46
428.417	6220.02
428.624	6652.14
428.832	6695.15
429.039	6592.75
429.247	6559.99
429.454	7211.24
429.662	7504.1
429.869	7119.08
430.076	7710.94
430.284	7483.62
430.491	7747.81
430.699	8210.65
430.906	8190.17
431.114	8329.43
431.321	8564.95
431.528	8773.84
431.736	9228.49
431.943	9773.25
432.15	9367.75
432.358	9511.11
432.565	10012.86
432.772	9969.85
432.979	10531
433.187	10807.47
433.394	10864.82
433.601	11518.12
433.808	11536.55
434.016	11528.36
434.223	12040.35
434.43	12599.45
434.637	12507.29
434.844	13357.19
435.052	13447.3
435.259	13326.47
435.466	13531.27
435.673	13527.17
435.88	14135.42
436.087	14958.71
436.294	14977.14
436.501	14667.89
436.708	14997.62
436.915	15431.79
437.122	16169.05
437.329	16078.94
437.537	16666.71
437.743	16525.4
437.95	16771.16
438.157	17539.15
438.364	18096.19
438.571	18145.34
438.778	18251.84
438.985	20090.91
439.192	19337.26
439.399	19552.3
439.606	19314.73
439.813	20338.72
440.02	21686.28
440.227	21393.42
440.433	20949.01
440.64	21518.35
440.847	21547.02
441.054	22282.24
441.261	23672.81
441.467	23146.48
441.674	23642.09
441.881	24600.54
442.088	24582.11
442.294	24252.39
442.501	24877.02
442.708	25356.24
442.914	26599.36
443.121	27303.86
443.328	26685.37
443.534	28551.07
443.741	27535.28
443.948	27574.19
444.154	29511.57
444.361	29233.05
444.568	29364.12
444.774	29431.7
444.981	30019.47
445.187	30711.68
445.394	31901.55
445.6	31315.83
445.807	34541.38
446.013	33269.59
446.22	33527.64
446.426	34746.18
446.633	35096.38
446.839	36181.81
447.046	34764.61
447.252	36687.65
447.459	36929.31
447.665	36947.75
447.871	38541.07
448.078	39794.42
448.284	38283.02
448.491	38919.94
448.697	40548.07
448.903	41299.68
449.11	41557.72
449.316	40670.95
449.522	41424.61
449.728	42462.93
449.935	42841.8
450.141	42602.19
450.347	43515.58
450.553	42372.81
450.76	42819.27
450.966	44166.84
451.172	43966.13
451.378	44959.4
451.584	44125.88
451.791	45067.94
451.997	45362.85
452.203	45958.81
452.409	45706.91
452.615	45573.79
452.821	43845.3
453.027	43443.9
453.233	45682.33
453.44	44089.01
453.646	44652.2
453.852	44947.11
454.058	45235.88
454.264	44402.35
454.47	45305.51
454.676	43923.13
454.882	45473.44
455.088	41647.83
455.294	42594
455.5	43333.31
455.705	43355.84
455.911	41662.17
456.117	40840.93
456.323	40482.54
456.529	38397.71
456.735	40064.75
456.941	38958.85
457.147	38561.54
457.352	37115.68
457.558	37072.67
457.764	36855.59
457.97	36144.94
458.176	35598.13
458.381	35931.95
458.587	34252.62
458.793	34101.07
458.999	32401.25
459.204	34637.64
459.41	33673.04
459.616	31506.29
459.821	31342.46
460.027	31334.26
460.233	30549.89
460.438	29423.51
460.644	29847.44
460.85	28057.51
461.055	27811.76
461.261	27854.76
461.466	25624.53
461.672	24987.61
461.878	26496.96
462.083	24913.88
462.289	24395.75
462.494	24092.65
462.7	23265.27
462.905	22902.78
463.111	23511.02
463.316	23189.49
463.522	23011.32
463.727	22706.17
463.932	22708.22
464.138	22560.77
464.343	22786.04
464.549	21964.81
464.754	22773.75
464.959	22951.93
465.165	22360.06
465.37	21426.19
465.575	20752.41
465.781	21747.72
465.986	22046.72
466.191	21075.99
466.397	20590.62
466.602	19626.03
466.807	20582.43
467.012	20523.04
467.218	20494.36
467.423	19902.5
467.628	20394.01
467.833	21286.93
468.038	20131.87
468.244	19609.64
468.449	20281.38
468.654	19832.87
468.859	19709.99
469.064	19664.94
469.269	19019.83
469.474	19046.45
469.679	19257.39
469.885	18700.34
470.09	18853.94
470.295	18892.85
470.5	18364.48
470.705	18651.19
470.91	18333.76
471.115	18036.8
471.32	18212.93
471.525	18147.39
471.73	17694.79
471.935	17506.38
472.139	17076.3
472.344	17350.73
472.549	17238.09
472.754	16969.81
472.959	16726.1
473.164	16140.38
473.369	16201.82
473.574	16461.91
473.778	16506.97
473.983	16160.86
474.188	16515.16
474.393	15605.86
474.598	15523.94
474.802	15337.58
475.007	15435.88
475.212	15607.91
475.417	14841.97
475.621	14970.99
475.826	15042.67
476.031	14647.41
476.235	14280.83
476.44	14655.61
476.645	14282.88
476.849	14153.85
477.054	14022.78
477.259	14088.32
477.463	14145.66
477.668	13645.96
477.872	13707.4
478.077	13686.92
478.282	13355.15
478.486	13127.82
478.691	13111.44
478.895	13035.66
479.1	12933.26
479.304	12681.36
479.509	12451.99
479.713	12789.91
479.918	12529.81
480.122	12312.73
480.326	12519.57
480.531	12501.14
480.735	12261.53
480.94	12310.68
481.144	12468.38
481.348	12077.21
481.553	12204.19
481.757	12073.12
481.961	12023.97
482.166	12189.85
482.37	12179.61
482.574	11813.03
482.778	12044.45
482.983	12138.65
483.187	12089.5
483.391	12097.69
483.595	12001.44
483.8	11681.96
484.004	12023.97
484.208	12288.15
484.412	11841.7
484.616	12058.78
484.821	11937.95
485.025	11542.69
485.229	12042.4
485.433	11845.79
485.637	11862.18
485.841	11821.22
486.045	11720.87
486.249	12255.39
486.453	11788.45
486.657	11993.25
486.861	11944.1
487.065	11677.86
487.269	11782.31
487.473	11557.03
487.677	12040.35
487.881	12040.35
488.085	11980.96
488.289	12081.31
488.493	12056.73
488.697	11983.01
488.901	12023.97
489.105	11755.68
489.309	12157.08
489.512	12075.17
489.716	12259.48
489.92	12015.77
490.124	12064.93
490.328	12525.72
490.531	12101.79
490.735	12312.73
490.939	12200.09
491.143	12290.2
491.346	12314.78
491.55	12417.18
491.754	12466.33
491.958	12613.78
492.161	12605.59
492.365	12703.89
492.569	12687.51
492.772	12503.19
492.976	12562.58
493.18	12695.7
493.383	12849.3
493.587	12943.5
493.79	13197.45
493.994	13136.01
494.197	13142.16
494.401	13162.64
494.605	13146.25
494.808	13453.45
495.012	13414.54
495.215	13471.88
495.419	13736.07
495.622	13834.37
495.825	13912.19
496.029	13846.66
496.232	14055.55
496.436	14108.8
496.639	14291.07
496.843	14342.27
497.046	14663.8
497.249	14809.2
497.453	14555.26
497.656	14989.42
497.859	14852.21
498.063	15216.75
498.266	15302.76
498.469	15474.79
498.673	15831.14
498.876	15773.8
499.079	15988.83
499.282	15825
499.485	16681.05
499.689	16484.44
499.892	16562.26
500.095	16730.2
500.298	17041.49
500.501	17195.09
500.705	17436.75
500.908	17619.02
501.111	17817.67
501.314	17825.86
501.517	17913.92
501.72	18475.07
501.923	18430.01
502.126	18538.55
502.329	18948.15
502.532	19032.11
502.735	19214.38
502.938	19384.37
503.141	19484.72
503.344	19744.81
503.547	20224.03
503.75	20281.38
503.953	20494.36
504.156	21071.89
504.359	20785.18
504.562	20889.62
504.765	21278.74
504.968	21561.36
505.17	21852.17
505.373	21833.74
505.576	22501.37
505.779	22349.82
505.982	23103.48
506.185	23160.82
506.387	23005.17
506.59	23302.13
506.793	23644.14
506.996	23810.03
507.198	24704.99
507.401	24295.39
507.604	24492
507.807	24997.85
508.009	25030.62
508.212	25503.7
508.415	25591.76
508.617	25931.72
508.82	26281.92
509.022	25599.95
509.225	26695.61
509.428	26988.47
509.63	26867.64
509.833	27129.78
510.035	27713.45
510.238	27754.41
510.44	27920.3
510.643	28680.1
510.845	28708.77
511.048	28553.12
511.25	28915.61
511.453	29022.11
511.655	30392.2
511.858	30037.9
512.06	30168.97
512.262	30568.32
512.465	30504.84
512.667	30986.11
512.87	30967.68
513.072	31219.58
513.274	32257.9
513.477	32227.18
513.679	32583.52
513.881	32974.69
514.084	32733.03
514.286	32661.35
514.488	33263.45
514.69	34246.47
514.893	34049.87
515.095	34602.82
515.297	34545.48
515.499	34580.29
515.701	35407.67
515.904	35518.26
516.106	35958.58
516.308	35936.05
516.51	36429.61
516.712	36493.1
516.914	36730.66
517.116	37504.79
517.318	37570.33
517.52	37809.94
517.722	38309.64
517.925	38696.71
518.127	38715.14
518.329	39096.06
518.531	39153.41
518.733	40087.28
518.935	40138.48
519.136	40036.08
519.338	40849.13
519.54	40857.32
519.742	41137.89
519.944	41490.14
520.146	42004.18
520.348	42272.46
520.55	42276.56
520.752	42381.01
520.954	43169.47
521.155	43001.54
521.357	43785.91
521.559	44099.25
521.761	44416.69
521.963	44258.99
522.164	44811.95
522.366	44852.9
522.568	45373.09
522.77	45239.97
522.971	46102.17
523.173	45614.75
523.375	45835.93
523.576	46321.3
523.778	46104.21
523.98	46702.22
524.181	47072.9
524.383	46839.43
524.584	47867.51
524.786	47754.88
524.988	47582.85
525.189	48283.25
525.391	48324.21
525.592	48520.82
525.794	48535.15
525.995	48828.01
526.197	48842.35
526.398	49055.34
526.6	49430.12
526.801	49948.25
527.003	49737.31
527.204	49780.32
527.406	50021.98
527.607	50140.76
527.808	50538.07
528.01	50253.4
528.211	50632.27
528.412	51506.76
528.614	50992.72
528.815	50978.38
529.016	51738.18
529.218	51088.97
529.419	51246.66
529.62	51390.02
529.822	51852.86
530.023	51787.33
530.224	51605.06
530.425	51662.4
530.626	51426.88
530.828	51476.04
531.029	52440.63
531.23	51592.77
531.431	51891.77
531.632	52151.87
531.833	52131.39
532.035	52055.61
532.236	51904.06
532.437	52741.68
532.638	51766.85
532.839	52655.67
533.04	53079.6
533.241	52039.23
533.442	53368.36
533.643	52272.7
533.844	52637.23
534.045	52667.95
534.246	52303.42
534.447	52555.32
534.648	52479.54
534.849	52921.9
535.05	52424.25
535.251	52573.75
535.451	52770.35
535.652	52928.05
535.853	52510.26
536.054	53075.5
536.255	52942.38
536.456	52276.79
536.657	52874.8
536.857	52569.65
537.058	52905.52
537.259	52842.03
537.46	53095.98
537.66	52528.69
537.861	52540.98
538.062	52612.66
538.263	52663.86
538.463	52287.03
538.664	52768.3
538.865	52981.29
539.065	53046.83
539.266	52207.16
539.466	53112.36
539.667	52028.99
539.868	52774.45
540.068	52502.07
540.269	52246.07
540.469	53368.36
540.67	52444.73
540.87	52594.23
541.071	52383.29
541.271	52635.19
541.472	52583.99
541.672	52637.23
541.873	52315.7
542.073	51957.31
542.274	52731.44
542.474	52428.34
542.675	52129.34
542.875	52860.46
543.075	52389.43
543.276	52276.79
543.476	52784.69
543.676	52383.29
543.877	52708.91
544.077	52483.64
544.277	52237.88
544.478	52180.54
544.678	52866.61
544.878	52276.79
545.078	52575.8
545.279	52305.46
545.479	51981.88
545.679	52661.81
545.879	52076.09
546.079	51940.92
546.28	52233.78
546.48	51803.71
546.68	52532.79
546.88	52293.18
547.08	52039.23
547.28	51918.4
547.48	52012.6
547.68	52016.7
547.88	51754.56
548.081	52321.85
548.281	52268.6
548.481	51353.16
548.681	52309.56
548.881	52031.04
549.081	52026.94
549.28	51433.03
549.48	52268.6
549.68	51748.42
549.88	52610.61
550.08	51777.09
550.28	51908.16
550.48	51717.7
550.68	51979.84
550.88	51676.74
551.08	51277.38
551.279	51940.92
551.479	51813.95
551.679	52141.63
551.879	51605.06
552.079	51959.36
552.278	51697.22
552.478	51795.52
552.678	51873.34
552.878	51816
553.077	51686.98
553.277	51174.98
553.477	52145.72
553.676	51211.85
553.876	51334.73
554.076	51699.26
554.275	51371.59
554.475	51164.74
554.674	51629.63
554.874	51256.9
555.074	51131.98
555.273	51261
555.473	51424.84
555.672	51217.99
555.872	51387.97
556.071	51330.63
556.271	51543.62
556.47	50703.95
556.67	50593.36
556.869	51017.29
557.068	51174.98
557.268	50751.05
557.467	50521.68
557.667	50826.83
557.866	51041.87
558.065	50521.68
558.265	50769.49
558.464	50261.59
558.663	50708.05
558.863	50095.7
559.062	50732.62
559.261	50071.13
559.461	50841.17
559.66	49884.76
559.859	50617.94
560.058	49901.15
560.258	50187.86
560.457	49659.49
560.656	50042.46
560.855	49968.73
561.054	50478.68
561.253	49636.96
561.453	50009.69
561.652	49659.49
561.851	49804.89
562.05	49430.12
562.249	49286.76
562.448	49911.39
562.647	49419.88
562.846	49383.01
563.045	49284.71
563.244	48914.03
563.443	49626.72
563.642	48639.6
563.841	48569.97
564.04	48813.68
564.239	49307.24
564.438	48924.27
564.637	49399.4
564.836	49157.74
565.035	48348.79
565.234	48688.75
565.432	48531.06
565.631	48303.73
565.83	48678.51
566.029	48273.01
566.228	48356.98
566.427	48262.77
566.625	47505.02
566.824	47588.99
567.023	48256.63
567.222	47308.42
567.42	47922.81
567.619	47824.51
567.818	47517.31
568.016	47427.2
568.215	47859.32
568.414	47189.64
568.612	47670.91
568.811	47185.54
569.01	47406.72
569.208	46849.67
569.407	47386.24
569.605	46591.63
569.804	46960.26
570.002	46628.49
570.201	47048.33
570.4	46534.29
570.598	46429.84
570.797	46104.21
570.995	46524.05
571.193	45690.52
571.392	46560.91
571.59	45489.82
571.789	45880.99
571.987	45577.89
572.186	45901.46
572.384	45313.7
572.582	45971.1
572.781	45493.92
572.979	44936.87
573.177	45293.22
573.376	45659.8
573.574	44912.3
573.772	45184.68
573.971	44797.61
574.169	45117.09
574.367	44545.71
574.565	44910.25
574.763	44607.15
574.962	44433.07
575.16	44158.64
575.358	44353.2
575.556	43507.39
575.754	44443.31
575.952	43777.72
576.151	44314.29
576.349	43728.57
576.547	43888.31
576.745	43738.81
576.943	43726.52
577.141	43601.6
577.339	43558.59
577.537	43114.18
577.735	43028.16
577.933	42958.53
578.131	43224.77
578.329	42741.45
578.527	42714.83
578.725	42770.12
578.923	42553.04
579.121	42125.01
579.319	42620.62
579.516	42333.9
579.714	42290.9
579.912	42215.12
580.11	41627.35
580.308	42018.52
580.506	42323.66
580.704	41625.31
580.901	41795.29
581.099	41813.72
581.297	41129.7
581.495	41504.48
581.692	41426.65
581.89	41232.1
582.088	41316.06
582.285	41019.11
582.483	41490.14
582.681	40906.47
582.878	40466.16
583.076	40197.87
583.274	40818.41
583.471	40484.59
583.669	40959.72
583.866	39986.93
584.064	40257.26
584.262	39466.75
584.459	40171.25
584.657	39788.28
584.854	40150.77
585.052	39229.18
585.249	39835.38
585.447	39665.4
585.644	39243.52
585.841	39548.67
586.039	39507.71
586.236	39038.72
586.434	39016.19
586.631	38528.78
586.828	38506.25
587.026	38764.29
587.223	38792.97
587.42	38557.45
587.618	38475.53
587.815	38194.96
588.012	37857.04
588.21	38002.45
588.407	38174.48
588.604	37748.5
588.801	37617.43
588.999	37670.68
589.196	37424.92
589.393	37400.35
589.59	37631.77
589.787	36822.82
589.984	37213.98
590.182	37207.84
590.379	37054.24
590.576	36859.68
590.773	36722.47
590.97	36941.6
591.167	36536.1
591.364	36392.75
591.561	36591.4
591.758	36079.41
591.955	36101.93
592.152	36265.77
592.349	36122.41
592.546	36390.7
592.743	36040.5
592.94	35249.98
593.137	35735.35
593.334	36099.89
593.531	34875.2
593.727	35936.05
593.924	35723.06
594.121	34840.39
594.318	35209.02
594.515	34588.49
594.712	35098.43
594.908	34588.49
595.105	34778.95
595.302	34441.03
595.499	34772.8
595.696	34395.98
595.892	34080.59
596.089	34142.03
596.286	34271.05
596.482	33814.35
596.679	34246.47
596.876	34391.88
597.072	33742.67
597.269	33849.17
597.466	33175.39
597.662	33101.66
597.859	33412.95
598.055	33308.51
598.252	32991.07
598.448	33072.99
598.645	33015.65
598.841	32561
599.038	32866.14
599.234	32853.86
599.431	32386.92
599.627	32565.09
599.824	32507.75
600.02	32337.77
600.217	32184.17
600.413	32141.16
600.609	31797.1
600.806	31827.82
601.002	32006
601.198	31750
601.395	31702.9
601.591	31287.16
601.787	31448.95
601.984	31348.6
602.18	31453.05
602.376	31004.54
602.572	31246.2
602.769	31219.58
602.965	30867.33
603.161	31174.52
603.357	30605.19
603.553	30613.38
603.75	30746.5
603.946	30484.36
604.142	30732.16
604.338	30064.52
604.534	30416.77
604.73	29806.48
604.926	30107.53
605.122	29865.87
605.318	29867.92
605.514	29613.97
605.71	29693.84
605.906	29527.95
606.102	29771.66
606.298	29720.46
606.494	29611.92
606.69	29742.99
606.886	29337.49
607.082	28917.66
607.278	29423.51
607.474	28954.52
607.67	29364.12
607.866	28739.49
608.062	29003.67
608.257	28676
608.453	29081.5
608.649	28835.74
608.845	28544.93
609.041	28727.2
609.236	28413.86
609.432	28374.95
609.628	28301.22
609.824	28581.79
610.019	27973.55
610.215	28239.78
610.411	28315.56
610.606	28346.28
610.802	27942.83
610.998	28131.24
611.193	28481.44
611.389	27994.03
611.584	27932.59
611.78	27629.49
611.976	28082.09
612.171	27459.51
612.367	27932.59
612.562	27568.05
612.758	27297.72
612.953	27273.14
613.149	27301.81
613.344	27174.84
613.539	27553.71
613.735	27293.62
613.93	27363.25
614.126	27107.26
614.321	27572.14
614.517	27183.03
614.712	26820.54
614.907	26963.9
615.103	27131.83
615.298	26779.58
615.493	27051.96
615.688	26582.98
615.884	27049.91
616.079	26718.14
616.274	26564.54
616.47	26427.33
616.665	26851.26
616.86	26597.31
617.055	26388.42
617.25	26226.63
617.445	26292.16
617.641	26042.31
617.836	26169.29
618.031	25710.54
618.226	26290.12
618.421	25962.44
618.616	25868.23
618.811	25372.63
619.006	25737.16
619.201	25376.72
619.396	25706.45
619.591	24852.44
619.786	25229.27
619.981	25141.21
620.176	24844.25
620.371	25143.25
620.566	24772.57
620.761	25139.16
620.956	24932.31
621.151	24483.81
621.346	24664.03
621.541	23969.77
621.735	24506.34
621.93	23816.17
622.125	24070.12
622.32	23566.32
622.515	23705.58
622.709	23838.7
622.904	23461.87
623.099	23361.52
623.294	23396.34
623.488	23222.26
623.683	23404.53
623.878	22988.79
624.072	23099.38
624.267	22943.74
624.462	22812.67
624.656	22355.97
624.851	22478.85
625.046	22394.88
625.24	22257.67
625.435	22132.74
625.629	21721.1
625.824	21798.92
626.018	21719.05
626.213	21190.67
626.407	21704.71
626.602	21264.4
626.796	21542.92
626.991	21557.26
627.185	21108.76
627.38	21110.8
627.574	20910.1
627.768	20676.63
627.963	20830.23
628.157	20420.64
628.352	20604.95
628.546	20203.55
628.74	20348.96
628.935	20047.91
629.129	19904.55
629.323	19863.59
629.517	19865.64
629.712	19761.19
629.906	19617.83
630.1	19277.87
630.294	19259.44
630.489	19394.61
630.683	19267.63
630.877	18884.66
631.071	19099.7
631.265	19038.26
631.459	18726.97
631.653	18520.12
631.848	18706.49
632.042	18325.57
632.236	18597.95
632.43	18227.26
632.624	18323.52
632.818	18169.92
633.012	17930.31
633.206	17903.68
633.4	17791.05
633.594	17596.49
633.788	17612.87
633.982	17666.12
634.176	17844.29
634.369	17389.64
634.563	17332.3
634.757	17338.44
634.951	16967.76
635.145	17180.75
635.339	17176.66
635.533	16791.64
635.726	16918.61
635.92	16615.51
636.114	16650.33
636.308	16728.15
636.501	16912.47
636.695	16490.59
636.889	16287.84
637.083	16027.74
637.276	16328.8
637.47	16107.62
637.664	16083.04
637.857	15853.67
638.051	15825
638.244	15732.84
638.438	15599.72
638.632	15724.65
638.825	15523.94
639.019	15669.35
639.212	15202.41
639.406	15186.03
639.599	15267.95
639.793	15231.08
639.986	15120.49
640.18	14987.38
640.373	14758
640.567	14678.13
640.76	14870.64
640.954	14616.69
641.147	14600.31
641.34	14368.89
641.534	14289.02
641.727	14256.25
641.92	14157.95
642.114	14192.76
642.307	14147.71
642.5	14123.13
642.694	13850.75
642.887	13801.6
643.08	13965.44
643.273	13670.53
643.467	13658.24
643.66	13586.57
643.853	13648.01
644.046	13404.3
644.239	13426.82
644.432	13332.62
644.626	13142.16
644.819	13318.28
645.012	13082.77
645.205	13252.75
645.398	13052.05
645.591	12910.74
645.784	12970.13
645.977	12759.19
646.17	12828.82
646.363	12726.42
646.556	12611.73
646.749	12415.13
646.942	12607.64
647.135	12275.87
647.328	12288.15
647.521	12245.15
647.714	12189.85
647.907	12208.28
648.099	11913.38
648.292	12136.6
648.485	12208.28
648.678	11872.42
648.871	11923.62
649.064	11628.71
649.256	11708.58
649.449	11546.79
649.642	11620.52
649.835	11534.5
650.027	11593.89
650.22	11458.73
650.413	11600.04
650.605	11161.77
650.798	11393.19
650.991	11094.19
651.183	11110.57
651.376	10850.48
651.568	10938.54
651.761	10791.09
651.954	10877.1
652.146	10680.5
652.339	10731.7
652.531	10930.35
652.724	10492.09
652.916	10432.69
653.109	10461.37
653.301	10600.63
653.494	10770.61
653.686	10125.5
653.879	10602.68
654.071	10430.65
654.263	10303.67
654.456	10315.96
654.648	10086.59
654.84	10016.96
655.033	10203.32
655.225	10066.11
655.417	9816.26
655.61	9914.56
655.802	10006.72
655.994	9566.4
656.186	9736.38
656.379	9609.41
656.571	9617.6
656.763	9439.43
656.955	9728.19
657.148	9562.31
657.34	9369.8
657.532	9349.32
657.724	9195.72
657.916	9322.7
658.108	9222.34
658.3	8941.77
658.492	9128.14
658.684	8954.06
658.876	8943.82
659.068	8722.64
659.26	8956.11
659.452	8927.44
659.644	8659.15
659.836	8702.16
660.028	8843.47
660.22	8628.43
660.412	8640.72
660.604	8708.3
660.796	8583.38
660.988	8485.08
661.18	8573.14
661.372	8388.82
661.563	8464.6
661.755	8306.9
661.947	8538.32
662.139	8118.49
662.331	8270.04
662.522	8247.51
662.714	8161.5
662.906	7977.18
663.097	7887.07
663.289	8134.87
663.481	7885.02
663.673	7985.37
663.864	7854.3
664.056	7960.8
664.247	7807.2
664.439	7702.75
664.631	7756
664.822	7694.56
665.014	7672.03
665.205	7616.74
665.397	7624.93
665.588	7430.37
665.78	7512.29
665.971	7340.26
666.163	7321.83
666.354	7567.59
666.546	7319.78
666.737	7231.72
666.929	7307.49
667.12	7362.79
667.311	7309.54
667.503	7266.53
667.694	7108.84
667.885	7067.88
668.077	6979.82
668.268	7117.03
668.459	7153.9
668.651	7076.07
668.842	7014.63
669.033	6881.52
669.224	6969.58
669.416	6990.06
669.607	6766.83
669.798	6895.85
669.989	6863.08
670.18	6701.3
670.371	6541.55
670.563	6686.96
670.754	6473.97
670.945	6584.56
671.136	6510.83
671.327	6627.57
671.518	6705.39
671.709	6590.7
671.9	6648.05
672.091	6535.41
672.282	6299.89
672.473	6480.11
672.664	6357.24
672.855	6273.27
673.046	6324.47
673.237	6545.65
673.428	6285.56
673.619	6123.77
673.809	6050.04
674	6234.36
674.191	6234.36
674.382	6068.47
674.573	6316.28
674.764	6256.89
674.954	6199.54
675.145	6064.38
675.336	6191.35
675.527	6174.97
675.717	6152.44
675.908	6054.14
676.099	5912.83
676.289	5939.45
676.48	5918.97
676.671	5961.98
676.861	5890.3
677.052	5828.86
677.243	5798.14
677.433	5675.26
677.624	5808.38
677.814	5792
678.005	5812.48
678.195	5757.18
678.386	5826.81
678.576	5683.45
678.767	5775.61
678.957	5593.34
679.148	5638.4
679.338	5632.26
679.529	5660.93
679.719	5658.88
679.909	5656.83
680.1	5497.09
680.29	5773.57
680.481	5677.31
680.671	5478.66
680.861	5513.47
681.052	5546.24
681.242	5492.99
681.432	5626.11
681.622	5490.95
681.813	5415.17
682.003	5404.93
682.193	5310.72
682.383	5456.13
682.573	5423.36
682.764	5396.74
682.954	5237
683.144	5284.1
683.334	5394.69
683.524	5306.63
683.714	5392.64
683.904	5273.86
684.094	5273.86
684.284	5292.29
684.474	5116.17
684.664	5214.47
684.854	5134.6
685.044	5224.71
685.234	4901.13
685.424	5077.26
685.614	5155.08
685.804	5089.54
685.994	5140.74
686.184	5097.74
686.374	5183.75
686.564	4933.9
686.753	5054.73
686.943	4811.02
687.133	4929.8
687.323	4847.88
687.513	4858.12
687.702	4899.08
687.892	4909.32
688.082	4837.64
688.272	4776.2
688.461	4897.03
688.651	4790.54
688.841	4751.63
689.03	4712.72
689.22	4786.44
689.41	4612.37
689.599	4741.39
689.789	4557.07
689.979	4610.32
690.168	4671.76
690.358	4677.9
690.547	4663.57
690.737	4534.54
690.926	4555.02
691.116	4665.61
691.305	4530.45
691.495	4362.51
691.684	4385.04
691.874	4497.68
692.063	4585.74
692.252	4493.58
692.442	4458.77
692.631	4274.45
692.82	4262.16
693.01	4249.88
693.199	4331.8
693.388	4153.62
693.578	4221.2
693.767	4333.84
693.956	4104.47
694.146	4268.31
694.335	4073.75
694.524	4000.02
694.713	4210.97
694.902	4337.94
695.092	4153.62
695.281	4096.28
695.47	4004.12
695.659	4030.74
695.848	3895.58
696.037	4135.19
696.226	3997.98
696.415	3926.3
696.604	4069.66
696.793	3914.01
696.982	4020.5
697.171	3983.64
697.36	4081.94
697.549	3979.54
697.738	3850.52
697.927	3891.48
698.116	3914.01
698.305	3864.86
698.494	3856.67
698.683	3832.09
698.872	3801.37
699.061	3897.63
699.25	3963.16
699.438	3852.57
699.627	3914.01
699.816	3891.48
700.005	3807.52
700.193	3744.03
700.382	3823.9
700.571	3838.23
700.76	3760.41
700.948	3660.06
701.137	3782.94
701.326	3862.81
701.514	3658.01
701.703	3574.05
701.892	3744.03
702.08	3711.26
702.269	3686.69
702.457	3569.95
702.646	3735.84
702.834	3676.45
703.023	3678.49
703.212	3555.62
703.4	3578.14
703.589	3496.22
703.777	3580.19
703.965	3596.57
704.154	3567.9
704.342	3483.94
704.531	3545.38
704.719	3469.6
704.907	3631.39
705.096	3461.41
705.284	3600.67
705.472	3563.81
705.661	3559.71
705.849	3535.14
706.037	3545.38
706.226	3504.42
706.414	3492.13
706.602	3479.84
706.79	3498.27
706.979	3406.11
707.167	3373.35
707.355	3383.59
707.543	3336.48
707.731	3502.37
707.919	3365.15
708.107	3481.89
708.296	3238.18
708.484	3324.19
708.672	3410.21
708.86	3367.2
709.048	3293.48
709.236	3307.81
709.424	3227.94
709.612	3254.56
709.8	3199.27
709.988	3397.92
710.176	3318.05
710.364	3328.29
710.551	3303.71
710.739	3219.75
710.927	3103.01
711.115	3139.88
711.303	3283.24
711.491	3225.89
711.679	3086.63
711.866	3221.8
712.054	3172.64
712.242	3250.47
712.43	3252.52
712.617	3137.83
712.805	3229.99
712.993	3195.17
713.181	3043.62
713.368	3217.7
713.556	3074.34
713.744	3086.63
713.931	3037.48
714.119	3189.03
714.306	3141.93
714.494	3094.82
714.682	3037.48
714.869	3105.06
715.057	3127.59
715.244	3062.05
715.432	3037.48
715.619	3014.95
715.807	3070.25
715.994	2930.98
716.182	3076.39
716.369	3074.34
716.556	3070.25
716.744	2949.42
716.931	3006.76
717.119	3156.26
717.306	2863.4
717.493	2873.64
717.681	3060.01
717.868	3031.34
718.055	2902.31
718.242	2877.74
718.43	3062.05
718.617	2969.9
718.804	2890.03
718.991	2933.03
719.179	2902.31
719.366	2992.42
719.553	2922.79
719.74	2900.27
719.927	2734.38
720.114	2971.94
720.301	2965.8
720.488	2793.77
720.676	2793.77
720.863	2898.22
721.05	2869.55
721.237	2890.03
721.424	2789.67
721.611	2808.11
721.798	2818.35
721.985	2834.73
722.172	2810.15
722.358	2732.33
722.545	2849.07
722.732	2627.89
722.919	2812.2
723.106	2662.7
723.293	2754.86
723.48	2771.24
723.667	2703.66
723.853	2685.23
724.04	2830.63
724.227	2734.38
724.414	2644.27
724.6	2703.66
724.787	2736.43
724.974	2775.34
725.161	2726.19
725.347	2644.27
725.534	2658.6
725.72	2777.39
725.907	2685.23
726.094	2664.75
726.28	2591.02
726.467	2613.55
726.653	2789.67
726.84	2734.38
727.027	2672.94
727.213	2545.97
727.4	2588.97
727.586	2556.21
727.773	2488.62
727.959	2605.36
728.145	2566.45
728.332	2523.44
728.518	2531.63
728.705	2595.12
728.891	2588.97
729.077	2513.2
729.264	2476.34
729.45	2623.79
729.636	2601.26
729.823	2533.68
730.009	2560.3
730.195	2597.17
730.382	2521.39
730.568	2480.43
730.754	2498.86
730.94	2505.01
731.126	2484.53
731.313	2427.18
731.499	2558.25
731.685	2554.16
731.871	2470.19
732.057	2597.17
732.243	2521.39
732.429	2541.87
732.615	2519.34
732.801	2464.05
732.987	2558.25
733.173	2437.42
733.359	2498.86
733.545	2425.14
733.731	2351.41
733.917	2306.35
734.103	2480.43
734.289	2431.28
734.475	2457.9
734.661	2332.98
734.847	2410.8
735.033	2468.14
735.219	2367.79
735.404	2289.97
735.59	2373.94
735.776	2332.98
735.962	2451.76
736.148	2464.05
736.333	2371.89
736.519	2238.77
736.705	2312.5
736.89	2373.94
737.076	2339.12
737.262	2292.02
737.447	2302.26
737.633	2283.83
737.819	2226.48
738.004	2210.1
738.19	2251.06
738.375	2332.98
738.561	2289.97
738.747	2234.68
738.932	2251.06
739.118	2218.29
739.303	2230.58
739.489	2242.87
739.674	2193.72
739.859	2085.17
740.045	2246.96
740.23	2238.77
740.416	2095.41
740.601	2181.43
740.786	2064.69
740.972	2111.8
741.157	2189.62
741.342	1982.78
741.528	2107.7
741.713	2091.32
741.898	2128.18
742.084	2193.72
742.269	2070.84
742.454	2251.06
742.639	2124.08
742.824	2212.15
743.01	2064.69
743.195	2144.56
743.38	1945.91
743.565	2130.23
743.75	2025.78
743.935	2021.69
744.12	2179.38
744.305	1972.54
744.49	2021.69
744.675	1999.16
744.86	1919.29
745.045	2009.4
745.23	1927.48
745.415	2013.49
745.6	1939.77
745.785	2009.4
745.97	1904.95
746.155	1954.1
746.34	1972.54
746.525	1825.08
746.71	1849.66
746.895	1874.23
747.079	1648.96
747.264	1745.21
747.449	1857.85
747.634	1796.41
747.819	1870.14
748.003	1816.89
748.188	1765.69
748.373	1763.64
748.557	1734.97
748.742	1798.46
748.927	1734.97
749.111	1730.87
749.296	1712.44
749.481	1769.79
749.665	1685.82
749.85	1663.29
750.034	1677.63
750.219	1648.96
750.404	1628.48
750.588	1628.48
750.773	1603.9
750.957	1694.01
751.141	1599.8
751.326	1517.89
751.51	1521.98
751.695	1589.57
751.879	1472.83
752.064	1648.96
752.248	1573.18
752.432	1628.48
752.617	1546.56
752.801	1569.09
752.985	1587.52
753.17	1433.92
753.354	1521.98
753.538	1431.87
753.722	1483.07
753.907	1427.78
754.091	1440.06
754.275	1489.21
754.459	1474.88
754.643	1409.34
754.828	1419.58
755.012	1423.68
755.196	1352
755.38	1382.72
755.564	1272.13
755.748	1425.73
755.932	1440.06
756.116	1349.95
756.3	1335.62
756.484	1325.38
756.668	1358.14
756.852	1186.12
757.036	1259.84
757.22	1194.31
757.404	1261.89
757.588	1319.23
757.772	1253.7
757.956	1163.59
758.14	1247.55
758.323	1198.4
758.507	1161.54
758.691	1179.97
758.875	1212.74
759.059	1132.87
759.242	1184.07
759.426	1200.45
759.61	1087.81
759.794	1155.4
759.977	1300.8
760.161	1112.39
760.345	1196.36
760.528	1075.52
760.712	1136.96
760.895	1079.62
761.079	1104.2
761.263	989.51
761.446	1075.52
761.63	1046.85
761.813	1087.81
761.997	1050.95
762.18	1081.67
762.364	1091.91
762.547	956.74
762.731	1048.9
762.914	1050.95
763.098	1032.52
763.281	987.46
763.464	1096
763.648	1044.81
763.831	1059.14
764.015	989.51
764.198	1018.18
764.381	1087.81
764.564	997.7
764.748	952.65
764.931	1081.67
765.114	944.45
765.297	1005.89
765.481	979.27
765.664	973.13
765.847	926.02
766.03	956.74
766.213	977.22
766.397	940.36
766.58	1005.89
766.763	954.69
766.946	774.47
767.129	891.21
767.312	950.6
767.495	917.83
767.678	866.63
767.861	993.61
768.044	891.21
768.227	915.78
768.41	936.26
768.593	903.5
768.776	926.02
768.959	919.88
769.142	870.73
769.324	874.82
769.507	878.92
769.69	883.02
769.873	868.68
770.056	876.87
770.239	989.51
770.421	981.32
770.604	948.55
770.787	831.82
770.97	809.29
771.152	778.57
771.335	799.05
771.518	842.06
771.7	833.86
771.883	901.45
772.066	805.19
772.248	821.58
772.431	756.04
772.613	768.33
772.796	878.92
772.978	764.23
773.161	848.2
773.343	790.86
773.526	753.99
773.708	784.71
773.891	682.31
774.073	760.14
774.256	739.66
774.438	829.77
774.621	694.6
774.803	756.04
774.985	708.94
775.168	788.81
775.35	672.08
775.532	762.19
775.715	768.33
775.897	809.29
776.079	694.6
776.261	743.75
776.444	710.99
776.626	672.08
776.808	655.69
776.99	649.55
777.173	629.07
777.355	692.55
777.537	655.69
777.719	579.92
777.901	678.22
778.083	606.54
778.265	588.11
778.447	608.59
778.629	678.22
778.811	647.5
778.993	680.27
779.175	612.68
779.357	551.24
779.539	579.92
779.721	653.64
779.903	612.68
780.085	616.78
780.267	579.92
780.449	547.15
780.631	559.44
780.812	600.4
780.994	581.96
781.176	622.92
781.358	524.62
781.54	645.45
781.721	571.72
781.903	489.81
782.085	530.77
782.267	571.72
782.448	508.24
782.63	541.01
782.812	526.67
782.993	528.72
783.175	467.28
783.357	489.81
783.538	555.34
783.72	450.89
783.901	467.28
784.083	518.48
784.264	506.19
784.446	465.23
784.627	549.2
784.809	563.53
784.99	538.96
785.172	471.37
785.353	442.7
785.535	461.13
785.716	395.6
785.897	500.05
786.079	418.13
786.26	461.13
786.441	391.5
786.623	434.51
786.804	422.22
786.985	420.17
787.167	477.52
787.348	368.98
787.529	465.23
787.71	452.94
787.891	375.12
788.073	399.7
788.254	319.82
788.435	440.65
788.616	362.83
788.797	334.16
788.978	465.23
789.159	301.39
789.34	366.93
789.522	360.78
789.703	426.32
789.884	371.02
790.065	321.87
790.246	407.89
790.427	368.98
790.607	379.22
790.788	409.94
790.969	371.02
791.15	289.1
791.331	338.26
791.512	319.82
791.693	323.92
791.874	309.58
792.054	416.08
792.235	422.22
792.416	293.2
792.597	301.39
792.778	342.35
792.958	301.39
793.139	325.97
793.32	381.26
793.5	319.82
793.681	311.63
793.862	285.01
794.042	364.88
794.223	330.06
794.404	352.59
794.584	272.72
794.765	274.77
794.945	350.54
795.126	344.4
795.306	332.11
795.487	229.71
795.667	336.21
795.848	291.15
796.028	237.91
796.209	297.3
796.389	313.68
796.57	375.12
796.75	266.58
796.93	319.82
797.111	186.71
797.291	264.53
797.471	330.06
797.652	332.11
797.832	260.43
798.012	301.39
798.192	266.58
798.373	180.56
798.553	256.34
798.733	264.53
798.913	293.2
799.093	325.97
799.274	270.67
799.454	258.39
799.634	233.81
799.814	248.15
799.994	315.73
800.174	192.85
800.354	211.28
800.534	186.71
800.714	262.48
800.894	256.34
801.074	194.9
801.254	147.8
801.434	319.82
801.614	246.1
801.794	219.47
801.974	827.72
802.154	246.1
802.334	276.82
802.514	145.75
802.693	194.9
802.873	303.44
803.053	336.21
803.233	235.86
803.413	252.24
803.592	205.14
803.772	219.47
803.952	215.38
804.131	186.71
804.311	155.99
804.491	229.71
804.67	186.71
804.85	180.56
805.03	186.71
805.209	262.48
805.389	227.67
805.568	235.86
805.748	127.32
805.928	135.51
806.107	285.01
806.287	196.95
806.466	196.95
806.646	184.66
806.825	166.23
807.004	229.71
807.184	209.23
807.363	276.82
807.543	194.9
807.722	155.99
807.901	137.56
808.081	227.67
808.26	147.8
808.439	252.24
808.619	147.8
808.798	164.18
808.977	235.86
809.156	211.28
809.336	194.9
809.515	217.43
809.694	203.09
809.873	162.13
810.052	190.8
810.231	203.09
810.411	215.38
810.59	155.99
810.769	223.57
810.948	186.71
811.127	137.56
811.306	190.8
811.485	137.56
811.664	180.56
811.843	174.42
812.022	178.51
812.201	133.46
812.38	162.13
812.559	219.47
812.737	188.75
812.916	117.08
813.095	133.46
813.274	166.23
813.453	131.41
813.632	207.19
813.811	123.22
813.989	112.98
814.168	182.61
814.347	112.98
814.526	180.56
814.704	237.91
814.883	188.75
815.062	141.65
815.24	84.31
815.419	172.37
815.598	190.8
815.776	155.99
815.955	104.79
816.133	57.68
816.312	115.03
816.49	172.37
816.669	129.36
816.847	172.37
817.026	158.03
817.204	117.08
817.383	170.32
817.561	123.22
817.74	153.94
817.918	158.03
818.097	139.6
818.275	123.22
818.453	155.99
818.632	160.08
818.81	131.41
818.988	67.92
819.167	104.79
819.345	112.98
819.523	63.83
819.701	102.74
819.879	131.41
820.058	63.83
820.236	121.17
820.414	84.31
820.592	133.46
820.77	96.6
820.948	166.23
821.127	24.92
821.305	131.41
821.483	102.74
821.661	90.45
821.839	55.64
822.017	104.79
822.195	106.84
822.373	141.65
822.551	76.12
822.729	133.46
822.907	155.99
823.085	145.75
823.262	147.8
823.44	67.92
823.618	100.69
823.796	129.36
823.974	35.16
824.152	108.88
824.329	61.78
824.507	63.83
824.685	117.08
824.863	80.21
825.04	104.79
825.218	143.7
825.396	55.64
825.574	84.31
825.751	117.08
825.929	186.71
826.107	35.16
826.284	43.35
826.462	72.02
826.639	69.97
826.817	88.4
826.994	43.35
827.172	2.39
827.349	141.65
827.527	96.6
827.704	72.02
827.882	145.75
828.059	24.92
828.237	88.4
828.414	170.32
828.591	100.69
828.769	47.44
828.946	59.73
829.124	96.6
829.301	155.99
829.478	24.92
829.655	98.64
829.833	84.31
830.01	84.31
830.187	88.4
830.364	96.6
830.542	41.3
830.719	108.88
830.896	117.08
831.073	80.21
831.25	72.02
831.427	16.73
831.604	31.06
831.782	98.64
831.959	69.97
832.136	88.4
832.313	115.03
832.49	29.01
832.667	88.4
832.844	96.6
833.021	45.4
833.198	24.92
833.374	72.02
833.551	61.78
833.728	96.6
833.905	96.6
834.082	41.3
834.259	80.21
834.436	51.54
834.612	-16.04
834.789	59.73
834.966	65.88
835.143	115.03
835.319	24.92
835.496	31.06
835.673	106.84
835.85	0.34
836.026	117.08
836.203	147.8
836.38	88.4
836.556	57.68
836.733	33.11
836.909	106.84
837.086	102.74
837.262	84.31
837.439	-20.14
837.616	98.64
837.792	22.87
837.968	133.46
838.145	39.25
838.321	63.83
838.498	145.75
838.674	96.6
838.851	43.35
839.027	43.35
839.203	43.35
839.38	65.88
839.556	145.75
839.732	72.02
839.909	63.83
840.085	145.75
840.261	31.06
840.437	72.02
840.614	69.97
840.79	72.02
840.966	18.77
841.142	115.03
841.318	8.53
841.494	133.46
841.671	104.79
841.847	0.34
842.023	104.79
842.199	108.88
842.375	84.31
842.551	0.34
842.727	33.11
842.903	98.64
843.079	31.06
843.255	151.89
843.431	119.12
843.607	88.4
843.783	22.87
843.959	49.49
844.134	-1.71
844.31	90.45
844.486	61.78
844.662	115.03
844.838	59.73
845.013	74.07
845.189	162.13
845.365	16.73
845.541	10.58
845.716	59.73
845.892	90.45
846.068	-7.85
846.244	49.49
846.419	80.21
846.595	63.83
846.77	47.44
846.946	57.68
847.122	47.44
847.297	39.25
847.473	59.73
847.648	39.25
847.824	12.63
847.999	10.58
848.175	74.07
848.35	-3.75
848.526	2.39
848.701	55.64
848.876	26.96
849.052	16.73
849.227	33.11
849.403	22.87
849.578	14.68
849.753	92.5
849.929	51.54
850.104	8.53
850.279	41.3
850.454	76.12
850.63	82.26
850.805	72.02
850.98	-9.9
851.155	16.73
851.33	22.87
851.505	-24.23
851.681	63.83
851.856	74.07
852.031	65.88
852.206	-13.99
852.381	4.44
852.556	41.3
852.731	0.34
852.906	47.44
853.081	0.34
853.256	170.32
853.431	72.02
853.606	63.83
853.781	33.11
853.956	2.39
854.131	37.2
854.305	100.69
854.48	16.73
854.655	-26.28
854.83	22.87
855.005	82.26
855.18	84.31
855.354	51.54
855.529	72.02
855.704	14.68
855.879	80.21
856.053	-3.75
856.228	82.26
856.403	29.01
856.577	8.53
856.752	-34.47
856.926	33.11
857.101	78.16
857.276	-48.81
857.45	12.63
857.625	26.96
857.799	78.16
857.974	69.97
858.148	69.97
858.323	106.84
858.497	57.68
858.672	33.11
858.846	-5.8
859.02	80.21
859.195	37.2
859.369	72.02
859.543	65.88
859.718	14.68
859.892	49.49
860.066	123.22
860.241	24.92
860.415	6.49
860.589	94.55
860.763	96.6
860.938	22.87
861.112	76.12
861.286	18.77
861.46	63.83
861.634	96.6
861.808	59.73
861.982	39.25
862.157	22.87
862.331	16.73
862.505	0.34
862.679	-61.1
862.853	24.92
863.027	35.16
863.201	47.44
863.375	22.87
863.549	39.25
863.722	-42.67
863.896	84.31
864.07	49.49
864.244	41.3
864.418	29.01
864.592	47.44
864.766	-1.71
864.939	104.79
865.113	92.5
865.287	55.64
865.461	55.64
865.634	-16.04
865.808	49.49
865.982	-11.95
866.156	61.78
866.329	-24.23
866.503	22.87
866.676	106.84
866.85	55.64
867.024	22.87
867.197	55.64
867.371	31.06
867.544	31.06
867.718	65.88
867.891	-11.95
868.065	29.01
868.238	-18.09
868.412	96.6
868.585	-9.9
868.759	-26.28
868.932	-3.75
869.105	-3.75
869.279	-28.33
869.452	-9.9
869.625	67.92
869.799	-54.95
869.972	-26.28
870.145	24.92
870.319	-16.04
870.492	14.68
870.665	-7.85
870.838	14.68
871.011	-18.09
871.185	51.54
871.358	55.64
871.531	-40.62
871.704	12.63
871.877	98.64
872.05	-18.09
872.223	-22.19
872.396	-18.09
872.569	-7.85
872.742	12.63
872.915	24.92
873.088	41.3
873.261	20.82
873.434	2.39
873.607	35.16
873.78	88.4
873.953	49.49
874.126	8.53
874.299	-59.05
874.471	22.87
874.644	-16.04
874.817	4.44
874.99	55.64
875.163	14.68
875.335	31.06
875.508	-30.38
875.681	72.02
875.853	-13.99
876.026	72.02
876.199	63.83
876.371	16.73
876.544	115.03
876.717	63.83
876.889	-42.67
877.062	43.35
877.234	24.92
877.407	55.64
877.579	31.06
877.752	35.16
877.924	-63.15
878.097	112.98
878.269	10.58
878.442	14.68
878.614	76.12
878.786	2.39
878.959	94.55
879.131	12.63
879.303	-63.15
879.476	8.53
879.648	8.53
879.82	-9.9
879.993	31.06
880.165	-18.09
880.337	-69.29
880.509	-9.9
880.681	-24.23
880.854	-50.86
881.026	14.68
881.198	33.11
881.37	-22.19
881.542	55.64
881.714	100.69
881.886	33.11
882.058	16.73
882.23	-36.52
882.402	63.83
882.574	4.44
882.746	65.88
882.918	-18.09
883.09	90.45
883.262	43.35
883.434	24.92
883.606	43.35
883.778	117.08
883.95	47.44
884.122	-1.71
884.293	51.54
884.465	-63.15
884.637	2.39
884.809	10.58
884.98	67.92
885.152	-28.33
885.324	26.96
885.496	-9.9
885.667	10.58
885.839	-20.14
886.011	16.73
886.182	67.92
886.354	14.68
886.525	8.53
886.697	55.64
886.869	-7.85
887.04	-1.71
887.212	55.64
887.383	41.3
887.555	0.34
887.726	16.73
887.897	-30.38
888.069	45.4
888.24	14.68
888.412	10.58
888.583	-26.28
888.754	67.92
888.926	31.06
889.097	6.49
889.268	2.39
889.44	29.01
889.611	55.64
889.782	-50.86
889.953	31.06
890.125	65.88
890.296	33.11
890.467	29.01
890.638	-22.19
890.809	59.73
890.98	-26.28
891.151	43.35
891.323	74.07
891.494	37.2
891.665	-13.99
891.836	2.39
892.007	22.87
892.178	22.87
892.349	37.2
892.52	-1.71
892.691	43.35
892.862	14.68
893.032	57.68
893.203	31.06
893.374	33.11
893.545	-1.71
893.716	-54.95
893.887	0.34
894.057	-42.67
894.228	22.87
894.399	33.11
894.57	0.34
894.74	18.77
894.911	0.34
895.082	63.83
895.253	-40.62
895.423	6.49
895.594	74.07
895.764	33.11
895.935	-13.99
896.106	0.34
896.276	-5.8
896.447	-5.8
896.617	-42.67
896.788	-20.14
896.958	29.01
897.129	22.87
897.299	-7.85
897.47	22.87
897.64	26.96
897.81	33.11
897.981	-26.28
898.151	-34.47
898.322	43.35
898.492	39.25
898.662	-32.43
898.832	-50.86
899.003	14.68
899.173	14.68
899.343	14.68
899.513	-36.52
