Data from USB4F104151__286__14-23-33-021.txt Node

Date: Thu Mar 13 14:23:33 EDT 2025
User: louis
Spectrometer: USB4F10415
Trigger mode: 4
Integration Time (sec): 2.000000E-2
Scans to average: 1
Electric dark correction enabled: true
Nonlinearity correction enabled: false
Boxcar width: 0
XAxis mode: Wavelengths
Number of Pixels in Spectrum: 3648
>>>>>Begin Spectral Data<<<<<
178.204	-57.34
178.424	-57.34
178.644	-57.34
178.864	-100.35
179.084	-163.84
179.304	-38.91
179.524	40.96
179.744	-51.2
179.964	14.34
180.184	38.91
180.404	16.38
180.624	-38.91
180.844	-20.48
181.064	-16.38
181.283	28.67
181.503	2.05
181.723	24.58
181.943	-71.68
182.163	63.49
182.383	22.53
182.602	73.73
182.822	40.96
183.042	34.82
183.262	26.62
183.482	14.34
183.701	-4.1
183.921	16.38
184.141	-2.05
184.361	45.06
184.58	-20.48
184.8	106.49
185.02	47.1
185.239	129.02
185.459	-10.24
185.679	104.45
185.898	38.91
186.118	73.73
186.338	57.34
186.557	30.72
186.777	-24.58
186.997	-49.15
187.216	30.72
187.436	88.06
187.655	22.53
187.875	-65.54
188.095	18.43
188.314	126.97
188.534	92.16
188.753	38.91
188.973	49.15
189.192	71.68
189.412	2.05
189.631	32.77
189.851	47.1
190.07	38.91
190.29	14.34
190.509	14.34
190.729	32.77
190.948	43.01
191.168	188.41
191.387	73.73
191.607	-34.82
191.826	81.92
192.045	79.87
192.265	49.15
192.484	30.72
192.704	-34.82
192.923	-8.19
193.142	43.01
193.362	67.58
193.581	51.2
193.8	92.16
194.02	88.06
194.239	4.1
194.458	96.25
194.678	-24.58
194.897	40.96
195.116	26.62
195.335	55.3
195.555	6.14
195.774	4.1
195.993	2.05
196.212	26.62
196.432	-16.38
196.651	71.68
196.87	100.35
197.089	90.11
197.308	55.3
197.528	88.06
197.747	4.1
197.966	51.2
198.185	106.49
198.404	6.14
198.623	26.62
198.842	-10.24
199.062	43.01
199.281	63.49
199.5	40.96
199.719	92.16
199.938	71.68
200.157	49.15
200.376	36.86
200.595	51.2
200.814	43.01
201.033	53.25
201.252	88.06
201.471	79.87
201.69	100.35
201.909	47.1
202.128	59.39
202.347	18.43
202.566	69.63
202.785	32.77
203.004	55.3
203.223	186.37
203.442	-47.1
203.661	16.38
203.879	57.34
204.098	81.92
204.317	-14.34
204.536	98.3
204.755	104.45
204.974	114.69
205.193	-26.62
205.411	86.01
205.63	106.49
205.849	16.38
206.068	2.05
206.287	40.96
206.505	18.43
206.724	30.72
206.943	77.82
207.162	88.06
207.381	83.97
207.599	47.1
207.818	32.77
208.037	30.72
208.255	6.14
208.474	20.48
208.693	96.25
208.911	-6.14
209.13	102.4
209.349	96.25
209.567	112.64
209.786	67.58
210.005	49.15
210.223	-26.62
210.442	-34.82
210.661	71.68
210.879	4.1
211.098	22.53
211.316	6.14
211.535	88.06
211.753	22.53
211.972	6.14
212.191	-8.19
212.409	8.19
212.628	16.38
212.846	-30.72
213.065	-16.38
213.283	94.21
213.502	30.72
213.72	57.34
213.938	38.91
214.157	75.77
214.375	53.25
214.594	26.62
214.812	-14.34
215.031	-63.49
215.249	-4.1
215.467	-22.53
215.686	8.19
215.904	8.19
216.122	16.38
216.341	112.64
216.559	100.35
216.778	34.82
216.996	49.15
217.214	69.63
217.432	-22.53
217.651	-6.14
217.869	14.34
218.087	30.72
218.306	22.53
218.524	61.44
218.742	92.16
218.96	-8.19
219.179	18.43
219.397	-8.19
219.615	129.02
219.833	81.92
220.051	55.3
220.27	104.45
220.488	65.53
220.706	18.43
220.924	30.72
221.142	18.43
221.36	61.44
221.578	20.48
221.796	67.58
222.015	22.53
222.233	114.69
222.451	12.29
222.669	10.24
222.887	45.06
223.105	22.53
223.323	131.07
223.541	-30.72
223.759	55.3
223.977	112.64
224.195	98.3
224.413	10.24
224.631	8.19
224.849	6.14
225.067	16.38
225.285	6.14
225.503	57.34
225.721	4.1
225.939	73.73
226.157	-55.3
226.375	88.06
226.592	32.77
226.81	73.73
227.028	47.1
227.246	124.93
227.464	73.73
227.682	98.3
227.9	86.01
228.117	63.49
228.335	79.87
228.553	65.53
228.771	47.1
228.989	79.87
229.206	106.49
229.424	12.29
229.642	26.62
229.86	-0
230.077	-6.14
230.295	-34.82
230.513	59.39
230.731	106.49
230.948	112.64
231.166	75.77
231.384	51.2
231.601	-18.43
231.819	122.88
232.037	22.53
232.254	34.82
232.472	32.77
232.689	55.3
232.907	98.3
233.125	47.1
233.342	30.72
233.56	10.24
233.777	36.86
233.995	-10.24
234.213	63.49
234.43	75.77
234.648	49.15
234.865	-36.86
235.083	40.96
235.3	38.91
235.518	71.68
235.735	53.25
235.953	47.1
236.17	-32.77
236.388	8.19
236.605	65.53
236.822	49.15
237.04	65.53
237.257	32.77
237.475	-16.38
237.692	-2.05
237.909	63.49
238.127	79.87
238.344	83.97
238.562	71.68
238.779	-22.53
238.996	22.53
239.214	26.62
239.431	38.91
239.648	-18.43
239.865	53.25
240.083	49.15
240.3	73.73
240.517	73.73
240.735	14.34
240.952	22.53
241.169	49.15
241.386	14.34
241.603	67.58
241.821	26.62
242.038	104.45
242.255	-8.19
242.472	38.91
242.689	102.4
242.907	40.96
243.124	34.82
243.341	49.15
243.558	-18.43
243.775	8.19
243.992	-18.43
244.209	55.3
244.426	92.16
244.643	43.01
244.86	14.34
245.078	88.06
245.295	12.29
245.512	12.29
245.729	32.77
245.946	30.72
246.163	88.06
246.38	20.48
246.597	28.67
246.814	59.39
247.031	-0
247.248	98.3
247.464	49.15
247.681	-14.34
247.898	38.91
248.115	22.53
248.332	47.1
248.549	143.36
248.766	106.49
248.983	65.53
249.2	73.73
249.417	4.1
249.633	63.49
249.85	63.49
250.067	43.01
250.284	-4.1
250.501	59.39
250.717	73.73
250.934	47.1
251.151	-73.73
251.368	63.49
251.585	47.1
251.801	-2.05
252.018	-18.43
252.235	118.78
252.451	65.53
252.668	16.38
252.885	32.77
253.102	32.77
253.318	40.96
253.535	79.87
253.752	120.83
253.968	106.49
254.185	-2.05
254.401	4.1
254.618	38.91
254.835	104.45
255.051	98.3
255.268	57.34
255.484	88.06
255.701	-16.38
255.917	-10.24
256.134	88.06
256.351	30.72
256.567	49.15
256.784	-18.43
257	-2.05
257.217	55.3
257.433	32.77
257.65	67.58
257.866	26.62
258.082	26.62
258.299	6.14
258.515	81.92
258.732	6.14
258.948	2.05
259.165	26.62
259.381	-49.15
259.597	43.01
259.814	26.62
260.03	124.93
260.246	14.34
260.463	55.3
260.679	40.96
260.895	57.34
261.112	81.92
261.328	129.02
261.544	-14.34
261.761	145.41
261.977	24.58
262.193	-14.34
262.409	79.87
262.626	55.3
262.842	30.72
263.058	-6.14
263.274	71.68
263.49	83.97
263.707	81.92
263.923	61.44
264.139	-59.39
264.355	83.97
264.571	147.45
264.787	20.48
265.004	108.54
265.22	92.16
265.436	112.64
265.652	-43.01
265.868	55.3
266.084	120.83
266.3	51.2
266.516	20.48
266.732	88.06
266.948	2.05
267.164	-22.53
267.38	102.4
267.596	61.44
267.812	49.15
268.028	94.21
268.244	-4.1
268.46	14.34
268.676	88.06
268.892	-0
269.108	26.62
269.324	-24.58
269.54	43.01
269.756	55.3
269.972	30.72
270.188	57.34
270.403	71.68
270.619	55.3
270.835	59.39
271.051	51.2
271.267	90.11
271.483	-18.43
271.698	8.19
271.914	28.67
272.13	36.86
272.346	104.45
272.562	73.73
272.777	79.87
272.993	55.3
273.209	55.3
273.425	28.67
273.64	79.87
273.856	28.67
274.072	34.82
274.287	14.34
274.503	71.68
274.719	65.53
274.934	53.25
275.15	49.15
275.366	34.82
275.581	69.63
275.797	59.39
276.012	36.86
276.228	71.68
276.444	43.01
276.659	-10.24
276.875	98.3
277.09	26.62
277.306	-4.1
277.521	-6.14
277.737	86.01
277.952	71.68
278.168	38.91
278.383	65.53
278.599	30.72
278.814	-51.2
279.03	65.53
279.245	172.03
279.461	2.05
279.676	86.01
279.892	43.01
280.107	43.01
280.322	-6.14
280.538	67.58
280.753	98.3
280.969	59.39
281.184	22.53
281.399	71.68
281.615	38.91
281.83	22.53
282.045	59.39
282.26	30.72
282.476	-10.24
282.691	57.34
282.906	59.39
283.122	55.3
283.337	38.91
283.552	47.1
283.767	59.39
283.983	135.17
284.198	57.34
284.413	30.72
284.628	24.58
284.843	-4.1
285.058	71.68
285.274	-10.24
285.489	51.2
285.704	79.87
285.919	100.35
286.134	47.1
286.349	10.24
286.564	16.38
286.779	112.64
286.995	71.68
287.21	-79.87
287.425	120.83
287.64	24.58
287.855	32.77
288.07	71.68
288.285	77.82
288.5	-55.3
288.715	65.53
288.93	79.87
289.145	32.77
289.36	59.39
289.575	83.97
289.79	55.3
290.004	-2.05
290.219	145.41
290.434	14.34
290.649	-24.58
290.864	20.48
291.079	49.15
291.294	96.25
291.509	67.58
291.724	88.06
291.938	38.91
292.153	47.1
292.368	14.34
292.583	51.2
292.798	79.87
293.012	-32.77
293.227	14.34
293.442	51.2
293.657	34.82
293.871	40.96
294.086	102.4
294.301	61.44
294.516	71.68
294.73	92.16
294.945	22.53
295.16	2.05
295.374	51.2
295.589	2.05
295.804	22.53
296.018	51.2
296.233	79.87
296.447	18.43
296.662	-18.43
296.877	104.45
297.091	88.06
297.306	65.53
297.52	90.11
297.735	53.25
297.949	6.14
298.164	65.53
298.378	65.53
298.593	67.58
298.807	26.62
299.022	53.25
299.236	81.92
299.451	75.77
299.665	-51.2
299.88	6.14
300.094	12.29
300.309	43.01
300.523	65.53
300.737	55.3
300.952	69.63
301.166	18.43
301.381	69.63
301.595	51.2
301.809	12.29
302.024	57.34
302.238	8.19
302.452	145.41
302.667	40.96
302.881	75.77
303.095	69.63
303.309	61.44
303.524	40.96
303.738	6.14
303.952	2.05
304.166	38.91
304.381	20.48
304.595	137.21
304.809	10.24
305.023	100.35
305.237	12.29
305.452	47.1
305.666	38.91
305.88	43.01
306.094	71.68
306.308	28.67
306.522	10.24
306.736	116.73
306.95	55.3
307.164	14.34
307.379	88.06
307.593	96.25
307.807	73.73
308.021	110.59
308.235	94.21
308.449	-30.72
308.663	112.64
308.877	71.68
309.091	34.82
309.305	63.49
309.519	10.24
309.733	63.49
309.947	69.63
310.161	75.77
310.374	47.1
310.588	57.34
310.802	49.15
311.016	32.77
311.23	59.39
311.444	53.25
311.658	40.96
311.872	63.49
312.085	96.25
312.299	63.49
312.513	40.96
312.727	38.91
312.941	34.82
313.154	32.77
313.368	55.3
313.582	34.82
313.796	-12.29
314.009	16.38
314.223	26.62
314.437	6.14
314.651	51.2
314.864	2.05
315.078	26.62
315.292	30.72
315.505	-59.39
315.719	49.15
315.933	65.53
316.146	102.4
316.36	14.34
316.573	22.53
316.787	24.58
317.001	59.39
317.214	38.91
317.428	65.53
317.641	-14.34
317.855	98.3
318.068	16.38
318.282	51.2
318.495	67.58
318.709	86.01
318.922	26.62
319.136	122.88
319.349	73.73
319.563	-26.62
319.776	10.24
319.99	38.91
320.203	55.3
320.417	-12.29
320.63	98.3
320.843	159.74
321.057	51.2
321.27	34.82
321.483	55.3
321.697	104.45
321.91	92.16
322.124	108.54
322.337	38.91
322.55	22.53
322.763	49.15
322.977	-47.1
323.19	49.15
323.403	55.3
323.617	73.73
323.83	71.68
324.043	40.96
324.256	63.49
324.469	-2.05
324.683	75.77
324.896	6.14
325.109	67.58
325.322	28.67
325.535	112.64
325.748	81.92
325.962	-6.14
326.175	57.34
326.388	79.87
326.601	81.92
326.814	8.19
327.027	36.86
327.24	129.02
327.453	8.19
327.666	81.92
327.879	65.53
328.092	122.88
328.305	43.01
328.518	16.38
328.731	22.53
328.944	-2.05
329.157	120.83
329.37	6.14
329.583	106.49
329.796	112.64
330.009	2.05
330.222	86.01
330.435	163.84
330.648	104.45
330.861	8.19
331.073	-10.24
331.286	83.97
331.499	43.01
331.712	47.1
331.925	6.14
332.138	63.49
332.35	20.48
332.563	30.72
332.776	20.48
332.989	16.38
333.202	65.53
333.414	100.35
333.627	63.49
333.84	-24.58
334.053	71.68
334.265	65.53
334.478	-10.24
334.691	28.67
334.903	88.06
335.116	22.53
335.329	59.39
335.541	73.73
335.754	79.87
335.966	71.68
336.179	77.82
336.392	40.96
336.604	63.49
336.817	6.14
337.029	30.72
337.242	32.77
337.454	83.97
337.667	81.92
337.88	153.6
338.092	79.87
338.305	92.16
338.517	108.54
338.729	45.06
338.942	59.39
339.154	16.38
339.367	-2.05
339.579	55.3
339.792	55.3
340.004	96.25
340.217	26.62
340.429	-32.77
340.641	53.25
340.854	88.06
341.066	24.58
341.278	49.15
341.491	98.3
341.703	88.06
341.915	57.34
342.128	86.01
342.34	-22.53
342.552	81.92
342.764	-32.77
342.977	30.72
343.189	71.68
343.401	-4.1
343.613	8.19
343.826	49.15
344.038	-16.38
344.25	90.11
344.462	6.14
344.674	47.1
344.886	6.14
345.099	59.39
345.311	83.97
345.523	14.34
345.735	-10.24
345.947	55.3
346.159	73.73
346.371	65.53
346.583	81.92
346.795	102.4
347.007	63.49
347.219	-6.14
347.431	55.3
347.643	55.3
347.855	22.53
348.067	16.38
348.279	-16.38
348.491	88.06
348.703	129.02
348.915	71.68
349.127	38.91
349.339	104.45
349.551	-34.82
349.763	151.55
349.975	43.01
350.187	112.64
350.399	102.4
350.61	96.25
350.822	20.48
351.034	-4.1
351.246	51.2
351.458	88.06
351.669	67.58
351.881	30.72
352.093	26.62
352.305	57.34
352.517	94.21
352.728	36.86
352.94	32.77
353.152	108.54
353.363	-10.24
353.575	38.91
353.787	32.77
353.999	-0
354.21	24.58
354.422	71.68
354.633	10.24
354.845	12.29
355.057	36.86
355.268	67.58
355.48	67.58
355.692	49.15
355.903	77.82
356.115	92.16
356.326	18.43
356.538	51.2
356.749	71.68
356.961	102.4
357.172	83.97
357.384	49.15
357.595	129.02
357.807	63.49
358.018	71.68
358.23	79.87
358.441	73.73
358.653	75.77
358.864	120.83
359.075	38.91
359.287	73.73
359.498	71.68
359.709	61.44
359.921	71.68
360.132	38.91
360.344	43.01
360.555	-10.24
360.766	61.44
360.977	55.3
361.189	69.63
361.4	-16.38
361.611	108.54
361.823	22.53
362.034	63.49
362.245	120.83
362.456	79.87
362.667	22.53
362.879	79.87
363.09	49.15
363.301	114.69
363.512	96.25
363.723	14.34
363.935	67.58
364.146	116.73
364.357	40.96
364.568	81.92
364.779	8.19
364.99	81.92
365.201	22.53
365.412	63.49
365.623	59.39
365.834	55.3
366.045	10.24
366.256	79.87
366.467	71.68
366.678	47.1
366.889	38.91
367.1	106.49
367.311	49.15
367.522	81.92
367.733	67.58
367.944	57.34
368.155	96.25
368.366	10.24
368.577	86.01
368.788	14.34
368.999	26.62
369.209	71.68
369.42	120.83
369.631	26.62
369.842	34.82
370.053	16.38
370.264	47.1
370.474	65.53
370.685	32.77
370.896	118.78
371.107	163.84
371.317	133.12
371.528	124.93
371.739	94.21
371.95	65.53
372.16	65.53
372.371	77.82
372.582	55.3
372.792	77.82
373.003	112.64
373.214	-14.34
373.424	59.39
373.635	67.58
373.846	65.53
374.056	65.53
374.267	32.77
374.477	-14.34
374.688	129.02
374.898	59.39
375.109	69.63
375.319	45.06
375.53	43.01
375.74	83.97
375.951	12.29
376.161	-16.38
376.372	108.54
376.582	81.92
376.793	16.38
377.003	75.77
377.214	83.97
377.424	65.53
377.635	6.14
377.845	-14.34
378.055	88.06
378.266	-51.2
378.476	55.3
378.686	57.34
378.897	-12.29
379.107	120.83
379.317	22.53
379.528	79.87
379.738	69.63
379.948	38.91
380.158	75.77
380.369	90.11
380.579	139.26
380.789	24.58
380.999	49.15
381.21	88.06
381.42	79.87
381.63	79.87
381.84	90.11
382.05	28.67
382.261	86.01
382.471	83.97
382.681	65.53
382.891	182.27
383.101	122.88
383.311	-10.24
383.521	75.77
383.731	51.2
383.941	131.07
384.151	77.82
384.361	34.82
384.571	65.53
384.781	49.15
384.991	53.25
385.201	169.98
385.411	102.4
385.621	73.73
385.831	38.91
386.041	96.25
386.251	129.02
386.461	65.53
386.671	92.16
386.881	88.06
387.091	106.49
387.301	108.54
387.511	63.49
387.72	67.58
387.93	-10.24
388.14	79.87
388.35	129.02
388.56	106.49
388.769	161.79
388.979	169.98
389.189	40.96
389.399	106.49
389.609	49.15
389.818	178.17
390.028	30.72
390.238	71.68
390.447	110.59
390.657	63.49
390.867	-28.67
391.076	73.73
391.286	57.34
391.496	65.53
391.705	100.35
391.915	90.11
392.125	77.82
392.334	30.72
392.544	36.86
392.753	26.62
392.963	49.15
393.172	137.21
393.382	47.1
393.591	100.35
393.801	69.63
394.01	120.83
394.22	151.55
394.429	196.6
394.639	81.92
394.848	59.39
395.058	71.68
395.267	88.06
395.477	131.07
395.686	79.87
395.895	161.79
396.105	114.69
396.314	110.59
396.524	86.01
396.733	43.01
396.942	135.17
397.152	120.83
397.361	145.41
397.57	90.11
397.78	126.97
397.989	169.98
398.198	202.75
398.407	135.17
398.617	106.49
398.826	86.01
399.035	83.97
399.244	112.64
399.453	161.79
399.663	153.6
399.872	116.73
400.081	83.97
400.29	145.41
400.499	102.4
400.708	153.6
400.917	102.4
401.127	92.16
401.336	98.3
401.545	196.6
401.754	153.6
401.963	147.45
402.172	100.35
402.381	79.87
402.59	98.3
402.799	157.69
403.008	147.45
403.217	129.02
403.426	153.6
403.635	155.65
403.844	194.56
404.053	137.21
404.262	133.12
404.471	260.09
404.68	139.26
404.888	208.89
405.097	176.13
405.306	260.09
405.515	229.37
405.724	143.36
405.933	235.52
406.142	219.13
406.35	202.75
406.559	253.95
406.768	215.04
406.977	235.52
407.185	301.05
407.394	235.52
407.603	188.41
407.812	284.67
408.02	260.09
408.229	245.76
408.438	169.98
408.646	206.84
408.855	253.95
409.064	243.71
409.272	333.82
409.481	290.81
409.69	305.15
409.898	272.38
410.107	352.25
410.315	393.21
410.524	350.2
410.733	421.88
410.941	374.78
411.15	342.01
411.358	325.63
411.567	481.27
411.775	481.27
411.984	391.16
412.192	479.22
412.401	425.98
412.609	497.66
412.818	530.42
413.026	548.86
413.234	507.9
413.443	581.62
413.651	573.43
413.86	583.67
414.068	669.69
414.276	661.49
414.485	669.69
414.693	700.41
414.901	737.27
415.11	767.99
415.318	751.6
415.526	739.32
415.734	770.04
415.943	899.06
416.151	868.34
416.359	901.11
416.567	851.95
416.776	940.02
416.984	1048.56
417.192	1044.46
417.4	972.79
417.608	1069.04
417.817	1023.98
418.025	1155.05
418.233	1273.84
418.441	1173.49
418.649	1193.97
418.857	1351.66
419.065	1398.76
419.273	1228.78
419.481	1441.77
419.689	1415.15
419.897	1613.8
420.105	1568.74
420.313	1523.69
420.521	1638.37
420.729	1777.64
420.937	1685.48
421.145	1794.02
421.353	1933.28
421.561	2041.82
421.769	2123.74
421.977	2123.74
422.185	2013.15
422.393	2129.89
422.601	2332.64
422.809	2322.4
423.017	2344.92
423.224	2611.16
423.432	2582.49
423.64	2537.43
423.848	2803.67
424.056	2762.71
424.263	2867.16
424.471	2932.69
424.679	2951.12
424.887	3186.64
425.094	3323.85
425.302	3223.5
425.51	3364.81
425.718	3418.06
425.925	3530.7
426.133	3626.95
426.341	3764.17
426.548	4128.7
426.756	3989.44
426.964	4214.72
427.171	4276.16
427.379	4460.48
427.586	4353.98
427.794	4560.83
428.001	4929.46
428.209	5038
428.417	4927.41
428.624	5314.48
428.832	5322.67
429.039	5281.71
429.247	5294
429.454	5646.25
429.662	6078.37
429.869	5619.63
430.076	6119.33
430.284	5926.82
430.491	6170.53
430.699	6520.73
430.906	6674.33
431.114	6616.99
431.321	6950.81
431.528	7063.44
431.736	7565.2
431.943	7890.82
432.15	7677.83
432.358	7839.62
432.565	7956.36
432.772	8036.23
432.979	8419.2
433.187	8398.72
433.394	8646.52
433.601	9287.54
433.808	9387.89
434.016	9299.83
434.223	9670.51
434.43	10073.96
434.637	9865.07
434.844	10712.92
435.052	10631.01
435.259	10620.77
435.466	10887
435.673	10954.58
435.88	11339.6
436.087	12121.93
436.294	12011.34
436.501	11853.64
436.708	12216.13
436.915	12341.06
437.122	12953.4
437.329	12771.13
437.537	13463.35
437.743	13418.29
437.95	13588.27
438.157	14159.66
438.364	14642.98
438.571	14722.85
438.778	14753.57
438.985	16178.95
439.192	15333.14
439.399	15976.2
439.606	15546.13
439.813	16334.6
440.02	17309.43
440.227	16744.19
440.433	16871.17
440.64	17465.08
440.847	17454.84
441.054	17936.11
441.261	18804.45
441.467	18618.08
441.674	18996.96
441.881	19506.9
442.088	19533.53
442.294	19599.06
442.501	20063.95
442.708	20522.69
442.914	21208.76
443.121	22298.28
443.328	21386.94
443.534	23037.6
443.741	22316.72
443.948	22116.01
444.154	23729.81
444.361	23422.62
444.568	23697.05
444.774	23903.89
444.981	23918.23
445.187	24350.35
445.394	25720.44
445.6	25222.78
445.807	27817.56
446.013	26515.05
446.22	26910.31
446.426	28163.67
446.633	28276.3
446.839	29167.17
447.046	27965.01
447.252	29431.36
447.459	29584.96
447.665	29580.86
447.871	30889.51
448.078	31921.69
448.284	30813.74
448.491	31098.41
448.697	32581.13
448.903	33515.01
449.11	33402.37
449.316	32843.27
449.522	33097.22
449.728	34053.62
449.935	34434.55
450.141	34545.14
450.347	35112.42
450.553	34272.76
450.76	34526.71
450.966	36064.73
451.172	35405.28
451.378	36236.76
451.584	35700.19
451.791	36406.74
451.997	36300.25
452.203	37297.61
452.409	37270.98
452.615	37307.85
452.821	35446.24
453.027	35165.67
453.233	37086.67
453.44	35538.4
453.646	36019.67
453.852	36425.17
454.058	36629.97
454.264	35519.97
454.47	36664.78
454.676	35835.36
454.882	36974.03
455.088	33373.7
455.294	34459.12
455.5	34799.08
455.705	35126.76
455.911	33795.58
456.117	32919.05
456.323	32603.66
456.529	31092.26
456.735	32695.82
456.941	31524.38
457.147	31122.98
457.352	29924.92
457.558	29871.67
457.764	30260.79
457.97	29554.24
458.176	28786.25
458.381	29058.63
458.587	27424.35
458.793	27522.65
458.999	25972.34
459.204	27924.05
459.41	27143.78
459.616	25179.78
459.821	25333.37
460.027	24999.55
460.233	25241.21
460.438	23611.03
460.644	23529.11
460.85	22550.18
461.055	22286
461.261	22283.95
461.466	20309.71
461.672	20125.39
461.878	21522.1
462.083	19973.84
462.289	19900.11
462.494	19523.29
462.7	18988.77
462.905	18388.71
463.111	18851.55
463.316	18917.09
463.522	18405.1
463.727	18337.51
463.932	18468.58
464.138	18357.99
464.343	18470.63
464.549	17585.91
464.754	18548.45
464.959	18257.64
465.165	18067.18
465.37	17479.41
465.575	16703.23
465.781	17387.25
465.986	17673.97
466.191	17090.3
466.397	16471.81
466.602	15820.56
466.807	16637.7
467.012	16463.62
467.218	16465.67
467.423	16131.85
467.628	16361.22
467.833	16805.63
468.038	16062.22
468.244	15873.81
468.449	16707.33
468.654	15654.67
468.859	15857.42
469.064	15804.17
469.269	15288.09
469.474	15257.37
469.679	15609.62
469.885	15372.05
470.09	15197.98
470.295	15116.06
470.5	14944.03
470.705	15050.52
470.91	14438.18
471.115	14548.77
471.32	14595.87
471.525	14460.71
471.73	14214.95
471.935	14276.39
472.139	13756.21
472.344	14038.83
472.549	13874.99
472.754	13670.19
472.959	13119.29
473.164	13221.69
473.369	13063.99
473.574	13360.95
473.778	13231.93
473.983	13188.92
474.188	13221.69
474.393	12568.38
474.598	12670.78
474.802	12549.95
475.007	12339.01
475.212	12119.88
475.417	11960.14
475.621	11941.71
475.826	11999.05
476.031	11720.53
476.235	11564.88
476.44	11847.5
476.645	11335.51
476.849	11599.69
477.054	11450.19
477.259	11269.97
477.463	11255.64
477.668	11079.51
477.872	11102.04
478.077	10831.71
478.282	10643.29
478.486	10641.25
478.691	10418.02
478.895	10534.75
479.1	10444.64
479.304	10211.17
479.509	10020.71
479.713	10379.11
479.918	10022.76
480.122	9910.12
480.326	10028.9
480.531	10053.48
480.735	9885.55
480.94	9748.33
481.144	10202.98
481.348	9725.8
481.553	9746.28
481.757	9561.97
481.961	9615.21
482.166	9602.93
482.37	9729.9
482.574	9635.69
482.778	9607.02
482.983	9910.12
483.187	9791.34
483.391	9586.54
483.595	9674.6
483.8	9508.72
484.004	9744.24
484.208	9568.11
484.412	9613.17
484.616	9731.95
484.821	9721.71
485.025	9328.5
485.229	9580.4
485.433	9381.74
485.637	9543.53
485.841	9641.84
486.045	9359.22
486.249	9738.09
486.453	9576.3
486.657	9533.29
486.861	9738.09
487.065	9283.44
487.269	9613.17
487.473	9527.15
487.677	9742.19
487.881	9936.74
488.085	9598.83
488.289	9820.01
488.493	9631.6
488.697	9942.89
488.901	9682.8
489.105	9557.87
489.309	9828.2
489.512	9697.13
489.716	9717.61
489.92	9547.63
490.124	9721.71
490.328	9768.81
490.531	9877.35
490.735	9803.63
490.939	9856.87
491.143	9877.35
491.346	9717.61
491.55	10094.44
491.754	10157.92
491.958	10098.53
492.161	10043.24
492.365	10016.62
492.569	10182.5
492.772	10065.77
492.976	10098.53
493.18	10280.8
493.383	10401.63
493.587	10520.42
493.79	10534.75
493.994	10352.48
494.197	10538.85
494.401	10506.08
494.605	10565.47
494.808	10762.08
495.012	10936.15
495.215	10919.77
495.419	10983.26
495.622	11079.51
495.825	11239.25
496.029	11249.49
496.232	11509.58
496.436	11390.8
496.639	11589.46
496.843	11646.8
497.046	11677.52
497.249	11661.13
497.453	11777.87
497.656	11892.55
497.859	12033.86
498.063	12050.25
498.266	12631.87
498.469	12427.07
498.673	12543.81
498.876	12703.55
499.079	12834.62
499.282	12769.09
499.485	13322.04
499.689	13227.83
499.892	13266.74
500.095	13442.87
500.298	13758.25
500.501	13549.36
500.705	14014.25
500.908	14137.13
501.111	14092.07
501.314	14239.53
501.517	14591.78
501.72	14782.24
501.923	14481.19
502.126	15062.81
502.329	15253.27
502.532	15374.1
502.735	15472.4
502.938	15845.13
503.141	16039.69
503.344	16000.78
503.547	16051.98
503.75	16389.89
503.953	16418.57
504.156	16660.23
504.359	16662.27
504.562	16774.91
504.765	17325.82
504.968	17184.51
505.17	17694.45
505.373	17641.2
505.576	17653.49
505.779	18120.43
505.982	17952.49
506.185	18548.45
506.387	18618.08
506.59	18912.99
506.793	19035.87
506.996	19185.37
507.198	19549.91
507.401	19281.63
507.604	19746.51
507.807	20330.19
508.009	20510.41
508.212	20313.8
508.415	20356.81
508.617	20856.51
508.82	20776.64
509.022	20872.9
509.225	21206.72
509.428	21331.64
509.63	21536.44
509.833	21792.44
510.035	22257.32
510.238	21954.22
510.44	22595.24
510.643	22761.12
510.845	23021.22
511.048	22648.49
511.25	23312.03
511.453	23516.83
511.655	24276.62
511.858	23924.37
512.06	24389.26
512.262	24530.57
512.465	24620.68
512.667	25040.51
512.87	25147.01
513.072	25443.96
513.274	26005.11
513.477	26228.34
513.679	26220.14
513.881	26435.18
514.084	26515.05
514.286	26814.05
514.488	26898.02
514.69	27471.45
514.893	27706.97
515.095	27647.58
515.297	28198.48
515.499	28528.2
515.701	28638.79
515.904	29058.63
516.106	28989
516.308	29363.78
516.51	29591.1
516.712	29521.47
516.914	30066.23
517.116	30406.19
517.318	30371.38
517.52	30668.33
517.722	30795.31
517.925	31395.36
518.127	31598.11
518.329	31956.5
518.531	31727.13
518.733	32472.59
518.935	32665.1
519.136	32517.65
519.338	32966.15
519.54	33320.45
519.742	33697.28
519.944	33410.56
520.146	34520.56
520.348	34102.78
520.55	34510.32
520.752	34735.6
520.954	35016.17
521.155	35137
521.357	35341.8
521.559	35816.93
521.761	36255.19
521.963	36058.59
522.164	36414.93
522.366	36515.28
522.568	36851.15
522.77	37158.34
522.971	37432.77
523.173	37266.89
523.375	37524.93
523.576	37541.32
523.778	37709.25
523.98	37998.01
524.181	38090.17
524.383	38593.97
524.584	38946.22
524.786	39099.82
524.988	38913.45
525.189	39255.46
525.391	39361.96
525.592	39574.95
525.794	39505.32
525.995	40097.18
526.197	40367.51
526.398	40508.82
526.6	40117.66
526.801	40400.28
527.003	40512.92
527.204	40584.6
527.406	40852.88
527.607	40662.42
527.808	41262.47
528.01	40945.04
528.211	41198.99
528.412	42059.13
528.614	41643.4
528.815	41610.63
529.016	42222.97
529.218	41743.75
529.419	41581.96
529.62	42120.57
529.822	41944.45
530.023	42268.03
530.224	42175.87
530.425	42024.32
530.626	41895.3
530.828	41872.77
531.029	42923.38
531.23	42003.84
531.431	41993.6
531.632	42517.88
531.833	42888.56
532.035	42642.81
532.236	42470.78
532.437	43191.66
532.638	42190.2
532.839	42845.55
533.04	42835.31
533.241	42096
533.442	43107.69
533.643	42827.12
533.844	43068.78
534.045	42546.55
534.246	42341.75
534.447	42579.32
534.648	42616.18
534.849	42853.75
535.05	42270.07
535.251	42853.75
535.451	42593.65
535.652	42933.62
535.853	42556.79
536.054	42837.36
536.255	42882.42
536.456	42247.55
536.657	42980.72
536.857	42775.92
537.058	42743.16
537.259	42687.86
537.46	42753.4
537.66	42509.69
537.861	42745.2
538.062	42564.98
538.263	42825.07
538.463	42104.19
538.664	42552.69
538.865	42863.99
539.065	42855.79
539.266	41768.32
539.466	42872.18
539.667	42452.34
539.868	43210.09
540.068	42767.73
540.269	42491.26
540.469	42716.53
540.67	42259.84
540.87	42018.17
541.071	42286.46
541.271	42143.1
541.472	42339.71
541.672	42071.42
541.873	42120.57
542.073	41706.88
542.274	42157.44
542.474	42132.86
542.675	42026.37
542.875	42583.41
543.075	42425.72
543.276	41844.1
543.476	42442.1
543.676	41913.73
543.877	42491.26
544.077	42292.6
544.277	42118.53
544.478	42167.68
544.678	42196.35
544.878	42186.11
545.078	42149.24
545.279	41946.5
545.479	41717.12
545.679	41893.25
545.879	42042.75
546.079	41928.06
546.28	41864.58
546.48	41825.67
546.68	42130.81
546.88	42225.02
547.08	42261.88
547.28	41903.49
547.48	41598.34
547.68	41915.78
547.88	41581.96
548.081	42216.83
548.281	41983.36
548.481	41913.73
548.681	42227.07
548.881	42081.66
549.081	41670.02
549.28	41543.05
549.48	41981.31
549.68	41762.18
549.88	42577.27
550.08	42001.79
550.28	41934.21
550.48	41618.82
550.68	42059.13
550.88	41657.73
551.08	42124.67
551.279	42032.51
551.479	41561.48
551.679	41930.11
551.879	41541
552.079	42063.23
552.278	41440.65
552.478	41819.52
552.678	41622.92
552.878	42057.09
553.077	41520.52
553.277	41026.96
553.477	42173.82
553.676	41510.28
553.876	41506.18
554.076	41833.86
554.275	41493.89
554.475	41143.69
554.674	41606.53
554.874	41807.23
555.074	41614.72
555.273	41545.09
555.473	41502.09
555.672	41301.39
555.872	41229.71
556.071	41432.46
556.271	41381.26
556.47	41358.73
556.67	41233.8
556.869	41086.35
557.068	41584.01
557.268	40842.64
557.467	41272.71
557.667	40955.28
557.866	41270.67
558.065	41360.78
558.265	40879.5
558.464	40881.55
558.663	41332.11
558.863	40543.64
559.062	41651.59
559.261	40799.63
559.461	41219.47
559.66	40639.89
559.859	41125.26
560.058	40232.35
560.258	40719.76
560.457	40291.74
560.656	41110.92
560.855	40529.3
561.054	40707.47
561.253	40510.87
561.453	40109.47
561.652	40547.73
561.851	40557.97
562.05	40150.43
562.249	39806.37
562.448	40193.43
562.647	40095.13
562.846	39923.1
563.045	39886.24
563.244	39624.1
563.443	39904.67
563.642	39472.55
563.841	39701.92
564.04	39828.9
564.239	40166.81
564.438	39810.46
564.637	39650.72
564.836	39501.22
565.035	39321
565.234	39314.86
565.432	39546.28
565.631	39017.9
565.83	39407.01
566.029	39146.92
566.228	39034.28
566.427	38802.86
566.625	38813.1
566.824	38501.81
567.023	38788.53
567.222	37961.15
567.42	38735.28
567.619	38450.61
567.818	38495.67
568.016	38423.99
568.215	38583.73
568.414	38307.26
568.612	38340.02
568.811	37991.87
569.01	37977.53
569.208	37858.75
569.407	38217.14
569.605	37733.82
569.804	38047.16
570.002	37203.4
570.201	37612.99
570.4	37615.04
570.598	37217.74
570.797	37131.72
570.995	37463.49
571.193	37180.87
571.392	37815.74
571.59	36871.63
571.789	37010.89
571.987	36789.71
572.186	37191.11
572.384	36738.51
572.582	36951.5
572.781	36597.2
572.979	36023.77
573.177	36523.47
573.376	36490.71
573.574	36298.2
573.772	36558.29
573.971	36367.83
574.169	36058.59
574.367	35718.62
574.565	36038.11
574.763	35810.78
574.962	35333.6
575.16	35292.65
575.358	35616.22
575.556	34995.69
575.754	35788.25
575.952	35030.51
576.151	35302.89
576.349	34584.05
576.547	35020.27
576.745	35091.94
576.943	34803.18
577.141	34731.5
577.339	35134.95
577.537	34811.37
577.735	34530.8
577.933	34530.8
578.131	34350.58
578.329	34313.72
578.527	33969.66
578.725	34006.52
578.923	33947.13
579.121	33981.95
579.319	33691.13
579.516	33854.97
579.714	33740.29
579.912	33361.41
580.11	33355.27
580.308	33199.62
580.506	33422.85
580.704	32798.22
580.901	33234.44
581.099	33543.68
581.297	32828.94
581.495	33162.76
581.692	33121.8
581.89	32499.22
582.088	33056.26
582.285	32247.32
582.483	32716.3
582.681	32560.66
582.878	32665.1
583.076	32224.79
583.274	32452.11
583.471	31938.07
583.669	32046.62
583.866	32042.52
584.064	31788.57
584.262	31766.04
584.459	31940.12
584.657	31503.9
584.854	31897.11
585.052	31190.56
585.249	31669.79
585.447	31442.46
585.644	30803.5
585.841	31481.38
586.039	31045.16
586.236	30656.04
586.434	30909.99
586.631	30809.64
586.828	30983.72
587.026	30907.94
587.223	30637.61
587.42	30369.33
587.618	30684.72
587.815	30354.99
588.012	30332.47
588.21	30031.41
588.407	30475.82
588.604	30103.09
588.801	29855.29
588.999	29886.01
589.196	29933.11
589.393	29799.99
589.59	29705.79
589.787	29750.84
589.984	29619.77
590.182	29253.19
590.379	29318.72
590.576	29046.34
590.773	29455.93
590.97	29197.89
591.167	29091.4
591.364	28935.75
591.561	28933.7
591.758	28595.79
591.955	28888.65
592.152	28956.23
592.349	28384.85
592.546	28786.25
592.743	28425.81
592.94	28012.12
593.137	28227.15
593.334	28227.15
593.531	27696.73
593.727	27864.66
593.924	28012.12
594.121	27852.38
594.318	28073.56
594.515	27723.35
594.712	27776.6
594.908	27846.23
595.105	27741.78
595.302	27203.17
595.499	27668.06
595.696	27512.41
595.892	27094.63
596.089	27459.16
596.286	27287.14
596.482	26908.26
596.679	27117.15
596.876	26732.14
597.072	26719.85
597.269	26846.82
597.466	26320.49
597.662	26619.5
597.859	26459.76
598.055	26656.36
598.252	26191.47
598.448	26398.32
598.645	25888.37
598.841	25767.54
599.038	26228.34
599.234	26099.31
599.431	25624.18
599.627	25955.96
599.824	26203.76
600.02	25849.46
600.217	25843.32
600.413	25466.49
600.609	25433.72
600.806	25415.29
601.002	25380.48
601.198	25345.66
601.395	25224.83
601.591	25501.31
601.787	25292.41
601.984	24788.61
602.18	25106.05
602.376	24888.96
602.572	24942.21
602.769	24761.99
602.965	24575.62
603.161	24583.82
603.357	24612.49
603.553	24227.47
603.75	24571.53
603.946	24110.74
604.142	24172.18
604.338	24067.73
604.534	24043.15
604.73	23961.23
604.926	23862.93
605.122	24360.59
605.318	23842.45
605.514	23662.23
605.71	23850.64
605.906	23367.32
606.102	23762.58
606.298	23641.75
606.494	23449.24
606.69	23682.71
606.886	23359.13
607.082	23113.38
607.278	23260.83
607.474	23000.74
607.67	23211.68
607.866	22754.98
608.062	23281.31
608.257	22797.99
608.453	23058.08
608.649	22912.67
608.845	23015.07
609.041	22886.05
609.236	22924.96
609.432	22701.73
609.628	22910.63
609.824	22838.95
610.019	22646.44
610.215	22761.12
610.411	22697.64
610.606	22451.88
610.802	22562.47
610.998	22288.04
611.193	22484.65
611.389	22441.64
611.584	22429.35
611.78	22044.34
611.976	22267.56
612.171	22070.96
612.367	22044.34
612.562	22017.71
612.758	22124.21
612.953	21786.29
613.149	21964.46
613.344	21499.58
613.539	22378.15
613.735	21821.11
613.93	21708.47
614.126	21853.87
614.321	21966.51
614.517	21821.11
614.712	21411.51
614.907	21849.78
615.103	21841.59
615.298	21307.07
615.493	21692.08
615.688	21350.07
615.884	21747.38
616.079	21190.33
616.274	21462.71
616.47	21411.51
616.665	21462.71
616.86	21231.29
617.055	21182.14
617.25	21112.51
617.445	21321.4
617.641	20633.29
617.836	20922.05
618.031	20688.58
618.226	20885.19
618.421	20754.12
618.616	20840.13
618.811	20401.86
619.006	20860.61
619.201	20432.58
619.396	20747.97
619.591	20018.89
619.786	20254.41
619.981	19969.74
620.176	20188.88
620.371	19908.3
620.566	19998.41
620.761	20113.1
620.956	19916.5
621.151	19715.8
621.346	19902.16
621.541	19527.38
621.735	19865.3
621.93	19295.96
622.125	19437.27
622.32	19304.15
622.515	19449.56
622.709	19056.35
622.904	18935.52
623.099	18667.24
623.294	18728.67
623.488	18724.58
623.683	18640.61
623.878	18333.42
624.072	18693.86
624.267	18018.03
624.462	18179.82
624.656	18233.07
624.851	18061.04
625.046	18102
625.24	18075.37
625.435	17778.42
625.629	17946.35
625.824	17659.63
626.018	17596.15
626.213	17243.9
626.407	17307.38
626.602	17233.66
626.796	17118.97
626.991	17112.83
627.185	16885.5
627.38	16801.54
627.574	16525.06
627.768	16551.68
627.963	16553.73
628.157	16432.9
628.352	16496.39
628.546	16090.89
628.74	16258.82
628.935	15984.4
629.129	16262.92
629.323	15916.81
629.517	15861.52
629.712	15859.47
629.906	15697.68
630.1	15611.67
630.294	15552.27
630.489	15337.24
630.683	15361.81
630.877	15095.58
631.071	15195.93
631.265	15179.54
631.459	15163.16
631.653	15105.82
631.848	15001.37
632.042	14751.52
632.236	14802.72
632.43	14753.57
632.624	14815.01
632.818	14458.66
633.012	14325.54
633.206	14358.31
633.4	14382.88
633.594	14153.51
633.788	14239.53
633.982	13948.72
634.176	14368.55
634.369	13795.12
634.563	13823.79
634.757	13588.27
634.951	13807.41
635.145	13766.45
635.339	13639.47
635.533	13723.44
635.726	13592.37
635.92	13354.8
636.114	13485.87
636.308	13121.34
636.501	13301.56
636.695	13082.42
636.889	12916.54
637.083	12859.2
637.276	12924.73
637.47	12771.13
637.664	12576.58
637.857	12599.1
638.051	12621.63
638.244	12531.52
638.438	12568.38
638.632	12334.92
638.825	12173.13
639.019	12398.4
639.212	12410.69
639.406	12306.24
639.599	12046.15
639.793	12138.31
639.986	11841.36
640.18	11925.32
640.373	11867.98
640.567	11722.57
640.76	11818.83
640.954	11489.1
641.147	11620.17
641.34	11634.51
641.534	11634.51
641.727	11411.28
641.92	11308.88
642.114	11366.23
642.307	11065.18
642.5	10989.4
642.694	10975.06
642.887	10835.8
643.08	11089.75
643.273	10983.26
643.467	10887
643.66	10714.97
643.853	10872.67
644.046	10786.65
644.239	10618.72
644.432	10465.12
644.626	10413.92
644.819	10270.56
645.012	10327.91
645.205	10547.04
645.398	10288.99
645.591	10061.67
645.784	10411.87
645.977	10119.01
646.17	10010.47
646.363	10153.83
646.556	10043.24
646.749	10043.24
646.942	9924.46
647.135	9789.29
647.328	9887.59
647.521	9719.66
647.714	9568.11
647.907	9437.04
648.099	9705.32
648.292	9447.28
648.485	9576.3
648.678	9052.02
648.871	9189.24
649.064	9232.24
649.256	9426.8
649.449	9158.52
649.642	9066.36
649.835	9009.01
650.027	9080.69
650.22	9025.4
650.413	8937.34
650.605	9072.5
650.798	8793.98
650.991	8638.33
651.183	8812.41
651.376	8578.94
651.568	8671.1
651.761	8828.79
651.954	8613.76
652.146	8429.44
652.339	8427.39
652.531	8456.06
652.724	8365.95
652.916	8288.13
653.109	8271.75
653.301	8404.86
653.494	8384.38
653.686	8009.61
653.879	8042.37
654.071	8165.25
654.263	7954.31
654.456	8173.44
654.648	7933.83
654.84	7927.69
655.033	7780.23
655.225	7950.21
655.417	7712.65
655.61	7626.64
655.802	7649.16
655.994	7667.59
656.186	7630.73
656.379	7575.44
656.571	7714.7
656.763	7518.09
656.955	7387.02
657.148	7561.1
657.34	7380.88
657.532	7407.5
657.724	7174.03
657.916	7214.99
658.108	7192.47
658.3	7235.47
658.492	7102.36
658.684	7137.17
658.876	7088.02
659.068	7012.24
659.26	6975.38
659.452	7026.58
659.644	6928.28
659.836	6913.94
660.028	7137.17
660.22	6766.49
660.412	6870.94
660.604	6715.29
660.796	6678.43
660.988	6608.8
661.18	6741.91
661.372	6559.64
661.563	6729.63
661.755	6539.16
661.947	6582.17
662.139	6354.85
662.331	6387.61
662.522	6287.26
662.714	6428.57
662.906	6158.24
663.097	6248.35
663.289	6317.98
663.481	6211.49
663.673	6262.69
663.864	6180.77
664.056	6078.37
664.247	6111.14
664.439	6086.56
664.631	6107.04
664.822	5994.4
665.014	6166.43
665.205	5840.81
665.397	6049.7
665.588	5939.11
665.78	5922.73
665.971	5904.29
666.163	5849
666.354	5789.61
666.546	5791.66
666.737	5748.65
666.929	5701.55
667.12	5732.26
667.311	5631.91
667.503	5627.82
667.694	5486.51
667.885	5552.04
668.077	5531.56
668.268	5593
668.459	5574.57
668.651	5418.93
668.842	5527.47
669.033	5416.88
669.224	5375.92
669.416	5330.86
669.607	5294
669.798	5171.12
669.989	5310.38
670.18	5240.75
670.371	5275.57
670.563	5240.75
670.754	5242.8
670.945	5124.02
671.136	5273.52
671.327	5150.64
671.518	5193.65
671.709	5158.83
671.9	5038
672.091	4949.94
672.282	5183.41
672.473	5011.38
672.664	4876.21
672.855	4900.79
673.046	4972.47
673.237	5013.43
673.428	4814.77
673.619	4732.86
673.809	4947.89
674	4734.9
674.191	4626.36
674.382	4769.72
674.573	4853.69
674.764	4775.86
674.954	4739
675.145	4757.43
675.336	4659.13
675.527	4644.79
675.717	4687.8
675.908	4675.51
676.099	4634.55
676.289	4601.79
676.48	4562.87
676.671	4462.52
676.861	4683.7
677.052	4450.24
677.243	4595.64
677.433	4540.35
677.624	4609.98
677.814	4521.91
678.005	4620.22
678.195	4573.11
678.386	4493.24
678.576	4396.99
678.767	4366.27
678.957	4444.09
679.148	4528.06
679.338	4478.91
679.529	4362.17
679.719	4267.97
679.909	4523.96
680.1	4360.13
680.29	4358.08
680.481	4204.48
680.671	4310.97
680.861	4216.77
681.052	4282.3
681.242	4308.93
681.432	4415.42
681.622	4272.06
681.813	4261.82
682.003	4345.79
682.193	4200.38
682.383	4161.47
682.573	4231.1
682.764	4227.01
682.954	4202.43
683.144	4229.06
683.334	4093.89
683.524	3989.44
683.714	4138.94
683.904	4132.8
684.094	4120.51
684.284	4085.7
684.474	4069.31
684.664	4011.97
684.854	4143.04
685.044	4032.45
685.234	4040.64
685.424	4061.12
685.614	3979.2
685.804	4118.47
685.994	4077.51
686.184	3946.44
686.374	4007.87
686.564	4026.31
686.753	3964.87
686.943	3893.19
687.133	3956.68
687.323	3833.8
687.513	3823.56
687.702	3815.37
687.892	3885
688.082	3835.85
688.272	3833.8
688.461	3790.79
688.651	3952.58
688.841	3741.64
689.03	3733.45
689.22	3725.26
689.41	3790.79
689.599	3672.01
689.789	3872.71
689.979	3649.48
690.168	3678.15
690.358	3743.69
690.547	3594.19
690.737	3741.64
690.926	3704.78
691.116	3434.44
691.305	3661.77
691.495	3626.95
691.684	3561.42
691.874	3612.62
692.063	3618.76
692.252	3547.08
692.442	3432.4
692.631	3524.55
692.82	3522.51
693.01	3454.92
693.199	3434.44
693.388	3504.07
693.578	3399.63
693.767	3407.82
693.956	3428.3
694.146	3413.96
694.335	3549.13
694.524	3260.37
694.713	3426.25
694.902	3270.61
695.092	3334.09
695.281	3393.48
695.47	3442.64
695.659	3276.75
695.848	3381.2
696.037	3368.91
696.226	3325.9
696.415	3495.88
696.604	3348.43
696.793	3352.52
696.982	3358.67
697.171	3276.75
697.36	3223.5
697.549	3311.57
697.738	3227.6
697.927	3293.13
698.116	3260.37
698.305	3094.48
698.494	3284.94
698.683	3344.33
698.872	3266.51
699.061	3254.22
699.25	3203.02
699.438	3305.42
699.627	3104.72
699.816	3166.16
700.005	3186.64
700.193	3192.78
700.382	3151.82
700.571	3194.83
700.76	3131.34
700.948	3155.92
701.137	3272.65
701.326	3299.28
701.514	3168.21
701.703	3160.02
701.892	3172.3
702.08	3145.68
702.269	3164.11
702.457	3182.54
702.646	3137.49
702.834	3211.22
703.023	3112.91
703.212	3139.54
703.4	2996.18
703.589	3225.55
703.777	3045.33
703.965	3102.67
704.154	3182.54
704.342	2975.7
704.531	3094.48
704.719	3102.67
704.907	3084.24
705.096	3020.75
705.284	3108.82
705.472	3102.67
705.661	2932.69
705.849	3112.91
706.037	3033.04
706.226	3018.71
706.414	2963.41
706.602	3026.9
706.79	3069.91
706.979	3008.47
707.167	2924.5
707.355	2918.36
707.543	2979.79
707.731	2963.41
707.919	2987.99
708.107	3000.27
708.296	3086.29
708.484	2910.16
708.672	3102.67
708.86	2957.27
709.048	2990.03
709.236	2832.34
709.424	2922.45
709.612	2944.98
709.8	2846.68
709.988	2930.64
710.176	2918.36
710.364	2836.44
710.551	2918.36
710.739	2947.03
710.927	2746.33
711.115	2930.64
711.303	2930.64
711.491	2850.77
711.679	2922.45
711.866	2922.45
712.054	2883.54
712.242	2701.27
712.43	2951.12
712.617	2906.07
712.805	2811.86
712.993	2803.67
713.181	2783.19
713.368	2811.86
713.556	2861.01
713.744	2727.89
713.931	2815.96
714.119	2619.35
714.306	2693.08
714.494	2818.01
714.682	2715.61
714.869	2742.23
715.057	2693.08
715.244	2705.37
715.432	2793.43
715.619	2834.39
715.807	2664.41
715.994	2613.21
716.182	2734.04
716.369	2668.5
716.556	2791.38
716.744	2590.68
716.931	2715.61
717.119	2643.93
717.306	2766.81
717.493	2701.27
717.681	2701.27
717.868	2527.19
718.055	2750.42
718.242	2654.17
718.43	2523.1
718.617	2588.63
718.804	2742.23
718.991	2578.39
719.179	2727.89
719.366	2668.5
719.553	2656.22
719.74	2758.61
719.927	2627.54
720.114	2643.93
720.301	2627.54
720.488	2572.25
720.676	2566.1
720.863	2553.82
721.05	2492.38
721.237	2406.36
721.424	2580.44
721.611	2586.58
721.798	2500.57
721.985	2471.9
722.172	2420.7
722.358	2572.25
722.545	2496.47
722.732	2523.1
722.919	2539.48
723.106	2389.98
723.293	2389.98
723.48	2473.95
723.667	2439.13
723.853	2404.32
724.04	2484.19
724.227	2527.19
724.414	2365.4
724.6	2547.67
724.787	2424.8
724.974	2463.71
725.161	2484.19
725.347	2420.7
725.534	2377.69
725.72	2465.75
725.907	2420.7
726.094	2357.21
726.28	2455.51
726.467	2263.01
726.653	2484.19
726.84	2414.56
727.027	2480.09
727.213	2332.64
727.4	2449.37
727.586	2398.17
727.773	2449.37
727.959	2365.4
728.145	2381.79
728.332	2414.56
728.518	2340.83
728.705	2340.83
728.891	2359.26
729.077	2344.92
729.264	2416.6
729.45	2279.39
729.636	2291.68
729.823	2314.2
730.009	2318.3
730.195	2435.03
730.382	2324.44
730.568	2242.53
730.754	2377.69
730.94	2287.58
731.126	2308.06
731.313	2207.71
731.499	2185.18
731.685	2236.38
731.871	2158.56
732.057	2207.71
732.243	2271.2
732.429	2228.19
732.615	2205.66
732.801	2207.71
732.987	2185.18
733.173	2349.02
733.359	2303.96
733.545	2211.81
733.731	2220
733.917	2357.21
734.103	2138.08
734.289	2234.33
734.475	2275.29
734.661	2201.57
734.847	2209.76
735.033	2140.13
735.219	2131.94
735.404	2187.23
735.59	2144.22
735.776	2099.17
735.962	2082.78
736.148	2201.57
736.333	2248.67
736.519	2217.95
736.705	2197.47
736.89	2103.26
737.076	2125.79
737.262	2023.39
737.447	2115.55
737.633	2025.44
737.819	2185.18
738.004	1998.82
738.19	2138.08
738.375	2103.26
738.561	2168.8
738.747	2039.78
738.932	2136.03
739.118	2152.42
739.303	2115.55
739.489	2072.54
739.674	2072.54
739.859	2062.3
740.045	2064.35
740.23	2050.02
740.416	2105.31
740.601	2093.02
740.786	1943.52
740.972	1947.62
741.157	2025.44
741.342	2125.79
741.528	1918.95
741.713	2041.82
741.898	1972.19
742.084	1898.47
742.269	1949.67
742.454	1923.04
742.639	1863.65
742.824	1990.63
743.01	1976.29
743.195	1949.67
743.38	1861.6
743.565	1849.32
743.75	1877.99
743.935	1826.79
744.12	1961.95
744.305	1693.67
744.49	1779.68
744.675	1794.02
744.86	1869.8
745.045	1812.45
745.23	1857.51
745.415	1742.82
745.6	1910.75
745.785	1710.05
745.97	1873.89
746.155	1726.44
746.34	1759.21
746.525	1781.73
746.71	1742.82
746.895	1775.59
747.079	1705.96
747.264	1671.14
747.449	1705.96
747.634	1742.82
747.819	1605.61
748.003	1693.67
748.188	1654.76
748.373	1648.61
748.557	1601.51
748.742	1587.18
748.927	1621.99
749.111	1662.95
749.296	1621.99
749.481	1677.29
749.665	1628.14
749.85	1607.66
750.034	1529.83
750.219	1691.62
750.404	1507.3
750.588	1474.54
750.773	1564.65
750.957	1468.39
751.141	1525.74
751.326	1523.69
751.51	1456.11
751.695	1439.72
751.879	1423.34
752.064	1513.45
752.248	1363.95
752.432	1452.01
752.617	1466.35
752.801	1499.11
752.985	1398.76
753.17	1392.62
753.354	1337.32
753.538	1349.61
753.722	1382.38
753.907	1357.8
754.091	1310.7
754.275	1351.66
754.459	1288.17
754.643	1382.38
754.828	1292.27
755.012	1316.84
755.196	1228.78
755.38	1255.4
755.564	1302.51
755.748	1279.98
755.932	1310.7
756.116	1298.41
756.3	1224.69
756.484	1181.68
756.668	1165.29
756.852	1206.25
757.036	1198.06
757.22	1185.77
757.404	1183.73
757.588	1097.71
757.772	1204.21
757.956	1236.97
758.14	1284.08
758.323	1146.86
758.507	1140.72
758.691	1222.64
758.875	1048.56
759.059	1138.67
759.242	1071.09
759.426	1093.62
759.61	1081.33
759.794	1054.7
759.977	1056.75
760.161	1128.43
760.345	1001.46
760.528	1062.9
760.712	968.69
760.895	1079.28
761.079	1073.14
761.263	993.26
761.446	927.73
761.63	1011.7
761.813	993.26
761.997	952.31
762.18	983.02
762.364	948.21
762.547	968.69
762.731	909.3
762.914	991.22
763.098	890.87
763.281	931.83
763.464	987.12
763.648	907.25
763.831	909.3
764.015	944.11
764.198	911.35
764.381	931.83
764.564	935.92
764.748	894.96
764.931	958.45
765.114	833.52
765.297	894.96
765.481	874.48
765.664	923.63
765.847	901.11
766.03	911.35
766.213	821.24
766.397	907.25
766.58	874.48
766.763	866.29
766.946	776.18
767.129	919.54
767.312	833.52
767.495	821.24
767.678	843.76
767.861	835.57
768.044	794.61
768.227	821.24
768.41	808.95
768.593	755.7
768.776	880.63
768.959	817.14
769.142	794.61
769.324	823.28
769.507	792.56
769.69	817.14
769.873	827.38
770.056	845.81
770.239	815.09
770.421	854
770.604	862.19
770.787	784.37
770.97	819.19
771.152	782.32
771.335	786.42
771.518	772.08
771.7	802.8
771.883	802.8
772.066	745.46
772.248	772.08
772.431	759.8
772.613	780.28
772.796	796.66
772.978	737.27
773.161	776.18
773.343	733.17
773.526	661.49
773.708	727.03
773.891	679.93
774.073	671.73
774.256	653.3
774.438	743.41
774.621	684.02
774.803	679.93
774.985	612.34
775.168	749.56
775.35	630.77
775.532	667.64
775.715	645.11
775.897	628.73
776.079	653.3
776.261	712.69
776.444	628.73
776.626	622.58
776.808	647.16
776.99	663.54
777.173	620.53
777.355	589.81
777.537	628.73
777.719	661.49
777.901	534.52
778.083	585.72
778.265	563.19
778.447	591.86
778.629	563.19
778.811	612.34
778.993	555
779.175	499.7
779.357	555
779.539	516.09
779.721	489.46
779.903	589.81
780.085	563.19
780.267	563.19
780.449	589.81
780.631	522.23
780.812	565.24
780.994	555
781.176	538.62
781.358	456.7
781.54	481.27
781.721	491.51
781.903	538.62
782.085	540.66
782.267	509.94
782.448	491.51
782.63	534.52
782.812	501.75
782.993	423.93
783.175	466.94
783.357	481.27
783.538	464.89
783.72	415.74
783.901	524.28
784.083	456.7
784.264	520.18
784.446	475.13
784.627	350.2
784.809	473.08
784.99	417.79
785.172	468.98
785.353	378.87
785.535	346.11
785.716	432.12
785.897	419.83
786.079	391.16
786.26	432.12
786.441	460.79
786.623	403.45
786.804	456.7
786.985	296.96
787.167	434.17
787.348	442.36
787.529	360.44
787.71	458.74
787.891	319.48
788.073	358.39
788.254	387.07
788.435	421.88
788.616	376.83
788.797	321.53
788.978	428.03
789.159	440.31
789.34	376.83
789.522	350.2
789.703	415.74
789.884	399.35
790.065	423.93
790.246	337.91
790.427	370.68
790.607	421.88
790.788	317.44
790.969	315.39
791.15	239.61
791.331	278.52
791.512	376.83
791.693	227.32
791.874	344.06
792.054	442.36
792.235	387.07
792.416	305.15
792.597	264.19
792.778	358.39
792.958	296.96
793.139	331.77
793.32	288.76
793.5	280.57
793.681	376.83
793.862	272.38
794.042	309.24
794.223	292.86
794.404	309.24
794.584	227.32
794.765	288.76
794.945	342.01
795.126	319.48
795.306	227.32
795.487	346.11
795.667	294.91
795.848	239.61
796.028	221.18
796.209	243.71
796.389	288.76
796.57	235.52
796.75	204.8
796.93	247.8
797.111	178.17
797.291	264.19
797.471	227.32
797.652	241.66
797.832	239.61
798.012	258.04
798.192	219.13
798.373	286.72
798.553	227.32
798.733	247.8
798.913	212.99
799.093	266.24
799.274	284.67
799.454	292.86
799.634	157.69
799.814	251.9
799.994	235.52
800.174	249.85
800.354	276.48
800.534	178.17
800.714	305.15
800.894	210.94
801.074	243.71
801.254	196.6
801.434	288.76
801.614	221.18
801.794	196.6
801.974	817.14
802.154	243.71
802.334	260.09
802.514	161.79
802.693	239.61
802.873	253.95
803.053	270.33
803.233	227.32
803.413	227.32
803.592	202.75
803.772	204.8
803.952	174.08
804.131	174.08
804.311	319.48
804.491	251.9
804.67	141.31
804.85	196.6
805.03	206.84
805.209	198.65
805.389	276.48
805.568	245.76
805.748	153.6
805.928	186.37
806.107	194.56
806.287	237.56
806.466	276.48
806.646	161.79
806.825	182.27
807.004	210.94
807.184	178.17
807.363	249.85
807.543	292.86
807.722	186.37
807.901	227.32
808.081	221.18
808.26	118.78
808.439	215.04
808.619	137.21
808.798	178.17
808.977	186.37
809.156	231.42
809.336	237.56
809.515	174.08
809.694	231.42
809.873	153.6
810.052	129.02
810.231	202.75
810.411	163.84
810.59	243.71
810.769	124.93
810.948	217.08
811.127	120.83
811.306	155.65
811.485	233.47
811.664	153.6
811.843	108.54
812.022	98.3
812.201	169.98
812.38	143.36
812.559	198.65
812.737	174.08
812.916	141.31
813.095	98.3
813.274	139.26
813.453	143.36
813.632	174.08
813.811	100.35
813.989	145.41
814.168	184.32
814.347	104.45
814.526	215.04
814.704	124.93
814.883	204.8
815.062	165.89
815.24	206.84
815.419	36.86
815.598	153.6
815.776	108.54
815.955	112.64
816.133	112.64
816.312	110.59
816.49	110.59
816.669	147.45
816.847	108.54
817.026	155.65
817.204	81.92
817.383	104.45
817.561	92.16
817.74	98.3
817.918	75.77
818.097	104.45
818.275	100.35
818.453	155.65
818.632	65.53
818.81	124.93
818.988	124.93
819.167	135.17
819.345	194.56
819.523	104.45
819.701	137.21
819.879	137.21
820.058	92.16
820.236	88.06
820.414	98.3
820.592	79.87
820.77	161.79
820.948	137.21
821.127	104.45
821.305	65.53
821.483	135.17
821.661	149.5
821.839	122.88
822.017	145.41
822.195	141.31
822.373	114.69
822.551	47.1
822.729	73.73
822.907	63.49
823.085	153.6
823.262	75.77
823.44	120.83
823.618	106.49
823.796	104.45
823.974	55.3
824.152	122.88
824.329	129.02
824.507	184.32
824.685	94.21
824.863	102.4
825.04	122.88
825.218	153.6
825.396	108.54
825.574	126.97
825.751	116.73
825.929	98.3
826.107	40.96
826.284	63.49
826.462	112.64
826.639	55.3
826.817	63.49
826.994	104.45
827.172	65.53
827.349	155.65
827.527	116.73
827.704	108.54
827.882	100.35
828.059	61.44
828.237	81.92
828.414	120.83
828.591	-43.01
828.769	92.16
828.946	88.06
829.124	122.88
829.301	129.02
829.478	145.41
829.655	120.83
829.833	71.68
830.01	65.53
830.187	108.54
830.364	14.34
830.542	32.77
830.719	81.92
830.896	131.07
831.073	106.49
831.25	149.5
831.427	104.45
831.604	98.3
831.782	71.68
831.959	88.06
832.136	92.16
832.313	139.26
832.49	104.45
832.667	81.92
832.844	18.43
833.021	159.74
833.198	92.16
833.374	75.77
833.551	147.45
833.728	75.77
833.905	79.87
834.082	104.45
834.259	73.73
834.436	98.3
834.612	65.53
834.789	43.01
834.966	120.83
835.143	112.64
835.319	79.87
835.496	90.11
835.673	51.2
835.85	22.53
836.026	94.21
836.203	114.69
836.38	59.39
836.556	120.83
836.733	51.2
836.909	98.3
837.086	16.38
837.262	6.14
837.439	55.3
837.616	98.3
837.792	30.72
837.968	79.87
838.145	-51.2
838.321	-10.24
838.498	57.34
838.674	153.6
838.851	88.06
839.027	20.48
839.203	22.53
839.38	79.87
839.556	98.3
839.732	98.3
839.909	63.49
840.085	137.21
840.261	45.06
840.437	10.24
840.614	-14.34
840.79	63.49
840.966	88.06
841.142	106.49
841.318	22.53
841.494	79.87
841.671	86.01
841.847	108.54
842.023	90.11
842.199	108.54
842.375	-2.05
842.551	22.53
842.727	133.12
842.903	32.77
843.079	26.62
843.255	49.15
843.431	16.38
843.607	38.91
843.783	18.43
843.959	-6.14
844.134	47.1
844.31	122.88
844.486	-18.43
844.662	43.01
844.838	73.73
845.013	137.21
845.189	79.87
845.365	28.67
845.541	118.78
845.716	73.73
845.892	88.06
846.068	104.45
846.244	77.82
846.419	55.3
846.595	86.01
846.77	65.53
846.946	59.39
847.122	61.44
847.297	88.06
847.473	71.68
847.648	6.14
847.824	106.49
847.999	45.06
848.175	92.16
848.35	57.34
848.526	157.69
848.701	57.34
848.876	34.82
849.052	6.14
849.227	106.49
849.403	65.53
849.578	59.39
849.753	-2.05
849.929	38.91
850.104	30.72
850.279	8.19
850.454	71.68
850.63	47.1
850.805	6.14
850.98	38.91
851.155	77.82
851.33	73.73
851.505	-22.53
851.681	53.25
851.856	14.34
852.031	114.69
852.206	67.58
852.381	22.53
852.556	-2.05
852.731	57.34
852.906	65.53
853.081	16.38
853.256	26.62
853.431	92.16
853.606	16.38
853.781	63.49
853.956	-96.25
854.131	71.68
854.305	30.72
854.48	49.15
854.655	-45.06
854.83	75.77
855.005	-12.29
855.18	137.21
855.354	59.39
855.529	8.19
855.704	18.43
855.879	131.07
856.053	-6.14
856.228	26.62
856.403	14.34
856.577	106.49
856.752	8.19
856.926	28.67
857.101	18.43
857.276	10.24
857.45	71.68
857.625	73.73
857.799	20.48
857.974	2.05
858.148	38.91
858.323	71.68
858.497	53.25
858.672	18.43
858.846	-6.14
859.02	-18.43
859.195	81.92
859.369	-28.67
859.543	10.24
859.718	96.25
859.892	67.58
860.066	65.53
860.241	-4.1
860.415	8.19
860.589	79.87
860.763	22.53
860.938	-30.72
861.112	24.58
861.286	83.97
861.46	6.14
861.634	26.62
861.808	96.25
861.982	-6.14
862.157	96.25
862.331	24.58
862.505	-22.53
862.679	-16.38
862.853	-8.19
863.027	-6.14
863.201	90.11
863.375	79.87
863.549	34.82
863.722	73.73
863.896	75.77
864.07	47.1
864.244	47.1
864.418	63.49
864.592	51.2
864.766	-16.38
864.939	4.1
865.113	8.19
865.287	157.69
865.461	18.43
865.634	26.62
865.808	34.82
865.982	-2.05
866.156	22.53
866.329	30.72
866.503	108.54
866.676	8.19
866.85	-10.24
867.024	81.92
867.197	16.38
867.371	24.58
867.544	49.15
867.718	22.53
867.891	40.96
868.065	36.86
868.238	83.97
868.412	71.68
868.585	-10.24
868.759	49.15
868.932	-10.24
869.105	8.19
869.279	49.15
869.452	-16.38
869.625	108.54
869.799	30.72
869.972	-16.38
870.145	51.2
870.319	16.38
870.492	38.91
870.665	63.49
870.838	59.39
871.011	20.48
871.185	14.34
871.358	4.1
871.531	67.58
871.704	-2.05
871.877	47.1
872.05	-26.62
872.223	14.34
872.396	-10.24
872.569	43.01
872.742	65.53
872.915	45.06
873.088	-20.48
873.261	-34.82
873.434	122.88
873.607	-2.05
873.78	55.3
873.953	51.2
874.126	63.49
874.299	6.14
874.471	43.01
874.644	49.15
874.817	34.82
874.99	71.68
875.163	-12.29
875.335	96.25
875.508	71.68
875.681	22.53
875.853	51.2
876.026	-18.43
876.199	43.01
876.371	57.34
876.544	-2.05
876.717	61.44
876.889	-22.53
877.062	81.92
877.234	-2.05
877.407	63.49
877.579	-18.43
877.752	-2.05
877.924	-18.43
878.097	-8.19
878.269	34.82
878.442	61.44
878.614	16.38
878.786	-0
878.959	47.1
879.131	43.01
879.303	-10.24
879.476	98.3
879.648	55.3
879.82	24.58
879.993	-67.58
880.165	32.77
880.337	-16.38
880.509	38.91
880.681	2.05
880.854	-53.25
881.026	-14.34
881.198	112.64
881.37	14.34
881.542	38.91
881.714	43.01
881.886	59.39
882.058	-30.72
882.23	24.58
882.402	-10.24
882.574	47.1
882.746	-26.62
882.918	49.15
883.09	32.77
883.262	-18.43
883.434	53.25
883.606	-38.91
883.778	-40.96
883.95	100.35
884.122	26.62
884.293	79.87
884.465	12.29
884.637	14.34
884.809	30.72
884.98	18.43
885.152	-0
885.324	26.62
885.496	-12.29
885.667	4.1
885.839	-0
886.011	71.68
886.182	-49.15
886.354	-8.19
886.525	28.67
886.697	-43.01
886.869	30.72
887.04	26.62
887.212	100.35
887.383	30.72
887.555	-26.62
887.726	55.3
887.897	10.24
888.069	8.19
888.24	53.25
888.412	-28.67
888.583	32.77
888.754	-28.67
888.926	-8.19
889.097	8.19
889.268	-26.62
889.44	38.91
889.611	8.19
889.782	71.68
889.953	-10.24
890.125	83.97
890.296	-30.72
890.467	18.43
890.638	-0
890.809	18.43
890.98	16.38
891.151	49.15
891.323	28.67
891.494	-32.77
891.665	-2.05
891.836	6.14
892.007	-55.3
892.178	38.91
892.349	22.53
892.52	-8.19
892.691	4.1
892.862	88.06
893.032	-47.1
893.203	-14.34
893.374	65.53
893.545	61.44
893.716	-40.96
893.887	47.1
894.057	-18.43
894.228	92.16
894.399	-30.72
894.57	71.68
894.74	34.82
894.911	40.96
895.082	22.53
895.253	10.24
895.423	-12.29
895.594	22.53
895.764	-8.19
895.935	-18.43
896.106	-10.24
896.276	2.05
896.447	-63.49
896.617	24.58
896.788	47.1
896.958	63.49
897.129	36.86
897.299	-2.05
897.47	-40.96
897.64	24.58
897.81	65.53
897.981	96.25
898.151	38.91
898.322	-8.19
898.492	65.53
898.662	26.62
898.832	55.3
899.003	40.96
899.173	26.62
899.343	6.14
899.513	-38.91
