Data from USB4F104151__303__14-24-07-969.txt Node

Date: Thu Mar 13 14:24:07 EDT 2025
User: louis
Spectrometer: USB4F10415
Trigger mode: 4
Integration Time (sec): 2.000000E-2
Scans to average: 1
Electric dark correction enabled: true
Nonlinearity correction enabled: false
Boxcar width: 0
XAxis mode: Wavelengths
Number of Pixels in Spectrum: 3648
>>>>>Begin Spectral Data<<<<<
178.204	-103.59
178.424	-103.59
178.644	-103.59
178.864	-72.87
179.084	-72.87
179.304	-62.63
179.524	-48.3
179.744	-13.48
179.964	13.14
180.184	45.91
180.404	70.48
180.624	19.29
180.844	4.95
181.064	-23.72
181.283	9.05
181.503	-15.53
181.723	0.85
181.943	-38.06
182.163	19.29
182.383	-11.43
182.602	17.24
182.822	72.53
183.042	31.57
183.262	-40.11
183.482	-21.67
183.701	9.05
183.921	50
184.141	25.43
184.361	62.29
184.58	9.05
184.8	33.62
185.02	4.95
185.239	72.53
185.459	23.38
185.679	-5.29
185.898	-23.72
186.118	45.91
186.338	76.63
186.557	-23.72
186.777	-62.63
186.997	11.09
187.216	-50.35
187.436	17.24
187.655	86.87
187.875	-7.34
188.095	109.4
188.314	90.96
188.534	68.44
188.753	-46.25
188.973	50
189.192	13.14
189.412	31.57
189.631	-5.29
189.851	60.24
190.07	50
190.29	-66.73
190.509	-3.24
190.729	27.48
190.948	56.15
191.168	158.55
191.387	37.72
191.607	25.43
191.826	29.52
192.045	-68.78
192.265	11.09
192.484	-36.01
192.704	25.43
192.923	-40.11
193.142	27.48
193.362	25.43
193.581	-5.29
193.8	45.91
194.02	86.87
194.239	17.24
194.458	50
194.678	54.1
194.897	0.85
195.116	19.29
195.335	72.53
195.555	93.01
195.774	-21.67
195.993	43.86
196.212	21.33
196.432	27.48
196.651	-19.63
196.87	43.86
197.089	127.83
197.308	31.57
197.528	66.39
197.747	-60.59
197.966	33.62
198.185	68.44
198.404	-29.87
198.623	25.43
198.842	99.16
199.062	43.86
199.281	4.95
199.5	-38.06
199.719	33.62
199.938	7
200.157	99.16
200.376	-7.34
200.595	41.81
200.814	66.39
201.033	37.72
201.252	25.43
201.471	50
201.69	43.86
201.909	27.48
202.128	45.91
202.347	47.96
202.566	-1.19
202.785	-21.67
203.004	-13.48
203.223	131.92
203.442	56.15
203.661	0.85
203.879	-15.53
204.098	-7.34
204.317	-19.63
204.536	39.76
204.755	-7.34
204.974	33.62
205.193	146.26
205.411	111.44
205.63	52.05
205.849	-19.63
206.068	0.85
206.287	66.39
206.505	-15.53
206.724	17.24
206.943	-11.43
207.162	33.62
207.381	29.52
207.599	-33.96
207.818	54.1
208.037	-52.39
208.255	25.43
208.474	45.91
208.693	131.92
208.911	-23.72
209.13	-11.43
209.349	9.05
209.567	37.72
209.786	-9.39
210.005	25.43
210.223	25.43
210.442	9.05
210.661	37.72
210.879	19.29
211.098	9.05
211.316	62.29
211.535	60.24
211.753	0.85
211.972	35.67
212.191	-11.43
212.409	56.15
212.628	-13.48
212.846	76.63
213.065	93.01
213.283	2.9
213.502	41.81
213.72	58.2
213.938	82.77
214.157	0.85
214.375	4.95
214.594	-27.82
214.812	45.91
215.031	113.49
215.249	56.15
215.467	95.06
215.686	-40.11
215.904	45.91
216.122	9.05
216.341	-7.34
216.559	0.85
216.778	84.82
216.996	-11.43
217.214	41.81
217.432	-5.29
217.651	82.77
217.869	35.67
218.087	-7.34
218.306	13.14
218.524	37.72
218.742	-7.34
218.96	82.77
219.179	21.33
219.397	-54.44
219.615	117.59
219.833	-31.91
220.051	23.38
220.27	58.2
220.488	52.05
220.706	-13.48
220.924	21.33
221.142	58.2
221.36	74.58
221.578	29.52
221.796	21.33
222.015	17.24
222.233	-21.67
222.451	109.4
222.669	-5.29
222.887	-27.82
223.105	-38.06
223.323	90.96
223.541	-52.39
223.759	2.9
223.977	33.62
224.195	52.05
224.413	90.96
224.631	41.81
224.849	70.48
225.067	2.9
225.285	-19.63
225.503	23.38
225.721	-79.02
225.939	-5.29
226.157	86.87
226.375	95.06
226.592	-97.45
226.81	45.91
227.028	62.29
227.246	78.68
227.464	39.76
227.682	66.39
227.9	15.19
228.117	50
228.335	-7.34
228.553	25.43
228.771	93.01
228.989	-15.53
229.206	19.29
229.424	74.58
229.642	17.24
229.86	-21.67
230.077	33.62
230.295	-13.48
230.513	76.63
230.731	58.2
230.948	25.43
231.166	19.29
231.384	-17.58
231.601	41.81
231.819	4.95
232.037	11.09
232.254	54.1
232.472	39.76
232.689	41.81
232.907	-23.72
233.125	11.09
233.342	25.43
233.56	17.24
233.777	41.81
233.995	-13.48
234.213	74.58
234.43	-72.87
234.648	43.86
234.865	19.29
235.083	13.14
235.3	17.24
235.518	39.76
235.735	74.58
235.953	115.54
236.17	29.52
236.388	27.48
236.605	90.96
236.822	52.05
237.04	9.05
237.257	41.81
237.475	47.96
237.692	54.1
237.909	-27.82
238.127	-23.72
238.344	60.24
238.562	68.44
238.779	-17.58
238.996	-40.11
239.214	58.2
239.431	86.87
239.648	17.24
239.865	-15.53
240.083	123.73
240.3	35.67
240.517	39.76
240.735	9.05
240.952	37.72
241.169	9.05
241.386	66.39
241.603	47.96
241.821	31.57
242.038	27.48
242.255	37.72
242.472	31.57
242.689	19.29
242.907	-7.34
243.124	13.14
243.341	-29.87
243.558	41.81
243.775	-15.53
243.992	-21.67
244.209	27.48
244.426	64.34
244.643	66.39
244.86	-3.24
245.078	0.85
245.295	84.82
245.512	52.05
245.729	33.62
245.946	17.24
246.163	105.3
246.38	-5.29
246.597	68.44
246.814	17.24
247.031	-7.34
247.248	41.81
247.464	54.1
247.681	-21.67
247.898	-29.87
248.115	-21.67
248.332	9.05
248.549	68.44
248.766	-21.67
248.983	31.57
249.2	0.85
249.417	13.14
249.633	25.43
249.85	82.77
250.067	27.48
250.284	41.81
250.501	23.38
250.717	60.24
250.934	25.43
251.151	25.43
251.368	68.44
251.585	95.06
251.801	23.38
252.018	54.1
252.235	74.58
252.451	-38.06
252.668	68.44
252.885	95.06
253.102	74.58
253.318	54.1
253.535	33.62
253.752	13.14
253.968	17.24
254.185	9.05
254.401	25.43
254.618	33.62
254.835	-7.34
255.051	43.86
255.268	0.85
255.484	60.24
255.701	0.85
255.917	60.24
256.134	-23.72
256.351	58.2
256.567	45.91
256.784	35.67
257	-23.72
257.217	27.48
257.433	29.52
257.65	33.62
257.866	-3.24
258.082	-5.29
258.299	-19.63
258.515	27.48
258.732	0.85
258.948	-40.11
259.165	25.43
259.381	-23.72
259.597	43.86
259.814	0.85
260.03	29.52
260.246	-13.48
260.463	15.19
260.679	78.68
260.895	19.29
261.112	52.05
261.328	82.77
261.544	9.05
261.761	27.48
261.977	33.62
262.193	-7.34
262.409	-44.2
262.626	39.76
262.842	33.62
263.058	21.33
263.274	0.85
263.49	19.29
263.707	52.05
263.923	-21.67
264.139	33.62
264.355	31.57
264.571	2.9
264.787	-27.82
265.004	58.2
265.22	-1.19
265.436	41.81
265.652	17.24
265.868	50
266.084	29.52
266.3	37.72
266.516	-3.24
266.732	-5.29
266.948	60.24
267.164	56.15
267.38	50
267.596	78.68
267.812	101.2
268.028	-7.34
268.244	-29.87
268.46	33.62
268.676	9.05
268.892	37.72
269.108	4.95
269.324	9.05
269.54	0.85
269.756	33.62
269.972	54.1
270.188	2.9
270.403	52.05
270.619	123.73
270.835	66.39
271.051	62.29
271.267	19.29
271.483	-11.43
271.698	-23.72
271.914	-19.63
272.13	41.81
272.346	35.67
272.562	-15.53
272.777	-13.48
272.993	9.05
273.209	17.24
273.425	54.1
273.64	-1.19
273.856	90.96
274.072	9.05
274.287	2.9
274.503	78.68
274.719	58.2
274.934	-52.39
275.15	-13.48
275.366	52.05
275.581	-3.24
275.797	-13.48
276.012	9.05
276.228	-13.48
276.444	25.43
276.659	117.59
276.875	7
277.09	-5.29
277.306	11.09
277.521	19.29
277.737	-23.72
277.952	90.96
278.168	80.72
278.383	43.86
278.599	-7.34
278.814	78.68
279.03	19.29
279.245	29.52
279.461	-7.34
279.676	76.63
279.892	29.52
280.107	25.43
280.322	-50.35
280.538	19.29
280.753	-19.63
280.969	11.09
281.184	0.85
281.399	93.01
281.615	-7.34
281.83	21.33
282.045	-19.63
282.26	25.43
282.476	11.09
282.691	58.2
282.906	13.14
283.122	-7.34
283.337	60.24
283.552	74.58
283.767	-15.53
283.983	25.43
284.198	93.01
284.413	-3.24
284.628	-7.34
284.843	64.34
285.058	82.77
285.274	-19.63
285.489	-23.72
285.704	117.59
285.919	-5.29
286.134	2.9
286.349	60.24
286.564	-56.49
286.779	29.52
286.995	11.09
287.21	82.77
287.425	17.24
287.64	-15.53
287.855	13.14
288.07	-60.59
288.285	0.85
288.5	86.87
288.715	-19.63
288.93	-7.34
289.145	-7.34
289.36	84.82
289.575	-3.24
289.79	56.15
290.004	56.15
290.219	-36.01
290.434	4.95
290.649	37.72
290.864	54.1
291.079	52.05
291.294	33.62
291.509	70.48
291.724	19.29
291.938	-21.67
292.153	19.29
292.368	4.95
292.583	97.11
292.798	37.72
293.012	-5.29
293.227	4.95
293.442	-33.96
293.657	41.81
293.871	115.54
294.086	68.44
294.301	50
294.516	111.44
294.73	-29.87
294.945	-11.43
295.16	-11.43
295.374	60.24
295.589	33.62
295.804	70.48
296.018	-29.87
296.233	52.05
296.447	29.52
296.662	-19.63
296.877	41.81
297.091	54.1
297.306	-1.19
297.52	-33.96
297.735	80.72
297.949	52.05
298.164	-15.53
298.378	60.24
298.593	17.24
298.807	-21.67
299.022	17.24
299.236	82.77
299.451	25.43
299.665	17.24
299.88	17.24
300.094	13.14
300.309	19.29
300.523	13.14
300.737	-15.53
300.952	74.58
301.166	88.92
301.381	4.95
301.595	70.48
301.809	54.1
302.024	17.24
302.238	27.48
302.452	156.5
302.667	17.24
302.881	90.96
303.095	78.68
303.309	50
303.524	2.9
303.738	-38.06
303.952	-40.11
304.166	9.05
304.381	-44.2
304.595	11.09
304.809	-19.63
305.023	13.14
305.237	62.29
305.452	-7.34
305.666	58.2
305.88	45.91
306.094	27.48
306.308	-5.29
306.522	15.19
306.736	-15.53
306.95	54.1
307.164	-15.53
307.379	13.14
307.593	107.35
307.807	62.29
308.021	19.29
308.235	21.33
308.449	21.33
308.663	76.63
308.877	33.62
309.091	4.95
309.305	82.77
309.519	33.62
309.733	82.77
309.947	17.24
310.161	50
310.374	-7.34
310.588	58.2
310.802	-1.19
311.016	80.72
311.23	33.62
311.444	82.77
311.658	-3.24
311.872	183.12
312.085	58.2
312.299	0.85
312.513	31.57
312.727	37.72
312.941	-33.96
313.154	-17.58
313.368	13.14
313.582	2.9
313.796	62.29
314.009	11.09
314.223	41.81
314.437	-29.87
314.651	58.2
314.864	52.05
315.078	33.62
315.292	2.9
315.505	39.76
315.719	52.05
315.933	13.14
316.146	119.64
316.36	93.01
316.573	13.14
316.787	66.39
317.001	45.91
317.214	31.57
317.428	2.9
317.641	-13.48
317.855	47.96
318.068	37.72
318.282	41.81
318.495	50
318.709	74.58
318.922	15.19
319.136	66.39
319.349	35.67
319.563	-15.53
319.776	82.77
319.99	45.91
320.203	179.03
320.417	119.64
320.63	74.58
320.843	62.29
321.057	78.68
321.27	25.43
321.483	90.96
321.697	60.24
321.91	66.39
322.124	78.68
322.337	50
322.55	-31.91
322.763	58.2
322.977	33.62
323.19	37.72
323.403	90.96
323.617	62.29
323.83	50
324.043	58.2
324.256	47.96
324.469	-21.67
324.683	66.39
324.896	-25.77
325.109	4.95
325.322	-36.01
325.535	76.63
325.748	33.62
325.962	109.4
326.175	-3.24
326.388	52.05
326.601	-13.48
326.814	93.01
327.027	133.97
327.24	84.82
327.453	-5.29
327.666	76.63
327.879	7
328.092	60.24
328.305	58.2
328.518	-76.97
328.731	70.48
328.944	9.05
329.157	47.96
329.37	54.1
329.583	33.62
329.796	45.91
330.009	74.58
330.222	50
330.435	21.33
330.648	23.38
330.861	37.72
331.073	78.68
331.286	13.14
331.499	-15.53
331.712	25.43
331.925	43.86
332.138	78.68
332.35	99.16
332.563	-38.06
332.776	9.05
332.989	60.24
333.202	66.39
333.414	13.14
333.627	58.2
333.84	13.14
334.053	29.52
334.265	29.52
334.478	74.58
334.691	52.05
334.903	-31.91
335.116	0.85
335.329	50
335.541	25.43
335.754	-13.48
335.966	72.53
336.179	21.33
336.392	41.81
336.604	90.96
336.817	33.62
337.029	31.57
337.242	9.05
337.454	68.44
337.667	21.33
337.88	66.39
338.092	-17.58
338.305	41.81
338.517	-29.87
338.729	33.62
338.942	17.24
339.154	27.48
339.367	11.09
339.579	-5.29
339.792	43.86
340.004	52.05
340.217	70.48
340.429	74.58
340.641	-48.3
340.854	35.67
341.066	-50.35
341.278	45.91
341.491	62.29
341.703	64.34
341.915	35.67
342.128	41.81
342.34	60.24
342.552	-9.39
342.764	78.68
342.977	-64.68
343.189	86.87
343.401	9.05
343.613	-5.29
343.826	66.39
344.038	-23.72
344.25	66.39
344.462	0.85
344.674	107.35
344.886	39.76
345.099	66.39
345.311	50
345.523	-15.53
345.735	-27.82
345.947	99.16
346.159	64.34
346.371	4.95
346.583	60.24
346.795	33.62
347.007	-29.87
347.219	66.39
347.431	-3.24
347.643	25.43
347.855	35.67
348.067	103.25
348.279	19.29
348.491	-3.24
348.703	78.68
348.915	35.67
349.127	66.39
349.339	15.19
349.551	15.19
349.763	21.33
349.975	-27.82
350.187	9.05
350.399	41.81
350.61	41.81
350.822	62.29
351.034	74.58
351.246	-15.53
351.458	25.43
351.669	41.81
351.881	58.2
352.093	33.62
352.305	70.48
352.517	25.43
352.728	58.2
352.94	150.36
353.152	33.62
353.363	-31.91
353.575	-33.96
353.787	74.58
353.999	50
354.21	99.16
354.422	-56.49
354.633	82.77
354.845	58.2
355.057	-17.58
355.268	84.82
355.48	80.72
355.692	-25.77
355.903	37.72
356.115	52.05
356.326	0.85
356.538	0.85
356.749	27.48
356.961	109.4
357.172	68.44
357.384	66.39
357.595	52.05
357.807	41.81
358.018	37.72
358.23	25.43
358.441	43.86
358.653	111.44
358.864	74.58
359.075	17.24
359.287	95.06
359.498	74.58
359.709	15.19
359.921	78.68
360.132	47.96
360.344	35.67
360.555	-29.87
360.766	25.43
360.977	9.05
361.189	50
361.4	-23.72
361.611	21.33
361.823	33.62
362.034	68.44
362.245	-9.39
362.456	41.81
362.667	99.16
362.879	35.67
363.09	90.96
363.301	27.48
363.512	43.86
363.723	25.43
363.935	29.52
364.146	33.62
364.357	2.9
364.568	13.14
364.779	27.48
364.99	123.73
365.201	-31.91
365.412	64.34
365.623	-40.11
365.834	25.43
366.045	78.68
366.256	41.81
366.467	72.53
366.678	84.82
366.889	66.39
367.1	9.05
367.311	80.72
367.522	25.43
367.733	-15.53
367.944	11.09
368.155	41.81
368.366	27.48
368.577	0.85
368.788	74.58
368.999	17.24
369.209	74.58
369.42	70.48
369.631	148.31
369.842	58.2
370.053	19.29
370.264	2.9
370.474	-7.34
370.685	86.87
370.896	62.29
371.107	35.67
371.317	66.39
371.528	70.48
371.739	33.62
371.95	0.85
372.16	90.96
372.371	7
372.582	37.72
372.792	86.87
373.003	66.39
373.214	66.39
373.424	66.39
373.635	58.2
373.846	41.81
374.056	56.15
374.267	101.2
374.477	54.1
374.688	95.06
374.898	19.29
375.109	-56.49
375.319	11.09
375.53	47.96
375.74	41.81
375.951	13.14
376.161	68.44
376.372	90.96
376.582	9.05
376.793	54.1
377.003	15.19
377.214	74.58
377.424	29.52
377.635	21.33
377.845	-31.91
378.055	113.49
378.266	25.43
378.476	25.43
378.686	52.05
378.897	33.62
379.107	-3.24
379.317	66.39
379.528	0.85
379.738	109.4
379.948	-46.25
380.158	66.39
380.369	13.14
380.579	41.81
380.789	29.52
380.999	33.62
381.21	47.96
381.42	58.2
381.63	4.95
381.84	0.85
382.05	4.95
382.261	66.39
382.471	-31.91
382.681	52.05
382.891	70.48
383.101	33.62
383.311	-27.82
383.521	62.29
383.731	41.81
383.941	88.92
384.151	82.77
384.361	99.16
384.571	25.43
384.781	58.2
384.991	123.73
385.201	95.06
385.411	56.15
385.621	41.81
385.831	33.62
386.041	35.67
386.251	41.81
386.461	-17.58
386.671	74.58
386.881	99.16
387.091	17.24
387.301	115.54
387.511	31.57
387.72	82.77
387.93	93.01
388.14	109.4
388.35	58.2
388.56	78.68
388.769	115.54
388.979	82.77
389.189	58.2
389.399	54.1
389.609	82.77
389.818	15.19
390.028	35.67
390.238	58.2
390.447	31.57
390.657	68.44
390.867	9.05
391.076	-9.39
391.286	68.44
391.496	86.87
391.705	25.43
391.915	29.52
392.125	29.52
392.334	0.85
392.544	45.91
392.753	58.2
392.963	68.44
393.172	88.92
393.382	58.2
393.591	68.44
393.801	70.48
394.01	133.97
394.22	11.09
394.429	41.81
394.639	68.44
394.848	58.2
395.058	68.44
395.267	90.96
395.477	9.05
395.686	76.63
395.895	72.53
396.105	142.16
396.314	-7.34
396.524	-5.29
396.733	-5.29
396.942	62.29
397.152	60.24
397.361	95.06
397.57	35.67
397.78	66.39
397.989	64.34
398.198	74.58
398.407	4.95
398.617	78.68
398.826	50
399.035	78.68
399.244	131.92
399.453	115.54
399.663	33.62
399.872	125.78
400.081	43.86
400.29	70.48
400.499	9.05
400.708	133.97
400.917	95.06
401.127	160.59
401.336	131.92
401.545	191.31
401.754	84.82
401.963	68.44
402.172	101.2
402.381	78.68
402.59	111.44
402.799	76.63
403.008	133.97
403.217	105.3
403.426	99.16
403.635	95.06
403.844	123.73
404.053	125.78
404.262	86.87
404.471	82.77
404.68	115.54
404.888	125.78
405.097	152.4
405.306	95.06
405.515	47.96
405.724	140.12
405.933	199.51
406.142	131.92
406.35	144.21
406.559	119.64
406.768	144.21
406.977	238.42
407.185	201.55
407.394	133.97
407.603	195.41
407.812	131.92
408.02	199.51
408.229	234.32
408.438	160.59
408.646	131.92
408.855	191.31
409.064	117.59
409.272	133.97
409.481	265.04
409.69	267.09
409.898	281.43
410.107	228.18
410.315	242.51
410.524	260.95
410.733	279.38
410.941	314.19
411.15	312.14
411.358	275.28
411.567	367.44
411.775	344.91
411.984	301.9
412.192	279.38
412.401	279.38
412.609	394.06
412.818	306
413.026	361.3
413.234	361.3
413.443	322.38
413.651	414.54
413.86	455.5
414.068	381.78
414.276	500.56
414.485	428.88
414.693	486.22
414.901	527.18
415.11	545.61
415.318	562
415.526	510.8
415.734	615.24
415.943	596.81
416.151	631.63
416.359	596.81
416.567	668.49
416.776	688.97
416.984	725.83
417.192	754.51
417.4	672.59
417.608	629.58
417.817	762.7
418.025	781.13
418.233	922.44
418.441	801.61
418.649	901.96
418.857	926.54
419.065	977.73
419.273	971.59
419.481	973.64
419.689	1073.99
419.897	1004.36
420.105	1100.61
420.313	1131.33
420.521	1131.33
420.729	1229.63
420.937	1260.35
421.145	1286.98
421.353	1336.13
421.561	1370.94
421.769	1409.86
421.977	1549.12
422.185	1397.57
422.393	1510.21
422.601	1688.38
422.809	1606.46
423.017	1622.84
423.224	1753.91
423.432	1749.82
423.64	1839.93
423.848	1884.98
424.056	1848.12
424.263	2100.02
424.471	2153.27
424.679	2165.56
424.887	2114.36
425.094	2175.8
425.302	2280.24
425.51	2380.59
425.718	2372.4
425.925	2462.51
426.133	2544.43
426.341	2738.99
426.548	2835.24
426.756	2933.54
426.964	2894.63
427.171	3113.77
427.379	3164.97
427.586	3126.05
427.794	3126.05
428.001	3240.74
428.209	3375.91
428.417	3478.3
428.624	3777.31
428.832	3801.88
429.039	3584.8
429.247	3554.08
429.454	4002.58
429.662	4240.15
429.869	4000.54
430.076	4399.89
430.284	4211.48
430.491	4453.14
430.699	4653.84
430.906	4530.96
431.114	4662.03
431.321	4825.87
431.528	5073.67
431.736	5333.76
431.943	5516.03
432.15	5395.2
432.358	5333.76
432.565	5645.06
432.772	5571.33
432.979	5798.65
433.187	5954.3
433.394	6058.74
433.601	6513.39
433.808	6367.99
434.016	6374.13
434.223	6693.62
434.43	6922.99
434.637	7013.1
434.844	7422.69
435.052	7555.81
435.259	7539.43
435.466	7557.86
435.673	7422.69
435.88	7996.12
436.087	8360.66
436.294	8243.93
436.501	8219.35
436.708	8280.79
436.915	8696.53
437.122	9075.4
437.329	8999.63
437.537	9319.11
437.743	9495.24
437.95	9263.82
438.157	9941.69
438.364	10189.5
438.571	9884.35
438.778	10324.66
438.985	11156.14
439.192	10769.07
439.399	10990.25
439.606	10746.55
439.813	11319.98
440.02	12194.46
440.227	11946.66
440.433	11854.5
440.64	12120.73
440.847	12065.44
441.054	12417.69
441.261	13079.18
441.467	12796.56
441.674	13249.16
441.881	13806.21
442.088	13896.32
442.294	13816.45
442.501	13871.75
442.708	14363.26
442.914	14715.51
443.121	15395.43
443.328	14938.74
443.534	16351.84
443.741	15676.01
443.948	15448.68
444.154	16353.88
444.361	16349.79
444.568	16314.97
444.774	16271.97
444.981	16462.43
445.187	17029.71
445.394	17744.45
445.6	17631.82
445.807	19460.65
446.013	18397.76
446.22	18782.77
446.426	19407.41
446.633	19593.77
446.839	20304.42
447.046	19507.76
447.252	20556.32
447.459	20652.57
447.665	20361.76
447.871	21516.81
448.078	22268.42
448.284	21359.12
448.491	21848.58
448.697	22651.39
448.903	23087.61
449.11	23155.19
449.316	22940.15
449.522	23378.42
449.728	23753.19
449.935	23749.1
450.141	24031.72
450.347	24465.89
450.553	23876.07
450.76	24232.42
450.966	24750.56
451.172	24545.76
451.378	25219.54
451.584	24781.28
451.791	25174.49
451.997	25164.25
452.203	25444.82
452.409	25827.79
452.615	25598.41
452.821	24379.87
453.027	24402.4
453.233	25582.03
453.44	24642.01
453.646	24842.71
453.852	25061.85
454.058	25223.64
454.264	24713.69
454.47	25360.85
454.676	24713.69
454.882	25620.94
455.088	23147
455.294	23798.25
455.5	23826.92
455.705	24240.61
455.911	23085.56
456.117	22628.86
456.323	22858.23
456.529	21438.99
456.735	22163.97
456.941	21719.56
457.147	21541.39
457.352	20632.09
457.558	20701.72
457.764	20482.59
457.97	20238.88
458.176	19790.38
458.381	19792.42
458.587	18649.66
458.793	18825.78
458.999	18057.79
459.204	19284.53
459.41	18672.18
459.616	17590.86
459.821	17545.8
460.027	17343.05
460.233	16908.88
460.438	16241.25
460.644	16519.77
460.85	15776.36
461.055	15589.99
461.261	15540.84
461.466	14174.85
461.672	13542.02
461.878	14746.23
462.083	13820.55
462.289	13679.24
462.494	13423.24
462.7	12817.04
462.905	12561.05
463.111	13081.23
463.316	13189.77
463.522	12698.26
463.727	12636.82
463.932	12608.15
464.138	12348.06
464.343	12651.16
464.549	12231.32
464.754	12593.81
464.959	12577.43
465.165	12358.3
465.37	11846.3
465.575	11651.75
465.781	12020.38
465.986	12022.43
466.191	11704.99
466.397	11535.01
466.602	11012.78
466.807	11252.39
467.012	11338.41
467.218	11301.54
467.423	11182.76
467.628	11160.24
467.833	11829.92
468.038	11285.16
468.244	11037.36
468.449	11291.31
468.654	11027.12
468.859	11078.32
469.064	10705.59
469.269	10379.96
469.474	10717.87
469.679	10607.28
469.885	10449.59
470.09	10502.84
470.295	10603.19
470.5	10212.03
470.705	10291.9
470.91	10175.16
471.115	9886.4
471.32	10052.28
471.525	9929.41
471.73	9777.86
471.935	9702.08
472.139	9431.75
472.344	9503.43
472.549	9429.7
472.754	9366.21
472.959	9208.52
473.164	9151.18
473.369	8846.03
473.574	9177.8
473.778	9304.78
473.983	9118.41
474.188	8975.05
474.393	8772.3
474.598	8714.96
474.802	8430.29
475.007	8596.18
475.212	8436.44
475.417	8315.61
475.621	8278.74
475.826	8407.77
476.031	8174.3
476.235	7805.66
476.44	8000.22
476.645	7916.25
476.849	8055.51
477.054	7660.26
477.259	7832.29
477.463	7693.02
477.668	7494.37
477.872	7762.65
478.077	7520.99
478.282	7221.99
478.486	7365.35
478.691	7066.35
478.895	7164.65
479.1	7117.54
479.304	7111.4
479.509	6865.64
479.713	6877.93
479.918	6832.88
480.122	6773.49
480.326	7127.78
480.531	6877.93
480.735	6834.93
480.94	6935.28
481.144	6906.6
481.348	6673.14
481.553	6623.98
481.757	6435.57
481.961	6623.98
482.166	6671.09
482.37	6669.04
482.574	6640.37
482.778	6566.64
482.983	6701.81
483.187	6687.47
483.391	6609.65
483.595	6695.66
483.8	6638.32
484.004	6523.63
484.208	6697.71
484.412	6634.22
484.616	6400.76
484.821	6710
485.025	6431.48
485.229	6681.33
485.433	6587.12
485.637	6595.31
485.841	6552.31
486.045	6488.82
486.249	6607.6
486.453	6421.24
486.657	6542.07
486.861	6603.5
487.065	6359.8
487.269	6587.12
487.473	6468.34
487.677	6740.72
487.881	6810.35
488.085	6447.86
488.289	6650.61
488.493	6499.06
488.697	6730.48
488.901	6527.73
489.105	6591.22
489.309	6583.02
489.512	6707.95
489.716	6759.15
489.92	6550.26
490.124	6572.79
490.328	6804.21
490.531	6705.9
490.735	6740.72
490.939	6828.78
491.143	6828.78
491.346	6789.87
491.55	7023.34
491.754	6976.23
491.958	7189.22
492.161	6896.36
492.365	7000.81
492.569	7017.19
492.772	7004.91
492.976	7021.29
493.18	7045.87
493.383	7205.61
493.587	7211.75
493.79	7443.17
493.994	7201.51
494.197	7211.75
494.401	7477.99
494.605	7178.98
494.808	7463.65
495.012	7480.04
495.215	7490.28
495.419	7602.91
495.622	7572.19
495.825	7604.96
496.029	7629.54
496.232	7953.12
496.436	7652.06
496.639	7885.53
496.843	7989.98
497.046	8014.56
497.249	8385.24
497.453	8235.74
497.656	8325.85
497.859	8436.44
498.063	8377.05
498.266	8577.75
498.469	8327.89
498.673	8487.64
498.876	8782.54
499.079	8727.25
499.282	8770.26
499.485	9161.42
499.689	9194.19
499.892	9134.79
500.095	9024.2
500.298	9478.85
500.501	9308.87
500.705	9786.05
500.908	9992.89
501.111	9728.7
501.314	10111.68
501.517	10097.34
501.72	10242.75
501.923	9949.89
502.126	10379.96
502.329	10435.25
502.532	10543.8
502.735	10738.35
502.938	10781.36
503.141	10846.9
503.344	10977.97
503.547	11125.42
503.75	11233.96
503.953	11334.31
504.156	11416.23
504.359	11510.44
504.562	11651.75
504.765	11895.46
504.968	11698.85
505.17	11967.13
505.373	12151.45
505.576	12153.5
505.779	12544.66
505.982	12554.9
506.185	12898.96
506.387	12722.84
506.59	13009.55
506.793	13089.42
506.996	13070.99
507.198	13283.98
507.401	13230.73
507.604	13341.32
507.807	13937.28
508.009	13804.16
508.212	13914.75
508.415	14357.11
508.617	14340.73
508.82	14385.79
509.022	14383.74
509.225	14735.99
509.428	14754.42
509.63	14959.22
509.833	14834.29
510.035	15164.01
510.238	15377
510.44	15465.07
510.643	15676.01
510.845	15882.85
511.048	15852.13
511.25	16241.25
511.453	16265.82
511.655	16745.05
511.858	16575.06
512.06	16450.14
512.262	16955.99
512.465	16869.97
512.667	17042
512.87	17486.41
513.072	17437.26
513.274	17793.61
513.477	17893.96
513.679	18260.54
513.881	18070.08
514.084	18268.73
514.286	18364.99
514.488	18596.41
514.69	18915.89
514.893	19059.25
515.095	18915.89
515.297	19333.68
515.499	19485.23
515.701	19976.74
515.904	19710.5
516.106	19890.73
516.308	20124.19
516.51	20343.33
516.712	20593.18
516.914	20587.04
517.116	21121.56
517.318	21074.45
517.52	21531.15
517.722	21438.99
517.925	21613.07
518.127	21955.08
518.329	21989.89
518.531	22161.92
518.733	22188.55
518.935	22413.82
519.136	22587.9
519.338	22989.3
519.54	23103.99
519.742	23147
519.944	23388.66
520.146	23763.43
520.348	23822.83
520.55	23861.74
520.752	24017.38
520.954	24637.92
521.155	24213.99
521.357	24644.06
521.559	24568.29
521.761	24986.07
521.963	25272.79
522.164	25352.66
522.366	25264.6
522.568	25940.43
522.77	25932.23
522.971	26196.42
523.173	26253.76
523.375	26321.35
523.576	26313.16
523.778	26294.72
523.98	26413.51
524.181	26722.75
524.383	27132.34
524.584	27034.04
524.786	27457.97
524.988	26980.79
525.189	27642.29
525.391	27810.22
525.592	27472.31
525.794	27840.94
525.995	28215.72
526.197	28070.31
526.398	28094.89
526.6	28256.68
526.801	28262.82
527.003	28402.08
527.204	28477.86
527.406	28651.94
527.607	28656.03
527.808	29403.54
528.01	28676.51
528.211	28914.08
528.412	29358.49
528.614	29512.08
528.815	29180.31
529.016	29475.22
529.218	29286.81
529.419	29487.51
529.62	29542.8
529.822	29712.78
530.023	29743.5
530.224	29520.27
530.425	29569.43
530.626	29725.07
530.828	29170.07
531.029	29999.5
531.23	29745.55
531.431	29755.79
531.632	29856.14
531.833	29985.16
532.035	29790.61
532.236	29882.77
532.437	30144.91
532.638	30065.03
532.839	30085.51
533.04	29929.87
533.241	29714.83
533.442	30503.3
533.643	30290.31
533.844	30071.18
534.045	30257.54
534.246	29933.96
534.447	30269.83
534.648	30138.76
534.849	30441.86
535.05	30017.93
535.251	30312.84
535.451	30140.81
535.652	30372.23
535.853	30159.24
536.054	30685.57
536.255	30390.66
536.456	30122.38
536.657	30677.38
536.857	30151.05
537.058	30155.15
537.259	30280.07
537.46	30382.47
537.66	30486.92
537.861	30126.47
538.062	30157.19
538.263	30054.79
538.463	29895.05
538.664	30300.55
538.865	30706.05
539.065	30273.93
539.266	30241.16
539.466	30450.05
539.667	29837.71
539.868	30759.3
540.068	29993.36
540.269	30251.4
540.469	30378.37
540.67	29817.23
540.87	30263.69
541.071	29870.48
541.271	30331.27
541.472	30089.61
541.672	30026.12
541.873	30116.23
542.073	29757.84
542.274	30173.58
542.474	29911.44
542.675	30210.44
542.875	30187.91
543.075	30149
543.276	29651.34
543.476	30357.89
543.676	29802.89
543.877	30005.64
544.077	29987.21
544.277	30079.37
544.478	29862.29
544.678	29903.25
544.878	29841.81
545.078	29792.65
545.279	29778.32
545.479	29987.21
545.679	29981.07
545.879	30081.42
546.079	29802.89
546.28	30032.27
546.48	29706.64
546.68	30222.73
546.88	29929.87
547.08	29854.09
547.28	30028.17
547.48	29903.25
547.68	29839.76
547.88	29589.91
548.081	30019.98
548.281	29675.92
548.481	29479.32
548.681	29759.89
548.881	29743.5
549.081	29555.09
549.28	29714.83
549.48	29983.12
549.68	29585.81
549.88	30019.98
550.08	29499.8
550.28	29962.64
550.48	29727.12
550.68	29815.18
550.88	29448.6
551.08	29870.48
551.279	29626.77
551.479	29268.37
551.679	29714.83
551.879	29548.95
552.079	30177.67
552.278	29794.7
552.478	29645.2
552.678	29544.85
552.878	29872.53
553.077	29540.75
553.277	29280.66
553.477	29966.73
553.676	29428.12
553.876	29872.53
554.076	29335.96
554.275	29514.13
554.475	29553.04
554.674	29444.5
554.874	29800.85
555.074	29370.77
555.273	29487.51
555.473	29667.73
555.672	29145.5
555.872	29309.33
556.071	29577.62
556.271	29389.2
556.47	29428.12
556.67	28944.8
556.869	29030.81
557.068	29399.44
557.268	29059.48
557.467	29270.42
557.667	29170.07
557.866	29460.88
558.065	28903.84
558.265	28832.16
558.464	28936.6
558.663	29292.95
558.863	28699.04
559.062	29348.25
559.261	28621.22
559.461	28873.12
559.66	28422.56
559.859	28610.98
560.058	28922.27
560.258	28998.04
560.457	28447.14
560.656	28764.57
560.855	28385.7
561.054	28635.55
561.253	28422.56
561.453	28230.05
561.652	28434.85
561.851	28484
562.05	28150.18
562.249	28193.19
562.448	28584.35
562.647	28086.7
562.846	28332.45
563.045	28170.66
563.244	27955.63
563.443	28344.74
563.642	27609.52
563.841	28320.17
564.04	27716.01
564.239	28078.5
564.438	27736.49
564.637	28197.29
564.836	27513.27
565.035	27312.56
565.234	27830.7
565.432	27748.78
565.631	27269.56
565.83	27697.58
566.029	27326.9
566.228	27185.59
566.427	27308.47
566.625	27242.93
566.824	26573.25
567.023	27281.85
567.222	26864.06
567.42	27034.04
567.619	26825.15
567.818	26780.09
568.016	26819
568.215	27023.8
568.414	27027.9
568.612	26972.6
568.811	26730.94
569.01	26546.62
569.208	26261.96
569.407	26524.1
569.605	26046.92
569.804	26581.44
570.002	26087.88
570.201	26274.24
570.4	25878.99
570.598	26368.45
570.797	26083.78
570.995	26083.78
571.193	25612.75
571.392	26233.29
571.59	25764.3
571.789	25727.44
571.987	25600.46
572.186	25563.6
572.384	25571.79
572.582	25565.65
572.781	25403.86
572.979	25170.39
573.177	25412.05
573.376	25209.3
573.574	25194.96
573.772	25424.34
573.971	24863.19
574.169	24867.29
574.367	24947.16
574.565	25041.37
574.763	25131.48
574.962	24762.84
575.16	24629.73
575.358	24850.91
575.556	24363.49
575.754	24793.56
575.952	24318.43
576.151	24943.06
576.349	24048.1
576.547	24320.48
576.745	24271.33
576.943	24181.22
577.141	23886.31
577.339	24109.54
577.537	24226.28
577.735	24072.68
577.933	23689.71
578.131	24025.57
578.329	23663.08
578.527	23833.07
578.725	23509.49
578.923	23790.06
579.121	23396.85
579.319	23501.29
579.516	23781.87
579.714	23304.69
579.912	23245.3
580.11	23417.33
580.308	23482.86
580.506	23060.98
580.704	22888.95
580.901	22940.15
581.099	23114.23
581.297	22970.87
581.495	22647.29
581.692	22741.5
581.89	22551.04
582.088	22977.01
582.285	22499.84
582.483	22585.85
582.681	22651.39
582.878	22684.16
583.076	22376.96
583.274	22606.33
583.471	22106.63
583.669	22333.95
583.866	22131.2
584.064	22045.19
584.262	21809.67
584.459	22192.64
584.657	22233.6
584.854	22123.01
585.052	21770.76
585.249	21985.8
585.447	21914.12
585.644	21520.91
585.841	21604.88
586.039	21856.78
586.236	21471.76
586.434	21467.66
586.631	21592.59
586.828	21451.28
587.026	21328.4
587.223	21461.52
587.42	21123.6
587.618	21572.11
587.815	20714.01
588.012	20840.98
588.21	21053.97
588.407	21172.75
588.604	20838.94
588.801	20943.38
588.999	20816.41
589.196	20748.82
589.393	20759.06
589.59	20605.47
589.787	20523.55
589.984	20476.44
590.182	20230.69
590.379	20447.77
590.576	20138.53
590.773	20376.09
590.97	20189.73
591.167	20470.3
591.364	19733.03
591.561	20007.46
591.758	19911.21
591.955	20056.61
592.152	20054.56
592.349	19905.06
592.546	19624.49
592.743	19714.6
592.94	19579.43
593.137	19681.83
593.334	19556.91
593.531	19264.05
593.727	19417.65
593.924	19352.11
594.121	19454.51
594.318	19655.21
594.515	19149.36
594.712	19255.86
594.908	19218.99
595.105	19145.27
595.302	18879.03
595.499	18965.04
595.696	18807.35
595.892	18803.25
596.089	18924.08
596.286	18850.36
596.482	18620.99
596.679	18702.9
596.876	18725.43
597.072	18659.9
597.269	18616.89
597.466	18356.8
597.662	18387.52
597.859	18276.93
598.055	18330.17
598.252	18240.06
598.448	18129.47
598.645	18229.82
598.841	18100.8
599.038	17928.77
599.234	18025.03
599.431	17773.13
599.627	17924.68
599.824	17967.68
600.02	17824.33
600.217	17873.48
600.413	17594.95
600.609	17766.98
600.806	17549.9
601.002	17787.46
601.198	17371.72
601.395	17443.4
601.591	17355.34
601.787	17306.19
601.984	17285.71
602.18	17334.86
602.376	17209.93
602.572	17019.47
602.769	17277.52
602.965	16917.08
603.161	17183.31
603.357	16939.6
603.553	16894.55
603.75	16974.42
603.946	16818.77
604.142	16849.49
604.338	16654.94
604.534	16693.85
604.73	16603.74
604.926	16605.78
605.122	16642.65
605.318	16484.95
605.514	16550.49
605.71	16417.37
605.906	16296.54
606.102	16067.17
606.298	16413.27
606.494	16220.77
606.69	16126.56
606.886	16018.02
607.082	15934.05
607.278	16061.02
607.474	15946.34
607.67	16151.13
607.866	16003.68
608.062	15958.63
608.257	15977.06
608.453	15946.34
608.649	15850.08
608.845	15622.76
609.041	15819.36
609.236	15671.91
609.432	15616.62
609.628	15921.76
609.824	15475.31
610.019	15448.68
610.215	15540.84
610.411	15506.02
610.606	15745.64
610.802	15499.88
610.998	15546.98
611.193	15325.8
611.389	15354.48
611.584	15372.91
611.78	15313.52
611.976	15356.52
612.171	15387.24
612.367	15329.9
612.562	15161.97
612.758	14928.5
612.953	14979.7
613.149	15209.07
613.344	15051.38
613.539	15463.02
613.735	15151.73
613.93	15069.81
614.126	14971.5
614.321	15086.19
614.517	14969.46
614.712	14574.2
614.907	14756.47
615.103	15012.46
615.298	14684.79
615.493	15000.18
615.688	14578.29
615.884	15053.42
616.079	14764.66
616.274	14967.41
616.47	14836.34
616.665	14723.7
616.86	14688.89
617.055	14727.8
617.25	14606.97
617.445	14359.16
617.641	14117.5
617.836	14666.36
618.031	14410.36
618.226	14404.22
618.421	14334.59
618.616	14385.79
618.811	14180.99
619.006	14418.55
619.201	13959.81
619.396	14017.15
619.591	13869.7
619.786	13965.95
619.981	13924.99
620.176	13849.22
620.371	13662.85
620.566	13767.3
620.761	13720.2
620.956	13648.52
621.151	13376.14
621.346	13542.02
621.541	13351.56
621.735	13396.62
621.93	13382.28
622.125	13171.34
622.32	13240.97
622.515	13214.35
622.709	12927.63
622.904	13044.37
623.099	13015.69
623.294	13099.66
623.488	12751.51
623.683	12833.43
623.878	12554.9
624.072	12589.72
624.267	12563.09
624.462	12399.26
624.656	12407.45
624.851	12311.19
625.046	12118.68
625.24	12204.7
625.435	12079.77
625.629	12145.31
625.824	12108.44
626.018	11997.85
626.213	11559.59
626.407	11899.55
626.602	11631.27
626.796	11797.15
626.991	11588.26
627.185	11793.06
627.38	11625.12
627.574	11627.17
627.768	11512.49
627.963	11272.87
628.157	11055.79
628.352	11188.91
628.546	11109.04
628.74	11133.61
628.935	10916.53
629.129	10924.72
629.323	10846.9
629.517	11131.56
629.712	10681.01
629.906	10877.62
630.1	10482.36
630.294	10662.58
630.489	10478.26
630.683	10621.62
630.877	10293.94
631.071	10316.47
631.265	10332.86
631.459	10283.7
631.653	10175.16
631.848	10230.46
632.042	10142.39
632.236	9994.94
632.43	10042.04
632.624	10060.48
632.818	10070.72
633.012	9689.79
633.206	9812.67
633.4	9872.06
633.594	9626.31
633.788	9775.81
633.982	9704.13
634.176	9712.32
634.369	9456.33
634.563	9417.41
634.757	9257.67
634.951	9409.22
635.145	9374.41
635.339	9229
635.533	9249.48
635.726	9196.23
635.92	9018.06
636.114	9282.25
636.308	8938.19
636.501	8997.58
636.695	9145.03
636.889	8964.81
637.083	9079.5
637.276	8723.15
637.47	8676.05
637.664	8645.33
637.857	8768.21
638.051	8532.69
638.244	8612.56
638.438	8467.16
638.632	8512.21
638.825	8504.02
639.019	8409.81
639.212	8311.51
639.406	8338.13
639.599	8205.02
639.793	8360.66
639.986	7961.31
640.18	8121.05
640.373	7992.03
640.567	8037.08
640.76	7836.38
640.954	7973.6
641.147	7721.7
641.34	7740.13
641.534	7703.26
641.727	7760.61
641.92	7719.65
642.114	7713.5
642.307	7715.55
642.5	7668.45
642.694	7570.15
642.887	7469.8
643.08	7750.37
643.273	7434.98
643.467	7287.53
643.66	7410.4
643.853	7240.42
644.046	7129.83
644.239	7340.77
644.432	7267.05
644.626	7039.72
644.819	7111.4
645.012	7197.42
645.205	7148.26
645.398	7111.4
645.591	7013.1
645.784	6882.03
645.977	6920.94
646.17	6929.13
646.363	6734.57
646.556	6867.69
646.749	6699.76
646.942	6861.55
647.135	6656.75
647.328	6654.7
647.521	6580.98
647.714	6462.19
647.907	6642.42
648.099	6421.24
648.292	6511.35
648.485	6568.69
648.678	6388.47
648.871	6251.25
649.064	6339.32
649.256	6253.3
649.449	6284.02
649.642	6284.02
649.835	6214.39
650.027	6111.99
650.22	6208.25
650.413	6210.29
650.605	6165.24
650.798	6236.92
650.991	5866.24
651.183	5901.05
651.376	5982.97
651.568	6091.51
651.761	5870.33
651.954	5802.75
652.146	5878.52
652.339	5761.79
652.531	5812.99
652.724	5853.95
652.916	5597.95
653.109	5759.74
653.301	5655.3
653.494	5559.04
653.686	5448.45
653.879	5780.22
654.071	5614.34
654.263	5647.1
654.456	5565.18
654.648	5548.8
654.84	5294.85
655.033	5430.02
655.225	5387.01
655.417	5423.87
655.61	5335.81
655.802	5296.9
655.994	5192.45
656.186	5305.09
656.379	5268.23
656.571	5231.37
656.763	5198.6
656.955	5235.46
657.148	5098.25
657.34	4944.65
657.532	5014.28
657.724	4940.55
657.916	5051.14
658.108	5014.28
658.3	4891.4
658.492	5008.14
658.684	4899.59
658.876	4868.88
659.068	4907.79
659.26	4676.37
659.452	4797.2
659.644	4678.41
659.836	4829.96
660.028	4731.66
660.22	4547.34
660.412	4770.57
660.604	4670.22
660.796	4733.71
660.988	4637.45
661.18	4510.48
661.372	4762.38
661.563	4416.27
661.755	4543.25
661.947	4569.87
662.139	4479.76
662.331	4395.79
662.522	4549.39
662.714	4381.46
662.906	4410.13
663.097	4354.83
663.289	4268.82
663.481	4289.3
663.673	4328.21
663.864	4266.77
664.056	4215.57
664.247	4260.63
664.439	4164.37
664.631	4154.13
664.822	4268.82
665.014	4283.16
665.205	4223.76
665.397	4084.5
665.588	4064.02
665.78	4055.83
665.971	4068.12
666.163	4098.84
666.354	4000.54
666.546	4018.97
666.737	4006.68
666.929	4039.45
667.12	3898.14
667.311	3939.1
667.503	3937.05
667.694	3912.47
667.885	3844.89
668.077	3885.85
668.268	3980.06
668.459	3982.1
668.651	3838.75
668.842	3820.32
669.033	3771.16
669.224	3867.42
669.416	3869.47
669.607	3765.02
669.798	3836.7
669.989	3695.39
670.18	3646.24
670.371	3742.49
670.563	3597.09
670.754	3777.31
670.945	3547.94
671.136	3672.86
671.327	3623.71
671.518	3724.06
671.709	3541.79
671.9	3636
672.091	3459.87
672.282	3703.58
672.473	3437.34
672.664	3566.37
672.855	3461.92
673.046	3558.18
673.237	3535.65
673.428	3564.32
673.619	3523.36
673.809	3355.43
674	3388.19
674.191	3509.02
674.382	3388.19
674.573	3390.24
674.764	3394.34
674.954	3386.15
675.145	3482.4
675.336	3570.46
675.527	3304.23
675.717	3449.63
675.908	3377.95
676.099	3281.7
676.289	3384.1
676.48	3179.3
676.671	3322.66
676.861	3228.45
677.052	3420.96
677.243	3230.5
677.433	3326.75
677.624	3375.91
677.814	3369.76
678.005	3218.21
678.195	3185.44
678.386	3263.27
678.576	3207.97
678.767	3343.14
678.957	3287.84
679.148	3279.65
679.338	3328.8
679.529	3361.57
679.719	3195.68
679.909	3220.26
680.1	3310.37
680.29	3081
680.481	3113.77
680.671	3253.03
680.861	3281.7
681.052	3269.41
681.242	3214.12
681.432	3195.68
681.622	3072.81
681.813	3214.12
682.003	3115.81
682.193	3046.18
682.383	3203.88
682.573	3187.49
682.764	3105.57
682.954	3144.49
683.144	3124.01
683.334	3074.85
683.524	3097.38
683.714	3066.66
683.904	3124.01
684.094	3121.96
684.284	3146.53
684.474	3267.36
684.664	3146.53
684.854	3072.81
685.044	3078.95
685.234	3078.95
685.424	3179.3
685.614	3066.66
685.804	2978.6
685.994	3023.66
686.184	3072.81
686.374	2978.6
686.564	2994.98
686.753	2974.5
686.943	2853.67
687.133	2984.74
687.323	2980.65
687.513	2919.21
687.702	3027.75
687.892	2886.44
688.082	2814.76
688.272	2917.16
688.461	2908.97
688.651	2884.39
688.841	2892.59
689.03	2925.35
689.22	2808.62
689.41	2966.31
689.599	2829.1
689.789	2859.82
689.979	2880.3
690.168	2837.29
690.358	2777.9
690.547	2816.81
690.737	2773.8
690.926	2691.88
691.116	2761.52
691.305	2714.41
691.495	2771.76
691.684	2482.99
691.874	2736.94
692.063	2745.13
692.252	2700.08
692.442	2663.21
692.631	2540.33
692.82	2784.04
693.01	2583.34
693.199	2573.1
693.388	2648.88
693.578	2691.88
693.767	2640.69
693.956	2667.31
694.146	2462.51
694.335	2548.53
694.524	2566.96
694.713	2560.81
694.902	2540.33
695.092	2550.57
695.281	2485.04
695.47	2585.39
695.659	2489.14
695.848	2433.84
696.037	2614.06
696.226	2519.85
696.415	2470.7
696.604	2548.53
696.793	2446.13
696.982	2501.42
697.171	2499.38
697.36	2503.47
697.549	2448.18
697.738	2405.17
697.927	2550.57
698.116	2458.42
698.305	2540.33
698.494	2491.18
698.683	2499.38
698.872	2507.57
699.061	2542.38
699.25	2401.07
699.438	2442.03
699.627	2476.85
699.816	2493.23
700.005	2360.11
700.193	2499.38
700.382	2472.75
700.571	2558.77
700.76	2407.22
700.948	2450.22
701.137	2462.51
701.326	2499.38
701.514	2482.99
701.703	2325.3
701.892	2376.5
702.08	2487.09
702.269	2466.61
702.457	2253.62
702.646	2392.88
702.834	2364.21
703.023	2482.99
703.212	2450.22
703.4	2423.6
703.589	2353.97
703.777	2444.08
703.965	2327.35
704.154	2394.93
704.342	2380.59
704.531	2304.82
704.719	2413.36
704.907	2409.26
705.096	2345.78
705.284	2341.68
705.472	2310.96
705.661	2442.03
705.849	2347.83
706.037	2351.92
706.226	2278.19
706.414	2353.97
706.602	2378.55
706.79	2478.9
706.979	2376.5
707.167	2335.54
707.355	2200.37
707.543	2319.15
707.731	2405.17
707.919	2421.55
708.107	2386.74
708.296	2241.33
708.484	2360.11
708.672	2278.19
708.86	2294.58
709.048	2376.5
709.236	2323.25
709.424	2337.59
709.612	2409.26
709.8	2306.87
709.988	2253.62
710.176	2298.67
710.364	2351.92
710.551	2317.11
710.739	2272.05
710.927	2364.21
711.115	2337.59
711.303	2360.11
711.491	2280.24
711.679	2372.4
711.866	2227
712.054	2423.6
712.242	2212.66
712.43	2175.8
712.617	2286.39
712.805	2362.16
712.993	2294.58
713.181	2259.76
713.368	2341.68
713.556	2349.87
713.744	2272.05
713.931	2239.28
714.119	2173.75
714.306	2284.34
714.494	2233.14
714.682	2282.29
714.869	2337.59
715.057	2386.74
715.244	2313.01
715.432	2247.48
715.619	2337.59
715.807	2241.33
715.994	2229.04
716.182	2251.57
716.369	2323.25
716.556	2323.25
716.744	2181.94
716.931	2140.98
717.119	2310.96
717.306	2386.74
717.493	2270
717.681	2231.09
717.868	2179.89
718.055	2302.77
718.242	2220.85
718.43	2245.43
718.617	2329.39
718.804	2306.87
718.991	2384.69
719.179	2370.35
719.366	2204.47
719.553	2274.1
719.74	2224.95
719.927	2212.66
720.114	2255.67
720.301	2114.36
720.488	2177.84
720.676	2296.63
720.863	2175.8
721.05	2288.43
721.237	2120.5
721.424	2204.47
721.611	2270
721.798	2175.8
721.985	2212.66
722.172	2175.8
722.358	2222.9
722.545	2214.71
722.732	2245.43
722.919	2280.24
723.106	2290.48
723.293	2251.57
723.48	2198.32
723.667	2192.18
723.853	2251.57
724.04	2257.71
724.227	2216.76
724.414	2251.57
724.6	2175.8
724.787	2132.79
724.974	2192.18
725.161	2179.89
725.347	2108.21
725.534	2171.7
725.72	2050.87
725.907	2274.1
726.094	2134.84
726.28	2255.67
726.467	2208.56
726.653	2048.82
726.84	2171.7
727.027	2196.28
727.213	2175.8
727.4	2126.64
727.586	2173.75
727.773	2200.37
727.959	2143.03
728.145	2091.83
728.332	2310.96
728.518	2122.55
728.705	2237.24
728.891	2224.95
729.077	2081.59
729.264	2122.55
729.45	2126.64
729.636	2212.66
729.823	2138.93
730.009	2110.26
730.195	2147.12
730.382	2134.84
730.568	2261.81
730.754	2083.64
730.94	2153.27
731.126	2194.23
731.313	2167.6
731.499	2106.17
731.685	2220.85
731.871	2114.36
732.057	2116.41
732.243	2110.26
732.429	2048.82
732.615	2140.98
732.801	2143.03
732.987	2089.78
733.173	2186.04
733.359	2089.78
733.545	2106.17
733.731	2106.17
733.917	2196.28
734.103	2028.34
734.289	2181.94
734.475	2100.02
734.661	2171.7
734.847	2044.73
735.033	2130.74
735.219	2122.55
735.404	2147.12
735.59	2057.01
735.776	1977.14
735.962	2097.97
736.148	2048.82
736.333	2040.63
736.519	2018.1
736.705	2007.86
736.89	2065.21
737.076	1966.9
737.262	1975.1
737.447	2073.4
737.633	2071.35
737.819	2153.27
738.004	2085.69
738.19	1991.48
738.375	2026.29
738.561	2048.82
738.747	1917.75
738.932	1979.19
739.118	2097.97
739.303	2007.86
739.489	2110.26
739.674	1991.48
739.859	2040.63
740.045	1975.1
740.23	2005.81
740.416	1823.55
740.601	1852.22
740.786	2130.74
740.972	1950.52
741.157	2007.86
741.342	1866.55
741.528	1868.6
741.713	1852.22
741.898	1997.62
742.084	1983.29
742.269	1796.92
742.454	1913.66
742.639	1991.48
742.824	1950.52
743.01	1921.85
743.195	1844.03
743.38	1844.03
743.565	1878.84
743.75	1934.14
743.935	1805.11
744.12	1737.53
744.305	1854.27
744.49	1872.7
744.675	1829.69
744.86	1844.03
745.045	1848.12
745.23	1778.49
745.415	1862.46
745.6	1815.35
745.785	1747.77
745.97	1772.35
746.155	1778.49
746.34	1794.87
746.525	1631.04
746.71	1798.97
746.895	1770.3
747.079	1745.72
747.264	1641.28
747.449	1782.59
747.634	1669.95
747.819	1700.67
748.003	1659.71
748.188	1610.56
748.373	1696.57
748.557	1631.04
748.742	1565.5
748.927	1594.17
749.111	1590.08
749.296	1499.97
749.481	1573.69
749.665	1557.31
749.85	1606.46
750.034	1688.38
750.219	1532.73
750.404	1481.53
750.588	1551.17
750.773	1377.09
750.957	1542.97
751.141	1463.1
751.326	1491.77
751.51	1426.24
751.695	1370.94
751.879	1395.52
752.064	1504.06
752.248	1442.62
752.432	1452.86
752.617	1436.48
752.801	1422.14
752.985	1293.12
753.17	1495.87
753.354	1329.99
753.538	1344.32
753.722	1299.27
753.907	1354.56
754.091	1313.6
754.275	1342.27
754.459	1362.75
754.643	1289.03
754.828	1246.02
755.012	1231.68
755.196	1235.78
755.38	1164.1
755.564	1264.45
755.748	1147.72
755.932	1227.59
756.116	1370.94
756.3	1110.85
756.484	1166.15
756.668	1203.01
756.852	1198.92
757.036	1188.68
757.22	1104.71
757.404	1098.56
757.588	1110.85
757.772	1123.14
757.956	1043.27
758.14	1176.39
758.323	1135.43
758.507	1108.8
758.691	1082.18
758.875	1082.18
759.059	1147.72
759.242	1080.13
759.426	1043.27
759.61	1016.65
759.794	1033.03
759.977	1110.85
760.161	1114.95
760.345	1069.89
760.528	1061.7
760.712	1069.89
760.895	994.12
761.079	957.25
761.263	949.06
761.446	953.16
761.63	951.11
761.813	1035.08
761.997	975.69
762.18	977.73
762.364	957.25
762.547	1010.5
762.731	877.38
762.914	918.34
763.098	920.39
763.281	918.34
763.464	977.73
763.648	951.11
763.831	920.39
764.015	893.77
764.198	910.15
764.381	887.62
764.564	938.82
764.748	967.49
764.931	951.11
765.114	881.48
765.297	912.2
765.481	766.79
765.664	877.38
765.847	852.81
766.03	871.24
766.213	852.81
766.397	828.23
766.58	805.71
766.763	901.96
766.946	861
767.129	893.77
767.312	781.13
767.495	840.52
767.678	846.66
767.861	815.94
768.044	787.27
768.227	828.23
768.41	721.74
768.593	828.23
768.776	691.02
768.959	770.89
769.142	873.29
769.324	770.89
769.507	762.7
769.69	817.99
769.873	729.93
770.056	803.66
770.239	758.6
770.421	721.74
770.604	734.03
770.787	789.32
770.97	709.45
771.152	674.64
771.335	746.31
771.518	713.55
771.7	803.66
771.883	758.6
772.066	852.81
772.248	744.27
772.431	744.27
772.613	652.11
772.796	717.64
772.978	766.79
773.161	713.55
773.343	680.78
773.526	723.79
773.708	650.06
773.891	697.16
774.073	656.2
774.256	672.59
774.438	656.2
774.621	617.29
774.803	688.97
774.985	658.25
775.168	697.16
775.35	625.48
775.532	676.68
775.715	582.48
775.897	652.11
776.079	547.66
776.261	619.34
776.444	625.48
776.626	566.09
776.808	650.06
776.99	590.67
777.173	566.09
777.355	641.87
777.537	576.33
777.719	639.82
777.901	551.76
778.083	635.72
778.265	553.8
778.447	615.24
778.629	541.52
778.811	545.61
778.993	588.62
779.175	664.4
779.357	578.38
779.539	494.41
779.721	535.37
779.903	482.13
780.085	508.75
780.267	535.37
780.449	498.51
780.631	584.52
780.812	533.33
780.994	469.84
781.176	512.85
781.358	500.56
781.54	471.89
781.721	492.37
781.903	549.71
782.085	435.02
782.267	512.85
782.448	469.84
782.63	453.45
782.812	435.02
782.993	475.98
783.175	478.03
783.357	484.17
783.538	447.31
783.72	328.53
783.901	457.55
784.083	361.3
784.264	475.98
784.446	377.68
784.627	381.78
784.809	416.59
784.99	377.68
785.172	494.41
785.353	381.78
785.535	379.73
785.716	377.68
785.897	394.06
786.079	418.64
786.26	369.49
786.441	402.26
786.623	308.05
786.804	357.2
786.985	361.3
787.167	338.77
787.348	389.97
787.529	410.45
787.71	387.92
787.891	394.06
788.073	283.47
788.254	355.15
788.435	297.81
788.616	412.5
788.797	357.2
788.978	312.14
789.159	306
789.34	312.14
789.522	293.71
789.703	312.14
789.884	332.62
790.065	285.52
790.246	361.3
790.427	316.24
790.607	316.24
790.788	389.97
790.969	258.9
791.15	260.95
791.331	359.25
791.512	224.08
791.693	238.42
791.874	363.34
792.054	322.38
792.235	297.81
792.416	254.8
792.597	256.85
792.778	312.14
792.958	404.3
793.139	232.27
793.32	234.32
793.5	287.57
793.681	256.85
793.862	287.57
794.042	324.43
794.223	254.8
794.404	242.51
794.584	158.55
794.765	275.28
794.945	236.37
795.126	295.76
795.306	279.38
795.487	338.77
795.667	242.51
795.848	306
796.028	306
796.209	232.27
796.389	242.51
796.57	281.43
796.75	183.12
796.93	303.95
797.111	215.89
797.291	242.51
797.471	252.75
797.652	242.51
797.832	164.69
798.012	295.76
798.192	234.32
798.373	185.17
798.553	162.64
798.733	271.19
798.913	136.02
799.093	230.23
799.274	238.42
799.454	244.56
799.634	199.51
799.814	207.7
799.994	205.65
800.174	197.46
800.354	156.5
800.534	226.13
800.714	242.51
800.894	187.22
801.074	234.32
801.254	136.02
801.434	156.5
801.614	164.69
801.794	201.55
801.974	656.2
802.154	156.5
802.334	260.95
802.514	189.27
802.693	152.4
802.873	181.07
803.053	207.7
803.233	228.18
803.413	160.59
803.592	240.47
803.772	203.6
803.952	138.07
804.131	269.14
804.311	160.59
804.491	138.07
804.67	176.98
804.85	140.12
805.03	160.59
805.209	129.88
805.389	168.79
805.568	131.92
805.748	213.84
805.928	152.4
806.107	150.36
806.287	267.09
806.466	205.65
806.646	211.79
806.825	197.46
807.004	93.01
807.184	156.5
807.363	224.08
807.543	250.71
807.722	123.73
807.901	191.31
808.081	142.16
808.26	166.74
808.439	170.83
808.619	205.65
808.798	228.18
808.977	209.75
809.156	150.36
809.336	138.07
809.515	181.07
809.694	160.59
809.873	174.93
810.052	203.6
810.231	142.16
810.411	166.74
810.59	136.02
810.769	68.44
810.948	152.4
811.127	160.59
811.306	70.48
811.485	168.79
811.664	193.36
811.843	189.27
812.022	54.1
812.201	176.98
812.38	185.17
812.559	131.92
812.737	197.46
812.916	50
813.095	66.39
813.274	78.68
813.453	93.01
813.632	99.16
813.811	158.55
813.989	70.48
814.168	82.77
814.347	70.48
814.526	133.97
814.704	172.88
814.883	181.07
815.062	133.97
815.24	133.97
815.419	37.72
815.598	78.68
815.776	54.1
815.955	99.16
816.133	107.35
816.312	99.16
816.49	113.49
816.669	82.77
816.847	115.54
817.026	148.31
817.204	148.31
817.383	123.73
817.561	127.83
817.74	160.59
817.918	121.68
818.097	95.06
818.275	72.53
818.453	131.92
818.632	181.07
818.81	72.53
818.988	74.58
819.167	160.59
819.345	37.72
819.523	140.12
819.701	111.44
819.879	117.59
820.058	156.5
820.236	101.2
820.414	105.3
820.592	41.81
820.77	140.12
820.948	191.31
821.127	121.68
821.305	136.02
821.483	99.16
821.661	142.16
821.839	111.44
822.017	82.77
822.195	111.44
822.373	99.16
822.551	131.92
822.729	148.31
822.907	127.83
823.085	115.54
823.262	60.24
823.44	107.35
823.618	21.33
823.796	170.83
823.974	21.33
824.152	64.34
824.329	68.44
824.507	58.2
824.685	82.77
824.863	111.44
825.04	41.81
825.218	127.83
825.396	17.24
825.574	60.24
825.751	54.1
825.929	64.34
826.107	35.67
826.284	74.58
826.462	117.59
826.639	115.54
826.817	154.45
826.994	140.12
827.172	58.2
827.349	15.19
827.527	105.3
827.704	43.86
827.882	103.25
828.059	95.06
828.237	52.05
828.414	133.97
828.591	74.58
828.769	109.4
828.946	107.35
829.124	45.91
829.301	140.12
829.478	105.3
829.655	82.77
829.833	-36.01
830.01	31.57
830.187	78.68
830.364	90.96
830.542	136.02
830.719	99.16
830.896	19.29
831.073	68.44
831.25	117.59
831.427	68.44
831.604	107.35
831.782	31.57
831.959	115.54
832.136	86.87
832.313	52.05
832.49	27.48
832.667	50
832.844	-3.24
833.021	115.54
833.198	35.67
833.374	4.95
833.551	27.48
833.728	103.25
833.905	60.24
834.082	41.81
834.259	131.92
834.436	66.39
834.612	-9.39
834.789	41.81
834.966	-3.24
835.143	58.2
835.319	43.86
835.496	66.39
835.673	95.06
835.85	95.06
836.026	78.68
836.203	27.48
836.38	33.62
836.556	97.11
836.733	113.49
836.909	140.12
837.086	52.05
837.262	58.2
837.439	19.29
837.616	4.95
837.792	39.76
837.968	-13.48
838.145	54.1
838.321	58.2
838.498	2.9
838.674	93.01
838.851	52.05
839.027	25.43
839.203	52.05
839.38	76.63
839.556	93.01
839.732	39.76
839.909	-52.39
840.085	97.11
840.261	-11.43
840.437	144.21
840.614	-23.72
840.79	58.2
840.966	66.39
841.142	41.81
841.318	-56.49
841.494	82.77
841.671	54.1
841.847	109.4
842.023	9.05
842.199	60.24
842.375	70.48
842.551	-13.48
842.727	33.62
842.903	15.19
843.079	2.9
843.255	66.39
843.431	29.52
843.607	140.12
843.783	29.52
843.959	123.73
844.134	37.72
844.31	37.72
844.486	50
844.662	-11.43
844.838	58.2
845.013	90.96
845.189	33.62
845.365	68.44
845.541	-21.67
845.716	52.05
845.892	27.48
846.068	7
846.244	-7.34
846.419	35.67
846.595	-13.48
846.77	31.57
846.946	41.81
847.122	19.29
847.297	4.95
847.473	82.77
847.648	-36.01
847.824	50
847.999	-15.53
848.175	41.81
848.35	52.05
848.526	41.81
848.701	58.2
848.876	117.59
849.052	25.43
849.227	54.1
849.403	-19.63
849.578	19.29
849.753	25.43
849.929	33.62
850.104	9.05
850.279	103.25
850.454	17.24
850.63	19.29
850.805	31.57
850.98	17.24
851.155	25.43
851.33	21.33
851.505	-38.06
851.681	125.78
851.856	-56.49
852.031	50
852.206	25.43
852.381	90.96
852.556	29.52
852.731	64.34
852.906	11.09
853.081	19.29
853.256	45.91
853.431	-68.78
853.606	4.95
853.781	58.2
853.956	-105.64
854.131	-7.34
854.305	60.24
854.48	-25.77
854.655	-17.58
854.83	52.05
855.005	80.72
855.18	4.95
855.354	80.72
855.529	60.24
855.704	-23.72
855.879	103.25
856.053	-5.29
856.228	45.91
856.403	60.24
856.577	29.52
856.752	-70.83
856.926	15.19
857.101	25.43
857.276	41.81
857.45	-15.53
857.625	-36.01
857.799	25.43
857.974	93.01
858.148	0.85
858.323	27.48
858.497	-38.06
858.672	2.9
858.846	50
859.02	43.86
859.195	-15.53
859.369	29.52
859.543	-7.34
859.718	58.2
859.892	29.52
860.066	-27.82
860.241	-36.01
860.415	-15.53
860.589	27.48
860.763	172.88
860.938	-27.82
861.112	33.62
861.286	9.05
861.46	17.24
861.634	37.72
861.808	115.54
861.982	-11.43
862.157	-48.3
862.331	47.96
862.505	-60.59
862.679	4.95
862.853	-64.68
863.027	21.33
863.201	41.81
863.375	9.05
863.549	37.72
863.722	-23.72
863.896	64.34
864.07	-7.34
864.244	58.2
864.418	-31.91
864.592	62.29
864.766	-3.24
864.939	41.81
865.113	29.52
865.287	80.72
865.461	45.91
865.634	25.43
865.808	-3.24
865.982	-36.01
866.156	-7.34
866.329	13.14
866.503	-15.53
866.676	23.38
866.85	-23.72
867.024	58.2
867.197	58.2
867.371	29.52
867.544	54.1
867.718	-21.67
867.891	50
868.065	19.29
868.238	9.05
868.412	7
868.585	27.48
868.759	21.33
868.932	-21.67
869.105	43.86
869.279	13.14
869.452	-23.72
869.625	-40.11
869.799	39.76
869.972	-40.11
870.145	-15.53
870.319	37.72
870.492	-72.87
870.665	19.29
870.838	80.72
871.011	-1.19
871.185	-40.11
871.358	19.29
871.531	9.05
871.704	-11.43
871.877	50
872.05	19.29
872.223	-15.53
872.396	-5.29
872.569	74.58
872.742	-23.72
872.915	52.05
873.088	-5.29
873.261	9.05
873.434	33.62
873.607	-13.48
873.78	37.72
873.953	2.9
874.126	-68.78
874.299	35.67
874.471	-31.91
874.644	11.09
874.817	66.39
874.99	25.43
875.163	50
875.335	-15.53
875.508	-1.19
875.681	19.29
875.853	25.43
876.026	-21.67
876.199	-42.15
876.371	9.05
876.544	-5.29
876.717	-15.53
876.889	-56.49
877.062	45.91
877.234	-9.39
877.407	13.14
877.579	29.52
877.752	50
877.924	11.09
878.097	9.05
878.269	0.85
878.442	-17.58
878.614	31.57
878.786	74.58
878.959	-33.96
879.131	50
879.303	17.24
879.476	-15.53
879.648	7
879.82	4.95
879.993	-11.43
880.165	43.86
880.337	9.05
880.509	45.91
880.681	-40.11
880.854	-44.2
881.026	0.85
881.198	50
881.37	21.33
881.542	35.67
881.714	4.95
881.886	41.81
882.058	-38.06
882.23	-1.19
882.402	9.05
882.574	-54.44
882.746	41.81
882.918	74.58
883.09	11.09
883.262	-21.67
883.434	-76.97
883.606	25.43
883.778	-64.68
883.95	103.25
884.122	-7.34
884.293	2.9
884.465	43.86
884.637	11.09
884.809	-13.48
884.98	0.85
885.152	9.05
885.324	41.81
885.496	9.05
885.667	-13.48
885.839	-7.34
886.011	50
886.182	52.05
886.354	35.67
886.525	62.29
886.697	0.85
886.869	-17.58
887.04	43.86
887.212	66.39
887.383	86.87
887.555	9.05
887.726	-13.48
887.897	-11.43
888.069	52.05
888.24	41.81
888.412	4.95
888.583	-58.54
888.754	66.39
888.926	15.19
889.097	2.9
889.268	29.52
889.44	2.9
889.611	-3.24
889.782	-64.68
889.953	-46.25
890.125	58.2
890.296	-48.3
890.467	-23.72
890.638	-17.58
890.809	29.52
890.98	2.9
891.151	0.85
891.323	33.62
891.494	41.81
891.665	19.29
891.836	-21.67
892.007	-23.72
892.178	50
892.349	29.52
892.52	-48.3
892.691	84.82
892.862	-19.63
893.032	-40.11
893.203	-21.67
893.374	4.95
893.545	9.05
893.716	-15.53
893.887	21.33
894.057	17.24
894.228	-48.3
894.399	-38.06
894.57	9.05
894.74	-68.78
894.911	21.33
895.082	-7.34
895.253	-27.82
895.423	50
895.594	58.2
895.764	4.95
895.935	-5.29
896.106	41.81
896.276	-19.63
896.447	0.85
896.617	-7.34
896.788	-29.87
896.958	25.43
897.129	-31.91
897.299	54.1
897.47	101.2
897.64	9.05
897.81	25.43
897.981	15.19
898.151	-36.01
898.322	43.86
898.492	52.05
898.662	17.24
898.832	13.14
899.003	4.95
899.173	4.95
899.343	17.24
899.513	11.09
