Data from USB4F104151__223__14-21-36-922.txt Node

Date: Thu Mar 13 14:21:36 EDT 2025
User: louis
Spectrometer: USB4F10415
Trigger mode: 4
Integration Time (sec): 2.000000E-2
Scans to average: 1
Electric dark correction enabled: true
Nonlinearity correction enabled: false
Boxcar width: 0
XAxis mode: Wavelengths
Number of Pixels in Spectrum: 3648
>>>>>Begin Spectral Data<<<<<
178.204	-158.72
178.424	-158.72
178.644	-158.72
178.864	-179.2
179.084	-105.47
179.304	-66.56
179.524	-23.55
179.744	-60.42
179.964	115.71
180.184	27.65
180.404	50.18
180.624	-37.89
180.844	-23.55
181.064	-17.41
181.283	-7.17
181.503	-7.17
181.723	50.18
181.943	-64.51
182.163	50.18
182.383	-31.74
182.602	-1.02
182.822	-7.17
183.042	-54.27
183.262	-56.32
183.482	-29.7
183.701	-23.55
183.921	3.07
184.141	13.31
184.361	35.84
184.58	-5.12
184.8	35.84
185.02	17.41
185.239	21.5
185.459	-15.36
185.679	46.08
185.898	3.07
186.118	76.8
186.338	89.09
186.557	29.7
186.777	9.22
186.997	-11.26
187.216	-19.46
187.436	95.23
187.655	-3.07
187.875	13.31
188.095	11.26
188.314	37.89
188.534	56.32
188.753	25.6
188.973	50.18
189.192	13.31
189.412	107.52
189.631	50.18
189.851	29.7
190.07	52.22
190.29	-54.27
190.509	-33.79
190.729	44.03
190.948	-7.17
191.168	58.37
191.387	54.27
191.607	-5.12
191.826	27.65
192.045	33.79
192.265	3.07
192.484	-44.03
192.704	-15.36
192.923	-136.19
193.142	-15.36
193.362	48.13
193.581	50.18
193.8	-44.03
194.02	54.27
194.239	33.79
194.458	80.89
194.678	-23.55
194.897	31.74
195.116	-13.31
195.335	27.65
195.555	80.89
195.774	-82.94
195.993	99.33
196.212	-89.09
196.432	-21.5
196.651	17.41
196.87	5.12
197.089	60.42
197.308	21.5
197.528	64.51
197.747	-41.98
197.966	27.65
198.185	97.28
198.404	-64.51
198.623	-33.79
198.842	109.57
199.062	33.79
199.281	11.26
199.5	-7.17
199.719	64.51
199.938	50.18
200.157	46.08
200.376	-58.37
200.595	-27.65
200.814	-11.26
201.033	62.46
201.252	-9.22
201.471	87.04
201.69	58.37
201.909	9.22
202.128	15.36
202.347	52.22
202.566	-48.13
202.785	66.56
203.004	-5.12
203.223	58.37
203.442	11.26
203.661	-29.7
203.879	-7.17
204.098	-21.5
204.317	19.46
204.536	52.22
204.755	54.27
204.974	19.46
205.193	-58.37
205.411	91.13
205.63	-64.51
205.849	19.46
206.068	7.17
206.287	-23.55
206.505	54.27
206.724	29.7
206.943	-29.7
207.162	-1.02
207.381	21.5
207.599	9.22
207.818	3.07
208.037	3.07
208.255	21.5
208.474	17.41
208.693	68.61
208.911	-29.7
209.13	41.98
209.349	21.5
209.567	50.18
209.786	-5.12
210.005	5.12
210.223	27.65
210.442	15.36
210.661	17.41
210.879	27.65
211.098	41.98
211.316	44.03
211.535	66.56
211.753	-7.17
211.972	60.42
212.191	9.22
212.409	-27.65
212.628	119.81
212.846	-21.5
213.065	48.13
213.283	58.37
213.502	7.17
213.72	13.31
213.938	93.18
214.157	-84.99
214.375	115.71
214.594	29.7
214.812	11.26
215.031	-54.27
215.249	-11.26
215.467	-1.02
215.686	-13.31
215.904	1.02
216.122	5.12
216.341	-44.03
216.559	-15.36
216.778	35.84
216.996	-48.13
217.214	-27.65
217.432	50.18
217.651	-48.13
217.869	-35.84
218.087	9.22
218.306	50.18
218.524	5.12
218.742	54.27
218.96	78.85
219.179	-17.41
219.397	-39.94
219.615	9.22
219.833	11.26
220.051	-39.94
220.27	7.17
220.488	25.6
220.706	17.41
220.924	-17.41
221.142	-23.55
221.36	11.26
221.578	37.89
221.796	48.13
222.015	33.79
222.233	-64.51
222.451	156.67
222.669	9.22
222.887	66.56
223.105	58.37
223.323	35.84
223.541	17.41
223.759	-23.55
223.977	-19.46
224.195	93.18
224.413	27.65
224.631	-19.46
224.849	29.7
225.067	121.85
225.285	17.41
225.503	17.41
225.721	-31.74
225.939	44.03
226.157	7.17
226.375	132.09
226.592	9.22
226.81	-3.07
227.028	78.85
227.246	103.42
227.464	23.55
227.682	31.74
227.9	-44.03
228.117	-23.55
228.335	84.99
228.553	37.89
228.771	-46.08
228.989	35.84
229.206	19.46
229.424	-39.94
229.642	-39.94
229.86	-17.41
230.077	27.65
230.295	-25.6
230.513	41.98
230.731	23.55
230.948	33.79
231.166	50.18
231.384	-3.07
231.601	-21.5
231.819	60.42
232.037	-60.42
232.254	-23.55
232.472	-13.31
232.689	15.36
232.907	78.85
233.125	9.22
233.342	-29.7
233.56	-54.27
233.777	33.79
233.995	-74.75
234.213	66.56
234.43	74.75
234.648	1.02
234.865	9.22
235.083	11.26
235.3	11.26
235.518	3.07
235.735	37.89
235.953	-5.12
236.17	-3.07
236.388	-99.33
236.605	-37.89
236.822	113.66
237.04	109.57
237.257	25.6
237.475	3.07
237.692	17.41
237.909	-1.02
238.127	-13.31
238.344	-3.07
238.562	-29.7
238.779	-41.98
238.996	-80.89
239.214	99.33
239.431	-39.94
239.648	-15.36
239.865	27.65
240.083	-19.46
240.3	70.65
240.517	17.41
240.735	33.79
240.952	111.61
241.169	50.18
241.386	-23.55
241.603	66.56
241.821	-11.26
242.038	50.18
242.255	91.13
242.472	17.41
242.689	33.79
242.907	93.18
243.124	-5.12
243.341	-15.36
243.558	-23.55
243.775	-7.17
243.992	50.18
244.209	19.46
244.426	91.13
244.643	50.18
244.86	-1.02
245.078	-7.17
245.295	-3.07
245.512	35.84
245.729	33.79
245.946	-11.26
246.163	-5.12
246.38	25.6
246.597	15.36
246.814	41.98
247.031	-23.55
247.248	50.18
247.464	41.98
247.681	27.65
247.898	-3.07
248.115	62.46
248.332	-3.07
248.549	31.74
248.766	58.37
248.983	-11.26
249.2	-15.36
249.417	17.41
249.633	3.07
249.85	-17.41
250.067	29.7
250.284	58.37
250.501	58.37
250.717	80.89
250.934	5.12
251.151	48.13
251.368	-27.65
251.585	74.75
251.801	-56.32
252.018	25.6
252.235	25.6
252.451	3.07
252.668	-11.26
252.885	54.27
253.102	5.12
253.318	-15.36
253.535	31.74
253.752	123.9
253.968	-5.12
254.185	-37.89
254.401	5.12
254.618	70.65
254.835	-54.27
255.051	33.79
255.268	21.5
255.484	33.79
255.701	25.6
255.917	31.74
256.134	13.31
256.351	5.12
256.567	-29.7
256.784	-3.07
257	27.65
257.217	27.65
257.433	46.08
257.65	-15.36
257.866	25.6
258.082	35.84
258.299	-35.84
258.515	87.04
258.732	78.85
258.948	-35.84
259.165	9.22
259.381	17.41
259.597	46.08
259.814	-9.22
260.03	-19.46
260.246	5.12
260.463	33.79
260.679	17.41
260.895	82.94
261.112	44.03
261.328	37.89
261.544	50.18
261.761	82.94
261.977	-19.46
262.193	-50.18
262.409	111.61
262.626	99.33
262.842	33.79
263.058	27.65
263.274	33.79
263.49	21.5
263.707	72.7
263.923	27.65
264.139	7.17
264.355	-17.41
264.571	19.46
264.787	-7.17
265.004	9.22
265.22	-19.46
265.436	39.94
265.652	27.65
265.868	17.41
266.084	-5.12
266.3	-7.17
266.516	-39.94
266.732	-25.6
266.948	25.6
267.164	82.94
267.38	27.65
267.596	52.22
267.812	91.13
268.028	50.18
268.244	-31.74
268.46	-23.55
268.676	50.18
268.892	68.61
269.108	37.89
269.324	-25.6
269.54	21.5
269.756	33.79
269.972	9.22
270.188	17.41
270.403	11.26
270.619	-84.99
270.835	27.65
271.051	-3.07
271.267	17.41
271.483	95.23
271.698	17.41
271.914	-64.51
272.13	-5.12
272.346	-11.26
272.562	44.03
272.777	50.18
272.993	-48.13
273.209	11.26
273.425	-13.31
273.64	41.98
273.856	21.5
274.072	29.7
274.287	41.98
274.503	23.55
274.719	5.12
274.934	60.42
275.15	48.13
275.366	115.71
275.581	-44.03
275.797	66.56
276.012	39.94
276.228	27.65
276.444	35.84
276.659	91.13
276.875	5.12
277.09	1.02
277.306	-27.65
277.521	80.89
277.737	41.98
277.952	-11.26
278.168	29.7
278.383	5.12
278.599	-7.17
278.814	-13.31
279.03	84.99
279.245	101.37
279.461	74.75
279.676	29.7
279.892	11.26
280.107	9.22
280.322	-31.74
280.538	21.5
280.753	3.07
280.969	-23.55
281.184	-7.17
281.399	15.36
281.615	-9.22
281.83	-23.55
282.045	-68.61
282.26	-11.26
282.476	-15.36
282.691	11.26
282.906	11.26
283.122	37.89
283.337	52.22
283.552	5.12
283.767	-35.84
283.983	13.31
284.198	70.65
284.413	52.22
284.628	17.41
284.843	9.22
285.058	-35.84
285.274	-39.94
285.489	58.37
285.704	54.27
285.919	-56.32
286.134	-7.17
286.349	-15.36
286.564	44.03
286.779	66.56
286.995	-21.5
287.21	-52.22
287.425	72.7
287.64	-70.65
287.855	50.18
288.07	-48.13
288.285	27.65
288.5	74.75
288.715	78.85
288.93	-13.31
289.145	3.07
289.36	29.7
289.575	5.12
289.79	99.33
290.004	-7.17
290.219	35.84
290.434	50.18
290.649	9.22
290.864	13.31
291.079	1.02
291.294	-21.5
291.509	74.75
291.724	23.55
291.938	9.22
292.153	80.89
292.368	25.6
292.583	27.65
292.798	54.27
293.012	9.22
293.227	-7.17
293.442	1.02
293.657	-3.07
293.871	66.56
294.086	76.8
294.301	23.55
294.516	54.27
294.73	-3.07
294.945	44.03
295.16	37.89
295.374	78.85
295.589	-9.22
295.804	-25.6
296.018	-13.31
296.233	17.41
296.447	-9.22
296.662	52.22
296.877	50.18
297.091	41.98
297.306	9.22
297.52	33.79
297.735	17.41
297.949	54.27
298.164	11.26
298.378	21.5
298.593	-3.07
298.807	9.22
299.022	58.37
299.236	-7.17
299.451	19.46
299.665	29.7
299.88	41.98
300.094	17.41
300.309	70.65
300.523	19.46
300.737	-39.94
300.952	50.18
301.166	68.61
301.381	23.55
301.595	25.6
301.809	-39.94
302.024	-13.31
302.238	-21.5
302.452	54.27
302.667	-13.31
302.881	44.03
303.095	-48.13
303.309	-31.74
303.524	-21.5
303.738	62.46
303.952	-5.12
304.166	-9.22
304.381	-15.36
304.595	74.75
304.809	17.41
305.023	37.89
305.237	-5.12
305.452	19.46
305.666	80.89
305.88	11.26
306.094	74.75
306.308	37.89
306.522	21.5
306.736	-39.94
306.95	39.94
307.164	17.41
307.379	27.65
307.593	52.22
307.807	-5.12
308.021	9.22
308.235	-1.02
308.449	54.27
308.663	25.6
308.877	70.65
309.091	1.02
309.305	17.41
309.519	-48.13
309.733	13.31
309.947	39.94
310.161	3.07
310.374	1.02
310.588	70.65
310.802	-70.65
311.016	5.12
311.23	1.02
311.444	23.55
311.658	41.98
311.872	-52.22
312.085	60.42
312.299	46.08
312.513	44.03
312.727	48.13
312.941	-1.02
313.154	76.8
313.368	27.65
313.582	27.65
313.796	82.94
314.009	33.79
314.223	52.22
314.437	27.65
314.651	-87.04
314.864	27.65
315.078	25.6
315.292	-9.22
315.505	29.7
315.719	54.27
315.933	39.94
316.146	41.98
316.36	-29.7
316.573	-5.12
316.787	27.65
317.001	62.46
317.214	50.18
317.428	-9.22
317.641	-31.74
317.855	1.02
318.068	-39.94
318.282	33.79
318.495	60.42
318.709	80.89
318.922	9.22
319.136	91.13
319.349	41.98
319.563	17.41
319.776	11.26
319.99	29.7
320.203	1.02
320.417	78.85
320.63	-7.17
320.843	25.6
321.057	97.28
321.27	13.31
321.483	-56.32
321.697	23.55
321.91	37.89
322.124	66.56
322.337	80.89
322.55	21.5
322.763	1.02
322.977	13.31
323.19	78.85
323.403	19.46
323.617	-23.55
323.83	35.84
324.043	33.79
324.256	60.42
324.469	-27.65
324.683	7.17
324.896	-54.27
325.109	19.46
325.322	39.94
325.535	17.41
325.748	27.65
325.962	21.5
326.175	17.41
326.388	37.89
326.601	93.18
326.814	3.07
327.027	74.75
327.24	58.37
327.453	5.12
327.666	82.94
327.879	27.65
328.092	-13.31
328.305	17.41
328.518	-33.79
328.731	-13.31
328.944	29.7
329.157	82.94
329.37	-54.27
329.583	109.57
329.796	82.94
330.009	-27.65
330.222	91.13
330.435	58.37
330.648	128
330.861	74.75
331.073	41.98
331.286	25.6
331.499	41.98
331.712	41.98
331.925	-46.08
332.138	82.94
332.35	44.03
332.563	25.6
332.776	25.6
332.989	-5.12
333.202	-13.31
333.414	-3.07
333.627	33.79
333.84	5.12
334.053	66.56
334.265	-15.36
334.478	25.6
334.691	76.8
334.903	17.41
335.116	-17.41
335.329	19.46
335.541	-23.55
335.754	19.46
335.966	5.12
336.179	-11.26
336.392	13.31
336.604	46.08
336.817	87.04
337.029	13.31
337.242	25.6
337.454	89.09
337.667	13.31
337.88	60.42
338.092	19.46
338.305	58.37
338.517	68.61
338.729	33.79
338.942	29.7
339.154	-11.26
339.367	-17.41
339.579	17.41
339.792	-72.7
340.004	-41.98
340.217	-9.22
340.429	99.33
340.641	-7.17
340.854	25.6
341.066	46.08
341.278	56.32
341.491	41.98
341.703	9.22
341.915	52.22
342.128	46.08
342.34	-1.02
342.552	19.46
342.764	44.03
342.977	17.41
343.189	60.42
343.401	-56.32
343.613	-15.36
343.826	41.98
344.038	50.18
344.25	41.98
344.462	-27.65
344.674	66.56
344.886	21.5
345.099	91.13
345.311	-52.22
345.523	13.31
345.735	46.08
345.947	41.98
346.159	-13.31
346.371	74.75
346.583	105.47
346.795	101.37
347.007	35.84
347.219	-7.17
347.431	17.41
347.643	-11.26
347.855	54.27
348.067	52.22
348.279	58.37
348.491	1.02
348.703	-1.02
348.915	74.75
349.127	25.6
349.339	101.37
349.551	-19.46
349.763	70.65
349.975	93.18
350.187	56.32
350.399	99.33
350.61	3.07
350.822	-37.89
351.034	58.37
351.246	13.31
351.458	74.75
351.669	74.75
351.881	70.65
352.093	56.32
352.305	148.48
352.517	64.51
352.728	50.18
352.94	58.37
353.152	44.03
353.363	-5.12
353.575	41.98
353.787	76.8
353.999	3.07
354.21	93.18
354.422	74.75
354.633	50.18
354.845	66.56
355.057	50.18
355.268	27.65
355.48	25.6
355.692	-15.36
355.903	-33.79
356.115	111.61
356.326	-31.74
356.538	142.33
356.749	78.85
356.961	50.18
357.172	119.81
357.384	-64.51
357.595	84.99
357.807	19.46
358.018	-5.12
358.23	9.22
358.441	87.04
358.653	21.5
358.864	27.65
359.075	-9.22
359.287	-21.5
359.498	-7.17
359.709	-54.27
359.921	41.98
360.132	-7.17
360.344	56.32
360.555	35.84
360.766	-13.31
360.977	-46.08
361.189	66.56
361.4	-13.31
361.611	21.5
361.823	93.18
362.034	70.65
362.245	-48.13
362.456	19.46
362.667	21.5
362.879	-44.03
363.09	-7.17
363.301	99.33
363.512	25.6
363.723	50.18
363.935	-39.94
364.146	25.6
364.357	74.75
364.568	27.65
364.779	31.74
364.99	41.98
365.201	-3.07
365.412	60.42
365.623	-23.55
365.834	46.08
366.045	97.28
366.256	37.89
366.467	56.32
366.678	62.46
366.889	82.94
367.1	44.03
367.311	95.23
367.522	44.03
367.733	109.57
367.944	41.98
368.155	74.75
368.366	44.03
368.577	76.8
368.788	74.75
368.999	27.65
369.209	48.13
369.42	121.85
369.631	41.98
369.842	31.74
370.053	3.07
370.264	58.37
370.474	62.46
370.685	-15.36
370.896	58.37
371.107	93.18
371.317	54.27
371.528	37.89
371.739	25.6
371.95	123.9
372.16	27.65
372.371	7.17
372.582	50.18
372.792	50.18
373.003	99.33
373.214	44.03
373.424	33.79
373.635	7.17
373.846	84.99
374.056	-21.5
374.267	87.04
374.477	62.46
374.688	25.6
374.898	23.55
375.109	25.6
375.319	31.74
375.53	82.94
375.74	23.55
375.951	103.42
376.161	107.52
376.372	76.8
376.582	35.84
376.793	23.55
377.003	56.32
377.214	25.6
377.424	29.7
377.635	41.98
377.845	107.52
378.055	95.23
378.266	7.17
378.476	99.33
378.686	50.18
378.897	29.7
379.107	-21.5
379.317	84.99
379.528	-11.26
379.738	46.08
379.948	-5.12
380.158	46.08
380.369	58.37
380.579	-5.12
380.789	17.41
380.999	76.8
381.21	74.75
381.42	74.75
381.63	68.61
381.84	158.72
382.05	111.61
382.261	84.99
382.471	-3.07
382.681	-13.31
382.891	58.37
383.101	113.66
383.311	-48.13
383.521	56.32
383.731	78.85
383.941	3.07
384.151	87.04
384.361	-7.17
384.571	60.42
384.781	78.85
384.991	74.75
385.201	41.98
385.411	17.41
385.621	-35.84
385.831	35.84
386.041	35.84
386.251	54.27
386.461	111.61
386.671	115.71
386.881	93.18
387.091	58.37
387.301	46.08
387.511	11.26
387.72	113.66
387.93	66.56
388.14	50.18
388.35	87.04
388.56	62.46
388.769	37.89
388.979	70.65
389.189	-3.07
389.399	-13.31
389.609	91.13
389.818	132.09
390.028	39.94
390.238	80.89
390.447	-23.55
390.657	3.07
390.867	50.18
391.076	-19.46
391.286	76.8
391.496	72.7
391.705	84.99
391.915	91.13
392.125	58.37
392.334	17.41
392.544	46.08
392.753	91.13
392.963	91.13
393.172	29.7
393.382	15.36
393.591	66.56
393.801	41.98
394.01	160.77
394.22	9.22
394.429	82.94
394.639	82.94
394.848	123.9
395.058	29.7
395.267	58.37
395.477	113.66
395.686	84.99
395.895	91.13
396.105	140.29
396.314	70.65
396.524	111.61
396.733	-35.84
396.942	152.57
397.152	70.65
397.361	144.38
397.57	142.33
397.78	84.99
397.989	80.89
398.198	146.43
398.407	74.75
398.617	50.18
398.826	115.71
399.035	68.61
399.244	142.33
399.453	89.09
399.663	76.8
399.872	84.99
400.081	46.08
400.29	115.71
400.499	87.04
400.708	144.38
400.917	181.25
401.127	95.23
401.336	74.75
401.545	125.95
401.754	111.61
401.963	91.13
402.172	89.09
402.381	84.99
402.59	115.71
402.799	103.42
403.008	146.43
403.217	82.94
403.426	162.81
403.635	123.9
403.844	128
404.053	154.62
404.262	142.33
404.471	175.1
404.68	115.71
404.888	173.05
405.097	101.37
405.306	189.44
405.515	259.07
405.724	93.18
405.933	158.72
406.142	185.34
406.35	191.49
406.559	181.25
406.768	201.72
406.977	308.22
407.185	261.12
407.394	173.05
407.603	232.44
407.812	254.97
408.02	226.3
408.229	197.63
408.438	193.53
408.646	261.12
408.855	312.32
409.064	361.47
409.272	267.26
409.481	367.61
409.69	254.97
409.898	259.07
410.107	361.47
410.315	369.66
410.524	328.7
410.733	394.23
410.941	386.04
411.15	394.23
411.358	418.81
411.567	447.48
411.775	410.62
411.984	461.82
412.192	394.23
412.401	494.58
412.609	529.4
412.818	504.82
413.026	560.12
413.234	576.5
413.443	586.74
413.651	513.02
413.86	578.55
414.068	658.42
414.276	680.95
414.485	654.33
414.693	707.57
414.901	799.73
415.11	746.48
415.318	734.2
415.526	852.98
415.734	883.7
415.943	865.27
416.151	941.04
416.359	969.71
416.567	918.51
416.776	1008.62
416.984	1037.3
417.192	1133.55
417.4	1088.5
417.608	1176.56
417.817	1188.85
418.025	1166.32
418.233	1287.15
418.441	1182.7
418.649	1385.45
418.857	1401.83
419.065	1481.71
419.273	1438.7
419.481	1516.52
419.689	1471.47
419.897	1682.41
420.105	1659.88
420.313	1704.93
420.521	1823.72
420.729	1901.54
420.937	1801.19
421.145	1991.65
421.353	2032.61
421.561	2188.25
421.769	2190.3
421.977	2345.95
422.185	2280.41
422.393	2397.15
422.601	2591.7
422.809	2601.94
423.017	2534.36
423.224	2718.68
423.432	2733.01
423.64	2763.73
423.848	3066.83
424.056	2943.96
424.263	3245.01
424.471	3245.01
424.679	3208.14
424.887	3541.96
425.094	3470.28
425.302	3623.88
425.51	3638.22
425.718	3814.34
425.925	3883.97
426.133	4008.9
426.341	4064.19
426.548	4320.19
426.756	4445.12
426.964	4588.47
427.171	4801.46
427.379	4801.46
427.586	4879.29
427.794	5057.46
428.001	5465
428.209	5551.02
428.417	5434.29
428.624	5766.06
428.832	5899.17
429.039	5800.87
429.247	5751.72
429.454	6460.32
429.662	6814.62
429.869	6343.58
430.076	6796.18
430.284	6595.48
430.491	6988.69
430.699	7277.46
430.906	7097.24
431.114	7381.9
431.321	7754.63
431.528	7723.91
431.736	8364.93
431.943	8661.88
432.15	8383.36
432.358	8328.06
432.565	8964.98
432.772	8807.29
432.979	9360.24
433.187	9421.68
433.394	9649
433.601	10257.25
433.808	10431.33
434.016	10183.52
434.223	10605.41
434.43	11240.28
434.637	11010.9
434.844	11627.34
435.052	11871.05
435.259	11948.87
435.466	11946.83
435.673	11903.82
435.88	12524.35
436.087	13271.86
436.294	13284.15
436.501	13050.68
436.708	13130.55
436.915	13894.44
437.122	14205.74
437.329	14500.64
437.537	14764.83
437.743	14965.53
437.95	14717.73
438.157	15563.54
438.364	16143.11
438.571	15969.04
438.778	16282.38
438.985	17601.27
439.192	17076.99
439.399	17470.2
439.606	17203.96
439.813	18154.22
440.02	19112.67
440.227	18897.63
440.433	18733.79
440.64	19337.94
440.847	19200.73
441.054	19745.49
441.261	20972.22
441.467	20798.15
441.674	20888.26
441.881	21957.3
442.088	21856.95
442.294	21490.36
442.501	22151.85
442.708	22672.04
442.914	23304.86
443.121	24543.88
443.328	23616.15
443.534	25383.55
443.741	24584.84
443.948	24355.47
444.154	26163.82
444.361	25987.7
444.568	26475.12
444.774	25870.97
444.981	26448.49
445.187	26837.61
445.394	27978.33
445.6	27869.78
445.807	30689.84
446.013	29315.65
446.22	29897.27
446.426	30786.09
446.633	31136.29
446.839	32373.27
447.046	31117.86
447.252	32682.51
447.459	32569.87
447.665	32678.41
447.871	33880.57
448.078	35639.78
448.284	33595.9
448.491	34638.32
448.697	35836.38
448.903	36481.49
449.11	36823.5
449.316	35926.49
449.522	36362.71
449.728	37659.07
449.935	38103.48
450.141	38025.66
450.347	38812.08
450.553	37796.29
450.76	37982.65
450.966	39541.16
451.172	38658.48
451.378	39834.02
451.584	39059.88
451.791	40112.54
451.997	39963.04
452.203	40450.45
452.409	40155.55
452.615	40532.37
452.821	39184.81
453.027	38345.14
453.233	40335.77
453.44	38670.77
453.646	39983.52
453.852	39352.74
454.058	40081.82
454.264	38898.09
454.47	39936.41
454.676	39018.92
454.882	40237.47
455.088	36815.31
455.294	36981.2
455.5	37943.74
455.705	38162.87
455.911	36669.9
456.117	35834.33
456.323	35256.81
456.529	33565.18
456.735	35310.05
456.941	34265.59
457.147	33718.78
457.352	32606.73
457.558	32354.83
457.764	32471.57
457.97	31547.93
458.176	31121.96
458.381	31336.99
458.587	29901.37
458.793	29747.77
458.999	27949.65
459.204	30282.29
459.41	29428.29
459.616	27472.48
459.821	27314.78
460.027	27456.09
460.233	26784.36
460.438	25795.19
460.644	26002.04
460.85	24547.98
461.055	24230.54
461.261	24222.35
461.466	22463.15
461.672	21947.06
461.878	23345.82
462.083	21684.92
462.289	21242.56
462.494	20972.22
462.7	19927.76
462.905	19682
463.111	20482.76
463.316	20458.18
463.522	20124.36
463.727	20155.08
463.932	19884.75
464.138	19860.18
464.343	20038.35
464.549	19204.83
464.754	19985.1
464.959	19706.58
465.165	19567.32
465.37	18795.23
465.575	18289.38
465.781	18860.77
465.986	19159.77
466.191	18311.91
466.397	18031.34
466.602	17310.46
466.807	18076.4
467.012	17922.8
467.218	17965.81
467.423	17591.03
467.628	17808.11
467.833	18250.47
468.038	17875.7
468.244	17402.61
468.449	18154.22
468.654	17494.77
468.859	17390.33
469.064	17052.41
469.269	16519.94
469.474	16349.96
469.679	16790.27
469.885	16370.44
470.09	16628.48
470.295	16466.69
470.5	16370.44
470.705	16235.27
470.91	16026.38
471.115	15563.54
471.32	16229.13
471.525	15956.75
471.73	15721.23
471.935	15123.23
472.139	14977.82
472.344	14904.09
472.549	15164.18
472.754	14648.1
472.959	14770.97
473.164	14351.14
473.369	14179.11
473.574	14517.03
473.778	14357.28
473.983	14306.09
474.188	14240.55
474.393	13751.09
474.598	13734.7
474.802	13650.74
475.007	13486.9
475.212	13534
475.417	12839.74
475.621	13028.15
475.826	13085.5
476.031	12886.84
476.235	12434.24
476.44	13052.73
476.645	12698.43
476.849	12669.76
477.054	12305.22
477.259	12110.66
477.463	12139.33
477.668	11711.31
477.872	12012.36
478.077	11715.41
478.282	11619.15
478.486	11506.51
478.691	11275.09
478.895	11451.22
479.1	11221.84
479.304	11207.51
479.509	11092.82
479.713	11094.87
479.918	10949.46
480.122	10806.11
480.326	10992.47
480.531	11275.09
480.735	10967.9
480.94	10879.83
481.144	11021.14
481.348	10716
481.553	10650.46
481.757	10339.17
481.961	10439.52
482.166	10814.3
482.37	10605.41
482.574	10410.85
482.778	10300.26
482.983	10644.32
483.187	10347.36
483.391	10861.4
483.595	10552.16
483.8	10509.15
484.004	10490.72
484.208	10486.62
484.412	10548.06
484.616	10515.3
484.821	10560.35
485.025	10416.99
485.229	10687.32
485.433	10421.09
485.637	10517.34
485.841	10460
486.045	10611.55
486.249	10548.06
486.453	10335.07
486.657	10543.97
486.861	10505.06
487.065	10247.01
487.269	10476.38
487.473	10232.68
487.677	10578.78
487.881	10554.21
488.085	10597.21
488.289	10599.26
488.493	10412.9
488.697	10691.42
488.901	10439.52
489.105	10562.4
489.309	10556.25
489.512	10621.79
489.716	10638.17
489.92	10625.89
490.124	10576.73
490.328	10869.59
490.531	10642.27
490.735	10832.73
490.939	10845.02
491.143	10859.35
491.346	10777.44
491.55	11076.44
491.754	10984.28
491.958	11015
492.161	10879.83
492.365	11035.48
492.569	11121.49
492.772	11092.82
492.976	11187.03
493.18	11299.67
493.383	11633.49
493.587	11414.35
493.79	11371.35
493.994	11166.55
494.197	11422.55
494.401	11481.94
494.605	11598.67
494.808	11813.71
495.012	11780.94
495.215	11801.42
495.419	12151.62
495.622	12133.19
495.825	12362.56
496.029	12256.07
496.232	12436.29
496.436	12245.83
496.639	12747.58
496.843	12528.45
497.046	12655.42
497.249	12778.3
497.453	12905.28
497.656	13138.74
497.859	13230.9
498.063	13353.78
498.266	13724.46
498.469	13460.27
498.673	13744.94
498.876	14002.99
499.079	14328.61
499.282	14215.98
499.485	14261.03
499.689	14443.3
499.892	14582.56
500.095	14715.68
500.298	14852.89
500.501	14967.58
500.705	15362.84
500.908	15573.78
501.111	15588.11
501.314	15737.62
501.517	15854.35
501.72	16155.4
501.923	15987.47
502.126	16681.73
502.329	16888.57
502.532	16773.89
502.735	16894.72
502.938	17441.53
503.141	17220.35
503.344	17783.54
503.547	17599.22
503.75	17867.5
503.953	18146.03
504.156	18377.45
504.359	18604.77
504.562	18399.98
504.765	18866.91
504.968	19010.27
505.17	19383
505.373	19354.33
505.576	19974.86
505.779	19798.74
505.982	19841.75
506.185	20449.99
506.387	20456.14
506.59	20529.86
506.793	20650.69
506.996	20810.43
507.198	21639.86
507.401	21408.44
507.604	21535.42
507.807	22153.9
508.009	22213.29
508.212	22256.3
508.415	22440.62
508.617	22839.97
508.82	23005.86
509.022	22821.54
509.225	23509.66
509.428	23888.53
509.63	23747.22
509.833	23620.25
510.035	24529.55
510.238	24441.48
510.44	24398.48
510.643	24924.8
510.845	25363.07
511.048	25367.16
511.25	25576.06
511.453	25709.18
511.655	26745.45
511.858	26192.5
512.06	26575.47
512.262	26665.58
512.465	26813.03
512.667	27050.6
512.87	27488.86
513.072	27585.12
513.274	28150.35
513.477	28244.56
513.679	28332.62
513.881	29020.74
514.084	29028.93
514.286	28924.49
514.488	29436.48
514.69	29995.57
514.893	29946.42
515.095	30194.23
515.297	30263.86
515.499	30673.45
515.701	30943.78
515.904	31674.91
516.106	31629.85
516.308	31451.68
516.51	31906.33
516.712	31975.96
516.914	32340.5
517.116	32664.08
517.318	33047.05
517.52	33307.14
517.722	33534.46
517.925	33872.38
518.127	33993.21
518.329	34515.44
518.531	34703.85
518.733	34992.62
518.935	35211.75
519.136	35138.02
519.338	35750.37
519.54	35785.18
519.742	36768.21
519.944	36211.16
520.146	37083.59
520.348	36882.89
520.55	37216.71
520.752	37208.52
520.954	38205.88
521.155	37730.75
521.357	38574.52
521.559	38449.59
521.761	39156.14
521.963	38740.4
522.164	39025.07
522.366	39459.24
522.568	39516.58
522.77	39328.17
522.971	40266.14
523.173	40004
523.375	40571.28
523.576	40110.49
523.778	40685.97
523.98	41124.24
524.181	41259.4
524.383	41021.84
524.584	41619.84
524.786	41542.02
524.988	41681.28
525.189	42514.81
525.391	42371.45
525.592	42312.06
525.794	42758.52
525.995	42604.92
526.197	43069.81
526.398	43092.33
526.6	43118.96
526.801	43237.74
527.003	43293.04
527.204	43624.81
527.406	43811.17
527.607	44036.45
527.808	44427.61
528.01	43698.53
528.211	44022.11
528.412	44982.61
528.614	44570.97
528.815	44521.82
529.016	45103.44
529.218	44728.66
529.419	44808.53
529.62	44984.66
529.822	44892.5
530.023	44958.03
530.224	45279.57
530.425	45246.8
530.626	45304.14
530.828	44493.15
531.029	45908.29
531.23	45179.21
531.431	45068.62
531.632	45762.89
531.833	45758.79
532.035	45746.5
532.236	45855.04
532.437	45599.05
532.638	45642.06
532.839	46063.94
533.04	46158.14
533.241	45504.84
533.442	46426.43
533.643	45992.26
533.844	45951.3
534.045	45924.68
534.246	45683.01
534.447	46405.95
534.648	45635.91
534.849	46467.39
535.05	45893.96
535.251	45975.87
535.451	45830.47
535.652	45955.39
535.853	46002.5
536.054	46180.67
536.255	46164.29
536.456	45533.51
536.657	46332.22
536.857	46246.21
537.058	45738.31
537.259	46344.51
537.46	46068.03
537.66	45691.21
537.861	45857.09
538.062	45992.26
538.263	45957.44
538.463	45924.68
538.664	45898.05
538.865	46397.76
539.065	46055.75
539.266	45789.51
539.466	45973.83
539.667	45134.16
539.868	46250.3
540.068	46235.97
540.269	46139.71
540.469	46620.98
540.67	45678.92
540.87	46186.82
541.071	45932.87
541.271	46004.55
541.472	45984.07
541.672	45742.41
541.873	45510.99
542.073	45177.17
542.274	46233.92
542.474	45672.78
542.675	45429.07
542.875	45994.31
543.075	45853
543.276	45033.81
543.476	46500.15
543.676	45433.16
543.877	45910.34
544.077	45764.93
544.277	45597
544.478	45642.06
544.678	45605.19
544.878	45816.13
545.078	45775.17
545.279	45545.8
545.479	45424.97
545.679	45809.99
545.879	45615.43
546.079	45484.36
546.28	45601.1
546.48	45412.68
546.68	45556.04
546.88	45463.88
547.08	45734.21
547.28	45400.4
547.48	45119.82
547.68	45207.89
547.88	44972.37
548.081	45869.38
548.281	45416.78
548.481	44955.99
548.681	45693.25
548.881	45685.06
549.081	45291.85
549.28	45103.44
549.48	45891.91
549.68	45242.7
549.88	45687.11
550.08	44917.07
550.28	45265.23
550.48	44869.97
550.68	45973.83
550.88	45236.56
551.08	45123.92
551.279	45504.84
551.479	45119.82
551.679	45277.52
551.879	45048.14
552.079	45343.05
552.278	44845.4
552.478	45394.25
552.678	45424.97
552.878	45807.94
553.077	45021.52
553.277	44470.62
553.477	45594.95
553.676	44853.59
553.876	45171.02
554.076	45095.25
554.275	45117.78
554.475	44126.56
554.674	45306.19
554.874	44816.72
555.074	45254.99
555.273	44800.34
555.473	45177.17
555.672	44677.46
555.872	44468.57
556.071	44966.23
556.271	45132.11
556.47	44423.51
556.67	44433.75
556.869	44171.61
557.068	44765.52
557.268	43964.77
557.467	44620.12
557.667	44327.26
557.866	44298.59
558.065	44300.64
558.265	44204.38
558.464	43876.71
558.663	44923.22
558.863	43563.37
559.062	45142.35
559.261	44079.46
559.461	44210.53
559.66	43512.17
559.859	44071.26
560.058	43897.19
560.258	44122.46
560.457	43489.64
560.656	43786.6
560.855	43657.57
561.054	43983.2
561.253	43366.76
561.453	43495.78
561.652	43692.39
561.851	43780.45
562.05	43643.24
562.249	43262.32
562.448	43633
562.647	43555.18
562.846	43135.34
563.045	43366.76
563.244	42574.2
563.443	43512.17
563.642	42840.43
563.841	43266.41
564.04	42586.49
564.239	43190.64
564.438	42596.73
564.637	43063.66
564.836	42590.58
565.035	42174.84
565.234	42957.17
565.432	42318.2
565.631	42449.27
565.83	42303.87
566.029	42058.11
566.228	42348.92
566.427	42246.52
566.625	41478.54
566.824	41679.24
567.023	41916.8
567.222	41236.87
567.42	42041.73
567.619	41628.04
567.818	41355.66
568.016	41488.77
568.215	41685.38
568.414	41228.68
568.612	41615.75
568.811	41746.82
569.01	41023.89
569.208	40427.93
569.407	41462.15
569.605	40829.33
569.804	41296.27
570.002	40454.55
570.201	40831.38
570.4	40739.22
570.598	40436.12
570.797	40448.41
570.995	40735.12
571.193	40073.63
571.392	40272.28
571.59	39893.41
571.789	40276.38
571.987	40061.34
572.186	39838.11
572.384	39846.3
572.582	39596.45
572.781	40010.14
572.979	39348.65
573.177	39725.47
573.376	39715.23
573.574	39074.22
573.772	39459.24
573.971	39162.28
574.169	39137.71
574.367	38771.12
574.565	39023.02
574.763	39070.12
574.962	38916.53
575.16	38482.36
575.358	38764.98
575.556	38283.7
575.754	38701.49
575.952	38054.33
576.151	38736.3
576.349	37712.32
576.547	38207.93
576.745	38420.92
576.943	38119.87
577.141	38064.57
577.339	38021.56
577.537	37298.63
577.735	37927.36
577.933	37401.03
578.131	37439.94
578.329	37085.64
578.527	36983.24
578.725	37337.54
578.923	37401.03
579.121	37044.68
579.319	37278.15
579.516	37122.51
579.714	36823.5
579.912	36729.3
580.11	36540.88
580.308	36821.45
580.506	36553.17
580.704	36053.47
580.901	36139.48
581.099	36618.71
581.297	36260.31
581.495	36004.31
581.692	36106.71
581.89	36008.41
582.088	36377.04
582.285	35938.78
582.483	35983.83
582.681	35658.21
582.878	35600.86
583.076	35107.3
583.274	35330.53
583.471	34984.43
583.669	35428.84
583.866	34869.74
584.064	35336.68
584.262	34896.36
584.459	34740.72
584.657	34705.9
584.854	34814.44
585.052	34384.37
585.249	34900.46
585.447	34527.73
585.644	34341.36
585.841	34722.29
586.039	34497.01
586.236	34339.32
586.434	34224.63
586.631	34073.08
586.828	33933.82
587.026	34179.57
587.223	33737.21
587.42	33784.32
587.618	33880.57
587.815	33442.31
588.012	33311.24
588.21	32936.46
588.407	33395.2
588.604	33061.38
588.801	32819.72
588.999	32627.21
589.196	32674.32
589.393	32942.6
589.59	32350.74
589.787	32592.4
589.984	32512.53
590.182	32147.99
590.379	32533.01
590.576	32111.13
590.773	32092.69
590.97	32125.46
591.167	32102.93
591.364	31814.17
591.561	32133.65
591.758	31470.11
591.955	31656.48
592.152	31871.51
592.349	31439.39
592.546	31382.05
592.743	31595.04
592.94	30884.39
593.137	31052.33
593.334	31244.84
593.531	30935.59
593.727	31062.57
593.924	30681.64
594.121	30542.38
594.318	30919.21
594.515	30665.26
594.712	30810.67
594.908	30468.66
595.105	30218.8
595.302	30280.24
595.499	30220.85
595.696	29850.17
595.892	29702.71
596.089	29848.12
596.286	29844.02
596.482	29563.45
596.679	29702.71
596.876	29778.49
597.072	29465.15
597.269	29413.95
597.466	29106.76
597.662	29153.86
597.859	29395.52
598.055	29315.65
598.252	29139.52
598.448	29108.8
598.645	28742.22
598.841	28613.2
599.038	28813.9
599.234	28492.37
599.431	28303.95
599.627	28529.23
599.824	28365.39
600.02	28320.34
600.217	28428.88
600.413	27918.93
600.609	28385.87
600.806	27904.6
601.002	27912.79
601.198	27531.87
601.395	27308.64
601.591	27112.03
601.787	27312.74
601.984	27429.47
602.18	27812.44
602.376	27142.75
602.572	27470.43
602.769	27132.51
602.965	26917.48
603.161	27208.29
603.357	27079.27
603.553	26985.06
603.75	26823.27
603.946	26585.71
604.142	26509.93
604.338	26098.29
604.534	26399.34
604.73	26221.17
604.926	26309.23
605.122	26169.97
605.318	26194.54
605.514	26116.72
605.71	25909.88
605.906	25860.73
606.102	26061.43
606.298	25782.9
606.494	25686.65
606.69	25743.99
606.886	25805.43
607.082	25561.72
607.278	25819.77
607.474	25180.8
607.67	25330.3
607.866	24781.45
608.062	25457.28
608.257	25074.31
608.453	25395.84
608.649	25434.75
608.845	25062.02
609.041	24861.32
609.236	25109.12
609.432	25002.63
609.628	24867.46
609.824	25057.92
610.019	24652.42
610.215	24830.6
610.411	24928.9
610.606	24324.75
610.802	24629.9
610.998	24357.52
611.193	24238.73
611.389	24228.49
611.584	24644.23
611.78	24494.73
611.976	24521.35
612.171	23997.07
612.367	24124.05
612.562	24158.86
612.758	23968.4
612.953	23552.66
613.149	24165.01
613.344	23775.89
613.539	24177.3
613.735	23790.23
613.93	24021.65
614.126	23904.92
614.321	23917.2
614.517	23855.76
614.712	23706.26
614.907	23468.7
615.103	23577.24
615.298	23431.83
615.493	23497.37
615.688	23526.04
615.884	23972.5
616.079	23122.59
616.274	23538.33
616.47	23247.52
616.665	23306.91
616.86	23040.67
617.055	23153.31
617.25	23378.59
617.445	23192.22
617.641	23030.43
617.836	22983.33
618.031	22526.63
618.226	22758.05
618.421	22833.83
618.616	23100.06
618.811	22571.69
619.006	22839.97
619.201	22186.67
619.396	22309.55
619.591	21908.15
619.786	22565.54
619.981	21858.99
620.176	21869.23
620.371	21787.32
620.566	21910.19
620.761	21498.55
620.956	21746.36
621.151	21369.53
621.346	21568.18
621.541	21258.94
621.735	21527.22
621.93	21021.38
622.125	20968.13
622.32	20800.19
622.515	21074.62
622.709	20556.49
622.904	20493
623.099	20503.24
623.294	20632.26
623.488	20497.1
623.683	20499.14
623.878	20040.4
624.072	19999.44
624.267	20261.58
624.462	19948.24
624.656	19755.73
624.851	19778.26
625.046	19815.12
625.24	19575.51
625.435	19309.27
625.629	19415.77
625.824	18948.83
626.018	19239.64
626.213	18670.31
626.407	19018.46
626.602	18467.56
626.796	18752.23
626.991	18647.78
627.185	18563.81
627.38	18260.71
627.574	18279.15
627.768	18025.2
627.963	17926.89
628.157	17955.57
628.352	17971.95
628.546	17806.06
628.74	17998.57
628.935	17562.36
629.129	17576.69
629.323	17423.09
629.517	17191.67
629.712	17193.72
629.906	16919.29
630.1	17050.36
630.294	16999.16
630.489	16909.05
630.683	16737.02
630.877	16589.57
631.071	16825.09
631.265	16605.95
631.459	16478.98
631.653	16278.28
631.848	16270.09
632.042	16145.16
632.236	15977.23
632.43	15905.55
632.624	16030.48
632.818	15923.98
633.012	15667.98
633.206	15692.56
633.4	15729.42
633.594	15418.13
633.788	15534.87
633.982	15475.48
634.176	15495.96
634.369	15289.11
634.563	15375.13
634.757	15121.18
634.951	15149.85
635.145	15231.77
635.339	14992.16
635.533	14770.97
635.726	14863.13
635.92	14537.51
636.114	14773.02
636.308	14580.51
636.501	14258.98
636.695	14459.68
636.889	14068.52
637.083	14070.57
637.276	14250.79
637.47	14091.05
637.664	13921.07
637.857	14089
638.051	13929.26
638.244	13878.06
638.438	13830.96
638.632	13546.29
638.825	13427.51
639.019	13787.95
639.212	13304.63
639.406	13411.12
639.599	13480.75
639.793	13288.25
639.986	13071.16
640.18	12970.81
640.373	13196.09
640.567	12809.02
640.76	12823.36
640.954	12854.08
641.147	12657.47
641.34	12772.16
641.534	12749.63
641.727	12733.25
641.92	12428.1
642.114	12346.18
642.307	12135.24
642.5	12421.95
642.694	12112.71
642.887	12114.76
643.08	12131.14
643.273	11963.21
643.467	12110.66
643.66	11973.45
643.853	12034.89
644.046	11852.62
644.239	11604.81
644.432	11701.07
644.626	11563.86
644.819	11518.8
645.012	11404.11
645.205	11504.46
645.398	11623.25
645.591	11324.24
645.784	11379.54
645.977	11141.97
646.17	11049.82
646.363	11103.06
646.556	10814.3
646.749	10900.31
646.942	11021.14
647.135	10765.15
647.328	10591.07
647.521	10799.96
647.714	10652.51
647.907	10568.54
648.099	10595.17
648.292	10562.4
648.485	10447.71
648.678	10357.6
648.871	10447.71
649.064	10300.26
649.256	10365.79
649.449	10146.66
649.642	10210.15
649.835	10015.59
650.027	10242.92
650.22	9823.08
650.413	9870.19
650.605	9849.71
650.798	9945.96
650.991	9659.24
651.183	9884.52
651.376	9569.13
651.568	9661.29
651.761	9440.11
651.954	9509.74
652.146	9538.41
652.339	9319.28
652.531	9372.53
652.724	9261.94
652.916	9190.26
653.109	9069.43
653.301	9069.43
653.494	9243.51
653.686	8924.02
653.879	9059.19
654.071	8956.79
654.263	8893.3
654.456	9007.99
654.648	9065.33
654.84	8782.71
655.033	8614.78
655.225	8694.65
655.417	8541.05
655.61	8596.35
655.802	8631.16
655.994	8452.99
656.186	8543.1
656.379	8536.96
656.571	8541.05
656.763	8391.55
656.955	8188.8
657.148	8231.81
657.34	8424.32
657.532	8262.53
657.724	8147.84
657.916	8334.21
658.108	8280.96
658.3	7887.75
658.492	8020.87
658.684	7834.5
658.876	7928.71
659.068	7869.32
659.26	7861.13
659.452	8029.06
659.644	7764.87
659.836	7644.04
660.028	7687.05
660.22	7357.33
660.412	7355.28
660.604	7463.82
660.796	7519.12
660.988	7328.66
661.18	7355.28
661.372	7250.83
661.563	7392.14
661.755	7203.73
661.947	7404.43
662.139	7216.02
662.331	7187.35
662.522	7205.78
662.714	6949.78
662.906	7048.08
663.097	6972.31
663.289	6982.55
663.481	6849.43
663.673	6878.1
663.864	7021.46
664.056	6853.53
664.247	6792.09
664.439	6757.27
664.631	6697.88
664.822	6824.86
665.014	6777.75
665.205	6816.66
665.397	6603.68
665.588	6505.37
665.78	6421.41
665.971	6445.98
666.163	6564.76
666.354	6335.39
666.546	6409.12
666.737	6292.38
666.929	6185.89
667.12	6443.93
667.311	6214.56
667.503	6122.4
667.694	6237.09
667.885	6065.06
668.077	6212.51
668.268	6206.37
668.459	6146.98
668.651	5884.84
668.842	5989.28
669.033	5989.28
669.224	5915.56
669.416	6017.96
669.607	6003.62
669.798	5886.89
669.989	6042.53
670.18	5809.06
670.371	5637.03
670.563	5755.82
670.754	5634.99
670.945	5669.8
671.136	5821.35
671.327	5557.16
671.518	5751.72
671.709	5657.51
671.9	5559.21
672.091	5559.21
672.282	5544.88
672.473	5518.25
672.664	5415.85
672.855	5319.6
673.046	5378.99
673.237	5387.18
673.428	5284.78
673.619	5233.58
673.809	5249.97
674	5342.13
674.191	5202.86
674.382	5288.88
674.573	5260.21
674.764	5305.26
674.954	5262.26
675.145	4981.68
675.336	5157.81
675.527	5063.6
675.717	5178.29
675.908	5092.27
676.099	5018.55
676.289	5108.66
676.48	4846.52
676.671	4942.77
676.861	5057.46
677.052	4873.14
677.243	5008.31
677.433	4903.86
677.624	4887.48
677.814	4860.85
678.005	4705.21
678.195	4762.55
678.386	4694.97
678.576	4797.37
678.767	4701.11
678.957	4674.49
679.148	4836.28
679.338	4760.5
679.529	4660.15
679.719	4522.94
679.909	4744.12
680.1	4629.43
680.29	4692.92
680.481	4629.43
680.671	4508.6
680.861	4596.67
681.052	4608.95
681.242	4565.95
681.432	4424.64
681.622	4365.25
681.813	4451.26
682.003	4453.31
682.193	4338.62
682.383	4342.72
682.573	4469.69
682.764	4320.19
682.954	4309.95
683.144	4295.61
683.334	4393.92
683.524	4285.37
683.714	4240.32
683.904	4142.02
684.094	4244.42
684.284	4254.66
684.474	4182.98
684.664	4187.07
684.854	4260.8
685.044	4260.8
685.234	4170.69
685.424	4139.97
685.614	4008.9
685.804	4142.02
685.994	4060.1
686.184	4056
686.374	3990.47
686.564	4080.58
686.753	4023.23
686.943	3820.49
687.133	4064.19
687.323	3787.72
687.513	3906.5
687.702	3855.3
687.892	3851.21
688.082	3836.87
688.272	3869.64
688.461	3793.86
688.651	3683.27
688.841	3752.9
689.03	3738.57
689.22	3787.72
689.41	3562.44
689.599	3621.83
689.789	3746.76
689.979	3584.97
690.168	3806.15
690.358	3689.42
690.547	3582.92
690.737	3550.15
690.926	3546.06
691.116	3574.73
691.305	3574.73
691.495	3515.34
691.684	3339.21
691.874	3503.05
692.063	3490.76
692.252	3523.53
692.442	3404.75
692.631	3408.84
692.82	3449.8
693.01	3396.56
693.199	3419.08
693.388	3410.89
693.578	3288.01
693.767	3462.09
693.956	3349.45
694.146	3288.01
694.335	3320.78
694.524	3230.67
694.713	3367.88
694.902	3328.97
695.092	3359.69
695.281	3425.23
695.47	3163.09
695.659	3255.25
695.848	3183.57
696.037	3230.67
696.226	3253.2
696.415	3195.86
696.604	3281.87
696.793	3179.47
696.982	3206.1
697.171	3197.9
697.36	3171.28
697.549	3118.03
697.738	3046.35
697.927	3169.23
698.116	3109.84
698.305	3138.51
698.494	3048.4
698.683	3005.39
698.872	3163.09
699.061	3064.79
699.25	3079.12
699.438	3093.46
699.627	3032.02
699.816	2991.06
700.005	2993.11
700.193	3060.69
700.382	3091.41
700.571	3062.74
700.76	3007.44
700.948	3003.35
701.137	3015.63
701.326	3107.79
701.514	2831.32
701.703	2958.29
701.892	2810.84
702.08	2929.62
702.269	2819.03
702.457	2923.48
702.646	2890.71
702.834	2827.22
703.023	2839.51
703.212	3052.5
703.4	2956.24
703.589	2835.41
703.777	2982.87
703.965	2905.04
704.154	2796.5
704.342	2870.23
704.531	2898.9
704.719	2894.8
704.907	2982.87
705.096	2835.41
705.284	2829.27
705.472	2851.8
705.661	2898.9
705.849	2749.4
706.037	2716.63
706.226	2769.88
706.414	2835.41
706.602	2851.8
706.79	2733.01
706.979	2794.45
707.167	2630.62
707.355	2720.73
707.543	2647
707.731	2839.51
707.919	2622.42
708.107	2679.77
708.296	2612.18
708.484	2673.62
708.672	2665.43
708.86	2733.01
709.048	2687.96
709.236	2667.48
709.424	2696.15
709.612	2585.56
709.8	2700.25
709.988	2536.41
710.176	2622.42
710.364	2640.86
710.551	2647
710.739	2520.03
710.927	2544.6
711.115	2501.59
711.303	2626.52
711.491	2544.6
711.679	2569.18
711.866	2573.27
712.054	2755.54
712.242	2583.51
712.43	2601.94
712.617	2497.5
712.805	2565.08
712.993	2520.03
713.181	2520.03
713.368	2477.02
713.556	2579.42
713.744	2454.49
713.931	2540.51
714.119	2442.2
714.306	2483.16
714.494	2399.2
714.682	2532.31
714.869	2542.55
715.057	2446.3
715.244	2386.91
715.432	2429.91
715.619	2464.73
715.807	2470.87
715.994	2481.11
716.182	2503.64
716.369	2327.52
716.556	2460.63
716.744	2274.27
716.931	2261.98
717.119	2436.06
717.306	2483.16
717.493	2378.72
717.681	2333.66
717.868	2319.32
718.055	2474.97
718.242	2288.61
718.43	2339.8
718.617	2384.86
718.804	2335.71
718.991	2436.06
719.179	2372.57
719.366	2345.95
719.553	2206.69
719.74	2272.22
719.927	2282.46
720.114	2352.09
720.301	2216.93
720.488	2356.19
720.676	2245.6
720.863	2321.37
721.05	2360.28
721.237	2255.84
721.424	2323.42
721.611	2264.03
721.798	2276.32
721.985	2118.62
722.172	2196.45
722.358	2188.25
722.545	2137.06
722.732	2190.3
722.919	2190.3
723.106	2188.25
723.293	2321.37
723.48	2196.45
723.667	2278.37
723.853	2100.19
724.04	2221.02
724.227	2026.47
724.414	2122.72
724.6	2290.65
724.787	2180.06
724.974	2147.3
725.161	2173.92
725.347	2182.11
725.534	2206.69
725.72	2143.2
725.907	2192.35
726.094	2143.2
726.28	2137.06
726.467	2085.86
726.653	2100.19
726.84	2098.14
727.027	2051.04
727.213	2053.09
727.4	2051.04
727.586	2008.03
727.773	2218.97
727.959	2114.53
728.145	2139.1
728.332	2151.39
728.518	2026.47
728.705	2024.42
728.891	1979.36
729.077	2061.28
729.264	2200.54
729.45	2026.47
729.636	2089.95
729.823	2012.13
730.009	2075.62
730.195	1999.84
730.382	1995.75
730.568	1946.59
730.754	2137.06
730.94	1977.31
731.126	2020.32
731.313	2014.18
731.499	1991.65
731.685	2012.13
731.871	1938.4
732.057	2118.62
732.243	1977.31
732.429	1995.75
732.615	2081.76
732.801	2083.81
732.987	1917.92
733.173	1952.74
733.359	1928.16
733.545	1903.59
733.731	1917.92
733.917	2034.66
734.103	1868.77
734.289	1938.4
734.475	1891.3
734.661	2059.23
734.847	1895.4
735.033	1934.31
735.219	1879.01
735.404	1895.4
735.59	1788.9
735.776	1885.16
735.962	1821.67
736.148	1889.25
736.333	1936.35
736.519	1897.44
736.705	1790.95
736.89	1805.28
737.076	1893.35
737.262	1889.25
737.447	1815.52
737.633	1868.77
737.819	1883.11
738.004	1838.05
738.19	1821.67
738.375	1889.25
738.561	1827.81
738.747	1754.09
738.932	1698.79
739.118	1801.19
739.303	1725.41
739.489	1768.42
739.674	1717.22
739.859	1735.65
740.045	1795.04
740.23	1778.66
740.416	1725.41
740.601	1688.55
740.786	1811.43
740.972	1606.63
741.157	1737.7
741.342	1641.45
741.528	1731.56
741.713	1754.09
741.898	1704.93
742.084	1561.58
742.269	1692.65
742.454	1657.83
742.639	1639.4
742.824	1637.35
743.01	1706.98
743.195	1553.38
743.38	1616.87
743.565	1602.54
743.75	1676.26
743.935	1506.28
744.12	1643.49
744.305	1590.25
744.49	1588.2
744.675	1557.48
744.86	1516.52
745.045	1526.76
745.23	1557.48
745.415	1594.34
745.6	1604.58
745.785	1446.89
745.97	1500.14
746.155	1440.75
746.34	1561.58
746.525	1500.14
746.71	1559.53
746.895	1491.95
747.079	1438.7
747.264	1453.03
747.449	1453.03
747.634	1385.45
747.819	1463.27
748.003	1385.45
748.188	1369.07
748.373	1453.03
748.557	1459.18
748.742	1393.64
748.927	1426.41
749.111	1346.54
749.296	1403.88
749.481	1373.16
749.665	1444.84
749.85	1285.1
750.034	1369.07
750.219	1397.74
750.404	1295.34
750.588	1313.77
750.773	1190.89
750.957	1213.42
751.141	1182.7
751.326	1254.38
751.51	1182.7
751.695	1319.92
751.879	1258.48
752.064	1309.68
752.248	1197.04
752.432	1285.1
752.617	1199.09
752.801	1178.61
752.985	1215.47
753.17	1207.28
753.354	1201.13
753.538	1197.04
753.722	1072.11
753.907	1082.35
754.091	1147.89
754.275	1180.65
754.459	1070.06
754.643	1070.06
754.828	1164.27
755.012	1108.98
755.196	1051.63
755.38	1154.03
755.564	1016.82
755.748	1102.83
755.932	1102.83
756.116	1074.16
756.3	1104.88
756.484	1127.41
756.668	1047.54
756.852	1022.96
757.036	1025.01
757.22	1008.62
757.404	986.1
757.588	951.28
757.772	926.71
757.956	1014.77
758.14	967.67
758.323	953.33
758.507	967.67
758.691	1010.67
758.875	969.71
759.059	1000.43
759.242	912.37
759.426	885.75
759.61	855.03
759.794	883.7
759.977	898.03
760.161	1041.39
760.345	898.03
760.528	961.52
760.712	875.51
760.895	861.17
761.079	949.23
761.263	828.4
761.446	834.55
761.63	789.49
761.813	887.79
761.997	820.21
762.18	844.79
762.364	928.75
762.547	760.82
762.731	848.88
762.914	779.25
763.098	879.6
763.281	844.79
763.464	859.12
763.648	902.13
763.831	799.73
764.015	846.84
764.198	832.5
764.381	787.44
764.564	750.58
764.748	834.55
764.931	861.17
765.114	756.72
765.297	818.16
765.481	779.25
765.664	799.73
765.847	766.96
766.03	807.92
766.213	760.82
766.397	701.43
766.58	789.49
766.763	758.77
766.946	754.68
767.129	744.44
767.312	691.19
767.495	773.11
767.678	787.44
767.861	830.45
768.044	705.53
768.227	703.48
768.41	754.68
768.593	756.72
768.776	812.02
768.959	746.48
769.142	726
769.324	658.42
769.507	664.57
769.69	830.45
769.873	639.99
770.056	812.02
770.239	758.77
770.421	680.95
770.604	709.62
770.787	758.77
770.97	693.24
771.152	689.14
771.335	648.18
771.518	664.57
771.7	689.14
771.883	648.18
772.066	668.66
772.248	683
772.431	662.52
772.613	748.53
772.796	596.98
772.978	680.95
773.161	590.84
773.343	607.22
773.526	648.18
773.708	662.52
773.891	625.65
774.073	635.89
774.256	564.22
774.438	582.65
774.621	582.65
774.803	693.24
774.985	607.22
775.168	592.89
775.35	551.93
775.532	599.03
775.715	676.85
775.897	633.85
776.079	553.98
776.261	541.69
776.444	521.21
776.626	629.75
776.808	617.46
776.99	578.55
777.173	619.51
777.355	535.54
777.537	490.49
777.719	562.17
777.901	558.07
778.083	553.98
778.265	476.15
778.447	599.03
778.629	517.11
778.811	580.6
778.993	574.46
779.175	504.82
779.357	500.73
779.539	427
779.721	553.98
779.903	500.73
780.085	500.73
780.267	494.58
780.449	560.12
780.631	533.5
780.812	537.59
780.994	498.68
781.176	527.35
781.358	451.58
781.54	508.92
781.721	447.48
781.903	480.25
782.085	445.43
782.267	486.39
782.448	427
782.63	392.19
782.812	435.19
782.993	508.92
783.175	418.81
783.357	445.43
783.538	429.05
783.72	459.77
783.901	435.19
784.083	443.39
784.264	361.47
784.446	373.75
784.627	449.53
784.809	418.81
784.99	418.81
785.172	373.75
785.353	363.51
785.535	367.61
785.716	400.38
785.897	324.6
786.079	381.95
786.26	386.04
786.441	439.29
786.623	330.75
786.804	302.08
786.985	355.32
787.167	363.51
787.348	330.75
787.529	340.99
787.71	431.1
787.891	340.99
788.073	334.84
788.254	326.65
788.435	427
788.616	328.7
788.797	377.85
788.978	336.89
789.159	279.55
789.34	302.08
789.522	228.35
789.703	308.22
789.884	320.51
790.065	427
790.246	412.67
790.427	275.45
790.607	281.6
790.788	388.09
790.969	214.01
791.15	230.4
791.331	310.27
791.512	248.83
791.693	279.55
791.874	336.89
792.054	383.99
792.235	269.31
792.416	279.55
792.597	279.55
792.778	289.79
792.958	306.17
793.139	222.2
793.32	232.44
793.5	214.01
793.681	248.83
793.862	271.36
794.042	248.83
794.223	267.26
794.404	275.45
794.584	271.36
794.765	279.55
794.945	320.51
795.126	259.07
795.306	316.41
795.487	218.11
795.667	238.59
795.848	312.32
796.028	246.78
796.209	191.49
796.389	214.01
796.57	197.63
796.75	150.53
796.93	254.97
797.111	160.77
797.291	271.36
797.471	226.3
797.652	265.21
797.832	160.77
798.012	156.67
798.192	207.87
798.373	140.29
798.553	209.92
798.733	275.45
798.913	199.68
799.093	248.83
799.274	265.21
799.454	246.78
799.634	175.1
799.814	246.78
799.994	252.92
800.174	248.83
800.354	234.49
800.534	218.11
800.714	199.68
800.894	209.92
801.074	201.72
801.254	214.01
801.434	193.53
801.614	134.14
801.794	193.53
801.974	644.09
802.154	230.4
802.334	273.4
802.514	130.05
802.693	173.05
802.873	140.29
803.053	232.44
803.233	254.97
803.413	166.91
803.592	164.86
803.772	132.09
803.952	177.15
804.131	173.05
804.311	158.72
804.491	199.68
804.67	138.24
804.85	152.57
805.03	140.29
805.209	214.01
805.389	193.53
805.568	148.48
805.748	142.33
805.928	254.97
806.107	222.2
806.287	218.11
806.466	189.44
806.646	150.53
806.825	164.86
807.004	191.49
807.184	181.25
807.363	148.48
807.543	156.67
807.722	82.94
807.901	201.72
808.081	109.57
808.26	103.42
808.439	136.19
808.619	136.19
808.798	164.86
808.977	84.99
809.156	142.33
809.336	132.09
809.515	173.05
809.694	107.52
809.873	109.57
810.052	125.95
810.231	134.14
810.411	156.67
810.59	128
810.769	33.79
810.948	222.2
811.127	99.33
811.306	121.85
811.485	87.04
811.664	162.81
811.843	41.98
812.022	181.25
812.201	107.52
812.38	201.72
812.559	144.38
812.737	95.23
812.916	140.29
813.095	87.04
813.274	164.86
813.453	242.68
813.632	140.29
813.811	158.72
813.989	130.05
814.168	107.52
814.347	113.66
814.526	115.71
814.704	148.48
814.883	160.77
815.062	111.61
815.24	150.53
815.419	80.89
815.598	115.71
815.776	109.57
815.955	130.05
816.133	39.94
816.312	121.85
816.49	17.41
816.669	119.81
816.847	125.95
817.026	91.13
817.204	111.61
817.383	99.33
817.561	58.37
817.74	99.33
817.918	150.53
818.097	125.95
818.275	193.53
818.453	158.72
818.632	89.09
818.81	29.7
818.988	64.51
819.167	29.7
819.345	78.85
819.523	33.79
819.701	95.23
819.879	146.43
820.058	113.66
820.236	82.94
820.414	46.08
820.592	97.28
820.77	74.75
820.948	134.14
821.127	46.08
821.305	115.71
821.483	117.76
821.661	142.33
821.839	66.56
822.017	60.42
822.195	29.7
822.373	99.33
822.551	82.94
822.729	95.23
822.907	93.18
823.085	39.94
823.262	68.61
823.44	130.05
823.618	33.79
823.796	166.91
823.974	19.46
824.152	78.85
824.329	168.96
824.507	70.65
824.685	62.46
824.863	99.33
825.04	66.56
825.218	91.13
825.396	173.05
825.574	136.19
825.751	117.76
825.929	37.89
826.107	66.56
826.284	21.5
826.462	54.27
826.639	117.76
826.817	50.18
826.994	93.18
827.172	54.27
827.349	107.52
827.527	-31.74
827.704	84.99
827.882	103.42
828.059	123.9
828.237	78.85
828.414	64.51
828.591	9.22
828.769	78.85
828.946	62.46
829.124	64.51
829.301	17.41
829.478	35.84
829.655	101.37
829.833	7.17
830.01	95.23
830.187	91.13
830.364	21.5
830.542	50.18
830.719	84.99
830.896	50.18
831.073	54.27
831.25	52.22
831.427	70.65
831.604	158.72
831.782	27.65
831.959	39.94
832.136	66.56
832.313	132.09
832.49	21.5
832.667	74.75
832.844	33.79
833.021	60.42
833.198	70.65
833.374	60.42
833.551	-1.02
833.728	25.6
833.905	87.04
834.082	41.98
834.259	-3.07
834.436	107.52
834.612	99.33
834.789	74.75
834.966	66.56
835.143	99.33
835.319	37.89
835.496	107.52
835.673	80.89
835.85	97.28
836.026	19.46
836.203	74.75
836.38	105.47
836.556	-3.07
836.733	58.37
836.909	50.18
837.086	39.94
837.262	17.41
837.439	52.22
837.616	84.99
837.792	111.61
837.968	74.75
838.145	35.84
838.321	76.8
838.498	11.26
838.674	105.47
838.851	-31.74
839.027	29.7
839.203	72.7
839.38	82.94
839.556	11.26
839.732	121.85
839.909	44.03
840.085	66.56
840.261	-5.12
840.437	33.79
840.614	11.26
840.79	29.7
840.966	44.03
841.142	95.23
841.318	-15.36
841.494	21.5
841.671	66.56
841.847	70.65
842.023	11.26
842.199	11.26
842.375	27.65
842.551	-27.65
842.727	-54.27
842.903	11.26
843.079	66.56
843.255	97.28
843.431	95.23
843.607	95.23
843.783	-19.46
843.959	76.8
844.134	25.6
844.31	89.09
844.486	31.74
844.662	13.31
844.838	-99.33
845.013	37.89
845.189	13.31
845.365	19.46
845.541	37.89
845.716	37.89
845.892	50.18
846.068	7.17
846.244	54.27
846.419	56.32
846.595	41.98
846.77	54.27
846.946	74.75
847.122	33.79
847.297	17.41
847.473	101.37
847.648	1.02
847.824	52.22
847.999	-3.07
848.175	19.46
848.35	-5.12
848.526	82.94
848.701	-11.26
848.876	64.51
849.052	72.7
849.227	52.22
849.403	21.5
849.578	41.98
849.753	31.74
849.929	29.7
850.104	58.37
850.279	11.26
850.454	-7.17
850.63	76.8
850.805	46.08
850.98	107.52
851.155	-35.84
851.33	-35.84
851.505	-5.12
851.681	-3.07
851.856	33.79
852.031	-27.65
852.206	60.42
852.381	62.46
852.556	-37.89
852.731	35.84
852.906	-9.22
853.081	7.17
853.256	95.23
853.431	39.94
853.606	41.98
853.781	-39.94
853.956	-31.74
854.131	-33.79
854.305	-27.65
854.48	-7.17
854.655	17.41
854.83	1.02
855.005	-15.36
855.18	17.41
855.354	1.02
855.529	68.61
855.704	17.41
855.879	68.61
856.053	3.07
856.228	41.98
856.403	-48.13
856.577	9.22
856.752	19.46
856.926	-13.31
857.101	52.22
857.276	-78.85
857.45	-7.17
857.625	80.89
857.799	35.84
857.974	111.61
858.148	3.07
858.323	60.42
858.497	1.02
858.672	44.03
858.846	21.5
859.02	66.56
859.195	-23.55
859.369	29.7
859.543	25.6
859.718	-27.65
859.892	58.37
860.066	37.89
860.241	-64.51
860.415	-37.89
860.589	44.03
860.763	-9.22
860.938	15.36
861.112	19.46
861.286	-60.42
861.46	-3.07
861.634	3.07
861.808	37.89
861.982	-15.36
862.157	21.5
862.331	-89.09
862.505	-80.89
862.679	-9.22
862.853	11.26
863.027	27.65
863.201	76.8
863.375	-21.5
863.549	-5.12
863.722	-7.17
863.896	-29.7
864.07	70.65
864.244	17.41
864.418	5.12
864.592	11.26
864.766	17.41
864.939	19.46
865.113	-48.13
865.287	9.22
865.461	-7.17
865.634	-11.26
865.808	68.61
865.982	37.89
866.156	-31.74
866.329	17.41
866.503	-5.12
866.676	1.02
866.85	-5.12
867.024	-7.17
867.197	-3.07
867.371	72.7
867.544	-48.13
867.718	-15.36
867.891	66.56
868.065	19.46
868.238	-64.51
868.412	23.55
868.585	-56.32
868.759	17.41
868.932	-11.26
869.105	41.98
869.279	11.26
869.452	-7.17
869.625	-58.37
869.799	-23.55
869.972	-62.46
870.145	-29.7
870.319	-52.22
870.492	33.79
870.665	-21.5
870.838	-107.52
871.011	-64.51
871.185	13.31
871.358	-23.55
871.531	33.79
871.704	82.94
871.877	35.84
872.05	-5.12
872.223	13.31
872.396	-7.17
872.569	72.7
872.742	-31.74
872.915	9.22
873.088	29.7
873.261	44.03
873.434	37.89
873.607	68.61
873.78	-21.5
873.953	-19.46
874.126	1.02
874.299	5.12
874.471	-21.5
874.644	7.17
874.817	87.04
874.99	-11.26
875.163	7.17
875.335	52.22
875.508	-23.55
875.681	74.75
875.853	-62.46
876.026	37.89
876.199	115.71
876.371	41.98
876.544	-1.02
876.717	15.36
876.889	-31.74
877.062	17.41
877.234	13.31
877.407	-3.07
877.579	29.7
877.752	132.09
877.924	44.03
878.097	-64.51
878.269	-7.17
878.442	7.17
878.614	-23.55
878.786	9.22
878.959	-15.36
879.131	27.65
879.303	-72.7
879.476	-46.08
879.648	64.51
879.82	25.6
879.993	-41.98
880.165	-15.36
880.337	-56.32
880.509	25.6
880.681	-5.12
880.854	-29.7
881.026	-29.7
881.198	-48.13
881.37	1.02
881.542	-39.94
881.714	54.27
881.886	11.26
882.058	-15.36
882.23	-121.85
882.402	-60.42
882.574	1.02
882.746	50.18
882.918	-21.5
883.09	50.18
883.262	5.12
883.434	-3.07
883.606	1.02
883.778	-62.46
883.95	58.37
884.122	41.98
884.293	-7.17
884.465	-5.12
884.637	25.6
884.809	44.03
884.98	3.07
885.152	-52.22
885.324	-5.12
885.496	-48.13
885.667	119.81
885.839	5.12
886.011	-33.79
886.182	-72.7
886.354	44.03
886.525	35.84
886.697	9.22
886.869	-11.26
887.04	17.41
887.212	-5.12
887.383	44.03
887.555	-9.22
887.726	-48.13
887.897	27.65
888.069	-44.03
888.24	-23.55
888.412	5.12
888.583	-19.46
888.754	25.6
888.926	-27.65
889.097	-60.42
889.268	-44.03
889.44	-64.51
889.611	-50.18
889.782	-21.5
889.953	-3.07
890.125	29.7
890.296	-76.8
890.467	-15.36
890.638	-46.08
890.809	-35.84
890.98	56.32
891.151	7.17
891.323	46.08
891.494	-29.7
891.665	39.94
891.836	-97.28
892.007	-15.36
892.178	9.22
892.349	-52.22
892.52	5.12
892.691	-64.51
892.862	-15.36
893.032	66.56
893.203	-35.84
893.374	-7.17
893.545	-7.17
893.716	-33.79
893.887	58.37
894.057	1.02
894.228	1.02
894.399	1.02
894.57	82.94
894.74	-7.17
894.911	21.5
895.082	-46.08
895.253	-35.84
895.423	17.41
895.594	-5.12
895.764	17.41
895.935	-72.7
896.106	-35.84
896.276	17.41
896.447	-17.41
896.617	-15.36
896.788	17.41
896.958	41.98
897.129	3.07
897.299	11.26
897.47	15.36
897.64	-33.79
897.81	5.12
897.981	17.41
898.151	-13.31
898.322	82.94
898.492	-19.46
898.662	-62.46
898.832	21.5
899.003	21.5
899.173	11.26
899.343	-1.02
899.513	-80.89
