Data from USB4F104151__171__14-19-57-258.txt Node

Date: Thu Mar 13 14:19:57 EDT 2025
User: louis
Spectrometer: USB4F10415
Trigger mode: 4
Integration Time (sec): 2.000000E-2
Scans to average: 1
Electric dark correction enabled: true
Nonlinearity correction enabled: false
Boxcar width: 0
XAxis mode: Wavelengths
Number of Pixels in Spectrum: 3648
>>>>>Begin Spectral Data<<<<<
178.204	-68.27
178.424	-68.27
178.644	-68.27
178.864	-129.7
179.084	-58.03
179.304	21.84
179.524	-17.07
179.744	-25.26
179.964	13.65
180.184	40.28
180.404	-17.07
180.624	34.13
180.844	-82.6
181.064	-8.87
181.283	-17.07
181.503	13.65
181.723	44.37
181.943	3.41
182.163	103.76
182.383	79.19
182.602	-0.68
182.822	5.46
183.042	27.99
183.262	-29.35
183.482	34.13
183.701	-21.16
183.921	7.51
184.141	-21.16
184.361	-6.83
184.58	-21.16
184.8	1.37
185.02	13.65
185.239	60.76
185.459	21.84
185.679	9.56
185.898	34.13
186.118	40.28
186.338	-27.31
186.557	40.28
186.777	9.56
186.997	1.37
187.216	32.08
187.436	56.66
187.655	7.51
187.875	30.04
188.095	30.04
188.314	21.84
188.534	50.52
188.753	25.94
188.973	64.85
189.192	44.37
189.412	64.85
189.631	97.62
189.851	38.23
190.07	54.61
190.29	17.75
190.509	17.75
190.729	-4.78
190.948	21.84
191.168	154.96
191.387	99.67
191.607	-23.21
191.826	56.66
192.045	38.23
192.265	54.61
192.484	21.84
192.704	89.43
192.923	-64.17
193.142	95.57
193.362	-31.4
193.581	64.85
193.8	71
194.02	38.23
194.239	13.65
194.458	23.89
194.678	25.94
194.897	46.42
195.116	-35.5
195.335	40.28
195.555	25.94
195.774	95.57
195.993	79.19
196.212	46.42
196.432	19.8
196.651	-55.98
196.87	-15.02
197.089	58.71
197.308	73.04
197.528	-25.26
197.747	54.61
197.966	30.04
198.185	66.9
198.404	9.56
198.623	-6.83
198.842	-27.31
199.062	-8.87
199.281	27.99
199.5	1.37
199.719	9.56
199.938	-15.02
200.157	62.8
200.376	-10.92
200.595	62.8
200.814	38.23
201.033	-19.11
201.252	66.9
201.471	-6.83
201.69	81.24
201.909	-25.26
202.128	-27.31
202.347	11.61
202.566	-10.92
202.785	-27.31
203.004	40.28
203.223	126.29
203.442	7.51
203.661	54.61
203.879	-43.69
204.098	38.23
204.317	-58.03
204.536	68.95
204.755	46.42
204.974	19.8
205.193	48.47
205.411	95.57
205.63	34.13
205.849	23.89
206.068	5.46
206.287	21.84
206.505	73.04
206.724	54.61
206.943	9.56
207.162	15.7
207.381	62.8
207.599	79.19
207.818	73.04
208.037	42.32
208.255	-39.59
208.474	-31.4
208.693	-10.92
208.911	-17.07
209.13	21.84
209.349	-19.11
209.567	13.65
209.786	87.38
210.005	71
210.223	-10.92
210.442	-82.6
210.661	-21.16
210.879	9.56
211.098	101.72
211.316	54.61
211.535	62.8
211.753	9.56
211.972	32.08
212.191	64.85
212.409	-43.69
212.628	62.8
212.846	21.84
213.065	83.28
213.283	62.8
213.502	-6.83
213.72	73.04
213.938	-35.5
214.157	-39.59
214.375	56.66
214.594	23.89
214.812	48.47
215.031	1.37
215.249	71
215.467	71
215.686	58.71
215.904	95.57
216.122	-45.74
216.341	30.04
216.559	-0.68
216.778	56.66
216.996	75.09
217.214	-0.68
217.432	-0.68
217.651	17.75
217.869	-51.88
218.087	54.61
218.306	-17.07
218.524	30.04
218.742	48.47
218.96	30.04
219.179	13.65
219.397	32.08
219.615	46.42
219.833	-35.5
220.051	5.46
220.27	62.8
220.488	-2.73
220.706	40.28
220.924	-33.45
221.142	-35.5
221.36	-8.87
221.578	42.32
221.796	-60.07
222.015	-15.02
222.233	-31.4
222.451	52.56
222.669	-8.87
222.887	91.48
223.105	50.52
223.323	13.65
223.541	13.65
223.759	3.41
223.977	-12.97
224.195	27.99
224.413	105.81
224.631	23.89
224.849	-58.03
225.067	54.61
225.285	9.56
225.503	42.32
225.721	-76.46
225.939	64.85
226.157	9.56
226.375	111.96
226.592	-41.64
226.81	-29.35
227.028	11.61
227.246	38.23
227.464	23.89
227.682	62.8
227.9	-2.73
228.117	-10.92
228.335	19.8
228.553	103.76
228.771	19.8
228.989	7.51
229.206	-0.68
229.424	-4.78
229.642	-27.31
229.86	21.84
230.077	46.42
230.295	-0.68
230.513	46.42
230.731	103.76
230.948	101.72
231.166	75.09
231.384	30.04
231.601	25.94
231.819	99.67
232.037	89.43
232.254	-35.5
232.472	25.94
232.689	38.23
232.907	-2.73
233.125	9.56
233.342	101.72
233.56	-58.03
233.777	71
233.995	-60.07
234.213	5.46
234.43	21.84
234.648	-47.79
234.865	17.75
235.083	-8.87
235.3	23.89
235.518	52.56
235.735	32.08
235.953	83.28
236.17	-45.74
236.388	-10.92
236.605	23.89
236.822	73.04
237.04	-21.16
237.257	-2.73
237.475	-17.07
237.692	71
237.909	5.46
238.127	40.28
238.344	27.99
238.562	42.32
238.779	-55.98
238.996	-23.21
239.214	-27.31
239.431	30.04
239.648	-8.87
239.865	-35.5
240.083	15.7
240.3	40.28
240.517	50.52
240.735	13.65
240.952	56.66
241.169	128.34
241.386	3.41
241.603	34.13
241.821	38.23
242.038	81.24
242.255	32.08
242.472	-4.78
242.689	62.8
242.907	-23.21
243.124	-68.27
243.341	38.23
243.558	-0.68
243.775	48.47
243.992	-10.92
244.209	97.62
244.426	40.28
244.643	48.47
244.86	-10.92
245.078	30.04
245.295	-31.4
245.512	95.57
245.729	7.51
245.946	75.09
246.163	7.51
246.38	13.65
246.597	75.09
246.814	21.84
247.031	13.65
247.248	66.9
247.464	23.89
247.681	27.99
247.898	11.61
248.115	71
248.332	-6.83
248.549	62.8
248.766	5.46
248.983	30.04
249.2	103.76
249.417	34.13
249.633	23.89
249.85	13.65
250.067	5.46
250.284	25.94
250.501	-0.68
250.717	-23.21
250.934	-37.55
251.151	5.46
251.368	40.28
251.585	5.46
251.801	13.65
252.018	-15.02
252.235	66.9
252.451	5.46
252.668	46.42
252.885	89.43
253.102	54.61
253.318	111.96
253.535	46.42
253.752	-23.21
253.968	58.71
254.185	21.84
254.401	91.48
254.618	71
254.835	15.7
255.051	91.48
255.268	13.65
255.484	71
255.701	-58.03
255.917	21.84
256.134	-31.4
256.351	-2.73
256.567	9.56
256.784	23.89
257	11.61
257.217	50.52
257.433	89.43
257.65	71
257.866	19.8
258.082	-10.92
258.299	38.23
258.515	36.18
258.732	-0.68
258.948	-25.26
259.165	5.46
259.381	-35.5
259.597	30.04
259.814	64.85
260.03	23.89
260.246	46.42
260.463	1.37
260.679	56.66
260.895	23.89
261.112	32.08
261.328	-2.73
261.544	32.08
261.761	64.85
261.977	9.56
262.193	-37.55
262.409	5.46
262.626	-15.02
262.842	1.37
263.058	-15.02
263.274	105.81
263.49	9.56
263.707	97.62
263.923	-2.73
264.139	38.23
264.355	30.04
264.571	71
264.787	23.89
265.004	81.24
265.22	5.46
265.436	68.95
265.652	-92.84
265.868	50.52
266.084	40.28
266.3	21.84
266.516	-58.03
266.732	19.8
266.948	46.42
267.164	3.41
267.38	-8.87
267.596	5.46
267.812	79.19
268.028	15.7
268.244	48.47
268.46	-39.59
268.676	-33.45
268.892	116.05
269.108	58.71
269.324	5.46
269.54	62.8
269.756	89.43
269.972	52.56
270.188	-19.11
270.403	-0.68
270.619	38.23
270.835	7.51
271.051	79.19
271.267	99.67
271.483	38.23
271.698	23.89
271.914	9.56
272.13	-4.78
272.346	42.32
272.562	52.56
272.777	71
272.993	42.32
273.209	15.7
273.425	23.89
273.64	-27.31
273.856	30.04
274.072	5.46
274.287	38.23
274.503	21.84
274.719	-8.87
274.934	21.84
275.15	46.42
275.366	-55.98
275.581	17.75
275.797	66.9
276.012	-15.02
276.228	-43.69
276.444	13.65
276.659	50.52
276.875	58.71
277.09	-25.26
277.306	34.13
277.521	32.08
277.737	52.56
277.952	40.28
278.168	38.23
278.383	32.08
278.599	-51.88
278.814	11.61
279.03	50.52
279.245	64.85
279.461	66.9
279.676	30.04
279.892	46.42
280.107	-51.88
280.322	19.8
280.538	40.28
280.753	9.56
280.969	-23.21
281.184	11.61
281.399	38.23
281.615	23.89
281.83	62.8
282.045	-10.92
282.26	5.46
282.476	30.04
282.691	23.89
282.906	38.23
283.122	79.19
283.337	15.7
283.552	-43.69
283.767	42.32
283.983	5.46
284.198	-31.4
284.413	52.56
284.628	7.51
284.843	-17.07
285.058	25.94
285.274	-31.4
285.489	13.65
285.704	25.94
285.919	77.14
286.134	13.65
286.349	5.46
286.564	50.52
286.779	42.32
286.995	66.9
287.21	15.7
287.425	19.8
287.64	44.37
287.855	77.14
288.07	23.89
288.285	56.66
288.5	9.56
288.715	7.51
288.93	-21.16
289.145	56.66
289.36	-29.35
289.575	-27.31
289.79	13.65
290.004	7.51
290.219	-10.92
290.434	-51.88
290.649	-17.07
290.864	68.95
291.079	42.32
291.294	52.56
291.509	-0.68
291.724	60.76
291.938	5.46
292.153	-4.78
292.368	-6.83
292.583	83.28
292.798	32.08
293.012	23.89
293.227	34.13
293.442	32.08
293.657	-55.98
293.871	9.56
294.086	15.7
294.301	50.52
294.516	126.29
294.73	50.52
294.945	23.89
295.16	21.84
295.374	-2.73
295.589	75.09
295.804	81.24
296.018	-51.88
296.233	34.13
296.447	13.65
296.662	-41.64
296.877	54.61
297.091	62.8
297.306	-17.07
297.52	3.41
297.735	40.28
297.949	71
298.164	9.56
298.378	62.8
298.593	5.46
298.807	42.32
299.022	66.9
299.236	48.47
299.451	32.08
299.665	58.71
299.88	-19.11
300.094	21.84
300.309	-21.16
300.523	91.48
300.737	81.24
300.952	-15.02
301.166	27.99
301.381	-2.73
301.595	5.46
301.809	38.23
302.024	-15.02
302.238	-43.69
302.452	17.75
302.667	111.96
302.881	56.66
303.095	99.67
303.309	73.04
303.524	71
303.738	93.52
303.952	-10.92
304.166	11.61
304.381	-21.16
304.595	77.14
304.809	13.65
305.023	17.75
305.237	-10.92
305.452	58.71
305.666	-55.98
305.88	40.28
306.094	68.95
306.308	68.95
306.522	128.34
306.736	38.23
306.95	64.85
307.164	11.61
307.379	25.94
307.593	54.61
307.807	40.28
308.021	21.84
308.235	-27.31
308.449	-19.11
308.663	107.86
308.877	122.2
309.091	83.28
309.305	21.84
309.519	83.28
309.733	73.04
309.947	-51.88
310.161	169.3
310.374	50.52
310.588	56.66
310.802	34.13
311.016	13.65
311.23	-8.87
311.444	-17.07
311.658	54.61
311.872	66.9
312.085	99.67
312.299	99.67
312.513	38.23
312.727	93.52
312.941	-31.4
313.154	97.62
313.368	5.46
313.582	56.66
313.796	30.04
314.009	79.19
314.223	85.33
314.437	30.04
314.651	-10.92
314.864	25.94
315.078	42.32
315.292	-15.02
315.505	-60.07
315.719	-2.73
315.933	17.75
316.146	5.46
316.36	-43.69
316.573	48.47
316.787	71
317.001	9.56
317.214	-21.16
317.428	-10.92
317.641	-0.68
317.855	-6.83
318.068	-0.68
318.282	13.65
318.495	21.84
318.709	95.57
318.922	-25.26
319.136	85.33
319.349	64.85
319.563	25.94
319.776	38.23
319.99	34.13
320.203	-35.5
320.417	48.47
320.63	38.23
320.843	25.94
321.057	81.24
321.27	-6.83
321.483	99.67
321.697	87.38
321.91	-39.59
322.124	89.43
322.337	15.7
322.55	-0.68
322.763	34.13
322.977	52.56
323.19	62.8
323.403	56.66
323.617	40.28
323.83	71
324.043	9.56
324.256	-10.92
324.469	-43.69
324.683	103.76
324.896	32.08
325.109	13.65
325.322	50.52
325.535	25.94
325.748	46.42
325.962	-6.83
326.175	-39.59
326.388	30.04
326.601	36.18
326.814	40.28
327.027	23.89
327.24	54.61
327.453	-47.79
327.666	36.18
327.879	93.52
328.092	23.89
328.305	5.46
328.518	50.52
328.731	27.99
328.944	21.84
329.157	40.28
329.37	50.52
329.583	73.04
329.796	15.7
330.009	46.42
330.222	107.86
330.435	21.84
330.648	-8.87
330.861	17.75
331.073	23.89
331.286	34.13
331.499	-15.02
331.712	-15.02
331.925	50.52
332.138	-55.98
332.35	62.8
332.563	95.57
332.776	50.52
332.989	13.65
333.202	56.66
333.414	50.52
333.627	-35.5
333.84	-31.4
334.053	71
334.265	1.37
334.478	-27.31
334.691	30.04
334.903	23.89
335.116	30.04
335.329	-37.55
335.541	77.14
335.754	87.38
335.966	71
336.179	81.24
336.392	-0.68
336.604	89.43
336.817	56.66
337.029	7.51
337.242	42.32
337.454	64.85
337.667	118.1
337.88	54.61
338.092	71
338.305	71
338.517	30.04
338.729	-19.11
338.942	-2.73
339.154	-10.92
339.367	19.8
339.579	79.19
339.792	54.61
340.004	44.37
340.217	66.9
340.429	103.76
340.641	-45.74
340.854	81.24
341.066	42.32
341.278	-10.92
341.491	89.43
341.703	60.76
341.915	1.37
342.128	79.19
342.34	48.47
342.552	46.42
342.764	-23.21
342.977	25.94
343.189	87.38
343.401	5.46
343.613	17.75
343.826	30.04
344.038	-2.73
344.25	77.14
344.462	-4.78
344.674	81.24
344.886	87.38
345.099	48.47
345.311	-0.68
345.523	21.84
345.735	17.75
345.947	34.13
346.159	83.28
346.371	50.52
346.583	-43.69
346.795	111.96
347.007	38.23
347.219	17.75
347.431	81.24
347.643	68.95
347.855	56.66
348.067	40.28
348.279	-39.59
348.491	9.56
348.703	62.8
348.915	1.37
349.127	25.94
349.339	25.94
349.551	-17.07
349.763	62.8
349.975	54.61
350.187	62.8
350.399	89.43
350.61	1.37
350.822	42.32
351.034	46.42
351.246	50.52
351.458	52.56
351.669	54.61
351.881	103.76
352.093	71
352.305	124.24
352.517	56.66
352.728	99.67
352.94	68.95
353.152	32.08
353.363	23.89
353.575	85.33
353.787	46.42
353.999	21.84
354.21	1.37
354.422	-0.68
354.633	11.61
354.845	87.38
355.057	30.04
355.268	34.13
355.48	114
355.692	40.28
355.903	40.28
356.115	40.28
356.326	-27.31
356.538	148.82
356.749	17.75
356.961	50.52
357.172	-23.21
357.384	40.28
357.595	101.72
357.807	21.84
358.018	30.04
358.23	109.91
358.441	62.8
358.653	87.38
358.864	23.89
359.075	17.75
359.287	32.08
359.498	81.24
359.709	40.28
359.921	46.42
360.132	32.08
360.344	54.61
360.555	73.04
360.766	71
360.977	30.04
361.189	64.85
361.4	56.66
361.611	54.61
361.823	54.61
362.034	-15.02
362.245	25.94
362.456	32.08
362.667	111.96
362.879	19.8
363.09	13.65
363.301	103.76
363.512	40.28
363.723	-10.92
363.935	-6.83
364.146	60.76
364.357	-29.35
364.568	126.29
364.779	-27.31
364.99	144.72
365.201	-33.45
365.412	120.15
365.623	68.95
365.834	116.05
366.045	73.04
366.256	60.76
366.467	-8.87
366.678	109.91
366.889	38.23
367.1	46.42
367.311	73.04
367.522	103.76
367.733	87.38
367.944	68.95
368.155	40.28
368.366	-2.73
368.577	30.04
368.788	-29.35
368.999	-15.02
369.209	-25.26
369.42	144.72
369.631	85.33
369.842	87.38
370.053	52.56
370.264	48.47
370.474	101.72
370.685	-4.78
370.896	13.65
371.107	114
371.317	25.94
371.528	50.52
371.739	38.23
371.95	66.9
372.16	30.04
372.371	42.32
372.582	42.32
372.792	77.14
373.003	62.8
373.214	-25.26
373.424	89.43
373.635	9.56
373.846	64.85
374.056	48.47
374.267	95.57
374.477	23.89
374.688	17.75
374.898	77.14
375.109	-2.73
375.319	83.28
375.53	34.13
375.74	50.52
375.951	-25.26
376.161	79.19
376.372	111.96
376.582	50.52
376.793	13.65
377.003	5.46
377.214	46.42
377.424	5.46
377.635	71
377.845	5.46
378.055	122.2
378.266	-35.5
378.476	89.43
378.686	54.61
378.897	25.94
379.107	75.09
379.317	83.28
379.528	17.75
379.738	87.38
379.948	42.32
380.158	-27.31
380.369	17.75
380.579	89.43
380.789	21.84
380.999	62.8
381.21	118.1
381.42	111.96
381.63	-8.87
381.84	42.32
382.05	56.66
382.261	62.8
382.471	73.04
382.681	15.7
382.891	97.62
383.101	87.38
383.311	75.09
383.521	-6.83
383.731	52.56
383.941	87.38
384.151	62.8
384.361	30.04
384.571	5.46
384.781	48.47
384.991	54.61
385.201	87.38
385.411	103.76
385.621	23.89
385.831	79.19
386.041	89.43
386.251	30.04
386.461	122.2
386.671	79.19
386.881	114
387.091	13.65
387.301	3.41
387.511	40.28
387.72	71
387.93	-15.02
388.14	-60.07
388.35	79.19
388.56	111.96
388.769	169.3
388.979	97.62
389.189	103.76
389.399	120.15
389.609	89.43
389.818	71
390.028	93.52
390.238	13.65
390.447	38.23
390.657	-12.97
390.867	79.19
391.076	83.28
391.286	38.23
391.496	87.38
391.705	64.85
391.915	79.19
392.125	32.08
392.334	42.32
392.544	1.37
392.753	23.89
392.963	120.15
393.172	103.76
393.382	21.84
393.591	152.91
393.801	54.61
394.01	87.38
394.22	81.24
394.429	56.66
394.639	30.04
394.848	62.8
395.058	97.62
395.267	32.08
395.477	95.57
395.686	87.38
395.895	142.68
396.105	83.28
396.314	116.05
396.524	62.8
396.733	64.85
396.942	128.34
397.152	130.39
397.361	83.28
397.57	48.47
397.78	148.82
397.989	81.24
398.198	193.87
398.407	118.1
398.617	85.33
398.826	140.63
399.035	46.42
399.244	56.66
399.453	62.8
399.663	130.39
399.872	148.82
400.081	109.91
400.29	140.63
400.499	58.71
400.708	228.69
400.917	136.53
401.127	73.04
401.336	97.62
401.545	181.59
401.754	197.97
401.963	114
402.172	54.61
402.381	54.61
402.59	30.04
402.799	114
403.008	48.47
403.217	138.58
403.426	126.29
403.635	124.24
403.844	99.67
404.053	144.72
404.262	157.01
404.471	103.76
404.68	195.92
404.888	193.87
405.097	232.79
405.306	234.83
405.515	185.68
405.724	161.11
405.933	226.64
406.142	214.35
406.35	195.92
406.559	226.64
406.768	234.83
406.977	261.46
407.185	202.07
407.394	210.26
407.603	165.2
407.812	189.78
408.02	226.64
408.229	236.88
408.438	230.74
408.646	204.11
408.855	243.03
409.064	226.64
409.272	224.59
409.481	312.66
409.69	320.85
409.898	243.03
410.107	261.46
410.315	333.14
410.524	275.79
410.733	370
410.941	349.52
411.15	361.81
411.358	378.19
411.567	456.01
411.775	415.05
411.984	283.98
412.192	431.44
412.401	361.81
412.609	441.68
412.818	447.82
413.026	439.63
413.234	458.06
413.443	548.17
413.651	447.82
413.86	605.52
414.068	562.51
414.276	560.46
414.485	705.87
414.693	673.1
414.901	726.35
415.11	718.15
415.318	709.96
415.526	800.07
415.734	730.44
415.943	851.27
416.151	908.62
416.359	808.26
416.567	800.07
416.776	890.18
416.984	1039.69
417.192	1054.02
417.4	1000.77
417.608	1029.45
417.817	1131.84
418.025	1164.61
418.233	1201.47
418.441	1193.28
418.649	1217.86
418.857	1277.25
419.065	1381.7
419.273	1291.59
419.481	1445.18
419.689	1465.66
419.897	1617.21
420.105	1529.15
420.313	1578.3
420.521	1561.92
420.729	1711.42
420.937	1742.14
421.145	1809.72
421.353	1824.06
421.561	1914.17
421.769	2082.1
421.977	2174.26
422.185	2041.14
422.393	2186.55
422.601	2290.99
422.809	2293.04
423.017	2258.23
423.224	2497.84
423.432	2563.37
423.64	2512.17
423.848	2782.51
424.056	2651.44
424.263	2815.27
424.471	3077.41
424.679	3011.88
424.887	3101.99
425.094	3265.83
425.302	3296.55
425.51	3300.64
425.718	3456.29
425.925	3515.68
426.133	3652.89
426.341	3730.72
426.548	4011.29
426.756	4136.21
426.964	4087.06
427.171	4232.47
427.379	4181.27
427.586	4568.34
427.794	4457.75
428.001	4709.65
428.209	4740.36
428.417	4959.5
428.624	5436.67
428.832	5291.27
429.039	5330.18
429.247	5195.01
429.454	5698.81
429.662	6135.03
429.869	5793.02
430.076	6157.56
430.284	6003.96
430.491	6120.7
430.699	6446.32
430.906	6575.34
431.114	6692.08
431.321	6917.36
431.528	7050.47
431.736	7298.28
431.943	7759.07
432.15	7496.93
432.358	7576.8
432.565	7990.49
432.772	7881.95
432.979	8385.75
433.187	8496.34
433.394	8682.7
433.601	9166.03
433.808	9237.7
434.016	9106.63
434.223	9735.36
434.43	10220.73
434.637	9852.09
434.844	10466.49
435.052	10816.69
435.259	10689.71
435.466	10896.56
435.673	10665.14
435.88	11486.37
436.087	11975.84
436.294	11719.84
436.501	11828.38
436.708	11867.3
436.915	12276.89
437.122	12833.94
437.329	12729.49
437.537	13309.07
437.743	13608.07
437.95	13366.41
438.157	14226.56
438.364	14380.15
438.571	14412.92
438.778	14439.55
438.985	15957.09
439.192	15357.03
439.399	15817.83
439.606	15287.4
439.813	16348.25
440.02	17273.93
440.227	16864.34
440.433	16798.81
440.64	17470.54
440.847	17185.87
441.054	17491.02
441.261	18672.7
441.467	18558.01
441.674	18854.97
441.881	19704.87
442.088	19518.51
442.294	19379.25
442.501	19921.96
442.708	20360.22
442.914	21034
443.121	22117.38
443.328	21115.92
443.534	23038.97
443.741	21894.15
443.948	22047.75
444.154	23516.14
444.361	23358.45
444.568	23512.05
444.774	23176.18
444.981	23663.6
445.187	24341.47
445.394	25496.53
445.6	25088.98
445.807	27192.25
446.013	25971.66
446.22	26766.27
446.426	27607.98
446.633	28132.26
446.839	29080.47
447.046	27882.41
447.252	29213.59
447.459	29186.97
447.665	29166.49
447.871	30178.18
448.078	31476.6
448.284	30325.64
448.491	31185.79
448.697	32379.75
448.903	32963.42
449.11	33203.03
449.316	32680.8
449.522	32682.85
449.728	33966.93
449.935	34042.7
450.141	33796.95
450.347	35091.26
450.553	33569.62
450.76	34335.56
450.966	35423.03
451.172	34913.09
451.378	35900.21
451.584	35074.88
451.791	36145.97
451.997	35881.78
452.203	36182.83
452.409	36299.56
452.615	35904.31
452.821	34917.18
453.027	34755.39
453.233	36633.38
453.44	35060.54
453.646	35636.02
453.852	35312.44
454.058	36254.51
454.264	35019.58
454.47	35693.36
454.676	34853.7
454.882	36346.67
455.088	32695.14
455.294	33411.93
455.5	34321.23
455.705	34319.18
455.911	32885.6
456.117	32531.3
456.323	31712.11
456.529	30256.01
456.735	31718.26
456.941	30708.61
457.147	30393.22
457.352	29410.2
457.558	29066.14
457.764	29019.03
457.97	28617.63
458.176	28249
458.381	28054.44
458.587	26862.52
458.793	26653.63
458.999	25396.18
459.204	27081.66
459.41	26213.32
459.616	24632.29
459.821	24679.39
460.027	24595.42
460.233	24108.01
460.438	22848.5
460.644	23319.54
460.85	22207.49
461.055	21672.97
461.261	21543.95
461.466	20159.52
461.672	19399.73
461.878	21064.72
462.083	19358.77
462.289	19362.86
462.494	19053.62
462.7	18080.83
462.905	17669.19
463.111	18158.66
463.316	18381.88
463.522	17622.09
463.727	17792.07
463.932	17896.52
464.138	17865.8
464.343	17742.92
464.549	17099.86
464.754	18031.68
464.959	17730.63
465.165	17527.88
465.37	16704.6
465.575	16401.5
465.781	17128.53
465.986	17085.52
466.191	16450.65
466.397	16143.45
466.602	15322.22
466.807	15950.95
467.012	15944.8
467.218	15961.19
467.423	15862.88
467.628	15613.03
467.833	16419.93
468.038	15866.98
468.244	15332.46
468.449	16012.38
468.654	15522.92
468.859	15414.38
469.064	15340.65
469.269	14595.19
469.474	14668.92
469.679	15006.83
469.885	14625.91
470.09	14980.21
470.295	14781.56
470.5	14122.11
470.705	14533.75
470.91	14052.48
471.115	13888.64
471.32	14302.33
471.525	14109.82
471.73	13880.45
471.935	13835.39
472.139	13163.66
472.344	13282.44
472.549	13409.42
472.754	13278.35
472.959	12922
473.164	12510.36
473.369	12276.89
473.574	12907.66
473.778	12993.68
473.983	12465.3
474.188	12442.78
474.393	12145.82
474.598	12151.96
474.802	12076.19
475.007	12141.72
475.212	11920.54
475.417	11576.48
475.621	11549.86
475.826	11605.16
476.031	11416.74
476.235	11117.74
476.44	11437.22
476.645	11015.34
476.849	11150.51
477.054	10865.84
477.259	10865.84
477.463	10806.45
477.668	10556.6
477.872	10577.08
478.077	10355.9
478.282	10079.42
478.486	10106.04
478.691	10124.47
478.895	10060.99
479.1	10087.61
479.304	9987.26
479.509	9686.21
479.713	9850.05
479.918	9782.46
480.122	9454.79
480.326	9788.61
480.531	9667.78
480.735	9475.27
480.94	9313.48
481.144	9749.7
481.348	9270.47
481.553	9278.66
481.757	9245.9
481.961	9344.2
482.166	9379.01
482.37	9354.44
482.574	9143.5
482.778	9297.1
482.983	9409.73
483.187	9385.16
483.391	9305.29
483.595	9256.14
483.8	9321.67
484.004	9229.51
484.208	9376.97
484.412	9100.49
484.616	9399.49
484.821	9293
485.025	9204.94
485.229	9368.77
485.433	9225.42
485.637	9221.32
485.841	9075.91
486.045	9264.33
486.249	9028.81
486.453	9225.42
486.657	9233.61
486.861	9460.93
487.065	8973.52
487.269	9211.08
487.473	9039.05
487.677	9379.01
487.881	9389.25
488.085	8969.42
488.289	9389.25
488.493	9217.22
488.697	9241.8
488.901	9317.58
489.105	9321.67
489.309	9258.18
489.512	9411.78
489.716	9389.25
489.92	9301.19
490.124	9241.8
490.328	9526.47
490.531	9340.1
490.735	9549
490.939	9475.27
491.143	9520.32
491.346	9448.65
491.55	9735.36
491.754	9630.91
491.958	9737.41
492.161	9696.45
492.365	9901.25
492.569	9620.67
492.772	9614.53
492.976	9706.69
493.18	10044.6
493.383	9979.07
493.587	9780.42
493.79	9989.31
493.994	9905.34
494.197	10079.42
494.401	10214.59
494.605	10249.4
494.808	10456.25
495.012	10489.01
495.215	10331.32
495.419	10450.1
495.622	10351.8
495.825	10628.28
496.029	10642.61
496.232	10826.93
496.436	10818.74
496.639	11183.27
496.843	11140.27
497.046	11334.82
497.249	11289.77
497.453	11338.92
497.656	11646.12
497.859	11553.96
498.063	11771.04
498.266	11971.74
498.469	12100.76
498.673	12078.24
498.876	12141.72
499.079	12182.68
499.282	12244.12
499.485	12606.61
499.689	12692.63
499.892	12891.28
500.095	12774.55
500.298	13274.25
500.501	13182.09
500.705	13657.22
500.908	13616.26
501.111	13679.75
501.314	13763.72
501.517	13905.03
501.72	14081.15
501.923	13921.41
502.126	14365.82
502.329	14558.33
502.532	14808.18
502.735	14767.22
502.938	15129.71
503.141	14972.02
503.344	15213.68
503.547	15340.65
503.75	15434.86
503.953	15578.22
504.156	15848.55
504.359	16133.22
504.562	16092.26
504.765	16454.75
504.968	16606.3
505.17	16890.96
505.373	16647.26
505.576	17062.99
505.779	17210.45
505.982	17232.97
506.185	17755.21
506.387	17685.58
506.59	18029.63
506.793	17935.43
506.996	18013.25
507.198	18742.33
507.401	18592.83
507.604	18809.91
507.807	19090.48
508.009	19420.2
508.212	19225.65
508.415	19641.39
508.617	19864.61
508.82	19823.65
509.022	19749.93
509.225	20446.24
509.428	20513.82
509.63	20640.79
509.833	20364.32
510.035	21353.49
510.238	21238.8
510.44	21187.6
510.643	21513.23
510.845	21935.11
511.048	21730.31
511.25	22307.84
511.453	22418.43
511.655	22848.5
511.858	22651.9
512.06	23196.66
512.262	23237.62
512.465	23024.63
512.667	23454.7
512.87	23794.67
513.072	23962.6
513.274	24191.97
513.477	24601.57
513.679	24716.25
513.881	25037.78
514.084	24990.68
514.286	25117.65
514.488	25490.38
514.69	25936.84
514.893	26184.65
515.095	26344.39
515.297	26665.92
515.499	26821.56
515.701	26844.09
515.904	27227.06
516.106	27448.24
516.308	27667.38
516.51	28036.01
516.712	27986.86
516.914	28126.12
517.116	28464.03
517.318	28793.76
517.52	29092.76
517.722	29000.6
517.925	29313.94
518.127	29987.72
518.329	29789.07
518.531	29991.82
518.733	30507.91
518.935	30469
519.136	30587.78
519.338	30843.77
519.54	30925.69
519.742	31474.55
519.944	31570.8
520.146	32002.92
520.348	32050.03
520.55	32389.99
520.752	32385.9
520.954	32799.58
521.155	32832.35
521.357	33375.06
521.559	33581.91
521.761	33749.84
521.963	33950.54
522.164	33958.74
522.366	34087.76
522.568	34526.02
522.77	34833.22
522.971	35185.47
523.173	34966.34
523.375	35208
523.576	35031.87
523.778	35089.21
523.98	35881.78
524.181	35789.62
524.383	36229.93
524.584	36567.85
524.786	36571.94
524.988	36492.07
525.189	36639.53
525.391	36885.28
525.592	36930.34
525.794	37344.03
525.995	37530.39
526.197	37436.19
526.398	37651.22
526.6	37982.99
526.801	37862.16
527.003	38060.82
527.204	38105.87
527.406	37931.79
527.607	38374.16
527.808	38929.16
528.01	38122.26
528.211	38550.28
528.412	39412.48
528.614	39150.34
528.815	38994.69
529.016	39469.82
529.218	39097.09
529.419	38982.4
529.62	39246.59
529.822	39035.65
530.023	39371.52
530.224	38923.01
530.425	39277.31
530.626	38992.64
530.828	39453.44
531.029	39852.79
531.23	39285.5
531.431	39838.45
531.632	40123.12
531.833	39922.42
532.035	39574.27
532.236	40065.78
532.437	40061.68
532.638	39719.67
532.839	40198.9
533.04	39791.35
533.241	39322.37
533.442	40227.57
533.643	40080.11
533.844	40370.93
534.045	40295.15
534.246	39910.13
534.447	40162.03
534.648	39738.1
534.849	40291.05
535.05	40127.22
535.251	40114.93
535.451	40243.95
535.652	40131.31
535.853	39895.8
536.054	39949.04
536.255	40202.99
536.456	39709.43
536.657	40731.37
536.857	39809.78
537.058	39693.05
537.259	40297.2
537.46	39688.95
537.66	40080.11
537.861	40309.49
538.062	39551.74
538.263	40164.08
538.463	39959.28
538.664	40051.44
538.865	40202.99
539.065	39875.32
539.266	39701.24
539.466	40497.9
539.667	39594.75
539.868	40307.44
540.068	39955.19
540.269	39666.42
540.469	39740.15
540.67	40065.78
540.87	39824.12
541.071	39674.62
541.271	39996.15
541.472	39664.38
541.672	39660.28
541.873	39699.19
542.073	39451.39
542.274	40200.94
542.474	39875.32
542.675	39338.75
542.875	39838.45
543.075	39729.91
543.276	39469.82
543.476	39846.65
543.676	39189.25
543.877	39813.88
544.077	39840.5
544.277	39772.92
544.478	39521.02
544.678	39734.01
544.878	39578.36
545.078	39994.1
545.279	39633.66
545.479	39619.32
545.679	39652.09
545.879	39719.67
546.079	39377.66
546.28	39396.09
546.48	39123.71
546.68	39664.38
546.88	39441.15
547.08	39783.16
547.28	39197.44
547.48	38800.13
547.68	39654.14
547.88	39365.37
548.081	39715.58
548.281	39228.16
548.481	39019.27
548.681	39740.15
548.881	39392
549.081	39492.35
549.28	39215.87
549.48	39471.87
549.68	39125.76
549.88	39803.64
550.08	39097.09
550.28	39191.3
550.48	39387.9
550.68	39418.62
550.88	38933.25
551.08	38816.52
551.279	39248.64
551.479	39133.95
551.679	39133.95
551.879	39031.55
552.079	39314.17
552.278	39082.75
552.478	39428.86
552.678	39238.4
552.878	39129.86
553.077	38773.51
553.277	38667.02
553.477	39439.1
553.676	39080.71
553.876	38806.28
554.076	39060.23
554.275	38652.68
554.475	38365.96
554.674	38841.09
554.874	38961.92
555.074	38802.18
555.273	39072.51
555.473	38923.01
555.672	38966.02
555.872	38558.47
556.071	38738.69
556.271	38763.27
556.47	38796.04
556.67	38318.86
556.869	38255.37
557.068	38802.18
557.268	38417.16
557.467	38546.19
557.667	38353.68
557.866	38697.73
558.065	38466.31
558.265	37856.02
558.464	38005.52
558.663	38533.9
558.863	37849.88
559.062	38486.79
559.261	37759.77
559.461	38787.85
559.66	37548.82
559.859	37985.04
560.058	37663.51
560.258	38060.82
560.457	37710.61
560.656	38138.64
560.855	37593.88
561.054	37962.51
561.253	37045.02
561.453	37608.22
561.652	37675.8
561.851	37829.4
562.05	37446.43
562.249	37217.05
562.448	38007.57
562.647	37600.02
562.846	37313.31
563.045	37339.93
563.244	36971.3
563.443	37724.95
563.642	36651.81
563.841	37006.11
564.04	36557.61
564.239	37255.96
564.438	36573.99
564.637	37139.23
564.836	36954.91
565.035	36438.83
565.234	36893.47
565.432	36530.98
565.631	36725.54
565.83	36623.14
566.029	36348.71
566.228	36492.07
566.427	36557.61
566.625	36266.8
566.824	35595.06
567.023	36580.14
567.222	35797.81
567.42	36244.27
567.619	35830.58
567.818	35472.18
568.016	35607.35
568.215	36225.84
568.414	35916.59
568.612	36346.67
568.811	35334.97
569.01	35738.42
569.208	35332.92
569.407	35672.89
569.605	35240.76
569.804	35488.57
570.002	34911.04
570.201	35232.57
570.4	34798.4
570.598	34872.13
570.797	34779.97
570.995	34790.21
571.193	34300.75
571.392	34868.03
571.59	34421.58
571.789	34708.29
571.987	34218.83
572.186	34337.61
572.384	34216.78
572.582	34380.62
572.781	34052.94
572.979	33817.43
573.177	34278.22
573.376	34087.76
573.574	33870.67
573.772	33864.53
573.971	33727.31
574.169	33381.21
574.367	33213.27
574.565	33938.26
574.763	33579.86
574.962	33137.5
575.16	33043.29
575.358	33311.58
575.556	32734.05
575.754	33407.83
575.952	32471.91
576.151	33157.98
576.349	32533.35
576.547	32834.4
576.745	32711.52
576.943	32588.64
577.141	32572.26
577.339	32820.06
577.537	32441.19
577.735	32254.83
577.933	32072.56
578.131	32418.66
578.329	32109.42
578.527	32228.2
578.725	32166.76
578.923	32246.63
579.121	32152.43
579.319	31849.33
579.516	32052.08
579.714	31978.35
579.912	31548.28
580.11	31757.17
580.308	31796.08
580.506	31497.08
580.704	30649.22
580.901	31275.9
581.099	31640.43
581.297	31251.32
581.495	30700.42
581.692	31234.94
581.89	30757.76
582.088	31017.85
582.285	30854.01
582.483	30722.94
582.681	30569.35
582.878	30575.49
583.076	30602.11
583.274	30884.73
583.471	30118.79
583.669	30178.18
583.866	30124.94
584.064	30395.27
584.262	29707.15
584.459	30258.06
584.657	29664.14
584.854	30002.06
585.052	29537.17
585.249	29764.5
585.447	29713.3
585.644	29815.69
585.841	29356.95
586.039	29721.49
586.236	28951.45
586.434	29512.59
586.631	29369.24
586.828	29225.88
587.026	29416.34
587.223	28779.42
587.42	28920.73
587.618	28902.3
587.815	28674.98
588.012	28470.18
588.21	28277.67
588.407	28853.15
588.604	28345.25
588.801	28058.54
588.999	28421.03
589.196	28599.2
589.393	28175.27
589.59	28001.19
589.787	28029.87
589.984	27556.78
590.182	27485.11
590.379	27579.31
590.576	27577.26
590.773	27456.43
590.97	27259.83
591.167	27683.76
591.364	27370.42
591.561	27167.67
591.758	27108.28
591.955	27458.48
592.152	27120.57
592.349	27032.5
592.546	27216.82
592.743	26680.25
592.94	26518.46
593.137	26735.55
593.334	26893.24
593.531	26244.04
593.727	26491.84
593.924	26600.38
594.121	26528.7
594.318	26549.18
594.515	26217.41
594.712	26469.31
594.908	25740.24
595.105	25965.51
595.302	25828.3
595.499	25824.2
595.696	25693.13
595.892	25498.58
596.089	25678.8
596.286	25621.45
596.482	25412.56
596.679	25510.86
596.876	25351.12
597.072	25551.82
597.269	25375.7
597.466	24867.8
597.662	24953.82
597.859	24935.38
598.055	25213.91
598.252	24601.57
598.448	24841.18
598.645	24959.96
598.841	24550.37
599.038	24495.07
599.234	24368.1
599.431	24318.95
599.627	24126.44
599.824	24370.15
600.02	23978.98
600.217	24183.78
600.413	24198.12
600.609	24081.38
600.806	24050.66
601.002	23866.35
601.198	23813.1
601.395	23921.64
601.591	23540.72
601.787	23299.06
601.984	23321.59
602.18	23493.61
602.376	23565.29
602.572	23444.46
602.769	23247.86
602.965	22911.99
603.161	23282.67
603.357	22895.61
603.553	22920.18
603.75	23092.21
603.946	22647.8
604.142	22959.09
604.338	22514.69
604.534	22653.95
604.73	22639.61
604.926	22037.51
605.122	22764.54
605.318	22311.94
605.514	22225.92
605.71	22285.31
605.906	22105.09
606.102	21953.54
606.298	21836.81
606.494	22096.9
606.69	22309.89
606.886	22070.28
607.082	21648.4
607.278	21896.2
607.474	21795.85
607.67	21935.11
607.866	21595.15
608.062	21967.88
608.257	21470.22
608.453	21978.12
608.649	21771.27
608.845	21578.76
609.041	21300.24
609.236	21195.79
609.432	21283.86
609.628	21410.83
609.824	21447.69
610.019	21101.59
610.215	21257.23
610.411	21146.64
610.606	21187.6
610.802	21027.86
610.998	21144.59
611.193	21025.81
611.389	20685.85
611.584	20837.4
611.78	20694.04
611.976	20988.95
612.171	20827.16
612.367	20718.62
612.562	20667.42
612.758	20569.12
612.953	20585.5
613.149	20663.32
613.344	20507.68
613.539	20616.22
613.735	20681.75
613.93	20466.72
614.126	20509.72
614.321	20704.28
614.517	20452.38
614.712	20360.22
614.907	20423.71
615.103	20286.5
615.298	20141.09
615.493	20356.13
615.688	19854.37
615.884	20560.92
616.079	20010.02
616.274	20171.81
616.47	19883.05
616.665	19848.23
616.86	19835.94
617.055	19874.85
617.25	19784.74
617.445	19840.04
617.641	19625
617.836	19600.43
618.031	19319.85
618.226	19618.86
618.421	19430.44
618.616	19426.35
618.811	19510.32
619.006	19457.07
619.201	19070
619.396	19326
619.591	18936.88
619.786	19022.9
619.981	18779.19
620.176	18977.84
620.371	18781.24
620.566	18682.94
620.761	18512.95
620.956	18623.55
621.151	18351.17
621.346	18709.56
621.541	18195.52
621.735	18304.06
621.93	18510.91
622.125	17990.72
622.32	17849.41
622.515	18033.73
622.709	17814.6
622.904	17622.09
623.099	17681.48
623.294	17923.14
623.488	17413.2
623.683	17742.92
623.878	17134.67
624.072	17204.3
624.267	17482.83
624.462	17034.32
624.656	16983.12
624.851	16839.76
625.046	16929.88
625.24	16774.23
625.435	16473.18
625.629	16573.53
625.824	16444.51
626.018	16438.36
626.213	16196.7
626.407	16217.18
626.602	16047.2
626.796	15991.91
626.991	16002.15
627.185	15920.23
627.38	15823.97
627.574	15578.22
627.768	15565.93
627.963	15721.57
628.157	15365.23
628.352	15342.7
628.546	15115.37
628.74	15307.88
628.935	14992.5
629.129	14990.45
629.323	14986.35
629.517	14951.54
629.712	14537.85
629.906	14773.36
630.1	14718.07
630.294	14521.46
630.489	14437.5
630.683	14722.16
630.877	14406.78
631.071	14138.49
631.265	14376.06
631.459	14023.81
631.653	14251.13
631.848	14120.06
632.042	13941.89
632.236	13960.32
632.43	13800.58
632.624	13776
632.818	13382.79
633.012	13472.9
633.206	13540.49
633.4	13687.94
633.594	13423.75
633.788	13302.92
633.982	13165.71
634.176	13354.12
634.369	13210.76
634.563	13157.52
634.757	12940.43
634.951	12915.86
635.145	13044.88
635.339	12733.59
635.533	12647.57
635.726	12872.85
635.92	12358.81
636.114	12547.22
636.308	12461.21
636.501	12360.86
636.695	12323.99
636.889	12244.12
637.083	12237.98
637.276	12133.53
637.47	12104.86
637.664	11852.96
637.857	11875.49
638.051	12018.85
638.244	11930.78
638.438	11760.8
638.632	11685.03
638.825	11793.57
639.019	11799.71
639.212	11361.45
639.406	11422.89
639.599	11439.27
639.793	11361.45
639.986	11308.2
640.18	11117.74
640.373	11115.69
640.567	11023.53
640.76	11236.52
640.954	10826.93
641.147	10890.42
641.34	11015.34
641.534	10677.43
641.727	10740.91
641.92	10749.11
642.114	10622.13
642.307	10583.22
642.5	10433.72
642.694	10394.81
642.887	10382.52
643.08	10548.4
643.273	10437.81
643.467	10321.08
643.66	10140.86
643.853	10165.43
644.046	9944.25
644.239	10157.24
644.432	10087.61
644.626	10011.84
644.819	10026.17
645.012	9944.25
645.205	9876.67
645.398	9862.33
645.591	9606.34
645.784	9503.94
645.977	9491.65
646.17	9549
646.363	9577.67
646.556	9407.69
646.749	9487.56
646.942	9329.86
647.135	9401.54
647.328	9209.03
647.521	9215.18
647.714	9247.94
647.907	9100.49
648.099	8910.03
648.292	8979.66
648.485	9000.14
648.678	8830.16
648.871	8840.4
649.064	8860.88
649.256	9075.91
649.449	8764.62
649.642	8680.66
649.835	8711.38
650.027	8705.23
650.22	8535.25
650.413	8690.9
650.605	8543.44
650.798	8547.54
650.991	8291.54
651.183	8559.83
651.376	8248.54
651.568	8363.22
651.761	8168.66
651.954	8244.44
652.146	8314.07
652.339	8250.58
652.531	8082.65
652.724	7939.29
652.916	7879.9
653.109	7982.3
653.301	7955.68
653.494	8115.42
653.686	7927
653.879	7757.02
654.071	7695.58
654.263	7689.44
654.456	7584.99
654.648	7761.12
654.84	7607.52
655.033	7619.81
655.225	7564.51
655.417	7476.45
655.61	7394.53
655.802	7415.01
655.994	7365.86
656.186	7218.41
656.379	7259.37
656.571	7421.16
656.763	7275.75
656.955	7070.95
657.148	7083.24
657.34	7116.01
657.532	7015.66
657.724	6984.94
657.916	6890.73
658.108	7005.42
658.3	6950.12
658.492	7029.99
658.684	6845.68
658.876	6851.82
659.068	6561.01
659.26	6726.89
659.452	6862.06
659.644	6837.48
659.836	6618.35
660.028	6694.13
660.22	6642.93
660.412	6509.81
660.604	6632.69
660.796	6542.58
660.988	6501.62
661.18	6464.75
661.372	6212.85
661.563	6518
661.755	6341.88
661.947	6309.11
662.139	6333.68
662.331	6403.32
662.522	6198.52
662.714	6247.67
662.906	6010.11
663.097	6110.46
663.289	5967.1
663.481	5872.89
663.673	5991.67
663.864	6018.3
664.056	5793.02
664.247	5956.86
664.439	5723.39
664.631	5993.72
664.822	5881.08
665.014	5917.95
665.205	5616.9
665.397	5752.06
665.588	5694.72
665.78	5915.9
665.971	5649.66
666.163	5618.94
666.354	5498.11
666.546	5563.65
666.737	5690.62
666.929	5580.03
667.12	5551.36
667.311	5518.59
667.503	5489.92
667.694	5444.87
667.885	5387.52
668.077	5440.77
668.268	5487.87
668.459	5354.76
668.651	5346.56
668.842	5231.88
669.033	5188.87
669.224	5223.69
669.416	5285.12
669.607	5235.97
669.798	5209.35
669.989	5219.59
670.18	5188.87
670.371	5082.38
670.563	5010.7
670.754	5199.11
670.945	5086.47
671.136	5176.58
671.327	4990.22
671.518	4986.12
671.709	5033.22
671.9	5141.77
672.091	5002.5
672.282	4793.61
672.473	4853
672.664	4846.86
672.855	4834.57
673.046	4838.67
673.237	4953.35
673.428	4812.04
673.619	4717.84
673.809	4838.67
674	4764.94
674.191	4635.92
674.382	4685.07
674.573	4803.85
674.764	4592.91
674.954	4691.21
675.145	4756.75
675.336	4689.17
675.527	4668.69
675.717	4773.13
675.908	4506.9
676.099	4674.83
676.289	4510.99
676.48	4662.54
676.671	4547.86
676.861	4572.43
677.052	4504.85
677.243	4455.7
677.433	4480.27
677.624	4396.31
677.814	4314.39
678.005	4386.07
678.195	4629.77
678.386	4351.25
678.576	4465.94
678.767	4467.99
678.957	4363.54
679.148	4494.61
679.338	4461.84
679.529	4433.17
679.719	4453.65
679.909	4351.25
680.1	4418.83
680.29	4353.3
680.481	4361.49
680.671	4461.84
680.861	4226.32
681.052	4259.09
681.242	4095.25
681.432	4287.76
681.622	4244.76
681.813	4287.76
682.003	4199.7
682.193	4148.5
682.383	4076.82
682.573	4259.09
682.764	4080.92
682.954	4148.5
683.144	4076.82
683.334	4072.73
683.524	4197.65
683.714	4001.05
683.904	4068.63
684.094	4146.45
684.284	3978.52
684.474	4138.26
684.664	4111.64
684.854	4035.86
685.044	3970.33
685.234	3912.99
685.424	4017.43
685.614	3943.71
685.804	3773.72
685.994	3964.18
686.184	4095.25
686.374	3970.33
686.564	3816.73
686.753	3927.32
686.943	3790.11
687.133	3792.16
687.323	3769.63
687.513	3882.27
687.702	3736.86
687.892	3685.66
688.082	3775.77
688.272	3718.43
688.461	3724.57
688.651	3783.96
688.841	3724.57
689.03	3636.51
689.22	3589.41
689.41	3642.65
689.599	3716.38
689.789	3618.08
689.979	3675.42
690.168	3577.12
690.358	3456.29
690.547	3491.1
690.737	3527.97
690.926	3570.97
691.116	3577.12
691.305	3585.31
691.495	3405.09
691.684	3435.81
691.874	3487.01
692.063	3364.13
692.252	3458.34
692.442	3388.71
692.631	3360.03
692.82	3464.48
693.01	3362.08
693.199	3294.5
693.388	3339.55
693.578	3235.11
693.767	3249.44
693.956	3341.6
694.146	3296.55
694.335	3216.68
694.524	3226.92
694.713	3239.2
694.902	3208.48
695.092	3077.41
695.281	3233.06
695.47	3101.99
695.659	3220.77
695.848	3085.61
696.037	3167.52
696.226	3020.07
696.415	3106.09
696.604	3099.94
696.793	3112.23
696.982	3110.18
697.171	3005.74
697.36	3126.57
697.549	2905.38
697.738	2985.26
697.927	2989.35
698.116	3028.26
698.305	2944.3
698.494	2929.96
698.683	3020.07
698.872	3071.27
699.061	3097.89
699.25	3040.55
699.438	2882.86
699.627	2979.11
699.816	2966.82
700.005	2893.1
700.193	2970.92
700.382	3028.26
700.571	3050.79
700.76	2864.43
700.948	3013.93
701.137	2907.43
701.326	2882.86
701.514	2823.47
701.703	2897.19
701.892	2811.18
702.08	2899.24
702.269	2921.77
702.457	2954.54
702.646	2884.91
702.834	2925.86
703.023	2860.33
703.212	2866.47
703.4	2807.08
703.589	2872.62
703.777	2905.38
703.965	2927.91
704.154	2757.93
704.342	2770.22
704.531	2805.03
704.719	2716.97
704.907	2835.75
705.096	2768.17
705.284	2749.74
705.472	2876.71
705.661	2719.02
705.849	2716.97
706.037	2770.22
706.226	2733.36
706.414	2833.71
706.602	2729.26
706.79	2819.37
706.979	2671.92
707.167	2596.14
707.355	2809.13
707.543	2690.35
707.731	2700.59
707.919	2745.64
708.107	2659.63
708.296	2663.72
708.484	2680.11
708.672	2673.96
708.86	2645.29
709.048	2700.59
709.236	2626.86
709.424	2725.16
709.612	2659.63
709.8	2684.2
709.988	2557.23
710.176	2676.01
710.364	2676.01
710.551	2598.19
710.739	2766.12
710.927	2759.98
711.115	2790.7
711.303	2647.34
711.491	2497.84
711.679	2622.77
711.866	2604.33
712.054	2651.44
712.242	2641.2
712.43	2647.34
712.617	2716.97
712.805	2702.64
712.993	2598.19
713.181	2450.74
713.368	2604.33
713.556	2518.32
713.744	2555.18
713.931	2686.25
714.119	2624.81
714.306	2602.29
714.494	2630.96
714.682	2686.25
714.869	2532.65
715.057	2626.86
715.244	2555.18
715.432	2598.19
715.619	2680.11
715.807	2579.76
715.994	2487.6
716.182	2624.81
716.369	2649.39
716.556	2606.38
716.744	2555.18
716.931	2536.75
717.119	2557.23
717.306	2473.26
717.493	2497.84
717.681	2673.96
717.868	2628.91
718.055	2577.71
718.242	2563.37
718.43	2587.95
718.617	2561.33
718.804	2458.93
718.991	2497.84
719.179	2553.13
719.366	2569.52
719.553	2503.98
719.74	2518.32
719.927	2565.42
720.114	2530.61
720.301	2557.23
720.488	2409.78
720.676	2497.84
720.863	2516.27
721.05	2553.13
721.237	2520.37
721.424	2479.41
721.611	2493.74
721.798	2497.84
721.985	2503.98
722.172	2479.41
722.358	2393.39
722.545	2587.95
722.732	2499.89
722.919	2358.58
723.106	2438.45
723.293	2522.41
723.48	2413.87
723.667	2520.37
723.853	2514.22
724.04	2424.11
724.227	2546.99
724.414	2379.06
724.6	2551.09
724.787	2639.15
724.974	2516.27
725.161	2446.64
725.347	2506.03
725.534	2432.3
725.72	2571.57
725.907	2331.95
726.094	2456.88
726.28	2467.12
726.467	2477.36
726.653	2348.34
726.84	2561.33
727.027	2520.37
727.213	2430.26
727.4	2540.85
727.586	2424.11
727.773	2454.83
727.959	2290.99
728.145	2544.94
728.332	2377.01
728.518	2432.3
728.705	2538.8
728.891	2428.21
729.077	2245.94
729.264	2434.35
729.45	2538.8
729.636	2508.08
729.823	2491.7
730.009	2483.5
730.195	2448.69
730.382	2444.59
730.568	2489.65
730.754	2409.78
730.94	2465.07
731.126	2413.87
731.313	2430.26
731.499	2395.44
731.685	2399.54
731.871	2385.2
732.057	2495.79
732.243	2358.58
732.429	2501.94
732.615	2479.41
732.801	2448.69
732.987	2342.19
733.173	2446.64
733.359	2452.78
733.545	2520.37
733.731	2315.57
733.917	2405.68
734.103	2450.74
734.289	2432.3
734.475	2254.13
734.661	2405.68
734.847	2366.77
735.033	2358.58
735.219	2364.72
735.404	2387.25
735.59	2383.15
735.776	2413.87
735.962	2379.06
736.148	2446.64
736.333	2368.82
736.519	2286.9
736.705	2444.59
736.89	2422.06
737.076	2280.75
737.262	2381.1
737.447	2360.63
737.633	2276.66
737.819	2420.02
738.004	2250.03
738.19	2387.25
738.375	2364.72
738.561	2243.89
738.747	2274.61
738.932	2270.51
739.118	2280.75
739.303	2293.04
739.489	2334
739.674	2374.96
739.859	2270.51
740.045	2276.66
740.23	2176.31
740.416	2247.99
740.601	2247.99
740.786	2282.8
740.972	2204.98
741.157	2098.49
741.342	2209.08
741.528	2262.32
741.713	2176.31
741.898	2176.31
742.084	2131.25
742.269	2096.44
742.454	2217.27
742.639	2241.84
742.824	2121.01
743.01	2192.69
743.195	2227.51
743.38	2176.31
743.565	2170.16
743.75	2172.21
743.935	2057.53
744.12	2164.02
744.305	2022.71
744.49	2098.49
744.675	1991.99
744.86	2075.96
745.045	2192.69
745.23	2020.66
745.415	1955.13
745.6	2039.09
745.785	1971.51
745.97	2067.77
746.155	2112.82
746.34	2051.38
746.525	1998.13
746.71	1977.66
746.895	1996.09
747.079	1916.22
747.264	1897.78
747.449	1953.08
747.634	2014.52
747.819	1967.42
748.003	1840.44
748.188	1871.16
748.373	1887.54
748.557	1828.15
748.742	1877.3
748.927	1922.36
749.111	1832.25
749.296	1834.3
749.481	1867.06
749.665	1756.47
749.85	1766.71
750.034	1819.96
750.219	1721.66
750.404	1795.39
750.588	1692.99
750.773	1729.85
750.957	1764.67
751.141	1637.69
751.326	1635.64
751.51	1596.73
751.695	1631.55
751.879	1566.01
752.064	1563.97
752.248	1549.63
752.432	1604.92
752.617	1545.53
752.801	1512.77
752.985	1545.53
753.17	1496.38
753.354	1523.01
753.538	1537.34
753.722	1529.15
753.907	1547.58
754.091	1570.11
754.275	1484.09
754.459	1383.74
754.643	1516.86
754.828	1455.42
755.012	1416.51
755.196	1414.46
755.38	1496.38
755.564	1369.41
755.748	1348.93
755.932	1385.79
756.116	1406.27
756.3	1373.5
756.484	1310.02
756.668	1369.41
756.852	1475.9
757.036	1275.2
757.22	1267.01
757.404	1310.02
757.588	1357.12
757.772	1293.63
757.956	1287.49
758.14	1291.59
758.323	1260.87
758.507	1293.63
758.691	1193.28
758.875	1129.8
759.059	1277.25
759.242	1269.06
759.426	1197.38
759.61	1117.51
759.794	1097.03
759.977	1217.86
760.161	1250.63
760.345	1226.05
760.528	1164.61
760.712	1226.05
760.895	1217.86
761.079	1113.41
761.263	1156.42
761.446	1123.65
761.63	1119.56
761.813	1058.12
761.997	1094.98
762.18	1090.88
762.364	1074.5
762.547	1027.4
762.731	1066.31
762.914	1131.84
763.098	1066.31
763.281	1021.25
763.464	1054.02
763.648	949.57
763.831	1051.97
764.015	1066.31
764.198	1062.21
764.381	1070.4
764.564	1086.79
764.748	1094.98
764.931	1078.6
765.114	1037.64
765.297	1021.25
765.481	947.53
765.664	1064.26
765.847	1027.4
766.03	1049.93
766.213	959.81
766.397	963.91
766.58	918.86
766.763	955.72
766.946	988.49
767.129	910.66
767.312	968.01
767.495	980.29
767.678	1033.54
767.861	945.48
768.044	865.61
768.227	953.67
768.41	1035.59
768.593	1047.88
768.776	902.47
768.959	931.14
769.142	925
769.324	916.81
769.507	910.66
769.69	865.61
769.873	875.85
770.056	974.15
770.239	963.91
770.421	1004.87
770.604	886.09
770.787	824.65
770.97	898.38
771.152	857.42
771.335	941.38
771.518	902.47
771.7	881.99
771.883	832.84
772.066	867.66
772.248	791.88
772.431	902.47
772.613	824.65
772.796	720.2
772.978	884.04
773.161	791.88
773.343	881.99
773.526	824.65
773.708	765.26
773.891	865.61
774.073	726.35
774.256	767.31
774.438	800.07
774.621	787.79
774.803	783.69
774.985	755.02
775.168	736.59
775.35	701.77
775.532	795.98
775.715	675.15
775.897	775.5
776.079	689.48
776.261	832.84
776.444	759.11
776.626	669
776.808	626
776.99	683.34
777.173	664.91
777.355	697.67
777.537	662.86
777.719	687.43
777.901	775.5
778.083	597.32
778.265	759.11
778.447	673.1
778.629	662.86
778.811	705.87
778.993	619.85
779.175	617.8
779.357	636.24
779.539	585.04
779.721	621.9
779.903	685.39
780.085	660.81
780.267	613.71
780.449	542.03
780.631	566.6
780.812	572.75
780.994	480.59
781.176	582.99
781.358	562.51
781.54	595.28
781.721	589.13
781.903	570.7
782.085	513.36
782.267	544.08
782.448	468.3
782.63	552.27
782.812	501.07
782.993	539.98
783.175	515.41
783.357	544.08
783.538	533.84
783.72	398.67
783.901	441.68
784.083	548.17
784.264	513.36
784.446	480.59
784.627	425.29
784.809	488.78
784.99	464.21
785.172	437.58
785.353	447.82
785.535	494.93
785.716	488.78
785.897	439.63
786.079	367.95
786.26	415.05
786.441	466.25
786.623	410.96
786.804	359.76
786.985	419.15
787.167	394.58
787.348	476.49
787.529	443.73
787.71	429.39
787.891	482.64
788.073	380.24
788.254	353.62
788.435	355.66
788.616	357.71
788.797	341.33
788.978	361.81
789.159	398.67
789.34	390.48
789.522	312.66
789.703	351.57
789.884	421.2
790.065	322.9
790.246	441.68
790.427	320.85
790.607	390.48
790.788	335.18
790.969	374.1
791.15	390.48
791.331	341.33
791.512	333.14
791.693	283.98
791.874	339.28
792.054	333.14
792.235	308.56
792.416	312.66
792.597	345.42
792.778	283.98
792.958	382.29
793.139	357.71
793.32	324.94
793.5	335.18
793.681	318.8
793.862	365.9
794.042	343.38
794.223	290.13
794.404	320.85
794.584	292.18
794.765	267.6
794.945	306.51
795.126	341.33
795.306	382.29
795.487	302.42
795.667	384.34
795.848	341.33
796.028	326.99
796.209	347.47
796.389	255.31
796.57	300.37
796.75	251.22
796.93	243.03
797.111	220.5
797.291	220.5
797.471	226.64
797.652	370
797.832	294.22
798.012	298.32
798.192	220.5
798.373	288.08
798.553	265.55
798.733	210.26
798.913	228.69
799.093	195.92
799.274	300.37
799.454	261.46
799.634	251.22
799.814	294.22
799.994	292.18
800.174	314.7
800.354	236.88
800.534	195.92
800.714	243.03
800.894	173.39
801.074	300.37
801.254	154.96
801.434	187.73
801.614	292.18
801.794	216.4
801.974	789.83
802.154	234.83
802.334	185.68
802.514	243.03
802.693	261.46
802.873	220.5
803.053	365.9
803.233	279.89
803.413	218.45
803.592	222.55
803.772	191.83
803.952	202.07
804.131	224.59
804.311	269.65
804.491	236.88
804.67	179.54
804.85	202.07
805.03	187.73
805.209	202.07
805.389	216.4
805.568	136.53
805.748	159.06
805.928	200.02
806.107	210.26
806.287	181.59
806.466	236.88
806.646	179.54
806.825	171.35
807.004	212.31
807.184	204.11
807.363	195.92
807.543	189.78
807.722	120.15
807.901	230.74
808.081	195.92
808.26	152.91
808.439	136.53
808.619	243.03
808.798	197.97
808.977	220.5
809.156	152.91
809.336	212.31
809.515	193.87
809.694	138.58
809.873	111.96
810.052	107.86
810.231	179.54
810.411	177.49
810.59	193.87
810.769	154.96
810.948	161.11
811.127	191.83
811.306	247.12
811.485	163.15
811.664	177.49
811.843	222.55
812.022	134.48
812.201	140.63
812.38	187.73
812.559	159.06
812.737	169.3
812.916	122.2
813.095	85.33
813.274	122.2
813.453	146.77
813.632	161.11
813.811	150.87
813.989	140.63
814.168	146.77
814.347	142.68
814.526	101.72
814.704	154.96
814.883	210.26
815.062	132.44
815.24	103.76
815.419	120.15
815.598	171.35
815.776	81.24
815.955	126.29
816.133	111.96
816.312	114
816.49	58.71
816.669	114
816.847	34.13
817.026	132.44
817.204	101.72
817.383	150.87
817.561	120.15
817.74	185.68
817.918	120.15
818.097	144.72
818.275	83.28
818.453	154.96
818.632	144.72
818.81	95.57
818.988	97.62
819.167	126.29
819.345	134.48
819.523	103.76
819.701	109.91
819.879	179.54
820.058	95.57
820.236	136.53
820.414	64.85
820.592	136.53
820.77	97.62
820.948	124.24
821.127	116.05
821.305	111.96
821.483	124.24
821.661	122.2
821.839	126.29
822.017	124.24
822.195	103.76
822.373	152.91
822.551	136.53
822.729	116.05
822.907	97.62
823.085	99.67
823.262	128.34
823.44	181.59
823.618	95.57
823.796	122.2
823.974	146.77
824.152	89.43
824.329	116.05
824.507	66.9
824.685	218.45
824.863	93.52
825.04	103.76
825.218	56.66
825.396	122.2
825.574	163.15
825.751	1.37
825.929	124.24
826.107	13.65
826.284	62.8
826.462	120.15
826.639	66.9
826.817	105.81
826.994	103.76
827.172	40.28
827.349	165.2
827.527	99.67
827.704	99.67
827.882	9.56
828.059	58.71
828.237	101.72
828.414	46.42
828.591	15.7
828.769	34.13
828.946	50.52
829.124	128.34
829.301	60.76
829.478	136.53
829.655	146.77
829.833	81.24
830.01	152.91
830.187	62.8
830.364	79.19
830.542	85.33
830.719	101.72
830.896	107.86
831.073	107.86
831.25	114
831.427	161.11
831.604	124.24
831.782	79.19
831.959	124.24
832.136	56.66
832.313	132.44
832.49	-35.5
832.667	89.43
832.844	-6.83
833.021	83.28
833.198	64.85
833.374	52.56
833.551	114
833.728	111.96
833.905	118.1
834.082	48.47
834.259	25.94
834.436	122.2
834.612	38.23
834.789	105.81
834.966	56.66
835.143	95.57
835.319	97.62
835.496	17.75
835.673	95.57
835.85	103.76
836.026	58.71
836.203	79.19
836.38	91.48
836.556	1.37
836.733	27.99
836.909	142.68
837.086	42.32
837.262	25.94
837.439	50.52
837.616	71
837.792	75.09
837.968	56.66
838.145	30.04
838.321	105.81
838.498	19.8
838.674	73.04
838.851	91.48
839.027	60.76
839.203	21.84
839.38	62.8
839.556	34.13
839.732	-0.68
839.909	38.23
840.085	21.84
840.261	105.81
840.437	5.46
840.614	97.62
840.79	62.8
840.966	13.65
841.142	124.24
841.318	132.44
841.494	42.32
841.671	87.38
841.847	30.04
842.023	21.84
842.199	64.85
842.375	118.1
842.551	11.61
842.727	-17.07
842.903	38.23
843.079	30.04
843.255	71
843.431	66.9
843.607	25.94
843.783	46.42
843.959	-6.83
844.134	-10.92
844.31	-0.68
844.486	-8.87
844.662	107.86
844.838	15.7
845.013	21.84
845.189	-2.73
845.365	91.48
845.541	-0.68
845.716	89.43
845.892	77.14
846.068	32.08
846.244	64.85
846.419	54.61
846.595	62.8
846.77	62.8
846.946	40.28
847.122	-6.83
847.297	71
847.473	-33.45
847.648	105.81
847.824	21.84
847.999	25.94
848.175	17.75
848.35	71
848.526	48.47
848.701	23.89
848.876	-2.73
849.052	75.09
849.227	60.76
849.403	32.08
849.578	56.66
849.753	38.23
849.929	48.47
850.104	-15.02
850.279	99.67
850.454	17.75
850.63	71
850.805	71
850.98	56.66
851.155	30.04
851.33	71
851.505	38.23
851.681	36.18
851.856	23.89
852.031	44.37
852.206	93.52
852.381	56.66
852.556	50.52
852.731	66.9
852.906	46.42
853.081	66.9
853.256	-27.31
853.431	79.19
853.606	-4.78
853.781	5.46
853.956	-41.64
854.131	9.56
854.305	46.42
854.48	30.04
854.655	52.56
854.83	-0.68
855.005	-2.73
855.18	38.23
855.354	-51.88
855.529	46.42
855.704	13.65
855.879	54.61
856.053	-17.07
856.228	-31.4
856.403	-25.26
856.577	56.66
856.752	-55.98
856.926	-37.55
857.101	5.46
857.276	-10.92
857.45	17.75
857.625	13.65
857.799	7.51
857.974	54.61
858.148	-10.92
858.323	48.47
858.497	25.94
858.672	19.8
858.846	-19.11
859.02	23.89
859.195	-35.5
859.369	7.51
859.543	-10.92
859.718	83.28
859.892	-29.35
860.066	54.61
860.241	13.65
860.415	58.71
860.589	-2.73
860.763	48.47
860.938	-60.07
861.112	56.66
861.286	75.09
861.46	81.24
861.634	134.48
861.808	154.96
861.982	101.72
862.157	46.42
862.331	38.23
862.505	7.51
862.679	-15.02
862.853	3.41
863.027	-84.65
863.201	19.8
863.375	25.94
863.549	71
863.722	-27.31
863.896	7.51
864.07	-15.02
864.244	5.46
864.418	56.66
864.592	-29.35
864.766	-33.45
864.939	40.28
865.113	-27.31
865.287	21.84
865.461	-2.73
865.634	34.13
865.808	21.84
865.982	46.42
866.156	13.65
866.329	-45.74
866.503	-12.97
866.676	54.61
866.85	54.61
867.024	-101.03
867.197	48.47
867.371	89.43
867.544	15.7
867.718	34.13
867.891	75.09
868.065	46.42
868.238	-6.83
868.412	85.33
868.585	-12.97
868.759	7.51
868.932	-6.83
869.105	34.13
869.279	3.41
869.452	71
869.625	-15.02
869.799	-10.92
869.972	-2.73
870.145	32.08
870.319	66.9
870.492	30.04
870.665	46.42
870.838	34.13
871.011	46.42
871.185	7.51
871.358	-19.11
871.531	23.89
871.704	-19.11
871.877	30.04
872.05	-33.45
872.223	30.04
872.396	13.65
872.569	21.84
872.742	54.61
872.915	21.84
873.088	-51.88
873.261	-15.02
873.434	32.08
873.607	-31.4
873.78	25.94
873.953	-15.02
874.126	-33.45
874.299	-60.07
874.471	73.04
874.644	1.37
874.817	-10.92
874.99	-17.07
875.163	-2.73
875.335	13.65
875.508	-17.07
875.681	71
875.853	9.56
876.026	13.65
876.199	38.23
876.371	-19.11
876.544	7.51
876.717	15.7
876.889	-43.69
877.062	27.99
877.234	-17.07
877.407	11.61
877.579	-68.27
877.752	5.46
877.924	101.72
878.097	46.42
878.269	32.08
878.442	64.85
878.614	58.71
878.786	-27.31
878.959	21.84
879.131	83.28
879.303	40.28
879.476	48.47
879.648	7.51
879.82	7.51
879.993	1.37
880.165	-2.73
880.337	5.46
880.509	9.56
880.681	-25.26
880.854	-31.4
881.026	9.56
881.198	42.32
881.37	-33.45
881.542	11.61
881.714	5.46
881.886	-53.93
882.058	-8.87
882.23	30.04
882.402	-21.16
882.574	52.56
882.746	-39.59
882.918	64.85
883.09	17.75
883.262	-51.88
883.434	-10.92
883.606	-10.92
883.778	-10.92
883.95	21.84
884.122	-31.4
884.293	19.8
884.465	-64.17
884.637	50.52
884.809	68.95
884.98	15.7
885.152	15.7
885.324	25.94
885.496	-60.07
885.667	-29.35
885.839	-51.88
886.011	42.32
886.182	-10.92
886.354	46.42
886.525	-41.64
886.697	9.56
886.869	50.52
887.04	46.42
887.212	11.61
887.383	73.04
887.555	5.46
887.726	21.84
887.897	-23.21
888.069	79.19
888.24	23.89
888.412	-2.73
888.583	-39.59
888.754	-2.73
888.926	-37.55
889.097	52.56
889.268	50.52
889.44	-10.92
889.611	15.7
889.782	7.51
889.953	-31.4
890.125	97.62
890.296	30.04
890.467	40.28
890.638	-23.21
890.809	56.66
890.98	-31.4
891.151	-2.73
891.323	-0.68
891.494	50.52
891.665	-43.69
891.836	9.56
892.007	-8.87
892.178	-17.07
892.349	-23.21
892.52	9.56
892.691	13.65
892.862	1.37
893.032	-76.46
893.203	13.65
893.374	3.41
893.545	46.42
893.716	-51.88
893.887	-27.31
894.057	-10.92
894.228	42.32
894.399	9.56
894.57	-2.73
894.74	-27.31
894.911	-45.74
895.082	32.08
895.253	-15.02
895.423	-41.64
895.594	40.28
895.764	30.04
895.935	-6.83
896.106	7.51
896.276	15.7
896.447	-49.83
896.617	-47.79
896.788	-27.31
896.958	-19.11
897.129	17.75
897.299	-25.26
897.47	42.32
897.64	-10.92
897.81	-43.69
897.981	79.19
898.151	15.7
898.322	-45.74
898.492	-10.92
898.662	21.84
898.832	-0.68
899.003	21.84
899.173	7.51
899.343	50.52
899.513	17.75
