Data from USB4F104151__310__14-24-23-744.txt Node

Date: Thu Mar 13 14:24:23 EDT 2025
User: louis
Spectrometer: USB4F10415
Trigger mode: 4
Integration Time (sec): 2.000000E-2
Scans to average: 1
Electric dark correction enabled: true
Nonlinearity correction enabled: false
Boxcar width: 0
XAxis mode: Wavelengths
Number of Pixels in Spectrum: 3648
>>>>>Begin Spectral Data<<<<<
178.204	-100.18
178.424	-100.18
178.644	-100.18
178.864	-143.19
179.084	-108.37
179.304	69.8
179.524	61.61
179.744	24.75
179.964	-20.31
180.184	-8.02
180.404	-3.93
180.624	6.31
180.844	-38.74
181.064	-30.55
181.283	-36.69
181.503	-18.26
181.723	-5.97
181.943	-65.36
182.163	47.27
182.383	-12.12
182.602	20.65
182.822	8.36
183.042	-16.21
183.262	63.66
183.482	-36.69
183.701	-24.4
183.921	2.22
184.141	12.46
184.361	61.61
184.58	-3.93
184.8	102.57
185.02	32.94
185.239	32.94
185.459	37.03
185.679	20.65
185.898	-71.51
186.118	-16.21
186.338	34.99
186.557	-12.12
186.777	-73.56
186.997	-59.22
187.216	-55.12
187.436	73.9
187.655	-48.98
187.875	-26.45
188.095	4.27
188.314	45.23
188.534	20.65
188.753	-26.45
188.973	-3.93
189.192	41.13
189.412	45.23
189.631	8.36
189.851	37.03
190.07	-36.69
190.29	-18.26
190.509	-87.89
190.729	-20.31
190.948	-12.12
191.168	80.04
191.387	-18.26
191.607	-34.64
191.826	6.31
192.045	-28.5
192.265	-26.45
192.484	28.84
192.704	14.51
192.923	-30.55
193.142	77.99
193.362	26.79
193.581	-38.74
193.8	-12.12
194.02	-20.31
194.239	20.65
194.458	45.23
194.678	-12.12
194.897	69.8
195.116	-67.41
195.335	-3.93
195.555	12.46
195.774	16.55
195.993	-3.93
196.212	14.51
196.432	-106.32
196.651	-85.84
196.87	20.65
197.089	32.94
197.308	14.51
197.528	-28.5
197.747	-12.12
197.966	2.22
198.185	6.31
198.404	8.36
198.623	12.46
198.842	63.66
199.062	-20.31
199.281	-1.88
199.5	20.65
199.719	-24.4
199.938	24.75
200.157	-36.69
200.376	47.27
200.595	106.67
200.814	32.94
201.033	67.75
201.252	-67.41
201.471	55.47
201.69	8.36
201.909	-46.93
202.128	32.94
202.347	-20.31
202.566	-36.69
202.785	-32.6
203.004	-55.12
203.223	16.55
203.442	-5.97
203.661	-20.31
203.879	53.42
204.098	65.71
204.317	-57.17
204.536	61.61
204.755	-10.07
204.974	8.36
205.193	-8.02
205.411	86.19
205.63	4.27
205.849	-83.8
206.068	77.99
206.287	65.71
206.505	39.08
206.724	69.8
206.943	-106.32
207.162	24.75
207.381	30.89
207.599	20.65
207.818	-26.45
208.037	37.03
208.255	-12.12
208.474	-28.5
208.693	30.89
208.911	45.23
209.13	20.65
209.349	6.31
209.567	49.32
209.786	-16.21
210.005	-24.4
210.223	20.65
210.442	-87.89
210.661	37.03
210.879	-18.26
211.098	-59.22
211.316	-18.26
211.535	53.42
211.753	0.17
211.972	37.03
212.191	-14.17
212.409	45.23
212.628	39.08
212.846	-69.46
213.065	4.27
213.283	47.27
213.502	-34.64
213.72	22.7
213.938	-40.79
214.157	-51.03
214.375	-18.26
214.594	-67.41
214.812	-36.69
215.031	45.23
215.249	-32.6
215.467	-34.64
215.686	24.75
215.904	45.23
216.122	-5.97
216.341	73.9
216.559	-57.17
216.778	65.71
216.996	-32.6
217.214	37.03
217.432	-87.89
217.651	-44.88
217.869	-85.84
218.087	45.23
218.306	51.37
218.524	69.8
218.742	12.46
218.96	-5.97
219.179	-20.31
219.397	-44.88
219.615	69.8
219.833	51.37
220.051	-3.93
220.27	-28.5
220.488	-22.36
220.706	100.52
220.924	-42.84
221.142	24.75
221.36	65.71
221.578	-20.31
221.796	-28.5
222.015	43.18
222.233	-20.31
222.451	73.9
222.669	-48.98
222.887	53.42
223.105	-8.02
223.323	24.75
223.541	14.51
223.759	-22.36
223.977	-34.64
224.195	22.7
224.413	20.65
224.631	-1.88
224.849	30.89
225.067	61.61
225.285	6.31
225.503	-36.69
225.721	-44.88
225.939	18.6
226.157	-1.88
226.375	90.28
226.592	6.31
226.81	-69.46
227.028	-32.6
227.246	45.23
227.464	96.43
227.682	143.53
227.9	-18.26
228.117	73.9
228.335	43.18
228.553	20.65
228.771	-5.97
228.989	20.65
229.206	8.36
229.424	94.38
229.642	-20.31
229.86	-20.31
230.077	-1.88
230.295	16.55
230.513	-22.36
230.731	55.47
230.948	24.75
231.166	57.51
231.384	-89.94
231.601	-65.36
231.819	77.99
232.037	14.51
232.254	-10.07
232.472	-34.64
232.689	-3.93
232.907	53.42
233.125	-44.88
233.342	12.46
233.56	12.46
233.777	-20.31
233.995	0.17
234.213	-20.31
234.43	-8.02
234.648	20.65
234.865	37.03
235.083	37.03
235.3	-12.12
235.518	47.27
235.735	55.47
235.953	30.89
236.17	41.13
236.388	55.47
236.605	16.55
236.822	80.04
237.04	-12.12
237.257	39.08
237.475	-40.79
237.692	16.55
237.909	-12.12
238.127	61.61
238.344	-22.36
238.562	4.27
238.779	-61.27
238.996	-69.46
239.214	0.17
239.431	71.85
239.648	-28.5
239.865	-18.26
240.083	39.08
240.3	39.08
240.517	12.46
240.735	-36.69
240.952	86.19
241.169	45.23
241.386	32.94
241.603	20.65
241.821	-44.88
242.038	20.65
242.255	55.47
242.472	20.65
242.689	-40.79
242.907	12.46
243.124	-77.65
243.341	-1.88
243.558	6.31
243.775	-16.21
243.992	20.65
244.209	28.84
244.426	49.32
244.643	20.65
244.86	-3.93
245.078	57.51
245.295	39.08
245.512	45.23
245.729	-73.56
245.946	-12.12
246.163	22.7
246.38	30.89
246.597	28.84
246.814	37.03
247.031	32.94
247.248	43.18
247.464	22.7
247.681	20.65
247.898	14.51
248.115	12.46
248.332	0.17
248.549	-40.79
248.766	65.71
248.983	-10.07
249.2	-3.93
249.417	-22.36
249.633	12.46
249.85	0.17
250.067	-36.69
250.284	-14.17
250.501	-26.45
250.717	61.61
250.934	-51.03
251.151	63.66
251.368	-1.88
251.585	24.75
251.801	16.55
252.018	-1.88
252.235	-20.31
252.451	14.51
252.668	-3.93
252.885	34.99
253.102	-28.5
253.318	16.55
253.535	-75.6
253.752	-32.6
253.968	-10.07
254.185	-65.36
254.401	41.13
254.618	53.42
254.835	-77.65
255.051	90.28
255.268	-118.61
255.484	61.61
255.701	8.36
255.917	-1.88
256.134	-1.88
256.351	-10.07
256.567	0.17
256.784	-59.22
257	-55.12
257.217	110.76
257.433	-38.74
257.65	37.03
257.866	4.27
258.082	-26.45
258.299	12.46
258.515	20.65
258.732	0.17
258.948	-59.22
259.165	8.36
259.381	-3.93
259.597	-44.88
259.814	-36.69
260.03	-20.31
260.246	32.94
260.463	-28.5
260.679	-18.26
260.895	-53.08
261.112	86.19
261.328	-26.45
261.544	-28.5
261.761	-32.6
261.977	16.55
262.193	-26.45
262.409	-26.45
262.626	4.27
262.842	57.51
263.058	-10.07
263.274	-55.12
263.49	-38.74
263.707	71.85
263.923	-3.93
264.139	-20.31
264.355	22.7
264.571	-12.12
264.787	28.84
265.004	-26.45
265.22	32.94
265.436	43.18
265.652	-20.31
265.868	45.23
266.084	-18.26
266.3	28.84
266.516	-59.22
266.732	-20.31
266.948	-5.97
267.164	-40.79
267.38	-1.88
267.596	0.17
267.812	96.43
268.028	20.65
268.244	-20.31
268.46	41.13
268.676	-61.27
268.892	41.13
269.108	-61.27
269.324	-44.88
269.54	-12.12
269.756	43.18
269.972	-3.93
270.188	14.51
270.403	-32.6
270.619	20.65
270.835	67.75
271.051	28.84
271.267	28.84
271.483	24.75
271.698	51.37
271.914	45.23
272.13	-28.5
272.346	-40.79
272.562	-20.31
272.777	-3.93
272.993	-26.45
273.209	-10.07
273.425	22.7
273.64	20.65
273.856	61.61
274.072	30.89
274.287	-44.88
274.503	20.65
274.719	39.08
274.934	8.36
275.15	-20.31
275.366	-28.5
275.581	69.8
275.797	39.08
276.012	-8.02
276.228	24.75
276.444	37.03
276.659	32.94
276.875	-26.45
277.09	2.22
277.306	-36.69
277.521	-77.65
277.737	20.65
277.952	32.94
278.168	2.22
278.383	-20.31
278.599	20.65
278.814	37.03
279.03	-32.6
279.245	4.27
279.461	37.03
279.676	-10.07
279.892	-26.45
280.107	-1.88
280.322	6.31
280.538	-24.4
280.753	32.94
280.969	45.23
281.184	41.13
281.399	30.89
281.615	45.23
281.83	22.7
282.045	4.27
282.26	-67.41
282.476	14.51
282.691	32.94
282.906	-44.88
283.122	0.17
283.337	-8.02
283.552	8.36
283.767	-59.22
283.983	-46.93
284.198	10.41
284.413	47.27
284.628	-28.5
284.843	-10.07
285.058	80.04
285.274	61.61
285.489	-59.22
285.704	14.51
285.919	-75.6
286.134	-26.45
286.349	14.51
286.564	12.46
286.779	-36.69
286.995	-42.84
287.21	-32.6
287.425	45.23
287.64	-20.31
287.855	26.79
288.07	-42.84
288.285	-3.93
288.5	39.08
288.715	63.66
288.93	6.31
289.145	-59.22
289.36	-22.36
289.575	26.79
289.79	14.51
290.004	2.22
290.219	37.03
290.434	-12.12
290.649	-18.26
290.864	53.42
291.079	-8.02
291.294	30.89
291.509	-12.12
291.724	12.46
291.938	-1.88
292.153	24.75
292.368	37.03
292.583	-22.36
292.798	47.27
293.012	16.55
293.227	-34.64
293.442	-36.69
293.657	-57.17
293.871	57.51
294.086	-1.88
294.301	59.56
294.516	34.99
294.73	-40.79
294.945	32.94
295.16	12.46
295.374	-20.31
295.589	6.31
295.804	-3.93
296.018	28.84
296.233	82.09
296.447	37.03
296.662	-77.65
296.877	37.03
297.091	-26.45
297.306	30.89
297.52	37.03
297.735	-28.5
297.949	37.03
298.164	45.23
298.378	14.51
298.593	-24.4
298.807	8.36
299.022	75.95
299.236	110.76
299.451	43.18
299.665	-69.46
299.88	8.36
300.094	16.55
300.309	32.94
300.523	-3.93
300.737	10.41
300.952	-24.4
301.166	69.8
301.381	-32.6
301.595	20.65
301.809	8.36
302.024	-22.36
302.238	8.36
302.452	49.32
302.667	45.23
302.881	69.8
303.095	2.22
303.309	63.66
303.524	47.27
303.738	102.57
303.952	20.65
304.166	41.13
304.381	-53.08
304.595	30.89
304.809	-12.12
305.023	30.89
305.237	-3.93
305.452	-79.7
305.666	94.38
305.88	-18.26
306.094	63.66
306.308	39.08
306.522	24.75
306.736	34.99
306.95	53.42
307.164	20.65
307.379	22.7
307.593	16.55
307.807	94.38
308.021	-20.31
308.235	6.31
308.449	-3.93
308.663	30.89
308.877	16.55
309.091	-20.31
309.305	82.09
309.519	-18.26
309.733	28.84
309.947	-40.79
310.161	-28.5
310.374	26.79
310.588	-20.31
310.802	-26.45
311.016	-28.5
311.23	30.89
311.444	-20.31
311.658	-3.93
311.872	-20.31
312.085	-3.93
312.299	28.84
312.513	55.47
312.727	22.7
312.941	-44.88
313.154	-1.88
313.368	75.95
313.582	-5.97
313.796	-26.45
314.009	-12.12
314.223	20.65
314.437	-32.6
314.651	-10.07
314.864	-14.17
315.078	-28.5
315.292	10.41
315.505	43.18
315.719	4.27
315.933	37.03
316.146	43.18
316.36	-69.46
316.573	-8.02
316.787	-8.02
317.001	-20.31
317.214	-51.03
317.428	4.27
317.641	20.65
317.855	-3.93
318.068	-12.12
318.282	-28.5
318.495	37.03
318.709	-26.45
318.922	16.55
319.136	34.99
319.349	32.94
319.563	77.99
319.776	28.84
319.99	12.46
320.203	30.89
320.417	-10.07
320.63	20.65
320.843	39.08
321.057	28.84
321.27	45.23
321.483	39.08
321.697	71.85
321.91	-12.12
322.124	14.51
322.337	-1.88
322.55	2.22
322.763	61.61
322.977	12.46
323.19	24.75
323.403	8.36
323.617	34.99
323.83	41.13
324.043	-51.03
324.256	4.27
324.469	4.27
324.683	55.47
324.896	41.13
325.109	43.18
325.322	-44.88
325.535	73.9
325.748	22.7
325.962	-28.5
326.175	-22.36
326.388	61.61
326.601	-10.07
326.814	-26.45
327.027	20.65
327.24	24.75
327.453	30.89
327.666	30.89
327.879	53.42
328.092	41.13
328.305	45.23
328.518	-3.93
328.731	45.23
328.944	2.22
329.157	-36.69
329.37	-18.26
329.583	37.03
329.796	100.52
330.009	-12.12
330.222	22.7
330.435	-16.21
330.648	-18.26
330.861	14.51
331.073	22.7
331.286	-12.12
331.499	24.75
331.712	16.55
331.925	18.6
332.138	77.99
332.35	14.51
332.563	45.23
332.776	-34.64
332.989	-67.41
333.202	69.8
333.414	30.89
333.627	-3.93
333.84	-24.4
334.053	34.99
334.265	-28.5
334.478	45.23
334.691	26.79
334.903	18.6
335.116	65.71
335.329	37.03
335.541	98.47
335.754	-28.5
335.966	12.46
336.179	-55.12
336.392	-8.02
336.604	-12.12
336.817	86.19
337.029	24.75
337.242	16.55
337.454	-1.88
337.667	-18.26
337.88	51.37
338.092	37.03
338.305	57.51
338.517	-20.31
338.729	32.94
338.942	94.38
339.154	-34.64
339.367	30.89
339.579	12.46
339.792	-28.5
340.004	16.55
340.217	104.62
340.429	-12.12
340.641	-89.94
340.854	-51.03
341.066	-20.31
341.278	47.27
341.491	90.28
341.703	30.89
341.915	32.94
342.128	-32.6
342.34	30.89
342.552	-20.31
342.764	16.55
342.977	63.66
343.189	45.23
343.401	82.09
343.613	-36.69
343.826	12.46
344.038	-40.79
344.25	37.03
344.462	-12.12
344.674	8.36
344.886	4.27
345.099	4.27
345.311	18.6
345.523	-12.12
345.735	65.71
345.947	-53.08
346.159	20.65
346.371	14.51
346.583	8.36
346.795	61.61
347.007	-26.45
347.219	-1.88
347.431	34.99
347.643	71.85
347.855	16.55
348.067	61.61
348.279	-36.69
348.491	57.51
348.703	4.27
348.915	45.23
349.127	37.03
349.339	-8.02
349.551	22.7
349.763	14.51
349.975	20.65
350.187	4.27
350.399	92.33
350.61	37.03
350.822	-28.5
351.034	-24.4
351.246	30.89
351.458	30.89
351.669	-36.69
351.881	69.8
352.093	-20.31
352.305	4.27
352.517	-34.64
352.728	-10.07
352.94	12.46
353.152	53.42
353.363	-10.07
353.575	-57.17
353.787	22.7
353.999	30.89
354.21	84.14
354.422	12.46
354.633	39.08
354.845	26.79
355.057	-18.26
355.268	-3.93
355.48	39.08
355.692	6.31
355.903	-57.17
356.115	-1.88
356.326	-18.26
356.538	63.66
356.749	-1.88
356.961	-30.55
357.172	8.36
357.384	32.94
357.595	37.03
357.807	-67.41
358.018	63.66
358.23	4.27
358.441	41.13
358.653	45.23
358.864	0.17
359.075	51.37
359.287	6.31
359.498	-8.02
359.709	-24.4
359.921	4.27
360.132	8.36
360.344	-28.5
360.555	-12.12
360.766	-3.93
360.977	12.46
361.189	37.03
361.4	-26.45
361.611	45.23
361.823	37.03
362.034	63.66
362.245	-8.02
362.456	37.03
362.667	20.65
362.879	-42.84
363.09	90.28
363.301	-85.84
363.512	20.65
363.723	0.17
363.935	0.17
364.146	94.38
364.357	12.46
364.568	18.6
364.779	-57.17
364.99	24.75
365.201	41.13
365.412	61.61
365.623	-12.12
365.834	-44.88
366.045	-28.5
366.256	-14.17
366.467	41.13
366.678	37.03
366.889	20.65
367.1	-46.93
367.311	39.08
367.522	55.47
367.733	-3.93
367.944	82.09
368.155	-12.12
368.366	-14.17
368.577	8.36
368.788	53.42
368.999	-69.46
369.209	-48.98
369.42	118.95
369.631	47.27
369.842	4.27
370.053	71.85
370.264	41.13
370.474	-57.17
370.685	4.27
370.896	24.75
371.107	-3.93
371.317	45.23
371.528	2.22
371.739	4.27
371.95	-3.93
372.16	18.6
372.371	-10.07
372.582	159.91
372.792	28.84
373.003	-10.07
373.214	28.84
373.424	-22.36
373.635	-69.46
373.846	45.23
374.056	14.51
374.267	41.13
374.477	28.84
374.688	-28.5
374.898	4.27
375.109	28.84
375.319	12.46
375.53	112.81
375.74	8.36
375.951	-10.07
376.161	86.19
376.372	51.37
376.582	45.23
376.793	14.51
377.003	28.84
377.214	6.31
377.424	121
377.635	16.55
377.845	-59.22
378.055	32.94
378.266	-3.93
378.476	28.84
378.686	-26.45
378.897	4.27
379.107	34.99
379.317	61.61
379.528	-1.88
379.738	2.22
379.948	4.27
380.158	92.33
380.369	20.65
380.579	26.79
380.789	-51.03
380.999	90.28
381.21	49.32
381.42	73.9
381.63	32.94
381.84	47.27
382.05	28.84
382.261	37.03
382.471	65.71
382.681	37.03
382.891	-16.21
383.101	26.79
383.311	-28.5
383.521	37.03
383.731	12.46
383.941	69.8
384.151	63.66
384.361	30.89
384.571	6.31
384.781	8.36
384.991	57.51
385.201	14.51
385.411	-12.12
385.621	4.27
385.831	41.13
386.041	-1.88
386.251	20.65
386.461	69.8
386.671	16.55
386.881	-1.88
387.091	-12.12
387.301	16.55
387.511	20.65
387.72	37.03
387.93	24.75
388.14	-22.36
388.35	18.6
388.56	30.89
388.769	133.29
388.979	71.85
389.189	12.46
389.399	82.09
389.609	4.27
389.818	12.46
390.028	-1.88
390.238	61.61
390.447	61.61
390.657	57.51
390.867	-38.74
391.076	-1.88
391.286	41.13
391.496	55.47
391.705	86.19
391.915	63.66
392.125	47.27
392.334	-67.41
392.544	41.13
392.753	69.8
392.963	28.84
393.172	0.17
393.382	-36.69
393.591	12.46
393.801	39.08
394.01	30.89
394.22	106.67
394.429	37.03
394.639	45.23
394.848	28.84
395.058	104.62
395.267	86.19
395.477	-3.93
395.686	16.55
395.895	10.41
396.105	77.99
396.314	71.85
396.524	-26.45
396.733	69.8
396.942	77.99
397.152	45.23
397.361	94.38
397.57	69.8
397.78	61.61
397.989	-12.12
398.198	51.37
398.407	2.22
398.617	73.9
398.826	80.04
399.035	88.23
399.244	88.23
399.453	57.51
399.663	61.61
399.872	41.13
400.081	71.85
400.29	123.05
400.499	45.23
400.708	118.95
400.917	77.99
401.127	22.7
401.336	57.51
401.545	75.95
401.754	121
401.963	71.85
402.172	65.71
402.381	32.94
402.59	90.28
402.799	69.8
403.008	49.32
403.217	92.33
403.426	71.85
403.635	96.43
403.844	73.9
404.053	106.67
404.262	153.77
404.471	112.81
404.68	127.14
404.888	63.66
405.097	69.8
405.306	139.43
405.515	69.8
405.724	65.71
405.933	108.71
406.142	145.58
406.35	145.58
406.559	139.43
406.768	108.71
406.977	192.68
407.185	82.09
407.394	123.05
407.603	39.08
407.812	139.43
408.02	215.21
408.229	143.53
408.438	159.91
408.646	110.76
408.855	198.82
409.064	200.87
409.272	209.06
409.481	286.89
409.69	147.62
409.898	186.54
410.107	215.21
410.315	211.11
410.524	227.5
410.733	319.65
410.941	209.06
411.15	323.75
411.358	272.55
411.567	262.31
411.775	252.07
411.984	321.7
412.192	301.22
412.401	372.9
412.609	428.2
412.818	327.85
413.026	409.76
413.234	266.41
413.443	413.86
413.651	422.05
413.86	415.91
414.068	473.25
414.276	467.11
414.485	483.49
414.693	495.78
414.901	450.72
415.11	585.89
415.318	520.35
415.526	532.64
415.734	598.18
415.943	528.55
416.151	557.22
416.359	569.51
416.567	645.28
416.776	719.01
416.984	630.95
417.192	692.38
417.4	727.2
417.608	770.21
417.817	741.54
418.025	800.93
418.233	856.22
418.441	848.03
418.649	884.89
418.857	921.76
419.065	979.1
419.273	968.86
419.481	919.71
419.689	1007.77
419.897	1044.63
420.105	1095.83
420.313	1132.7
420.521	1261.72
420.729	1253.53
420.937	1278.1
421.145	1284.25
421.353	1439.89
421.561	1462.42
421.769	1458.32
421.977	1454.23
422.185	1532.05
422.393	1620.11
422.601	1818.77
422.809	1636.5
423.017	1618.07
423.224	1738.9
423.432	1904.78
423.64	1806.48
423.848	1998.99
424.056	2017.42
424.263	2195.59
424.471	2160.78
424.679	2191.5
424.887	2275.46
425.094	2457.73
425.302	2297.99
425.51	2515.08
425.718	2472.07
425.925	2551.94
426.133	2617.47
426.341	2871.42
426.548	2930.81
426.756	2865.28
426.964	3037.31
427.171	3080.32
427.379	3287.16
427.586	3213.43
427.794	3238.01
428.001	3428.47
428.209	3635.32
428.417	3559.54
428.624	3981.42
428.832	3868.78
429.039	3750
429.247	3805.3
429.454	4206.7
429.662	4384.87
429.869	4290.67
430.076	4526.18
430.284	4309.1
430.491	4608.1
430.699	4722.79
430.906	4751.46
431.114	4946.02
431.321	5048.41
431.528	5034.08
431.736	5447.77
431.943	5730.39
432.15	5660.76
432.358	5771.35
432.565	5955.66
432.772	5759.06
432.979	6201.42
433.187	6273.1
433.394	6352.97
433.601	6682.69
433.808	6797.38
434.016	6930.5
434.223	6889.54
434.43	7419.96
434.637	7338.04
434.844	7768.12
435.052	7847.99
435.259	7802.93
435.466	7835.7
435.673	7788.6
435.88	8462.38
436.087	8615.98
436.294	8935.46
436.501	8564.78
436.708	8822.82
436.915	9035.81
437.122	9500.7
437.329	9465.88
437.537	9543.71
437.743	9887.76
437.95	9711.64
438.157	10297.36
438.364	10596.36
438.571	10653.7
438.778	10649.61
438.985	11517.95
439.192	11218.94
439.399	11554.81
439.606	11167.74
439.813	11886.58
440.02	12769.26
440.227	12447.72
440.433	12433.39
440.64	12812.26
440.847	12480.49
441.054	13043.68
441.261	13930.45
441.467	13600.73
441.674	13920.21
441.881	14282.7
442.088	14348.24
442.294	14471.12
442.501	14505.93
442.708	14884.81
442.914	15380.42
443.121	16365.49
443.328	15540.16
443.534	16535.47
443.741	16232.37
443.948	15962.04
444.154	17280.93
444.361	17123.24
444.568	17436.58
444.774	17123.24
444.981	17192.87
445.187	18057.11
445.394	18767.76
445.6	18468.75
445.807	20195.19
446.013	19345.28
446.22	19914.62
446.426	20363.12
446.633	20356.98
446.839	21387.11
447.046	20617.07
447.252	21499.75
447.459	21501.79
447.665	21544.8
447.871	22335.32
448.078	23398.21
448.284	22083.42
448.491	23035.72
448.697	24000.32
448.903	24135.48
449.11	24233.78
449.316	24010.56
449.522	24022.84
449.728	24864.56
449.935	25437.99
450.141	25294.63
450.347	25960.22
450.553	24985.39
450.76	25259.82
450.966	26156.83
451.172	25702.18
451.378	26341.14
451.584	25747.23
451.791	26547.99
451.997	26644.24
452.203	26984.21
452.409	26859.28
452.615	26980.11
452.821	25745.19
453.027	25726.75
453.233	27203.34
453.44	26138.4
453.646	26777.36
453.852	26509.08
454.058	26953.49
454.264	25851.68
454.47	26933.01
454.676	26113.82
454.882	27092.75
455.088	24385.33
455.294	24833.84
455.5	25366.31
455.705	25671.46
455.911	24696.63
456.117	24258.36
456.323	23822.14
456.529	22546.26
456.735	23811.9
456.941	23164.75
457.147	22572.88
457.352	22245.21
457.558	21821.28
457.764	21962.59
457.97	21251.94
458.176	21131.11
458.381	21135.21
458.587	19992.44
458.793	20143.99
458.999	18968.46
459.204	20043.64
459.41	19732.35
459.616	18446.23
459.821	18657.17
460.027	18433.94
460.233	18378.64
460.438	17217.44
460.644	17606.56
460.85	16654.25
461.055	16504.75
461.261	16191.41
461.466	15171.52
461.672	14571.47
461.878	15722.43
462.083	14663.63
462.289	14118.87
462.494	14227.41
462.7	13752.28
462.905	13221.86
463.111	13660.12
463.316	13680.6
463.522	13578.2
463.727	13625.31
463.932	13582.3
464.138	13299.68
464.343	13608.92
464.549	12840.93
464.754	13211.62
464.959	13260.77
465.165	12976.1
465.37	12648.43
465.575	12140.53
465.781	13008.87
465.986	12767.21
466.191	12242.93
466.397	12072.95
466.602	11360.25
466.807	11954.16
467.012	12181.49
467.218	11966.45
467.423	11657.21
467.628	11689.98
467.833	12478.44
468.038	11708.41
468.244	11563
468.449	11948.02
468.654	11728.89
468.859	11550.71
469.064	11595.77
469.269	10911.75
469.474	11073.54
469.679	11266.05
469.885	10991.62
470.09	11120.64
470.295	11112.45
470.5	10678.28
470.705	10815.49
470.91	10643.46
471.115	10350.6
471.32	10805.25
471.525	10571.79
471.73	10377.23
471.935	10399.76
472.139	9822.23
472.344	10340.36
472.549	10100.75
472.754	10057.75
472.959	9631.77
473.164	9531.42
473.369	9267.23
473.574	9922.58
473.778	9609.24
473.983	9580.57
474.188	9578.52
474.393	9181.21
474.598	9033.76
474.802	9000.99
475.007	8982.56
475.212	8982.56
475.417	8622.12
475.621	8745
475.826	8900.64
476.031	8650.79
476.235	8239.15
476.44	8593.45
476.645	8321.07
476.849	8558.63
477.054	8351.79
477.259	8136.75
477.463	8108.08
477.668	8011.82
477.872	8007.73
478.077	7759.92
478.282	7778.36
478.486	7622.71
478.691	7536.7
478.895	7587.89
479.1	7467.06
479.304	7487.54
479.509	7393.34
479.713	7399.48
479.918	7307.32
480.122	7231.55
480.326	7483.45
480.531	7204.92
480.735	7186.49
480.94	7028.8
481.144	7483.45
481.348	6914.11
481.553	7024.7
481.757	6856.77
481.961	7112.77
482.166	7221.31
482.37	7123.01
482.574	6860.87
482.778	7118.91
482.983	7065.66
483.187	6936.64
483.391	7067.71
483.595	6836.29
483.8	6811.71
484.004	6901.83
484.208	7151.68
484.412	6840.39
484.616	7053.38
484.821	7004.22
485.025	6844.48
485.229	6893.63
485.433	6821.95
485.637	6893.63
485.841	6893.63
486.045	6867.01
486.249	7049.28
486.453	6811.71
486.657	6879.3
486.861	6928.45
487.065	6819.91
487.269	7016.51
487.473	7034.94
487.677	6764.61
487.881	6893.63
488.085	6873.15
488.289	6961.22
488.493	6961.22
488.697	6836.29
488.901	6967.36
489.105	7043.14
489.309	7065.66
489.512	7020.61
489.716	7010.37
489.92	7088.19
490.124	7010.37
490.328	7047.23
490.531	6996.03
490.735	7116.86
490.939	7227.45
491.143	7147.58
491.346	7114.81
491.55	7288.89
491.754	7364.67
491.958	7213.12
492.161	7270.46
492.365	7479.35
492.569	7266.36
492.772	7342.14
492.976	7303.23
493.18	7491.64
493.383	7514.17
493.587	7551.03
493.79	7534.65
493.994	7577.66
494.197	7594.04
494.401	7639.09
494.605	7800.88
494.808	7923.76
495.012	7868.47
495.215	7786.55
495.419	7921.71
495.622	7905.33
495.825	8011.82
496.029	8067.12
496.232	8146.99
496.436	8044.59
496.639	8355.88
496.843	8155.18
497.046	8538.15
497.249	8532.01
497.453	8392.75
497.656	8720.42
497.859	8728.61
498.063	8759.33
498.266	8929.31
498.469	8853.54
498.673	9109.54
498.876	9220.13
499.079	9336.86
499.282	9285.66
499.485	9529.37
499.689	9521.18
499.892	9687.06
500.095	9617.43
500.298	10076.18
500.501	9670.68
500.705	10176.53
500.908	10117.14
501.111	10262.54
501.314	10448.91
501.517	10641.42
501.72	10700.81
501.923	10733.57
502.126	10973.19
502.329	11173.89
502.532	10921.99
502.735	11102.21
502.938	11423.74
503.141	11399.16
503.344	11599.87
503.547	11618.3
503.75	11694.07
503.953	11915.25
504.156	11913.2
504.359	11941.88
504.562	12115.95
504.765	12558.32
504.968	12662.76
505.17	12537.84
505.373	12541.93
505.576	12888.04
505.779	12808.17
505.982	13316.06
506.185	13230.05
506.387	13537.24
506.59	13670.36
506.793	13858.78
506.996	13641.69
507.198	14348.24
507.401	13912.02
507.604	14372.82
507.807	14522.32
508.009	14614.48
508.212	14788.55
508.415	14854.09
508.617	15153.09
508.82	15067.08
509.022	15306.69
509.225	15423.42
509.428	15491.01
509.63	15923.13
509.833	15826.87
510.035	15925.18
510.238	16215.99
510.44	16377.78
510.643	16588.72
510.845	16588.72
511.048	16482.22
511.25	17026.98
511.453	17076.13
511.655	17493.92
511.858	17432.48
512.06	17817.5
512.262	17960.86
512.465	17684.38
512.667	17993.62
512.87	18243.48
513.072	18145.17
513.274	18753.42
513.477	18462.61
513.679	18868.11
513.881	18939.79
514.084	19306.37
514.286	19060.62
514.488	19515.26
514.69	19644.29
514.893	19765.12
515.095	20008.83
515.297	20387.7
515.499	20365.17
515.701	20551.54
515.904	20848.49
516.106	20887.4
516.308	21241.7
516.51	21444.45
516.712	21294.95
516.914	21641.06
517.116	22073.18
517.318	22275.93
517.52	21933.92
517.722	22415.19
517.925	22441.81
518.127	22998.86
518.329	23058.25
518.531	23021.39
518.733	23232.33
518.935	23555.91
519.136	23469.89
519.338	23727.94
519.54	24284.98
519.742	24280.89
519.944	24368.95
520.146	24866.61
520.348	24665.91
520.55	24665.91
520.752	25098.03
520.954	25362.22
521.155	25394.98
521.357	25567.01
521.559	25665.32
521.761	25931.55
521.963	26226.46
522.164	26216.22
522.366	26365.72
522.568	26449.69
522.77	27146
522.971	27148.04
523.173	27053.84
523.375	27332.36
523.576	27244.3
523.778	27774.72
523.98	28155.65
524.181	27682.56
524.383	27967.23
524.584	28456.7
524.786	28264.19
524.988	28141.31
525.189	28581.62
525.391	28882.67
525.592	28684.02
525.794	28892.91
525.995	29005.55
526.197	29378.28
526.398	28866.29
526.6	29372.14
526.801	29503.21
527.003	29574.89
527.204	29562.6
527.406	29787.88
527.607	30011.1
527.808	29964
528.01	30025.44
528.211	30183.13
528.412	30873.3
528.614	30529.24
528.815	30609.11
529.016	30529.24
529.218	30555.86
529.419	30453.47
529.62	30756.57
529.822	30562.01
530.023	30656.21
530.224	30852.82
530.425	30783.19
530.626	30834.39
530.828	30736.09
531.029	31254.22
531.23	30940.88
531.431	31145.68
531.632	31065.81
531.833	31461.07
532.035	31577.8
532.236	31405.77
532.437	31608.52
532.638	31272.65
532.839	31346.38
533.04	31860.42
533.241	31198.93
533.442	31930.05
533.643	31649.48
533.844	31250.13
534.045	31629
534.246	31598.28
534.447	31553.23
534.648	31356.62
534.849	31645.38
535.05	31334.09
535.251	31342.28
535.451	31334.09
535.652	31422.16
535.853	31452.87
536.054	31422.16
536.255	31549.13
536.456	31315.66
536.657	31928
536.857	31688.39
537.058	31248.08
537.259	31882.95
537.46	31629
537.66	31459.02
537.861	31672.01
538.062	31350.48
538.263	31633.1
538.463	31487.69
538.664	31461.07
538.865	31571.66
539.065	32165.57
539.266	31620.81
539.466	31893.19
539.667	31168.21
539.868	32028.35
540.068	31192.78
540.269	31379.15
540.469	31731.4
540.67	31534.79
540.87	31243.98
541.071	31418.06
541.271	31520.46
541.472	31520.46
541.672	31196.88
541.873	31299.28
542.073	30887.64
542.274	31278.8
542.474	31319.76
542.675	31137.49
542.875	31692.49
543.075	31405.77
543.276	31069.9
543.476	31704.77
543.676	31110.86
543.877	31680.2
544.077	31915.72
544.277	31080.14
544.478	31002.32
544.678	31465.16
544.878	31227.6
545.078	31149.78
545.279	30672.6
545.479	31057.62
545.679	31575.75
545.879	31301.33
546.079	31446.73
546.28	31164.11
546.48	31248.08
546.68	31018.71
546.88	31131.34
547.08	31112.91
547.28	31157.97
547.48	31000.27
547.68	31024.85
547.88	30766.81
548.081	31217.36
548.281	31190.73
548.481	30916.31
548.681	31407.82
548.881	30928.59
549.081	31203.02
549.28	30609.11
549.48	31194.83
549.68	30947.03
549.88	31235.79
550.08	30797.52
550.28	31092.43
550.48	31088.34
550.68	31497.93
550.88	30805.72
551.08	30926.55
551.279	31223.5
551.479	30611.16
551.679	30912.21
551.879	30822.1
552.079	30969.55
552.278	30820.05
552.478	30908.12
552.678	30992.08
552.878	31192.78
553.077	30865.11
553.277	30598.87
553.477	31250.13
553.676	30830.29
553.876	30992.08
554.076	31030.99
554.275	30789.33
554.475	30418.65
554.674	30826.2
554.874	30830.29
555.074	30326.49
555.273	30488.28
555.473	30979.79
555.672	30355.16
555.872	30574.3
556.071	30650.07
556.271	30875.35
556.47	30480.09
556.67	30375.64
556.869	30418.65
557.068	30582.49
557.268	30213.85
557.467	30328.54
557.667	30330.59
557.866	30484.19
558.065	30500.57
558.265	30342.88
558.464	30025.44
558.663	30451.42
558.863	29939.43
559.062	30326.49
559.261	29810.4
559.461	29722.34
559.66	29837.03
559.859	30000.86
560.058	29974.24
560.258	29890.27
560.457	29497.06
560.656	29955.81
560.855	29777.64
561.054	29744.87
561.253	29564.65
561.453	30000.86
561.652	29857.51
561.851	29662.95
562.05	29284.08
562.249	29624.04
562.448	29519.59
562.647	29525.74
562.846	29114.09
563.045	29320.94
563.244	28765.94
563.443	29695.72
563.642	28907.25
563.841	29255.4
564.04	28921.59
564.239	29619.94
564.438	28702.45
564.637	29019.89
564.836	29032.18
565.035	28544.76
565.234	28823.28
565.432	28692.21
565.631	28684.02
565.83	28831.47
566.029	28577.53
566.228	28626.68
566.427	28538.62
566.625	28491.51
566.824	28274.43
567.023	28256
567.222	27997.95
567.42	28595.96
567.619	28198.65
567.818	28131.07
568.016	27823.87
568.215	28040.96
568.414	27860.74
568.612	28137.21
568.811	27504.39
569.01	27606.79
569.208	27408.14
569.407	27913.98
569.605	27445
569.804	27985.66
570.002	27713.28
570.201	27528.97
570.4	27223.82
570.598	27465.48
570.797	27084.56
570.995	27375.37
571.193	27094.8
571.392	27330.31
571.59	26683.16
571.789	26855.18
571.987	27004.69
572.186	26789.65
572.384	26730.26
572.582	26627.86
572.781	26959.63
572.979	26439.45
573.177	26677.01
573.376	26521.37
573.574	26392.34
573.772	26572.57
573.971	26146.59
574.169	26165.02
574.367	25988.89
574.565	26105.63
574.763	26050.33
574.962	25786.15
575.16	25405.22
575.358	25890.59
575.556	25530.15
575.754	25986.85
575.952	25327.4
576.151	25501.48
576.349	25456.42
576.547	25470.76
576.745	25423.65
576.943	25517.86
577.141	25313.06
577.339	25118.51
577.537	25497.38
577.735	25128.75
577.933	25100.08
578.131	25186.09
578.329	25138.99
578.527	24530.74
578.725	24612.66
578.923	24997.68
579.121	24536.88
579.319	24586.04
579.516	24778.54
579.714	24487.73
579.912	24608.56
580.11	24383.29
580.308	24551.22
580.506	24274.74
580.704	24301.37
580.901	24463.16
581.099	24530.74
581.297	24039.23
581.495	23902.01
581.692	24266.55
581.89	23682.88
582.088	23877.44
582.285	23625.54
582.483	23891.77
582.681	23856.96
582.878	23635.78
583.076	23308.1
583.274	23713.6
583.471	23504.71
583.669	23576.39
583.866	23244.62
584.064	23191.37
584.262	23023.44
584.459	23375.69
584.657	22923.08
584.854	23185.22
585.052	22687.57
585.249	22904.65
585.447	22880.08
585.644	22585.17
585.841	22777.68
586.039	23015.24
586.236	22607.7
586.434	22339.41
586.631	22486.87
586.828	22726.48
587.026	22656.85
587.223	22148.95
587.42	22277.97
587.618	22441.81
587.815	21974.88
588.012	21712.74
588.21	21903.2
588.407	22112.09
588.604	21907.29
588.801	21778.27
588.999	22026.07
589.196	21753.69
589.393	21929.82
589.59	21686.11
589.787	21407.59
589.984	21438.31
590.182	21401.44
590.379	21565.28
590.576	21077.87
590.773	21151.59
590.97	20842.35
591.167	21174.12
591.364	20725.61
591.561	21098.34
591.758	20856.68
591.955	20866.92
592.152	21092.2
592.349	20666.22
592.546	20488.05
592.743	20651.89
592.94	20371.32
593.137	20565.87
593.334	20565.87
593.531	20391.8
593.727	20559.73
593.924	20551.54
594.121	20377.46
594.318	20404.08
594.515	20131.7
594.712	20125.56
594.908	19912.57
595.105	20295.54
595.302	19804.03
595.499	20019.07
595.696	20041.59
595.892	19785.6
596.089	19869.56
596.286	19822.46
596.482	19566.46
596.679	19578.75
596.876	19363.72
597.072	19337.09
597.269	19576.7
597.466	19709.82
597.662	19156.87
597.859	19199.88
598.055	19369.86
598.252	19031.94
598.448	18954.12
598.645	18978.7
598.841	18810.76
599.038	18812.81
599.234	18839.44
599.431	18802.57
599.627	18700.17
599.824	18691.98
600.02	18296.72
600.217	18544.53
600.413	18403.22
600.609	18605.97
600.806	18050.97
601.002	18476.94
601.198	18378.64
601.395	18120.6
601.591	18319.25
601.787	18093.97
601.984	17940.38
602.18	18341.78
602.376	18165.65
602.572	17872.79
602.769	17653.66
602.965	17711
603.161	18018.2
603.357	17739.68
603.553	17833.88
603.75	17596.32
603.946	17512.35
604.142	17657.76
604.338	17340.32
604.534	17428.38
604.73	17219.49
604.926	17194.92
605.122	17299.36
605.318	17307.55
605.514	17256.36
605.71	17225.64
605.906	16990.12
606.102	16740.27
606.298	16889.77
606.494	17199.01
606.69	17029.03
606.886	16863.15
607.082	16676.78
607.278	16838.57
607.474	16455.6
607.67	16816.04
607.866	16740.27
608.062	16594.86
608.257	16424.88
608.453	16541.61
608.649	16904.1
608.845	16551.85
609.041	16527.28
609.236	16482.22
609.432	16361.39
609.628	16609.2
609.824	16215.99
610.019	16445.36
610.215	16263.09
610.411	16142.26
610.606	16261.04
610.802	16275.38
610.998	16193.46
611.193	16183.22
611.389	15953.85
611.584	16263.09
611.78	15943.61
611.976	15921.08
612.171	16195.51
612.367	15974.33
612.562	15912.89
612.758	15404.99
612.953	15583.16
613.149	15654.84
613.344	15298.5
613.539	15906.74
613.735	15583.16
613.93	15507.39
614.126	15425.47
614.321	15593.4
614.517	15574.97
614.712	15407.04
614.907	15441.86
615.103	15630.27
615.298	15361.98
615.493	15534.01
615.688	15159.24
615.884	15482.81
616.079	15003.59
616.274	15423.42
616.47	15290.31
616.665	15124.42
616.86	15198.15
617.055	15200.19
617.25	15022.02
617.445	15310.79
617.641	14782.41
617.836	15149
618.031	14964.68
618.226	15050.69
618.421	15019.97
618.616	15085.51
618.811	14577.61
619.006	14804.94
619.201	14585.8
619.396	14651.34
619.591	14344.14
619.786	14464.97
619.981	14282.7
620.176	14594
620.371	14290.9
620.566	14333.9
620.761	14184.4
620.956	14211.03
621.151	14120.92
621.346	14266.32
621.541	13897.69
621.735	14172.11
621.93	13707.23
622.125	13707.23
622.32	13447.13
622.515	13688.79
622.709	13828.06
622.904	13438.94
623.099	13254.62
623.294	13563.87
623.488	13430.75
623.683	13332.45
623.878	12982.24
624.072	13039.59
624.267	13076.45
624.462	13164.51
624.656	12945.38
624.851	12754.92
625.046	12734.44
625.24	12713.96
625.435	12605.42
625.629	12629.99
625.824	12449.77
626.018	12466.16
626.213	12402.67
626.407	12611.56
626.602	12115.95
626.796	12220.4
626.991	12142.58
627.185	12042.23
627.38	11972.6
627.574	11847.67
627.768	11804.66
627.963	11839.48
628.157	11976.69
628.352	11739.13
628.546	11612.15
628.74	11515.9
628.935	11450.36
629.129	11466.75
629.323	11403.26
629.517	11137.02
629.712	11225.09
629.906	11278.33
630.1	11122.69
630.294	11145.22
630.489	10985.48
630.683	11141.12
630.877	10749.96
631.071	10885.12
631.265	11038.72
631.459	10790.92
631.653	10854.41
631.848	10709
632.042	10614.79
632.236	10530.83
632.43	10434.57
632.624	10233.87
632.818	10539.02
633.012	10305.55
633.206	10553.35
633.4	10323.98
633.594	10207.25
633.788	10014.74
633.982	10121.23
634.176	9959.44
634.369	9918.48
634.563	9859.09
634.757	9885.72
634.951	9834.52
635.145	9859.09
635.339	9701.4
635.533	9572.38
635.726	9590.81
635.92	9531.42
636.114	9535.51
636.308	9490.46
636.501	9619.48
636.695	9420.83
636.889	9285.66
637.083	9320.48
637.276	9281.57
637.47	9271.33
637.664	8998.95
637.857	9031.71
638.051	8949.79
638.244	8892.45
638.438	8962.08
638.632	8714.28
638.825	8812.58
639.019	8747.05
639.212	8650.79
639.406	8755.24
639.599	8722.47
639.793	8773.67
639.986	8382.51
640.18	8646.69
640.373	8658.98
640.567	8515.62
640.76	8493.1
640.954	8409.13
641.147	8517.67
641.34	8429.61
641.534	8261.68
641.727	8345.64
641.92	8155.18
642.114	8042.54
642.307	8255.53
642.5	7983.15
642.694	7747.64
642.887	7872.56
643.08	7864.37
643.273	7690.29
643.467	7968.82
643.66	7786.55
643.853	7884.85
644.046	7675.96
644.239	7659.57
644.432	7653.43
644.626	7456.82
644.819	7340.09
645.012	7442.49
645.205	7557.18
645.398	7518.26
645.591	7376.95
645.784	7354.43
645.977	7360.57
646.17	7239.74
646.363	7254.08
646.556	7231.55
646.749	7213.12
646.942	7131.2
647.135	7168.06
647.328	6959.17
647.521	6963.26
647.714	6641.73
647.907	6889.54
648.099	6979.65
648.292	6889.54
648.485	6723.65
648.678	6770.76
648.871	6715.46
649.064	6871.11
649.256	6643.78
649.449	6641.73
649.642	6713.41
649.835	6547.53
650.027	6307.91
650.22	6488.14
650.413	6369.35
650.605	6533.19
650.798	6496.33
650.991	6389.83
651.183	6322.25
651.376	6096.97
651.568	6240.33
651.761	6197.32
651.954	6139.98
652.146	6191.18
652.339	6008.91
652.531	6051.92
652.724	6238.28
652.916	6031.44
653.109	6072.4
653.301	6090.83
653.494	6148.17
653.686	5967.95
653.879	5998.67
654.071	5683.28
654.263	5867.6
654.456	5797.97
654.648	5898.32
654.84	5648.47
655.033	5689.43
655.225	5611.61
655.417	5527.64
655.61	5724.24
655.802	5484.63
655.994	5556.31
656.186	5683.28
656.379	5558.36
656.571	5392.47
656.763	5441.62
656.955	5482.58
657.148	5439.58
657.34	5539.93
657.532	5288.03
657.724	5263.45
657.916	5136.48
658.108	5335.13
658.3	5208.16
658.492	5271.64
658.684	5036.13
658.876	5185.63
659.068	5107.8
659.26	5083.23
659.452	5134.43
659.644	5032.03
659.836	5001.31
660.028	5085.28
660.22	4866.14
660.412	4946.02
660.604	4857.95
660.796	4851.81
660.988	4989.02
661.18	4681.83
661.372	4741.22
661.563	4831.33
661.755	4860
661.947	4743.27
662.139	4816.99
662.331	4724.83
662.522	4558.95
662.714	4608.1
662.906	4579.43
663.097	4663.4
663.289	4483.17
663.481	4464.74
663.673	4636.77
663.864	4563.05
664.056	4550.76
664.247	4554.85
664.439	4374.63
664.631	4608.1
664.822	4374.63
665.014	4462.69
665.205	4460.65
665.397	4415.59
665.588	4313.19
665.78	4098.16
665.971	4341.86
666.163	4214.89
666.354	4212.84
666.546	4231.27
666.737	4059.24
666.929	4206.7
667.12	4305
667.311	4161.64
667.503	4204.65
667.694	4151.4
667.885	4118.64
668.077	4106.35
668.268	4083.82
668.459	4034.67
668.651	3864.69
668.842	3922.03
669.033	3962.99
669.224	4071.53
669.416	4067.44
669.607	3969.13
669.798	3909.74
669.989	4055.15
670.18	3924.08
670.371	3928.17
670.563	3944.56
670.754	3897.46
670.945	3825.78
671.136	3813.49
671.327	3854.45
671.518	3776.63
671.709	3706.99
671.9	3813.49
672.091	3690.61
672.282	3758.19
672.473	3588.21
672.664	3741.81
672.855	3661.94
673.046	3676.27
673.237	3698.8
673.428	3594.36
673.619	3666.03
673.809	3631.22
674	3584.12
674.191	3674.23
674.382	3614.84
674.573	3537.01
674.764	3561.59
674.954	3551.35
675.145	3481.72
675.336	3426.42
675.527	3387.51
675.717	3608.69
675.908	3403.89
676.099	3567.73
676.289	3571.83
676.48	3567.73
676.671	3481.72
676.861	3483.77
677.052	3541.11
677.243	3348.6
677.433	3430.52
677.624	3430.52
677.814	3504.25
678.005	3362.94
678.195	3430.52
678.386	3412.09
678.576	3340.41
678.767	3438.71
678.957	3297.4
679.148	3471.48
679.338	3379.32
679.529	3436.66
679.719	3293.3
679.909	3403.89
680.1	3362.94
680.29	3289.21
680.481	3418.23
680.671	3330.17
680.861	3231.87
681.052	3225.72
681.242	3393.65
681.432	3246.2
681.622	3289.21
681.813	3319.93
682.003	3209.34
682.193	3178.62
682.383	3264.63
682.573	3151.99
682.764	3254.39
682.954	3219.58
683.144	3151.99
683.334	3240.06
683.524	3283.06
683.714	3281.02
683.904	3211.39
684.094	3123.32
684.284	3166.33
684.474	3315.83
684.664	3084.41
684.854	3158.14
685.044	3160.19
685.234	3076.22
685.424	3076.22
685.614	3076.22
685.804	3002.49
685.994	3039.36
686.184	3018.88
686.374	3037.31
686.564	3096.7
686.753	3070.08
686.943	2994.3
687.133	3006.59
687.323	2879.61
687.513	2986.11
687.702	2916.48
687.892	2863.23
688.082	3035.26
688.272	2945.15
688.461	3010.68
688.651	3139.71
688.841	2760.83
689.03	2961.53
689.22	2896
689.41	2783.36
689.599	2949.25
689.789	2816.13
689.979	2805.89
690.168	2783.36
690.358	2793.6
690.547	2855.04
690.737	2822.27
690.926	2769.02
691.116	2799.74
691.305	2807.94
691.495	2726.02
691.684	2637.95
691.874	2627.71
692.063	2832.51
692.252	2597
692.442	2672.77
692.631	2646.15
692.82	2619.52
693.01	2537.6
693.199	2439.3
693.388	2531.46
693.578	2502.79
693.767	2699.39
693.956	2508.93
694.146	2556.04
694.335	2521.22
694.524	2510.98
694.713	2683.01
694.902	2556.04
695.092	2535.56
695.281	2529.41
695.47	2574.47
695.659	2519.17
695.848	2371.72
696.037	2386.05
696.226	2461.83
696.415	2502.79
696.604	2527.36
696.793	2431.11
696.982	2519.17
697.171	2492.55
697.36	2490.5
697.549	2424.97
697.738	2300.04
697.927	2326.66
698.116	2314.38
698.305	2429.06
698.494	2453.64
698.683	2373.77
698.872	2412.68
699.061	2420.87
699.25	2297.99
699.438	2427.01
699.627	2338.95
699.816	2404.49
700.005	2384.01
700.193	2318.47
700.382	2367.62
700.571	2482.31
700.76	2381.96
700.948	2441.35
701.137	2273.42
701.326	2373.77
701.514	2322.57
701.703	2295.94
701.892	2355.33
702.08	2459.78
702.269	2373.77
702.457	2338.95
702.646	2338.95
702.834	2308.23
703.023	2285.7
703.212	2349.19
703.4	2400.39
703.589	2281.61
703.777	2404.49
703.965	2175.11
704.154	2273.42
704.342	2289.8
704.531	2390.15
704.719	2201.74
704.907	2226.31
705.096	2302.09
705.284	2330.76
705.472	2330.76
705.661	2252.94
705.849	2379.91
706.037	2263.18
706.226	2371.72
706.414	2347.14
706.602	2293.9
706.79	2291.85
706.979	2259.08
707.167	2060.43
707.355	2224.26
707.543	2218.12
707.731	2265.22
707.919	2179.21
708.107	2250.89
708.296	2201.74
708.484	2142.35
708.672	2193.55
708.86	2338.95
709.048	2263.18
709.236	2183.31
709.424	2250.89
709.612	2293.9
709.8	2259.08
709.988	2324.62
710.176	2347.14
710.364	2265.22
710.551	2201.74
710.739	2191.5
710.927	2250.89
711.115	2136.2
711.303	2306.18
711.491	2224.26
711.679	2154.63
711.866	2300.04
712.054	2166.92
712.242	2199.69
712.43	2224.26
712.617	2189.45
712.805	2193.55
712.993	2142.35
713.181	2216.07
713.368	2275.46
713.556	2259.08
713.744	2134.15
713.931	2330.76
714.119	2177.16
714.306	2281.61
714.494	2265.22
714.682	2252.94
714.869	2142.35
715.057	2130.06
715.244	2166.92
715.432	2236.55
715.619	2197.64
715.807	2216.07
715.994	2082.95
716.182	2265.22
716.369	2211.98
716.556	2199.69
716.744	2125.96
716.931	2209.93
717.119	2259.08
717.306	2252.94
717.493	2220.17
717.681	2128.01
717.868	2154.63
718.055	2113.67
718.242	2078.86
718.43	2138.25
718.617	2146.44
718.804	2191.5
718.991	2220.17
719.179	2242.7
719.366	2209.93
719.553	2181.26
719.74	2044.04
719.927	2134.15
720.114	2232.46
720.301	2191.5
720.488	2146.44
720.676	2105.48
720.863	2142.35
721.05	2257.03
721.237	2087.05
721.424	2111.63
721.611	2224.26
721.798	2123.91
721.985	2148.49
722.172	1988.75
722.358	2193.55
722.545	2113.67
722.732	2216.07
722.919	2064.52
723.106	2087.05
723.293	2058.38
723.48	2117.77
723.667	2099.34
723.853	2101.39
724.04	2185.35
724.227	2085
724.414	2064.52
724.6	2089.1
724.787	2236.55
724.974	2154.63
725.161	2029.71
725.347	2142.35
725.534	2218.12
725.72	2121.87
725.907	2130.06
726.094	2019.47
726.28	1982.6
726.467	2123.91
726.653	2048.14
726.84	2029.71
727.027	2175.11
727.213	2136.2
727.4	2138.25
727.586	2246.79
727.773	2175.11
727.959	2103.43
728.145	2068.62
728.332	2168.97
728.518	2154.63
728.705	2232.46
728.891	2191.5
729.077	1962.12
729.264	2101.39
729.45	2105.48
729.636	2162.83
729.823	2029.71
730.009	2138.25
730.195	2152.59
730.382	2134.15
730.568	2035.85
730.754	2013.32
730.94	2128.01
731.126	2175.11
731.313	2113.67
731.499	2128.01
731.685	2068.62
731.871	2039.95
732.057	2068.62
732.243	2005.13
732.429	2109.58
732.615	2076.81
732.801	2160.78
732.987	2101.39
733.173	2121.87
733.359	1960.08
733.545	2015.37
733.731	2060.43
733.917	2091.15
734.103	2015.37
734.289	2109.58
734.475	1964.17
734.661	2080.91
734.847	2085
735.033	2080.91
735.219	2007.18
735.404	2185.35
735.59	2091.15
735.776	2076.81
735.962	2128.01
736.148	2136.2
736.333	2066.57
736.519	1953.93
736.705	2078.86
736.89	2136.2
737.076	2044.04
737.262	1996.94
737.447	1994.89
737.633	2109.58
737.819	1978.51
738.004	2037.9
738.19	1972.36
738.375	2019.47
738.561	2064.52
738.747	1923.21
738.932	2048.14
739.118	1972.36
739.303	1888.4
739.489	2060.43
739.674	1966.22
739.859	1945.74
740.045	1921.17
740.23	2152.59
740.416	2023.56
740.601	1978.51
740.786	1908.88
740.972	2007.18
741.157	2015.37
741.342	1900.69
741.528	1872.01
741.713	2031.76
741.898	1824.91
742.084	1865.87
742.269	1898.64
742.454	1826.96
742.639	1876.11
742.824	1988.75
743.01	1923.21
743.195	1929.36
743.38	1921.17
743.565	1822.86
743.75	1794.19
743.935	1814.67
744.12	1874.06
744.305	1810.58
744.49	1765.52
744.675	1831.05
744.86	1773.71
745.045	1902.73
745.23	1740.94
745.415	1734.8
745.6	1798.29
745.785	1732.75
745.97	1745.04
746.155	1650.83
746.34	1767.57
746.525	1609.87
746.71	1675.41
746.895	1806.48
747.079	1757.33
747.264	1790.1
747.449	1693.84
747.634	1726.61
747.819	1669.27
748.003	1636.5
748.188	1642.64
748.373	1593.49
748.557	1560.72
748.742	1616.02
748.927	1519.76
749.111	1523.86
749.296	1579.15
749.481	1573.01
749.665	1585.3
749.85	1474.71
750.034	1511.57
750.219	1538.2
750.404	1609.87
750.588	1507.48
750.773	1476.76
750.957	1478.8
751.141	1437.84
751.326	1497.24
751.51	1407.13
751.695	1400.98
751.879	1360.02
752.064	1470.61
752.248	1405.08
752.432	1421.46
752.617	1443.99
752.801	1349.78
752.985	1376.41
753.17	1294.49
753.354	1282.2
753.538	1364.12
753.722	1290.39
753.907	1398.93
754.091	1216.66
754.275	1335.45
754.459	1331.35
754.643	1261.72
754.828	1265.82
755.012	1302.68
755.196	1241.24
755.38	1284.25
755.564	1317.01
755.748	1282.2
755.932	1151.13
756.116	1147.03
756.3	1190.04
756.484	1208.47
756.668	1247.38
756.852	1216.66
757.036	1153.18
757.22	1202.33
757.404	1210.52
757.588	1079.45
757.772	1155.23
757.956	1038.49
758.14	1120.41
758.323	1112.22
758.507	1024.16
758.691	1114.27
758.875	1192.09
759.059	1134.75
759.242	1093.79
759.426	1073.31
759.61	1015.96
759.794	1065.11
759.977	1104.03
760.161	1077.4
760.345	1112.22
760.528	1054.87
760.712	1085.59
760.895	1079.45
761.079	1020.06
761.263	1036.44
761.446	944.28
761.63	936.09
761.813	1009.82
761.997	977.05
762.18	985.24
762.364	954.52
762.547	897.18
762.731	948.38
762.914	942.24
763.098	872.61
763.281	1020.06
763.464	968.86
763.648	927.9
763.831	913.56
764.015	854.17
764.198	825.5
764.381	882.85
764.564	880.8
764.748	807.07
764.931	938.14
765.114	979.1
765.297	987.29
765.481	839.84
765.664	821.41
765.847	848.03
766.03	888.99
766.213	811.17
766.397	794.78
766.58	819.36
766.763	888.99
766.946	872.61
767.129	907.42
767.312	823.45
767.495	835.74
767.678	868.51
767.861	831.65
768.044	868.51
768.227	809.12
768.41	798.88
768.593	905.37
768.776	741.54
768.959	817.31
769.142	932
769.324	784.54
769.507	798.88
769.69	725.15
769.873	807.07
770.056	823.45
770.239	768.16
770.421	776.35
770.604	729.25
770.787	684.19
770.97	811.17
771.152	725.15
771.335	733.34
771.518	794.78
771.7	753.82
771.883	798.88
772.066	676
772.248	725.15
772.431	610.47
772.613	708.77
772.796	680.1
772.978	704.67
773.161	782.49
773.343	655.52
773.526	667.81
773.708	741.54
773.891	585.89
774.073	655.52
774.256	692.38
774.438	716.96
774.621	630.95
774.803	653.47
774.985	624.8
775.168	645.28
775.35	653.47
775.532	667.81
775.715	530.59
775.897	614.56
776.079	632.99
776.261	571.55
776.444	620.71
776.626	538.79
776.808	569.51
776.99	538.79
777.173	487.59
777.355	495.78
777.537	596.13
777.719	579.75
777.901	538.79
778.083	489.64
778.265	532.64
778.447	546.98
778.629	503.97
778.811	553.12
778.993	473.25
779.175	598.18
779.357	503.97
779.539	544.93
779.721	575.65
779.903	499.88
780.085	571.55
780.267	432.29
780.449	463.01
780.631	497.83
780.812	514.21
780.994	503.97
781.176	536.74
781.358	528.55
781.54	454.82
781.721	524.45
781.903	512.16
782.085	434.34
782.267	471.2
782.448	471.2
782.63	362.66
782.812	440.48
782.993	512.16
783.175	422.05
783.357	415.91
783.538	454.82
783.72	401.57
783.901	413.86
784.083	364.71
784.264	403.62
784.446	370.85
784.627	409.76
784.809	411.81
784.99	352.42
785.172	440.48
785.353	438.44
785.535	309.41
785.716	413.86
785.897	338.09
786.079	344.23
786.26	366.76
786.441	383.14
786.623	374.95
786.804	264.36
786.985	305.32
787.167	317.61
787.348	340.13
787.529	381.09
787.71	342.18
787.891	430.24
788.073	315.56
788.254	307.37
788.435	346.28
788.616	348.33
788.797	329.89
788.978	342.18
789.159	311.46
789.34	368.81
789.522	303.27
789.703	331.94
789.884	290.98
790.065	356.52
790.246	331.94
790.427	284.84
790.607	350.37
790.788	260.26
790.969	241.83
791.15	303.27
791.331	295.08
791.512	235.69
791.693	274.6
791.874	299.17
792.054	336.04
792.235	309.41
792.416	286.89
792.597	364.71
792.778	200.87
792.958	282.79
793.139	250.02
793.32	217.26
793.5	266.41
793.681	250.02
793.862	213.16
794.042	348.33
794.223	233.64
794.404	170.15
794.584	237.74
794.765	317.61
794.945	243.88
795.126	331.94
795.306	256.17
795.487	184.49
795.667	282.79
795.848	241.83
796.028	159.91
796.209	209.06
796.389	229.54
796.57	299.17
796.75	219.3
796.93	252.07
797.111	235.69
797.291	217.26
797.471	225.45
797.652	188.58
797.832	198.82
798.012	215.21
798.192	184.49
798.373	217.26
798.553	192.68
798.733	235.69
798.913	145.58
799.093	200.87
799.274	159.91
799.454	151.72
799.634	233.64
799.814	168.1
799.994	225.45
800.174	161.96
800.354	256.17
800.534	164.01
800.714	233.64
800.894	268.45
801.074	180.39
801.254	172.2
801.434	170.15
801.614	174.25
801.794	164.01
801.974	667.81
802.154	184.49
802.334	194.73
802.514	123.05
802.693	184.49
802.873	174.25
803.053	157.86
803.233	233.64
803.413	229.54
803.592	182.44
803.772	127.14
803.952	176.3
804.131	110.76
804.311	192.68
804.491	209.06
804.67	159.91
804.85	241.83
805.03	213.16
805.209	215.21
805.389	141.48
805.568	155.82
805.748	112.81
805.928	139.43
806.107	180.39
806.287	188.58
806.466	184.49
806.646	215.21
806.825	213.16
807.004	133.29
807.184	166.06
807.363	94.38
807.543	143.53
807.722	159.91
807.901	192.68
808.081	157.86
808.26	102.57
808.439	118.95
808.619	155.82
808.798	110.76
808.977	151.72
809.156	145.58
809.336	123.05
809.515	82.09
809.694	114.86
809.873	127.14
810.052	110.76
810.231	159.91
810.411	123.05
810.59	161.96
810.769	147.62
810.948	151.72
811.127	88.23
811.306	129.19
811.485	102.57
811.664	116.9
811.843	96.43
812.022	129.19
812.201	112.81
812.38	176.3
812.559	143.53
812.737	176.3
812.916	55.47
813.095	133.29
813.274	121
813.453	110.76
813.632	108.71
813.811	161.96
813.989	86.19
814.168	96.43
814.347	96.43
814.526	82.09
814.704	194.73
814.883	135.34
815.062	61.61
815.24	127.14
815.419	159.91
815.598	129.19
815.776	118.95
815.955	98.47
816.133	84.14
816.312	94.38
816.49	8.36
816.669	118.95
816.847	159.91
817.026	121
817.204	65.71
817.383	96.43
817.561	69.8
817.74	94.38
817.918	131.24
818.097	90.28
818.275	159.91
818.453	-3.93
818.632	151.72
818.81	135.34
818.988	143.53
819.167	127.14
819.345	61.61
819.523	106.67
819.701	86.19
819.879	202.92
820.058	102.57
820.236	129.19
820.414	39.08
820.592	102.57
820.77	90.28
820.948	94.38
821.127	100.52
821.305	77.99
821.483	22.7
821.661	102.57
821.839	69.8
822.017	127.14
822.195	67.75
822.373	143.53
822.551	22.7
822.729	86.19
822.907	88.23
823.085	98.47
823.262	28.84
823.44	30.89
823.618	77.99
823.796	49.32
823.974	69.8
824.152	73.9
824.329	32.94
824.507	100.52
824.685	102.57
824.863	88.23
825.04	45.23
825.218	63.66
825.396	94.38
825.574	65.71
825.751	104.62
825.929	121
826.107	47.27
826.284	47.27
826.462	49.32
826.639	77.99
826.817	8.36
826.994	37.03
827.172	61.61
827.349	82.09
827.527	-12.12
827.704	37.03
827.882	82.09
828.059	100.52
828.237	49.32
828.414	96.43
828.591	-1.88
828.769	14.51
828.946	41.13
829.124	98.47
829.301	37.03
829.478	73.9
829.655	77.99
829.833	88.23
830.01	65.71
830.187	18.6
830.364	45.23
830.542	41.13
830.719	61.61
830.896	86.19
831.073	4.27
831.25	100.52
831.427	88.23
831.604	8.36
831.782	28.84
831.959	65.71
832.136	69.8
832.313	112.81
832.49	-53.08
832.667	63.66
832.844	39.08
833.021	135.34
833.198	12.46
833.374	61.61
833.551	20.65
833.728	104.62
833.905	90.28
834.082	4.27
834.259	0.17
834.436	14.51
834.612	32.94
834.789	123.05
834.966	4.27
835.143	12.46
835.319	55.47
835.496	55.47
835.673	14.51
835.85	12.46
836.026	45.23
836.203	65.71
836.38	8.36
836.556	24.75
836.733	80.04
836.909	125.1
837.086	-12.12
837.262	14.51
837.439	63.66
837.616	-12.12
837.792	-5.97
837.968	8.36
838.145	-44.88
838.321	47.27
838.498	12.46
838.674	47.27
838.851	106.67
839.027	-46.93
839.203	28.84
839.38	49.32
839.556	-48.98
839.732	77.99
839.909	51.37
840.085	-28.5
840.261	-10.07
840.437	67.75
840.614	51.37
840.79	69.8
840.966	53.42
841.142	96.43
841.318	57.51
841.494	61.61
841.671	73.9
841.847	28.84
842.023	-42.84
842.199	45.23
842.375	41.13
842.551	-71.51
842.727	-106.32
842.903	82.09
843.079	8.36
843.255	-20.31
843.431	-20.31
843.607	37.03
843.783	20.65
843.959	84.14
844.134	55.47
844.31	98.47
844.486	-24.4
844.662	-12.12
844.838	71.85
845.013	30.89
845.189	-24.4
845.365	4.27
845.541	28.84
845.716	30.89
845.892	53.42
846.068	24.75
846.244	-69.46
846.419	77.99
846.595	-20.31
846.77	8.36
846.946	69.8
847.122	4.27
847.297	22.7
847.473	96.43
847.648	45.23
847.824	32.94
847.999	-63.32
848.175	53.42
848.35	-16.21
848.526	24.75
848.701	37.03
848.876	34.99
849.052	63.66
849.227	2.22
849.403	-10.07
849.578	41.13
849.753	39.08
849.929	61.61
850.104	-44.88
850.279	-3.93
850.454	-3.93
850.63	14.51
850.805	-48.98
850.98	-34.64
851.155	-12.12
851.33	20.65
851.505	-20.31
851.681	53.42
851.856	-40.79
852.031	61.61
852.206	-5.97
852.381	4.27
852.556	-10.07
852.731	55.47
852.906	-22.36
853.081	-8.02
853.256	4.27
853.431	-3.93
853.606	-63.32
853.781	-3.93
853.956	-12.12
854.131	-24.4
854.305	63.66
854.48	-53.08
854.655	-5.97
854.83	-1.88
855.005	-8.02
855.18	20.65
855.354	20.65
855.529	14.51
855.704	-55.12
855.879	4.27
856.053	-14.17
856.228	116.9
856.403	-3.93
856.577	34.99
856.752	-53.08
856.926	0.17
857.101	39.08
857.276	-34.64
857.45	-26.45
857.625	114.86
857.799	37.03
857.974	55.47
858.148	-48.98
858.323	24.75
858.497	-36.69
858.672	-36.69
858.846	-36.69
859.02	43.18
859.195	37.03
859.369	-34.64
859.543	0.17
859.718	16.55
859.892	61.61
860.066	12.46
860.241	-12.12
860.415	-26.45
860.589	-5.97
860.763	12.46
860.938	-14.17
861.112	-8.02
861.286	22.7
861.46	43.18
861.634	-28.5
861.808	73.9
861.982	-3.93
862.157	-18.26
862.331	4.27
862.505	28.84
862.679	-75.6
862.853	-20.31
863.027	88.23
863.201	37.03
863.375	0.17
863.549	32.94
863.722	47.27
863.896	43.18
864.07	8.36
864.244	-26.45
864.418	-10.07
864.592	-18.26
864.766	49.32
864.939	-8.02
865.113	16.55
865.287	59.56
865.461	-69.46
865.634	28.84
865.808	-112.47
865.982	-57.17
866.156	-8.02
866.329	-14.17
866.503	0.17
866.676	-30.55
866.85	20.65
867.024	-3.93
867.197	4.27
867.371	18.6
867.544	71.85
867.718	0.17
867.891	0.17
868.065	4.27
868.238	30.89
868.412	-3.93
868.585	-104.28
868.759	-38.74
868.932	-67.41
869.105	-22.36
869.279	-1.88
869.452	-16.21
869.625	-67.41
869.799	-26.45
869.972	-73.56
870.145	12.46
870.319	20.65
870.492	-48.98
870.665	-85.84
870.838	14.51
871.011	-32.6
871.185	-34.64
871.358	6.31
871.531	20.65
871.704	-18.26
871.877	12.46
872.05	-3.93
872.223	-28.5
872.396	32.94
872.569	-67.41
872.742	14.51
872.915	47.27
873.088	-67.41
873.261	30.89
873.434	24.75
873.607	20.65
873.78	12.46
873.953	-24.4
874.126	47.27
874.299	-24.4
874.471	-24.4
874.644	28.84
874.817	14.51
874.99	-53.08
875.163	-46.93
875.335	-10.07
875.508	-53.08
875.681	-8.02
875.853	22.7
876.026	-1.88
876.199	0.17
876.371	-42.84
876.544	77.99
876.717	-51.03
876.889	37.03
877.062	-36.69
877.234	-16.21
877.407	-28.5
877.579	77.99
877.752	-20.31
877.924	20.65
878.097	-1.88
878.269	-48.98
878.442	16.55
878.614	-42.84
878.786	-44.88
878.959	8.36
879.131	53.42
879.303	-73.56
879.476	14.51
879.648	-89.94
879.82	-40.79
879.993	-16.21
880.165	-8.02
880.337	6.31
880.509	-1.88
880.681	-8.02
880.854	-10.07
881.026	39.08
881.198	-3.93
881.37	-5.97
881.542	45.23
881.714	-28.5
881.886	-3.93
882.058	-46.93
882.23	8.36
882.402	-36.69
882.574	-14.17
882.746	28.84
882.918	-18.26
883.09	16.55
883.262	-10.07
883.434	32.94
883.606	-100.18
883.778	-28.5
883.95	69.8
884.122	-46.93
884.293	53.42
884.465	-75.6
884.637	-20.31
884.809	-69.46
884.98	-28.5
885.152	-63.32
885.324	-8.02
885.496	37.03
885.667	-5.97
885.839	-65.36
886.011	88.23
886.182	22.7
886.354	63.66
886.525	-10.07
886.697	61.61
886.869	-116.56
887.04	-3.93
887.212	4.27
887.383	88.23
887.555	-40.79
887.726	-20.31
887.897	-26.45
888.069	-18.26
888.24	30.89
888.412	45.23
888.583	37.03
888.754	-12.12
888.926	-3.93
889.097	-10.07
889.268	-40.79
889.44	63.66
889.611	18.6
889.782	-1.88
889.953	-85.84
890.125	-40.79
890.296	-28.5
890.467	-51.03
890.638	24.75
890.809	-55.12
890.98	28.84
891.151	4.27
891.323	-20.31
891.494	-69.46
891.665	-32.6
891.836	-57.17
892.007	-20.31
892.178	-22.36
892.349	-77.65
892.52	-36.69
892.691	20.65
892.862	-18.26
893.032	-77.65
893.203	20.65
893.374	-53.08
893.545	-12.12
893.716	-61.27
893.887	57.51
894.057	28.84
894.228	-53.08
894.399	-42.84
894.57	61.61
894.74	-26.45
894.911	41.13
895.082	-28.5
895.253	37.03
895.423	-12.12
895.594	18.6
895.764	-24.4
895.935	-51.03
896.106	-3.93
896.276	-61.27
896.447	-42.84
896.617	-16.21
896.788	-85.84
896.958	34.99
897.129	-36.69
897.299	-36.69
897.47	10.41
897.64	28.84
897.81	-98.13
897.981	12.46
898.151	-20.31
898.322	28.84
898.492	24.75
898.662	-46.93
898.832	37.03
899.003	-28.5
899.173	6.31
899.343	-20.31
899.513	-81.75
