Data from USB4F104151__58__14-17-06-419.txt Node

Date: Thu Mar 13 14:17:06 EDT 2025
User: louis
Spectrometer: USB4F10415
Trigger mode: 4
Integration Time (sec): 2.000000E-2
Scans to average: 1
Electric dark correction enabled: true
Nonlinearity correction enabled: false
Boxcar width: 0
XAxis mode: Wavelengths
Number of Pixels in Spectrum: 3648
>>>>>Begin Spectral Data<<<<<
178.204	-66.73
178.424	-66.73
178.644	-66.73
178.864	-23.72
179.084	-68.78
179.304	70.48
179.524	15.19
179.744	-19.63
179.964	-25.77
180.184	54.1
180.404	-17.58
180.624	-42.15
180.844	41.81
181.064	-48.3
181.283	-7.34
181.503	-11.43
181.723	-9.39
181.943	7
182.163	93.01
182.383	9.05
182.602	13.14
182.822	50
183.042	17.24
183.262	56.15
183.482	62.29
183.701	33.62
183.921	15.19
184.141	47.96
184.361	33.62
184.58	39.76
184.8	-11.43
185.02	4.95
185.239	19.29
185.459	-17.58
185.679	62.29
185.898	39.76
186.118	68.44
186.338	125.78
186.557	88.92
186.777	21.33
186.997	47.96
187.216	33.62
187.436	88.92
187.655	31.57
187.875	33.62
188.095	31.57
188.314	76.63
188.534	29.52
188.753	-17.58
188.973	41.81
189.192	72.53
189.412	47.96
189.631	17.24
189.851	72.53
190.07	82.77
190.29	103.25
190.509	-31.91
190.729	54.1
190.948	0.85
191.168	121.68
191.387	64.34
191.607	39.76
191.826	25.43
192.045	29.52
192.265	29.52
192.484	45.91
192.704	78.68
192.923	-40.11
193.142	107.35
193.362	88.92
193.581	29.52
193.8	0.85
194.02	111.44
194.239	31.57
194.458	-3.24
194.678	23.38
194.897	25.43
195.116	95.06
195.335	58.2
195.555	54.1
195.774	58.2
195.993	31.57
196.212	56.15
196.432	-11.43
196.651	88.92
196.87	-17.58
197.089	115.54
197.308	70.48
197.528	56.15
197.747	-44.2
197.966	76.63
198.185	95.06
198.404	62.29
198.623	103.25
198.842	86.87
199.062	29.52
199.281	97.11
199.5	37.72
199.719	103.25
199.938	25.43
200.157	37.72
200.376	33.62
200.595	21.33
200.814	37.72
201.033	45.91
201.252	113.49
201.471	37.72
201.69	41.81
201.909	56.15
202.128	2.9
202.347	29.52
202.566	52.05
202.785	72.53
203.004	23.38
203.223	95.06
203.442	-27.82
203.661	60.24
203.879	29.52
204.098	54.1
204.317	-11.43
204.536	123.73
204.755	117.59
204.974	9.05
205.193	60.24
205.411	136.02
205.63	37.72
205.849	64.34
206.068	9.05
206.287	-38.06
206.505	68.44
206.724	54.1
206.943	41.81
207.162	-9.39
207.381	19.29
207.599	25.43
207.818	29.52
208.037	39.76
208.255	13.14
208.474	-36.01
208.693	90.96
208.911	0.85
209.13	-1.19
209.349	95.06
209.567	95.06
209.786	64.34
210.005	21.33
210.223	50
210.442	-46.25
210.661	33.62
210.879	76.63
211.098	33.62
211.316	23.38
211.535	125.78
211.753	-7.34
211.972	27.48
212.191	47.96
212.409	103.25
212.628	66.39
212.846	-13.48
213.065	103.25
213.283	13.14
213.502	-9.39
213.72	-17.58
213.938	7
214.157	45.91
214.375	33.62
214.594	62.29
214.812	-21.67
215.031	95.06
215.249	52.05
215.467	21.33
215.686	23.38
215.904	103.25
216.122	62.29
216.341	33.62
216.559	56.15
216.778	43.86
216.996	31.57
217.214	50
217.432	31.57
217.651	64.34
217.869	13.14
218.087	78.68
218.306	29.52
218.524	70.48
218.742	54.1
218.96	97.11
219.179	7
219.397	64.34
219.615	101.2
219.833	19.29
220.051	56.15
220.27	95.06
220.488	150.36
220.706	37.72
220.924	50
221.142	-19.63
221.36	-5.29
221.578	70.48
221.796	125.78
222.015	95.06
222.233	23.38
222.451	7
222.669	54.1
222.887	-3.24
223.105	4.95
223.323	21.33
223.541	31.57
223.759	4.95
223.977	17.24
224.195	84.82
224.413	86.87
224.631	115.54
224.849	66.39
225.067	66.39
225.285	-3.24
225.503	31.57
225.721	-19.63
225.939	76.63
226.157	25.43
226.375	127.83
226.592	31.57
226.81	41.81
227.028	33.62
227.246	84.82
227.464	-40.11
227.682	107.35
227.9	-11.43
228.117	-19.63
228.335	66.39
228.553	15.19
228.771	41.81
228.989	84.82
229.206	82.77
229.424	4.95
229.642	58.2
229.86	-19.63
230.077	21.33
230.295	58.2
230.513	119.64
230.731	103.25
230.948	90.96
231.166	54.1
231.384	56.15
231.601	47.96
231.819	82.77
232.037	4.95
232.254	107.35
232.472	52.05
232.689	17.24
232.907	52.05
233.125	13.14
233.342	52.05
233.56	17.24
233.777	43.86
233.995	-42.15
234.213	50
234.43	62.29
234.648	-11.43
234.865	-58.54
235.083	99.16
235.3	74.58
235.518	27.48
235.735	-3.24
235.953	88.92
236.17	56.15
236.388	62.29
236.605	35.67
236.822	74.58
237.04	-21.67
237.257	-33.96
237.475	9.05
237.692	78.68
237.909	-56.49
238.127	9.05
238.344	54.1
238.562	60.24
238.779	2.9
238.996	13.14
239.214	80.72
239.431	103.25
239.648	54.1
239.865	37.72
240.083	-17.58
240.3	15.19
240.517	64.34
240.735	78.68
240.952	56.15
241.169	-9.39
241.386	86.87
241.603	64.34
241.821	39.76
242.038	21.33
242.255	66.39
242.472	31.57
242.689	43.86
242.907	146.26
243.124	-1.19
243.341	93.01
243.558	45.91
243.775	95.06
243.992	13.14
244.209	-3.24
244.426	45.91
244.643	37.72
244.86	47.96
245.078	47.96
245.295	62.29
245.512	21.33
245.729	58.2
245.946	86.87
246.163	25.43
246.38	88.92
246.597	107.35
246.814	-1.19
247.031	58.2
247.248	86.87
247.464	86.87
247.681	45.91
247.898	90.96
248.115	74.58
248.332	-15.53
248.549	105.3
248.766	7
248.983	70.48
249.2	88.92
249.417	2.9
249.633	17.24
249.85	72.53
250.067	-23.72
250.284	64.34
250.501	43.86
250.717	86.87
250.934	-3.24
251.151	2.9
251.368	29.52
251.585	95.06
251.801	121.68
252.018	23.38
252.235	54.1
252.451	-60.59
252.668	9.05
252.885	-50.35
253.102	86.87
253.318	64.34
253.535	-19.63
253.752	13.14
253.968	0.85
254.185	11.09
254.401	-36.01
254.618	68.44
254.835	70.48
255.051	21.33
255.268	60.24
255.484	11.09
255.701	-25.77
255.917	109.4
256.134	-29.87
256.351	13.14
256.567	-48.3
256.784	84.82
257	-9.39
257.217	109.4
257.433	56.15
257.65	78.68
257.866	123.73
258.082	50
258.299	-52.39
258.515	37.72
258.732	23.38
258.948	35.67
259.165	31.57
259.381	35.67
259.597	164.69
259.814	52.05
260.03	23.38
260.246	45.91
260.463	2.9
260.679	50
260.895	19.29
261.112	72.53
261.328	9.05
261.544	62.29
261.761	58.2
261.977	62.29
262.193	15.19
262.409	13.14
262.626	0.85
262.842	97.11
263.058	21.33
263.274	11.09
263.49	93.01
263.707	78.68
263.923	50
264.139	4.95
264.355	17.24
264.571	103.25
264.787	70.48
265.004	-46.25
265.22	50
265.436	-36.01
265.652	62.29
265.868	7
266.084	-11.43
266.3	13.14
266.516	-19.63
266.732	62.29
266.948	50
267.164	23.38
267.38	66.39
267.596	52.05
267.812	95.06
268.028	37.72
268.244	37.72
268.46	29.52
268.676	4.95
268.892	80.72
269.108	-1.19
269.324	4.95
269.54	4.95
269.756	62.29
269.972	-11.43
270.188	66.39
270.403	7
270.619	39.76
270.835	54.1
271.051	33.62
271.267	27.48
271.483	64.34
271.698	52.05
271.914	-33.96
272.13	23.38
272.346	-1.19
272.562	25.43
272.777	86.87
272.993	21.33
273.209	119.64
273.425	-11.43
273.64	-33.96
273.856	103.25
274.072	-1.19
274.287	64.34
274.503	41.81
274.719	90.96
274.934	39.76
275.15	62.29
275.366	37.72
275.581	80.72
275.797	-5.29
276.012	-3.24
276.228	54.1
276.444	78.68
276.659	70.48
276.875	-11.43
277.09	9.05
277.306	-42.15
277.521	97.11
277.737	7
277.952	-15.53
278.168	45.91
278.383	64.34
278.599	47.96
278.814	70.48
279.03	31.57
279.245	74.58
279.461	39.76
279.676	68.44
279.892	19.29
280.107	86.87
280.322	58.2
280.538	95.06
280.753	21.33
280.969	64.34
281.184	-7.34
281.399	86.87
281.615	62.29
281.83	70.48
282.045	-42.15
282.26	86.87
282.476	66.39
282.691	15.19
282.906	39.76
283.122	45.91
283.337	9.05
283.552	127.83
283.767	45.91
283.983	68.44
284.198	54.1
284.413	13.14
284.628	-60.59
284.843	62.29
285.058	29.52
285.274	19.29
285.489	103.25
285.704	47.96
285.919	93.01
286.134	25.43
286.349	-3.24
286.564	29.52
286.779	2.9
286.995	15.19
287.21	7
287.425	136.02
287.64	-31.91
287.855	45.91
288.07	13.14
288.285	58.2
288.5	9.05
288.715	111.44
288.93	101.2
289.145	45.91
289.36	66.39
289.575	74.58
289.79	47.96
290.004	4.95
290.219	58.2
290.434	39.76
290.649	80.72
290.864	37.72
291.079	43.86
291.294	88.92
291.509	-11.43
291.724	54.1
291.938	31.57
292.153	9.05
292.368	50
292.583	74.58
292.798	111.44
293.012	43.86
293.227	39.76
293.442	111.44
293.657	56.15
293.871	86.87
294.086	13.14
294.301	25.43
294.516	29.52
294.73	54.1
294.945	9.05
295.16	-15.53
295.374	97.11
295.589	80.72
295.804	84.82
296.018	4.95
296.233	82.77
296.447	88.92
296.662	4.95
296.877	68.44
297.091	54.1
297.306	78.68
297.52	11.09
297.735	45.91
297.949	-1.19
298.164	39.76
298.378	74.58
298.593	21.33
298.807	-19.63
299.022	56.15
299.236	50
299.451	47.96
299.665	25.43
299.88	4.95
300.094	93.01
300.309	37.72
300.523	74.58
300.737	4.95
300.952	82.77
301.166	70.48
301.381	-19.63
301.595	-3.24
301.809	45.91
302.024	129.88
302.238	13.14
302.452	97.11
302.667	66.39
302.881	88.92
303.095	29.52
303.309	45.91
303.524	37.72
303.738	25.43
303.952	-33.96
304.166	41.81
304.381	25.43
304.595	66.39
304.809	-19.63
305.023	50
305.237	-17.58
305.452	41.81
305.666	52.05
305.88	78.68
306.094	33.62
306.308	-11.43
306.522	50
306.736	93.01
306.95	62.29
307.164	86.87
307.379	-9.39
307.593	93.01
307.807	86.87
308.021	80.72
308.235	-9.39
308.449	21.33
308.663	62.29
308.877	82.77
309.091	54.1
309.305	90.96
309.519	-60.59
309.733	11.09
309.947	7
310.161	80.72
310.374	152.4
310.588	56.15
310.802	17.24
311.016	15.19
311.23	62.29
311.444	37.72
311.658	56.15
311.872	50
312.085	35.67
312.299	70.48
312.513	88.92
312.727	47.96
312.941	9.05
313.154	64.34
313.368	35.67
313.582	37.72
313.796	52.05
314.009	93.01
314.223	84.82
314.437	29.52
314.651	31.57
314.864	107.35
315.078	29.52
315.292	17.24
315.505	-36.01
315.719	13.14
315.933	41.81
316.146	54.1
316.36	107.35
316.573	70.48
316.787	66.39
317.001	119.64
317.214	43.86
317.428	54.1
317.641	45.91
317.855	29.52
318.068	101.2
318.282	58.2
318.495	86.87
318.709	47.96
318.922	70.48
319.136	113.49
319.349	62.29
319.563	41.81
319.776	9.05
319.99	62.29
320.203	78.68
320.417	37.72
320.63	78.68
320.843	56.15
321.057	23.38
321.27	64.34
321.483	131.92
321.697	99.16
321.91	70.48
322.124	70.48
322.337	13.14
322.55	43.86
322.763	78.68
322.977	31.57
323.19	27.48
323.403	93.01
323.617	-17.58
323.83	76.63
324.043	21.33
324.256	66.39
324.469	-15.53
324.683	54.1
324.896	17.24
325.109	64.34
325.322	-21.67
325.535	88.92
325.748	64.34
325.962	78.68
326.175	78.68
326.388	80.72
326.601	52.05
326.814	133.97
327.027	95.06
327.24	23.38
327.453	27.48
327.666	80.72
327.879	41.81
328.092	33.62
328.305	41.81
328.518	39.76
328.731	47.96
328.944	64.34
329.157	31.57
329.37	54.1
329.583	21.33
329.796	43.86
330.009	64.34
330.222	58.2
330.435	62.29
330.648	66.39
330.861	84.82
331.073	93.01
331.286	39.76
331.499	45.91
331.712	93.01
331.925	103.25
332.138	146.26
332.35	101.2
332.563	-11.43
332.776	60.24
332.989	56.15
333.202	129.88
333.414	-1.19
333.627	7
333.84	76.63
334.053	64.34
334.265	45.91
334.478	-11.43
334.691	90.96
334.903	25.43
335.116	29.52
335.329	29.52
335.541	41.81
335.754	125.78
335.966	35.67
336.179	4.95
336.392	7
336.604	82.77
336.817	35.67
337.029	97.11
337.242	74.58
337.454	45.91
337.667	27.48
337.88	82.77
338.092	23.38
338.305	39.76
338.517	9.05
338.729	62.29
338.942	119.64
339.154	56.15
339.367	50
339.579	84.82
339.792	21.33
340.004	62.29
340.217	62.29
340.429	50
340.641	21.33
340.854	-17.58
341.066	68.44
341.278	123.73
341.491	127.83
341.703	41.81
341.915	37.72
342.128	170.83
342.34	52.05
342.552	25.43
342.764	76.63
342.977	54.1
343.189	56.15
343.401	37.72
343.613	43.86
343.826	64.34
344.038	64.34
344.25	64.34
344.462	35.67
344.674	41.81
344.886	39.76
345.099	31.57
345.311	80.72
345.523	80.72
345.735	39.76
345.947	127.83
346.159	64.34
346.371	62.29
346.583	58.2
346.795	160.59
347.007	66.39
347.219	21.33
347.431	-42.15
347.643	4.95
347.855	82.77
348.067	56.15
348.279	123.73
348.491	19.29
348.703	72.53
348.915	58.2
349.127	119.64
349.339	43.86
349.551	54.1
349.763	78.68
349.975	107.35
350.187	88.92
350.399	127.83
350.61	60.24
350.822	47.96
351.034	97.11
351.246	35.67
351.458	72.53
351.669	62.29
351.881	54.1
352.093	62.29
352.305	119.64
352.517	33.62
352.728	-9.39
352.94	74.58
353.152	129.88
353.363	-40.11
353.575	86.87
353.787	138.07
353.999	113.49
354.21	93.01
354.422	99.16
354.633	37.72
354.845	31.57
355.057	113.49
355.268	2.9
355.48	95.06
355.692	33.62
355.903	78.68
356.115	70.48
356.326	21.33
356.538	86.87
356.749	86.87
356.961	64.34
357.172	64.34
357.384	54.1
357.595	86.87
357.807	23.38
358.018	103.25
358.23	121.68
358.441	23.38
358.653	64.34
358.864	9.05
359.075	43.86
359.287	21.33
359.498	58.2
359.709	86.87
359.921	105.3
360.132	66.39
360.344	41.81
360.555	47.96
360.766	97.11
360.977	-19.63
361.189	37.72
361.4	70.48
361.611	123.73
361.823	62.29
362.034	45.91
362.245	-33.96
362.456	123.73
362.667	97.11
362.879	66.39
363.09	138.07
363.301	56.15
363.512	45.91
363.723	105.3
363.935	31.57
364.146	7
364.357	35.67
364.568	109.4
364.779	80.72
364.99	138.07
365.201	58.2
365.412	115.54
365.623	56.15
365.834	78.68
366.045	84.82
366.256	123.73
366.467	0.85
366.678	72.53
366.889	4.95
367.1	86.87
367.311	121.68
367.522	101.2
367.733	45.91
367.944	45.91
368.155	-23.72
368.366	93.01
368.577	99.16
368.788	70.48
368.999	15.19
369.209	21.33
369.42	111.44
369.631	72.53
369.842	29.52
370.053	97.11
370.264	25.43
370.474	58.2
370.685	39.76
370.896	82.77
371.107	103.25
371.317	68.44
371.528	50
371.739	103.25
371.95	56.15
372.16	170.83
372.371	123.73
372.582	15.19
372.792	47.96
373.003	113.49
373.214	148.31
373.424	162.64
373.635	45.91
373.846	72.53
374.056	74.58
374.267	47.96
374.477	76.63
374.688	111.44
374.898	78.68
375.109	168.79
375.319	45.91
375.53	64.34
375.74	140.12
375.951	62.29
376.161	119.64
376.372	111.44
376.582	19.29
376.793	-11.43
377.003	68.44
377.214	80.72
377.424	62.29
377.635	78.68
377.845	176.98
378.055	140.12
378.266	41.81
378.476	103.25
378.686	166.74
378.897	111.44
379.107	74.58
379.317	146.26
379.528	47.96
379.738	66.39
379.948	70.48
380.158	47.96
380.369	31.57
380.579	76.63
380.789	105.3
380.999	27.48
381.21	56.15
381.42	160.59
381.63	27.48
381.84	54.1
382.05	41.81
382.261	50
382.471	74.58
382.681	47.96
382.891	74.58
383.101	33.62
383.311	99.16
383.521	82.77
383.731	47.96
383.941	95.06
384.151	70.48
384.361	41.81
384.571	70.48
384.781	203.6
384.991	74.58
385.201	107.35
385.411	115.54
385.621	127.83
385.831	95.06
386.041	123.73
386.251	78.68
386.461	138.07
386.671	62.29
386.881	105.3
387.091	15.19
387.301	72.53
387.511	72.53
387.72	80.72
387.93	45.91
388.14	78.68
388.35	74.58
388.56	103.25
388.769	60.24
388.979	113.49
389.189	-33.96
389.399	78.68
389.609	43.86
389.818	111.44
390.028	52.05
390.238	127.83
390.447	111.44
390.657	54.1
390.867	58.2
391.076	115.54
391.286	113.49
391.496	-1.19
391.705	146.26
391.915	187.22
392.125	113.49
392.334	21.33
392.544	121.68
392.753	74.58
392.963	29.52
393.172	111.44
393.382	78.68
393.591	95.06
393.801	70.48
394.01	70.48
394.22	4.95
394.429	31.57
394.639	76.63
394.848	195.41
395.058	113.49
395.267	129.88
395.477	158.55
395.686	119.64
395.895	156.5
396.105	95.06
396.314	107.35
396.524	115.54
396.733	66.39
396.942	162.64
397.152	52.05
397.361	181.07
397.57	99.16
397.78	136.02
397.989	54.1
398.198	70.48
398.407	80.72
398.617	148.31
398.826	160.59
399.035	152.4
399.244	95.06
399.453	107.35
399.663	156.5
399.872	74.58
400.081	97.11
400.29	127.83
400.499	39.76
400.708	129.88
400.917	88.92
401.127	199.51
401.336	111.44
401.545	140.12
401.754	103.25
401.963	121.68
402.172	125.78
402.381	152.4
402.59	52.05
402.799	197.46
403.008	146.26
403.217	162.64
403.426	172.88
403.635	170.83
403.844	146.26
404.053	156.5
404.262	127.83
404.471	205.65
404.68	209.75
404.888	238.42
405.097	189.27
405.306	193.36
405.515	222.03
405.724	162.64
405.933	203.6
406.142	222.03
406.35	219.99
406.559	209.75
406.768	234.32
406.977	205.65
407.185	301.9
407.394	242.51
407.603	219.99
407.812	244.56
408.02	303.95
408.229	326.48
408.438	203.6
408.646	299.86
408.855	355.15
409.064	324.43
409.272	283.47
409.481	330.58
409.69	344.91
409.898	379.73
410.107	330.58
410.315	351.06
410.524	381.78
410.733	369.49
410.941	406.35
411.15	449.36
411.358	443.21
411.567	451.41
411.775	447.31
411.984	465.74
412.192	480.08
412.401	523.09
412.609	592.72
412.818	521.04
413.026	578.38
413.234	656.2
413.443	627.53
413.651	588.62
413.86	664.4
414.068	670.54
414.276	723.79
414.485	772.94
414.693	639.82
414.901	793.42
415.11	764.75
415.318	815.94
415.526	832.33
415.734	891.72
415.943	973.64
416.151	1030.98
416.359	998.21
416.567	979.78
416.776	1086.28
416.984	1020.74
417.192	1092.42
417.4	1170.24
417.608	1033.03
417.817	1168.2
418.025	1260.35
418.233	1317.7
418.441	1303.36
418.649	1336.13
418.857	1448.77
419.065	1489.73
419.273	1463.1
419.481	1538.88
419.689	1612.6
419.897	1676.09
420.105	1819.45
420.313	1831.74
420.521	1932.09
420.729	1884.98
420.937	1948.47
421.145	1983.29
421.353	2093.88
421.561	2190.13
421.769	2183.99
421.977	2349.87
422.185	2327.35
422.393	2528.05
422.601	2683.69
422.809	2554.67
423.017	2732.84
423.224	2745.13
423.432	2786.09
423.64	2839.34
423.848	3183.4
424.056	3037.99
424.263	3437.34
424.471	3224.36
424.679	3314.47
424.887	3525.41
425.094	3646.24
425.302	3574.56
425.51	3715.87
425.718	3887.9
425.925	3805.98
426.133	4053.78
426.341	4242.2
426.548	4576.02
426.756	4297.49
426.964	4664.08
427.171	4905.74
427.379	4887.31
427.586	5024.52
427.794	4918.03
428.001	5366.53
428.209	5554.94
428.417	5475.07
428.624	6038.27
428.832	5894.91
429.039	5976.83
429.247	5978.87
429.454	6447.86
429.662	6922.99
429.869	6427.38
430.076	6968.04
430.284	6578.93
430.491	6996.71
430.699	7330.53
430.906	7475.94
431.114	7445.22
431.321	7709.41
431.528	8028.89
431.736	8313.56
431.943	8909.52
432.15	8530.64
432.358	8508.12
432.565	9224.9
432.772	8821.45
432.979	9550.53
433.187	9693.89
433.394	9620.16
433.601	10396.34
433.808	10457.78
434.016	10304.18
434.223	10900.14
434.43	11360.94
434.637	11145.9
434.844	12030.62
435.052	12139.16
435.259	12145.31
435.466	12219.03
435.673	11932.32
435.88	12814.99
436.087	13302.41
436.294	13398.66
436.501	13326.99
436.708	13476.49
436.915	13849.22
437.122	14580.34
437.329	14504.57
437.537	14856.82
437.743	15274.6
437.95	14928.5
438.157	15897.19
438.364	16609.88
438.571	16310.88
438.778	16370.27
438.985	17754.69
439.192	17168.98
439.399	17621.58
439.606	17298
439.813	18618.94
440.02	19356.21
440.227	19178.03
440.433	18944.56
440.64	19599.91
440.847	19683.88
441.054	19821.09
441.261	21303.82
441.467	20824.6
441.674	21406.22
441.881	22061.57
442.088	22141.44
442.294	21793.29
442.501	22567.42
442.708	22970.87
442.914	23677.42
443.121	24760.8
443.328	24197.6
443.534	25917.9
443.741	25022.94
443.948	24658.4
444.154	26358.21
444.361	26380.74
444.568	26507.71
444.774	26282.44
444.981	26833.34
445.187	27513.27
445.394	28686.75
445.6	28412.32
445.807	31369.59
446.013	29688.21
446.22	30175.62
446.426	31205.75
446.633	31865.2
446.839	32774.5
447.046	31193.47
447.252	33188.19
447.459	33077.6
447.665	33005.92
447.871	34253.13
448.078	36120.88
448.284	34550.09
448.491	35653.94
448.697	36671.78
448.903	37146.91
449.11	37476.63
449.316	36780.32
449.522	37120.29
449.728	38125.84
449.935	38404.36
450.141	38795.53
450.347	39315.71
450.553	38648.07
450.76	38897.92
450.966	39706.87
451.172	39465.21
451.378	40671.46
451.584	39465.21
451.791	40632.55
451.997	40229.1
452.203	41386.21
452.409	41267.42
452.615	41029.86
452.821	39164.16
453.027	39090.43
453.233	41246.94
453.44	39561.47
453.646	39790.84
453.852	40311.02
454.058	41007.33
454.264	39485.69
454.47	40405.23
454.676	39346.43
454.882	40534.25
455.088	37181.73
455.294	37945.62
455.5	38791.43
455.705	38623.5
455.911	37052.7
456.117	36665.64
456.323	36137.26
456.529	34335.05
456.735	36090.16
456.941	34519.37
457.147	34236.75
457.352	33401.18
457.558	32573.8
457.764	32901.47
457.97	32680.29
458.176	31471.99
458.381	31437.17
458.587	29989.26
458.793	30347.65
458.999	28606.88
459.204	30773.63
459.41	29811.09
459.616	28080.55
459.821	27898.28
460.027	28074.41
460.233	27349.43
460.438	26046.92
460.644	26362.31
460.85	25074.13
461.055	24762.84
461.261	24734.17
461.466	22688.25
461.672	21869.06
461.878	23841.26
462.083	22245.89
462.289	21740.04
462.494	21602.83
462.7	20509.21
462.905	20001.32
463.111	20576.8
463.316	20505.12
463.522	20249.12
463.727	20476.44
463.932	20412.96
464.138	20132.39
464.343	20015.65
464.549	19878.44
464.754	20333.09
464.959	20038.18
465.165	19532.33
465.37	19061.3
465.575	18616.89
465.781	19300.91
465.986	18876.98
466.191	18688.57
466.397	18373.18
466.602	17150.54
466.807	18090.56
467.012	18068.03
467.218	17990.21
467.423	17748.55
467.628	17879.62
467.833	18641.46
468.038	18299.45
468.244	17445.45
468.449	17986.11
468.654	17533.51
468.859	17388.11
469.064	17300.05
469.269	16585.3
469.474	16892.5
469.679	17230.41
469.885	16632.41
470.09	16853.59
470.295	16728.66
470.5	16302.68
470.705	16530.01
470.91	16052.83
471.115	16263.77
471.32	16011.87
471.525	16194.14
471.73	15796.84
471.935	15710.82
472.139	14983.79
472.344	15583.85
472.549	15059.57
472.754	15061.62
472.959	14895.73
473.164	14242.43
473.369	14221.95
473.574	14832.24
473.778	14402.17
473.983	14314.11
474.188	14531.19
474.393	13890.18
474.598	13961.86
474.802	13685.38
475.007	13689.48
475.212	13619.85
475.417	13163.15
475.621	13290.12
475.826	13191.82
476.031	12944.02
476.235	12782.23
476.44	12817.04
476.645	12573.33
476.849	12720.79
477.054	12298.91
477.259	12333.72
477.463	12341.91
477.668	12028.57
477.872	12128.92
478.077	11874.98
478.282	11524.77
478.486	11772.58
478.691	11500.2
478.895	11487.91
479.1	11422.38
479.304	11604.64
479.509	10975.92
479.713	11477.67
479.918	11137.71
480.122	10932.91
480.326	11082.41
480.531	10814.13
480.735	10760.88
480.94	10832.56
481.144	11180.71
481.348	10617.52
481.553	10607.28
481.757	10488.5
481.961	10633.91
482.166	10791.6
482.37	10554.04
482.574	10502.84
482.778	10650.29
482.983	10627.76
483.187	10758.83
483.391	10844.85
483.595	10724.02
483.8	10445.49
484.004	10689.2
484.208	10592.95
484.412	10572.47
484.616	10685.11
484.821	10638
485.025	10199.74
485.229	10812.08
485.433	10721.97
485.637	10629.81
485.841	10431.16
486.045	10535.6
486.249	10314.42
486.453	10412.73
486.657	10515.12
486.861	10605.24
487.065	10406.58
487.269	10574.52
487.473	10506.93
487.677	10699.44
487.881	10674.87
488.085	10662.58
488.289	10713.78
488.493	10474.17
488.697	10468.02
488.901	10875.57
489.105	10617.52
489.309	10685.11
489.512	10695.35
489.716	10709.68
489.92	10691.25
490.124	10408.63
490.328	10824.37
490.531	10728.11
490.735	10803.89
490.939	10869.42
491.143	10887.86
491.346	10861.23
491.55	11045.55
491.754	10875.57
491.958	10975.92
492.161	11051.69
492.365	11121.32
492.569	11051.69
492.772	11154.09
492.976	11205.29
493.18	11342.5
493.383	11666.08
493.587	11524.77
493.79	11543.21
493.994	11342.5
494.197	11516.58
494.401	11786.91
494.605	11645.6
494.808	11782.82
495.012	11819.68
495.215	11842.21
495.419	12055.2
495.622	12120.73
495.825	12282.52
496.029	12413.59
496.232	12419.74
496.436	12499.61
496.639	12671.64
496.843	12774.03
497.046	12950.16
497.249	12948.11
497.453	13189.77
497.656	13367.95
497.859	13177.48
498.063	13322.89
498.266	13636.23
498.469	13550.21
498.673	13812.35
498.876	14023.3
499.079	13976.19
499.282	14312.06
499.485	14391.93
499.689	14498.42
499.892	14649.97
500.095	14826.1
500.298	15166.06
500.501	14981.74
500.705	15354.48
500.908	15356.52
501.111	15766.12
501.314	15839.84
501.517	15999.59
501.72	16167.52
501.923	16218.72
502.126	16499.29
502.329	16667.22
502.532	16765.53
502.735	16806.48
502.938	17107.54
503.141	17404.49
503.344	17508.94
503.547	17490.51
503.75	17941.06
503.953	18289.21
504.156	18340.41
504.359	18428.48
504.562	18514.49
504.765	18786.87
504.968	19198.51
505.17	19468.84
505.373	19311.15
505.576	19706.41
505.779	19831.33
505.982	19927.59
506.185	20484.64
506.387	20222.5
506.59	20486.68
506.793	20929.05
506.996	20726.3
507.198	21768.71
507.401	21293.58
507.604	21705.23
507.807	22249.99
508.009	22395.39
508.212	22360.58
508.415	22376.96
508.617	22925.82
508.82	22997.49
509.022	22856.18
509.225	23867.88
509.428	23493.1
509.63	23820.78
509.833	24076.77
510.035	24353.25
510.238	24369.63
510.44	24795.61
510.643	25340.37
510.845	25385.43
511.048	25246.16
511.25	25768.4
511.453	25883.08
511.655	26886.59
511.858	26550.72
512.06	26427.84
512.262	27054.52
512.465	26866.11
512.667	27417.01
512.87	27824.56
513.072	27734.45
513.274	28238.25
513.477	28465.57
513.679	28584.35
513.881	29378.97
514.084	29409.68
514.286	29264.28
514.488	29628.82
514.69	30423.43
514.893	30968.19
515.095	30421.38
515.297	30595.46
515.499	30986.62
515.701	31658.35
515.904	31687.03
516.106	31740.27
516.308	32328.04
516.51	32508.26
516.712	32651.62
516.914	33022.3
517.116	33495.38
517.318	33235.29
517.52	33653.08
517.722	33866.06
517.925	34062.67
518.127	34812.23
518.329	34664.77
518.531	34695.49
518.733	35496.25
518.935	35660.09
519.136	36030.77
519.338	36360.49
519.54	36561.19
519.742	36550.95
519.944	36634.92
520.146	37544.22
520.348	37546.26
520.55	37734.68
520.752	37585.18
520.954	38758.66
521.155	38471.95
521.357	38547.72
521.559	39082.24
521.761	39729.4
521.963	39737.59
522.164	39856.37
522.366	40263.92
522.568	40442.09
522.77	40452.33
522.971	41248.99
523.173	40812.77
523.375	41359.58
523.576	41015.52
523.778	41410.78
523.98	41963.73
524.181	42266.83
524.383	42236.11
524.584	42557.64
524.786	42551.5
524.988	42606.8
525.189	43344.06
525.391	43346.11
525.592	43303.1
525.794	43655.36
525.995	44085.43
526.197	43767.99
526.398	44101.81
526.6	44196.02
526.801	44550.32
527.003	44427.44
527.204	44550.32
527.406	45064.36
527.607	44834.99
527.808	45217.96
528.01	44812.46
528.211	44949.67
528.412	46020.76
528.614	45901.98
528.815	45777.05
529.016	46194.84
529.218	45783.19
529.419	45826.2
529.62	45799.58
529.822	46352.53
530.023	46194.84
530.224	46313.62
530.425	46063.77
530.626	46330
530.828	45754.52
531.029	47054.98
531.23	46368.91
531.431	46422.16
531.632	46762.12
531.833	47024.26
532.035	47138.95
532.236	46571.66
532.437	47194.25
532.638	46727.31
532.839	46893.19
533.04	47069.32
533.241	46545.04
533.442	47466.63
533.643	47231.11
533.844	47261.83
534.045	47106.18
534.246	46749.84
534.447	47263.88
534.648	47227.01
534.849	47423.62
535.05	46762.12
535.251	47310.98
535.451	47222.92
535.652	47681.66
535.853	47294.6
536.054	47292.55
536.255	47343.75
536.456	46663.82
536.657	47741.05
536.857	47145.09
537.058	46950.54
537.259	47972.47
537.46	47704.19
537.66	46940.3
537.861	47233.16
538.062	46981.26
538.263	47700.09
538.463	47247.49
538.664	47100.04
538.865	47319.17
539.065	47499.39
539.266	46700.68
539.466	47607.93
539.667	46932.11
539.868	47259.78
540.068	47243.4
540.269	46956.68
540.469	47427.71
540.67	47052.94
540.87	46909.58
541.071	46860.43
541.271	47097.99
541.472	47532.16
541.672	46827.66
541.873	47007.88
542.073	46203.03
542.274	47272.07
542.474	47315.08
542.675	46989.45
542.875	47022.22
543.075	46950.54
543.276	46131.35
543.476	47073.42
543.676	46499.98
543.877	46975.11
544.077	46643.34
544.277	46839.95
544.478	46876.81
544.678	46993.54
544.878	46700.68
545.078	47331.46
545.279	47016.07
545.479	46811.28
545.679	47075.46
545.879	46663.82
546.079	46749.84
546.28	46710.92
546.48	46344.34
546.68	46934.15
546.88	46971.02
547.08	46600.33
547.28	46577.81
547.48	46287
547.68	46665.87
547.88	46631.05
548.081	46874.76
548.281	47007.88
548.481	46510.22
548.681	46850.19
548.881	46479.5
549.081	46532.75
549.28	46448.78
549.48	46860.43
549.68	46590.09
549.88	46743.69
550.08	46422.16
550.28	46491.79
550.48	46485.65
550.68	46508.18
550.88	46547.09
551.08	46325.91
551.279	46624.91
551.479	46119.06
551.679	46454.93
551.879	46477.46
552.079	46637.2
552.278	45969.56
552.478	46598.29
552.678	46452.88
552.878	46532.75
553.077	46370.96
553.277	46061.72
553.477	46411.92
553.676	46139.54
553.876	46131.35
554.076	45787.29
554.275	45469.86
554.475	45688.99
554.674	45934.74
554.874	46041.24
555.074	45725.85
555.273	46440.59
555.473	45863.07
555.672	45492.38
555.872	45795.48
556.071	45969.56
556.271	45938.84
556.47	45697.18
556.67	45525.15
556.869	45598.88
557.068	45750.43
557.268	45222.05
557.467	45510.81
557.667	45660.32
557.866	45547.68
558.065	45480.1
558.265	45359.27
558.464	45263.01
558.663	45623.45
558.863	45090.98
559.062	45635.74
559.261	44935.34
559.461	45711.52
559.66	44615.85
559.859	45031.59
560.058	44499.12
560.258	45064.36
560.457	44204.21
560.656	44978.34
560.855	44757.16
561.054	44564.65
561.253	44640.43
561.453	44724.39
561.652	44357.81
561.851	44845.23
562.05	44593.32
562.249	44298.42
562.448	44681.39
562.647	44187.83
562.846	43894.97
563.045	44040.37
563.244	43946.17
563.443	44097.72
563.642	43733.18
563.841	43872.44
564.04	43522.24
564.239	44177.59
564.438	43563.2
564.637	44060.85
564.836	43567.29
565.035	43421.89
565.234	43327.68
565.432	43450.56
565.631	43137.22
565.83	43317.44
566.029	42928.33
566.228	42946.76
566.427	43122.88
566.625	42733.77
566.824	42713.29
567.023	43047.11
567.222	41765.08
567.42	42838.22
567.619	42789.06
567.818	42363.09
568.016	42571.98
568.215	42852.55
568.414	42068.18
568.612	42676.43
568.811	42113.23
569.01	42496.2
569.208	41621.72
569.407	42199.25
569.605	41548
569.804	41787.61
570.002	41230.56
570.201	41922.77
570.4	41961.69
570.598	41113.83
570.797	40972.52
570.995	41367.77
571.193	40863.97
571.392	41275.62
571.59	40722.66
571.789	40954.08
571.987	41119.97
572.186	40790.25
572.384	40782.06
572.582	40980.71
572.781	40726.76
572.979	40108.27
573.177	40653.03
573.376	40657.13
573.574	40102.13
573.772	40087.79
573.971	40022.26
574.169	40392.94
574.367	39493.88
574.565	39842.04
574.763	39467.26
574.962	39663.86
575.16	39534.84
575.358	39821.56
575.556	39145.73
575.754	39465.21
575.952	39145.73
576.151	39289.09
576.349	38971.65
576.547	39016.71
576.745	38951.17
576.943	38756.61
577.141	38830.34
577.339	38543.63
577.537	38551.82
577.735	38650.12
577.933	38043.92
578.131	38490.38
578.329	38267.15
578.527	37806.36
578.725	38267.15
578.923	38240.53
579.121	37765.4
579.319	37708.05
579.516	37839.12
579.714	37652.76
579.912	37761.3
580.11	37472.54
580.308	37628.18
580.506	37435.67
580.704	36895.01
580.901	37093.66
581.099	37628.18
581.297	36825.38
581.495	36612.39
581.692	37218.59
581.89	36618.53
582.088	37069.09
582.285	36378.92
582.483	36573.48
582.681	36475.18
582.878	36344.11
583.076	36233.52
583.274	36305.2
583.471	35531.06
583.669	36215.08
583.866	35778.87
584.064	35893.55
584.262	35350.84
584.459	35856.69
584.657	35418.42
584.854	35717.43
585.052	35010.88
585.249	35490.1
585.447	35311.93
585.644	34931.01
585.841	35019.07
586.039	35733.81
586.236	34615.62
586.434	34918.72
586.631	34615.62
586.828	34638.15
587.026	34840.9
587.223	34494.79
587.42	34380.1
587.618	34488.65
587.815	33868.11
588.012	34089.29
588.21	34019.66
588.407	34234.7
588.604	33925.46
588.801	33778
588.999	33343.83
589.196	33534.29
589.393	33433.94
589.59	33374.55
589.787	33153.37
589.984	33186.14
590.182	33165.66
590.379	32993.63
590.576	32819.55
590.773	33036.64
590.97	32694.63
591.167	32737.63
591.364	32076.14
591.561	32360.81
591.758	32319.85
591.955	32291.18
592.152	32715.11
592.349	32080.24
592.546	32246.12
592.743	32278.89
592.94	31564.15
593.137	31902.06
593.334	32016.75
593.531	31412.6
593.727	31811.95
593.924	31652.21
594.121	31572.34
594.318	31480.18
594.515	30978.43
594.712	31277.43
594.908	31107.45
595.105	31285.62
595.302	30728.58
595.499	30822.78
595.696	30843.26
595.892	30208.39
596.089	30808.45
596.286	30787.97
596.482	30318.98
596.679	30196.1
596.876	30216.58
597.072	30374.28
597.269	30364.04
597.466	29739.41
597.662	29743.5
597.859	29788.56
598.055	29737.36
598.252	29047.19
598.448	29483.41
598.645	29362.58
598.841	29063.58
599.038	29401.49
599.234	29272.47
599.431	28952.99
599.627	28973.47
599.824	29090.2
600.02	28762.53
600.217	28840.35
600.413	28760.48
600.609	28627.36
600.806	28297.64
601.002	28832.16
601.198	28144.04
601.395	28191.14
601.591	28064.17
601.787	28287.4
601.984	27802.03
602.18	27961.77
602.376	27857.32
602.572	27687.34
602.769	27916.72
602.965	27529.65
603.161	27656.62
603.357	27646.38
603.553	27306.42
603.75	27380.15
603.946	27199.93
604.142	27292.08
604.338	26945.98
604.534	27408.82
604.73	26677.69
604.926	27060.66
605.122	26825.15
605.318	26964.41
605.514	26302.92
605.71	26720.7
605.906	26665.41
606.102	26610.11
606.298	26317.25
606.494	26294.72
606.69	26505.66
606.886	26132.93
607.082	26042.82
607.278	26386.88
607.474	25917.9
607.67	25960.91
607.866	25723.34
608.062	26010.06
608.257	25745.87
608.453	25815.5
608.649	25500.11
608.845	25500.11
609.041	25526.74
609.236	25371.09
609.432	25252.31
609.628	25174.49
609.824	25483.73
610.019	25129.43
610.215	25213.4
610.411	25444.82
610.606	24928.73
610.802	25201.11
610.998	24963.54
611.193	25106.9
611.389	25012.7
611.584	24783.32
611.78	24558.05
611.976	25096.66
612.171	24627.68
612.367	24842.71
612.562	24541.66
612.758	24490.46
612.953	24199.65
613.149	24703.45
613.344	24340.96
613.539	24506.85
613.735	24183.27
613.93	24388.07
614.126	24449.5
614.321	24355.3
614.517	24211.94
614.712	23960.04
614.907	24213.99
615.103	24136.17
615.298	24123.88
615.493	24175.08
615.688	23640.56
615.884	23857.64
616.079	23513.58
616.274	23914.98
616.47	23640.56
616.665	23718.38
616.86	23546.35
617.055	23304.69
617.25	23271.92
617.445	23783.91
617.641	23163.38
617.836	23667.18
618.031	23077.37
618.226	23095.8
618.421	23255.54
618.616	23230.96
618.811	22909.43
619.006	23118.32
619.201	22276.61
619.396	22948.34
619.591	22784.51
619.786	22508.03
619.981	22276.61
620.176	22458.88
620.371	22059.52
620.566	22551.04
620.761	21801.48
620.956	22084.1
621.151	21729.8
621.346	21928.45
621.541	21641.74
621.735	21840.39
621.93	21125.65
622.125	21606.92
622.32	21275.15
622.515	21217.81
622.709	20945.43
622.904	21248.53
623.099	20634.14
623.294	20836.89
623.488	20728.35
623.683	20693.53
623.878	20335.14
624.072	20703.77
624.267	20419.1
624.462	20320.8
624.656	19970.6
624.851	20159.01
625.046	19687.98
625.24	19507.76
625.435	19886.63
625.629	19610.15
625.824	19409.45
626.018	19302.96
626.213	18965.04
626.407	19149.36
626.602	18760.25
626.796	18930.23
626.991	18907.7
627.185	19046.96
627.38	18608.7
627.574	18352.7
627.768	18426.43
627.963	18338.37
628.157	18152
628.352	18594.36
628.546	17836.61
628.74	18289.21
628.935	17865.28
629.129	17797.7
629.323	17547.85
629.517	17553.99
629.712	17631.82
629.906	17535.56
630.1	17357.39
630.294	17291.85
630.489	17144.4
630.683	17420.88
630.877	16882.26
631.071	16970.32
631.265	16736.85
631.459	16855.64
631.653	16699.99
631.848	16644.7
632.042	16607.83
632.236	16630.36
632.43	16271.97
632.624	16310.88
632.818	15966.82
633.012	15929.95
633.206	16101.98
633.4	16253.53
633.594	15469.16
633.788	15772.26
633.982	15710.82
634.176	15604.33
634.369	15737.45
634.563	15266.41
634.757	15493.74
634.951	15393.39
635.145	15612.52
635.339	15374.95
635.533	15168.11
635.726	15026.8
635.92	14719.6
636.114	14707.32
636.308	15182.45
636.501	14684.79
636.695	14824.05
636.889	14410.36
637.083	14258.81
637.276	14547.58
637.47	14295.68
637.664	14066.3
637.857	14406.27
638.051	14199.42
638.244	13972.1
638.438	14070.4
638.632	13951.62
638.825	13851.27
639.019	13757.06
639.212	13574.79
639.406	13625.99
639.599	13574.79
639.793	13513.35
639.986	13177.48
640.18	13458.06
640.373	13204.11
640.567	13163.15
640.76	13044.37
640.954	13077.13
641.147	13128.33
641.34	12907.15
641.534	13001.36
641.727	12870.29
641.92	12755.6
642.114	12688.02
642.307	12702.36
642.5	12413.59
642.694	12374.68
642.887	12376.73
643.08	12626.58
643.273	12153.5
643.467	12346.01
643.66	11997.85
643.853	11920.03
644.046	11797.15
644.239	12014.24
644.432	11854.5
644.626	11809.44
644.819	11696.8
645.012	11739.81
645.205	11623.08
645.398	11649.7
645.591	11516.58
645.784	11664.04
645.977	11420.33
646.17	11473.57
646.363	11252.39
646.556	11152.04
646.749	11203.24
646.942	11127.47
647.135	11041.45
647.328	10967.73
647.521	10994.35
647.714	10875.57
647.907	10861.23
648.099	10818.22
648.292	10730.16
648.485	10715.83
648.678	10556.08
648.871	10588.85
649.064	10595
649.256	10592.95
649.449	10427.06
649.642	10508.98
649.835	10248.89
650.027	10093.24
650.22	10287.8
650.413	10273.46
650.605	10146.49
650.798	10074.81
650.991	10101.44
651.183	9917.12
651.376	9788.1
651.568	9867.97
651.761	9753.28
651.954	9802.43
652.146	9728.7
652.339	9679.55
652.531	9675.46
652.724	9319.11
652.916	9222.86
653.109	9378.5
653.301	9327.3
653.494	9452.23
653.686	9222.86
653.879	9261.77
654.071	9294.54
654.263	9173.71
654.456	9132.75
654.648	9091.79
654.84	9132.75
655.033	9007.82
655.225	8884.94
655.417	9026.25
655.61	8891.09
655.802	8819.41
655.994	8764.11
656.186	8755.92
656.379	8821.45
656.571	8577.75
656.763	8536.79
656.955	8590.03
657.148	8479.44
657.34	8483.54
657.532	8385.24
657.724	8278.74
657.916	8583.89
658.108	8352.47
658.3	8127.19
658.492	8229.59
658.684	8080.09
658.876	8055.51
659.068	8096.47
659.26	8119
659.452	7918.3
659.644	8106.71
659.836	7871.2
660.028	7998.17
660.22	7717.6
660.412	7787.23
660.604	7709.41
660.796	7824.09
660.988	7674.59
661.18	7527.14
661.372	7609.06
661.563	7688.93
661.755	7389.92
661.947	7647.97
662.139	7355.11
662.331	7410.4
662.522	7283.43
662.714	7402.21
662.906	7301.86
663.097	7135.98
663.289	7252.71
663.481	7297.77
663.673	7109.35
663.864	7166.7
664.056	7125.74
664.247	7095.02
664.439	6968.04
664.631	7131.88
664.822	6970.09
665.014	7000.81
665.205	6906.6
665.397	7000.81
665.588	6957.8
665.78	6699.76
665.971	6697.71
666.163	6613.74
666.354	6816.49
666.546	6603.5
666.737	6628.08
666.929	6611.7
667.12	6652.66
667.311	6486.77
667.503	6462.19
667.694	6570.74
667.885	6458.1
668.077	6443.76
668.268	6351.6
668.459	6415.09
668.651	6347.51
668.842	6267.64
669.033	6224.63
669.224	6140.66
669.416	6220.53
669.607	6173.43
669.798	6316.79
669.989	6159.1
670.18	6107.9
670.371	6206.2
670.563	6068.98
670.754	6093.56
670.945	5980.92
671.136	6163.19
671.327	6081.27
671.518	6001.4
671.709	5980.92
671.9	6079.22
672.091	5944.06
672.282	5876.48
672.473	5903.1
672.664	5950.2
672.855	5909.24
673.046	5788.41
673.237	5708.54
673.428	5876.48
673.619	5800.7
673.809	5708.54
674	5716.73
674.191	5661.44
674.382	5716.73
674.573	5632.77
674.764	5620.48
674.954	5595.9
675.145	5550.85
675.336	5591.81
675.527	5559.04
675.717	5409.54
675.908	5284.61
676.099	5579.52
676.289	5546.75
676.48	5511.94
676.671	5350.15
676.861	5405.44
677.052	5387.01
677.243	5364.48
677.433	5462.79
677.624	5313.28
677.814	5292.8
678.005	5227.27
678.195	5307.14
678.386	5411.59
678.576	5413.63
678.767	5344
678.957	5051.14
679.148	5276.42
679.338	5380.87
679.529	5088.01
679.719	5227.27
679.909	5325.57
680.1	5069.58
680.29	5298.95
680.481	5171.97
680.671	5149.45
680.861	4981.51
681.052	5188.36
681.242	5124.87
681.432	5071.62
681.622	5067.53
681.813	4938.51
682.003	5061.38
682.193	5004.04
682.383	5045
682.573	5010.18
682.764	4920.07
682.954	5081.86
683.144	4952.84
683.334	4909.83
683.524	4887.31
683.714	4981.51
683.904	4827.92
684.094	4793.1
684.284	4862.73
684.474	4911.88
684.664	4797.2
684.854	4881.16
685.044	4887.31
685.234	4666.13
685.424	4836.11
685.614	4643.6
685.804	4758.28
685.994	4702.99
686.184	4682.51
686.374	4698.89
686.564	4694.8
686.753	4559.63
686.943	4557.58
687.133	4653.84
687.323	4504.34
687.513	4698.89
687.702	4578.06
687.892	4535.06
688.082	4510.48
688.272	4436.75
688.461	4608.78
688.651	4584.21
688.841	4416.27
689.03	4483.86
689.22	4295.44
689.41	4416.27
689.599	4285.2
689.789	4277.01
689.979	4485.9
690.168	4340.5
690.358	4324.12
690.547	4229.91
690.737	4264.72
690.926	4303.64
691.116	4182.81
691.305	4403.99
691.495	4197.14
691.684	4182.81
691.874	4098.84
692.063	4248.34
692.252	4158.23
692.442	4074.26
692.631	4051.74
692.82	4029.21
693.01	4096.79
693.199	4031.26
693.388	3920.67
693.578	3932.95
693.767	3963.67
693.956	3914.52
694.146	3916.57
694.335	3828.51
694.524	3805.98
694.713	3816.22
694.902	3922.71
695.092	3805.98
695.281	3715.87
695.47	3822.36
695.659	3748.64
695.848	3615.52
696.037	3732.25
696.226	3799.84
696.415	3674.91
696.604	3896.09
696.793	3652.38
696.982	3762.97
697.171	3732.25
697.36	3711.77
697.549	3679.01
697.738	3683.1
697.927	3748.64
698.116	3654.43
698.305	3650.33
698.494	3627.81
698.683	3556.13
698.872	3535.65
699.061	3685.15
699.25	3478.3
699.438	3636
699.627	3681.05
699.816	3791.64
700.005	3601.18
700.193	3623.71
700.382	3480.35
700.571	3547.94
700.76	3580.7
700.948	3607.33
701.137	3490.59
701.326	3457.82
701.514	3496.74
701.703	3541.79
701.892	3482.4
702.08	3457.82
702.269	3552.03
702.457	3470.11
702.646	3355.43
702.834	3332.9
703.023	3236.64
703.212	3480.35
703.4	3371.81
703.589	3390.24
703.777	3373.86
703.965	3365.67
704.154	3336.99
704.342	3390.24
704.531	3343.14
704.719	3457.82
704.907	3220.26
705.096	3207.97
705.284	3291.94
705.472	3285.8
705.661	3410.72
705.849	3265.32
706.037	3300.13
706.226	3339.04
706.414	3289.89
706.602	3349.28
706.79	3347.23
706.979	3289.89
707.167	3224.36
707.355	3216.16
707.543	3384.1
707.731	3306.27
707.919	3240.74
708.107	3167.01
708.296	3355.43
708.484	3242.79
708.672	3210.02
708.86	3289.89
709.048	3162.92
709.236	3191.59
709.424	3212.07
709.612	3179.3
709.8	3117.86
709.988	3132.2
710.176	3117.86
710.364	3093.29
710.551	3218.21
710.739	3220.26
710.927	3158.82
711.115	3060.52
711.303	3105.57
711.491	3160.87
711.679	3070.76
711.866	3121.96
712.054	3138.34
712.242	3150.63
712.43	3146.53
712.617	3048.23
712.805	3126.05
712.993	3023.66
713.181	2933.54
713.368	2986.79
713.556	3046.18
713.744	2947.88
713.931	3222.31
714.119	3025.7
714.306	3035.94
714.494	2997.03
714.682	3081
714.869	3083.05
715.057	2994.98
715.244	3027.75
715.432	2970.41
715.619	2872.11
715.807	2994.98
715.994	2945.83
716.182	2947.88
716.369	3031.85
716.556	3105.57
716.744	2908.97
716.931	2964.26
717.119	3017.51
717.306	2898.73
717.493	3040.04
717.681	3009.32
717.868	2779.95
718.055	2925.35
718.242	2913.06
718.43	2945.83
718.617	2872.11
718.804	2863.91
718.991	2870.06
719.179	2994.98
719.366	2876.2
719.553	2857.77
719.74	2798.38
719.927	2908.97
720.114	2892.59
720.301	2800.43
720.488	2775.85
720.676	2857.77
720.863	2808.62
721.05	2874.15
721.237	2857.77
721.424	3027.75
721.611	2741.04
721.798	2868.01
721.985	2859.82
722.172	2775.85
722.358	2734.89
722.545	2822.95
722.732	2730.8
722.919	2822.95
723.106	2827.05
723.293	2814.76
723.48	2640.69
723.667	2798.38
723.853	2720.56
724.04	2577.2
724.227	2773.8
724.414	2822.95
724.6	2726.7
724.787	2726.7
724.974	2847.53
725.161	2808.62
725.347	2628.4
725.534	2687.79
725.72	2765.61
725.907	2792.23
726.094	2732.84
726.28	2679.6
726.467	2718.51
726.653	2655.02
726.84	2724.65
727.027	2624.3
727.213	2679.6
727.4	2749.23
727.586	2726.7
727.773	2599.73
727.959	2765.61
728.145	2675.5
728.332	2597.68
728.518	2534.19
728.705	2601.77
728.891	2648.88
729.077	2761.52
729.264	2558.77
729.45	2646.83
729.636	2798.38
729.823	2659.12
730.009	2691.88
730.195	2575.15
730.382	2577.2
730.568	2583.34
730.754	2626.35
730.94	2685.74
731.126	2595.63
731.313	2667.31
731.499	2577.2
731.685	2616.11
731.871	2560.81
732.057	2652.97
732.243	2591.53
732.429	2708.27
732.615	2603.82
732.801	2489.14
732.987	2636.59
733.173	2587.44
733.359	2519.85
733.545	2650.92
733.731	2585.39
733.917	2630.45
734.103	2607.92
734.289	2683.69
734.475	2454.32
734.661	2536.24
734.847	2530.09
735.033	2571.05
735.219	2417.46
735.404	2562.86
735.59	2585.39
735.776	2437.94
735.962	2464.56
736.148	2630.45
736.333	2538.29
736.519	2407.22
736.705	2462.51
736.89	2435.89
737.076	2470.7
737.262	2446.13
737.447	2507.57
737.633	2358.07
737.819	2394.93
738.004	2388.78
738.19	2415.41
738.375	2372.4
738.561	2427.7
738.747	2372.4
738.932	2419.5
739.118	2405.17
739.303	2335.54
739.489	2388.78
739.674	2308.91
739.859	2437.94
740.045	2399.02
740.23	2353.97
740.416	2270
740.601	2423.6
740.786	2294.58
740.972	2278.19
741.157	2386.74
741.342	2229.04
741.528	2186.04
741.713	2243.38
741.898	2306.87
742.084	2313.01
742.269	2290.48
742.454	2270
742.639	2286.39
742.824	2183.99
743.01	2286.39
743.195	2282.29
743.38	2155.32
743.565	2216.76
743.75	2290.48
743.935	2106.17
744.12	2032.44
744.305	2155.32
744.49	2163.51
744.675	2054.97
744.86	2061.11
745.045	2120.5
745.23	2108.21
745.415	2087.73
745.6	2050.87
745.785	2179.89
745.97	2120.5
746.155	2087.73
746.34	2151.22
746.525	2140.98
746.71	2093.88
746.895	2016.05
747.079	2132.79
747.264	1987.38
747.449	1983.29
747.634	2009.91
747.819	1938.23
748.003	1891.13
748.188	2026.29
748.373	1921.85
748.557	1995.57
748.742	1954.62
748.927	1870.65
749.111	1899.32
749.296	1835.83
749.481	1880.89
749.665	1975.1
749.85	1823.55
750.034	1833.79
750.219	1807.16
750.404	1719.1
750.588	1758.01
750.773	1766.2
750.957	1784.63
751.141	1637.18
751.326	1653.56
751.51	1731.39
751.695	1645.37
751.879	1715
752.064	1672
752.248	1749.82
752.432	1712.96
752.617	1616.7
752.801	1628.99
752.985	1538.88
753.17	1659.71
753.354	1655.61
753.538	1633.08
753.722	1495.87
753.907	1512.25
754.091	1547.07
754.275	1528.64
754.459	1489.73
754.643	1497.92
754.828	1526.59
755.012	1602.36
755.196	1463.1
755.38	1497.92
755.564	1448.77
755.748	1422.14
755.932	1542.97
756.116	1385.28
756.3	1540.93
756.484	1377.09
756.668	1413.95
756.852	1471.29
757.036	1379.14
757.22	1372.99
757.404	1409.86
757.588	1368.9
757.772	1307.46
757.956	1342.27
758.14	1381.18
758.323	1229.63
758.507	1332.03
758.691	1286.98
758.875	1327.94
759.059	1360.7
759.242	1297.22
759.426	1209.15
759.61	1299.27
759.794	1293.12
759.977	1282.88
760.161	1217.35
760.345	1252.16
760.528	1252.16
760.712	1250.11
760.895	1094.47
761.079	1235.78
761.263	1246.02
761.446	1112.9
761.63	1198.92
761.813	1274.69
761.997	1166.15
762.18	1190.72
762.364	1151.81
762.547	1106.76
762.731	1055.56
762.914	1157.96
763.098	1143.62
763.281	1033.03
763.464	1096.52
763.648	1080.13
763.831	1094.47
764.015	1155.91
764.198	1090.37
764.381	1145.67
764.564	1063.75
764.748	1071.94
764.931	1139.52
765.114	998.21
765.297	1092.42
765.481	1071.94
765.664	1024.84
765.847	1030.98
766.03	1047.37
766.213	1012.55
766.397	975.69
766.58	940.87
766.763	965.45
766.946	1024.84
767.129	957.25
767.312	1024.84
767.495	940.87
767.678	975.69
767.861	967.49
768.044	994.12
768.227	959.3
768.41	947.01
768.593	1045.32
768.776	938.82
768.959	1006.41
769.142	904.01
769.324	959.3
769.507	987.97
769.69	932.68
769.873	873.29
770.056	979.78
770.239	949.06
770.421	910.15
770.604	906.06
770.787	965.45
770.97	889.67
771.152	828.23
771.335	910.15
771.518	893.77
771.7	932.68
771.883	949.06
772.066	889.67
772.248	865.1
772.431	897.86
772.613	836.42
772.796	1002.31
772.978	858.95
773.161	955.21
773.343	766.79
773.526	908.1
773.708	783.18
773.891	768.84
774.073	865.1
774.256	725.83
774.438	842.57
774.621	785.23
774.803	858.95
774.985	748.36
775.168	734.03
775.35	758.6
775.532	760.65
775.715	727.88
775.897	723.79
776.079	746.31
776.261	699.21
776.444	817.99
776.626	799.56
776.808	707.4
776.99	756.55
777.173	643.92
777.355	736.07
777.537	695.11
777.719	709.45
777.901	713.55
778.083	725.83
778.265	721.74
778.447	717.64
778.629	693.07
778.811	717.64
778.993	750.41
779.175	742.22
779.357	717.64
779.539	674.64
779.721	684.87
779.903	666.44
780.085	586.57
780.267	596.81
780.449	586.57
780.631	553.8
780.812	721.74
780.994	635.72
781.176	512.85
781.358	637.77
781.54	566.09
781.721	611.15
781.903	553.8
782.085	549.71
782.267	566.09
782.448	555.85
782.63	623.44
782.812	562
782.993	570.19
783.175	457.55
783.357	525.13
783.538	611.15
783.72	494.41
783.901	574.28
784.083	449.36
784.264	514.89
784.446	496.46
784.627	473.93
784.809	553.8
784.99	432.97
785.172	518.99
785.353	539.47
785.535	516.94
785.716	514.89
785.897	383.82
786.079	529.23
786.26	486.22
786.441	500.56
786.623	430.93
786.804	408.4
786.985	441.17
787.167	418.64
787.348	445.26
787.529	475.98
787.71	531.28
787.891	504.65
788.073	430.93
788.254	408.4
788.435	435.02
788.616	461.65
788.797	449.36
788.978	539.47
789.159	463.69
789.34	375.63
789.522	435.02
789.703	349.01
789.884	410.45
790.065	414.54
790.246	398.16
790.427	437.07
790.607	424.78
790.788	389.97
790.969	351.06
791.15	365.39
791.331	359.25
791.512	269.14
791.693	398.16
791.874	334.67
792.054	455.5
792.235	465.74
792.416	320.34
792.597	308.05
792.778	346.96
792.958	389.97
793.139	422.73
793.32	310.1
793.5	281.43
793.681	398.16
793.862	402.26
794.042	367.44
794.223	314.19
794.404	299.86
794.584	338.77
794.765	291.66
794.945	301.9
795.126	332.62
795.306	400.21
795.487	310.1
795.667	260.95
795.848	326.48
796.028	381.78
796.209	328.53
796.389	256.85
796.57	332.62
796.75	338.77
796.93	312.14
797.111	297.81
797.291	283.47
797.471	301.9
797.652	310.1
797.832	291.66
798.012	281.43
798.192	271.19
798.373	222.03
798.553	287.57
798.733	326.48
798.913	260.95
799.093	293.71
799.274	285.52
799.454	316.24
799.634	244.56
799.814	303.95
799.994	269.14
800.174	320.34
800.354	224.08
800.534	181.07
800.714	224.08
800.894	267.09
801.074	308.05
801.254	277.33
801.434	275.28
801.614	234.32
801.794	269.14
801.974	887.62
802.154	242.51
802.334	291.66
802.514	285.52
802.693	258.9
802.873	258.9
803.053	308.05
803.233	217.94
803.413	234.32
803.592	185.17
803.772	203.6
803.952	250.71
804.131	262.99
804.311	254.8
804.491	244.56
804.67	205.65
804.85	174.93
805.03	230.23
805.209	205.65
805.389	267.09
805.568	226.13
805.748	217.94
805.928	254.8
806.107	213.84
806.287	258.9
806.466	209.75
806.646	217.94
806.825	250.71
807.004	201.55
807.184	170.83
807.363	320.34
807.543	234.32
807.722	129.88
807.901	172.88
808.081	219.99
808.26	176.98
808.439	168.79
808.619	252.75
808.798	328.53
808.977	228.18
809.156	250.71
809.336	189.27
809.515	158.55
809.694	209.75
809.873	234.32
810.052	295.76
810.231	195.41
810.411	219.99
810.59	254.8
810.769	152.4
810.948	213.84
811.127	160.59
811.306	193.36
811.485	166.74
811.664	303.95
811.843	160.59
812.022	170.83
812.201	123.73
812.38	193.36
812.559	185.17
812.737	140.12
812.916	158.55
813.095	240.47
813.274	179.03
813.453	209.75
813.632	207.7
813.811	181.07
813.989	78.68
814.168	154.45
814.347	148.31
814.526	174.93
814.704	156.5
814.883	236.37
815.062	156.5
815.24	162.64
815.419	113.49
815.598	138.07
815.776	164.69
815.955	144.21
816.133	148.31
816.312	191.31
816.49	121.68
816.669	193.36
816.847	213.84
817.026	111.44
817.204	226.13
817.383	144.21
817.561	146.26
817.74	164.69
817.918	144.21
818.097	164.69
818.275	205.65
818.453	129.88
818.632	195.41
818.81	179.03
818.988	179.03
819.167	211.79
819.345	160.59
819.523	211.79
819.701	152.4
819.879	105.3
820.058	144.21
820.236	160.59
820.414	17.24
820.592	156.5
820.77	185.17
820.948	123.73
821.127	140.12
821.305	197.46
821.483	164.69
821.661	254.8
821.839	170.83
822.017	95.06
822.195	115.54
822.373	162.64
822.551	115.54
822.729	197.46
822.907	136.02
823.085	164.69
823.262	209.75
823.44	123.73
823.618	127.83
823.796	123.73
823.974	78.68
824.152	58.2
824.329	119.64
824.507	136.02
824.685	164.69
824.863	25.43
825.04	113.49
825.218	144.21
825.396	78.68
825.574	95.06
825.751	103.25
825.929	138.07
826.107	66.39
826.284	150.36
826.462	140.12
826.639	152.4
826.817	47.96
826.994	148.31
827.172	86.87
827.349	164.69
827.527	117.59
827.704	121.68
827.882	113.49
828.059	103.25
828.237	64.34
828.414	127.83
828.591	62.29
828.769	82.77
828.946	103.25
829.124	97.11
829.301	95.06
829.478	60.24
829.655	144.21
829.833	95.06
830.01	60.24
830.187	99.16
830.364	-1.19
830.542	144.21
830.719	121.68
830.896	187.22
831.073	140.12
831.25	31.57
831.427	123.73
831.604	119.64
831.782	88.92
831.959	119.64
832.136	66.39
832.313	115.54
832.49	50
832.667	43.86
832.844	56.15
833.021	127.83
833.198	107.35
833.374	160.59
833.551	111.44
833.728	70.48
833.905	45.91
834.082	103.25
834.259	72.53
834.436	107.35
834.612	113.49
834.789	80.72
834.966	111.44
835.143	136.02
835.319	127.83
835.496	78.68
835.673	64.34
835.85	97.11
836.026	62.29
836.203	111.44
836.38	80.72
836.556	66.39
836.733	23.38
836.909	62.29
837.086	97.11
837.262	72.53
837.439	17.24
837.616	121.68
837.792	99.16
837.968	41.81
838.145	88.92
838.321	45.91
838.498	27.48
838.674	160.59
838.851	74.58
839.027	78.68
839.203	66.39
839.38	97.11
839.556	-11.43
839.732	62.29
839.909	129.88
840.085	-7.34
840.261	31.57
840.437	119.64
840.614	37.72
840.79	95.06
840.966	103.25
841.142	45.91
841.318	25.43
841.494	121.68
841.671	119.64
841.847	117.59
842.023	66.39
842.199	72.53
842.375	93.01
842.551	45.91
842.727	105.3
842.903	148.31
843.079	13.14
843.255	127.83
843.431	21.33
843.607	103.25
843.783	80.72
843.959	21.33
844.134	121.68
844.31	99.16
844.486	111.44
844.662	99.16
844.838	33.62
845.013	80.72
845.189	99.16
845.365	33.62
845.541	23.38
845.716	4.95
845.892	45.91
846.068	-7.34
846.244	64.34
846.419	150.36
846.595	99.16
846.77	37.72
846.946	25.43
847.122	13.14
847.297	64.34
847.473	58.2
847.648	56.15
847.824	74.58
847.999	47.96
848.175	50
848.35	37.72
848.526	97.11
848.701	52.05
848.876	117.59
849.052	95.06
849.227	78.68
849.403	37.72
849.578	45.91
849.753	64.34
849.929	2.9
850.104	-68.78
850.279	90.96
850.454	50
850.63	47.96
850.805	47.96
850.98	29.52
851.155	95.06
851.33	93.01
851.505	52.05
851.681	172.88
851.856	39.76
852.031	109.4
852.206	70.48
852.381	31.57
852.556	58.2
852.731	33.62
852.906	90.96
853.081	88.92
853.256	64.34
853.431	66.39
853.606	78.68
853.781	78.68
853.956	58.2
854.131	29.52
854.305	78.68
854.48	39.76
854.655	27.48
854.83	31.57
855.005	95.06
855.18	80.72
855.354	37.72
855.529	88.92
855.704	21.33
855.879	41.81
856.053	-56.49
856.228	-9.39
856.403	13.14
856.577	129.88
856.752	-7.34
856.926	39.76
857.101	37.72
857.276	80.72
857.45	86.87
857.625	15.19
857.799	54.1
857.974	4.95
858.148	-25.77
858.323	76.63
858.497	27.48
858.672	-23.72
858.846	37.72
859.02	80.72
859.195	21.33
859.369	88.92
859.543	31.57
859.718	-11.43
859.892	74.58
860.066	54.1
860.241	-25.77
860.415	37.72
860.589	4.95
860.763	33.62
860.938	56.15
861.112	64.34
861.286	29.52
861.46	70.48
861.634	62.29
861.808	99.16
861.982	15.19
862.157	31.57
862.331	70.48
862.505	-52.39
862.679	19.29
862.853	109.4
863.027	31.57
863.201	43.86
863.375	-3.24
863.549	-9.39
863.722	-58.54
863.896	131.92
864.07	54.1
864.244	52.05
864.418	31.57
864.592	99.16
864.766	-21.67
864.939	37.72
865.113	-52.39
865.287	4.95
865.461	47.96
865.634	23.38
865.808	11.09
865.982	-3.24
866.156	15.19
866.329	78.68
866.503	37.72
866.676	31.57
866.85	7
867.024	88.92
867.197	7
867.371	13.14
867.544	41.81
867.718	66.39
867.891	95.06
868.065	74.58
868.238	29.52
868.412	-1.19
868.585	21.33
868.759	13.14
868.932	62.29
869.105	-7.34
869.279	-23.72
869.452	-50.35
869.625	58.2
869.799	74.58
869.972	62.29
870.145	25.43
870.319	39.76
870.492	23.38
870.665	66.39
870.838	9.05
871.011	21.33
871.185	50
871.358	90.96
871.531	86.87
871.704	60.24
871.877	21.33
872.05	2.9
872.223	23.38
872.396	9.05
872.569	90.96
872.742	-29.87
872.915	88.92
873.088	13.14
873.261	45.91
873.434	21.33
873.607	119.64
873.78	39.76
873.953	-25.77
874.126	-7.34
874.299	29.52
874.471	25.43
874.644	13.14
874.817	56.15
874.99	70.48
875.163	-21.67
875.335	50
875.508	-3.24
875.681	-9.39
875.853	74.58
876.026	62.29
876.199	-3.24
876.371	29.52
876.544	97.11
876.717	58.2
876.889	-23.72
877.062	-19.63
877.234	-68.78
877.407	37.72
877.579	-36.01
877.752	37.72
877.924	47.96
878.097	-56.49
878.269	-11.43
878.442	21.33
878.614	-11.43
878.786	45.91
878.959	50
879.131	27.48
879.303	9.05
879.476	7
879.648	52.05
879.82	-3.24
879.993	23.38
880.165	-23.72
880.337	-19.63
880.509	41.81
880.681	-54.44
880.854	29.52
881.026	33.62
881.198	80.72
881.37	21.33
881.542	31.57
881.714	15.19
881.886	17.24
882.058	17.24
882.23	54.1
882.402	-33.96
882.574	-19.63
882.746	115.54
882.918	80.72
883.09	47.96
883.262	4.95
883.434	4.95
883.606	-3.24
883.778	31.57
883.95	-25.77
884.122	9.05
884.293	58.2
884.465	54.1
884.637	64.34
884.809	62.29
884.98	78.68
885.152	33.62
885.324	-3.24
885.496	27.48
885.667	-7.34
885.839	35.67
886.011	93.01
886.182	0.85
886.354	19.29
886.525	11.09
886.697	56.15
886.869	29.52
887.04	-3.24
887.212	52.05
887.383	76.63
887.555	72.53
887.726	33.62
887.897	-46.25
888.069	4.95
888.24	54.1
888.412	50
888.583	7
888.754	39.76
888.926	47.96
889.097	-25.77
889.268	19.29
889.44	15.19
889.611	-62.63
889.782	-19.63
889.953	-15.53
890.125	17.24
890.296	-36.01
890.467	68.44
890.638	-25.77
890.809	11.09
890.98	52.05
891.151	43.86
891.323	25.43
891.494	17.24
891.665	25.43
891.836	90.96
892.007	70.48
892.178	25.43
892.349	-19.63
892.52	13.14
892.691	-36.01
892.862	-9.39
893.032	-3.24
893.203	27.48
893.374	-15.53
893.545	72.53
893.716	4.95
893.887	35.67
894.057	-44.2
894.228	-31.91
894.399	31.57
894.57	154.45
894.74	-42.15
894.911	-58.54
895.082	39.76
895.253	-23.72
895.423	4.95
895.594	-11.43
895.764	-1.19
895.935	47.96
896.106	119.64
896.276	15.19
896.447	29.52
896.617	47.96
896.788	27.48
896.958	56.15
897.129	68.44
897.299	17.24
897.47	37.72
897.64	97.11
897.81	2.9
897.981	-25.77
898.151	-50.35
898.322	70.48
898.492	43.86
898.662	50
898.832	66.39
899.003	37.72
899.173	7
899.343	70.48
899.513	33.62
