Data from USB4F104151__143__14-19-18-912.txt Node

Date: Thu Mar 13 14:19:18 EDT 2025
User: louis
Spectrometer: USB4F10415
Trigger mode: 4
Integration Time (sec): 2.000000E-2
Scans to average: 1
Electric dark correction enabled: true
Nonlinearity correction enabled: false
Boxcar width: 0
XAxis mode: Wavelengths
Number of Pixels in Spectrum: 3648
>>>>>Begin Spectral Data<<<<<
178.204	-71.51
178.424	-71.51
178.644	-71.51
178.864	-145.24
179.084	-141.14
179.304	-18.26
179.524	22.7
179.744	-79.7
179.964	47.27
180.184	-26.45
180.404	-1.88
180.624	14.51
180.844	-1.88
181.064	-28.5
181.283	67.75
181.503	-30.55
181.723	34.99
181.943	-14.17
182.163	53.42
182.383	34.99
182.602	53.42
182.822	12.46
183.042	61.61
183.262	-24.4
183.482	22.7
183.701	26.79
183.921	2.22
184.141	-46.93
184.361	43.18
184.58	0.17
184.8	71.85
185.02	-5.97
185.239	-5.97
185.459	-20.31
185.679	125.1
185.898	55.47
186.118	-38.74
186.338	-1.88
186.557	43.18
186.777	41.13
186.997	26.79
187.216	-55.12
187.436	55.47
187.655	26.79
187.875	12.46
188.095	45.23
188.314	49.32
188.534	65.71
188.753	-22.36
188.973	51.37
189.192	53.42
189.412	47.27
189.631	10.41
189.851	67.75
190.07	-5.97
190.29	-14.17
190.509	-30.55
190.729	-22.36
190.948	12.46
191.168	114.86
191.387	-63.32
191.607	67.75
191.826	18.6
192.045	34.99
192.265	22.7
192.484	39.08
192.704	67.75
192.923	12.46
193.142	63.66
193.362	10.41
193.581	-1.88
193.8	30.89
194.02	84.14
194.239	-24.4
194.458	18.6
194.678	34.99
194.897	67.75
195.116	0.17
195.335	-3.93
195.555	-18.26
195.774	43.18
195.993	24.75
196.212	10.41
196.432	65.71
196.651	18.6
196.87	-38.74
197.089	110.76
197.308	75.95
197.528	2.22
197.747	-22.36
197.966	67.75
198.185	65.71
198.404	-5.97
198.623	51.37
198.842	96.43
199.062	-30.55
199.281	30.89
199.5	45.23
199.719	80.04
199.938	71.85
200.157	92.33
200.376	82.09
200.595	69.8
200.814	26.79
201.033	75.95
201.252	34.99
201.471	-12.12
201.69	-3.93
201.909	71.85
202.128	37.03
202.347	47.27
202.566	53.42
202.785	28.84
203.004	8.36
203.223	98.47
203.442	8.36
203.661	4.27
203.879	43.18
204.098	104.62
204.317	59.56
204.536	-5.97
204.755	-3.93
204.974	20.65
205.193	65.71
205.411	26.79
205.63	0.17
205.849	-14.17
206.068	51.37
206.287	6.31
206.505	141.48
206.724	2.22
206.943	4.27
207.162	10.41
207.381	26.79
207.599	-1.88
207.818	20.65
208.037	4.27
208.255	37.03
208.474	77.99
208.693	57.51
208.911	10.41
209.13	43.18
209.349	30.89
209.567	26.79
209.786	69.8
210.005	10.41
210.223	80.04
210.442	-46.93
210.661	14.51
210.879	73.9
211.098	14.51
211.316	26.79
211.535	63.66
211.753	20.65
211.972	-36.69
212.191	84.14
212.409	37.03
212.628	73.9
212.846	47.27
213.065	2.22
213.283	10.41
213.502	30.89
213.72	59.56
213.938	47.27
214.157	34.99
214.375	80.04
214.594	34.99
214.812	59.56
215.031	-3.93
215.249	8.36
215.467	-14.17
215.686	71.85
215.904	10.41
216.122	67.75
216.341	47.27
216.559	-18.26
216.778	51.37
216.996	30.89
217.214	2.22
217.432	-14.17
217.651	43.18
217.869	37.03
218.087	133.29
218.306	12.46
218.524	59.56
218.742	-98.13
218.96	53.42
219.179	-30.55
219.397	51.37
219.615	108.71
219.833	55.47
220.051	26.79
220.27	61.61
220.488	45.23
220.706	55.47
220.924	26.79
221.142	-12.12
221.36	-53.08
221.578	86.19
221.796	6.31
222.015	-18.26
222.233	65.71
222.451	92.33
222.669	14.51
222.887	34.99
223.105	-10.07
223.323	-22.36
223.541	2.22
223.759	26.79
223.977	-20.31
224.195	43.18
224.413	-26.45
224.631	55.47
224.849	92.33
225.067	102.57
225.285	-3.93
225.503	61.61
225.721	-22.36
225.939	-18.26
226.157	59.56
226.375	110.76
226.592	20.65
226.81	45.23
227.028	39.08
227.246	57.51
227.464	-20.31
227.682	26.79
227.9	43.18
228.117	34.99
228.335	100.52
228.553	20.65
228.771	63.66
228.989	6.31
229.206	86.19
229.424	10.41
229.642	14.51
229.86	-24.4
230.077	8.36
230.295	-1.88
230.513	125.1
230.731	10.41
230.948	75.95
231.166	4.27
231.384	49.32
231.601	10.41
231.819	102.57
232.037	-26.45
232.254	-53.08
232.472	53.42
232.689	-24.4
232.907	39.08
233.125	18.6
233.342	-26.45
233.56	71.85
233.777	2.22
233.995	43.18
234.213	37.03
234.43	26.79
234.648	-22.36
234.865	55.47
235.083	37.03
235.3	28.84
235.518	92.33
235.735	26.79
235.953	110.76
236.17	67.75
236.388	20.65
236.605	57.51
236.822	47.27
237.04	34.99
237.257	84.14
237.475	-14.17
237.692	59.56
237.909	4.27
238.127	4.27
238.344	14.51
238.562	65.71
238.779	28.84
238.996	-1.88
239.214	28.84
239.431	86.19
239.648	16.55
239.865	71.85
240.083	67.75
240.3	-42.84
240.517	-1.88
240.735	84.14
240.952	71.85
241.169	69.8
241.386	32.94
241.603	30.89
241.821	30.89
242.038	-30.55
242.255	20.65
242.472	0.17
242.689	24.75
242.907	2.22
243.124	16.55
243.341	12.46
243.558	84.14
243.775	67.75
243.992	53.42
244.209	-1.88
244.426	90.28
244.643	37.03
244.86	28.84
245.078	32.94
245.295	69.8
245.512	10.41
245.729	84.14
245.946	8.36
246.163	26.79
246.38	22.7
246.597	43.18
246.814	41.13
247.031	84.14
247.248	14.51
247.464	59.56
247.681	34.99
247.898	92.33
248.115	-10.07
248.332	30.89
248.549	73.9
248.766	110.76
248.983	30.89
249.2	-55.12
249.417	4.27
249.633	-53.08
249.85	82.09
250.067	-20.31
250.284	59.56
250.501	51.37
250.717	43.18
250.934	34.99
251.151	4.27
251.368	-53.08
251.585	75.95
251.801	-12.12
252.018	34.99
252.235	26.79
252.451	22.7
252.668	39.08
252.885	80.04
253.102	-5.97
253.318	41.13
253.535	69.8
253.752	55.47
253.968	20.65
254.185	-38.74
254.401	-12.12
254.618	18.6
254.835	18.6
255.051	51.37
255.268	24.75
255.484	4.27
255.701	-38.74
255.917	94.38
256.134	-53.08
256.351	26.79
256.567	18.6
256.784	77.99
257	-20.31
257.217	30.89
257.433	131.24
257.65	16.55
257.866	12.46
258.082	-32.6
258.299	-14.17
258.515	77.99
258.732	24.75
258.948	22.7
259.165	-14.17
259.381	2.22
259.597	61.61
259.814	12.46
260.03	-14.17
260.246	2.22
260.463	47.27
260.679	16.55
260.895	37.03
261.112	-18.26
261.328	26.79
261.544	-14.17
261.761	88.23
261.977	-5.97
262.193	-14.17
262.409	26.79
262.626	-22.36
262.842	-71.51
263.058	10.41
263.274	43.18
263.49	10.41
263.707	-14.17
263.923	59.56
264.139	-34.64
264.355	2.22
264.571	71.85
264.787	73.9
265.004	18.6
265.22	55.47
265.436	14.51
265.652	32.94
265.868	-14.17
266.084	0.17
266.3	53.42
266.516	-67.41
266.732	137.38
266.948	37.03
267.164	59.56
267.38	10.41
267.596	39.08
267.812	28.84
268.028	53.42
268.244	10.41
268.46	71.85
268.676	61.61
268.892	108.71
269.108	37.03
269.324	-61.27
269.54	47.27
269.756	69.8
269.972	63.66
270.188	41.13
270.403	6.31
270.619	53.42
270.835	43.18
271.051	-38.74
271.267	28.84
271.483	24.75
271.698	18.6
271.914	84.14
272.13	51.37
272.346	53.42
272.562	2.22
272.777	82.09
272.993	-28.5
273.209	32.94
273.425	2.22
273.64	-1.88
273.856	98.47
274.072	-5.97
274.287	45.23
274.503	94.38
274.719	26.79
274.934	43.18
275.15	-26.45
275.366	-12.12
275.581	-5.97
275.797	2.22
276.012	-20.31
276.228	43.18
276.444	-28.5
276.659	69.8
276.875	14.51
277.09	22.7
277.306	6.31
277.521	75.95
277.737	39.08
277.952	116.9
278.168	45.23
278.383	-8.02
278.599	-5.97
278.814	41.13
279.03	47.27
279.245	39.08
279.461	6.31
279.676	59.56
279.892	57.51
280.107	49.32
280.322	41.13
280.538	10.41
280.753	-20.31
280.969	28.84
281.184	108.71
281.399	92.33
281.615	86.19
281.83	53.42
282.045	-32.6
282.26	53.42
282.476	45.23
282.691	-20.31
282.906	-57.17
283.122	71.85
283.337	34.99
283.552	37.03
283.767	63.66
283.983	59.56
284.198	-16.21
284.413	102.57
284.628	-14.17
284.843	28.84
285.058	26.79
285.274	71.85
285.489	-18.26
285.704	12.46
285.919	18.6
286.134	34.99
286.349	-1.88
286.564	51.37
286.779	8.36
286.995	41.13
287.21	10.41
287.425	63.66
287.64	-12.12
287.855	6.31
288.07	-22.36
288.285	90.28
288.5	80.04
288.715	4.27
288.93	51.37
289.145	41.13
289.36	84.14
289.575	2.22
289.79	-5.97
290.004	-22.36
290.219	104.62
290.434	26.79
290.649	37.03
290.864	37.03
291.079	2.22
291.294	20.65
291.509	104.62
291.724	43.18
291.938	18.6
292.153	61.61
292.368	-10.07
292.583	-16.21
292.798	-8.02
293.012	45.23
293.227	34.99
293.442	26.79
293.657	82.09
293.871	88.23
294.086	73.9
294.301	75.95
294.516	92.33
294.73	4.27
294.945	53.42
295.16	-10.07
295.374	22.7
295.589	30.89
295.804	12.46
296.018	-46.93
296.233	-1.88
296.447	37.03
296.662	67.75
296.877	-40.79
297.091	53.42
297.306	53.42
297.52	2.22
297.735	47.27
297.949	55.47
298.164	26.79
298.378	-51.03
298.593	82.09
298.807	18.6
299.022	43.18
299.236	55.47
299.451	112.81
299.665	51.37
299.88	-8.02
300.094	39.08
300.309	-5.97
300.523	75.95
300.737	4.27
300.952	20.65
301.166	96.43
301.381	-5.97
301.595	26.79
301.809	39.08
302.024	-26.45
302.238	12.46
302.452	39.08
302.667	26.79
302.881	43.18
303.095	43.18
303.309	-55.12
303.524	53.42
303.738	-46.93
303.952	-1.88
304.166	53.42
304.381	-5.97
304.595	55.47
304.809	59.56
305.023	96.43
305.237	28.84
305.452	39.08
305.666	10.41
305.88	51.37
306.094	2.22
306.308	39.08
306.522	30.89
306.736	10.41
306.95	34.99
307.164	73.9
307.379	88.23
307.593	116.9
307.807	-3.93
308.021	2.22
308.235	102.57
308.449	18.6
308.663	18.6
308.877	37.03
309.091	-5.97
309.305	34.99
309.519	-51.03
309.733	135.34
309.947	24.75
310.161	6.31
310.374	34.99
310.588	94.38
310.802	43.18
311.016	75.95
311.23	22.7
311.444	125.1
311.658	2.22
311.872	-8.02
312.085	20.65
312.299	37.03
312.513	-32.6
312.727	30.89
312.941	10.41
313.154	-12.12
313.368	84.14
313.582	34.99
313.796	26.79
314.009	47.27
314.223	43.18
314.437	-3.93
314.651	202.92
314.864	26.79
315.078	39.08
315.292	-5.97
315.505	53.42
315.719	14.51
315.933	2.22
316.146	104.62
316.36	8.36
316.573	14.51
316.787	-28.5
317.001	12.46
317.214	30.89
317.428	67.75
317.641	-53.08
317.855	-5.97
318.068	77.99
318.282	-10.07
318.495	20.65
318.709	67.75
318.922	-34.64
319.136	53.42
319.349	26.79
319.563	-20.31
319.776	75.95
319.99	39.08
320.203	59.56
320.417	14.51
320.63	41.13
320.843	28.84
321.057	2.22
321.27	-22.36
321.483	-1.88
321.697	61.61
321.91	-1.88
322.124	43.18
322.337	39.08
322.55	102.57
322.763	59.56
322.977	94.38
323.19	100.52
323.403	77.99
323.617	100.52
323.83	51.37
324.043	12.46
324.256	12.46
324.469	-38.74
324.683	6.31
324.896	63.66
325.109	-12.12
325.322	-18.26
325.535	4.27
325.748	45.23
325.962	34.99
326.175	84.14
326.388	26.79
326.601	18.6
326.814	45.23
327.027	4.27
327.24	125.1
327.453	12.46
327.666	75.95
327.879	55.47
328.092	45.23
328.305	6.31
328.518	20.65
328.731	34.99
328.944	69.8
329.157	90.28
329.37	61.61
329.583	10.41
329.796	67.75
330.009	20.65
330.222	26.79
330.435	73.9
330.648	39.08
330.861	80.04
331.073	2.22
331.286	-20.31
331.499	88.23
331.712	-26.45
331.925	59.56
332.138	-32.6
332.35	28.84
332.563	18.6
332.776	18.6
332.989	-65.36
333.202	69.8
333.414	28.84
333.627	18.6
333.84	2.22
334.053	47.27
334.265	61.61
334.478	63.66
334.691	59.56
334.903	51.37
335.116	-5.97
335.329	26.79
335.541	39.08
335.754	106.67
335.966	18.6
336.179	47.27
336.392	57.51
336.604	75.95
336.817	63.66
337.029	129.19
337.242	45.23
337.454	108.71
337.667	53.42
337.88	92.33
338.092	-18.26
338.305	-22.36
338.517	10.41
338.729	20.65
338.942	16.55
339.154	12.46
339.367	-36.69
339.579	65.71
339.792	53.42
340.004	116.9
340.217	47.27
340.429	51.37
340.641	61.61
340.854	26.79
341.066	18.6
341.278	18.6
341.491	37.03
341.703	77.99
341.915	-10.07
342.128	116.9
342.34	-10.07
342.552	18.6
342.764	37.03
342.977	53.42
343.189	75.95
343.401	-22.36
343.613	14.51
343.826	-55.12
344.038	10.41
344.25	59.56
344.462	63.66
344.674	69.8
344.886	59.56
345.099	96.43
345.311	69.8
345.523	47.27
345.735	-22.36
345.947	26.79
346.159	80.04
346.371	41.13
346.583	49.32
346.795	69.8
347.007	51.37
347.219	18.6
347.431	18.6
347.643	55.47
347.855	43.18
348.067	45.23
348.279	-71.51
348.491	28.84
348.703	34.99
348.915	-36.69
349.127	8.36
349.339	108.71
349.551	-5.97
349.763	69.8
349.975	22.7
350.187	59.56
350.399	190.63
350.61	61.61
350.822	45.23
351.034	22.7
351.246	59.56
351.458	49.32
351.669	63.66
351.881	84.14
352.093	30.89
352.305	-1.88
352.517	141.48
352.728	86.19
352.94	63.66
353.152	4.27
353.363	-22.36
353.575	153.77
353.787	59.56
353.999	43.18
354.21	22.7
354.422	26.79
354.633	12.46
354.845	18.6
355.057	-22.36
355.268	43.18
355.48	96.43
355.692	-18.26
355.903	4.27
356.115	37.03
356.326	16.55
356.538	75.95
356.749	47.27
356.961	116.9
357.172	-44.88
357.384	-36.69
357.595	86.19
357.807	53.42
358.018	24.75
358.23	53.42
358.441	75.95
358.653	34.99
358.864	67.75
359.075	96.43
359.287	14.51
359.498	104.62
359.709	75.95
359.921	80.04
360.132	30.89
360.344	39.08
360.555	-34.64
360.766	110.76
360.977	43.18
361.189	51.37
361.4	-5.97
361.611	139.43
361.823	10.41
362.034	51.37
362.245	10.41
362.456	26.79
362.667	22.7
362.879	71.85
363.09	14.51
363.301	57.51
363.512	2.22
363.723	22.7
363.935	8.36
364.146	4.27
364.357	20.65
364.568	16.55
364.779	-44.88
364.99	86.19
365.201	30.89
365.412	116.9
365.623	-77.65
365.834	32.94
366.045	26.79
366.256	69.8
366.467	80.04
366.678	26.79
366.889	12.46
367.1	92.33
367.311	90.28
367.522	59.56
367.733	77.99
367.944	102.57
368.155	86.19
368.366	20.65
368.577	112.81
368.788	71.85
368.999	24.75
369.209	75.95
369.42	43.18
369.631	123.05
369.842	49.32
370.053	34.99
370.264	53.42
370.474	-3.93
370.685	53.42
370.896	37.03
371.107	110.76
371.317	47.27
371.528	61.61
371.739	75.95
371.95	-3.93
372.16	59.56
372.371	75.95
372.582	100.52
372.792	37.03
373.003	125.1
373.214	77.99
373.424	145.58
373.635	51.37
373.846	102.57
374.056	22.7
374.267	96.43
374.477	71.85
374.688	41.13
374.898	20.65
375.109	53.42
375.319	53.42
375.53	151.72
375.74	96.43
375.951	94.38
376.161	55.47
376.372	75.95
376.582	20.65
376.793	-1.88
377.003	37.03
377.214	55.47
377.424	129.19
377.635	71.85
377.845	28.84
378.055	110.76
378.266	4.27
378.476	102.57
378.686	10.41
378.897	77.99
379.107	131.24
379.317	67.75
379.528	90.28
379.738	49.32
379.948	10.41
380.158	82.09
380.369	59.56
380.579	92.33
380.789	67.75
380.999	118.95
381.21	84.14
381.42	65.71
381.63	69.8
381.84	94.38
382.05	39.08
382.261	77.99
382.471	59.56
382.681	-1.88
382.891	77.99
383.101	57.51
383.311	69.8
383.521	26.79
383.731	2.22
383.941	53.42
384.151	100.52
384.361	59.56
384.571	-32.6
384.781	45.23
384.991	94.38
385.201	170.15
385.411	77.99
385.621	80.04
385.831	51.37
386.041	116.9
386.251	75.95
386.461	127.14
386.671	6.31
386.881	-20.31
387.091	104.62
387.301	84.14
387.511	129.19
387.72	18.6
387.93	69.8
388.14	65.71
388.35	108.71
388.56	67.75
388.769	61.61
388.979	22.7
389.189	-24.4
389.399	63.66
389.609	84.14
389.818	47.27
390.028	-12.12
390.238	104.62
390.447	24.75
390.657	4.27
390.867	96.43
391.076	51.37
391.286	43.18
391.496	94.38
391.705	71.85
391.915	153.77
392.125	133.29
392.334	34.99
392.544	59.56
392.753	-22.36
392.963	-18.26
393.172	47.27
393.382	61.61
393.591	114.86
393.801	94.38
394.01	108.71
394.22	55.47
394.429	96.43
394.639	18.6
394.848	104.62
395.058	43.18
395.267	55.47
395.477	30.89
395.686	118.95
395.895	102.57
396.105	92.33
396.314	75.95
396.524	69.8
396.733	53.42
396.942	190.63
397.152	106.67
397.361	43.18
397.57	92.33
397.78	71.85
397.989	26.79
398.198	96.43
398.407	118.95
398.617	75.95
398.826	41.13
399.035	135.34
399.244	96.43
399.453	116.9
399.663	127.14
399.872	84.14
400.081	80.04
400.29	188.58
400.499	125.1
400.708	102.57
400.917	59.56
401.127	94.38
401.336	47.27
401.545	43.18
401.754	135.34
401.963	69.8
402.172	45.23
402.381	94.38
402.59	108.71
402.799	100.52
403.008	121
403.217	209.06
403.426	125.1
403.635	84.14
403.844	106.67
404.053	182.44
404.262	141.48
404.471	209.06
404.68	129.19
404.888	94.38
405.097	61.61
405.306	116.9
405.515	151.72
405.724	204.97
405.933	190.63
406.142	196.78
406.35	141.48
406.559	192.68
406.768	155.82
406.977	207.02
407.185	256.17
407.394	174.25
407.603	174.25
407.812	161.96
408.02	139.43
408.229	209.06
408.438	88.23
408.646	157.86
408.855	202.92
409.064	184.49
409.272	159.91
409.481	241.83
409.69	198.82
409.898	200.87
410.107	233.64
410.315	260.26
410.524	266.41
410.733	321.7
410.941	293.03
411.15	286.89
411.358	290.98
411.567	356.52
411.775	307.37
411.984	266.41
412.192	372.9
412.401	362.66
412.609	293.03
412.818	381.09
413.026	317.61
413.234	377
413.443	368.81
413.651	405.67
413.86	411.81
414.068	487.59
414.276	440.48
414.485	469.16
414.693	477.35
414.901	530.59
415.11	510.11
415.318	499.88
415.526	592.03
415.734	659.62
415.943	604.32
416.151	606.37
416.359	725.15
416.567	610.47
416.776	688.29
416.984	819.36
417.192	813.21
417.4	700.58
417.608	694.43
417.817	706.72
418.025	888.99
418.233	866.46
418.441	886.94
418.649	886.94
418.857	891.04
419.065	968.86
419.273	866.46
419.481	1142.94
419.689	1095.83
419.897	1056.92
420.105	1079.45
420.313	1095.83
420.521	1249.43
420.729	1310.87
420.937	1331.35
421.145	1134.75
421.353	1325.21
421.561	1443.99
421.769	1489.04
421.977	1536.15
422.185	1527.96
422.393	1659.03
422.601	1738.9
422.809	1718.42
423.017	1771.66
423.224	1714.32
423.432	1906.83
423.64	1853.58
423.848	1964.17
424.056	2074.76
424.263	2160.78
424.471	2078.86
424.679	2209.93
424.887	2281.61
425.094	2365.57
425.302	2285.7
425.51	2398.34
425.718	2547.84
425.925	2486.4
426.133	2726.02
426.341	2855.04
426.548	2869.37
426.756	2924.67
426.964	2984.06
427.171	2988.16
427.379	3246.2
427.586	3264.63
427.794	3340.41
428.001	3635.32
428.209	3528.82
428.417	3526.77
428.624	3876.98
428.832	3809.39
429.039	3926.13
429.247	3790.96
429.454	4192.36
429.662	4403.3
429.869	4092.01
430.076	4524.13
430.284	4393.06
430.491	4538.47
430.699	4825.19
430.906	4821.09
431.114	4767.84
431.321	5099.61
431.528	5109.85
431.736	5384.28
431.943	5664.85
432.15	5550.17
432.358	5613.65
432.565	5967.95
432.772	5754.96
432.979	6223.95
433.187	6176.84
433.394	6246.48
433.601	6862.91
433.808	6828.1
434.016	6768.71
434.223	6942.78
434.43	7360.57
434.637	7309.37
434.844	7686.2
435.052	7893.04
435.259	7698.49
435.466	7895.09
435.673	7710.77
435.88	8319.02
436.087	8857.64
436.294	8900.64
436.501	8499.24
436.708	8671.27
436.915	9127.97
437.122	9529.37
437.329	9414.68
437.537	9717.78
437.743	9951.25
437.95	9644.06
438.157	9957.39
438.364	10311.69
438.571	10383.37
438.778	10516.49
438.985	11517.95
439.192	11192.32
439.399	11628.54
439.606	11194.37
439.813	11716.6
440.02	12388.33
440.227	12185.58
440.433	12179.44
440.64	12681.19
440.847	12437.48
441.054	12675.05
441.261	13404.13
441.467	13596.64
441.674	13783
441.881	14286.8
442.088	14315.47
442.294	14014.42
442.501	14600.14
442.708	14708.68
442.914	15484.86
443.121	15943.61
443.328	15556.54
443.534	16512.94
443.741	16021.43
443.948	16084.92
444.154	17158.05
444.361	16695.21
444.568	16920.49
444.774	17088.42
444.981	17235.88
445.187	17907.61
445.394	18655.12
445.6	18188.18
445.807	19980.15
446.013	19189.64
446.22	19412.87
446.426	20086.65
446.633	20680.56
446.839	21180.26
447.046	20332.4
447.252	21473.12
447.459	21348.2
447.665	21518.18
447.871	22263.64
448.078	23449.41
448.284	22036.31
448.491	22767.44
448.697	23779.14
448.903	24080.19
449.11	24188.73
449.316	23813.95
449.522	23762.75
449.728	24610.61
449.935	24868.66
450.141	25032.49
450.347	25646.88
450.553	24944.43
450.76	25059.12
450.966	25868.06
451.172	25704.23
451.378	26380.06
451.584	25933.6
451.791	26441.5
451.997	26418.97
452.203	26844.95
452.409	26865.42
452.615	26746.64
452.821	25753.38
453.027	25474.85
453.233	26760.98
453.44	26005.28
453.646	26177.31
453.852	26066.72
454.058	26588.95
454.264	25747.23
454.47	26160.92
454.676	26091.29
454.882	27102.99
455.088	24301.37
455.294	24543.03
455.5	25093.93
455.705	25597.73
455.911	24393.53
456.117	24045.37
456.323	23334.73
456.529	22298.45
456.735	23404.36
456.941	22767.44
457.147	22781.78
457.352	21989.21
457.558	21647.2
457.764	21452.64
457.97	21200.74
458.176	20660.08
458.381	20778.86
458.587	19842.94
458.793	19978.11
458.999	18872.2
459.204	20322.16
459.41	19896.19
459.616	18513.81
459.821	18337.68
460.027	18284.44
460.233	18020.25
460.438	17057.7
460.644	17125.29
460.85	16336.82
461.055	16349.11
461.261	15994.81
461.466	14956.49
461.672	14626.76
461.878	15603.64
462.083	14374.86
462.289	14280.66
462.494	14180.31
462.7	13527
462.905	13498.33
463.111	13627.35
463.316	13660.12
463.522	13180.9
463.727	13158.37
463.932	13340.64
464.138	13207.52
464.343	12947.43
464.549	12716.01
464.754	13309.92
464.959	12980.2
465.165	12793.83
465.37	12359.66
465.575	12369.9
465.781	12740.58
465.986	12961.76
466.191	12138.48
466.397	12113.91
466.602	11272.19
466.807	11765.75
467.012	11718.65
467.218	11931.64
467.423	11655.16
467.628	11634.68
467.833	12074.99
468.038	11581.43
468.244	11331.58
468.449	11831.29
468.654	11364.35
468.859	11470.84
469.064	11358.21
469.269	10647.56
469.474	11024.39
469.679	11177.98
469.885	10790.92
470.09	11087.87
470.295	10891.27
470.5	10600.46
470.705	10680.33
470.91	10321.93
471.115	10205.2
471.32	10457.1
471.525	10352.65
471.73	10270.73
471.935	10145.81
472.139	9766.93
472.344	9930.77
472.549	9902.1
472.754	9773.08
472.959	9515.03
473.164	9228.32
473.369	9390.11
473.574	9580.57
473.778	9275.42
473.983	9488.41
474.188	9365.53
474.393	8998.95
474.598	9062.43
474.802	8898.59
475.007	8902.69
475.212	8861.73
475.417	8478.76
475.621	8636.45
475.826	8572.97
476.031	8476.71
476.235	8343.6
476.44	8292.4
476.645	8230.96
476.849	8108.08
477.054	8120.37
477.259	8044.59
477.463	7899.19
477.668	7901.23
477.872	7804.98
478.077	7868.47
478.282	7553.08
478.486	7555.13
478.691	7563.32
478.895	7223.36
479.1	7430.2
479.304	7495.74
479.509	7120.96
479.713	7413.82
479.918	7096.38
480.122	6903.87
480.326	7194.68
480.531	7123.01
480.735	7030.85
480.94	7049.28
481.144	7286.84
481.348	6678.6
481.553	6985.79
481.757	6803.52
481.961	6903.87
482.166	6975.55
482.37	6891.59
482.574	6813.76
482.778	6621.25
482.983	7022.66
483.187	7041.09
483.391	6842.43
483.595	6883.39
483.8	6654.02
484.004	6950.98
484.208	6852.67
484.412	6682.69
484.616	6737.99
484.821	6813.76
485.025	6717.51
485.229	6838.34
485.433	6893.63
485.637	6826.05
485.841	6596.68
486.045	6891.59
486.249	6809.67
486.453	6674.5
486.657	6860.87
486.861	6824
487.065	6731.84
487.269	6953.02
487.473	6692.93
487.677	6989.89
487.881	7086.14
488.085	6797.38
488.289	6821.95
488.493	6793.28
488.697	6953.02
488.901	6762.56
489.105	6688.84
489.309	6895.68
489.512	6891.59
489.716	7041.09
489.92	6793.28
490.124	6877.25
490.328	6989.89
490.531	6854.72
490.735	7125.05
490.939	7145.53
491.143	6924.35
491.346	6957.12
491.55	7014.46
491.754	7039.04
491.958	7186.49
492.161	7120.96
492.365	7161.92
492.569	7211.07
492.772	7129.15
492.976	7182.4
493.18	7299.13
493.383	7465.02
493.587	7352.38
493.79	7366.71
493.994	7344.19
494.197	7475.26
494.401	7475.26
494.605	7651.38
494.808	7647.29
495.012	7612.47
495.215	7688.25
495.419	7665.72
495.622	7718.96
495.825	7800.88
496.029	7788.6
496.232	7993.39
496.436	8017.97
496.639	8280.11
496.843	8161.33
497.046	8251.44
497.249	8241.2
497.453	8288.3
497.656	8491.05
497.859	8501.29
498.063	8595.5
498.266	8761.38
498.469	8800.29
498.673	8788
498.876	8898.59
499.079	8910.88
499.282	9279.52
499.485	9252.89
499.689	9363.48
499.892	9361.44
500.095	9480.22
500.298	9758.74
500.501	9586.71
500.705	9857.04
500.908	10088.46
501.111	10055.7
501.314	9973.78
501.517	10188.82
501.72	10373.13
501.923	10307.6
502.126	10432.52
502.329	10698.76
502.532	10975.24
502.735	10790.92
502.938	11163.65
503.141	11216.9
503.344	11446.27
503.547	11151.36
503.75	11397.12
503.953	11554.81
504.156	11556.86
504.359	11915.25
504.562	11851.77
504.765	12144.63
504.968	12351.47
505.17	12378.09
505.373	12378.09
505.576	12740.58
505.779	12730.34
505.982	12759.02
506.185	12963.81
506.387	13172.71
506.59	13035.49
506.793	13440.99
506.996	13434.85
507.198	13694.94
507.401	13492.19
507.604	13860.82
507.807	14006.23
508.009	14284.75
508.212	14354.38
508.415	14600.14
508.617	14706.63
508.82	14825.42
509.022	14759.88
509.225	15030.21
509.428	15267.78
509.63	15351.74
509.833	15310.79
510.035	15536.06
510.238	15708.09
510.44	16033.72
510.643	15974.33
510.845	16482.22
511.048	16170.93
511.25	16760.75
511.453	16560.05
511.655	17139.62
511.858	17016.74
512.06	17100.71
512.262	17188.77
512.465	17151.91
512.667	17438.62
512.87	17711
513.072	17741.72
513.274	18124.69
513.477	18595.73
513.679	18325.4
513.881	18544.53
514.084	18876.3
514.286	18952.07
514.488	18847.63
514.69	19828.6
514.893	19476.35
515.095	19609.47
515.297	19750.78
515.499	19894.14
515.701	20100.98
515.904	20490.1
516.106	20893.55
516.308	20565.87
516.51	20973.42
516.712	20883.31
516.914	21069.67
517.116	21383.01
517.318	21337.96
517.52	21772.13
517.722	21708.64
517.925	22251.35
518.127	22390.61
518.329	22619.99
518.531	22652.75
518.733	22691.66
518.935	23310.15
519.136	23199.56
519.338	23592.77
519.54	23336.77
519.742	23934.78
519.944	23932.73
520.146	24252.22
520.348	24405.81
520.55	24528.69
520.752	24708.91
520.954	24882.99
521.155	24725.3
521.357	25370.41
521.559	25315.11
521.761	25896.74
521.963	25306.92
522.164	25827.1
522.366	26072.86
522.568	26480.41
522.77	26545.94
522.971	26990.35
523.173	26713.88
523.375	27029.26
523.576	26947.34
523.778	27172.62
523.98	27338.51
524.181	27481.86
524.383	27746.05
524.584	27938.56
524.786	27752.2
524.988	27612.93
525.189	28239.61
525.391	28288.76
525.592	28815.09
525.794	28565.24
525.995	28696.31
526.197	28843.76
526.398	28780.28
526.6	29087.47
526.801	29226.73
527.003	29261.55
527.204	29449.96
527.406	29566.7
527.607	29507.3
527.808	29972.19
528.01	29116.14
528.211	29456.11
528.412	30281.44
528.614	30129.89
528.815	30136.03
529.016	30494.43
529.218	30054.11
529.419	30164.7
529.62	30381.79
529.822	30295.77
530.023	30478.04
530.224	30418.65
530.425	30605.02
530.626	30039.78
530.828	30492.38
531.029	31182.54
531.23	30648.02
531.431	31137.49
531.632	30748.37
531.833	30820.05
532.035	30987.99
532.236	31035.09
532.437	31317.71
532.638	30682.84
532.839	30987.99
533.04	31262.41
533.241	30580.44
533.442	31461.07
533.643	31157.97
533.844	31200.97
534.045	31139.54
534.246	30957.27
534.447	31356.62
534.648	31088.34
534.849	31495.88
535.05	31151.82
535.251	31024.85
535.451	30883.54
535.652	31248.08
535.853	31360.72
536.054	31233.74
536.255	31616.71
536.456	30682.84
536.657	31491.79
536.857	30955.22
537.058	31076.05
537.259	31407.82
537.46	31264.46
537.66	31092.43
537.861	31301.33
538.062	31092.43
538.263	31309.52
538.463	30723.8
538.664	31104.72
538.865	31276.75
539.065	31100.62
539.266	31330
539.466	30998.23
539.667	30942.93
539.868	31117.01
540.068	30942.93
540.269	30891.73
540.469	31217.36
540.67	30789.33
540.87	31180.49
541.071	30979.79
541.271	31129.3
541.472	31151.82
541.672	30990.03
541.873	30848.72
542.073	30408.41
542.274	31010.51
542.474	30848.72
542.675	30521.05
542.875	31127.25
543.075	31192.78
543.276	30727.89
543.476	31190.73
543.676	30598.87
543.877	30930.64
544.077	30932.69
544.277	31110.86
544.478	30852.82
544.678	31074
544.878	30592.73
545.078	30615.26
545.279	30686.93
545.479	30772.95
545.679	30867.16
545.879	30856.92
546.079	30779.09
546.28	30697.17
546.48	30379.74
546.68	30787.28
546.88	30711.51
547.08	30514.91
547.28	30418.65
547.48	30408.41
547.68	30584.54
547.88	30344.92
548.081	30916.31
548.281	30660.31
548.481	30490.33
548.681	30906.07
548.881	30660.31
549.081	30521.05
549.28	30437.08
549.48	30539.48
549.68	30793.43
549.88	30854.87
550.08	30291.68
550.28	30777.05
550.48	30664.41
550.68	30555.86
550.88	30535.38
551.08	30394.07
551.279	31000.27
551.479	30211.81
551.679	30635.74
551.879	30217.95
552.079	30740.18
552.278	30176.99
552.478	30435.03
552.678	30627.54
552.878	30656.21
553.077	30445.27
553.277	30316.25
553.477	30938.83
553.676	30439.13
553.876	30240.48
554.076	30308.06
554.275	29955.81
554.475	29671.14
554.674	30240.48
554.874	30482.14
555.074	29748.96
555.273	29982.43
555.473	30138.08
555.672	30213.85
555.872	29857.51
556.071	29943.52
556.271	30240.48
556.47	30125.79
556.67	29847.27
556.869	29638.37
557.068	30115.55
557.268	29816.55
557.467	30043.87
557.667	29630.18
557.866	29689.57
558.065	29787.88
558.265	29652.71
558.464	29497.06
558.663	29742.82
558.863	29259.5
559.062	29611.75
559.261	29198.06
559.461	29724.39
559.66	29255.4
559.859	29183.73
560.058	29134.57
560.258	29013.74
560.457	29298.41
560.656	29529.83
560.855	29187.82
561.054	29071.09
561.253	29157.1
561.453	28868.34
561.652	29257.45
561.851	28866.29
562.05	29066.99
562.249	28806.9
562.448	28913.39
562.647	28913.39
562.846	28817.14
563.045	28675.83
563.244	28602.1
563.443	28960.5
563.642	28260.09
563.841	28516.09
564.04	28169.98
564.239	28712.69
564.438	28163.84
564.637	28253.95
564.836	28432.12
565.035	28032.77
565.234	28165.88
565.432	27823.87
565.631	27954.94
565.83	27967.23
566.029	27965.18
566.228	27848.45
566.427	28063.49
566.625	27635.46
566.824	27762.44
567.023	27447.05
567.222	27207.44
567.42	27340.55
567.619	27471.62
567.818	27473.67
568.016	27363.08
568.215	27557.64
568.414	27455.24
568.612	27643.65
568.811	26980.11
569.01	27064.08
569.208	26986.25
569.407	26896.14
569.605	26629.91
569.804	27068.17
570.002	26748.69
570.201	26787.6
570.4	26459.93
570.598	26345.24
570.797	26261.27
570.995	26316.57
571.193	26185.5
571.392	26547.99
571.59	26208.03
571.789	25956.13
571.987	26124.06
572.186	26222.36
572.384	25798.43
572.582	26091.29
572.781	25937.69
572.979	25481
573.177	25739.04
573.376	26013.47
573.574	25435.94
573.772	26042.14
573.971	25882.4
574.169	25290.54
574.367	25351.98
574.565	25517.86
574.763	25427.75
574.962	25257.77
575.16	24926
575.358	25212.71
575.556	24674.1
575.754	25089.84
575.952	24813.36
576.151	24854.32
576.349	24397.62
576.547	24692.53
576.745	24760.11
576.943	24620.85
577.141	24571.7
577.339	24327.99
577.537	24504.12
577.735	24379.19
577.933	24014.65
578.131	24352.57
578.329	24252.22
578.527	23979.84
578.725	24080.19
578.923	23914.3
579.121	23879.49
579.319	23748.42
579.516	23951.17
579.714	23922.49
579.912	23594.82
580.11	23742.27
580.308	23551.81
580.506	23533.38
580.704	23045.96
580.901	23529.28
581.099	23605.06
581.297	23142.22
581.495	23250.76
581.692	23394.12
581.89	22916.94
582.088	23404.36
582.285	22925.13
582.483	23039.82
582.681	23156.55
582.878	22701.9
583.076	22597.46
583.274	22898.51
583.471	22570.83
583.669	22658.9
583.866	22501.2
584.064	22431.57
584.262	22263.64
584.459	22671.18
584.657	22300.5
584.854	22538.07
585.052	21761.89
585.249	22138.71
585.447	21794.65
585.644	21917.53
585.841	21940.06
586.039	22097.75
586.236	21612.38
586.434	21583.71
586.631	21583.71
586.828	21841.76
587.026	21925.72
587.223	21747.55
587.42	21409.64
587.618	21380.96
587.815	21475.17
588.012	21016.43
588.21	21327.72
588.407	21151.59
588.604	21186.41
588.801	21155.69
588.999	20854.64
589.196	21041
589.393	21096.3
589.59	20711.28
589.787	21020.52
589.984	20701.04
590.182	20471.67
590.379	20438.9
590.576	20463.47
590.773	20465.52
590.97	20254.58
591.167	20199.29
591.364	20211.57
591.561	20350.84
591.758	19918.71
591.955	19996.54
592.152	20107.13
592.349	19877.76
592.546	19947.39
592.743	19881.85
592.94	19486.59
593.137	19914.62
593.334	19908.47
593.531	19380.1
593.727	19877.76
593.924	19464.07
594.121	19363.72
594.318	19341.19
594.515	19124.1
594.712	19369.86
594.908	19396.48
595.105	19328.9
595.302	19001.22
595.499	18925.45
595.696	18995.08
595.892	18831.24
596.089	18782.09
596.286	18565.01
596.482	18812.81
596.679	18851.72
596.876	18743.18
597.072	18589.58
597.269	18634.64
597.466	18534.29
597.662	18294.68
597.859	18380.69
598.055	18378.64
598.252	18032.54
598.448	18167.7
598.645	18085.78
598.841	17987.48
599.038	18020.25
599.234	18112.41
599.431	17954.71
599.627	17913.75
599.824	18040.73
600.02	17743.77
600.217	17874.84
600.413	17647.52
600.609	17299.36
600.806	17797.02
601.002	17426.34
601.198	17340.32
601.395	17575.84
601.591	17110.95
601.787	17282.98
601.984	17321.89
602.18	17387.43
602.376	17344.42
602.572	17149.86
602.769	16998.31
602.965	16807.85
603.161	16955.3
603.357	16703.4
603.553	16709.55
603.75	16854.95
603.946	16779.18
604.142	16803.75
604.338	16250.8
604.534	16625.58
604.73	16232.37
604.926	16246.71
605.122	16562.09
605.318	16416.69
605.514	16388.02
605.71	16367.54
605.906	16394.16
606.102	16375.73
606.298	16379.82
606.494	16304.05
606.69	16238.51
606.886	16150.45
607.082	15849.4
607.278	16203.7
607.474	15589.31
607.67	15890.36
607.866	15501.25
608.062	16011.19
608.257	15787.96
608.453	15914.94
608.649	15830.97
608.845	15349.7
609.041	15460.29
609.236	15632.32
609.432	15601.6
609.628	15701.95
609.824	15620.03
610.019	15536.06
610.215	15380.42
610.411	15536.06
610.606	15243.2
610.802	15220.67
610.998	15421.38
611.193	15343.55
611.389	15108.04
611.584	15001.54
611.78	14800.84
611.976	15085.51
612.171	15349.7
612.367	15202.24
612.562	14866.38
612.758	14806.98
612.953	14831.56
613.149	14888.9
613.344	14735.31
613.539	15050.69
613.735	14880.71
613.93	14983.11
614.126	14804.94
614.321	14798.79
614.517	14952.39
614.712	14530.51
614.907	14569.42
615.103	14637
615.298	14532.56
615.493	14655.44
615.688	14292.94
615.884	14788.55
616.079	14372.82
616.274	14499.79
616.47	14294.99
616.665	14571.47
616.86	14360.53
617.055	14346.19
617.25	14262.23
617.445	14237.65
617.641	14086.1
617.836	13952.98
618.031	13928.41
618.226	14272.46
618.421	14053.33
618.616	13991.89
618.811	13944.79
619.006	14084.05
619.201	13680.6
619.396	14063.57
619.591	13535.2
619.786	13780.95
619.981	13627.35
620.176	13889.49
620.371	13570.01
620.566	13443.04
620.761	13426.65
620.956	13529.05
621.151	13141.99
621.346	13240.29
621.541	13105.12
621.735	13209.57
621.93	12832.74
622.125	12910.57
622.32	12787.69
622.515	12906.47
622.709	12933.09
622.904	12574.7
623.099	12543.98
623.294	12795.88
623.488	12445.68
623.683	12439.53
623.878	12369.9
624.072	12273.65
624.267	12294.13
624.462	12380.14
624.656	12113.91
624.851	12130.29
625.046	11962.36
625.24	11954.16
625.435	11993.08
625.629	11775.99
625.824	11675.64
626.018	11954.16
626.213	11698.17
626.407	11730.94
626.602	11358.21
626.796	11552.76
626.991	11491.32
627.185	11343.87
627.38	11352.06
627.574	11202.56
627.768	11237.38
627.963	11008
628.157	10946.56
628.352	11030.53
628.546	10926.08
628.74	10823.69
628.935	10833.93
629.129	10926.08
629.323	10592.27
629.517	10543.11
629.712	10561.55
629.906	10655.75
630.1	10385.42
630.294	10356.75
630.489	10323.98
630.683	10352.65
630.877	10139.66
631.071	10098.7
631.265	10201.1
631.459	10164.24
631.653	10049.55
631.848	10205.2
632.042	9920.53
632.236	9969.68
632.43	9865.24
632.624	9893.91
632.818	9750.55
633.012	9551.9
633.206	9685.01
633.4	9685.01
633.594	9607.19
633.788	9572.38
633.982	9482.27
634.176	9498.65
634.369	9365.53
634.563	9377.82
634.757	9279.52
634.951	9218.08
635.145	9236.51
635.339	9089.06
635.533	9205.79
635.726	9056.29
635.92	9062.43
636.114	8794.15
636.308	8812.58
636.501	9019.43
636.695	8712.23
636.889	8716.33
637.083	8652.84
637.276	8734.76
637.47	8505.38
637.664	8575.02
637.857	8431.66
638.051	8294.44
638.244	8362.03
638.438	8374.31
638.632	8325.16
638.825	8222.77
639.019	8177.71
639.212	8036.4
639.406	8202.29
639.599	7915.57
639.793	8022.06
639.986	7884.85
640.18	7890.99
640.373	7870.51
640.567	7821.36
640.76	7845.94
640.954	7952.43
641.147	7579.7
641.34	7561.27
641.534	7749.68
641.727	7630.9
641.92	7702.58
642.114	7536.7
642.307	7696.44
642.5	7491.64
642.694	7247.93
642.887	7331.9
643.08	7518.26
643.273	7362.62
643.467	7252.03
643.66	7229.5
643.853	7174.21
644.046	7141.44
644.239	7090.24
644.432	6875.2
644.626	6893.63
644.819	7108.67
645.012	6969.41
645.205	6854.72
645.398	6815.81
645.591	6703.17
645.784	6785.09
645.977	6787.14
646.17	6680.64
646.363	6688.84
646.556	6486.09
646.749	6508.62
646.942	6660.17
647.135	6664.26
647.328	6514.76
647.521	6654.02
647.714	6469.7
647.907	6477.9
648.099	6484.04
648.292	6522.95
648.485	6420.55
648.678	6352.97
648.871	6264.91
649.064	6166.6
649.256	6080.59
649.449	6137.93
649.642	6172.75
649.835	6064.21
650.027	6199.37
650.22	5920.85
650.413	6039.63
650.605	6015.05
650.798	5949.52
650.991	5908.56
651.183	5714
651.376	5795.92
651.568	5900.37
651.761	5847.12
651.954	5754.96
652.146	5685.33
652.339	5449.82
652.531	5572.69
652.724	5437.53
652.916	5627.99
653.109	5548.12
653.301	5662.8
653.494	5564.5
653.686	5371.99
653.879	5523.54
654.071	5423.19
654.263	5400.66
654.456	5431.38
654.648	5251.16
654.84	5302.36
655.033	5326.94
655.225	5208.16
655.417	5144.67
655.61	5183.58
655.802	5361.75
655.994	5179.48
656.186	5062.75
656.379	5011.55
656.571	5052.51
656.763	4999.26
656.955	5036.13
657.148	5089.37
657.34	5075.04
657.532	4991.07
657.724	4821.09
657.916	4931.68
658.108	4982.88
658.3	4878.43
658.492	4808.8
658.684	4876.38
658.876	4800.61
659.068	4690.02
659.26	4644.96
659.452	4704.35
659.644	4630.63
659.836	4667.49
660.028	4606.05
660.22	4630.63
660.412	4614.24
660.604	4614.24
660.796	4702.31
660.988	4567.14
661.18	4415.59
661.372	4558.95
661.563	4468.84
661.755	4335.72
661.947	4450.41
662.139	4350.06
662.331	4294.76
662.522	4155.5
662.714	4212.84
662.906	4192.36
663.097	4313.19
663.289	4272.23
663.481	4178.03
663.673	4163.69
663.864	4249.71
664.056	4026.48
664.247	3995.76
664.439	4065.39
664.631	4079.72
664.822	4081.77
665.014	4065.39
665.205	3952.75
665.397	3985.52
665.588	4069.48
665.78	3885.17
665.971	3868.78
666.163	3942.51
666.354	3879.02
666.546	3917.93
666.737	3827.82
666.929	3954.8
667.12	3975.28
667.311	3881.07
667.503	3844.21
667.694	3975.28
667.885	3754.1
668.077	3657.84
668.268	3719.28
668.459	3793.01
668.651	3700.85
668.842	3600.5
669.033	3655.79
669.224	3586.16
669.416	3678.32
669.607	3610.74
669.798	3684.47
669.989	3590.26
670.18	3508.34
670.371	3623.03
670.563	3362.94
670.754	3498.1
670.945	3553.4
671.136	3459.19
671.327	3510.39
671.518	3606.64
671.709	3584.12
671.9	3549.3
672.091	3432.57
672.282	3461.24
672.473	3405.94
672.664	3393.65
672.855	3270.78
673.046	3389.56
673.237	3360.89
673.428	3375.22
673.619	3266.68
673.809	3309.69
674	3307.64
674.191	3319.93
674.382	3115.13
674.573	3344.5
674.764	3180.67
674.954	3254.39
675.145	3246.2
675.336	3264.63
675.527	3041.4
675.717	3231.87
675.908	3041.4
676.099	3248.25
676.289	3221.63
676.48	3256.44
676.671	3084.41
676.861	3211.39
677.052	3229.82
677.243	3104.89
677.433	3158.14
677.624	3195
677.814	3174.52
678.005	3131.51
678.195	3172.47
678.386	3082.36
678.576	3090.56
678.767	2986.11
678.957	3022.97
679.148	3108.99
679.338	3068.03
679.529	3102.84
679.719	3061.88
679.909	3068.03
680.1	2953.34
680.29	3203.19
680.481	2953.34
680.671	3070.08
680.861	3090.56
681.052	3053.69
681.242	2896
681.432	3025.02
681.622	3014.78
681.813	2926.72
682.003	2887.81
682.193	2889.85
682.383	2977.92
682.573	2928.77
682.764	3135.61
682.954	2934.91
683.144	2926.72
683.334	2877.57
683.524	2887.81
683.714	2975.87
683.904	2863.23
684.094	2988.16
684.284	2902.14
684.474	2904.19
684.664	2881.66
684.854	2846.85
685.044	2922.62
685.234	2805.89
685.424	2689.15
685.614	2887.81
685.804	2760.83
685.994	2799.74
686.184	2883.71
686.374	2816.13
686.564	2678.91
686.753	2689.15
686.943	2758.78
687.133	2683.01
687.323	2703.49
687.513	2865.28
687.702	2676.87
687.892	2502.79
688.082	2738.3
688.272	2689.15
688.461	2656.39
688.651	2674.82
688.841	2529.41
689.03	2553.99
689.22	2541.7
689.41	2607.23
689.599	2640
689.789	2578.56
689.979	2590.85
690.168	2553.99
690.358	2703.49
690.547	2506.88
690.737	2582.66
690.926	2597
691.116	2451.59
691.305	2621.57
691.495	2443.4
691.684	2535.56
691.874	2453.64
692.063	2422.92
692.252	2553.99
692.442	2404.49
692.631	2328.71
692.82	2318.47
693.01	2379.91
693.199	2375.81
693.388	2357.38
693.578	2492.55
693.767	2451.59
693.956	2267.27
694.146	2355.33
694.335	2341
694.524	2308.23
694.713	2449.54
694.902	2439.3
695.092	2345.09
695.281	2312.33
695.47	2248.84
695.659	2341
695.848	2287.75
696.037	2341
696.226	2248.84
696.415	2316.42
696.604	2332.81
696.793	2259.08
696.982	2189.45
697.171	2250.89
697.36	2240.65
697.549	2257.03
697.738	2085
697.927	2232.46
698.116	2166.92
698.305	2254.98
698.494	2222.22
698.683	2244.74
698.872	2205.83
699.061	2269.32
699.25	2103.43
699.438	2121.87
699.627	2031.76
699.816	2148.49
700.005	2062.48
700.193	2257.03
700.382	2238.6
700.571	2111.63
700.76	2185.35
700.948	2099.34
701.137	2160.78
701.326	2232.46
701.514	2066.57
701.703	2101.39
701.892	2060.43
702.08	2293.9
702.269	2074.76
702.457	2134.15
702.646	2246.79
702.834	2136.2
703.023	2168.97
703.212	2025.61
703.4	2156.68
703.589	2099.34
703.777	2140.3
703.965	2062.48
704.154	2185.35
704.342	2117.77
704.531	2076.81
704.719	2074.76
704.907	2201.74
705.096	1992.84
705.284	2168.97
705.472	2152.59
705.661	2134.15
705.849	2156.68
706.037	2197.64
706.226	2115.72
706.414	2076.81
706.602	1988.75
706.79	2132.11
706.979	1962.12
707.167	2066.57
707.355	2105.48
707.543	2064.52
707.731	2054.28
707.919	2082.95
708.107	2005.13
708.296	2064.52
708.484	2023.56
708.672	2025.61
708.86	2033.8
709.048	2056.33
709.236	2042
709.424	2048.14
709.612	2087.05
709.8	2039.95
709.988	2052.24
710.176	2064.52
710.364	2078.86
710.551	2005.13
710.739	1960.08
710.927	2001.04
711.115	1968.27
711.303	2132.11
711.491	1998.99
711.679	1880.21
711.866	2001.04
712.054	1976.46
712.242	2058.38
712.43	1968.27
712.617	2007.18
712.805	2033.8
712.993	1929.36
713.181	1898.64
713.368	1953.93
713.556	2093.19
713.744	1937.55
713.931	2070.67
714.119	2066.57
714.306	1984.65
714.494	1994.89
714.682	1994.89
714.869	1902.73
715.057	1915.02
715.244	1994.89
715.432	1986.7
715.619	1898.64
715.807	1980.56
715.994	1878.16
716.182	1970.32
716.369	1953.93
716.556	1962.12
716.744	1962.12
716.931	2009.23
717.119	1947.79
717.306	1890.45
717.493	1931.41
717.681	1882.25
717.868	1880.21
718.055	2009.23
718.242	1929.36
718.43	1947.79
718.617	1968.27
718.804	1925.26
718.991	1966.22
719.179	2009.23
719.366	1896.59
719.553	1890.45
719.74	1882.25
719.927	1902.73
720.114	1902.73
720.301	1890.45
720.488	1841.29
720.676	1880.21
720.863	2046.09
721.05	1927.31
721.237	1884.3
721.424	1951.88
721.611	1853.58
721.798	1808.53
721.985	1919.12
722.172	1849.49
722.358	1863.82
722.545	1908.88
722.732	1878.16
722.919	1814.67
723.106	1855.63
723.293	1937.55
723.48	1818.77
723.667	1833.1
723.853	1855.63
724.04	1806.48
724.227	1853.58
724.414	1921.17
724.6	1974.41
724.787	1841.29
724.974	1900.69
725.161	1945.74
725.347	1886.35
725.534	1878.16
725.72	1898.64
725.907	1902.73
726.094	1826.96
726.28	1886.35
726.467	1734.8
726.653	1921.17
726.84	1833.1
727.027	1824.91
727.213	1878.16
727.4	1829.01
727.586	1847.44
727.773	1837.2
727.959	1906.83
728.145	1878.16
728.332	1812.62
728.518	1869.97
728.705	1867.92
728.891	1872.01
729.077	1796.24
729.264	1863.82
729.45	1829.01
729.636	1829.01
729.823	1788.05
730.009	1837.2
730.195	1841.29
730.382	1923.21
730.568	1822.86
730.754	1872.01
730.94	1783.95
731.126	1902.73
731.313	1882.25
731.499	1878.16
731.685	1820.81
731.871	1839.25
732.057	1759.38
732.243	1773.71
732.429	1835.15
732.615	1865.87
732.801	1935.5
732.987	1826.96
733.173	1749.14
733.359	1833.1
733.545	1761.42
733.731	1783.95
733.917	1779.86
734.103	1792.14
734.289	1829.01
734.475	1712.27
734.661	1767.57
734.847	1736.85
735.033	1902.73
735.219	1736.85
735.404	1798.29
735.59	1712.27
735.776	1771.66
735.962	1769.62
736.148	1736.85
736.333	1677.46
736.519	1820.81
736.705	1757.33
736.89	1726.61
737.076	1761.42
737.262	1665.17
737.447	1730.7
737.633	1816.72
737.819	1638.55
738.004	1763.47
738.19	1845.39
738.375	1673.36
738.561	1751.18
738.747	1775.76
738.932	1616.02
739.118	1800.34
739.303	1677.46
739.489	1702.03
739.674	1779.86
739.859	1689.74
740.045	1747.09
740.23	1751.18
740.416	1624.21
740.601	1626.26
740.786	1638.55
740.972	1575.06
741.157	1648.79
741.342	1616.02
741.528	1575.06
741.713	1659.03
741.898	1540.24
742.084	1616.02
742.269	1652.88
742.454	1517.72
742.639	1628.31
742.824	1661.07
743.01	1656.98
743.195	1665.17
743.38	1595.54
743.565	1532.05
743.75	1585.3
743.935	1570.96
744.12	1599.63
744.305	1519.76
744.49	1503.38
744.675	1530
744.86	1431.7
745.045	1550.48
745.23	1577.11
745.415	1558.67
745.6	1460.37
745.785	1501.33
745.97	1511.57
746.155	1468.56
746.34	1443.99
746.525	1437.84
746.71	1470.61
746.895	1460.37
747.079	1400.98
747.264	1411.22
747.449	1421.46
747.634	1448.08
747.819	1415.32
748.003	1458.32
748.188	1458.32
748.373	1386.65
748.557	1372.31
748.742	1325.21
748.927	1403.03
749.111	1386.65
749.296	1312.92
749.481	1314.97
749.665	1231
749.85	1366.17
750.034	1349.78
750.219	1241.24
750.404	1345.69
750.588	1276.06
750.773	1183.9
750.957	1200.28
751.141	1202.33
751.326	1259.67
751.51	1165.46
751.695	1251.48
751.879	1251.48
752.064	1216.66
752.248	1222.81
752.432	1269.91
752.617	1163.42
752.801	1249.43
752.985	1151.13
753.17	1233.05
753.354	1155.23
753.538	1151.13
753.722	972.96
753.907	1194.14
754.091	1124.51
754.275	1212.57
754.459	1046.68
754.643	1083.55
754.828	1159.32
755.012	1171.61
755.196	1114.27
755.38	1030.3
755.564	1147.03
755.748	989.34
755.932	1034.39
756.116	1089.69
756.3	1052.83
756.484	993.44
756.668	1120.41
756.852	1036.44
757.036	1005.72
757.22	932
757.404	948.38
757.588	970.91
757.772	886.94
757.956	903.32
758.14	1032.35
758.323	880.8
758.507	897.18
758.691	886.94
758.875	979.1
759.059	956.57
759.242	972.96
759.426	938.14
759.61	921.76
759.794	864.41
759.977	829.6
760.161	845.98
760.345	979.1
760.528	864.41
760.712	860.32
760.895	880.8
761.079	845.98
761.263	815.26
761.446	915.61
761.63	888.99
761.813	888.99
761.997	878.75
762.18	780.45
762.364	796.83
762.547	817.31
762.731	854.17
762.914	786.59
763.098	827.55
763.281	737.44
763.464	833.69
763.648	833.69
763.831	739.49
764.015	796.83
764.198	845.98
764.381	772.25
764.564	823.45
764.748	755.87
764.931	798.88
765.114	731.3
765.297	850.08
765.481	739.49
765.664	747.68
765.847	696.48
766.03	800.93
766.213	676
766.397	733.34
766.58	665.76
766.763	891.04
766.946	700.58
767.129	714.91
767.312	739.49
767.495	774.3
767.678	704.67
767.861	682.14
768.044	710.82
768.227	723.1
768.41	741.54
768.593	743.58
768.776	663.71
768.959	663.71
769.142	686.24
769.324	725.15
769.507	669.86
769.69	673.95
769.873	635.04
770.056	714.91
770.239	682.14
770.421	770.21
770.604	696.48
770.787	649.38
770.97	667.81
771.152	608.42
771.335	698.53
771.518	536.74
771.7	727.2
771.883	694.43
772.066	624.8
772.248	626.85
772.431	637.09
772.613	657.57
772.796	538.79
772.978	671.9
773.161	641.18
773.343	653.47
773.526	544.93
773.708	508.07
773.891	551.07
774.073	575.65
774.256	534.69
774.438	641.18
774.621	626.85
774.803	678.05
774.985	608.42
775.168	610.47
775.35	534.69
775.532	544.93
775.715	569.51
775.897	600.23
776.079	493.73
776.261	503.97
776.444	522.4
776.626	477.35
776.808	448.68
776.99	512.16
777.173	534.69
777.355	477.35
777.537	458.92
777.719	532.64
777.901	473.25
778.083	520.35
778.265	518.31
778.447	536.74
778.629	479.4
778.811	483.49
778.993	448.68
779.175	489.64
779.357	456.87
779.539	387.24
779.721	487.59
779.903	360.61
780.085	415.91
780.267	477.35
780.449	411.81
780.631	483.49
780.812	454.82
780.994	395.43
781.176	372.9
781.358	440.48
781.54	444.58
781.721	448.68
781.903	401.57
782.085	454.82
782.267	424.1
782.448	397.48
782.63	428.2
782.812	391.33
782.993	350.37
783.175	452.77
783.357	325.8
783.538	465.06
783.72	370.85
783.901	428.2
784.083	348.33
784.264	340.13
784.446	354.47
784.627	391.33
784.809	315.56
784.99	338.09
785.172	313.51
785.353	317.61
785.535	274.6
785.716	262.31
785.897	315.56
786.079	286.89
786.26	356.52
786.441	321.7
786.623	280.74
786.804	379.04
786.985	278.69
787.167	358.57
787.348	362.66
787.529	305.32
787.71	290.98
787.891	309.41
788.073	331.94
788.254	247.97
788.435	280.74
788.616	297.13
788.797	280.74
788.978	299.17
789.159	303.27
789.34	280.74
789.522	348.33
789.703	239.78
789.884	293.03
790.065	280.74
790.246	385.19
790.427	315.56
790.607	297.13
790.788	235.69
790.969	243.88
791.15	333.99
791.331	293.03
791.512	290.98
791.693	233.64
791.874	227.5
792.054	278.69
792.235	264.36
792.416	247.97
792.597	215.21
792.778	182.44
792.958	153.77
793.139	250.02
793.32	184.49
793.5	256.17
793.681	252.07
793.862	247.97
794.042	247.97
794.223	219.3
794.404	229.54
794.584	215.21
794.765	239.78
794.945	284.84
795.126	207.02
795.306	219.3
795.487	215.21
795.667	198.82
795.848	260.26
796.028	233.64
796.209	233.64
796.389	143.53
796.57	243.88
796.75	235.69
796.93	190.63
797.111	231.59
797.291	264.36
797.471	235.69
797.652	243.88
797.832	161.96
798.012	241.83
798.192	174.25
798.373	198.82
798.553	172.2
798.733	325.8
798.913	182.44
799.093	256.17
799.274	215.21
799.454	250.02
799.634	180.39
799.814	141.48
799.994	170.15
800.174	229.54
800.354	241.83
800.534	188.58
800.714	145.58
800.894	116.9
801.074	211.11
801.254	157.86
801.434	182.44
801.614	135.34
801.794	174.25
801.974	714.91
802.154	190.63
802.334	172.2
802.514	157.86
802.693	258.21
802.873	256.17
803.053	217.26
803.233	151.72
803.413	190.63
803.592	121
803.772	116.9
803.952	69.8
804.131	135.34
804.311	198.82
804.491	151.72
804.67	194.73
804.85	127.14
805.03	170.15
805.209	149.67
805.389	194.73
805.568	98.47
805.748	121
805.928	198.82
806.107	196.78
806.287	149.67
806.466	213.16
806.646	114.86
806.825	147.62
807.004	69.8
807.184	94.38
807.363	229.54
807.543	196.78
807.722	192.68
807.901	190.63
808.081	254.12
808.26	45.23
808.439	198.82
808.619	123.05
808.798	110.76
808.977	47.27
809.156	159.91
809.336	149.67
809.515	133.29
809.694	67.75
809.873	108.71
810.052	174.25
810.231	143.53
810.411	190.63
810.59	157.86
810.769	84.14
810.948	174.25
811.127	67.75
811.306	161.96
811.485	145.58
811.664	186.54
811.843	147.62
812.022	202.92
812.201	133.29
812.38	188.58
812.559	149.67
812.737	129.19
812.916	34.99
813.095	80.04
813.274	116.9
813.453	151.72
813.632	127.14
813.811	207.02
813.989	67.75
814.168	104.62
814.347	110.76
814.526	84.14
814.704	84.14
814.883	92.33
815.062	106.67
815.24	207.02
815.419	102.57
815.598	123.05
815.776	116.9
815.955	80.04
816.133	63.66
816.312	161.96
816.49	57.51
816.669	145.58
816.847	112.81
817.026	145.58
817.204	176.3
817.383	141.48
817.561	65.71
817.74	53.42
817.918	84.14
818.097	129.19
818.275	110.76
818.453	135.34
818.632	129.19
818.81	108.71
818.988	104.62
819.167	67.75
819.345	147.62
819.523	26.79
819.701	104.62
819.879	34.99
820.058	184.49
820.236	125.1
820.414	114.86
820.592	65.71
820.77	18.6
820.948	86.19
821.127	96.43
821.305	170.15
821.483	53.42
821.661	123.05
821.839	133.29
822.017	112.81
822.195	0.17
822.373	116.9
822.551	75.95
822.729	67.75
822.907	18.6
823.085	96.43
823.262	108.71
823.44	94.38
823.618	-5.97
823.796	71.85
823.974	141.48
824.152	125.1
824.329	67.75
824.507	110.76
824.685	133.29
824.863	57.51
825.04	118.95
825.218	80.04
825.396	32.94
825.574	104.62
825.751	86.19
825.929	174.25
826.107	84.14
826.284	47.27
826.462	86.19
826.639	28.84
826.817	20.65
826.994	63.66
827.172	30.89
827.349	118.95
827.527	12.46
827.704	59.56
827.882	88.23
828.059	59.56
828.237	100.52
828.414	4.27
828.591	75.95
828.769	75.95
828.946	71.85
829.124	121
829.301	114.86
829.478	104.62
829.655	100.52
829.833	94.38
830.01	0.17
830.187	92.33
830.364	69.8
830.542	26.79
830.719	98.47
830.896	39.08
831.073	112.81
831.25	30.89
831.427	80.04
831.604	45.23
831.782	-34.64
831.959	102.57
832.136	84.14
832.313	80.04
832.49	102.57
832.667	86.19
832.844	53.42
833.021	108.71
833.198	96.43
833.374	43.18
833.551	12.46
833.728	30.89
833.905	110.76
834.082	59.56
834.259	157.86
834.436	47.27
834.612	37.03
834.789	80.04
834.966	-12.12
835.143	102.57
835.319	12.46
835.496	55.47
835.673	133.29
835.85	92.33
836.026	67.75
836.203	10.41
836.38	26.79
836.556	114.86
836.733	-32.6
836.909	51.37
837.086	30.89
837.262	65.71
837.439	-28.5
837.616	26.79
837.792	92.33
837.968	84.14
838.145	-28.5
838.321	71.85
838.498	59.56
838.674	77.99
838.851	98.47
839.027	86.19
839.203	26.79
839.38	47.27
839.556	45.23
839.732	57.51
839.909	14.51
840.085	-5.97
840.261	14.51
840.437	41.13
840.614	133.29
840.79	30.89
840.966	92.33
841.142	53.42
841.318	94.38
841.494	57.51
841.671	110.76
841.847	18.6
842.023	-30.55
842.199	110.76
842.375	135.34
842.551	-26.45
842.727	49.32
842.903	106.67
843.079	-28.5
843.255	10.41
843.431	34.99
843.607	45.23
843.783	4.27
843.959	61.61
844.134	39.08
844.31	65.71
844.486	125.1
844.662	116.9
844.838	8.36
845.013	69.8
845.189	18.6
845.365	4.27
845.541	12.46
845.716	-10.07
845.892	77.99
846.068	-5.97
846.244	18.6
846.419	61.61
846.595	-30.55
846.77	63.66
846.946	121
847.122	51.37
847.297	63.66
847.473	71.85
847.648	-42.84
847.824	73.9
847.999	63.66
848.175	84.14
848.35	86.19
848.526	69.8
848.701	30.89
848.876	22.7
849.052	69.8
849.227	20.65
849.403	-12.12
849.578	24.75
849.753	88.23
849.929	6.31
850.104	22.7
850.279	80.04
850.454	-12.12
850.63	-10.07
850.805	61.61
850.98	30.89
851.155	39.08
851.33	14.51
851.505	22.7
851.681	14.51
851.856	49.32
852.031	28.84
852.206	10.41
852.381	18.6
852.556	4.27
852.731	47.27
852.906	108.71
853.081	75.95
853.256	49.32
853.431	43.18
853.606	6.31
853.781	-5.97
853.956	-5.97
854.131	39.08
854.305	2.22
854.48	-55.12
854.655	-3.93
854.83	4.27
855.005	10.41
855.18	73.9
855.354	59.56
855.529	-8.02
855.704	34.99
855.879	92.33
856.053	57.51
856.228	28.84
856.403	-65.36
856.577	37.03
856.752	-73.56
856.926	47.27
857.101	2.22
857.276	94.38
857.45	6.31
857.625	28.84
857.799	-30.55
857.974	-10.07
858.148	-14.17
858.323	18.6
858.497	18.6
858.672	39.08
858.846	-14.17
859.02	22.7
859.195	-46.93
859.369	61.61
859.543	47.27
859.718	47.27
859.892	28.84
860.066	61.61
860.241	18.6
860.415	16.55
860.589	-3.93
860.763	92.33
860.938	-51.03
861.112	0.17
861.286	18.6
861.46	69.8
861.634	51.37
861.808	-30.55
861.982	-63.32
862.157	20.65
862.331	-12.12
862.505	30.89
862.679	67.75
862.853	22.7
863.027	-22.36
863.201	112.81
863.375	6.31
863.549	49.32
863.722	10.41
863.896	86.19
864.07	8.36
864.244	-26.45
864.418	-20.31
864.592	34.99
864.766	41.13
864.939	4.27
865.113	0.17
865.287	63.66
865.461	2.22
865.634	59.56
865.808	-24.4
865.982	53.42
866.156	-1.88
866.329	-18.26
866.503	43.18
866.676	43.18
866.85	-5.97
867.024	37.03
867.197	39.08
867.371	-46.93
867.544	39.08
867.718	-22.36
867.891	80.04
868.065	4.27
868.238	47.27
868.412	-36.69
868.585	14.51
868.759	-69.46
868.932	-28.5
869.105	34.99
869.279	26.79
869.452	-1.88
869.625	112.81
869.799	26.79
869.972	-3.93
870.145	53.42
870.319	67.75
870.492	-77.65
870.665	37.03
870.838	4.27
871.011	47.27
871.185	4.27
871.358	-46.93
871.531	47.27
871.704	22.7
871.877	8.36
872.05	-12.12
872.223	43.18
872.396	-18.26
872.569	28.84
872.742	61.61
872.915	26.79
873.088	-53.08
873.261	100.52
873.434	6.31
873.607	55.47
873.78	43.18
873.953	-38.74
874.126	26.79
874.299	94.38
874.471	-53.08
874.644	41.13
874.817	73.9
874.99	-16.21
875.163	-36.69
875.335	4.27
875.508	34.99
875.681	67.75
875.853	47.27
876.026	0.17
876.199	-12.12
876.371	-12.12
876.544	20.65
876.717	34.99
876.889	-48.98
877.062	-26.45
877.234	-36.69
877.407	-36.69
877.579	-36.69
877.752	32.94
877.924	-3.93
878.097	61.61
878.269	-1.88
878.442	4.27
878.614	84.14
878.786	10.41
878.959	47.27
879.131	55.47
879.303	-3.93
879.476	51.37
879.648	47.27
879.82	-48.98
879.993	0.17
880.165	12.46
880.337	-14.17
880.509	77.99
880.681	-1.88
880.854	4.27
881.026	-28.5
881.198	129.19
881.37	75.95
881.542	28.84
881.714	-5.97
881.886	-18.26
882.058	-38.74
882.23	-18.26
882.402	-53.08
882.574	34.99
882.746	-63.32
882.918	59.56
883.09	-44.88
883.262	67.75
883.434	-5.97
883.606	-34.64
883.778	37.03
883.95	30.89
884.122	-38.74
884.293	22.7
884.465	-5.97
884.637	26.79
884.809	30.89
884.98	26.79
885.152	18.6
885.324	-30.55
885.496	47.27
885.667	18.6
885.839	2.22
886.011	84.14
886.182	-44.88
886.354	2.22
886.525	14.51
886.697	-1.88
886.869	26.79
887.04	12.46
887.212	-10.07
887.383	41.13
887.555	45.23
887.726	-1.88
887.897	86.19
888.069	-14.17
888.24	18.6
888.412	22.7
888.583	-55.12
888.754	-87.89
888.926	-51.03
889.097	-18.26
889.268	-22.36
889.44	-3.93
889.611	6.31
889.782	16.55
889.953	24.75
890.125	69.8
890.296	-30.55
890.467	41.13
890.638	-3.93
890.809	10.41
890.98	0.17
891.151	20.65
891.323	-38.74
891.494	14.51
891.665	-38.74
891.836	90.28
892.007	-3.93
892.178	43.18
892.349	20.65
892.52	61.61
892.691	-63.32
892.862	-3.93
893.032	-34.64
893.203	39.08
893.374	51.37
893.545	37.03
893.716	-28.5
893.887	49.32
894.057	4.27
894.228	-22.36
894.399	6.31
894.57	-28.5
894.74	-3.93
894.911	10.41
895.082	12.46
895.253	14.51
895.423	-3.93
895.594	18.6
895.764	12.46
895.935	-59.22
896.106	63.66
896.276	-42.84
896.447	18.6
896.617	34.99
896.788	-14.17
896.958	22.7
897.129	4.27
897.299	59.56
897.47	-55.12
897.64	57.51
897.81	12.46
897.981	26.79
898.151	30.89
898.322	-8.02
898.492	51.37
898.662	-32.6
898.832	2.22
899.003	-30.55
899.173	51.37
899.343	-1.88
899.513	-24.4
