Data from USB4F104151__101__14-18-06-758.txt Node

Date: Thu Mar 13 14:18:06 EDT 2025
User: louis
Spectrometer: USB4F10415
Trigger mode: 4
Integration Time (sec): 2.000000E-2
Scans to average: 1
Electric dark correction enabled: true
Nonlinearity correction enabled: false
Boxcar width: 0
XAxis mode: Wavelengths
Number of Pixels in Spectrum: 3648
>>>>>Begin Spectral Data<<<<<
178.204	-58.2
178.424	-58.2
178.644	-58.2
178.864	-105.3
179.084	-27.48
179.304	-15.19
179.524	1.19
179.744	-31.57
179.964	60.59
180.184	1.19
180.404	68.78
180.624	21.67
180.844	19.63
181.064	-64.34
181.283	31.91
181.503	-88.92
181.723	-4.95
181.943	-39.76
182.163	107.69
182.383	3.24
182.602	74.92
182.822	52.39
183.042	33.96
183.262	9.39
183.482	60.59
183.701	19.63
183.921	81.07
184.141	25.77
184.361	15.53
184.58	70.83
184.8	83.11
185.02	1.19
185.239	52.39
185.459	48.3
185.679	101.55
185.898	17.58
186.118	9.39
186.338	42.15
186.557	36.01
186.777	-56.15
186.997	44.2
187.216	50.35
187.436	42.15
187.655	93.35
187.875	25.77
188.095	36.01
188.314	103.59
188.534	87.21
188.753	-27.48
188.973	19.63
189.192	21.67
189.412	-2.9
189.631	62.63
189.851	42.15
190.07	74.92
190.29	-31.57
190.509	126.12
190.729	-7
190.948	111.78
191.168	76.97
191.387	38.06
191.607	38.06
191.826	56.49
192.045	72.87
192.265	101.55
192.484	9.39
192.704	29.87
192.923	33.96
193.142	101.55
193.362	-39.76
193.581	36.01
193.8	117.93
194.02	27.82
194.239	50.35
194.458	11.43
194.678	74.92
194.897	56.49
195.116	58.54
195.335	25.77
195.555	62.63
195.774	-2.9
195.993	44.2
196.212	9.39
196.432	48.3
196.651	99.5
196.87	64.68
197.089	115.88
197.308	-60.24
197.528	64.68
197.747	46.25
197.966	33.96
198.185	115.88
198.404	1.19
198.623	85.16
198.842	50.35
199.062	66.73
199.281	74.92
199.5	54.44
199.719	48.3
199.938	25.77
200.157	107.69
200.376	46.25
200.595	74.92
200.814	33.96
201.033	58.54
201.252	97.45
201.471	17.58
201.69	11.43
201.909	107.69
202.128	-2.9
202.347	138.41
202.566	25.77
202.785	17.58
203.004	13.48
203.223	66.73
203.442	60.59
203.661	19.63
203.879	-21.33
204.098	-2.9
204.317	124.07
204.536	1.19
204.755	23.72
204.974	25.77
205.193	103.59
205.411	79.02
205.63	83.11
205.849	113.83
206.068	-29.52
206.287	42.15
206.505	91.31
206.724	3.24
206.943	17.58
207.162	21.67
207.381	3.24
207.599	29.87
207.818	-2.9
208.037	62.63
208.255	-7
208.474	42.15
208.693	85.16
208.911	48.3
209.13	9.39
209.349	21.67
209.567	29.87
209.786	44.2
210.005	105.64
210.223	93.35
210.442	52.39
210.661	62.63
210.879	46.25
211.098	91.31
211.316	60.59
211.535	44.2
211.753	-62.29
211.972	29.87
212.191	31.91
212.409	21.67
212.628	42.15
212.846	9.39
213.065	58.54
213.283	87.21
213.502	-15.19
213.72	119.98
213.938	3.24
214.157	29.87
214.375	138.41
214.594	60.59
214.812	-35.67
215.031	124.07
215.249	-27.48
215.467	19.63
215.686	31.91
215.904	58.54
216.122	48.3
216.341	52.39
216.559	40.11
216.778	101.55
216.996	76.97
217.214	-0.85
217.432	76.97
217.651	74.92
217.869	76.97
218.087	42.15
218.306	40.11
218.524	58.54
218.742	99.5
218.96	29.87
219.179	-31.57
219.397	36.01
219.615	68.78
219.833	99.5
220.051	64.68
220.27	68.78
220.488	27.82
220.706	58.54
220.924	101.55
221.142	9.39
221.36	58.54
221.578	50.35
221.796	76.97
222.015	97.45
222.233	19.63
222.451	128.17
222.669	19.63
222.887	64.68
223.105	-29.52
223.323	62.63
223.541	48.3
223.759	-2.9
223.977	13.48
224.195	85.16
224.413	46.25
224.631	70.83
224.849	126.12
225.067	103.59
225.285	40.11
225.503	60.59
225.721	87.21
225.939	42.15
226.157	107.69
226.375	83.11
226.592	64.68
226.81	87.21
227.028	1.19
227.246	68.78
227.464	144.55
227.682	-7
227.9	76.97
228.117	91.31
228.335	87.21
228.553	-9.05
228.771	36.01
228.989	74.92
229.206	68.78
229.424	68.78
229.642	13.48
229.86	-29.52
230.077	56.49
230.295	97.45
230.513	62.63
230.731	46.25
230.948	27.82
231.166	99.5
231.384	27.82
231.601	5.29
231.819	19.63
232.037	33.96
232.254	79.02
232.472	111.78
232.689	-13.14
232.907	74.92
233.125	79.02
233.342	36.01
233.56	36.01
233.777	54.44
233.995	83.11
234.213	124.07
234.43	132.26
234.648	36.01
234.865	70.83
235.083	44.2
235.3	-7
235.518	74.92
235.735	17.58
235.953	113.83
236.17	91.31
236.388	17.58
236.605	136.36
236.822	48.3
237.04	83.11
237.257	33.96
237.475	-2.9
237.692	91.31
237.909	111.78
238.127	50.35
238.344	79.02
238.562	66.73
238.779	54.44
238.996	79.02
239.214	9.39
239.431	11.43
239.648	3.24
239.865	31.91
240.083	3.24
240.3	25.77
240.517	33.96
240.735	54.44
240.952	60.59
241.169	136.36
241.386	-21.33
241.603	109.74
241.821	-0.85
242.038	76.97
242.255	-2.9
242.472	76.97
242.689	-13.14
242.907	83.11
243.124	42.15
243.341	27.82
243.558	27.82
243.775	-11.09
243.992	-13.14
244.209	136.36
244.426	124.07
244.643	74.92
244.86	3.24
245.078	68.78
245.295	42.15
245.512	70.83
245.729	25.77
245.946	85.16
246.163	-43.86
246.38	27.82
246.597	70.83
246.814	44.2
247.031	-4.95
247.248	119.98
247.464	60.59
247.681	66.73
247.898	7.34
248.115	99.5
248.332	11.43
248.549	66.73
248.766	3.24
248.983	44.2
249.2	23.72
249.417	70.83
249.633	46.25
249.85	74.92
250.067	-9.05
250.284	81.07
250.501	38.06
250.717	29.87
250.934	50.35
251.151	11.43
251.368	33.96
251.585	21.67
251.801	113.83
252.018	66.73
252.235	103.59
252.451	27.82
252.668	52.39
252.885	52.39
253.102	48.3
253.318	68.78
253.535	-23.38
253.752	85.16
253.968	19.63
254.185	40.11
254.401	27.82
254.618	68.78
254.835	81.07
255.051	87.21
255.268	134.31
255.484	33.96
255.701	31.91
255.917	93.35
256.134	29.87
256.351	-35.67
256.567	13.48
256.784	107.69
257	19.63
257.217	-23.38
257.433	46.25
257.65	119.98
257.866	54.44
258.082	1.19
258.299	19.63
258.515	54.44
258.732	83.11
258.948	17.58
259.165	-7
259.381	-23.38
259.597	25.77
259.814	105.64
260.03	54.44
260.246	62.63
260.463	62.63
260.679	76.97
260.895	19.63
261.112	48.3
261.328	13.48
261.544	-7
261.761	66.73
261.977	46.25
262.193	1.19
262.409	132.26
262.626	119.98
262.842	111.78
263.058	66.73
263.274	23.72
263.49	25.77
263.707	11.43
263.923	109.74
264.139	25.77
264.355	62.63
264.571	58.54
264.787	9.39
265.004	68.78
265.22	7.34
265.436	5.29
265.652	72.87
265.868	33.96
266.084	5.29
266.3	40.11
266.516	62.63
266.732	107.69
266.948	21.67
267.164	66.73
267.38	29.87
267.596	11.43
267.812	62.63
268.028	148.65
268.244	115.88
268.46	109.74
268.676	60.59
268.892	54.44
269.108	27.82
269.324	13.48
269.54	36.01
269.756	1.19
269.972	27.82
270.188	70.83
270.403	17.58
270.619	50.35
270.835	-2.9
271.051	74.92
271.267	48.3
271.483	54.44
271.698	54.44
271.914	25.77
272.13	113.83
272.346	126.12
272.562	13.48
272.777	85.16
272.993	-52.05
273.209	11.43
273.425	58.54
273.64	42.15
273.856	54.44
274.072	42.15
274.287	36.01
274.503	87.21
274.719	107.69
274.934	36.01
275.15	-29.52
275.366	-7
275.581	74.92
275.797	85.16
276.012	42.15
276.228	46.25
276.444	113.83
276.659	64.68
276.875	11.43
277.09	74.92
277.306	27.82
277.521	93.35
277.737	25.77
277.952	52.39
278.168	13.48
278.383	54.44
278.599	44.2
278.814	132.26
279.03	36.01
279.245	128.17
279.461	-15.19
279.676	74.92
279.892	54.44
280.107	68.78
280.322	38.06
280.538	-2.9
280.753	107.69
280.969	74.92
281.184	66.73
281.399	62.63
281.615	25.77
281.83	46.25
282.045	3.24
282.26	42.15
282.476	66.73
282.691	42.15
282.906	50.35
283.122	109.74
283.337	-23.38
283.552	76.97
283.767	-7
283.983	58.54
284.198	58.54
284.413	105.64
284.628	21.67
284.843	50.35
285.058	66.73
285.274	60.59
285.489	29.87
285.704	79.02
285.919	113.83
286.134	1.19
286.349	3.24
286.564	46.25
286.779	148.65
286.995	33.96
287.21	33.96
287.425	54.44
287.64	58.54
287.855	25.77
288.07	36.01
288.285	79.02
288.5	50.35
288.715	74.92
288.93	46.25
289.145	-4.95
289.36	50.35
289.575	52.39
289.79	107.69
290.004	50.35
290.219	44.2
290.434	-29.52
290.649	89.26
290.864	36.01
291.079	66.73
291.294	97.45
291.509	40.11
291.724	56.49
291.938	68.78
292.153	66.73
292.368	60.59
292.583	74.92
292.798	54.44
293.012	52.39
293.227	54.44
293.442	97.45
293.657	95.4
293.871	21.67
294.086	64.68
294.301	95.4
294.516	79.02
294.73	66.73
294.945	27.82
295.16	31.91
295.374	48.3
295.589	83.11
295.804	54.44
296.018	1.19
296.233	85.16
296.447	11.43
296.662	48.3
296.877	148.65
297.091	83.11
297.306	124.07
297.52	-11.09
297.735	17.58
297.949	19.63
298.164	140.46
298.378	40.11
298.593	40.11
298.807	-2.9
299.022	64.68
299.236	83.11
299.451	27.82
299.665	97.45
299.88	62.63
300.094	46.25
300.309	99.5
300.523	-27.48
300.737	-31.57
300.952	48.3
301.166	44.2
301.381	36.01
301.595	50.35
301.809	13.48
302.024	5.29
302.238	-29.52
302.452	117.93
302.667	27.82
302.881	103.59
303.095	60.59
303.309	79.02
303.524	31.91
303.738	7.34
303.952	42.15
304.166	50.35
304.381	-64.34
304.595	124.07
304.809	-37.72
305.023	25.77
305.237	70.83
305.452	107.69
305.666	91.31
305.88	48.3
306.094	101.55
306.308	-2.9
306.522	74.92
306.736	95.4
306.95	-31.57
307.164	29.87
307.379	64.68
307.593	132.26
307.807	83.11
308.021	101.55
308.235	-25.43
308.449	36.01
308.663	-17.24
308.877	103.59
309.091	42.15
309.305	9.39
309.519	36.01
309.733	56.49
309.947	42.15
310.161	58.54
310.374	17.58
310.588	89.26
310.802	52.39
311.016	21.67
311.23	54.44
311.444	85.16
311.658	-7
311.872	93.35
312.085	70.83
312.299	79.02
312.513	48.3
312.727	46.25
312.941	-21.33
313.154	15.53
313.368	52.39
313.582	119.98
313.796	23.72
314.009	42.15
314.223	111.78
314.437	109.74
314.651	99.5
314.864	46.25
315.078	33.96
315.292	52.39
315.505	29.87
315.719	107.69
315.933	50.35
316.146	50.35
316.36	64.68
316.573	68.78
316.787	46.25
317.001	-25.43
317.214	58.54
317.428	72.87
317.641	-21.33
317.855	5.29
318.068	13.48
318.282	33.96
318.495	74.92
318.709	36.01
318.922	46.25
319.136	132.26
319.349	54.44
319.563	17.58
319.776	107.69
319.99	-29.52
320.203	76.97
320.417	19.63
320.63	87.21
320.843	150.7
321.057	48.3
321.27	138.41
321.483	48.3
321.697	83.11
321.91	56.49
322.124	33.96
322.337	33.96
322.55	44.2
322.763	46.25
322.977	31.91
323.19	83.11
323.403	44.2
323.617	38.06
323.83	126.12
324.043	54.44
324.256	62.63
324.469	-31.57
324.683	54.44
324.896	-23.38
325.109	66.73
325.322	-19.29
325.535	17.58
325.748	33.96
325.962	1.19
326.175	58.54
326.388	89.26
326.601	68.78
326.814	173.22
327.027	140.46
327.24	132.26
327.453	-56.15
327.666	25.77
327.879	91.31
328.092	97.45
328.305	60.59
328.518	25.77
328.731	91.31
328.944	107.69
329.157	44.2
329.37	27.82
329.583	179.37
329.796	134.31
330.009	1.19
330.222	62.63
330.435	42.15
330.648	52.39
330.861	25.77
331.073	66.73
331.286	66.73
331.499	58.54
331.712	-2.9
331.925	62.63
332.138	42.15
332.35	52.39
332.563	50.35
332.776	132.26
332.989	44.2
333.202	58.54
333.414	68.78
333.627	79.02
333.84	29.87
334.053	83.11
334.265	66.73
334.478	56.49
334.691	113.83
334.903	109.74
335.116	15.53
335.329	33.96
335.541	83.11
335.754	62.63
335.966	50.35
336.179	33.96
336.392	79.02
336.604	52.39
336.817	107.69
337.029	62.63
337.242	-39.76
337.454	83.11
337.667	79.02
337.88	128.17
338.092	17.58
338.305	91.31
338.517	33.96
338.729	25.77
338.942	68.78
339.154	40.11
339.367	83.11
339.579	25.77
339.792	15.53
340.004	97.45
340.217	48.3
340.429	99.5
340.641	27.82
340.854	64.68
341.066	46.25
341.278	109.74
341.491	79.02
341.703	107.69
341.915	-11.09
342.128	111.78
342.34	50.35
342.552	44.2
342.764	70.83
342.977	74.92
343.189	97.45
343.401	83.11
343.613	3.24
343.826	44.2
344.038	50.35
344.25	70.83
344.462	36.01
344.674	66.73
344.886	44.2
345.099	74.92
345.311	19.63
345.523	1.19
345.735	19.63
345.947	42.15
346.159	62.63
346.371	85.16
346.583	56.49
346.795	132.26
347.007	64.68
347.219	38.06
347.431	68.78
347.643	83.11
347.855	95.4
348.067	148.65
348.279	23.72
348.491	111.78
348.703	89.26
348.915	27.82
349.127	27.82
349.339	79.02
349.551	103.59
349.763	95.4
349.975	62.63
350.187	17.58
350.399	148.65
350.61	52.39
350.822	5.29
351.034	38.06
351.246	-29.52
351.458	93.35
351.669	27.82
351.881	101.55
352.093	25.77
352.305	40.11
352.517	48.3
352.728	19.63
352.94	13.48
353.152	148.65
353.363	64.68
353.575	87.21
353.787	132.26
353.999	70.83
354.21	111.78
354.422	136.36
354.633	115.88
354.845	101.55
355.057	62.63
355.268	52.39
355.48	25.77
355.692	62.63
355.903	54.44
356.115	-23.38
356.326	25.77
356.538	117.93
356.749	83.11
356.961	115.88
357.172	74.92
357.384	66.73
357.595	105.64
357.807	93.35
358.018	-23.38
358.23	85.16
358.441	95.4
358.653	85.16
358.864	11.43
359.075	115.88
359.287	52.39
359.498	74.92
359.709	107.69
359.921	99.5
360.132	48.3
360.344	1.19
360.555	64.68
360.766	66.73
360.977	58.54
361.189	115.88
361.4	87.21
361.611	23.72
361.823	93.35
362.034	25.77
362.245	95.4
362.456	27.82
362.667	87.21
362.879	66.73
363.09	52.39
363.301	-13.14
363.512	25.77
363.723	93.35
363.935	7.34
364.146	115.88
364.357	36.01
364.568	25.77
364.779	68.78
364.99	101.55
365.201	130.22
365.412	132.26
365.623	60.59
365.834	33.96
366.045	-45.91
366.256	85.16
366.467	17.58
366.678	76.97
366.889	25.77
367.1	42.15
367.311	42.15
367.522	99.5
367.733	101.55
367.944	79.02
368.155	52.39
368.366	66.73
368.577	66.73
368.788	132.26
368.999	70.83
369.209	87.21
369.42	128.17
369.631	99.5
369.842	66.73
370.053	93.35
370.264	31.91
370.474	95.4
370.685	50.35
370.896	83.11
371.107	76.97
371.317	160.94
371.528	17.58
371.739	74.92
371.95	81.07
372.16	91.31
372.371	17.58
372.582	126.12
372.792	15.53
373.003	99.5
373.214	156.84
373.424	93.35
373.635	29.87
373.846	29.87
374.056	60.59
374.267	83.11
374.477	89.26
374.688	62.63
374.898	99.5
375.109	91.31
375.319	70.83
375.53	111.78
375.74	140.46
375.951	25.77
376.161	36.01
376.372	136.36
376.582	87.21
376.793	66.73
377.003	103.59
377.214	81.07
377.424	50.35
377.635	33.96
377.845	99.5
378.055	95.4
378.266	36.01
378.476	56.49
378.686	146.6
378.897	25.77
379.107	33.96
379.317	111.78
379.528	124.07
379.738	128.17
379.948	-11.09
380.158	111.78
380.369	89.26
380.579	33.96
380.789	58.54
380.999	38.06
381.21	101.55
381.42	99.5
381.63	64.68
381.84	158.89
382.05	76.97
382.261	83.11
382.471	87.21
382.681	19.63
382.891	93.35
383.101	66.73
383.311	60.59
383.521	33.96
383.731	115.88
383.941	58.54
384.151	48.3
384.361	62.63
384.571	91.31
384.781	9.39
384.991	126.12
385.201	52.39
385.411	126.12
385.621	115.88
385.831	62.63
386.041	140.46
386.251	-4.95
386.461	91.31
386.671	76.97
386.881	95.4
387.091	119.98
387.301	103.59
387.511	62.63
387.72	46.25
387.93	64.68
388.14	113.83
388.35	-2.9
388.56	85.16
388.769	109.74
388.979	83.11
389.189	81.07
389.399	124.07
389.609	95.4
389.818	99.5
390.028	46.25
390.238	60.59
390.447	99.5
390.657	105.64
390.867	50.35
391.076	25.77
391.286	46.25
391.496	13.48
391.705	48.3
391.915	158.89
392.125	111.78
392.334	60.59
392.544	130.22
392.753	132.26
392.963	138.41
393.172	70.83
393.382	1.19
393.591	132.26
393.801	5.29
394.01	152.74
394.22	132.26
394.429	107.69
394.639	19.63
394.848	146.6
395.058	66.73
395.267	142.5
395.477	60.59
395.686	152.74
395.895	144.55
396.105	150.7
396.314	85.16
396.524	70.83
396.733	115.88
396.942	87.21
397.152	177.32
397.361	183.46
397.57	109.74
397.78	150.7
397.989	107.69
398.198	142.5
398.407	115.88
398.617	115.88
398.826	99.5
399.035	160.94
399.244	97.45
399.453	132.26
399.663	124.07
399.872	148.65
400.081	119.98
400.29	230.57
400.499	89.26
400.708	99.5
400.917	126.12
401.127	76.97
401.336	85.16
401.545	173.22
401.754	165.03
401.963	134.31
402.172	191.66
402.381	142.5
402.59	130.22
402.799	152.74
403.008	140.46
403.217	189.61
403.426	140.46
403.635	117.93
403.844	124.07
404.053	249
404.262	126.12
404.471	195.75
404.68	183.46
404.888	226.47
405.097	240.81
405.306	162.98
405.515	218.28
405.724	220.33
405.933	281.77
406.142	271.53
406.35	242.85
406.559	246.95
406.768	214.18
406.977	177.32
407.185	271.53
407.394	246.95
407.603	214.18
407.812	281.77
408.02	249
408.229	242.85
408.438	300.2
408.646	292.01
408.855	283.81
409.064	240.81
409.272	355.49
409.481	330.92
409.69	337.06
409.898	304.29
410.107	357.54
410.315	388.26
410.524	353.45
410.733	378.02
410.941	408.74
411.15	337.06
411.358	453.8
411.567	468.13
411.775	437.41
411.984	509.09
412.192	599.2
412.401	574.63
412.609	548
412.818	664.74
413.026	607.39
413.234	586.91
413.443	640.16
413.651	543.91
413.86	705.7
414.068	720.03
414.276	701.6
414.485	754.85
414.693	783.52
414.901	844.96
415.11	738.46
415.318	726.18
415.526	885.92
415.734	955.55
415.943	957.6
416.151	926.88
416.359	1010.84
416.567	951.45
416.776	949.4
416.984	1139.87
417.192	1084.57
417.4	1105.05
417.608	1139.87
417.817	1203.35
418.025	1178.78
418.233	1373.33
418.441	1272.98
418.649	1320.09
418.857	1344.66
419.065	1477.78
419.273	1418.39
419.481	1557.65
419.689	1557.65
419.897	1731.73
420.105	1840.27
420.313	1770.64
420.521	1838.22
420.729	1971.34
420.937	1848.46
421.145	1883.28
421.353	2065.55
421.561	2083.98
421.769	2339.97
421.977	2200.71
422.185	2446.47
422.393	2493.57
422.601	2524.29
422.809	2501.76
423.017	2491.52
423.224	2716.8
423.432	2753.66
423.64	2657.41
423.848	3034.24
424.056	2899.07
424.263	3097.72
424.471	3093.63
424.679	3253.37
424.887	3372.15
425.094	3449.97
425.302	3449.97
425.51	3714.16
425.718	3673.2
425.925	3808.37
426.133	3953.77
426.341	4162.67
426.548	4408.42
426.756	4476.01
426.964	4420.71
427.171	4592.74
427.379	4850.78
427.586	4899.94
427.794	4914.27
428.001	5252.19
428.209	5477.46
428.417	5350.49
428.624	5751.89
428.832	5882.96
429.039	5571.67
429.247	5678.16
429.454	6292.55
429.662	6483.02
429.869	6374.47
430.076	6634.57
430.284	6620.23
430.491	6861.89
430.699	7177.28
430.906	7160.89
431.114	7496.76
431.321	7578.68
431.528	7689.27
431.736	8197.17
431.943	8676.39
432.15	8340.52
432.358	8399.91
432.565	8879.14
432.772	8942.63
432.979	9151.52
433.187	9327.64
433.394	9413.66
433.601	10155.02
433.808	10200.08
434.016	10134.54
434.223	10482.7
434.43	11189.25
434.637	10949.64
434.844	11621.37
435.052	11846.65
435.259	11652.09
435.466	11916.28
435.673	11998.2
435.88	12563.43
436.087	13298.66
436.294	13102.05
436.501	12880.87
436.708	12936.17
436.915	13640.67
437.122	14230.48
437.329	13865.94
437.537	14396.37
437.743	15043.53
437.95	14754.76
438.157	15504.32
438.364	16298.93
438.571	15913.91
438.778	15981.49
438.985	17552.29
439.192	16726.96
439.399	17277.86
439.606	16798.63
439.813	18047.9
440.02	19149.7
440.227	18736.01
440.433	18443.15
440.64	19205
440.847	19194.76
441.054	19258.24
441.261	20431.73
441.467	20355.96
441.674	21103.46
441.881	21672.8
442.088	21670.75
442.294	21343.08
442.501	21803.87
442.708	22238.04
442.914	23137.1
443.121	23991.1
443.328	23434.05
443.534	25324.33
443.741	24259.38
443.948	24113.98
444.154	25830.18
444.361	25774.88
444.568	25774.88
444.774	25951.01
444.981	26182.43
445.187	26852.11
445.394	27785.99
445.6	27790.08
445.807	30266.08
446.013	28945.14
446.22	29825.76
446.426	30855.89
446.633	30816.98
446.839	31998.66
447.046	30610.14
447.252	32316.09
447.459	32262.85
447.665	31789.77
447.871	33639.08
448.078	34732.7
448.284	33346.22
448.491	34470.56
448.697	35424.91
448.903	36360.83
449.11	36280.96
449.316	35596.94
449.522	36274.82
449.728	37384.82
449.935	37976.68
450.141	37591.66
450.347	38222.44
450.553	37104.24
450.76	37935.72
450.966	38574.69
451.172	38453.86
451.378	39477.84
451.584	38466.14
451.791	39414.35
451.997	39432.78
452.203	40122.95
452.409	40198.73
452.615	40297.03
452.821	38410.85
453.027	38290.02
453.233	40276.55
453.44	38607.45
453.646	38476.38
453.852	39397.97
454.058	39768.65
454.264	38351.46
454.47	39334.48
454.676	38466.14
454.882	39809.61
455.088	36428.41
455.294	36592.25
455.5	37601.9
455.705	37841.51
455.911	36600.44
456.117	35568.27
456.323	35418.77
456.529	33534.63
456.735	34914.97
456.941	33766.06
457.147	33497.77
457.352	32701.11
457.558	32350.91
457.764	32053.95
457.97	31576.78
458.176	30710.49
458.381	31281.87
458.587	29606.63
458.793	29313.77
458.999	27966.21
459.204	30169.82
459.41	29231.85
459.616	27618.05
459.821	27319.05
460.027	27087.63
460.233	26735.38
460.438	25428.77
460.644	25504.55
460.85	24265.53
461.055	24238.9
461.261	23880.51
461.466	22223.7
461.672	21699.42
461.878	22909.77
462.083	21732.19
462.289	21138.28
462.494	21068.65
462.7	20056.95
462.905	19473.28
463.111	20597.62
463.316	20276.09
463.522	19915.64
463.727	19901.31
463.932	20015.99
464.138	19233.67
464.343	19680.13
464.549	19084.17
464.754	19458.95
464.959	19456.9
465.165	19538.82
465.37	18600.85
465.575	18453.39
465.781	19020.68
465.986	18879.37
466.191	18289.56
466.397	17796
466.602	17058.73
466.807	17689.5
467.012	17744.8
467.218	17714.08
467.423	17238.95
467.628	17613.73
467.833	18197.4
468.038	17640.35
468.244	17130.41
468.449	17822.62
468.654	17097.64
468.859	16931.75
469.064	17009.58
469.269	16311.22
469.474	16444.34
469.679	16772.01
469.885	16288.69
470.09	16526.25
470.295	16485.3
470.5	16118.71
470.705	16157.62
470.91	15647.68
471.115	15582.14
471.32	15903.67
471.525	15815.61
471.73	15342.53
471.935	15356.86
472.139	14834.63
472.344	14863.3
472.549	14797.77
472.754	14601.16
472.959	14451.66
473.164	14113.75
473.369	13923.29
473.574	14445.52
473.778	14449.61
473.983	14214.1
474.188	14070.74
474.393	13394.91
474.598	13366.24
474.802	13308.9
475.007	13202.4
475.212	13186.02
475.417	12841.96
475.621	12807.14
475.826	12878.82
476.031	12334.06
476.235	12348.4
476.44	12540.91
476.645	12600.3
476.849	12510.19
477.054	12379.12
477.259	11920.37
477.463	11928.56
477.668	11619.32
477.872	11744.25
478.077	11594.75
478.282	11338.75
478.486	11414.52
478.691	11404.28
478.895	11324.41
479.1	11140.1
479.304	11211.78
479.509	10812.42
479.713	10990.59
479.918	10730.5
480.122	10585.1
480.326	10814.47
480.531	10929.16
480.735	10818.57
480.94	10718.22
481.144	11101.19
481.348	10423.31
481.553	10529.8
481.757	10454.03
481.961	10492.94
482.166	10732.55
482.37	10400.78
482.574	10210.32
482.778	10488.84
482.983	10722.31
483.187	10466.31
483.391	10380.3
483.595	10292.24
483.8	10271.76
484.004	10398.73
484.208	10517.51
484.412	10292.24
484.616	10251.28
484.821	10552.33
485.025	10177.55
485.229	10494.99
485.433	10214.41
485.637	10277.9
485.841	10238.99
486.045	10257.42
486.249	10417.16
486.453	10195.98
486.657	10576.91
486.861	10511.37
487.065	10079.25
487.269	10447.88
487.473	10179.6
487.677	10699.78
487.881	10513.42
488.085	10282
488.289	10388.49
488.493	10236.94
488.697	10445.84
488.901	10570.76
489.105	10404.88
489.309	10259.47
489.512	10527.75
489.716	10556.43
489.92	10535.95
490.124	10427.4
490.328	10693.64
490.531	10544.14
490.735	10757.13
490.939	10558.47
491.143	10660.87
491.346	10724.36
491.55	11111.43
491.754	10746.89
491.958	10875.91
492.161	10886.15
492.365	10953.73
492.569	10818.57
492.772	10826.76
492.976	11121.66
493.18	11111.43
493.383	11254.78
493.587	11314.17
493.79	11463.68
493.994	11283.45
494.197	11424.76
494.401	11668.47
494.605	11375.61
494.808	11711.48
495.012	11678.71
495.215	11783.16
495.419	12026.87
495.622	11807.73
495.825	12182.51
496.029	12092.4
496.232	12356.59
496.436	12215.28
496.639	12538.86
496.843	12291.06
497.046	12962.79
497.249	12831.72
497.453	12973.03
497.656	13036.52
497.859	12805.1
498.063	13198.31
498.266	13542.36
498.469	13710.3
498.673	13446.11
498.876	13831.13
499.079	13558.75
499.282	13919.19
499.485	14035.92
499.689	14314.45
499.892	14691.27
500.095	14386.13
500.298	14775.24
500.501	15012.81
500.705	14963.65
500.908	15309.76
501.111	15453.12
501.314	15582.14
501.517	15819.71
501.72	15889.34
501.923	15803.32
502.126	16434.1
502.329	16417.71
502.532	16608.17
502.735	16737.2
502.938	17099.69
503.141	17013.67
503.344	17255.33
503.547	17472.42
503.75	17335.2
503.953	17918.87
504.156	18226.07
504.359	18221.97
504.562	18236.31
504.765	18551.7
504.968	18965.39
505.17	18951.05
505.373	18885.51
505.576	19374.98
505.779	19477.38
505.982	19757.95
506.185	20079.48
506.387	19921.79
506.59	20194.17
506.793	20640.62
506.996	20257.65
507.198	21173.1
507.401	21132.14
507.604	21349.22
507.807	21873.5
508.009	21676.9
508.212	21943.13
508.415	22475.6
508.617	22596.43
508.82	22856.53
509.022	22889.29
509.225	23079.75
509.428	23311.17
509.63	23483.2
509.833	23614.27
510.035	24177.47
510.238	23962.43
510.44	24316.73
510.643	24892.21
510.845	24865.58
511.048	24734.51
511.25	25094.96
511.453	25690.91
511.655	26290.97
511.858	26444.57
512.06	26202.91
512.262	26821.39
512.465	26952.46
512.667	26649.36
512.87	27038.48
513.072	27382.54
513.274	27749.12
513.477	28072.7
513.679	28353.27
513.881	28711.67
514.084	28629.75
514.286	29086.45
514.488	29151.98
514.69	29840.1
514.893	29678.31
515.095	29823.72
515.297	30208.73
515.499	30456.54
515.701	30563.03
515.904	30767.83
516.106	31005.39
516.308	31527.63
516.51	32172.74
516.712	31648.46
516.914	32314.05
517.116	32963.25
517.318	32797.37
517.52	32971.44
517.722	33125.04
517.925	33665.7
518.127	33915.56
518.329	34134.69
518.531	33899.17
518.733	34773.66
518.935	34845.33
519.136	34794.14
519.338	35850.89
519.54	35302.03
519.742	35734.15
519.944	35805.83
520.146	36407.94
520.348	36717.18
520.55	36946.55
520.752	37190.26
520.954	37749.35
521.155	37735.02
521.357	38392.42
521.559	38269.54
521.761	38791.77
521.963	38683.23
522.164	38828.63
522.366	39184.98
522.568	39682.64
522.77	39653.97
522.971	40235.59
523.173	39967.3
523.375	40471.11
523.576	40110.66
523.778	40747.58
523.98	41132.6
524.181	41247.29
524.383	41110.07
524.584	41826.86
524.786	41636.4
524.988	41550.38
525.189	42338.85
525.391	42453.54
525.592	42615.33
525.794	42738.21
525.995	42818.08
526.197	43096.6
526.398	43311.64
526.6	43041.31
526.801	43375.12
527.003	43817.49
527.204	43854.35
527.406	44005.9
527.607	44268.04
527.808	44024.33
528.01	43717.14
528.211	43954.7
528.412	45076.99
528.614	44538.37
528.815	44751.36
529.016	44866.05
529.218	44587.52
529.419	44722.69
529.62	45390.33
529.822	44825.09
530.023	45320.7
530.224	45279.74
530.425	45056.51
530.626	44902.91
530.828	44874.24
531.029	46217.71
531.23	45244.92
531.431	45636.08
531.632	45650.42
531.833	45781.49
532.035	45560.31
532.236	46135.79
532.437	46098.92
532.638	45496.82
532.839	46223.85
533.04	46326.25
533.241	45654.51
533.442	46461.41
533.643	45814.26
533.844	45992.43
534.045	45982.19
534.246	46023.15
534.447	46547.43
534.648	46172.65
534.849	45904.37
535.05	45959.66
535.251	46447.08
535.451	45937.13
535.652	46488.04
535.853	46313.96
536.054	46520.8
536.255	46184.94
536.456	45885.93
536.657	46821.86
536.857	45914.61
537.058	45631.99
537.259	46598.63
537.46	46873.06
537.66	46238.19
537.861	46055.92
538.062	46344.68
538.263	45892.08
538.463	45836.78
538.664	45822.45
538.865	46029.29
539.065	46184.94
539.266	45742.58
539.466	46588.39
539.667	45568.5
539.868	46617.06
540.068	46047.72
540.269	45783.54
540.469	46391.78
540.67	46248.42
540.87	46031.34
541.071	46098.92
541.271	46461.41
541.472	46350.82
541.672	45820.4
541.873	45918.7
542.073	45722.1
542.274	46510.56
542.474	45814.26
542.675	45849.07
542.875	46037.48
543.075	45752.82
543.276	45693.43
543.476	46449.13
543.676	45818.35
543.877	46168.55
544.077	46365.16
544.277	46361.06
544.478	46111.21
544.678	45683.19
544.878	45986.28
545.078	45595.12
545.279	45654.51
545.479	45545.97
545.679	45656.56
545.879	45978.09
546.079	46014.96
546.28	45689.33
546.48	45079.03
546.68	45982.19
546.88	46201.32
547.08	45672.95
547.28	45492.72
547.48	45674.99
547.68	45791.73
547.88	45447.67
548.081	46201.32
548.281	45826.54
548.481	45738.48
548.681	46047.72
548.881	45767.15
549.081	45474.29
549.28	45529.59
549.48	45783.54
549.68	45433.33
549.88	45996.52
550.08	45052.41
550.28	45627.89
550.48	45521.4
550.68	45650.42
550.88	45507.06
551.08	45691.38
551.279	45715.95
551.479	45605.36
551.679	45621.75
551.879	45138.43
552.079	45470.2
552.278	45134.33
552.478	45138.43
552.678	45615.6
552.878	45226.49
553.077	45218.3
553.277	44732.93
553.477	45668.85
553.676	45115.9
553.876	45259.26
554.076	45152.76
554.275	45304.31
554.475	44708.35
554.674	45173.24
554.874	45271.54
555.074	44638.72
555.273	44915.2
555.473	45421.05
555.672	44601.86
555.872	44724.74
556.071	44925.44
556.271	44775.94
556.47	44880.38
556.67	44186.12
556.869	44579.33
557.068	44706.3
557.268	44356.1
557.467	44759.55
557.667	44388.87
557.866	44882.43
558.065	44704.26
558.265	44263.94
558.464	44050.95
558.663	44689.92
558.863	44155.4
559.062	44438.02
559.261	43829.77
559.461	44708.35
559.66	44161.54
559.859	44059.15
560.058	44104.2
560.258	44263.94
560.457	43856.4
560.656	44188.17
560.855	43788.81
561.054	44083.72
561.253	43411.99
561.453	43837.97
561.652	43620.88
561.851	43590.16
562.05	43629.07
562.249	43641.36
562.448	43835.92
562.647	43553.3
562.846	43463.19
563.045	43635.22
563.244	43057.69
563.443	43467.28
563.642	42654.24
563.841	43325.97
564.04	43164.18
564.239	43160.09
564.438	42684.96
564.637	43188.76
564.836	43401.75
565.035	42244.65
565.234	42799.65
565.432	42365.48
565.631	42580.51
565.83	42535.46
566.029	42463.78
566.228	41921.07
566.427	42172.97
566.625	41955.88
566.824	41652.78
567.023	42228.26
567.222	41630.26
567.42	42101.29
567.619	41787.95
567.818	41476.66
568.016	41511.47
568.215	41919.02
568.414	41458.23
568.612	41972.27
568.811	41521.71
569.01	41355.83
569.208	41110.07
569.407	41519.67
569.605	40706.62
569.804	41361.97
570.002	40636.99
570.201	40974.91
570.4	40878.65
570.598	40454.72
570.797	40526.4
570.995	40809.02
571.193	40118.85
571.392	40766.01
571.59	39981.64
571.789	40555.07
571.987	40131.14
572.186	40294.98
572.384	40237.64
572.582	40200.77
572.781	39918.15
572.979	39557.71
573.177	39793.23
573.376	39629.39
573.574	39385.68
573.772	39776.84
573.971	39453.26
574.169	39584.33
574.367	39178.84
574.565	39432.78
574.763	39211.6
574.962	38709.85
575.16	38582.88
575.358	38638.17
575.556	38376.03
575.754	39131.73
575.952	38173.28
576.151	38480.48
576.349	38173.28
576.547	38328.93
576.745	38230.63
576.943	38273.63
577.141	38322.79
577.339	38056.55
577.537	37929.58
577.735	37769.83
577.933	37956.2
578.131	37823.08
578.329	37538.41
578.527	37360.24
578.725	37462.64
578.923	37368.43
579.121	36813.43
579.319	37448.3
579.516	37245.55
579.714	36633.21
579.912	36846.2
580.11	36973.17
580.308	36762.23
580.506	36731.51
580.704	36483.71
580.901	36428.41
581.099	36819.58
581.297	36457.09
581.495	36371.07
581.692	36573.82
581.89	35789.45
582.088	36029.06
582.285	35904.13
582.483	35877.51
582.681	35709.58
582.878	35828.36
583.076	35486.35
583.274	35506.83
583.471	35431.05
583.669	35234.45
583.866	35213.97
584.064	35410.57
584.262	34626.2
584.459	35087
584.657	34562.72
584.854	35261.07
585.052	34196.13
585.249	34820.76
585.447	34650.78
585.644	34087.59
585.841	34476.7
586.039	34652.83
586.236	34017.96
586.434	33964.71
586.631	34134.69
586.828	33907.37
587.026	33899.17
587.223	33919.65
587.42	33497.77
587.618	33585.83
587.815	33368.75
588.012	33219.25
588.21	32979.64
588.407	33442.48
588.604	32981.68
588.801	32787.13
588.999	33059.51
589.196	32907.96
589.393	33106.61
589.59	32518.84
589.787	32572.09
589.984	32508.6
590.182	32201.41
590.379	32484.03
590.576	32135.87
590.773	32105.15
590.97	32049.86
591.167	32035.52
591.364	31521.48
591.561	31953.6
591.758	31578.82
591.955	31650.5
592.152	31863.49
592.349	31242.96
592.546	31253.2
592.743	31439.56
592.94	30999.25
593.137	31156.94
593.334	31210.19
593.531	30986.96
593.727	31165.14
593.924	30653.14
594.121	30552.79
594.318	30876.37
594.515	30683.86
594.712	30558.94
594.908	30534.36
595.105	30200.54
595.302	29948.64
595.499	30216.93
595.696	30069.47
595.892	29885.15
596.089	29577.96
596.286	29977.31
596.482	29737.7
596.679	29412.07
596.876	29596.39
597.072	29766.37
597.269	29291.24
597.466	29246.19
597.662	29145.84
597.859	29305.58
598.055	29166.32
598.252	28803.83
598.448	29049.58
598.645	28834.55
598.841	28535.54
599.038	28410.62
599.234	28785.4
599.431	28130.05
599.627	28125.95
599.824	28621.56
600.02	28201.72
600.217	28238.59
600.413	28046.08
600.609	28115.71
600.806	28216.06
601.002	27661.06
601.198	27800.32
601.395	27511.56
601.591	27646.72
601.787	27380.49
601.984	27439.88
602.18	27403.02
602.376	27058.96
602.572	27376.39
602.769	27185.93
602.965	26802.96
603.161	27085.58
603.357	26796.82
603.553	26624.79
603.75	27022.09
603.946	26647.32
604.142	26723.09
604.338	26227.48
604.534	26522.39
604.73	25867.04
604.926	26348.31
605.122	26309.4
605.318	25729.83
605.514	25854.75
605.71	25916.19
605.906	25881.38
606.102	25711.39
606.298	25834.27
606.494	25617.19
606.69	25645.86
606.886	25756.45
607.082	25461.54
607.278	25703.2
607.474	25047.85
607.67	25256.75
607.866	24935.21
608.062	25428.77
608.257	25197.35
608.453	24777.52
608.649	25209.64
608.845	24824.62
609.041	25056.04
609.236	25158.44
609.432	24793.9
609.628	24967.98
609.824	24838.96
610.019	24836.91
610.215	24589.11
610.411	24711.99
610.606	24527.67
610.802	24705.84
610.998	24455.99
611.193	24382.26
611.389	24193.85
611.584	24533.81
611.78	24220.47
611.976	23905.09
612.171	24367.93
612.367	24101.69
612.562	23839.55
612.758	23966.52
612.953	24046.4
613.149	24056.64
613.344	23663.43
613.539	24308.54
613.735	23997.24
613.93	23935.81
614.126	23542.6
614.321	23839.55
614.517	23954.24
614.712	23509.83
614.907	23405.38
615.103	23421.77
615.298	23237.45
615.493	23731.01
615.688	23053.13
615.884	23573.31
616.079	23094.09
616.274	23376.71
616.47	23098.19
616.665	23147.34
616.86	22965.07
617.055	22975.31
617.25	22764.37
617.445	22985.55
617.641	22893.39
617.836	22948.68
618.031	22557.52
618.226	22799.18
618.421	22483.8
618.616	22637.39
618.811	22496.08
619.006	22614.87
619.201	21959.52
619.396	22461.27
619.591	21898.08
619.786	22027.1
619.981	22006.62
620.176	22047.58
620.371	21502.82
620.566	21875.55
620.761	21564.26
620.956	21920.6
621.151	21601.12
621.346	21551.97
621.541	21062.51
621.735	21334.89
621.93	20841.32
622.125	20994.92
622.32	20726.64
622.515	20632.43
622.709	20695.92
622.904	20566.9
623.099	20157.3
623.294	20249.46
623.488	20245.37
623.683	20247.41
623.878	19923.83
624.072	19868.54
624.267	19944.31
624.462	19721.09
624.656	19370.88
624.851	19551.1
625.046	19454.85
625.24	19399.55
625.435	19161.99
625.629	19123.08
625.824	19047.3
626.018	19012.49
626.213	18559.89
626.407	18744.2
626.602	18506.64
626.796	18545.55
626.991	18486.16
627.185	18424.72
627.38	18125.72
627.574	17849.24
627.768	17914.78
627.963	17843.1
628.157	17884.06
628.352	17769.37
628.546	17722.27
628.74	17773.47
628.935	17263.52
629.129	17509.28
629.323	17214.37
629.517	17327.01
629.712	16858.03
629.906	17048.49
630.1	16870.31
630.294	16769.96
630.489	16782.25
630.683	16989.1
630.877	16475.06
631.071	16360.37
631.265	16614.32
631.459	16186.29
631.653	16065.46
631.848	16411.57
632.042	16116.66
632.236	16169.91
632.43	16030.65
632.624	16004.02
632.818	15827.9
633.012	15500.22
633.206	15700.92
633.4	15688.64
633.594	15586.24
633.788	15467.45
633.982	15266.75
634.176	15225.79
634.369	15156.16
634.563	15094.72
634.757	14805.96
634.951	15160.26
635.145	15121.35
635.339	14797.77
635.533	14676.94
635.726	14795.72
635.92	14365.65
636.114	14390.22
636.308	14220.24
636.501	14486.48
636.695	14523.34
636.889	14027.73
637.083	13949.91
637.276	14115.8
637.47	14027.73
637.664	13937.62
637.857	13921.24
638.051	13851.61
638.244	13859.8
638.438	13851.61
638.632	13413.34
638.825	13417.44
639.019	13364.19
639.212	13380.57
639.406	13048.8
639.599	13050.85
639.793	13093.86
639.986	13157.35
640.18	13212.64
640.373	12989.41
640.567	12805.1
640.76	12850.15
640.954	12526.57
641.147	12542.96
641.34	12432.36
641.534	12403.69
641.727	12491.76
641.92	12395.5
642.114	12141.55
642.307	12393.45
642.5	12311.53
642.694	11973.62
642.887	11922.42
643.08	12192.75
643.273	11738.1
643.467	11686.9
643.66	11703.29
643.853	11693.05
644.046	11510.78
644.239	11543.55
644.432	11478.01
644.626	11521.02
644.819	11351.04
645.012	11379.71
645.205	11109.38
645.398	11197.44
645.591	11080.71
645.784	11201.54
645.977	11086.85
646.17	11084.8
646.363	10865.67
646.556	10671.11
646.749	10771.46
646.942	10802.18
647.135	10585.1
647.328	10658.82
647.521	10482.7
647.714	10562.57
647.907	10523.66
648.099	10150.93
648.292	10368.01
648.485	10480.65
648.678	10234.89
648.871	10130.45
649.064	10183.7
649.256	10222.61
649.449	9982.99
649.642	9980.95
649.835	9882.64
650.027	9962.51
650.22	9618.46
650.413	9702.42
650.605	9673.75
650.798	9661.46
650.991	9659.42
651.183	9739.29
651.376	9462.81
651.568	9550.87
651.761	9458.71
651.954	9520.15
652.146	9225.25
652.339	9397.28
652.531	9151.52
652.724	9067.55
652.916	9020.45
653.109	9040.93
653.301	9088.03
653.494	9118.75
653.686	8815.65
653.879	8932.39
654.071	8836.13
654.263	8858.66
654.456	8686.63
654.648	8934.43
654.84	8559.66
655.033	8762.4
655.225	8623.14
655.417	8553.51
655.61	8475.69
655.802	8635.43
655.994	8471.59
656.186	8379.43
656.379	8148.01
656.571	8285.23
656.763	8315.95
656.955	8246.32
657.148	8209.45
657.34	8111.15
657.532	8078.38
657.724	7881.78
657.916	7877.68
658.108	7771.19
658.3	7947.31
658.492	7982.13
658.684	7652.41
658.876	7916.59
659.068	7732.28
659.26	7670.84
659.452	7670.84
659.644	7660.6
659.836	7558.2
660.028	7486.52
660.22	7384.12
660.412	7388.22
660.604	7388.22
660.796	7433.27
660.988	7330.87
661.18	7373.88
661.372	7189.56
661.563	7291.96
661.755	7064.64
661.947	7314.49
662.139	7132.22
662.331	7128.13
662.522	7113.79
662.714	6984.77
662.906	6945.86
663.097	6952
663.289	6911.04
663.481	6874.18
663.673	6890.56
663.864	6736.96
664.056	6829.12
664.247	6847.55
664.439	6691.91
664.631	6718.53
664.822	6693.96
665.014	6777.92
665.205	6480.97
665.397	6526.02
665.588	6616.13
665.78	6526.02
665.971	6386.76
666.163	6448.2
666.354	6409.29
666.546	6235.21
666.737	6204.49
666.929	6161.48
667.12	6278.22
667.311	6200.4
667.503	6065.23
667.694	6136.91
667.885	6061.13
668.077	6032.46
668.268	6194.25
668.459	6016.08
668.651	6034.51
668.842	5966.93
669.033	5934.16
669.224	5917.78
669.416	5956.69
669.607	5876.82
669.798	5778.51
669.989	5798.99
670.18	5809.23
670.371	5819.47
670.563	5776.47
670.754	5704.79
670.945	5612.63
671.136	5708.88
671.327	5489.75
671.518	5786.71
671.709	5639.25
671.9	5749.84
672.091	5653.59
672.282	5543
672.473	5436.5
672.664	5401.69
672.855	5606.49
673.046	5481.56
673.237	5557.33
673.428	5393.5
673.619	5467.22
673.809	5432.41
674	5301.34
674.191	5323.87
674.382	5262.43
674.573	5274.71
674.764	5246.04
674.954	5293.15
675.145	5182.56
675.336	5405.78
675.527	5293.15
675.717	5227.61
675.908	5307.48
676.099	5141.6
676.289	5219.42
676.48	5074.01
676.671	4957.28
676.861	5067.87
677.052	4901.98
677.243	5006.43
677.433	4889.7
677.624	5121.12
677.814	4985.95
678.005	4963.42
678.195	5047.39
678.386	5043.29
678.576	4887.65
678.767	5026.91
678.957	4844.64
679.148	4934.75
679.338	4910.18
679.529	4891.74
679.719	4961.37
679.909	4867.17
680.1	4779.11
680.29	4678.76
680.481	4836.45
680.671	4824.16
680.861	4772.96
681.052	4764.77
681.242	4656.23
681.432	4736.1
681.622	4617.32
681.813	4662.37
682.003	4660.32
682.193	4713.57
682.383	4770.91
682.573	4699.23
682.764	4519.01
682.954	4619.36
683.144	4725.86
683.334	4619.36
683.524	4473.96
683.714	4478.05
683.904	4435.05
684.094	4525.16
684.284	4607.08
684.474	4586.6
684.664	4725.86
684.854	4476.01
685.044	4572.26
685.234	4484.2
685.424	4449.38
685.614	4498.53
685.804	4318.31
685.994	4375.66
686.184	4433
686.374	4400.23
686.564	4420.71
686.753	4271.21
686.943	4103.28
687.133	4375.66
687.323	4217.96
687.513	4279.4
687.702	4342.89
687.892	4156.52
688.082	4254.83
688.272	4252.78
688.461	4260.97
688.651	4232.3
688.841	4131.95
689.03	4156.52
689.22	4002.93
689.41	4084.84
689.599	4058.22
689.789	4047.98
689.979	4174.95
690.168	4193.39
690.358	3972.21
690.547	4088.94
690.737	4015.21
690.926	3949.68
691.116	3769.46
691.305	3902.58
691.495	3949.68
691.684	3939.44
691.874	4002.93
692.063	3923.05
692.252	3972.21
692.442	3925.1
692.631	3785.84
692.82	3728.5
693.01	3933.29
693.199	3880.05
693.388	3761.27
693.578	3638.39
693.767	3814.51
693.956	3732.59
694.146	3816.56
694.335	3677.3
694.524	3597.43
694.713	3642.48
694.902	3630.2
695.092	3540.08
695.281	3703.92
695.47	3687.54
695.659	3728.5
695.848	3562.61
696.037	3689.59
696.226	3632.24
696.415	3640.44
696.604	3789.94
696.793	3583.09
696.982	3576.95
697.171	3589.24
697.36	3431.54
697.549	3480.69
697.738	3476.6
697.927	3384.44
698.116	3550.32
698.305	3458.17
698.494	3421.3
698.683	3376.25
698.872	3556.47
699.061	3486.84
699.25	3343.48
699.438	3333.24
699.627	3447.93
699.816	3441.78
700.005	3388.53
700.193	3460.21
700.382	3347.58
700.571	3382.39
700.76	3384.44
700.948	3384.44
701.137	3402.87
701.326	3259.51
701.514	3376.25
701.703	3353.72
701.892	3198.07
702.08	3368.06
702.269	3279.99
702.457	3302.52
702.646	3368.06
702.834	3273.85
703.023	3400.82
703.212	3181.69
703.4	3222.65
703.589	3112.06
703.777	3228.79
703.965	3144.83
704.154	3333.24
704.342	3146.87
704.531	3153.02
704.719	3040.38
704.907	3314.81
705.096	3269.75
705.284	3177.59
705.472	3159.16
705.661	3236.99
705.849	3056.76
706.037	3198.07
706.226	3193.98
706.414	3220.6
706.602	3306.62
706.79	3249.27
706.979	3091.58
707.167	3179.64
707.355	3122.3
707.543	3093.63
707.731	3196.03
707.919	3132.54
708.107	3048.57
708.296	3083.39
708.484	3024
708.672	2954.37
708.86	3050.62
709.048	2999.42
709.236	2999.42
709.424	3148.92
709.612	3007.61
709.8	2958.46
709.988	3052.67
710.176	2993.28
710.364	3067
710.551	2905.21
710.739	2952.32
710.927	2970.75
711.115	2954.37
711.303	3081.34
711.491	2948.22
711.679	2966.65
711.866	2829.44
712.054	2980.99
712.242	3009.66
712.43	2966.65
712.617	2819.2
712.805	3015.8
712.993	2993.28
713.181	2753.66
713.368	2770.05
713.556	2948.22
713.744	2845.82
713.931	2937.98
714.119	2925.69
714.306	2831.49
714.494	2892.93
714.682	2819.2
714.869	2804.86
715.057	2806.91
715.244	2892.93
715.432	2745.47
715.619	2839.68
715.807	2860.16
715.994	2886.78
716.182	2692.23
716.369	2804.86
716.556	2733.18
716.744	2770.05
716.931	2831.49
717.119	2821.25
717.306	2745.47
717.493	2761.86
717.681	2780.29
717.868	2739.33
718.055	2772.1
718.242	2780.29
718.43	2751.62
718.617	2772.1
718.804	2741.38
718.991	2774.14
719.179	2858.11
719.366	2698.37
719.553	2806.91
719.74	2667.65
719.927	2659.46
720.114	2651.27
720.301	2503.81
720.488	2610.31
720.676	2790.53
720.863	2651.27
721.05	2638.98
721.237	2581.64
721.424	2565.25
721.611	2690.18
721.798	2460.81
721.985	2679.94
722.172	2538.63
722.358	2561.16
722.545	2647.17
722.732	2727.04
722.919	2641.03
723.106	2684.03
723.293	2614.4
723.48	2555.01
723.667	2593.92
723.853	2540.68
724.04	2610.31
724.227	2647.17
724.414	2493.57
724.6	2567.3
724.787	2540.68
724.974	2534.53
725.161	2567.3
725.347	2628.74
725.534	2485.38
725.72	2501.76
725.907	2548.87
726.094	2311.3
726.28	2477.19
726.467	2450.57
726.653	2469
726.84	2571.4
727.027	2501.76
727.213	2477.19
727.4	2550.92
727.586	2444.42
727.773	2438.28
727.959	2399.37
728.145	2514.05
728.332	2462.85
728.518	2450.57
728.705	2413.7
728.891	2469
729.077	2333.83
729.264	2376.84
729.45	2528.39
729.636	2501.76
729.823	2393.22
730.009	2532.48
730.195	2372.74
730.382	2469
730.568	2409.61
730.754	2434.18
730.94	2385.03
731.126	2356.36
731.313	2364.55
731.499	2311.3
731.685	2366.6
731.871	2307.21
732.057	2444.42
732.243	2360.45
732.429	2368.65
732.615	2405.51
732.801	2319.5
732.987	2366.6
733.173	2401.41
733.359	2430.09
733.545	2428.04
733.731	2364.55
733.917	2327.69
734.103	2337.93
734.289	2264.2
734.475	2309.26
734.661	2335.88
734.847	2208.9
735.033	2337.93
735.219	2319.5
735.404	2204.81
735.59	2299.02
735.776	2190.47
735.962	2315.4
736.148	2204.81
736.333	2274.44
736.519	2319.5
736.705	2319.5
736.89	2204.81
737.076	2229.38
737.262	2200.71
737.447	2270.34
737.633	2249.86
737.819	2198.67
738.004	2217.1
738.19	2286.73
738.375	2165.9
738.561	2155.66
738.747	2208.9
738.932	2200.71
739.118	2202.76
739.303	2206.86
739.489	2278.54
739.674	2131.08
739.859	2131.08
740.045	2231.43
740.23	2090.12
740.416	1905.81
740.601	2098.31
740.786	2075.79
740.972	2073.74
741.157	2096.27
741.342	2059.4
741.528	2110.6
741.713	2075.79
741.898	2040.97
742.084	2032.78
742.269	2073.74
742.454	2047.12
742.639	2098.31
742.824	1985.68
743.01	2069.64
743.195	2092.17
743.38	1901.71
743.565	1942.67
743.75	2106.51
743.935	2098.31
744.12	2079.88
744.305	1909.9
744.49	1959.05
744.675	1911.95
744.86	1914
745.045	1903.76
745.23	2010.25
745.415	1971.34
745.6	1877.13
745.785	1858.7
745.97	1895.57
746.155	1975.44
746.34	1899.66
746.525	1870.99
746.71	1860.75
746.895	1766.54
747.079	1739.92
747.264	1787.02
747.449	1852.56
747.634	1760.4
747.819	1778.83
748.003	1858.7
748.188	1811.6
748.373	1807.5
748.557	1854.61
748.742	1696.91
748.927	1737.87
749.111	1658
749.296	1717.39
749.481	1635.47
749.665	1666.19
749.85	1658
750.034	1684.62
750.219	1637.52
750.404	1569.94
750.588	1582.23
750.773	1539.22
750.957	1592.47
751.141	1533.08
751.326	1584.27
751.51	1492.12
751.695	1531.03
751.879	1537.17
752.064	1580.18
752.248	1533.08
752.432	1481.88
752.617	1488.02
752.801	1584.27
752.985	1451.16
753.17	1606.8
753.354	1436.82
753.538	1459.35
753.722	1371.29
753.907	1463.44
754.091	1356.95
754.275	1354.9
754.459	1385.62
754.643	1397.91
754.828	1385.62
755.012	1373.33
755.196	1307.8
755.38	1311.89
755.564	1213.59
755.748	1379.48
755.932	1254.55
756.116	1402.01
756.3	1305.75
756.484	1309.85
756.668	1236.12
756.852	1197.21
757.036	1238.17
757.22	1209.5
757.404	1229.98
757.588	1264.79
757.772	1213.59
757.956	1236.12
758.14	1205.4
758.323	1205.4
758.507	1123.48
758.691	1115.29
758.875	1148.06
759.059	1180.82
759.242	1264.79
759.426	1078.43
759.61	1082.52
759.794	1057.95
759.977	1189.02
760.161	1176.73
760.345	1205.4
760.528	1119.39
760.712	1084.57
760.895	1094.81
761.079	1084.57
761.263	1066.14
761.446	1068.19
761.63	1033.37
761.813	1043.61
761.997	1021.08
762.18	1084.57
762.364	1016.99
762.547	986.27
762.731	1053.85
762.914	1025.18
763.098	1029.27
763.281	1031.32
763.464	1043.61
763.648	986.27
763.831	943.26
764.015	1027.23
764.198	984.22
764.381	947.36
764.564	1016.99
764.748	986.27
764.931	971.93
765.114	953.5
765.297	955.55
765.481	935.07
765.664	967.84
765.847	953.5
766.03	961.69
766.213	935.07
766.397	918.68
766.58	939.16
766.763	963.74
766.946	924.83
767.129	879.77
767.312	873.63
767.495	943.26
767.678	773.28
767.861	935.07
768.044	861.34
768.227	847.01
768.41	892.06
768.593	980.12
768.776	869.53
768.959	885.92
769.142	930.97
769.324	941.21
769.507	871.58
769.69	853.15
769.873	812.19
770.056	939.16
770.239	867.49
770.421	822.43
770.604	902.3
770.787	869.53
770.97	828.57
771.152	709.79
771.335	791.71
771.518	816.29
771.7	806.05
771.883	906.4
772.066	771.23
772.248	763.04
772.431	816.29
772.613	818.33
772.796	750.75
772.978	806.05
773.161	871.58
773.343	705.7
773.526	746.66
773.708	781.47
773.891	769.18
774.073	685.22
774.256	666.78
774.438	804
774.621	808.09
774.803	832.67
774.985	758.94
775.168	748.7
775.35	697.5
775.532	734.37
775.715	750.75
775.897	650.4
776.079	681.12
776.261	742.56
776.444	750.75
776.626	679.07
776.808	679.07
776.99	695.46
777.173	672.93
777.355	746.66
777.537	623.78
777.719	740.51
777.901	615.59
778.083	677.02
778.265	631.97
778.447	644.26
778.629	593.06
778.811	580.77
778.993	662.69
779.175	720.03
779.357	603.3
779.539	576.67
779.721	605.35
779.903	582.82
780.085	447.65
780.267	593.06
780.449	498.85
780.631	576.67
780.812	574.63
780.994	525.47
781.176	474.28
781.358	541.86
781.54	582.82
781.721	441.51
781.903	521.38
782.085	525.47
782.267	470.18
782.448	478.37
782.63	525.47
782.812	615.59
782.993	468.13
783.175	490.66
783.357	543.91
783.538	539.81
783.72	490.66
783.901	509.09
784.083	560.29
784.264	461.99
784.446	421.03
784.627	375.97
784.809	461.99
784.99	509.09
785.172	494.76
785.353	484.52
785.535	459.94
785.716	464.04
785.897	466.08
786.079	437.41
786.26	414.88
786.441	492.71
786.623	418.98
786.804	375.97
786.985	429.22
787.167	394.4
787.348	449.7
787.529	406.69
787.71	488.61
787.891	408.74
788.073	402.6
788.254	369.83
788.435	476.32
788.616	402.6
788.797	400.55
788.978	402.6
789.159	394.4
789.34	416.93
789.522	312.49
789.703	386.21
789.884	312.49
790.065	380.07
790.246	515.23
790.427	382.12
790.607	314.53
790.788	378.02
790.969	357.54
791.15	320.68
791.331	339.11
791.512	378.02
791.693	373.92
791.874	328.87
792.054	390.31
792.235	400.55
792.416	242.85
792.597	283.81
792.778	394.4
792.958	351.4
793.139	298.15
793.32	347.3
793.5	380.07
793.681	320.68
793.862	310.44
794.042	259.24
794.223	267.43
794.404	275.62
794.584	320.68
794.765	349.35
794.945	339.11
795.126	371.88
795.306	322.73
795.487	251.05
795.667	332.97
795.848	214.18
796.028	230.57
796.209	273.57
796.389	345.25
796.57	304.29
796.75	246.95
796.93	249
797.111	341.16
797.291	267.43
797.471	195.75
797.652	273.57
797.832	275.62
798.012	289.96
798.192	255.14
798.373	308.39
798.553	228.52
798.733	253.09
798.913	205.99
799.093	306.34
799.274	251.05
799.454	271.53
799.634	269.48
799.814	257.19
799.994	277.67
800.174	279.72
800.354	304.29
800.534	255.14
800.714	212.14
800.894	156.84
801.074	214.18
801.254	228.52
801.434	263.33
801.614	214.18
801.794	244.9
801.974	765.09
802.154	165.03
802.334	330.92
802.514	189.61
802.693	197.8
802.873	175.27
803.053	234.66
803.233	277.67
803.413	222.38
803.592	205.99
803.772	144.55
803.952	214.18
804.131	263.33
804.311	289.96
804.491	224.42
804.67	212.14
804.85	193.7
805.03	341.16
805.209	322.73
805.389	244.9
805.568	246.95
805.748	205.99
805.928	304.29
806.107	132.26
806.287	267.43
806.466	242.85
806.646	224.42
806.825	181.42
807.004	230.57
807.184	275.62
807.363	185.51
807.543	249
807.722	167.08
807.901	205.99
808.081	173.22
808.26	115.88
808.439	165.03
808.619	173.22
808.798	181.42
808.977	165.03
809.156	281.77
809.336	142.5
809.515	283.81
809.694	175.27
809.873	185.51
810.052	187.56
810.231	183.46
810.411	142.5
810.59	210.09
810.769	177.32
810.948	189.61
811.127	255.14
811.306	214.18
811.485	251.05
811.664	191.66
811.843	171.18
812.022	152.74
812.201	105.64
812.38	169.13
812.559	199.85
812.737	197.8
812.916	181.42
813.095	154.79
813.274	181.42
813.453	201.9
813.632	175.27
813.811	218.28
813.989	124.07
814.168	140.46
814.347	158.89
814.526	99.5
814.704	199.85
814.883	156.84
815.062	152.74
815.24	189.61
815.419	134.31
815.598	210.09
815.776	54.44
815.955	109.74
816.133	117.93
816.312	132.26
816.49	146.6
816.669	165.03
816.847	72.87
817.026	197.8
817.204	148.65
817.383	203.94
817.561	91.31
817.74	255.14
817.918	124.07
818.097	156.84
818.275	107.69
818.453	158.89
818.632	150.7
818.81	132.26
818.988	126.12
819.167	183.46
819.345	158.89
819.523	165.03
819.701	97.45
819.879	117.93
820.058	72.87
820.236	128.17
820.414	42.15
820.592	60.59
820.77	132.26
820.948	148.65
821.127	171.18
821.305	109.74
821.483	91.31
821.661	148.65
821.839	89.26
822.017	140.46
822.195	91.31
822.373	189.61
822.551	93.35
822.729	148.65
822.907	183.46
823.085	97.45
823.262	74.92
823.44	87.21
823.618	99.5
823.796	117.93
823.974	156.84
824.152	152.74
824.329	142.5
824.507	126.12
824.685	126.12
824.863	111.78
825.04	109.74
825.218	124.07
825.396	158.89
825.574	140.46
825.751	158.89
825.929	124.07
826.107	144.55
826.284	85.16
826.462	165.03
826.639	165.03
826.817	79.02
826.994	103.59
827.172	115.88
827.349	132.26
827.527	23.72
827.704	113.83
827.882	99.5
828.059	126.12
828.237	183.46
828.414	122.02
828.591	60.59
828.769	115.88
828.946	79.02
829.124	93.35
829.301	197.8
829.478	148.65
829.655	95.4
829.833	109.74
830.01	52.39
830.187	130.22
830.364	91.31
830.542	173.22
830.719	167.08
830.896	144.55
831.073	50.35
831.25	76.97
831.427	152.74
831.604	103.59
831.782	13.48
831.959	87.21
832.136	103.59
832.313	128.17
832.49	76.97
832.667	109.74
832.844	31.91
833.021	91.31
833.198	105.64
833.374	83.11
833.551	107.69
833.728	97.45
833.905	103.59
834.082	62.63
834.259	144.55
834.436	128.17
834.612	74.92
834.789	74.92
834.966	89.26
835.143	109.74
835.319	19.63
835.496	126.12
835.673	101.55
835.85	187.56
836.026	126.12
836.203	83.11
836.38	87.21
836.556	134.31
836.733	134.31
836.909	83.11
837.086	154.79
837.262	54.44
837.439	87.21
837.616	74.92
837.792	-9.05
837.968	52.39
838.145	62.63
838.321	27.82
838.498	146.6
838.674	103.59
838.851	76.97
839.027	91.31
839.203	79.02
839.38	181.42
839.556	31.91
839.732	48.3
839.909	21.67
840.085	27.82
840.261	95.4
840.437	167.08
840.614	152.74
840.79	1.19
840.966	76.97
841.142	117.93
841.318	33.96
841.494	136.36
841.671	50.35
841.847	107.69
842.023	-4.95
842.199	33.96
842.375	72.87
842.551	87.21
842.727	66.73
842.903	128.17
843.079	52.39
843.255	87.21
843.431	87.21
843.607	111.78
843.783	50.35
843.959	50.35
844.134	87.21
844.31	107.69
844.486	11.43
844.662	87.21
844.838	42.15
845.013	144.55
845.189	62.63
845.365	-2.9
845.541	9.39
845.716	95.4
845.892	54.44
846.068	31.91
846.244	29.87
846.419	74.92
846.595	62.63
846.77	-15.19
846.946	58.54
847.122	36.01
847.297	103.59
847.473	64.68
847.648	83.11
847.824	-15.19
847.999	13.48
848.175	91.31
848.35	105.64
848.526	148.65
848.701	29.87
848.876	87.21
849.052	105.64
849.227	79.02
849.403	-4.95
849.578	107.69
849.753	113.83
849.929	99.5
850.104	48.3
850.279	-2.9
850.454	52.39
850.63	29.87
850.805	68.78
850.98	-4.95
851.155	36.01
851.33	76.97
851.505	36.01
851.681	111.78
851.856	52.39
852.031	68.78
852.206	142.5
852.381	46.25
852.556	-0.85
852.731	68.78
852.906	99.5
853.081	124.07
853.256	60.59
853.431	60.59
853.606	-27.48
853.781	54.44
853.956	3.24
854.131	42.15
854.305	31.91
854.48	58.54
854.655	66.73
854.83	52.39
855.005	68.78
855.18	46.25
855.354	115.88
855.529	91.31
855.704	44.2
855.879	83.11
856.053	85.16
856.228	46.25
856.403	64.68
856.577	50.35
856.752	60.59
856.926	-7
857.101	36.01
857.276	76.97
857.45	42.15
857.625	85.16
857.799	25.77
857.974	58.54
858.148	11.43
858.323	44.2
858.497	-13.14
858.672	101.55
858.846	27.82
859.02	9.39
859.195	70.83
859.369	-21.33
859.543	62.63
859.718	38.06
859.892	19.63
860.066	68.78
860.241	74.92
860.415	91.31
860.589	17.58
860.763	62.63
860.938	33.96
861.112	81.07
861.286	42.15
861.46	60.59
861.634	5.29
861.808	27.82
861.982	5.29
862.157	58.54
862.331	-50
862.505	-7
862.679	-23.38
862.853	99.5
863.027	9.39
863.201	52.39
863.375	54.44
863.549	40.11
863.722	52.39
863.896	50.35
864.07	19.63
864.244	62.63
864.418	62.63
864.592	38.06
864.766	64.68
864.939	38.06
865.113	17.58
865.287	42.15
865.461	-39.76
865.634	107.69
865.808	27.82
865.982	27.82
866.156	13.48
866.329	42.15
866.503	17.58
866.676	109.74
866.85	62.63
867.024	1.19
867.197	91.31
867.371	36.01
867.544	52.39
867.718	-35.67
867.891	52.39
868.065	25.77
868.238	-0.85
868.412	95.4
868.585	-19.29
868.759	9.39
868.932	-27.48
869.105	76.97
869.279	42.15
869.452	-7
869.625	62.63
869.799	42.15
869.972	-0.85
870.145	27.82
870.319	101.55
870.492	31.91
870.665	36.01
870.838	62.63
871.011	11.43
871.185	-2.9
871.358	56.49
871.531	27.82
871.704	27.82
871.877	11.43
872.05	-13.14
872.223	38.06
872.396	138.41
872.569	101.55
872.742	-23.38
872.915	74.92
873.088	9.39
873.261	74.92
873.434	17.58
873.607	3.24
873.78	74.92
873.953	-31.57
874.126	62.63
874.299	44.2
874.471	-84.82
874.644	38.06
874.817	44.2
874.99	99.5
875.163	-9.05
875.335	48.3
875.508	-13.14
875.681	19.63
875.853	62.63
876.026	33.96
876.199	83.11
876.371	83.11
876.544	44.2
876.717	44.2
876.889	11.43
877.062	50.35
877.234	-13.14
877.407	9.39
877.579	5.29
877.752	25.77
877.924	64.68
878.097	25.77
878.269	-88.92
878.442	-60.24
878.614	19.63
878.786	9.39
878.959	-2.9
879.131	25.77
879.303	33.96
879.476	111.78
879.648	126.12
879.82	66.73
879.993	17.58
880.165	-41.81
880.337	70.83
880.509	74.92
880.681	25.77
880.854	83.11
881.026	-11.09
881.198	52.39
881.37	36.01
881.542	3.24
881.714	3.24
881.886	17.58
882.058	-2.9
882.23	68.78
882.402	19.63
882.574	52.39
882.746	-19.29
882.918	148.65
883.09	62.63
883.262	-7
883.434	-13.14
883.606	62.63
883.778	-13.14
883.95	17.58
884.122	17.58
884.293	17.58
884.465	50.35
884.637	-33.62
884.809	-17.24
884.98	44.2
885.152	74.92
885.324	23.72
885.496	-19.29
885.667	-25.43
885.839	1.19
886.011	99.5
886.182	74.92
886.354	19.63
886.525	33.96
886.697	11.43
886.869	17.58
887.04	-52.05
887.212	46.25
887.383	66.73
887.555	-2.9
887.726	-45.91
887.897	79.02
888.069	27.82
888.24	44.2
888.412	44.2
888.583	11.43
888.754	54.44
888.926	-43.86
889.097	15.53
889.268	-13.14
889.44	31.91
889.611	68.78
889.782	42.15
889.953	-43.86
890.125	38.06
890.296	-2.9
890.467	52.39
890.638	38.06
890.809	44.2
890.98	9.39
891.151	-21.33
891.323	36.01
891.494	-29.52
891.665	1.19
891.836	38.06
892.007	19.63
892.178	21.67
892.349	29.87
892.52	-0.85
892.691	-43.86
892.862	-35.67
893.032	17.58
893.203	103.59
893.374	31.91
893.545	103.59
893.716	-15.19
893.887	58.54
894.057	-7
894.228	19.63
894.399	17.58
894.57	25.77
894.74	-21.33
894.911	3.24
895.082	-19.29
895.253	-4.95
895.423	72.87
895.594	-15.19
895.764	-11.09
895.935	66.73
896.106	66.73
896.276	58.54
896.447	19.63
896.617	119.98
896.788	27.82
896.958	-13.14
897.129	21.67
897.299	42.15
897.47	-84.82
897.64	-2.9
897.81	87.21
897.981	-2.9
898.151	21.67
898.322	23.72
898.492	-13.14
898.662	-25.43
898.832	38.06
899.003	70.83
899.173	3.24
899.343	25.77
899.513	-47.96
