Data from USB4F104151__82__14-17-43-966.txt Node

Date: Thu Mar 13 14:17:43 EDT 2025
User: louis
Spectrometer: USB4F10415
Trigger mode: 4
Integration Time (sec): 2.000000E-2
Scans to average: 1
Electric dark correction enabled: true
Nonlinearity correction enabled: false
Boxcar width: 0
XAxis mode: Wavelengths
Number of Pixels in Spectrum: 3648
>>>>>Begin Spectral Data<<<<<
178.204	-86.36
178.424	-86.36
178.644	-86.36
178.864	-84.31
179.084	-80.21
179.304	-55.64
179.524	-29.01
179.744	13.99
179.964	22.19
180.184	42.67
180.404	-16.73
180.624	-6.49
180.844	22.19
181.064	-69.97
181.283	20.14
181.503	-2.39
181.723	59.05
181.943	-39.25
182.163	54.95
182.383	34.47
182.602	11.95
182.822	3.75
183.042	-10.58
183.262	-10.58
183.482	11.95
183.701	16.04
183.921	46.76
184.141	-69.97
184.361	89.77
184.58	-2.39
184.8	50.86
185.02	26.28
185.239	44.71
185.459	54.95
185.679	-31.06
185.898	22.19
186.118	18.09
186.338	18.09
186.557	57
186.777	59.05
186.997	-26.96
187.216	-8.53
187.436	54.95
187.655	-10.58
187.875	-14.68
188.095	-31.06
188.314	83.63
188.534	83.63
188.753	28.33
188.973	-22.87
189.192	18.09
189.412	11.95
189.631	44.71
189.851	-4.44
190.07	59.05
190.29	-49.49
190.509	-0.34
190.729	18.09
190.948	-6.49
191.168	100.01
191.387	54.95
191.607	13.99
191.826	20.14
192.045	-2.39
192.265	-18.77
192.484	-10.58
192.704	-35.16
192.923	26.28
193.142	91.82
193.362	42.67
193.581	52.91
193.8	77.48
194.02	-14.68
194.239	-6.49
194.458	26.28
194.678	75.43
194.897	40.62
195.116	26.28
195.335	42.67
195.555	52.91
195.774	30.38
195.993	65.19
196.212	-2.39
196.432	-61.78
196.651	-6.49
196.87	7.85
197.089	-20.82
197.308	1.71
197.528	38.57
197.747	-108.88
197.966	-22.87
198.185	3.75
198.404	24.23
198.623	-12.63
198.842	11.95
199.062	73.39
199.281	46.76
199.5	38.57
199.719	85.67
199.938	30.38
200.157	28.33
200.376	13.99
200.595	9.9
200.814	-18.77
201.033	-8.53
201.252	67.24
201.471	-41.3
201.69	20.14
201.909	44.71
202.128	69.29
202.347	106.15
202.566	-22.87
202.785	-8.53
203.004	46.76
203.223	1.71
203.442	5.8
203.661	71.34
203.879	-24.92
204.098	3.75
204.317	1.71
204.536	44.71
204.755	-4.44
204.974	18.09
205.193	26.28
205.411	77.48
205.63	26.28
205.849	7.85
206.068	-39.25
206.287	22.19
206.505	-20.82
206.724	44.71
206.943	28.33
207.162	-10.58
207.381	36.52
207.599	44.71
207.818	13.99
208.037	-31.06
208.255	36.52
208.474	20.14
208.693	18.09
208.911	28.33
209.13	83.63
209.349	32.43
209.567	59.05
209.786	-6.49
210.005	-10.58
210.223	38.57
210.442	-31.06
210.661	-37.2
210.879	-72.02
211.098	42.67
211.316	11.95
211.535	11.95
211.753	7.85
211.972	1.71
212.191	-53.59
212.409	11.95
212.628	-47.44
212.846	-29.01
213.065	102.06
213.283	-18.77
213.502	-0.34
213.72	50.86
213.938	-53.59
214.157	16.04
214.375	44.71
214.594	-82.26
214.812	-18.77
215.031	38.57
215.249	40.62
215.467	42.67
215.686	36.52
215.904	36.52
216.122	-22.87
216.341	3.75
216.559	-20.82
216.778	69.29
216.996	42.67
217.214	48.81
217.432	20.14
217.651	-12.63
217.869	-24.92
218.087	3.75
218.306	-26.96
218.524	13.99
218.742	28.33
218.96	54.95
219.179	-55.64
219.397	20.14
219.615	73.39
219.833	-22.87
220.051	-35.16
220.27	77.48
220.488	83.63
220.706	11.95
220.924	-14.68
221.142	-29.01
221.36	61.1
221.578	32.43
221.796	9.9
222.015	112.3
222.233	-43.35
222.451	-33.11
222.669	50.86
222.887	-22.87
223.105	42.67
223.323	87.72
223.541	59.05
223.759	38.57
223.977	3.75
224.195	9.9
224.413	40.62
224.631	59.05
224.849	-33.11
225.067	18.09
225.285	-2.39
225.503	9.9
225.721	-80.21
225.939	34.47
226.157	-39.25
226.375	26.28
226.592	9.9
226.81	-10.58
227.028	50.86
227.246	100.01
227.464	-20.82
227.682	149.16
227.9	5.8
228.117	9.9
228.335	22.19
228.553	42.67
228.771	36.52
228.989	28.33
229.206	-2.39
229.424	-6.49
229.642	36.52
229.86	34.47
230.077	52.91
230.295	71.34
230.513	24.23
230.731	-20.82
230.948	34.47
231.166	26.28
231.384	20.14
231.601	-0.34
231.819	59.05
232.037	44.71
232.254	40.62
232.472	32.43
232.689	-55.64
232.907	38.57
233.125	9.9
233.342	18.09
233.56	-61.78
233.777	40.62
233.995	67.24
234.213	26.28
234.43	44.71
234.648	5.8
234.865	-76.12
235.083	69.29
235.3	-31.06
235.518	13.99
235.735	34.47
235.953	102.06
236.17	26.28
236.388	30.38
236.605	69.29
236.822	24.23
237.04	87.72
237.257	50.86
237.475	26.28
237.692	93.87
237.909	20.14
238.127	-14.68
238.344	-10.58
238.562	1.71
238.779	52.91
238.996	-14.68
239.214	30.38
239.431	-18.77
239.648	-39.25
239.865	83.63
240.083	-26.96
240.3	71.34
240.517	26.28
240.735	-6.49
240.952	63.15
241.169	9.9
241.386	-14.68
241.603	44.71
241.821	-29.01
242.038	1.71
242.255	-43.35
242.472	61.1
242.689	46.76
242.907	11.95
243.124	30.38
243.341	100.01
243.558	9.9
243.775	-57.68
243.992	1.71
244.209	26.28
244.426	22.19
244.643	100.01
244.86	28.33
245.078	9.9
245.295	73.39
245.512	-39.25
245.729	-26.96
245.946	26.28
246.163	9.9
246.38	36.52
246.597	13.99
246.814	91.82
247.031	36.52
247.248	52.91
247.464	20.14
247.681	34.47
247.898	44.71
248.115	22.19
248.332	-20.82
248.549	1.71
248.766	140.97
248.983	57
249.2	18.09
249.417	26.28
249.633	22.19
249.85	5.8
250.067	59.05
250.284	18.09
250.501	71.34
250.717	3.75
250.934	-39.25
251.151	63.15
251.368	-10.58
251.585	52.91
251.801	-41.3
252.018	20.14
252.235	83.63
252.451	-2.39
252.668	42.67
252.885	73.39
253.102	18.09
253.318	79.53
253.535	69.29
253.752	-12.63
253.968	-14.68
254.185	20.14
254.401	42.67
254.618	-4.44
254.835	-55.64
255.051	9.9
255.268	108.2
255.484	22.19
255.701	65.19
255.917	85.67
256.134	26.28
256.351	34.47
256.567	32.43
256.784	11.95
257	-4.44
257.217	5.8
257.433	-4.44
257.65	22.19
257.866	34.47
258.082	5.8
258.299	59.05
258.515	36.52
258.732	-22.87
258.948	1.71
259.165	-47.44
259.381	59.05
259.597	52.91
259.814	-24.92
260.03	18.09
260.246	52.91
260.463	67.24
260.679	44.71
260.895	36.52
261.112	36.52
261.328	-45.4
261.544	9.9
261.761	42.67
261.977	-55.64
262.193	7.85
262.409	40.62
262.626	-6.49
262.842	-43.35
263.058	-6.49
263.274	22.19
263.49	30.38
263.707	75.43
263.923	-6.49
264.139	18.09
264.355	-24.92
264.571	69.29
264.787	-10.58
265.004	65.19
265.22	36.52
265.436	5.8
265.652	71.34
265.868	71.34
266.084	5.8
266.3	1.71
266.516	-26.96
266.732	38.57
266.948	100.01
267.164	67.24
267.38	-0.34
267.596	52.91
267.812	7.85
268.028	75.43
268.244	5.8
268.46	-8.53
268.676	52.91
268.892	50.86
269.108	18.09
269.324	44.71
269.54	-39.25
269.756	54.95
269.972	-18.77
270.188	-14.68
270.403	-4.44
270.619	9.9
270.835	42.67
271.051	48.81
271.267	75.43
271.483	-80.21
271.698	7.85
271.914	30.38
272.13	-20.82
272.346	54.95
272.562	5.8
272.777	-2.39
272.993	-24.92
273.209	34.47
273.425	-0.34
273.64	38.57
273.856	61.1
274.072	3.75
274.287	-39.25
274.503	34.47
274.719	36.52
274.934	9.9
275.15	-24.92
275.366	-22.87
275.581	-35.16
275.797	-22.87
276.012	7.85
276.228	-37.2
276.444	-2.39
276.659	65.19
276.875	38.57
277.09	34.47
277.306	-39.25
277.521	118.44
277.737	-10.58
277.952	118.44
278.168	61.1
278.383	71.34
278.599	-6.49
278.814	34.47
279.03	20.14
279.245	5.8
279.461	-0.34
279.676	3.75
279.892	20.14
280.107	11.95
280.322	28.33
280.538	24.23
280.753	-20.82
280.969	11.95
281.184	44.71
281.399	13.99
281.615	22.19
281.83	22.19
282.045	9.9
282.26	-31.06
282.476	-61.78
282.691	38.57
282.906	-6.49
283.122	83.63
283.337	77.48
283.552	110.25
283.767	-2.39
283.983	40.62
284.198	-76.12
284.413	18.09
284.628	-39.25
284.843	-49.49
285.058	54.95
285.274	24.23
285.489	11.95
285.704	5.8
285.919	-53.59
286.134	61.1
286.349	-4.44
286.564	16.04
286.779	-43.35
286.995	-31.06
287.21	-26.96
287.425	100.01
287.64	67.24
287.855	26.28
288.07	-72.02
288.285	26.28
288.5	-33.11
288.715	3.75
288.93	73.39
289.145	52.91
289.36	46.76
289.575	59.05
289.79	-67.92
290.004	13.99
290.219	79.53
290.434	20.14
290.649	50.86
290.864	20.14
291.079	-29.01
291.294	46.76
291.509	22.19
291.724	-4.44
291.938	22.19
292.153	124.58
292.368	-29.01
292.583	3.75
292.798	1.71
293.012	7.85
293.227	77.48
293.442	30.38
293.657	9.9
293.871	75.43
294.086	65.19
294.301	50.86
294.516	69.29
294.73	69.29
294.945	-37.2
295.16	50.86
295.374	52.91
295.589	83.63
295.804	-6.49
296.018	44.71
296.233	34.47
296.447	9.9
296.662	85.67
296.877	11.95
297.091	87.72
297.306	-4.44
297.52	-67.92
297.735	59.05
297.949	124.58
298.164	26.28
298.378	46.76
298.593	-57.68
298.807	13.99
299.022	91.82
299.236	57
299.451	-41.3
299.665	-12.63
299.88	73.39
300.094	26.28
300.309	34.47
300.523	9.9
300.737	83.63
300.952	11.95
301.166	3.75
301.381	1.71
301.595	1.71
301.809	1.71
302.024	61.1
302.238	75.43
302.452	-10.58
302.667	-51.54
302.881	-47.44
303.095	87.72
303.309	22.19
303.524	-4.44
303.738	79.53
303.952	-22.87
304.166	30.38
304.381	-53.59
304.595	69.29
304.809	-29.01
305.023	67.24
305.237	63.15
305.452	18.09
305.666	44.71
305.88	30.38
306.094	112.3
306.308	91.82
306.522	-2.39
306.736	-18.77
306.95	20.14
307.164	63.15
307.379	3.75
307.593	11.95
307.807	42.67
308.021	-14.68
308.235	67.24
308.449	50.86
308.663	61.1
308.877	-18.77
309.091	67.24
309.305	36.52
309.519	-61.78
309.733	42.67
309.947	-53.59
310.161	67.24
310.374	116.39
310.588	138.92
310.802	42.67
311.016	48.81
311.23	18.09
311.444	-6.49
311.658	-14.68
311.872	-10.58
312.085	67.24
312.299	34.47
312.513	42.67
312.727	61.1
312.941	-22.87
313.154	1.71
313.368	34.47
313.582	75.43
313.796	26.28
314.009	-26.96
314.223	-4.44
314.437	75.43
314.651	9.9
314.864	-63.83
315.078	1.71
315.292	30.38
315.505	-12.63
315.719	91.82
315.933	3.75
316.146	46.76
316.36	67.24
316.573	69.29
316.787	-22.87
317.001	120.49
317.214	-2.39
317.428	32.43
317.641	-65.88
317.855	26.28
318.068	28.33
318.282	104.11
318.495	61.1
318.709	-4.44
318.922	-6.49
319.136	124.58
319.349	34.47
319.563	26.28
319.776	63.15
319.99	-14.68
320.203	42.67
320.417	-53.59
320.63	59.05
320.843	100.01
321.057	63.15
321.27	-51.54
321.483	59.05
321.697	75.43
321.91	52.91
322.124	67.24
322.337	36.52
322.55	-4.44
322.763	50.86
322.977	42.67
323.19	50.86
323.403	75.43
323.617	-53.59
323.83	13.99
324.043	-12.63
324.256	-63.83
324.469	-35.16
324.683	91.82
324.896	-20.82
325.109	22.19
325.322	-41.3
325.535	26.28
325.748	9.9
325.962	36.52
326.175	-8.53
326.388	13.99
326.601	54.95
326.814	83.63
327.027	26.28
327.24	36.52
327.453	-43.35
327.666	46.76
327.879	48.81
328.092	30.38
328.305	-10.58
328.518	73.39
328.731	5.8
328.944	112.3
329.157	-14.68
329.37	-6.49
329.583	-22.87
329.796	85.67
330.009	26.28
330.222	24.23
330.435	-16.73
330.648	71.34
330.861	50.86
331.073	46.76
331.286	-10.58
331.499	3.75
331.712	-20.82
331.925	38.57
332.138	34.47
332.35	18.09
332.563	9.9
332.776	112.3
332.989	13.99
333.202	22.19
333.414	26.28
333.627	-12.63
333.84	11.95
334.053	13.99
334.265	61.1
334.478	26.28
334.691	77.48
334.903	112.3
335.116	1.71
335.329	42.67
335.541	73.39
335.754	52.91
335.966	11.95
336.179	11.95
336.392	-16.73
336.604	1.71
336.817	34.47
337.029	-20.82
337.242	59.05
337.454	9.9
337.667	28.33
337.88	69.29
338.092	9.9
338.305	87.72
338.517	-10.58
338.729	34.47
338.942	67.24
339.154	3.75
339.367	-37.2
339.579	7.85
339.792	26.28
340.004	-6.49
340.217	1.71
340.429	-33.11
340.641	54.95
340.854	50.86
341.066	-39.25
341.278	108.2
341.491	130.73
341.703	-18.77
341.915	46.76
342.128	40.62
342.34	57
342.552	-22.87
342.764	42.67
342.977	-14.68
343.189	65.19
343.401	-10.58
343.613	-59.73
343.826	3.75
344.038	-37.2
344.25	110.25
344.462	-37.2
344.674	32.43
344.886	-20.82
345.099	46.76
345.311	-4.44
345.523	34.47
345.735	44.71
345.947	50.86
346.159	28.33
346.371	67.24
346.583	-20.82
346.795	77.48
347.007	11.95
347.219	87.72
347.431	-2.39
347.643	147.11
347.855	-37.2
348.067	52.91
348.279	-10.58
348.491	36.52
348.703	38.57
348.915	13.99
349.127	-43.35
349.339	46.76
349.551	-4.44
349.763	18.09
349.975	36.52
350.187	50.86
350.399	63.15
350.61	3.75
350.822	-31.06
351.034	-24.92
351.246	24.23
351.458	-4.44
351.669	67.24
351.881	-24.92
352.093	22.19
352.305	75.43
352.517	-20.82
352.728	-10.58
352.94	52.91
353.152	95.91
353.363	16.04
353.575	63.15
353.787	3.75
353.999	83.63
354.21	128.68
354.422	46.76
354.633	30.38
354.845	1.71
355.057	36.52
355.268	26.28
355.48	9.9
355.692	-2.39
355.903	9.9
356.115	-10.58
356.326	-4.44
356.538	48.81
356.749	71.34
356.961	69.29
357.172	20.14
357.384	-26.96
357.595	108.2
357.807	42.67
358.018	-84.31
358.23	61.1
358.441	73.39
358.653	83.63
358.864	46.76
359.075	26.28
359.287	63.15
359.498	61.1
359.709	1.71
359.921	50.86
360.132	26.28
360.344	26.28
360.555	-31.06
360.766	-61.78
360.977	9.9
361.189	71.34
361.4	-67.92
361.611	13.99
361.823	16.04
362.034	-37.2
362.245	-37.2
362.456	69.29
362.667	46.76
362.879	16.04
363.09	-18.77
363.301	67.24
363.512	18.09
363.723	36.52
363.935	-10.58
364.146	48.81
364.357	54.95
364.568	63.15
364.779	71.34
364.99	93.87
365.201	73.39
365.412	-39.25
365.623	-31.06
365.834	67.24
366.045	57
366.256	50.86
366.467	9.9
366.678	26.28
366.889	67.24
367.1	-37.2
367.311	91.82
367.522	54.95
367.733	46.76
367.944	-22.87
368.155	59.05
368.366	7.85
368.577	57
368.788	124.58
368.999	-33.11
369.209	-20.82
369.42	50.86
369.631	104.11
369.842	-63.83
370.053	69.29
370.264	54.95
370.474	93.87
370.685	100.01
370.896	52.91
371.107	-59.73
371.317	5.8
371.528	42.67
371.739	120.49
371.95	42.67
372.16	75.43
372.371	46.76
372.582	32.43
372.792	116.39
373.003	-47.44
373.214	81.58
373.424	83.63
373.635	-20.82
373.846	59.05
374.056	1.71
374.267	26.28
374.477	40.62
374.688	-4.44
374.898	50.86
375.109	34.47
375.319	85.67
375.53	77.48
375.74	59.05
375.951	1.71
376.161	38.57
376.372	65.19
376.582	-6.49
376.793	16.04
377.003	85.67
377.214	-53.59
377.424	-10.58
377.635	-18.77
377.845	108.2
378.055	44.71
378.266	-10.58
378.476	-22.87
378.686	38.57
378.897	126.63
379.107	54.95
379.317	50.86
379.528	9.9
379.738	110.25
379.948	24.23
380.158	11.95
380.369	102.06
380.579	50.86
380.789	54.95
380.999	77.48
381.21	108.2
381.42	122.54
381.63	1.71
381.84	112.3
382.05	-45.4
382.261	100.01
382.471	63.15
382.681	93.87
382.891	54.95
383.101	67.24
383.311	3.75
383.521	1.71
383.731	30.38
383.941	20.14
384.151	-26.96
384.361	54.95
384.571	54.95
384.781	57
384.991	79.53
385.201	75.43
385.411	65.19
385.621	-0.34
385.831	-4.44
386.041	59.05
386.251	3.75
386.461	13.99
386.671	50.86
386.881	44.71
387.091	52.91
387.301	9.9
387.511	22.19
387.72	44.71
387.93	32.43
388.14	69.29
388.35	-22.87
388.56	-12.63
388.769	52.91
388.979	63.15
389.189	26.28
389.399	30.38
389.609	42.67
389.818	-6.49
390.028	24.23
390.238	93.87
390.447	32.43
390.657	30.38
390.867	85.67
391.076	50.86
391.286	87.72
391.496	38.57
391.705	65.19
391.915	18.09
392.125	42.67
392.334	50.86
392.544	18.09
392.753	63.15
392.963	104.11
393.172	11.95
393.382	91.82
393.591	157.35
393.801	44.71
394.01	91.82
394.22	159.4
394.429	130.73
394.639	67.24
394.848	73.39
395.058	77.48
395.267	1.71
395.477	9.9
395.686	-22.87
395.895	93.87
396.105	95.91
396.314	59.05
396.524	-6.49
396.733	38.57
396.942	104.11
397.152	79.53
397.361	22.19
397.57	149.16
397.78	18.09
397.989	85.67
398.198	124.58
398.407	36.52
398.617	18.09
398.826	11.95
399.035	112.3
399.244	128.68
399.453	79.53
399.663	116.39
399.872	63.15
400.081	9.9
400.29	81.58
400.499	65.19
400.708	79.53
400.917	71.34
401.127	159.4
401.336	85.67
401.545	132.78
401.754	100.01
401.963	114.34
402.172	100.01
402.381	52.91
402.59	73.39
402.799	145.06
403.008	130.73
403.217	104.11
403.426	42.67
403.635	79.53
403.844	122.54
404.053	67.24
404.262	112.3
404.471	100.01
404.68	65.19
404.888	59.05
405.097	28.33
405.306	159.4
405.515	190.12
405.724	89.77
405.933	177.83
406.142	54.95
406.35	132.78
406.559	75.43
406.768	145.06
406.977	206.5
407.185	145.06
407.394	167.59
407.603	222.89
407.812	251.56
408.02	218.79
408.229	138.92
408.438	208.55
408.646	118.44
408.855	132.78
409.064	247.46
409.272	288.42
409.481	304.81
409.69	235.18
409.898	233.13
410.107	243.37
410.315	325.29
410.524	306.85
410.733	255.65
410.941	263.85
411.15	294.57
411.358	321.19
411.567	415.4
411.775	308.9
411.984	347.81
412.192	415.4
412.401	333.48
412.609	423.59
412.818	425.64
413.026	353.96
413.234	378.53
413.443	536.23
413.651	489.12
413.86	489.12
414.068	550.56
414.276	536.23
414.485	495.27
414.693	530.08
414.901	632.48
415.11	511.65
415.318	552.61
415.526	620.19
415.734	632.48
415.943	702.11
416.151	714.4
416.359	726.69
416.567	747.17
416.776	863.9
416.984	755.36
417.192	820.89
417.4	781.98
417.608	861.85
417.817	902.81
418.025	892.57
418.233	1013.4
418.441	880.29
418.649	1050.27
418.857	1060.51
419.065	1187.48
419.273	1107.61
419.481	1226.39
419.689	1263.26
419.897	1201.82
420.105	1218.2
420.313	1322.65
420.521	1371.8
420.729	1431.19
420.937	1388.18
421.145	1420.95
421.353	1640.08
421.561	1638.03
421.769	1656.47
421.977	1711.76
422.185	1699.47
422.393	1779.34
422.601	1904.27
422.809	1978
423.017	1877.65
423.224	2025.1
423.432	2094.73
423.64	2137.74
423.848	2317.96
424.056	2246.28
424.263	2403.97
424.471	2410.12
424.679	2508.42
424.887	2666.11
425.094	2528.9
425.302	2623.11
425.51	2725.51
425.718	2932.35
425.925	2872.96
426.133	2967.17
426.341	3280.5
426.548	3270.26
426.756	3370.62
426.964	3384.95
427.171	3577.46
427.379	3583.6
427.586	3796.59
427.794	3819.12
428.001	3845.74
428.209	4126.32
428.417	4159.08
428.624	4460.13
428.832	4400.74
429.039	4466.28
429.247	4339.3
429.454	4679.27
429.662	5008.99
429.869	4847.2
430.076	4986.46
430.284	4826.72
430.491	5457.5
430.699	5426.78
430.906	5432.92
431.114	5650
431.321	5752.4
431.528	5740.12
431.736	6114.89
431.943	6549.06
432.15	6178.38
432.358	6411.85
432.565	6727.24
432.772	6698.56
432.979	7091.77
433.187	7210.56
433.394	7276.09
433.601	7726.64
433.808	7804.47
434.016	7775.8
434.223	7888.43
434.43	8551.98
434.637	8353.32
434.844	8914.47
435.052	8957.47
435.259	8871.46
435.466	9033.25
435.673	8633.89
435.88	9621.02
436.087	10069.52
436.294	9840.15
436.501	9770.52
436.708	10178.06
436.915	10438.16
437.122	10802.69
437.329	10825.22
437.537	11220.48
437.743	11216.38
437.95	11236.86
438.157	11922.93
438.364	12269.04
438.571	12105.2
438.778	12318.19
438.985	13481.44
439.192	12926.44
439.399	13293.02
439.606	13084.13
439.813	13862.36
440.02	14640.59
440.227	14069.2
440.433	14140.88
440.64	14693.83
440.847	14333.39
441.054	14960.07
441.261	16035.25
441.467	15613.37
441.674	16076.21
441.881	16434.61
442.088	16184.76
442.294	16117.17
442.501	16887.21
442.708	17028.52
442.914	17694.11
443.121	18607.5
443.328	17925.53
443.534	19053.96
443.741	18830.73
443.948	18283.92
444.154	19887.48
444.361	19993.98
444.568	19778.94
444.774	19842.43
444.981	19989.88
445.187	20637.04
445.394	21419.36
445.6	21099.88
445.807	23006.54
446.013	22029.66
446.22	22441.3
446.426	23577.92
446.633	24028.48
446.839	24575.28
447.046	23641.41
447.252	25011.5
447.459	24909.1
447.665	24761.65
447.871	25607.46
448.078	26653.97
448.284	25664.8
448.491	26570.01
448.697	27432.2
448.903	27665.67
449.11	27749.64
449.316	27575.56
449.522	28024.06
449.728	28560.63
449.935	28769.52
450.141	28898.55
450.347	29592.81
450.553	28814.58
450.76	29357.29
450.966	30045.41
451.172	29983.97
451.378	30520.54
451.584	29730.02
451.791	30504.15
451.997	30227.68
452.203	30487.77
452.409	31038.67
452.615	30598.36
452.821	29826.28
453.027	29496.55
453.233	31038.67
453.44	29807.84
453.646	30016.74
453.852	30022.88
454.058	30725.33
454.264	29865.19
454.47	30653.65
454.676	29375.72
454.882	30500.06
455.088	27942.14
455.294	28509.43
455.5	28849.39
455.705	29218.03
455.911	27819.27
456.117	27448.58
456.323	27526.41
456.529	25539.88
456.735	26836.24
456.941	25996.57
457.147	25677.09
457.352	24880.43
457.558	24747.31
457.764	24853.81
457.97	24159.55
458.176	23891.26
458.381	23848.25
458.587	22633.81
458.793	22730.06
458.999	21658.98
459.204	23033.16
459.41	22392.15
459.616	21093.74
459.821	21112.17
460.027	20948.33
460.233	20272.5
460.438	19436.93
460.644	19531.14
460.85	18914.7
461.055	18615.69
461.261	18546.06
461.466	17089.96
461.672	16276.91
461.878	17505.7
462.083	16494
462.289	16285.11
462.494	16068.02
462.7	15427.01
462.905	15136.2
463.111	15271.36
463.316	15656.38
463.522	15228.35
463.727	15142.34
463.932	15228.35
464.138	14732.75
464.343	15177.16
464.549	14552.52
464.754	14970.31
464.959	15105.48
465.165	14757.32
465.37	14210.51
465.575	13839.83
465.781	14468.56
465.986	14347.73
466.191	14034.39
466.397	13614.55
466.602	13061.6
466.807	13430.24
467.012	13487.58
467.218	13528.54
467.423	13348.32
467.628	13616.6
467.833	14038.48
468.038	13579.74
468.244	12987.88
468.449	13522.4
468.654	13151.71
468.859	13020.64
469.064	13145.57
469.269	12420.59
469.474	12641.77
469.679	12713.45
469.885	12420.59
470.09	12637.67
470.295	12420.59
470.5	11924.98
470.705	12453.36
470.91	11980.28
471.115	11912.69
471.32	12148.21
471.525	12127.73
471.73	11838.97
471.935	11843.06
472.139	11066.88
472.344	11539.96
472.549	11507.2
472.754	11202.05
472.959	11093.51
473.164	10839.56
473.369	10604.04
473.574	11083.27
473.778	10817.03
473.983	10726.92
474.188	10874.37
474.393	10182.16
474.598	10251.79
474.802	10276.37
475.007	10135.06
475.212	10231.31
475.417	9815.57
475.621	9745.94
475.826	9967.12
476.031	9618.97
476.235	9532.95
476.44	9774.61
476.645	9283.1
476.849	9391.64
477.054	9211.42
477.259	9246.24
477.463	9268.77
477.668	8881.7
477.872	9209.37
478.077	8762.92
478.282	8771.11
478.486	8721.96
478.691	8767.01
478.895	8574.5
479.1	8689.19
479.304	8529.45
479.509	8379.95
479.713	8455.72
479.918	8414.76
480.122	8152.62
480.326	8144.43
480.531	8246.83
480.735	8300.08
480.94	8138.29
481.144	8293.93
481.348	8050.22
481.553	8060.46
481.757	7765.56
481.961	7851.57
482.166	8152.62
482.37	7960.11
482.574	7843.38
482.778	7835.19
482.983	8087.09
483.187	7906.87
483.391	8121.9
483.595	8007.22
483.8	7724.6
484.004	7986.74
484.208	8007.22
484.412	7951.92
484.616	7949.87
484.821	7900.72
485.025	7792.18
485.229	7843.38
485.433	7740.98
485.637	7874.1
485.841	7769.65
486.045	7913.01
486.249	8015.41
486.453	7919.15
486.657	8031.79
486.861	7685.69
487.065	7779.89
487.269	7870
487.473	7761.46
487.677	7937.59
487.881	7984.69
488.085	7841.33
488.289	8023.6
488.493	7767.6
488.697	8160.81
488.901	8001.07
489.105	7960.11
489.309	7771.7
489.512	8189.49
489.716	7917.11
489.92	8068.66
490.124	7941.68
490.328	8128.05
490.531	8015.41
490.735	8142.38
490.939	8130.09
491.143	8042.03
491.346	8082.99
491.55	8230.45
491.754	8187.44
491.958	8308.27
492.161	8312.36
492.365	8343.08
492.569	8386.09
492.772	8336.94
492.976	8547.88
493.18	8693.29
493.383	8529.45
493.587	8635.94
493.79	8660.52
493.994	8635.94
494.197	8746.53
494.401	8840.74
494.605	8793.64
494.808	9010.72
495.012	8984.1
495.215	9008.67
495.419	9078.3
495.622	9045.54
495.825	9207.33
496.029	9250.33
496.232	9405.98
496.436	9139.74
496.639	9610.78
496.843	9670.17
497.046	9817.62
497.249	9803.29
497.453	9850.39
497.656	9817.62
497.859	9973.27
498.063	9905.68
498.266	10126.86
498.469	10341.9
498.673	10227.21
498.876	10389
499.079	10554.89
499.282	10532.36
499.485	10778.12
499.689	10798.6
499.892	10857.99
500.095	10993.15
500.298	11152.9
500.501	11040.26
500.705	11621.88
500.908	11640.31
501.111	12008.95
501.314	11867.64
501.517	12137.97
501.72	12011
501.923	12166.64
502.126	12377.58
502.329	12604.91
502.532	12590.57
502.735	12635.63
502.938	12924.39
503.141	12873.19
503.344	13096.42
503.547	13372.89
503.75	13532.64
503.953	13596.12
504.156	13667.8
504.359	13833.69
504.562	13880.79
504.765	14407.12
504.968	14337.49
505.17	14317.01
505.373	14525.9
505.576	14722.51
505.779	14955.97
505.982	14947.78
506.185	15275.46
506.387	15459.77
506.59	15635.9
506.793	15769.02
506.996	15730.11
507.198	16356.79
507.401	16068.02
507.604	16180.66
507.807	16672.17
508.009	16780.71
508.212	16756.14
508.415	16805.29
508.617	17257.89
508.82	17409.44
509.022	17038.76
509.225	17630.62
509.428	17601.95
509.63	17880.47
509.833	18058.65
510.035	18392.47
510.238	18132.37
510.44	18812.3
510.643	18787.72
510.845	18920.84
511.048	19105.16
511.25	19105.16
511.453	19426.69
511.655	19797.37
511.858	20172.15
512.06	20094.33
512.262	20278.65
512.465	20452.72
512.667	20665.71
512.87	20688.24
513.072	21020.01
513.274	21081.45
513.477	21431.65
513.679	21521.76
513.881	21935.45
514.084	22193.5
514.286	22132.06
514.488	22445.4
514.69	23096.65
514.893	22748.5
515.095	22932.81
515.297	23110.99
515.499	23364.93
515.701	23635.27
515.904	23809.34
516.106	24016.19
516.308	24227.13
516.51	24171.83
516.712	24323.38
516.914	24780.08
517.116	25177.39
517.318	25171.24
517.52	25429.29
517.722	25521.45
517.925	25830.69
518.127	26141.98
518.329	26205.47
518.531	26154.27
518.733	26826
518.935	26807.57
519.136	26922.26
519.338	27362.57
519.54	27575.56
519.742	27571.46
519.944	27694.34
520.146	28288.25
520.348	28351.74
520.55	28562.68
520.752	28720.37
520.954	28882.16
521.155	28914.93
521.357	29353.19
521.559	29588.71
521.761	30139.61
521.963	29840.61
522.164	30199.01
522.366	30285.02
522.568	30301.4
522.77	30696.66
522.971	31214.8
523.173	30778.58
523.375	31577.29
523.576	31433.93
523.778	31448.27
523.98	31831.24
524.181	32136.38
524.383	31935.68
524.584	32410.81
524.786	32140.48
524.988	32369.85
525.189	32947.38
525.391	32904.37
525.592	32992.44
525.794	33318.06
525.995	33397.93
526.197	33756.33
526.398	33711.27
526.6	33778.86
526.801	33535.15
527.003	34004.13
527.204	34090.15
527.406	34440.35
527.607	34479.26
527.808	34747.54
528.01	33975.46
528.211	34708.63
528.412	35087.51
528.614	35214.48
528.815	34829.46
529.016	35521.68
529.218	35355.79
529.419	35232.91
529.62	34856.09
529.822	35376.27
530.023	35433.61
530.224	35474.57
530.425	35544.2
530.626	35413.13
530.828	35179.67
531.029	35953.8
531.23	35749
531.431	35832.97
531.632	35638.41
531.833	36234.37
532.035	35517.58
532.236	35699.85
532.437	36076.68
532.638	35935.37
532.839	36093.06
533.04	36093.06
533.241	35675.27
533.442	36332.67
533.643	36195.46
533.844	36113.54
534.045	36066.44
534.246	35828.87
534.447	36846.71
534.648	36242.56
534.849	36514.94
535.05	36297.86
535.251	36551.8
535.451	36019.33
535.652	36574.33
535.853	36058.24
536.054	36363.39
536.255	36408.45
536.456	35873.93
536.657	36482.17
536.857	36217.99
537.058	35818.63
537.259	36430.97
537.46	36375.68
537.66	36281.47
537.861	36508.8
538.062	36138.12
538.263	36334.72
538.463	36420.73
538.664	36082.82
538.865	36424.83
539.065	36467.84
539.266	36258.95
539.466	36365.44
539.667	35703.95
539.868	36414.59
540.068	36129.92
540.269	36162.69
540.469	36619.39
540.67	36193.41
540.87	36117.64
541.071	36005
541.271	36009.09
541.472	36236.42
541.672	35939.46
541.873	36146.31
542.073	35622.03
542.274	36418.69
542.474	36199.55
542.675	35775.62
542.875	36357.25
543.075	35835.02
543.276	35822.73
543.476	36637.82
543.676	35990.66
543.877	36443.26
544.077	35996.81
544.277	36217.99
544.478	35859.59
544.678	36158.59
544.878	35918.98
545.078	35996.81
545.279	35785.86
545.479	35742.86
545.679	36000.9
545.879	35808.39
546.079	36146.31
546.28	35865.74
546.48	35361.94
546.68	35990.66
546.88	35749
547.08	35978.37
547.28	35802.25
547.48	35859.59
547.68	36027.52
547.88	35232.91
548.081	35785.86
548.281	35896.45
548.481	35746.95
548.681	35746.95
548.881	35947.65
549.081	35935.37
549.28	35597.45
549.48	35947.65
549.68	35632.27
549.88	36064.39
550.08	35603.6
550.28	35792.01
550.48	35347.6
550.68	35683.47
550.88	35837.06
551.08	35566.73
551.279	35619.98
551.479	35290.26
551.679	35599.5
551.879	35646.6
552.079	35712.14
552.278	35503.24
552.478	35392.65
552.678	35226.77
552.878	35732.62
553.077	35495.05
553.277	35191.95
553.477	35724.43
553.676	35570.83
553.876	35169.43
554.076	35447.95
554.275	35376.27
554.475	35284.11
554.674	35355.79
554.874	35159.19
555.074	35501.2
555.273	35564.68
555.473	35619.98
555.672	35181.71
555.872	35237.01
556.071	34978.96
556.271	35617.93
556.47	35339.41
556.67	34628.76
556.869	34800.79
557.068	35101.84
557.268	34989.2
557.467	35110.03
557.667	34864.28
557.866	35163.28
558.065	34870.42
558.265	34542.75
558.464	34620.57
558.663	35019.92
558.863	34585.75
559.062	34712.73
559.261	34264.22
559.461	34839.7
559.66	34153.63
559.859	34698.39
560.058	34350.24
560.258	34204.83
560.457	33846.44
560.656	34407.58
560.855	34170.02
561.054	34264.22
561.253	33727.66
561.453	33766.57
561.652	34272.42
561.851	34489.5
562.05	33875.11
562.249	33766.57
562.448	34018.47
562.647	34043.04
562.846	33469.61
563.045	33899.69
563.244	33463.47
563.443	33723.56
563.642	33397.93
563.841	33920.17
564.04	33193.14
564.239	33553.58
564.438	33369.26
564.637	33539.24
564.836	33580.2
565.035	32896.18
565.234	33201.33
565.432	33027.25
565.631	32941.24
565.83	32912.56
566.029	32879.8
566.228	32507.07
566.427	32644.28
566.625	32326.85
566.824	32011.46
567.023	32566.46
567.222	32011.46
567.42	32527.55
567.619	32261.31
567.818	32349.37
568.016	32251.07
568.215	32337.09
568.414	31782.09
568.612	32294.08
568.811	31767.75
569.01	31986.88
569.208	31395.02
569.407	31581.38
569.605	31392.97
569.804	31902.92
570.002	31515.85
570.201	31622.34
570.4	31374.54
570.598	30749.91
570.797	31280.33
570.995	31266
571.193	30778.58
571.392	30948.56
571.59	30637.27
571.789	30989.52
571.987	30995.67
572.186	30758.1
572.384	30657.75
572.582	30770.39
572.781	30823.64
572.979	30385.37
573.177	30543.06
573.376	30670.04
573.574	29918.43
573.772	30360.8
573.971	30182.62
574.169	29705.45
574.367	29768.93
574.565	30465.24
574.763	29770.98
574.962	30067.94
575.16	29385.96
575.358	29553.9
575.556	29312.24
575.754	29562.09
575.952	29418.73
576.151	29494.5
576.349	29187.31
576.547	29252.84
576.745	29002.99
576.943	29273.32
577.141	28652.79
577.339	28863.73
577.537	28706.04
577.735	28816.63
577.933	28734.71
578.131	28677.37
578.329	28587.25
578.527	28245.24
578.725	28495.1
578.923	28568.82
579.121	28325.11
579.319	28075.26
579.516	28212.48
579.714	28263.68
579.912	28183.8
580.11	28370.17
580.308	28275.96
580.506	27657.48
580.704	27428.1
580.901	27874.56
581.099	27413.77
581.297	27383.05
581.495	27309.32
581.692	27766.02
581.89	27145.48
582.088	27467.02
582.285	26965.26
582.483	27327.75
582.681	27077.9
582.878	26823.95
583.076	26696.98
583.274	27065.61
583.471	26527
583.669	26977.55
583.866	26445.08
584.064	26854.67
584.262	26361.11
584.459	26705.17
584.657	26414.36
584.854	26451.22
585.052	25759.01
585.249	26363.16
585.447	26107.16
585.644	25695.52
585.841	26019.1
586.039	26144.03
586.236	25902.37
586.434	25660.71
586.631	25687.33
586.828	25789.73
587.026	25488.68
587.223	25638.18
587.42	25394.47
587.618	25453.86
587.815	25351.46
588.012	25290.02
588.21	25011.5
588.407	25095.47
588.604	24892.72
588.801	24925.49
588.999	24866.1
589.196	25027.88
589.393	24622.39
589.59	24720.69
589.787	24524.08
589.984	24341.82
590.182	24008
590.379	24444.21
590.576	24595.76
590.773	24286.52
590.97	23930.17
591.167	24366.39
591.364	23948.61
591.561	23876.93
591.758	23516.48
591.955	24020.28
592.152	23958.85
592.349	23639.36
592.546	23756.1
592.743	23799.1
592.94	23010.64
593.137	23496
593.334	23731.52
593.531	23262.54
593.727	23596.35
593.924	23231.82
594.121	23100.75
594.318	23217.48
594.515	22646.1
594.712	23147.85
594.908	22625.62
595.105	23153.99
595.302	22762.83
595.499	22613.33
595.696	22609.23
595.892	22623.57
596.089	22781.26
596.286	22582.61
596.482	22586.71
596.679	22183.26
596.876	22371.67
597.072	22185.3
597.269	22103.39
597.466	21953.88
597.662	22078.81
597.859	21855.58
598.055	21945.69
598.252	21605.73
598.448	21601.63
598.645	21519.71
598.841	21362.02
599.038	21423.46
599.234	21376.36
599.431	21036.39
599.627	21087.59
599.824	21366.12
600.02	21071.21
600.217	21589.35
600.413	20964.71
600.609	20780.4
600.806	20970.86
601.002	21001.58
601.198	20682.1
601.395	20622.7
601.591	20813.17
601.787	20702.57
601.984	20331.89
602.18	20872.56
602.376	20426.1
602.572	20501.87
602.769	20456.82
602.965	20274.55
603.161	20329.84
603.357	20352.37
603.553	20008.31
603.75	20217.21
603.946	20018.55
604.142	20182.39
604.338	19850.62
604.534	19957.11
604.73	19670.4
604.926	19826.04
605.122	19817.85
605.318	19563.9
605.514	19371.4
605.71	19492.23
605.906	19107.21
606.102	19496.32
606.298	19459.46
606.494	19121.54
606.69	19438.98
606.886	19269
607.082	19178.89
607.278	18992.52
607.474	18814.35
607.67	19137.93
607.866	18969.99
608.062	19287.43
608.257	18920.84
608.453	18765.2
608.649	18980.23
608.845	18656.65
609.041	18824.59
609.236	18920.84
609.432	18650.51
609.628	18769.29
609.824	18449.81
610.019	18146.71
610.215	18666.89
610.411	18773.39
610.606	18222.48
610.802	18558.35
610.998	18285.97
611.193	18484.62
611.389	18318.74
611.584	18056.6
611.78	17935.77
611.976	18021.78
612.171	18298.26
612.367	18015.64
612.562	18163.09
612.758	17933.72
612.953	17819.03
613.149	17935.77
613.344	17751.45
613.539	18230.68
613.735	17966.49
613.93	17868.19
614.126	17737.12
614.321	18029.98
614.517	17704.35
614.712	17571.23
614.907	17479.07
615.103	17796.51
615.298	17585.57
615.493	17495.46
615.688	17221.03
615.884	17706.4
616.079	17419.68
616.274	17395.11
616.47	17393.06
616.665	17401.25
616.86	17171.88
617.055	17216.93
617.25	17118.63
617.445	17288.61
617.641	16864.68
617.836	17026.47
618.031	17145.25
618.226	17032.61
618.421	16743.85
618.616	16975.27
618.811	16600.49
619.006	16803.24
619.201	16700.84
619.396	16786.86
619.591	16450.99
619.786	16604.59
619.981	16229.81
620.176	16453.04
620.371	16070.07
620.566	16141.75
620.761	16225.72
620.956	16274.87
621.151	16004.53
621.346	16020.92
621.541	15848.89
621.735	15861.18
621.93	15508.93
622.125	15566.27
622.32	15578.56
622.515	15502.78
622.709	15459.77
622.904	15388.1
623.099	15152.58
623.294	15183.3
623.488	15152.58
623.683	15087.04
623.878	14980.55
624.072	15050.18
624.267	14939.59
624.462	15007.17
624.656	14564.81
624.851	14640.59
625.046	14255.57
625.24	14169.55
625.435	14192.08
625.629	14394.83
625.824	14063.06
626.018	14280.14
626.213	13852.12
626.407	14054.87
626.602	13800.92
626.796	13856.22
626.991	13716.95
627.185	13821.4
627.38	13397.47
627.574	13620.7
627.768	13465.05
627.963	13295.07
628.157	13157.86
628.352	13368.8
628.546	13125.09
628.74	13323.74
628.935	12977.64
629.129	13012.45
629.323	12776.94
629.517	12750.31
629.712	12797.42
629.906	12692.97
630.1	12529.13
630.294	12760.55
630.489	12338.67
630.683	12387.82
630.877	12350.96
631.071	12246.51
631.265	12584.43
631.459	12264.94
631.653	12011
631.848	12111.35
632.042	11826.68
632.236	12013.04
632.43	11914.74
632.624	11896.31
632.818	11709.94
633.012	11603.45
633.206	11499
633.4	11509.24
633.594	11474.43
633.788	11261.44
633.982	11511.29
634.176	11445.76
634.369	11087.36
634.563	11388.41
634.757	11111.94
634.951	11218.43
635.145	10917.38
635.339	11183.62
635.533	10907.14
635.726	10712.58
635.92	10694.15
636.114	10774.02
636.308	10749.45
636.501	10661.38
636.695	10655.24
636.889	10475.02
637.083	10325.52
637.276	10448.4
637.47	10315.28
637.664	10202.64
637.857	10137.1
638.051	10399.24
638.244	10018.32
638.438	10229.26
638.632	10264.08
638.825	9915.92
639.019	9840.15
639.212	9840.15
639.406	9920.02
639.599	9745.94
639.793	9762.33
639.986	9434.65
640.18	9686.55
640.373	9635.35
640.567	9422.36
640.76	9535
640.954	9487.9
641.147	9227.81
641.34	9180.7
641.534	9297.44
641.727	9137.7
641.92	9094.69
642.114	9131.55
642.307	9047.58
642.5	9154.08
642.694	9014.82
642.887	8980
643.08	9104.93
643.273	9012.77
643.467	8818.21
643.66	8719.91
643.853	8697.38
644.046	8537.64
644.239	8455.72
644.432	8693.29
644.626	8541.74
644.819	8377.9
645.012	8386.09
645.205	8449.58
645.398	8392.23
645.591	8398.38
645.784	8281.64
645.977	8308.27
646.17	8218.16
646.363	8273.45
646.556	7980.59
646.749	8037.94
646.942	8085.04
647.135	7919.15
647.328	7857.71
647.521	7816.76
647.714	7757.36
647.907	8019.5
648.099	7755.32
648.292	7845.43
648.485	7687.73
648.678	7599.67
648.871	7562.81
649.064	7513.66
649.256	7685.69
649.449	7501.37
649.642	7392.83
649.835	7345.72
650.027	7478.84
650.22	7450.17
650.413	7059.01
650.605	7353.91
650.798	6993.47
650.991	7173.69
651.183	7284.28
651.376	7063.1
651.568	7136.83
651.761	7042.62
651.954	7048.77
652.146	6979.14
652.339	7206.46
652.531	7048.77
652.724	6768.2
652.916	6833.73
653.109	6684.23
653.301	6829.63
653.494	6862.4
653.686	6731.33
653.879	6735.43
654.071	6561.35
654.263	6501.96
654.456	6647.37
654.648	6655.56
654.84	6307.4
655.033	6284.87
655.225	6542.92
655.417	6415.94
655.61	6293.07
655.802	6340.17
655.994	6409.8
656.186	6209.1
656.379	6323.79
656.571	6217.29
656.763	6241.87
656.955	6096.46
657.148	6075.98
657.34	6006.35
657.532	6012.49
657.724	6071.89
657.916	6096.46
658.108	6008.4
658.3	5674.58
658.492	5893.71
658.684	5731.92
658.876	5828.18
659.068	5934.67
659.26	5713.49
659.452	5725.78
659.644	5801.55
659.836	5877.33
660.028	5658.2
660.22	5529.17
660.412	5584.47
660.604	5637.72
660.796	5527.13
660.988	5510.74
661.18	5430.87
661.372	5285.47
661.563	5361.24
661.755	5281.37
661.947	5394.01
662.139	5351
662.331	5377.62
662.522	5197.4
662.714	5387.86
662.906	5269.08
663.097	5205.6
663.289	5211.74
663.481	5099.1
663.673	5135.96
663.864	5047.9
664.056	5000.8
664.247	5076.57
664.439	4892.26
664.631	5017.18
664.822	4992.61
665.014	4974.17
665.205	5084.77
665.397	4984.41
665.588	5047.9
665.78	4853.34
665.971	4916.83
666.163	4957.79
666.354	4826.72
666.546	4765.28
666.737	4662.88
666.929	4912.74
667.12	4773.47
667.311	4769.38
667.503	4523.62
667.694	4707.94
667.885	4761.19
668.077	4562.53
668.268	4533.86
668.459	4531.81
668.651	4578.92
668.842	4562.53
669.033	4540.01
669.224	4544.1
669.416	4634.21
669.607	4478.57
669.798	4441.7
669.989	4494.95
670.18	4345.45
670.371	4361.83
670.563	4318.82
670.754	4394.6
670.945	4269.67
671.136	4540.01
671.327	4150.89
671.518	4329.06
671.709	4447.85
671.9	4396.65
672.091	4343.4
672.282	4150.89
672.473	4204.14
672.664	4316.78
672.855	4093.55
673.046	4265.58
673.237	4306.54
673.428	4339.3
673.619	4284.01
673.809	4118.12
674	4187.75
674.191	4140.65
674.382	4058.73
674.573	4087.4
674.764	3960.43
674.954	4152.94
675.145	4050.54
675.336	4183.66
675.527	4021.87
675.717	4003.44
675.908	3970.67
676.099	3993.2
676.289	3925.61
676.48	3925.61
676.671	3919.47
676.861	3952.24
677.052	3980.91
677.243	4048.49
677.433	3976.81
677.624	4068.97
677.814	3827.31
678.005	3942
678.195	4001.39
678.386	3827.31
678.576	3853.94
678.767	3835.5
678.957	3860.08
679.148	3999.34
679.338	3876.46
679.529	3765.87
679.719	3774.07
679.909	3833.46
680.1	3960.43
680.29	3878.51
680.481	3745.39
680.671	3817.07
680.861	3780.21
681.052	3829.36
681.242	3782.26
681.432	3761.78
681.622	3911.28
681.813	3759.73
682.003	3778.16
682.193	3860.08
682.383	3878.51
682.573	3702.39
682.764	3706.48
682.954	3778.16
683.144	3679.86
683.334	3683.95
683.524	3468.92
683.714	3661.43
683.904	3657.33
684.094	3769.97
684.284	3769.97
684.474	3636.85
684.664	3665.52
684.854	3556.98
685.044	3559.03
685.234	3516.02
685.424	3636.85
685.614	3622.52
685.804	3561.08
685.994	3720.82
686.184	3659.38
686.374	3671.67
686.564	3638.9
686.753	3593.84
686.943	3548.79
687.133	3546.74
687.323	3528.31
687.513	3458.68
687.702	3450.49
687.892	3282.55
688.082	3438.2
688.272	3550.84
688.461	3468.92
688.651	3395.19
688.841	3266.17
689.03	3368.57
689.22	3368.57
689.41	3364.47
689.599	3384.95
689.789	3364.47
689.979	3292.79
690.168	3282.55
690.358	3288.7
690.547	3294.84
690.737	3270.26
690.926	3214.97
691.116	3294.84
691.305	3188.35
691.495	3176.06
691.684	3155.58
691.874	3194.49
692.063	3124.86
692.252	3147.39
692.442	3073.66
692.631	3155.58
692.82	3022.46
693.01	3049.08
693.199	2971.26
693.388	2981.5
693.578	3063.42
693.767	3053.18
693.956	3053.18
694.146	3090.04
694.335	3040.89
694.524	2995.84
694.713	3065.47
694.902	2995.84
695.092	3106.43
695.281	2811.52
695.47	2909.82
695.659	2926.21
695.848	2932.35
696.037	2969.21
696.226	2887.29
696.415	2922.11
696.604	2936.45
696.793	2827.9
696.982	2889.34
697.171	2844.29
697.36	2748.03
697.549	2844.29
697.738	2700.93
697.927	2805.38
698.116	2850.43
698.305	2870.91
698.494	2915.97
698.683	2756.22
698.872	2838.14
699.061	2817.66
699.25	2670.21
699.438	2772.61
699.627	2647.68
699.816	2991.74
700.005	2750.08
700.193	2786.94
700.382	2807.42
700.571	2614.91
700.76	2805.38
700.948	2844.29
701.137	2723.46
701.326	2778.75
701.514	2702.98
701.703	2791.04
701.892	2707.07
702.08	2743.94
702.269	2745.98
702.457	2690.69
702.646	2682.5
702.834	2578.05
703.023	2788.99
703.212	2713.22
703.4	2713.22
703.589	2694.79
703.777	2653.83
703.965	2549.38
704.154	2731.65
704.342	2594.44
704.531	2614.91
704.719	2698.88
704.907	2633.35
705.096	2573.96
705.284	2676.35
705.472	2647.68
705.661	2705.03
705.849	2692.74
706.037	2573.96
706.226	2641.54
706.414	2668.16
706.602	2657.92
706.79	2709.12
706.979	2573.96
707.167	2526.85
707.355	2639.49
707.543	2649.73
707.731	2533
707.919	2664.07
708.107	2641.54
708.296	2537.09
708.484	2649.73
708.672	2510.47
708.86	2545.28
709.048	2610.82
709.236	2508.42
709.424	2602.63
709.612	2434.69
709.8	2528.9
709.988	2612.87
710.176	2684.55
710.364	2533
710.551	2465.41
710.739	2463.37
710.927	2535.04
711.115	2479.75
711.303	2610.82
711.491	2598.53
711.679	2508.42
711.866	2524.8
712.054	2616.96
712.242	2526.85
712.43	2524.8
712.617	2590.34
712.805	2426.5
712.993	2510.47
713.181	2535.04
713.368	2483.84
713.556	2590.34
713.744	2385.54
713.931	2567.81
714.119	2461.32
714.306	2500.23
714.494	2537.09
714.682	2426.5
714.869	2442.89
715.057	2526.85
715.244	2336.39
715.432	2442.89
715.619	2494.08
715.807	2555.52
715.994	2518.66
716.182	2377.35
716.369	2459.27
716.556	2481.8
716.744	2424.45
716.931	2356.87
717.119	2399.88
717.306	2483.84
717.493	2446.98
717.681	2518.66
717.868	2567.81
718.055	2426.5
718.242	2549.38
718.43	2520.71
718.617	2406.02
718.804	2354.82
718.991	2332.3
719.179	2371.21
719.366	2311.82
719.553	2469.51
719.74	2444.93
719.927	2438.79
720.114	2434.69
720.301	2418.31
720.488	2260.62
720.676	2297.48
720.863	2455.17
721.05	2578.05
721.237	2371.21
721.424	2418.31
721.611	2379.4
721.798	2320.01
721.985	2399.88
722.172	2350.73
722.358	2315.91
722.545	2459.27
722.732	2387.59
722.919	2373.25
723.106	2223.75
723.293	2442.89
723.48	2352.77
723.667	2268.81
723.853	2420.36
724.04	2336.39
724.227	2324.1
724.414	2332.3
724.6	2330.25
724.787	2414.21
724.974	2328.2
725.161	2274.95
725.347	2338.44
725.534	2412.17
725.72	2256.52
725.907	2371.21
726.094	2299.53
726.28	2365.06
726.467	2246.28
726.653	2270.86
726.84	2354.82
727.027	2352.77
727.213	2313.86
727.4	2358.92
727.586	2336.39
727.773	2303.62
727.959	2225.8
728.145	2315.91
728.332	2311.82
728.518	2297.48
728.705	2315.91
728.891	2227.85
729.077	2446.98
729.264	2268.81
729.45	2289.29
729.636	2289.29
729.823	2299.53
730.009	2391.69
730.195	2412.17
730.382	2258.57
730.568	2131.59
730.754	2264.71
730.94	2270.86
731.126	2258.57
731.313	2377.35
731.499	2270.86
731.685	2193.03
731.871	2277
732.057	2221.7
732.243	2254.47
732.429	2272.9
732.615	2283.14
732.801	2199.18
732.987	2266.76
733.173	2258.57
733.359	2305.67
733.545	2246.28
733.731	2287.24
733.917	2268.81
734.103	2233.99
734.289	2305.67
734.475	2311.82
734.661	2289.29
734.847	2176.65
735.033	2289.29
735.219	2395.78
735.404	2190.99
735.59	2248.33
735.776	2217.61
735.962	2164.36
736.148	2279.05
736.333	2248.33
736.519	2231.94
736.705	2246.28
736.89	2176.65
737.076	2170.51
737.262	2238.09
737.447	2092.68
737.633	2195.08
737.819	2123.4
738.004	2264.71
738.19	2139.79
738.375	2158.22
738.561	2158.22
738.747	2133.64
738.932	2137.74
739.118	2203.27
739.303	2188.94
739.489	2135.69
739.674	2168.46
739.859	1988.24
740.045	2131.59
740.23	2141.83
740.416	2080.39
740.601	2064.01
740.786	1969.8
740.972	2078.35
741.157	2053.77
741.342	2049.68
741.528	2035.34
741.713	2076.3
741.898	1967.76
742.084	2057.87
742.269	2057.87
742.454	2059.92
742.639	2041.48
742.824	1953.42
743.01	1949.32
743.195	1912.46
743.38	1988.24
743.565	1830.54
743.75	1998.48
743.935	1971.85
744.12	2037.39
744.305	1740.43
744.49	1844.88
744.675	1939.09
744.86	1853.07
745.045	1877.65
745.23	1869.45
745.415	1871.5
745.6	1910.41
745.785	1967.76
745.97	1848.97
746.155	1891.98
746.34	1775.25
746.525	1803.92
746.71	1867.41
746.895	1828.49
747.079	1781.39
747.264	1803.92
747.449	1660.56
747.634	1754.77
747.819	1742.48
748.003	1828.49
748.188	1627.79
748.373	1672.85
748.557	1701.52
748.742	1683.09
748.927	1629.84
749.111	1715.86
749.296	1656.47
749.481	1658.51
749.665	1697.42
749.85	1541.78
750.034	1629.84
750.219	1709.71
750.404	1519.25
750.588	1613.46
750.773	1384.09
750.957	1525.4
751.141	1599.12
751.326	1613.46
751.51	1595.03
751.695	1576.59
751.879	1504.92
752.064	1492.63
752.248	1590.93
752.432	1560.21
752.617	1437.33
752.801	1529.49
752.985	1478.29
753.17	1480.34
753.354	1423
753.538	1377.94
753.722	1369.75
753.907	1379.99
754.091	1478.29
754.275	1326.74
754.459	1283.74
754.643	1443.48
754.828	1328.79
755.012	1375.89
755.196	1386.13
755.38	1371.8
755.564	1316.5
755.748	1246.87
755.932	1353.37
756.116	1293.97
756.3	1218.2
756.484	1197.72
756.668	1232.54
756.852	1267.35
757.036	1193.62
757.22	1238.68
757.404	1183.38
757.588	1218.2
757.772	1220.25
757.956	1232.54
758.14	1183.38
758.323	1158.81
758.507	1123.99
758.691	1128.09
758.875	1148.57
759.059	1123.99
759.242	1197.72
759.426	1123.99
759.61	1093.27
759.794	1042.07
759.977	1126.04
760.161	1093.27
760.345	1109.66
760.528	1017.5
760.712	1058.46
760.895	1074.84
761.079	1099.42
761.263	1019.55
761.446	968.35
761.63	1046.17
761.813	1097.37
761.997	1046.17
762.18	1058.46
762.364	984.73
762.547	982.68
762.731	929.44
762.914	1001.12
763.098	927.39
763.281	1011.36
763.464	923.29
763.648	1003.16
763.831	859.81
764.015	898.72
764.198	931.48
764.381	1007.26
764.564	831.13
764.748	1033.88
764.931	898.72
765.114	949.92
765.297	935.58
765.481	898.72
765.664	945.82
765.847	863.9
766.03	994.97
766.213	988.83
766.397	855.71
766.58	888.48
766.763	896.67
766.946	755.36
767.129	911
767.312	913.05
767.495	865.95
767.678	845.47
767.861	849.57
768.044	954.01
768.227	833.18
768.41	839.33
768.593	878.24
768.776	888.48
768.959	859.81
769.142	863.9
769.324	829.09
769.507	827.04
769.69	814.75
769.873	767.65
770.056	882.33
770.239	775.84
770.421	833.18
770.604	861.85
770.787	806.56
770.97	738.98
771.152	816.8
771.335	706.21
771.518	724.64
771.7	698.02
771.883	765.6
772.066	665.25
772.248	775.84
772.431	792.22
772.613	732.83
772.796	655.01
772.978	685.73
773.161	738.98
773.343	743.07
773.526	683.68
773.708	652.96
773.891	655.01
774.073	698.02
774.256	741.02
774.438	784.03
774.621	689.82
774.803	675.49
774.985	675.49
775.168	620.19
775.35	663.2
775.532	722.59
775.715	657.06
775.897	657.06
776.079	712.35
776.261	730.78
776.444	722.59
776.626	681.63
776.808	673.44
776.99	601.76
777.173	616.1
777.355	599.71
777.537	618.15
777.719	675.49
777.901	640.67
778.083	571.04
778.265	546.47
778.447	628.39
778.629	595.62
778.811	612
778.993	552.61
779.175	579.23
779.357	542.37
779.539	560.8
779.721	503.46
779.903	571.04
780.085	554.66
780.267	587.43
780.449	493.22
780.631	558.75
780.812	607.91
780.994	487.08
781.176	444.07
781.358	485.03
781.54	538.27
781.721	507.55
781.903	612
782.085	577.19
782.267	550.56
782.448	419.49
782.63	511.65
782.812	530.08
782.993	558.75
783.175	482.98
783.357	485.03
783.538	544.42
783.72	493.22
783.901	448.16
784.083	476.84
784.264	470.69
784.446	417.44
784.627	489.12
784.809	442.02
784.99	460.45
785.172	347.81
785.353	542.37
785.535	353.96
785.716	411.3
785.897	399.01
786.079	419.49
786.26	378.53
786.441	376.48
786.623	339.62
786.804	329.38
786.985	388.77
787.167	468.64
787.348	339.62
787.529	306.85
787.71	345.77
787.891	421.54
788.073	349.86
788.254	325.29
788.435	388.77
788.616	353.96
788.797	253.61
788.978	370.34
789.159	351.91
789.34	384.68
789.522	345.77
789.703	315.05
789.884	396.96
790.065	192.17
790.246	378.53
790.427	313
790.607	358.05
790.788	370.34
790.969	349.86
791.15	257.7
791.331	339.62
791.512	382.63
791.693	210.6
791.874	419.49
792.054	366.25
792.235	341.67
792.416	313
792.597	284.33
792.778	306.85
792.958	288.42
793.139	274.09
793.32	315.05
793.5	218.79
793.681	257.7
793.862	321.19
794.042	263.85
794.223	313
794.404	231.08
794.584	263.85
794.765	200.36
794.945	278.18
795.126	286.37
795.306	284.33
795.487	257.7
795.667	239.27
795.848	251.56
796.028	284.33
796.209	231.08
796.389	243.37
796.57	257.7
796.75	288.42
796.93	290.47
797.111	341.67
797.291	282.28
797.471	243.37
797.652	224.94
797.832	206.5
798.012	257.7
798.192	200.36
798.373	190.12
798.553	226.98
798.733	306.85
798.913	157.35
799.093	304.81
799.274	237.22
799.454	243.37
799.634	194.22
799.814	255.65
799.994	261.8
800.174	214.7
800.354	161.45
800.534	208.55
800.714	214.7
800.894	194.22
801.074	165.54
801.254	198.31
801.434	147.11
801.614	235.18
801.794	237.22
801.974	806.56
802.154	171.69
802.334	233.13
802.514	165.54
802.693	163.5
802.873	200.36
803.053	194.22
803.233	243.37
803.413	181.93
803.592	165.54
803.772	161.45
803.952	169.64
804.131	149.16
804.311	235.18
804.491	138.92
804.67	175.78
804.85	190.12
805.03	214.7
805.209	188.07
805.389	132.78
805.568	128.68
805.748	196.26
805.928	208.55
806.107	263.85
806.287	233.13
806.466	243.37
806.646	145.06
806.825	235.18
807.004	171.69
807.184	183.98
807.363	255.65
807.543	153.26
807.722	175.78
807.901	192.17
808.081	138.92
808.26	83.63
808.439	179.88
808.619	157.35
808.798	126.63
808.977	214.7
809.156	261.8
809.336	179.88
809.515	216.74
809.694	136.87
809.873	95.91
810.052	175.78
810.231	231.08
810.411	122.54
810.59	75.43
810.769	120.49
810.948	153.26
811.127	136.87
811.306	102.06
811.485	140.97
811.664	249.51
811.843	181.93
812.022	159.4
812.201	149.16
812.38	118.44
812.559	186.02
812.737	157.35
812.916	140.97
813.095	140.97
813.274	169.64
813.453	128.68
813.632	110.25
813.811	147.11
813.989	128.68
814.168	181.93
814.347	124.58
814.526	194.22
814.704	104.11
814.883	186.02
815.062	124.58
815.24	157.35
815.419	138.92
815.598	102.06
815.776	67.24
815.955	153.26
816.133	128.68
816.312	151.21
816.49	67.24
816.669	192.17
816.847	198.31
817.026	169.64
817.204	83.63
817.383	36.52
817.561	9.9
817.74	177.83
817.918	140.97
818.097	67.24
818.275	77.48
818.453	143.02
818.632	190.12
818.81	75.43
818.988	124.58
819.167	167.59
819.345	93.87
819.523	153.26
819.701	40.62
819.879	112.3
820.058	93.87
820.236	132.78
820.414	149.16
820.592	95.91
820.77	91.82
820.948	108.2
821.127	114.34
821.305	124.58
821.483	46.76
821.661	134.82
821.839	157.35
822.017	108.2
822.195	110.25
822.373	143.02
822.551	102.06
822.729	132.78
822.907	143.02
823.085	157.35
823.262	61.1
823.44	57
823.618	46.76
823.796	77.48
823.974	18.09
824.152	83.63
824.329	140.97
824.507	118.44
824.685	110.25
824.863	91.82
825.04	54.95
825.218	112.3
825.396	67.24
825.574	120.49
825.751	50.86
825.929	132.78
826.107	18.09
826.284	-12.63
826.462	87.72
826.639	50.86
826.817	108.2
826.994	149.16
827.172	75.43
827.349	118.44
827.527	112.3
827.704	18.09
827.882	26.28
828.059	44.71
828.237	54.95
828.414	91.82
828.591	77.48
828.769	91.82
828.946	116.39
829.124	100.01
829.301	46.76
829.478	116.39
829.655	52.91
829.833	112.3
830.01	75.43
830.187	61.1
830.364	50.86
830.542	118.44
830.719	77.48
830.896	69.29
831.073	77.48
831.25	73.39
831.427	124.58
831.604	134.82
831.782	59.05
831.959	7.85
832.136	46.76
832.313	104.11
832.49	42.67
832.667	91.82
832.844	36.52
833.021	59.05
833.198	-6.49
833.374	22.19
833.551	77.48
833.728	69.29
833.905	97.96
834.082	57
834.259	48.81
834.436	128.68
834.612	18.09
834.789	120.49
834.966	95.91
835.143	116.39
835.319	18.09
835.496	89.77
835.673	44.71
835.85	42.67
836.026	61.1
836.203	83.63
836.38	83.63
836.556	83.63
836.733	11.95
836.909	153.26
837.086	40.62
837.262	71.34
837.439	-0.34
837.616	63.15
837.792	44.71
837.968	75.43
838.145	-63.83
838.321	-0.34
838.498	73.39
838.674	40.62
838.851	18.09
839.027	46.76
839.203	26.28
839.38	61.1
839.556	-6.49
839.732	95.91
839.909	30.38
840.085	20.14
840.261	42.67
840.437	7.85
840.614	75.43
840.79	36.52
840.966	79.53
841.142	26.28
841.318	-14.68
841.494	-0.34
841.671	91.82
841.847	50.86
842.023	77.48
842.199	52.91
842.375	67.24
842.551	-18.77
842.727	30.38
842.903	50.86
843.079	-29.01
843.255	85.67
843.431	44.71
843.607	46.76
843.783	-72.02
843.959	104.11
844.134	18.09
844.31	69.29
844.486	18.09
844.662	-14.68
844.838	52.91
845.013	13.99
845.189	91.82
845.365	30.38
845.541	-10.58
845.716	9.9
845.892	34.47
846.068	40.62
846.244	-22.87
846.419	95.91
846.595	-4.44
846.77	59.05
846.946	38.57
847.122	5.8
847.297	36.52
847.473	128.68
847.648	40.62
847.824	20.14
847.999	48.81
848.175	48.81
848.35	34.47
848.526	124.58
848.701	-0.34
848.876	52.91
849.052	-39.25
849.227	-37.2
849.403	22.19
849.578	52.91
849.753	26.28
849.929	38.57
850.104	24.23
850.279	26.28
850.454	9.9
850.63	5.8
850.805	28.33
850.98	42.67
851.155	28.33
851.33	30.38
851.505	-80.21
851.681	77.48
851.856	-20.82
852.031	140.97
852.206	69.29
852.381	59.05
852.556	-20.82
852.731	59.05
852.906	87.72
853.081	-37.2
853.256	-6.49
853.431	9.9
853.606	28.33
853.781	13.99
853.956	-63.83
854.131	44.71
854.305	16.04
854.48	13.99
854.655	91.82
854.83	26.28
855.005	3.75
855.18	50.86
855.354	-22.87
855.529	-6.49
855.704	18.09
855.879	91.82
856.053	-4.44
856.228	26.28
856.403	28.33
856.577	28.33
856.752	5.8
856.926	-12.63
857.101	1.71
857.276	-18.77
857.45	-0.34
857.625	30.38
857.799	34.47
857.974	65.19
858.148	42.67
858.323	36.52
858.497	26.28
858.672	-39.25
858.846	-43.35
859.02	22.19
859.195	-39.25
859.369	59.05
859.543	-2.39
859.718	20.14
859.892	-6.49
860.066	28.33
860.241	-80.21
860.415	18.09
860.589	-49.49
860.763	50.86
860.938	-33.11
861.112	159.4
861.286	9.9
861.46	9.9
861.634	-31.06
861.808	-4.44
861.982	34.47
862.157	-12.63
862.331	-45.4
862.505	-41.3
862.679	34.47
862.853	-39.25
863.027	-45.4
863.201	48.81
863.375	9.9
863.549	-18.77
863.722	26.28
863.896	-6.49
864.07	28.33
864.244	59.05
864.418	50.86
864.592	46.76
864.766	22.19
864.939	50.86
865.113	18.09
865.287	-14.68
865.461	13.99
865.634	5.8
865.808	16.04
865.982	44.71
866.156	13.99
866.329	20.14
866.503	36.52
866.676	83.63
866.85	9.9
867.024	-22.87
867.197	13.99
867.371	77.48
867.544	61.1
867.718	-51.54
867.891	-14.68
868.065	-39.25
868.238	-67.92
868.412	-51.54
868.585	20.14
868.759	-14.68
868.932	-26.96
869.105	-24.92
869.279	-0.34
869.452	1.71
869.625	-8.53
869.799	16.04
869.972	1.71
870.145	9.9
870.319	20.14
870.492	1.71
870.665	-18.77
870.838	-39.25
871.011	-72.02
871.185	-43.35
871.358	50.86
871.531	38.57
871.704	18.09
871.877	28.33
872.05	22.19
872.223	-37.2
872.396	-39.25
872.569	79.53
872.742	-14.68
872.915	-2.39
873.088	36.52
873.261	-86.36
873.434	-0.34
873.607	5.8
873.78	7.85
873.953	9.9
874.126	38.57
874.299	26.28
874.471	-53.59
874.644	54.95
874.817	26.28
874.99	-4.44
875.163	54.95
875.335	-20.82
875.508	-22.87
875.681	-4.44
875.853	-24.92
876.026	13.99
876.199	18.09
876.371	63.15
876.544	-16.73
876.717	54.95
876.889	-6.49
877.062	-22.87
877.234	-29.01
877.407	-4.44
877.579	67.24
877.752	13.99
877.924	26.28
878.097	18.09
878.269	-47.44
878.442	59.05
878.614	-22.87
878.786	11.95
878.959	87.72
879.131	28.33
879.303	-84.31
879.476	-29.01
879.648	18.09
879.82	-20.82
879.993	-22.87
880.165	3.75
880.337	-8.53
880.509	-14.68
880.681	-37.2
880.854	42.67
881.026	-59.73
881.198	79.53
881.37	-43.35
881.542	-22.87
881.714	13.99
881.886	-41.3
882.058	-10.58
882.23	-26.96
882.402	97.96
882.574	85.67
882.746	20.14
882.918	-20.82
883.09	32.43
883.262	-18.77
883.434	-16.73
883.606	-10.58
883.778	-55.64
883.95	42.67
884.122	-14.68
884.293	34.47
884.465	-4.44
884.637	24.23
884.809	-41.3
884.98	26.28
885.152	3.75
885.324	79.53
885.496	-14.68
885.667	3.75
885.839	-4.44
886.011	32.43
886.182	-26.96
886.354	18.09
886.525	-10.58
886.697	-16.73
886.869	-6.49
887.04	-29.01
887.212	34.47
887.383	22.19
887.555	1.71
887.726	-39.25
887.897	-4.44
888.069	1.71
888.24	26.28
888.412	42.67
888.583	-80.21
888.754	42.67
888.926	-41.3
889.097	-24.92
889.268	-18.77
889.44	-33.11
889.611	-12.63
889.782	-29.01
889.953	-10.58
890.125	16.04
890.296	28.33
890.467	-10.58
890.638	34.47
890.809	-2.39
890.98	7.85
891.151	-2.39
891.323	-6.49
891.494	-6.49
891.665	-33.11
891.836	3.75
892.007	5.8
892.178	30.38
892.349	-8.53
892.52	-35.16
892.691	5.8
892.862	-2.39
893.032	1.71
893.203	18.09
893.374	-4.44
893.545	32.43
893.716	38.57
893.887	13.99
894.057	67.24
894.228	42.67
894.399	1.71
894.57	42.67
894.74	-51.54
894.911	9.9
895.082	-4.44
895.253	-4.44
895.423	11.95
895.594	9.9
895.764	50.86
895.935	-29.01
896.106	-14.68
896.276	-69.97
896.447	16.04
896.617	-12.63
896.788	-47.44
896.958	1.71
897.129	-26.96
897.299	20.14
897.47	-4.44
897.64	-16.73
897.81	-41.3
897.981	67.24
898.151	11.95
898.322	28.33
898.492	-47.44
898.662	-29.01
898.832	26.28
899.003	11.95
899.173	22.19
899.343	-14.68
899.513	-92.5
