Data from USB4F104151__292__14-23-47-731.txt Node

Date: Thu Mar 13 14:23:47 EDT 2025
User: louis
Spectrometer: USB4F10415
Trigger mode: 4
Integration Time (sec): 2.000000E-2
Scans to average: 1
Electric dark correction enabled: true
Nonlinearity correction enabled: false
Boxcar width: 0
XAxis mode: Wavelengths
Number of Pixels in Spectrum: 3648
>>>>>Begin Spectral Data<<<<<
178.204	-86.87
178.424	-86.87
178.644	-86.87
178.864	-56.15
179.084	-90.96
179.304	-68.44
179.524	81.07
179.744	-25.43
179.964	-21.33
180.184	-17.24
180.404	-0.85
180.624	9.39
180.844	27.82
181.064	52.39
181.283	-31.57
181.503	-29.52
181.723	23.72
181.943	-25.43
182.163	27.82
182.383	33.96
182.602	31.91
182.822	44.2
183.042	103.59
183.262	7.34
183.482	36.01
183.701	19.63
183.921	-82.77
184.141	-9.05
184.361	-0.85
184.58	72.87
184.8	15.53
185.02	-13.14
185.239	-15.19
185.459	33.96
185.679	33.96
185.898	-72.53
186.118	101.55
186.338	50.35
186.557	72.87
186.777	-39.76
186.997	-7
187.216	19.63
187.436	19.63
187.655	27.82
187.875	17.58
188.095	-2.9
188.314	17.58
188.534	56.49
188.753	-7
188.973	27.82
189.192	23.72
189.412	-4.95
189.631	23.72
189.851	-0.85
190.07	-25.43
190.29	-25.43
190.509	36.01
190.729	-45.91
190.948	21.67
191.168	85.16
191.387	-0.85
191.607	-17.24
191.826	36.01
192.045	7.34
192.265	15.53
192.484	-17.24
192.704	-4.95
192.923	-50
193.142	1.19
193.362	42.15
193.581	74.92
193.8	-9.05
194.02	64.68
194.239	1.19
194.458	74.92
194.678	48.3
194.897	-11.09
195.116	23.72
195.335	-15.19
195.555	-19.29
195.774	-33.62
195.993	38.06
196.212	-35.67
196.432	72.87
196.651	-15.19
196.87	33.96
197.089	81.07
197.308	79.02
197.528	19.63
197.747	-74.58
197.966	-17.24
198.185	29.87
198.404	23.72
198.623	-4.95
198.842	68.78
199.062	89.26
199.281	-15.19
199.5	1.19
199.719	56.49
199.938	40.11
200.157	25.77
200.376	15.53
200.595	91.31
200.814	-17.24
201.033	42.15
201.252	25.77
201.471	-17.24
201.69	-45.91
201.909	-0.85
202.128	-17.24
202.347	-0.85
202.566	-58.2
202.785	-0.85
203.004	23.72
203.223	7.34
203.442	-2.9
203.661	31.91
203.879	-0.85
204.098	15.53
204.317	-0.85
204.536	60.59
204.755	-17.24
204.974	64.68
205.193	3.24
205.411	109.74
205.63	-21.33
205.849	-25.43
206.068	-66.39
206.287	44.2
206.505	44.2
206.724	-52.05
206.943	-0.85
207.162	40.11
207.381	99.5
207.599	3.24
207.818	-15.19
208.037	21.67
208.255	1.19
208.474	-7
208.693	54.44
208.911	27.82
209.13	-25.43
209.349	-4.95
209.567	15.53
209.786	74.92
210.005	52.39
210.223	54.44
210.442	15.53
210.661	25.77
210.879	5.29
211.098	-4.95
211.316	23.72
211.535	27.82
211.753	-35.67
211.972	-0.85
212.191	-0.85
212.409	31.91
212.628	15.53
212.846	23.72
213.065	74.92
213.283	87.21
213.502	56.49
213.72	23.72
213.938	-50
214.157	-23.38
214.375	-33.62
214.594	-39.76
214.812	-4.95
215.031	-58.2
215.249	29.87
215.467	-9.05
215.686	1.19
215.904	119.98
216.122	13.48
216.341	89.26
216.559	76.97
216.778	74.92
216.996	-21.33
217.214	38.06
217.432	38.06
217.651	-9.05
217.869	7.34
218.087	52.39
218.306	36.01
218.524	48.3
218.742	17.58
218.96	-9.05
219.179	40.11
219.397	-19.29
219.615	115.88
219.833	40.11
220.051	9.39
220.27	72.87
220.488	40.11
220.706	-4.95
220.924	-21.33
221.142	23.72
221.36	-23.38
221.578	74.92
221.796	44.2
222.015	27.82
222.233	-31.57
222.451	74.92
222.669	-58.2
222.887	66.73
223.105	-33.62
223.323	33.96
223.541	1.19
223.759	56.49
223.977	36.01
224.195	66.73
224.413	23.72
224.631	81.07
224.849	19.63
225.067	68.78
225.285	-9.05
225.503	15.53
225.721	-35.67
225.939	-43.86
226.157	3.24
226.375	111.78
226.592	58.54
226.81	-19.29
227.028	15.53
227.246	-9.05
227.464	-23.38
227.682	66.73
227.9	36.01
228.117	31.91
228.335	3.24
228.553	-0.85
228.771	36.01
228.989	60.59
229.206	-31.57
229.424	56.49
229.642	1.19
229.86	-33.62
230.077	9.39
230.295	66.73
230.513	19.63
230.731	15.53
230.948	97.45
231.166	54.44
231.384	-0.85
231.601	36.01
231.819	-13.14
232.037	-9.05
232.254	-41.81
232.472	-17.24
232.689	-9.05
232.907	-9.05
233.125	-21.33
233.342	31.91
233.56	3.24
233.777	79.02
233.995	64.68
234.213	31.91
234.43	91.31
234.648	15.53
234.865	23.72
235.083	-4.95
235.3	-23.38
235.518	42.15
235.735	17.58
235.953	50.35
236.17	13.48
236.388	48.3
236.605	-2.9
236.822	68.78
237.04	48.3
237.257	-33.62
237.475	-2.9
237.692	-7
237.909	-17.24
238.127	-47.96
238.344	89.26
238.562	33.96
238.779	-23.38
238.996	-9.05
239.214	29.87
239.431	64.68
239.648	23.72
239.865	-9.05
240.083	-13.14
240.3	-13.14
240.517	-33.62
240.735	9.39
240.952	113.83
241.169	1.19
241.386	-2.9
241.603	21.67
241.821	-41.81
242.038	21.67
242.255	1.19
242.472	25.77
242.689	-7
242.907	40.11
243.124	60.59
243.341	56.49
243.558	-19.29
243.775	19.63
243.992	-50
244.209	15.53
244.426	27.82
244.643	-9.05
244.86	-72.53
245.078	-17.24
245.295	-9.05
245.512	-45.91
245.729	-95.06
245.946	23.72
246.163	42.15
246.38	-33.62
246.597	31.91
246.814	15.53
247.031	3.24
247.248	13.48
247.464	36.01
247.681	-29.52
247.898	48.3
248.115	40.11
248.332	-33.62
248.549	44.2
248.766	56.49
248.983	56.49
249.2	95.4
249.417	48.3
249.633	27.82
249.85	48.3
250.067	23.72
250.284	48.3
250.501	-23.38
250.717	31.91
250.934	-62.29
251.151	48.3
251.368	-43.86
251.585	11.43
251.801	52.39
252.018	29.87
252.235	-50
252.451	23.72
252.668	-54.1
252.885	68.78
253.102	-45.91
253.318	50.35
253.535	68.78
253.752	5.29
253.968	19.63
254.185	15.53
254.401	85.16
254.618	33.96
254.835	-2.9
255.051	40.11
255.268	-4.95
255.484	1.19
255.701	3.24
255.917	66.73
256.134	23.72
256.351	17.58
256.567	-25.43
256.784	17.58
257	-7
257.217	-45.91
257.433	58.54
257.65	66.73
257.866	9.39
258.082	3.24
258.299	23.72
258.515	42.15
258.732	36.01
258.948	40.11
259.165	76.97
259.381	23.72
259.597	58.54
259.814	50.35
260.03	-0.85
260.246	56.49
260.463	105.64
260.679	11.43
260.895	31.91
261.112	-0.85
261.328	7.34
261.544	58.54
261.761	46.25
261.977	-7
262.193	33.96
262.409	3.24
262.626	60.59
262.842	81.07
263.058	36.01
263.274	29.87
263.49	-0.85
263.707	81.07
263.923	-23.38
264.139	-7
264.355	42.15
264.571	89.26
264.787	23.72
265.004	23.72
265.22	103.59
265.436	27.82
265.652	-17.24
265.868	-41.81
266.084	-0.85
266.3	1.19
266.516	44.2
266.732	-23.38
266.948	17.58
267.164	19.63
267.38	68.78
267.596	76.97
267.812	48.3
268.028	29.87
268.244	31.91
268.46	9.39
268.676	42.15
268.892	44.2
269.108	-0.85
269.324	29.87
269.54	7.34
269.756	25.77
269.972	58.54
270.188	-13.14
270.403	3.24
270.619	-0.85
270.835	-17.24
271.051	-45.91
271.267	-21.33
271.483	13.48
271.698	9.39
271.914	33.96
272.13	9.39
272.346	7.34
272.562	-11.09
272.777	40.11
272.993	25.77
273.209	52.39
273.425	-25.43
273.64	89.26
273.856	68.78
274.072	19.63
274.287	15.53
274.503	23.72
274.719	40.11
274.934	60.59
275.15	-21.33
275.366	97.45
275.581	-13.14
275.797	27.82
276.012	-25.43
276.228	40.11
276.444	113.83
276.659	58.54
276.875	-39.76
277.09	-21.33
277.306	15.53
277.521	9.39
277.737	-64.34
277.952	-19.29
278.168	31.91
278.383	-7
278.599	-33.62
278.814	42.15
279.03	7.34
279.245	72.87
279.461	64.68
279.676	83.11
279.892	-31.57
280.107	-35.67
280.322	29.87
280.538	31.91
280.753	72.87
280.969	9.39
281.184	3.24
281.399	15.53
281.615	36.01
281.83	60.59
282.045	1.19
282.26	-47.96
282.476	19.63
282.691	56.49
282.906	42.15
283.122	25.77
283.337	17.58
283.552	54.44
283.767	-9.05
283.983	79.02
284.198	-52.05
284.413	46.25
284.628	-9.05
284.843	85.16
285.058	54.44
285.274	15.53
285.489	72.87
285.704	-17.24
285.919	1.19
286.134	31.91
286.349	25.77
286.564	9.39
286.779	50.35
286.995	-11.09
287.21	5.29
287.425	105.64
287.64	60.59
287.855	-33.62
288.07	7.34
288.285	64.68
288.5	50.35
288.715	-11.09
288.93	23.72
289.145	17.58
289.36	64.68
289.575	19.63
289.79	21.67
290.004	21.67
290.219	23.72
290.434	72.87
290.649	33.96
290.864	-33.62
291.079	50.35
291.294	-4.95
291.509	50.35
291.724	19.63
291.938	62.63
292.153	105.64
292.368	-2.9
292.583	1.19
292.798	74.92
293.012	50.35
293.227	19.63
293.442	-13.14
293.657	74.92
293.871	95.4
294.086	-4.95
294.301	76.97
294.516	93.35
294.73	74.92
294.945	-2.9
295.16	-66.39
295.374	74.92
295.589	107.69
295.804	-39.76
296.018	56.49
296.233	11.43
296.447	-45.91
296.662	-23.38
296.877	48.3
297.091	-9.05
297.306	-33.62
297.52	50.35
297.735	21.67
297.949	-29.52
298.164	40.11
298.378	-7
298.593	40.11
298.807	38.06
299.022	31.91
299.236	-17.24
299.451	1.19
299.665	33.96
299.88	9.39
300.094	-25.43
300.309	9.39
300.523	27.82
300.737	25.77
300.952	-0.85
301.166	87.21
301.381	-37.72
301.595	27.82
301.809	-4.95
302.024	-23.38
302.238	-4.95
302.452	76.97
302.667	17.58
302.881	-4.95
303.095	60.59
303.309	58.54
303.524	-7
303.738	36.01
303.952	50.35
304.166	33.96
304.381	-0.85
304.595	130.22
304.809	-21.33
305.023	64.68
305.237	15.53
305.452	-62.29
305.666	85.16
305.88	25.77
306.094	-4.95
306.308	-58.2
306.522	56.49
306.736	72.87
306.95	42.15
307.164	50.35
307.379	-9.05
307.593	40.11
307.807	79.02
308.021	23.72
308.235	91.31
308.449	-52.05
308.663	-13.14
308.877	60.59
309.091	54.44
309.305	23.72
309.519	-17.24
309.733	91.31
309.947	1.19
310.161	-9.05
310.374	5.29
310.588	17.58
310.802	-52.05
311.016	66.73
311.23	-17.24
311.444	-54.1
311.658	-15.19
311.872	60.59
312.085	62.63
312.299	-15.19
312.513	-0.85
312.727	11.43
312.941	21.67
313.154	66.73
313.368	48.3
313.582	48.3
313.796	72.87
314.009	-13.14
314.223	42.15
314.437	52.39
314.651	91.31
314.864	31.91
315.078	-29.52
315.292	-0.85
315.505	83.11
315.719	58.54
315.933	38.06
316.146	68.78
316.36	-33.62
316.573	76.97
316.787	42.15
317.001	81.07
317.214	-33.62
317.428	64.68
317.641	50.35
317.855	-0.85
318.068	-4.95
318.282	15.53
318.495	56.49
318.709	-9.05
318.922	23.72
319.136	50.35
319.349	-19.29
319.563	7.34
319.776	72.87
319.99	-7
320.203	72.87
320.417	58.54
320.63	83.11
320.843	40.11
321.057	31.91
321.27	31.91
321.483	33.96
321.697	76.97
321.91	27.82
322.124	31.91
322.337	27.82
322.55	31.91
322.763	66.73
322.977	-25.43
323.19	15.53
323.403	85.16
323.617	-37.72
323.83	48.3
324.043	-9.05
324.256	42.15
324.469	29.87
324.683	9.39
324.896	15.53
325.109	31.91
325.322	27.82
325.535	74.92
325.748	23.72
325.962	58.54
326.175	33.96
326.388	42.15
326.601	-33.62
326.814	40.11
327.027	-21.33
327.24	48.3
327.453	-15.19
327.666	48.3
327.879	-23.38
328.092	40.11
328.305	93.35
328.518	33.96
328.731	48.3
328.944	11.43
329.157	-4.95
329.37	-13.14
329.583	93.35
329.796	33.96
330.009	-15.19
330.222	54.44
330.435	15.53
330.648	66.73
330.861	-29.52
331.073	11.43
331.286	40.11
331.499	56.49
331.712	23.72
331.925	42.15
332.138	-19.29
332.35	1.19
332.563	-0.85
332.776	-33.62
332.989	-9.05
333.202	27.82
333.414	-2.9
333.627	-9.05
333.84	60.59
334.053	36.01
334.265	62.63
334.478	5.29
334.691	-25.43
334.903	58.54
335.116	-17.24
335.329	58.54
335.541	72.87
335.754	70.83
335.966	-9.05
336.179	-15.19
336.392	56.49
336.604	25.77
336.817	-39.76
337.029	9.39
337.242	1.19
337.454	97.45
337.667	23.72
337.88	52.39
338.092	-45.91
338.305	29.87
338.517	23.72
338.729	44.2
338.942	-27.48
339.154	15.53
339.367	40.11
339.579	-0.85
339.792	31.91
340.004	85.16
340.217	66.73
340.429	31.91
340.641	-15.19
340.854	-21.33
341.066	-68.44
341.278	81.07
341.491	66.73
341.703	-35.67
341.915	-25.43
342.128	44.2
342.34	-2.9
342.552	40.11
342.764	52.39
342.977	-9.05
343.189	15.53
343.401	72.87
343.613	72.87
343.826	40.11
344.038	15.53
344.25	81.07
344.462	-78.68
344.674	42.15
344.886	-17.24
345.099	115.88
345.311	23.72
345.523	64.68
345.735	56.49
345.947	40.11
346.159	60.59
346.371	13.48
346.583	58.54
346.795	105.64
347.007	-15.19
347.219	9.39
347.431	105.64
347.643	40.11
347.855	-27.48
348.067	48.3
348.279	-13.14
348.491	19.63
348.703	128.17
348.915	40.11
349.127	-4.95
349.339	17.58
349.551	-11.09
349.763	-39.76
349.975	60.59
350.187	44.2
350.399	105.64
350.61	23.72
350.822	40.11
351.034	70.83
351.246	7.34
351.458	42.15
351.669	-4.95
351.881	52.39
352.093	64.68
352.305	50.35
352.517	56.49
352.728	27.82
352.94	-41.81
353.152	89.26
353.363	40.11
353.575	56.49
353.787	85.16
353.999	9.39
354.21	50.35
354.422	72.87
354.633	50.35
354.845	15.53
355.057	64.68
355.268	-4.95
355.48	52.39
355.692	48.3
355.903	-33.62
356.115	-17.24
356.326	-31.57
356.538	52.39
356.749	64.68
356.961	42.15
357.172	-7
357.384	-0.85
357.595	97.45
357.807	44.2
358.018	40.11
358.23	-31.57
358.441	38.06
358.653	48.3
358.864	25.77
359.075	40.11
359.287	105.64
359.498	23.72
359.709	56.49
359.921	79.02
360.132	-27.48
360.344	-29.52
360.555	-25.43
360.766	89.26
360.977	-15.19
361.189	107.69
361.4	3.24
361.611	17.58
361.823	122.02
362.034	64.68
362.245	-29.52
362.456	62.63
362.667	66.73
362.879	66.73
363.09	70.83
363.301	23.72
363.512	54.44
363.723	-31.57
363.935	38.06
364.146	5.29
364.357	-15.19
364.568	29.87
364.779	44.2
364.99	97.45
365.201	-27.48
365.412	101.55
365.623	62.63
365.834	101.55
366.045	11.43
366.256	56.49
366.467	17.58
366.678	31.91
366.889	5.29
367.1	31.91
367.311	50.35
367.522	52.39
367.733	40.11
367.944	60.59
368.155	-29.52
368.366	56.49
368.577	21.67
368.788	138.41
368.999	5.29
369.209	36.01
369.42	42.15
369.631	146.6
369.842	33.96
370.053	93.35
370.264	70.83
370.474	3.24
370.685	101.55
370.896	56.49
371.107	21.67
371.317	66.73
371.528	64.68
371.739	31.91
371.95	-4.95
372.16	27.82
372.371	-15.19
372.582	33.96
372.792	64.68
373.003	-0.85
373.214	56.49
373.424	83.11
373.635	56.49
373.846	72.87
374.056	7.34
374.267	42.15
374.477	23.72
374.688	72.87
374.898	-35.67
375.109	-7
375.319	89.26
375.53	91.31
375.74	23.72
375.951	72.87
376.161	81.07
376.372	66.73
376.582	36.01
376.793	48.3
377.003	58.54
377.214	25.77
377.424	52.39
377.635	56.49
377.845	33.96
378.055	17.58
378.266	-23.38
378.476	33.96
378.686	33.96
378.897	-25.43
379.107	97.45
379.317	40.11
379.528	72.87
379.738	31.91
379.948	52.39
380.158	105.64
380.369	38.06
380.579	130.22
380.789	7.34
380.999	9.39
381.21	60.59
381.42	97.45
381.63	33.96
381.84	70.83
382.05	7.34
382.261	81.07
382.471	48.3
382.681	74.92
382.891	113.83
383.101	-0.85
383.311	25.77
383.521	95.4
383.731	50.35
383.941	42.15
384.151	-9.05
384.361	36.01
384.571	-29.52
384.781	15.53
384.991	29.87
385.201	64.68
385.411	103.59
385.621	101.55
385.831	23.72
386.041	56.49
386.251	15.53
386.461	31.91
386.671	74.92
386.881	132.26
387.091	52.39
387.301	122.02
387.511	36.01
387.72	132.26
387.93	60.59
388.14	21.67
388.35	-9.05
388.56	113.83
388.769	11.43
388.979	23.72
389.189	33.96
389.399	48.3
389.609	36.01
389.818	19.63
390.028	76.97
390.238	1.19
390.447	1.19
390.657	52.39
390.867	54.44
391.076	-7
391.286	76.97
391.496	54.44
391.705	50.35
391.915	15.53
392.125	66.73
392.334	33.96
392.544	15.53
392.753	11.43
392.963	15.53
393.172	31.91
393.382	85.16
393.591	56.49
393.801	85.16
394.01	169.13
394.22	97.45
394.429	85.16
394.639	7.34
394.848	66.73
395.058	70.83
395.267	64.68
395.477	105.64
395.686	187.56
395.895	97.45
396.105	115.88
396.314	36.01
396.524	79.02
396.733	52.39
396.942	162.98
397.152	31.91
397.361	89.26
397.57	44.2
397.78	81.07
397.989	64.68
398.198	111.78
398.407	109.74
398.617	64.68
398.826	177.32
399.035	132.26
399.244	124.07
399.453	68.78
399.663	29.87
399.872	99.5
400.081	52.39
400.29	99.5
400.499	64.68
400.708	89.26
400.917	91.31
401.127	52.39
401.336	91.31
401.545	107.69
401.754	89.26
401.963	117.93
402.172	103.59
402.381	81.07
402.59	103.59
402.799	56.49
403.008	171.18
403.217	17.58
403.426	158.89
403.635	72.87
403.844	52.39
404.053	122.02
404.262	150.7
404.471	113.83
404.68	187.56
404.888	97.45
405.097	165.03
405.306	189.61
405.515	193.7
405.724	138.41
405.933	107.69
406.142	158.89
406.35	183.46
406.559	154.79
406.768	162.98
406.977	179.37
407.185	167.08
407.394	226.47
407.603	203.94
407.812	187.56
408.02	232.62
408.229	191.66
408.438	244.9
408.646	173.22
408.855	238.76
409.064	224.42
409.272	238.76
409.481	322.73
409.69	171.18
409.898	224.42
410.107	236.71
410.315	212.14
410.524	292.01
410.733	279.72
410.941	281.77
411.15	363.69
411.358	337.06
411.567	351.4
411.775	351.4
411.984	359.59
412.192	373.92
412.401	396.45
412.609	507.04
412.818	484.52
413.026	482.47
413.234	498.85
413.443	451.75
413.651	482.47
413.86	531.62
414.068	621.73
414.276	486.56
414.485	525.47
414.693	695.46
414.901	662.69
415.11	705.7
415.318	609.44
415.526	703.65
415.734	715.94
415.943	711.84
416.151	724.13
416.359	752.8
416.567	711.84
416.776	767.13
416.984	910.49
417.192	904.35
417.4	885.92
417.608	867.49
417.817	930.97
418.025	953.5
418.233	1105.05
418.441	1035.42
418.649	1033.37
418.857	1137.82
419.065	1137.82
419.273	1105.05
419.481	1189.02
419.689	1299.61
419.897	1346.71
420.105	1307.8
420.313	1369.24
420.521	1457.3
420.729	1457.3
420.937	1490.07
421.145	1571.99
421.353	1578.13
421.561	1744.02
421.769	1711.25
421.977	1860.75
422.185	1817.74
422.393	1879.18
422.601	2014.35
422.809	2038.92
423.017	2092.17
423.224	2194.57
423.432	2315.4
423.64	2251.91
423.848	2432.13
424.056	2221.19
424.263	2495.62
424.471	2483.33
424.679	2595.97
424.887	2751.62
425.094	2868.35
425.302	2735.23
425.51	2942.08
425.718	3001.47
425.925	3202.17
426.133	3105.92
426.341	3320.95
426.548	3501.17
426.756	3372.15
426.964	3638.39
427.171	3583.09
427.379	3832.94
427.586	3902.58
427.794	4023.41
428.001	4297.83
428.209	4357.22
428.417	4430.95
428.624	4547.69
428.832	4713.57
429.039	4566.12
429.247	4590.69
429.454	5082.21
429.662	5332.06
429.869	4959.33
430.076	5407.83
430.284	5112.92
430.491	5590.1
430.699	5897.3
430.906	5725.27
431.114	5774.42
431.321	6081.61
431.528	6169.68
431.736	6626.37
431.943	6843.46
432.15	6487.11
432.358	6650.95
432.565	7162.94
432.772	7011.39
432.979	7470.14
433.187	7461.94
433.394	7482.42
433.601	8010.8
433.808	8336.43
434.016	8223.79
434.223	8469.55
434.43	8903.71
434.637	8815.65
434.844	9368.6
435.052	9600.02
435.259	9346.08
435.466	9378.84
435.673	9292.83
435.88	10236.94
436.087	10707.98
436.294	10454.03
436.501	10359.82
436.708	10556.43
436.915	10992.64
437.122	11445.24
437.329	11262.97
437.537	11719.67
437.743	11701.24
437.95	11828.21
438.157	12581.87
438.364	12936.17
438.571	12727.27
438.778	12688.36
438.985	14214.1
439.192	13300.7
439.399	13808.6
439.606	13720.54
439.813	14408.65
440.02	15375.3
440.227	14859.21
440.433	14937.03
440.64	15367.1
440.847	15367.1
441.054	15621.05
441.261	16468.91
441.467	16536.49
441.674	16804.78
441.881	17531.81
442.088	17228.71
442.294	17025.96
442.501	17525.66
442.708	17980.31
442.914	18578.32
443.121	19374.98
443.328	18729.87
443.534	20050.81
443.741	19667.84
443.948	19239.81
444.154	20781.93
444.361	20872.04
444.568	20757.36
444.774	20671.34
444.981	21042.03
445.187	21773.15
445.394	22516.56
445.6	22256.47
445.807	24372.02
446.013	23225.16
446.22	23718.72
446.426	24464.18
446.633	25213.74
446.839	25848.61
447.046	24470.33
447.252	26053.41
447.459	25981.73
447.665	26012.45
447.871	26938.13
448.078	28224.25
448.284	26747.67
448.491	27548.42
448.697	28568.31
448.903	29209.32
449.11	29090.54
449.316	28695.28
449.522	29313.77
449.728	30380.76
449.935	30208.73
450.141	30155.49
450.347	30956.24
450.553	29991.65
450.76	30624.47
450.966	31300.3
451.172	31419.08
451.378	31924.93
451.584	31273.68
451.791	32197.31
451.997	32139.97
452.203	32324.29
452.409	32375.48
452.615	32406.2
452.821	31236.81
453.027	31388.36
453.233	32594.62
453.44	31365.84
453.646	31670.98
453.852	31654.6
454.058	32197.31
454.264	31333.07
454.47	32053.95
454.676	31181.52
454.882	32451.26
455.088	29483.75
455.294	30225.12
455.5	30483.16
455.705	30771.93
455.911	29635.3
456.117	29047.54
456.323	29176.56
456.529	27089.68
456.735	28545.78
456.941	27800.32
457.147	27278.09
457.352	26618.64
457.558	26409.75
457.764	26213.15
457.97	26127.13
458.176	25346.86
458.381	25361.19
458.587	24075.07
458.793	24120.12
458.999	22877.01
459.204	24638.26
459.41	23987
459.616	22297.43
459.821	22424.4
460.027	22340.44
460.233	21713.76
460.438	20831.08
460.644	21220.2
460.85	19925.88
461.055	19780.48
461.261	19610.5
461.466	18228.12
461.672	17701.79
461.878	18998.15
462.083	17699.74
462.289	17253.28
462.494	17046.44
462.7	16313.27
462.905	16075.7
463.111	16622.51
463.316	16618.41
463.522	16266.16
463.727	16202.68
463.932	16049.08
464.138	16036.79
464.343	16270.26
464.549	15662.01
464.754	16268.21
464.959	15930.3
465.165	15879.1
465.37	15082.44
465.575	14691.27
465.781	15432.64
465.986	15133.64
466.191	14681.03
466.397	14611.4
466.602	13847.51
466.807	14318.54
467.012	14511.05
467.218	14351.31
467.423	14236.63
467.628	14232.53
467.833	14789.58
468.038	14568.4
468.244	13902.81
468.449	14713.8
468.654	14074.84
468.859	14003.16
469.064	13960.15
469.269	13446.11
469.474	13437.92
469.679	13665.24
469.885	13118.43
470.09	13368.29
470.295	13458.4
470.5	12934.12
470.705	13226.98
470.91	12979.17
471.115	12745.7
471.32	12913.64
471.525	12907.49
471.73	12352.49
471.935	12360.69
472.139	12225.52
472.344	12164.08
472.549	12041.2
472.754	12004.34
472.959	11557.88
473.164	11508.73
473.369	11396.09
473.574	11815.93
473.778	11615.23
473.983	11564.03
474.188	11357.18
474.393	11084.8
474.598	10918.92
474.802	10800.13
475.007	10886.15
475.212	10877.96
475.417	10507.27
475.621	10357.77
475.826	10624.01
476.031	10335.24
476.235	10247.18
476.44	10337.29
476.645	10066.96
476.849	10282
477.054	9993.23
477.259	9985.04
477.463	9835.54
477.668	9559.06
477.872	9894.93
478.077	9530.39
478.282	9260.06
478.486	9395.23
478.691	9432.09
478.895	9370.65
479.1	9077.79
479.304	9077.79
479.509	8795.17
479.713	8952.87
479.918	8817.7
480.122	8791.08
480.326	9008.16
480.531	8987.68
480.735	8715.3
480.94	8647.72
481.144	8875.04
481.348	8551.46
481.553	8555.56
481.757	8504.36
481.961	8547.37
482.166	8571.94
482.37	8617
482.574	8373.29
482.778	8588.33
482.983	8537.13
483.187	8506.41
483.391	8567.85
483.595	8453.16
483.8	8320.04
484.004	8494.12
484.208	8559.66
484.412	8420.39
484.616	8510.5
484.821	8518.7
485.025	8234.03
485.229	8465.45
485.433	8410.15
485.637	8557.61
485.841	8197.17
486.045	8297.52
486.249	8309.8
486.453	8369.19
486.657	8453.16
486.861	8510.5
487.065	8180.78
487.269	8629.29
487.473	8361
487.677	8469.55
487.881	8381.48
488.085	8453.16
488.289	8428.59
488.493	8473.64
488.697	8494.12
488.901	8520.74
489.105	8641.57
489.309	8502.31
489.512	8387.63
489.716	8369.19
489.92	8496.17
490.124	8569.9
490.328	8739.88
490.531	8465.45
490.735	8829.99
490.939	8717.35
491.143	8600.62
491.346	8715.3
491.55	8758.31
491.754	8801.32
491.958	9010.21
492.161	8875.04
492.365	8856.61
492.569	8911.91
492.772	8922.15
492.976	8903.71
493.18	8911.91
493.383	9002.02
493.587	9143.33
493.79	9442.33
493.994	9243.68
494.197	9339.93
494.401	9415.71
494.605	9380.89
494.808	9481.24
495.012	9544.73
495.215	9683.99
495.419	9851.92
495.622	9403.42
495.825	9794.58
496.029	9853.97
496.232	9958.42
496.436	9864.21
496.639	10140.69
496.843	10107.92
497.046	10388.49
497.249	10595.34
497.453	10374.16
497.656	10492.94
497.859	10435.6
498.063	10681.35
498.266	10941.44
498.469	10978.31
498.673	11045.89
498.876	11074.56
499.079	11254.78
499.282	11271.17
499.485	11363.33
499.689	11496.44
499.892	11822.07
500.095	11746.3
500.298	12092.4
500.501	11969.52
500.705	12207.09
500.908	12444.65
501.111	12618.73
501.314	12643.31
501.517	12887.01
501.72	12944.36
501.923	12835.81
502.126	13319.14
502.329	13370.33
502.532	13425.63
502.735	13214.69
502.938	14019.54
503.141	13675.48
503.344	14003.16
503.547	14140.37
503.75	14023.64
503.953	14509.01
504.156	14588.88
504.359	14853.06
504.562	14644.17
504.765	15154.12
504.968	15147.97
505.17	15465.41
505.373	15526.85
505.576	15858.62
505.779	15930.3
505.982	16182.2
506.185	16341.94
506.387	16243.63
506.59	16640.94
506.793	16960.42
506.996	16550.83
507.198	17302.43
507.401	17148.84
507.604	17075.11
507.807	17505.18
508.009	17929.11
508.212	17916.83
508.415	18017.18
508.617	18138.01
508.82	18439.06
509.022	18510.74
509.225	19073.93
509.428	18955.15
509.63	19170.18
509.833	18992.01
510.035	19555.2
510.238	19483.52
510.44	19667.84
510.643	20132.73
510.845	20398.96
511.048	20087.67
511.25	20616.05
511.453	20677.49
511.655	21314.41
511.858	21318.5
512.06	21347.17
512.262	21687.14
512.465	21570.4
512.667	21869.4
512.87	22223.7
513.072	22207.32
513.274	22881.1
513.477	22909.77
513.679	22956.88
513.881	23237.45
514.084	23464.77
514.286	23321.41
514.488	23763.78
514.69	24302.39
514.893	24339.26
515.095	24619.83
515.297	24599.35
515.499	25142.06
515.701	25131.82
515.904	25381.67
516.106	25748.26
516.308	25750.31
516.51	25985.82
516.712	26407.7
516.914	26368.79
517.116	26911.5
517.318	26655.51
517.52	27214.6
517.722	27081.49
517.925	28029.69
518.127	28115.71
518.329	28125.95
518.531	28029.69
518.733	28697.33
518.935	28953.33
519.136	28883.7
519.338	29266.67
519.54	29573.86
519.742	29813.48
519.944	29907.68
520.146	30356.19
520.348	30186.21
520.55	30573.27
520.752	30647
520.954	31359.69
521.155	31146.7
521.357	31539.91
521.559	31603.4
521.761	31920.84
521.963	32162.5
522.164	32203.46
522.366	32402.11
522.568	32711.35
522.77	32910
522.971	33161.9
523.173	32793.27
523.375	33524.4
523.576	33583.79
523.778	33422
523.98	34181.79
524.181	34417.31
524.383	34146.98
524.584	34386.59
524.786	34314.91
524.988	34443.93
525.189	34749.08
525.391	35207.83
525.592	35134.1
525.794	35138.19
525.995	35650.19
526.197	35545.74
526.398	35654.28
526.6	36168.32
526.801	36532.86
527.003	36196.99
527.204	36287.1
527.406	36620.92
527.607	36582.01
527.808	36682.36
528.01	36477.57
528.211	36917.88
528.412	37360.24
528.614	37364.34
528.815	36694.65
529.016	37585.52
529.218	36760.19
529.419	37200.5
529.62	37501.55
529.822	37440.11
530.023	37470.83
530.224	37753.45
530.425	37689.96
530.626	37470.83
530.828	37112.44
531.029	38261.35
531.23	37724.78
531.431	37745.26
531.632	38011.49
531.833	37911.14
532.035	37866.09
532.236	37821.03
532.437	38273.63
532.638	37767.79
532.839	37827.18
533.04	38103.65
533.241	37700.2
533.442	38529.63
533.643	38163.04
533.844	38398.56
534.045	38279.78
534.246	38013.54
534.447	38130.28
534.648	38023.78
534.849	38027.88
535.05	37892.71
535.251	38031.97
535.451	38267.49
535.652	38632.03
535.853	38171.24
536.054	38314.59
536.255	38201.96
536.456	37941.86
536.657	38691.42
536.857	37591.66
537.058	37970.54
537.259	38113.89
537.46	38277.73
537.66	38113.89
537.861	37982.82
538.062	37866.09
538.263	38359.65
538.463	37966.44
538.664	38005.35
538.865	37982.82
539.065	38453.86
539.266	37814.89
539.466	37935.72
539.667	37548.65
539.868	38187.62
540.068	37866.09
540.269	37818.99
540.469	38103.65
540.67	37522.03
540.87	37876.33
541.071	37786.22
541.271	38419.04
541.472	38161
541.672	37775.98
541.873	37587.57
542.073	37278.32
542.274	38169.19
542.474	37806.7
542.675	37667.44
542.875	38142.56
543.075	37505.65
543.276	37663.34
543.476	38021.73
543.676	37364.34
543.877	37968.49
544.077	37997.16
544.277	37468.78
544.478	37585.52
544.678	37722.73
544.878	37732.97
545.078	37632.62
545.279	37481.07
545.479	37354.1
545.679	37606
545.879	37534.32
546.079	37821.03
546.28	37806.7
546.48	37335.66
546.68	37718.64
546.88	37464.69
547.08	37620.33
547.28	37290.61
547.48	37046.9
547.68	37571.18
547.88	37231.22
548.081	37374.58
548.281	37311.09
548.481	37327.47
548.681	37753.45
548.881	37292.66
549.081	37098.1
549.28	37128.82
549.48	37532.27
549.68	37730.92
549.88	37554.8
550.08	37376.62
550.28	37757.55
550.48	37399.15
550.68	37206.64
550.88	37216.88
551.08	37165.68
551.279	37476.97
551.479	37421.68
551.679	37298.8
551.879	37137.01
552.079	37491.31
552.278	37163.64
552.478	37360.24
552.678	37259.89
552.878	37548.65
553.077	37108.34
553.277	36647.55
553.477	37313.14
553.676	36987.51
553.876	37407.34
554.076	37292.66
554.275	37214.83
554.475	36999.8
554.674	37241.46
554.874	37489.26
555.074	36944.5
555.273	37298.8
555.473	37546.61
555.672	37180.02
555.872	36985.46
556.071	37440.11
556.271	37616.24
556.47	37016.18
556.67	36573.82
556.869	36541.05
557.068	36928.12
557.268	36375.17
557.467	36510.33
557.667	37134.96
557.866	36885.11
558.065	36692.6
558.265	36627.07
558.464	36606.59
558.663	36680.31
558.863	36641.4
559.062	36983.41
559.261	36641.4
559.461	36606.59
559.66	36237.95
559.859	36389.5
560.058	36006.53
560.258	36248.19
560.457	35809.93
560.656	36319.87
560.855	36436.61
561.054	36260.48
561.253	35924.61
561.453	36008.58
561.652	36168.32
561.851	36549.24
562.05	36000.39
562.249	35631.75
562.448	36326.02
562.647	36002.44
562.846	35480.21
563.045	35828.36
563.244	35570.32
563.443	36153.99
563.642	35005.08
563.841	35410.57
564.04	35773.06
564.239	35697.29
564.438	35019.41
564.637	35371.66
564.836	35582.6
565.035	35109.52
565.234	35240.59
565.432	34921.11
565.631	34765.46
565.83	35273.36
566.029	34898.58
566.228	34744.98
566.427	34716.31
566.625	34290.34
566.824	34505.37
567.023	34329.25
567.222	34253.47
567.42	34884.25
567.619	34402.97
567.818	34425.5
568.016	34187.94
568.215	34501.28
568.414	34454.17
568.612	34433.69
568.811	33854.12
569.01	33895.08
569.208	33620.65
569.407	34034.34
569.605	33387.18
569.804	34099.87
570.002	33350.32
570.201	33446.57
570.4	33577.64
570.598	33456.81
570.797	32969.4
570.995	33231.54
571.193	32914.1
571.392	33295.02
571.59	32914.1
571.789	33071.79
571.987	33204.91
572.186	32559.8
572.384	32395.96
572.582	32723.64
572.781	32774.84
572.979	32062.15
573.177	32539.32
573.376	32377.53
573.574	32469.69
573.772	32314.05
573.971	32377.53
574.169	32197.31
574.367	31701.7
574.565	31736.52
574.763	31636.17
574.962	31812.29
575.16	31376.08
575.358	31785.67
575.556	31464.14
575.754	31769.29
575.952	31384.27
576.151	31544.01
576.349	31044.3
576.547	30864.08
576.745	30882.52
576.943	30974.67
577.141	30610.14
577.339	30946
577.537	31029.97
577.735	30886.61
577.933	30532.31
578.131	30755.54
578.329	30495.45
578.527	30075.62
578.725	30270.17
578.923	30221.02
579.121	30153.44
579.319	30073.57
579.516	30239.45
579.714	30286.56
579.912	29876.96
580.11	29770.47
580.308	29674.21
580.506	29291.24
580.704	29074.16
580.901	29258.48
581.099	29670.12
581.297	29131.5
581.495	29403.88
581.692	29156.08
581.89	28873.46
582.088	29315.82
582.285	28820.21
582.483	28973.81
582.681	28977.9
582.878	28519.16
583.076	28689.14
583.274	28781.3
583.471	28447.48
583.669	28340.99
583.866	27900.67
584.064	28566.26
584.262	27865.86
584.459	28316.41
584.657	28082.94
584.854	28439.29
585.052	27308.81
585.249	28041.98
585.447	27652.87
585.644	27683.59
585.841	27884.29
586.039	27548.42
586.236	27339.53
586.434	27138.83
586.631	27300.62
586.828	27409.16
587.026	27161.36
587.223	27214.6
587.42	27015.95
587.618	27104.01
587.815	26772.24
588.012	26600.21
588.21	26671.89
588.407	27061.01
588.604	26714.9
588.801	26118.94
588.999	26469.14
589.196	26374.94
589.393	26581.78
589.59	26274.59
589.787	26315.55
589.984	26069.79
590.182	26127.13
590.379	25916.19
590.576	25721.63
590.773	25846.56
590.97	25721.63
591.167	25967.39
591.364	25531.17
591.561	25727.78
591.758	25185.07
591.955	25414.44
592.152	25301.8
592.349	24986.41
592.546	25088.81
592.743	25350.95
592.94	24937.26
593.137	25041.71
593.334	25015.08
593.531	24632.11
593.727	25021.23
593.924	24888.11
594.121	24523.57
594.318	24675.12
594.515	24312.63
594.712	24628.02
594.908	24273.72
595.105	24310.58
595.302	24195.9
595.499	24236.86
595.696	24363.83
595.892	23987
596.089	24017.72
596.286	23980.86
596.482	23792.45
596.679	23872.32
596.876	23743.3
597.072	23657.28
597.269	23675.71
597.466	23444.29
597.662	23530.31
597.859	23565.12
598.055	23569.22
598.252	23341.89
598.448	23214.92
598.645	22963.02
598.841	22799.18
599.038	23298.89
599.234	23149.39
599.431	22960.97
599.627	22643.54
599.824	22960.97
600.02	22625.11
600.217	22793.04
600.413	22455.12
600.609	22383.45
600.806	22250.33
601.002	22786.89
601.198	22428.5
601.395	22279
601.591	22172.5
601.787	22432.6
601.984	22168.41
602.18	22414.16
602.376	21943.13
602.572	22113.11
602.769	22057.82
602.965	21609.31
603.161	21859.17
603.357	21529.44
603.553	21814.11
603.75	21586.79
603.946	21535.59
604.142	21562.21
604.338	21144.42
604.534	21123.94
604.73	21232.49
604.926	21248.87
605.122	21265.25
605.318	20865.9
605.514	20833.13
605.71	20841.32
605.906	20751.21
606.102	21162.86
606.298	20927.34
606.494	20962.15
606.69	20892.52
606.886	21011.31
607.082	20480.88
607.278	20808.56
607.474	20091.77
607.67	20521.84
607.866	20411.25
608.062	20734.83
608.257	20392.82
608.453	20550.51
608.649	20323.19
608.845	20304.76
609.041	20407.16
609.236	20046.71
609.432	20216.69
609.628	20130.68
609.824	20464.5
610.019	19809.15
610.215	19972.99
610.411	20077.43
610.606	19827.58
610.802	20046.71
610.998	19909.5
611.193	19766.14
611.389	19692.41
611.584	19528.58
611.78	19575.68
611.976	19659.65
612.171	19942.27
612.367	19721.09
612.562	19420.03
612.758	19248
612.953	19303.3
613.149	19542.91
613.344	19321.73
613.539	19694.46
613.735	19143.56
613.93	19108.74
614.126	19116.93
614.321	19217.29
614.517	19133.32
614.712	19008.39
614.907	19417.99
615.103	19182.47
615.298	19147.65
615.493	19125.13
615.688	18930.57
615.884	19010.44
616.079	18793.36
616.274	19024.78
616.47	18830.22
616.665	18887.56
616.86	18539.41
617.055	18838.41
617.25	18860.94
617.445	18467.73
617.641	18426.77
617.836	18602.89
618.031	18369.43
618.226	18574.22
618.421	18242.45
618.616	18232.21
618.811	18162.58
619.006	18269.08
619.201	17951.64
619.396	18211.73
619.591	17914.78
619.786	18088.85
619.981	18111.38
620.176	17781.66
620.371	17664.93
620.566	17970.07
620.761	17841.05
620.956	17730.46
621.151	17386.4
621.346	17646.49
621.541	17050.53
621.735	17453.98
621.93	16941.99
622.125	17177.51
622.32	16888.74
622.515	17097.64
622.709	16866.22
622.904	16599.98
623.099	16980.9
623.294	16688.04
623.488	16370.61
623.683	16565.17
623.878	16057.27
624.072	16458.67
624.267	16264.11
624.462	15973.3
624.656	15901.62
624.851	16014.26
625.046	15938.49
625.24	15909.82
625.435	15569.85
625.629	15408.06
625.824	15608.76
626.018	15598.52
626.213	15156.16
626.407	15211.46
626.602	15068.1
626.796	15096.77
626.991	15227.84
627.185	15080.39
627.38	14793.67
627.574	14932.93
627.768	14642.12
627.963	14760.91
628.157	14549.96
628.352	14638.03
628.546	14330.83
628.74	14355.41
628.935	14240.72
629.129	14181.33
629.323	13908.95
629.517	13843.42
629.712	13886.42
629.906	13851.61
630.1	13843.42
630.294	13800.41
630.489	13704.15
630.683	13552.6
630.877	13298.66
631.071	13294.56
631.265	13315.04
631.459	13290.46
631.653	13220.83
631.848	12932.07
632.042	13005.8
632.236	13018.08
632.43	12790.76
632.624	12911.59
632.818	12835.81
633.012	12553.2
633.206	12772.33
633.4	12524.52
633.594	12270.58
633.788	12616.68
633.982	12436.46
634.176	12495.85
634.369	12313.58
634.563	12401.65
634.757	12119.03
634.951	12243.95
635.145	12063.73
635.339	11891.7
635.533	11693.05
635.726	12039.15
635.92	11828.21
636.114	11828.21
636.308	11664.38
636.501	11768.82
636.695	11480.06
636.889	11516.92
637.083	11422.72
637.276	11289.6
637.47	11254.78
637.664	11101.19
637.857	11353.09
638.051	11140.1
638.244	10982.4
638.438	11109.38
638.632	10855.43
638.825	10720.26
639.019	10681.35
639.212	10791.94
639.406	10816.52
639.599	10537.99
639.793	10451.98
639.986	10542.09
640.18	10468.36
640.373	10468.36
640.567	10218.51
640.76	10249.23
640.954	10085.39
641.147	10155.02
641.34	10064.91
641.534	10247.18
641.727	10304.53
641.92	10017.81
642.114	9989.14
642.307	9866.26
642.5	9886.74
642.694	9675.8
642.887	9604.12
643.08	9821.2
643.273	9727
643.467	9571.35
643.66	9370.65
643.853	9452.57
644.046	9362.46
644.239	9149.47
644.432	9301.02
644.626	9149.47
644.819	9276.45
645.012	9229.34
645.205	9126.94
645.398	9266.21
645.591	8873
645.784	8897.57
645.977	8743.97
646.17	8782.88
646.363	8829.99
646.556	8680.49
646.749	8676.39
646.942	8743.97
647.135	8760.36
647.328	8541.22
647.521	8414.25
647.714	8610.86
647.907	8338.48
648.099	8221.74
648.292	8432.68
648.485	8412.2
648.678	8150.06
648.871	8109.1
649.064	8221.74
649.256	8244.27
649.449	8010.8
649.642	8119.34
649.835	7771.19
650.027	7949.36
650.22	7779.38
650.413	7937.07
650.605	7855.15
650.798	7793.72
650.991	7621.69
651.183	7748.66
651.376	7470.14
651.568	7576.63
651.761	7496.76
651.954	7404.6
652.146	7429.18
652.339	7373.88
652.531	7363.64
652.724	7332.92
652.916	7199.8
653.109	7244.86
653.301	7324.73
653.494	7238.72
653.686	6855.75
653.879	7316.54
654.071	7167.04
654.263	6986.82
654.456	7150.65
654.648	7083.07
654.84	6794.31
655.033	6702.15
655.225	6868.03
655.417	6859.84
655.61	6847.55
655.802	6620.23
655.994	6677.57
656.186	6884.42
656.379	6556.74
656.571	6642.76
656.763	6450.25
656.955	6646.85
657.148	6640.71
657.34	6636.61
657.532	6349.9
657.724	6220.88
657.916	6415.43
658.108	6464.58
658.3	6280.27
658.492	6206.54
658.684	6276.17
658.876	6169.68
659.068	6112.33
659.26	6167.63
659.452	6069.33
659.644	6149.2
659.836	5938.26
660.028	6038.61
660.22	5993.55
660.412	6022.22
660.604	5872.72
660.796	5882.96
660.988	5921.87
661.18	5770.32
661.372	5678.16
661.563	5712.98
661.755	5862.48
661.947	5715.03
662.139	5667.92
662.331	5741.65
662.522	5569.62
662.714	5565.53
662.906	5444.7
663.097	5749.84
663.289	5422.17
663.481	5368.92
663.673	5362.78
663.864	5160.03
664.056	5217.37
664.247	5569.62
664.439	5123.16
664.631	5362.78
664.822	5319.77
665.014	5209.18
665.205	5180.51
665.397	5131.36
665.588	5217.37
665.78	5049.44
665.971	4973.66
666.163	5076.06
666.354	5006.43
666.546	5061.73
666.737	4815.97
666.929	4873.31
667.12	4947.04
667.311	4826.21
667.503	5039.2
667.694	4893.79
667.885	4678.76
668.077	4824.16
668.268	4783.2
668.459	4750.43
668.651	4766.82
668.842	4717.67
669.033	4662.37
669.224	4570.21
669.416	4586.6
669.607	4562.02
669.798	4461.67
669.989	4689
670.18	4428.9
670.371	4357.22
670.563	4500.58
670.754	4467.81
670.945	4299.88
671.136	4402.28
671.327	4326.5
671.518	4389.99
671.709	4459.62
671.9	4471.91
672.091	4189.29
672.282	4344.94
672.473	4189.29
672.664	4240.49
672.855	4275.31
673.046	4373.61
673.237	4193.39
673.428	4244.59
673.619	4136.04
673.809	4211.82
674	4013.17
674.191	4205.67
674.382	4152.43
674.573	4047.98
674.764	4105.32
674.954	4162.67
675.145	3982.45
675.336	3986.54
675.527	3918.96
675.717	4146.28
675.908	3923.05
676.099	3869.81
676.289	3890.29
676.48	3968.11
676.671	3834.99
676.861	3953.77
677.052	3718.26
677.243	3826.8
677.433	3890.29
677.624	3918.96
677.814	3626.1
678.005	3820.66
678.195	3882.1
678.386	3859.57
678.576	3718.26
678.767	3761.27
678.957	3638.39
679.148	3748.98
679.338	3646.58
679.529	3679.35
679.719	3632.24
679.909	3699.83
680.1	3650.67
680.29	3716.21
680.481	3472.5
680.671	3611.76
680.861	3646.58
681.052	3564.66
681.242	3529.84
681.432	3529.84
681.622	3542.13
681.813	3478.65
682.003	3599.48
682.193	3490.93
682.383	3613.81
682.573	3488.89
682.764	3601.52
682.954	3400.82
683.144	3495.03
683.334	3411.06
683.524	3279.99
683.714	3480.69
683.904	3243.13
684.094	3310.71
684.284	3376.25
684.474	3464.31
684.664	3460.21
684.854	3200.12
685.044	3292.28
685.234	3390.58
685.424	3296.38
685.614	3259.51
685.804	3183.74
685.994	3288.18
686.184	3226.75
686.374	3239.03
686.564	3157.11
686.753	3126.39
686.943	3222.65
687.133	3134.59
687.323	3146.87
687.513	3220.6
687.702	3122.3
687.892	3155.07
688.082	3157.11
688.272	3095.68
688.461	3202.17
688.651	3175.55
688.841	3021.95
689.03	3155.07
689.22	3024
689.41	2985.09
689.599	2985.09
689.789	3013.76
689.979	3046.52
690.168	2901.12
690.358	2964.61
690.547	2991.23
690.737	2989.18
690.926	2751.62
691.116	2948.22
691.305	2886.78
691.495	2989.18
691.684	2913.41
691.874	2866.3
692.063	2882.69
692.252	2821.25
692.442	2956.41
692.631	2886.78
692.82	2933.89
693.01	2735.23
693.199	2901.12
693.388	2722.95
693.578	2872.45
693.767	2874.49
693.956	2843.78
694.146	2819.2
694.335	2731.14
694.524	2831.49
694.713	2757.76
694.902	2714.75
695.092	2759.81
695.281	2718.85
695.47	2657.41
695.659	2727.04
695.848	2841.73
696.037	2681.99
696.226	2722.95
696.415	2729.09
696.604	2811.01
696.793	2737.28
696.982	2772.1
697.171	2653.31
697.36	2684.03
697.549	2684.03
697.738	2565.25
697.927	2710.66
698.116	2712.71
698.305	2718.85
698.494	2841.73
698.683	2729.09
698.872	2669.7
699.061	2681.99
699.25	2690.18
699.438	2649.22
699.627	2700.42
699.816	2686.08
700.005	2671.75
700.193	2583.68
700.382	2753.66
700.571	2602.11
700.76	2673.79
700.948	2614.4
701.137	2628.74
701.326	2655.36
701.514	2530.44
701.703	2563.2
701.892	2579.59
702.08	2679.94
702.269	2669.7
702.457	2569.35
702.646	2612.35
702.834	2591.88
703.023	2481.28
703.212	2671.75
703.4	2518.15
703.589	2507.91
703.777	2516.1
703.965	2481.28
704.154	2524.29
704.342	2612.35
704.531	2608.26
704.719	2530.44
704.907	2548.87
705.096	2581.64
705.284	2495.62
705.472	2487.43
705.661	2505.86
705.849	2575.49
706.037	2614.4
706.226	2466.95
706.414	2616.45
706.602	2456.71
706.79	2483.33
706.979	2419.85
707.167	2546.82
707.355	2530.44
707.543	2473.09
707.731	2538.63
707.919	2516.1
708.107	2456.71
708.296	2546.82
708.484	2325.64
708.672	2469
708.86	2526.34
709.048	2456.71
709.236	2409.61
709.424	2391.17
709.612	2325.64
709.8	2444.42
709.988	2337.93
710.176	2428.04
710.364	2516.1
710.551	2391.17
710.739	2309.26
710.927	2411.65
711.115	2391.17
711.303	2399.37
711.491	2358.41
711.679	2327.69
711.866	2387.08
712.054	2278.54
712.242	2280.58
712.43	2309.26
712.617	2378.89
712.805	2311.3
712.993	2372.74
713.181	2286.73
713.368	2307.21
713.556	2288.78
713.744	2366.6
713.931	2366.6
714.119	2239.62
714.306	2413.7
714.494	2245.77
714.682	2284.68
714.869	2153.61
715.057	2268.3
715.244	2237.58
715.432	2223.24
715.619	2342.02
715.807	2210.95
715.994	2268.3
716.182	2278.54
716.369	2219.14
716.556	2176.14
716.744	2260.1
716.931	2133.13
717.119	2374.79
717.306	2147.47
717.493	2262.15
717.681	2184.33
717.868	2286.73
718.055	2180.23
718.242	2274.44
718.43	2172.04
718.617	2163.85
718.804	2245.77
718.991	2213
719.179	2202.76
719.366	2079.88
719.553	2163.85
719.74	2145.42
719.927	2190.47
720.114	2165.9
720.301	2126.99
720.488	2073.74
720.676	2129.03
720.863	2206.86
721.05	2186.38
721.237	2088.07
721.424	2157.71
721.611	2088.07
721.798	2047.12
721.985	2024.59
722.172	2040.97
722.358	2018.44
722.545	2141.32
722.732	2010.25
722.919	2002.06
723.106	1926.29
723.293	2110.6
723.48	2090.12
723.667	2002.06
723.853	2002.06
724.04	2092.17
724.227	2032.78
724.414	2038.92
724.6	2036.88
724.787	1961.1
724.974	2006.16
725.161	1883.28
725.347	1957
725.534	2014.35
725.72	1983.63
725.907	1961.1
726.094	2049.16
726.28	2059.4
726.467	1932.43
726.653	1965.2
726.84	1928.33
727.027	1977.48
727.213	2030.73
727.4	1942.67
727.586	1940.62
727.773	1793.17
727.959	1967.24
728.145	1928.33
728.332	1787.02
728.518	1907.85
728.705	2028.68
728.891	1838.22
729.077	1940.62
729.264	1815.69
729.45	1870.99
729.636	1942.67
729.823	1860.75
730.009	1924.24
730.195	1821.84
730.382	1836.17
730.568	1836.17
730.754	1907.85
730.94	1809.55
731.126	1903.76
731.313	1877.13
731.499	1842.32
731.685	1762.45
731.871	1928.33
732.057	1789.07
732.243	1895.57
732.429	1821.84
732.615	1805.46
732.801	1836.17
732.987	1809.55
733.173	1799.31
733.359	1662.1
733.545	1809.55
733.731	1770.64
733.917	1842.32
734.103	1727.63
734.289	1795.22
734.475	1752.21
734.661	1770.64
734.847	1787.02
735.033	1735.82
735.219	1664.15
735.404	1617.04
735.59	1789.07
735.776	1680.53
735.962	1737.87
736.148	1739.92
736.333	1811.6
736.519	1670.29
736.705	1778.83
736.89	1660.05
737.076	1711.25
737.262	1604.75
737.447	1678.48
737.633	1686.67
737.819	1707.15
738.004	1719.44
738.19	1723.54
738.375	1549.46
738.561	1678.48
738.747	1631.38
738.932	1614.99
739.118	1604.75
739.303	1590.42
739.489	1678.48
739.674	1639.57
739.859	1571.99
740.045	1594.51
740.23	1576.08
740.416	1440.92
740.601	1651.86
740.786	1580.18
740.972	1621.14
741.157	1520.79
741.342	1580.18
741.528	1514.64
741.713	1565.84
741.898	1514.64
742.084	1463.44
742.269	1436.82
742.454	1428.63
742.639	1438.87
742.824	1516.69
743.01	1504.4
743.195	1524.88
743.38	1481.88
743.565	1416.34
743.75	1498.26
743.935	1367.19
744.12	1555.6
744.305	1461.4
744.49	1434.77
744.675	1432.72
744.86	1367.19
745.045	1416.34
745.23	1334.42
745.415	1467.54
745.6	1301.65
745.785	1234.07
745.97	1402.01
746.155	1352.85
746.34	1352.85
746.525	1272.98
746.71	1260.7
746.895	1336.47
747.079	1299.61
747.264	1236.12
747.449	1285.27
747.634	1397.91
747.819	1359
748.003	1246.36
748.188	1272.98
748.373	1281.18
748.557	1330.33
748.742	1232.02
748.927	1238.17
749.111	1137.82
749.296	1227.93
749.481	1279.13
749.665	1320.09
749.85	1211.54
750.034	1246.36
750.219	1162.39
750.404	1146.01
750.588	1168.54
750.773	1045.66
750.957	1170.58
751.141	1197.21
751.326	1137.82
751.51	1125.53
751.695	1166.49
751.879	1088.67
752.064	1160.34
752.248	1121.43
752.432	1129.63
752.617	1076.38
752.801	1113.24
752.985	1039.51
753.17	957.6
753.354	1019.04
753.538	1035.42
753.722	1066.14
753.907	984.22
754.091	1000.6
754.275	1064.09
754.459	930.97
754.643	1031.32
754.828	990.36
755.012	1062.04
755.196	992.41
755.38	916.64
755.564	912.54
755.748	900.25
755.932	978.08
756.116	990.36
756.3	873.63
756.484	1000.6
756.668	980.12
756.852	924.83
757.036	875.68
757.22	941.21
757.404	900.25
757.588	894.11
757.772	892.06
757.956	760.99
758.14	933.02
758.323	832.67
758.507	834.72
758.691	816.29
758.875	933.02
759.059	754.85
759.242	867.49
759.426	863.39
759.61	851.1
759.794	785.57
759.977	851.1
760.161	867.49
760.345	844.96
760.528	791.71
760.712	795.81
760.895	810.14
761.079	851.1
761.263	787.61
761.446	812.19
761.63	763.04
761.813	804
761.997	758.94
762.18	777.37
762.364	814.24
762.547	732.32
762.731	660.64
762.914	722.08
763.098	738.46
763.281	752.8
763.464	773.28
763.648	724.13
763.831	752.8
764.015	728.22
764.198	744.61
764.381	656.54
764.564	687.26
764.748	703.65
764.931	683.17
765.114	691.36
765.297	662.69
765.481	713.89
765.664	787.61
765.847	754.85
766.03	724.13
766.213	644.26
766.397	662.69
766.58	650.4
766.763	691.36
766.946	699.55
767.129	728.22
767.312	769.18
767.495	605.35
767.678	656.54
767.861	638.11
768.044	631.97
768.227	687.26
768.41	695.46
768.593	662.69
768.776	636.06
768.959	662.69
769.142	638.11
769.324	609.44
769.507	670.88
769.69	556.19
769.873	656.54
770.056	717.98
770.239	689.31
770.421	672.93
770.604	683.17
770.787	662.69
770.97	605.35
771.152	631.97
771.335	664.74
771.518	550.05
771.7	572.58
771.883	658.59
772.066	572.58
772.248	541.86
772.431	578.72
772.613	652.45
772.796	554.15
772.978	580.77
773.161	681.12
773.343	591.01
773.526	652.45
773.708	519.33
773.891	556.19
774.073	498.85
774.256	517.28
774.438	500.9
774.621	521.38
774.803	543.91
774.985	564.39
775.168	527.52
775.35	494.76
775.532	574.63
775.715	474.28
775.897	515.23
776.079	494.76
776.261	531.62
776.444	412.84
776.626	543.91
776.808	507.04
776.99	574.63
777.173	486.56
777.355	459.94
777.537	494.76
777.719	455.84
777.901	470.18
778.083	533.67
778.265	371.88
778.447	449.7
778.629	418.98
778.811	457.89
778.993	490.66
779.175	490.66
779.357	539.81
779.539	339.11
779.721	388.26
779.903	492.71
780.085	431.27
780.267	515.23
780.449	402.6
780.631	378.02
780.812	412.84
780.994	402.6
781.176	441.51
781.358	418.98
781.54	496.8
781.721	410.79
781.903	466.08
782.085	457.89
782.267	437.41
782.448	384.16
782.63	269.48
782.812	406.69
782.993	380.07
783.175	378.02
783.357	292.01
783.538	369.83
783.72	412.84
783.901	261.29
784.083	310.44
784.264	392.36
784.446	335.01
784.627	312.49
784.809	396.45
784.99	369.83
785.172	347.3
785.353	441.51
785.535	375.97
785.716	437.41
785.897	294.05
786.079	332.97
786.26	343.21
786.441	441.51
786.623	273.57
786.804	324.77
786.985	289.96
787.167	292.01
787.348	314.53
787.529	337.06
787.71	373.92
787.891	335.01
788.073	220.33
788.254	261.29
788.435	322.73
788.616	277.67
788.797	287.91
788.978	265.38
789.159	218.28
789.34	281.77
789.522	283.81
789.703	285.86
789.884	244.9
790.065	251.05
790.246	351.4
790.427	263.33
790.607	265.38
790.788	320.68
790.969	277.67
791.15	242.85
791.331	281.77
791.512	236.71
791.693	195.75
791.874	244.9
792.054	259.24
792.235	253.09
792.416	228.52
792.597	238.76
792.778	255.14
792.958	185.51
793.139	111.78
793.32	283.81
793.5	255.14
793.681	277.67
793.862	273.57
794.042	236.71
794.223	197.8
794.404	232.62
794.584	201.9
794.765	236.71
794.945	214.18
795.126	246.95
795.306	220.33
795.487	220.33
795.667	236.71
795.848	203.94
796.028	244.9
796.209	294.05
796.389	224.42
796.57	232.62
796.75	249
796.93	244.9
797.111	195.75
797.291	181.42
797.471	205.99
797.652	154.79
797.832	130.22
798.012	179.37
798.192	162.98
798.373	187.56
798.553	175.27
798.733	179.37
798.913	160.94
799.093	130.22
799.274	222.38
799.454	187.56
799.634	181.42
799.814	171.18
799.994	218.28
800.174	191.66
800.354	228.52
800.534	128.17
800.714	171.18
800.894	148.65
801.074	140.46
801.254	130.22
801.434	195.75
801.614	189.61
801.794	173.22
801.974	730.27
802.154	173.22
802.334	179.37
802.514	119.98
802.693	185.51
802.873	220.33
803.053	162.98
803.233	220.33
803.413	130.22
803.592	107.69
803.772	183.46
803.952	179.37
804.131	105.64
804.311	201.9
804.491	154.79
804.67	162.98
804.85	214.18
805.03	212.14
805.209	138.41
805.389	154.79
805.568	105.64
805.748	93.35
805.928	122.02
806.107	189.61
806.287	132.26
806.466	68.78
806.646	165.03
806.825	183.46
807.004	95.4
807.184	197.8
807.363	58.54
807.543	134.31
807.722	150.7
807.901	167.08
808.081	187.56
808.26	107.69
808.439	173.22
808.619	138.41
808.798	179.37
808.977	162.98
809.156	117.93
809.336	97.45
809.515	79.02
809.694	85.16
809.873	140.46
810.052	130.22
810.231	97.45
810.411	85.16
810.59	130.22
810.769	158.89
810.948	140.46
811.127	142.5
811.306	99.5
811.485	40.11
811.664	132.26
811.843	56.49
812.022	107.69
812.201	74.92
812.38	68.78
812.559	107.69
812.737	113.83
812.916	79.02
813.095	111.78
813.274	134.31
813.453	89.26
813.632	183.46
813.811	156.84
813.989	126.12
814.168	122.02
814.347	40.11
814.526	122.02
814.704	122.02
814.883	58.54
815.062	79.02
815.24	165.03
815.419	66.73
815.598	66.73
815.776	40.11
815.955	72.87
816.133	42.15
816.312	87.21
816.49	19.63
816.669	97.45
816.847	-4.95
817.026	146.6
817.204	58.54
817.383	154.79
817.561	40.11
817.74	101.55
817.918	117.93
818.097	89.26
818.275	3.24
818.453	115.88
818.632	122.02
818.81	97.45
818.988	158.89
819.167	81.07
819.345	156.84
819.523	76.97
819.701	117.93
819.879	83.11
820.058	9.39
820.236	171.18
820.414	36.01
820.592	83.11
820.77	97.45
820.948	44.2
821.127	56.49
821.305	85.16
821.483	-23.38
821.661	101.55
821.839	87.21
822.017	48.3
822.195	60.59
822.373	117.93
822.551	42.15
822.729	52.39
822.907	64.68
823.085	85.16
823.262	136.36
823.44	23.72
823.618	99.5
823.796	-7
823.974	15.53
824.152	11.43
824.329	72.87
824.507	85.16
824.685	68.78
824.863	76.97
825.04	91.31
825.218	72.87
825.396	64.68
825.574	111.78
825.751	52.39
825.929	150.7
826.107	-23.38
826.284	89.26
826.462	81.07
826.639	23.72
826.817	23.72
826.994	87.21
827.172	85.16
827.349	81.07
827.527	-0.85
827.704	74.92
827.882	101.55
828.059	54.44
828.237	40.11
828.414	81.07
828.591	1.19
828.769	31.91
828.946	42.15
829.124	62.63
829.301	89.26
829.478	54.44
829.655	36.01
829.833	52.39
830.01	-70.48
830.187	109.74
830.364	42.15
830.542	72.87
830.719	68.78
830.896	72.87
831.073	27.82
831.25	107.69
831.427	130.22
831.604	33.96
831.782	50.35
831.959	107.69
832.136	42.15
832.313	64.68
832.49	25.77
832.667	17.58
832.844	-4.95
833.021	89.26
833.198	89.26
833.374	93.35
833.551	101.55
833.728	44.2
833.905	25.77
834.082	-37.72
834.259	72.87
834.436	40.11
834.612	7.34
834.789	40.11
834.966	72.87
835.143	48.3
835.319	3.24
835.496	89.26
835.673	72.87
835.85	42.15
836.026	76.97
836.203	70.83
836.38	13.48
836.556	-2.9
836.733	23.72
836.909	40.11
837.086	9.39
837.262	60.59
837.439	-17.24
837.616	27.82
837.792	31.91
837.968	40.11
838.145	66.73
838.321	9.39
838.498	101.55
838.674	40.11
838.851	1.19
839.027	33.96
839.203	3.24
839.38	58.54
839.556	-2.9
839.732	91.31
839.909	40.11
840.085	36.01
840.261	33.96
840.437	97.45
840.614	25.77
840.79	91.31
840.966	-33.62
841.142	1.19
841.318	1.19
841.494	101.55
841.671	-93.01
841.847	83.11
842.023	40.11
842.199	25.77
842.375	66.73
842.551	33.96
842.727	31.91
842.903	105.64
843.079	-15.19
843.255	50.35
843.431	89.26
843.607	44.2
843.783	46.25
843.959	66.73
844.134	9.39
844.31	-0.85
844.486	-21.33
844.662	15.53
844.838	-43.86
845.013	76.97
845.189	-15.19
845.365	83.11
845.541	9.39
845.716	42.15
845.892	36.01
846.068	52.39
846.244	5.29
846.419	74.92
846.595	-4.95
846.77	93.35
846.946	76.97
847.122	-50
847.297	-27.48
847.473	72.87
847.648	-58.2
847.824	3.24
847.999	-31.57
848.175	13.48
848.35	-0.85
848.526	-4.95
848.701	58.54
848.876	60.59
849.052	60.59
849.227	33.96
849.403	64.68
849.578	-4.95
849.753	-25.43
849.929	15.53
850.104	9.39
850.279	33.96
850.454	11.43
850.63	-17.24
850.805	-39.76
850.98	-0.85
851.155	-15.19
851.33	15.53
851.505	50.35
851.681	154.79
851.856	40.11
852.031	31.91
852.206	19.63
852.381	13.48
852.556	-21.33
852.731	72.87
852.906	46.25
853.081	-0.85
853.256	97.45
853.431	52.39
853.606	7.34
853.781	52.39
853.956	-17.24
854.131	56.49
854.305	13.48
854.48	-7
854.655	-7
854.83	9.39
855.005	23.72
855.18	33.96
855.354	42.15
855.529	15.53
855.704	-9.05
855.879	76.97
856.053	-0.85
856.228	31.91
856.403	1.19
856.577	60.59
856.752	-9.05
856.926	-11.09
857.101	-50
857.276	38.06
857.45	40.11
857.625	-35.67
857.799	17.58
857.974	38.06
858.148	-54.1
858.323	19.63
858.497	3.24
858.672	1.19
858.846	64.68
859.02	27.82
859.195	70.83
859.369	64.68
859.543	-7
859.718	9.39
859.892	25.77
860.066	1.19
860.241	-7
860.415	-33.62
860.589	-9.05
860.763	-17.24
860.938	42.15
861.112	-35.67
861.286	29.87
861.46	48.3
861.634	42.15
861.808	89.26
861.982	42.15
862.157	-17.24
862.331	-27.48
862.505	-45.91
862.679	-76.63
862.853	-37.72
863.027	-62.29
863.201	31.91
863.375	-9.05
863.549	17.58
863.722	36.01
863.896	89.26
864.07	31.91
864.244	31.91
864.418	89.26
864.592	36.01
864.766	25.77
864.939	64.68
865.113	3.24
865.287	9.39
865.461	-19.29
865.634	42.15
865.808	-72.53
865.982	23.72
866.156	-101.2
866.329	-41.81
866.503	-7
866.676	68.78
866.85	38.06
867.024	13.48
867.197	17.58
867.371	58.54
867.544	-33.62
867.718	-47.96
867.891	5.29
868.065	-45.91
868.238	15.53
868.412	42.15
868.585	27.82
868.759	76.97
868.932	19.63
869.105	-25.43
869.279	36.01
869.452	-45.91
869.625	36.01
869.799	-82.77
869.972	-17.24
870.145	-0.85
870.319	68.78
870.492	1.19
870.665	-19.29
870.838	-66.39
871.011	44.2
871.185	15.53
871.358	27.82
871.531	19.63
871.704	74.92
871.877	-0.85
872.05	7.34
872.223	25.77
872.396	72.87
872.569	3.24
872.742	-66.39
872.915	-19.29
873.088	-50
873.261	-62.29
873.434	36.01
873.607	19.63
873.78	11.43
873.953	-39.76
874.126	-0.85
874.299	13.48
874.471	-7
874.644	1.19
874.817	31.91
874.99	56.49
875.163	23.72
875.335	-86.87
875.508	-13.14
875.681	23.72
875.853	-7
876.026	-31.57
876.199	-15.19
876.371	-17.24
876.544	-9.05
876.717	-0.85
876.889	25.77
877.062	-25.43
877.234	29.87
877.407	40.11
877.579	15.53
877.752	48.3
877.924	-21.33
878.097	-0.85
878.269	-9.05
878.442	23.72
878.614	23.72
878.786	33.96
878.959	-23.38
879.131	-13.14
879.303	21.67
879.476	31.91
879.648	74.92
879.82	27.82
879.993	-33.62
880.165	-41.81
880.337	-21.33
880.509	3.24
880.681	-9.05
880.854	11.43
881.026	5.29
881.198	17.58
881.37	-9.05
881.542	58.54
881.714	-33.62
881.886	-78.68
882.058	9.39
882.23	52.39
882.402	50.35
882.574	-41.81
882.746	-15.19
882.918	56.49
883.09	48.3
883.262	-0.85
883.434	-33.62
883.606	-25.43
883.778	68.78
883.95	50.35
884.122	42.15
884.293	40.11
884.465	17.58
884.637	-21.33
884.809	-19.29
884.98	29.87
885.152	-9.05
885.324	9.39
885.496	-13.14
885.667	42.15
885.839	115.88
886.011	-25.43
886.182	36.01
886.354	19.63
886.525	-9.05
886.697	-17.24
886.869	33.96
887.04	38.06
887.212	-2.9
887.383	91.31
887.555	-64.34
887.726	31.91
887.897	7.34
888.069	-39.76
888.24	-2.9
888.412	-62.29
888.583	40.11
888.754	-23.38
888.926	3.24
889.097	-4.95
889.268	-23.38
889.44	50.35
889.611	-11.09
889.782	-50
889.953	-23.38
890.125	-9.05
890.296	-9.05
890.467	-52.05
890.638	74.92
890.809	-0.85
890.98	31.91
891.151	-4.95
891.323	-17.24
891.494	-33.62
891.665	-50
891.836	66.73
892.007	58.54
892.178	27.82
892.349	25.77
892.52	-47.96
892.691	1.19
892.862	-0.85
893.032	-93.01
893.203	38.06
893.374	7.34
893.545	-9.05
893.716	-33.62
893.887	42.15
894.057	-39.76
894.228	29.87
894.399	-27.48
894.57	-15.19
894.74	-107.35
894.911	-4.95
895.082	42.15
895.253	-41.81
895.423	-9.05
895.594	60.59
895.764	-58.2
895.935	25.77
896.106	-4.95
896.276	-0.85
896.447	-23.38
896.617	-54.1
896.788	-33.62
896.958	-50
897.129	23.72
897.299	-88.92
897.47	42.15
897.64	33.96
897.81	11.43
897.981	-23.38
898.151	31.91
898.322	-37.72
898.492	27.82
898.662	-17.24
898.832	7.34
899.003	9.39
899.173	7.34
899.343	19.63
899.513	-7
