Data from USB4F104151__118__14-18-35-427.txt Node

Date: Thu Mar 13 14:18:35 EDT 2025
User: louis
Spectrometer: USB4F10415
Trigger mode: 4
Integration Time (sec): 2.000000E-2
Scans to average: 1
Electric dark correction enabled: true
Nonlinearity correction enabled: false
Boxcar width: 0
XAxis mode: Wavelengths
Number of Pixels in Spectrum: 3648
>>>>>Begin Spectral Data<<<<<
178.204	-57
178.424	-57
178.644	-57
178.864	-69.29
179.084	-91.82
179.304	-65.19
179.524	-1.71
179.744	12.63
179.964	65.88
180.184	4.44
180.404	-13.99
180.624	-44.71
180.844	33.11
181.064	-16.04
181.283	-42.67
181.503	-9.9
181.723	78.16
181.943	12.63
182.163	49.49
182.383	41.3
182.602	33.11
182.822	104.79
183.042	49.49
183.262	26.96
183.482	0.34
183.701	-16.04
183.921	12.63
184.141	-28.33
184.361	110.93
184.58	51.54
184.8	-11.95
185.02	41.3
185.239	12.63
185.459	29.01
185.679	53.59
185.898	-73.39
186.118	43.35
186.338	41.3
186.557	43.35
186.777	63.83
186.997	31.06
187.216	41.3
187.436	-16.04
187.655	20.82
187.875	-1.71
188.095	63.83
188.314	29.01
188.534	86.36
188.753	31.06
188.973	0.34
189.192	24.92
189.412	78.16
189.631	45.4
189.851	-3.75
190.07	94.55
190.29	-24.23
190.509	4.44
190.729	20.82
190.948	96.6
191.168	143.7
191.387	112.98
191.607	-54.95
191.826	-1.71
192.045	-20.14
192.265	43.35
192.484	-52.91
192.704	-3.75
192.923	-42.67
193.142	102.74
193.362	0.34
193.581	39.25
193.8	45.4
194.02	41.3
194.239	61.78
194.458	61.78
194.678	31.06
194.897	-1.71
195.116	14.68
195.335	61.78
195.555	41.3
195.774	37.2
195.993	39.25
196.212	55.64
196.432	29.01
196.651	74.07
196.87	12.63
197.089	26.96
197.308	53.59
197.528	-5.8
197.747	-18.09
197.966	78.16
198.185	65.88
198.404	-3.75
198.623	51.54
198.842	4.44
199.062	-20.14
199.281	72.02
199.5	53.59
199.719	55.64
199.938	37.2
200.157	41.3
200.376	69.97
200.595	33.11
200.814	-34.47
201.033	4.44
201.252	53.59
201.471	31.06
201.69	43.35
201.909	20.82
202.128	-46.76
202.347	69.97
202.566	100.69
202.785	18.77
203.004	-50.86
203.223	12.63
203.442	69.97
203.661	8.53
203.879	-24.23
204.098	39.25
204.317	-26.28
204.536	63.83
204.755	-1.71
204.974	88.4
205.193	94.55
205.411	135.51
205.63	20.82
205.849	-3.75
206.068	49.49
206.287	4.44
206.505	57.68
206.724	24.92
206.943	20.82
207.162	61.78
207.381	16.73
207.599	53.59
207.818	20.82
208.037	69.97
208.255	39.25
208.474	29.01
208.693	178.51
208.911	12.63
209.13	67.92
209.349	18.77
209.567	110.93
209.786	123.22
210.005	65.88
210.223	82.26
210.442	26.96
210.661	-7.85
210.879	31.06
211.098	-20.14
211.316	31.06
211.535	49.49
211.753	4.44
211.972	8.53
212.191	-9.9
212.409	57.68
212.628	41.3
212.846	31.06
213.065	18.77
213.283	22.87
213.502	-20.14
213.72	39.25
213.938	-3.75
214.157	35.16
214.375	61.78
214.594	20.82
214.812	35.16
215.031	26.96
215.249	29.01
215.467	57.68
215.686	-16.04
215.904	112.98
216.122	22.87
216.341	37.2
216.559	65.88
216.778	29.01
216.996	86.36
217.214	72.02
217.432	4.44
217.651	37.2
217.869	20.82
218.087	-28.33
218.306	49.49
218.524	127.32
218.742	0.34
218.96	63.83
219.179	6.49
219.397	31.06
219.615	69.97
219.833	39.25
220.051	-77.48
220.27	22.87
220.488	22.87
220.706	-11.95
220.924	-20.14
221.142	4.44
221.36	88.4
221.578	55.64
221.796	80.21
222.015	-24.23
222.233	-3.75
222.451	37.2
222.669	-20.14
222.887	53.59
223.105	22.87
223.323	20.82
223.541	-3.75
223.759	41.3
223.977	8.53
224.195	51.54
224.413	49.49
224.631	29.01
224.849	-11.95
225.067	63.83
225.285	-9.9
225.503	2.39
225.721	-93.87
225.939	57.68
226.157	74.07
226.375	86.36
226.592	0.34
226.81	4.44
227.028	61.78
227.246	141.65
227.464	-20.14
227.682	10.58
227.9	47.44
228.117	96.6
228.335	37.2
228.553	-18.09
228.771	110.93
228.989	4.44
229.206	35.16
229.424	39.25
229.642	20.82
229.86	49.49
230.077	-36.52
230.295	29.01
230.513	45.4
230.731	31.06
230.948	31.06
231.166	78.16
231.384	35.16
231.601	-11.95
231.819	0.34
232.037	2.39
232.254	-7.85
232.472	-69.29
232.689	-52.91
232.907	59.73
233.125	35.16
233.342	43.35
233.56	55.64
233.777	-44.71
233.995	63.83
234.213	37.2
234.43	55.64
234.648	102.74
234.865	0.34
235.083	78.16
235.3	6.49
235.518	82.26
235.735	51.54
235.953	80.21
236.17	45.4
236.388	6.49
236.605	4.44
236.822	98.64
237.04	20.82
237.257	57.68
237.475	8.53
237.692	57.68
237.909	-9.9
238.127	8.53
238.344	55.64
238.562	16.73
238.779	12.63
238.996	-69.29
239.214	33.11
239.431	20.82
239.648	-102.06
239.865	20.82
240.083	14.68
240.3	82.26
240.517	12.63
240.735	24.92
240.952	24.92
241.169	96.6
241.386	43.35
241.603	24.92
241.821	26.96
242.038	0.34
242.255	90.45
242.472	37.2
242.689	92.5
242.907	45.4
243.124	41.3
243.341	90.45
243.558	-3.75
243.775	20.82
243.992	-3.75
244.209	72.02
244.426	98.64
244.643	53.59
244.86	45.4
245.078	-11.95
245.295	51.54
245.512	41.3
245.729	39.25
245.946	112.98
246.163	31.06
246.38	-26.28
246.597	55.64
246.814	22.87
247.031	33.11
247.248	-5.8
247.464	22.87
247.681	78.16
247.898	-20.14
248.115	47.44
248.332	51.54
248.549	69.97
248.766	37.2
248.983	39.25
249.2	49.49
249.417	90.45
249.633	-18.09
249.85	72.02
250.067	0.34
250.284	29.01
250.501	-32.43
250.717	55.64
250.934	-1.71
251.151	55.64
251.368	45.4
251.585	24.92
251.801	-24.23
252.018	22.87
252.235	37.2
252.451	12.63
252.668	-7.85
252.885	41.3
253.102	10.58
253.318	55.64
253.535	-20.14
253.752	88.4
253.968	20.82
254.185	-22.19
254.401	-5.8
254.618	4.44
254.835	43.35
255.051	69.97
255.268	96.6
255.484	26.96
255.701	-5.8
255.917	131.41
256.134	-26.28
256.351	29.01
256.567	-5.8
256.784	20.82
257	-20.14
257.217	78.16
257.433	20.82
257.65	22.87
257.866	41.3
258.082	-26.28
258.299	22.87
258.515	24.92
258.732	4.44
258.948	41.3
259.165	29.01
259.381	10.58
259.597	-13.99
259.814	12.63
260.03	47.44
260.246	67.92
260.463	33.11
260.679	88.4
260.895	24.92
261.112	61.78
261.328	-30.38
261.544	45.4
261.761	86.36
261.977	61.78
262.193	-36.52
262.409	-18.09
262.626	88.4
262.842	33.11
263.058	-18.09
263.274	49.49
263.49	20.82
263.707	-20.14
263.923	24.92
264.139	-28.33
264.355	90.45
264.571	125.27
264.787	37.2
265.004	80.21
265.22	29.01
265.436	29.01
265.652	12.63
265.868	18.77
266.084	-28.33
266.3	-7.85
266.516	24.92
266.732	6.49
266.948	98.64
267.164	92.5
267.38	86.36
267.596	55.64
267.812	98.64
268.028	67.92
268.244	-46.76
268.46	39.25
268.676	24.92
268.892	35.16
269.108	0.34
269.324	8.53
269.54	-11.95
269.756	14.68
269.972	-42.67
270.188	80.21
270.403	20.82
270.619	55.64
270.835	49.49
271.051	86.36
271.267	8.53
271.483	-69.29
271.698	20.82
271.914	45.4
272.13	12.63
272.346	86.36
272.562	8.53
272.777	39.25
272.993	49.49
273.209	96.6
273.425	12.63
273.64	-20.14
273.856	49.49
274.072	31.06
274.287	-7.85
274.503	41.3
274.719	29.01
274.934	82.26
275.15	-24.23
275.366	57.68
275.581	31.06
275.797	14.68
276.012	65.88
276.228	53.59
276.444	-24.23
276.659	155.99
276.875	0.34
277.09	4.44
277.306	69.97
277.521	137.56
277.737	16.73
277.952	49.49
278.168	-1.71
278.383	96.6
278.599	33.11
278.814	-7.85
279.03	-44.71
279.245	-9.9
279.461	-20.14
279.676	29.01
279.892	45.4
280.107	-5.8
280.322	43.35
280.538	37.2
280.753	-22.19
280.969	45.4
281.184	41.3
281.399	33.11
281.615	24.92
281.83	96.6
282.045	20.82
282.26	37.2
282.476	-3.75
282.691	121.17
282.906	76.12
283.122	-7.85
283.337	8.53
283.552	102.74
283.767	-5.8
283.983	16.73
284.198	-3.75
284.413	72.02
284.628	-22.19
284.843	39.25
285.058	121.17
285.274	82.26
285.489	10.58
285.704	72.02
285.919	61.78
286.134	47.44
286.349	-7.85
286.564	-28.33
286.779	53.59
286.995	24.92
287.21	0.34
287.425	8.53
287.64	-54.95
287.855	33.11
288.07	-1.71
288.285	22.87
288.5	65.88
288.715	78.16
288.93	37.2
289.145	37.2
289.36	55.64
289.575	41.3
289.79	53.59
290.004	43.35
290.219	96.6
290.434	12.63
290.649	59.73
290.864	-9.9
291.079	45.4
291.294	84.31
291.509	63.83
291.724	-3.75
291.938	18.77
292.153	51.54
292.368	2.39
292.583	22.87
292.798	112.98
293.012	72.02
293.227	24.92
293.442	-7.85
293.657	119.12
293.871	49.49
294.086	49.49
294.301	65.88
294.516	72.02
294.73	33.11
294.945	16.73
295.16	69.97
295.374	53.59
295.589	-7.85
295.804	20.82
296.018	20.82
296.233	47.44
296.447	69.97
296.662	-30.38
296.877	12.63
297.091	90.45
297.306	37.2
297.52	82.26
297.735	20.82
297.949	78.16
298.164	-22.19
298.378	-42.67
298.593	-3.75
298.807	-46.76
299.022	135.51
299.236	29.01
299.451	39.25
299.665	-52.91
299.88	72.02
300.094	65.88
300.309	20.82
300.523	110.93
300.737	72.02
300.952	82.26
301.166	69.97
301.381	-42.67
301.595	-18.09
301.809	35.16
302.024	31.06
302.238	-42.67
302.452	96.6
302.667	29.01
302.881	61.78
303.095	90.45
303.309	0.34
303.524	2.39
303.738	22.87
303.952	31.06
304.166	35.16
304.381	-75.43
304.595	82.26
304.809	96.6
305.023	41.3
305.237	53.59
305.452	69.97
305.666	53.59
305.88	20.82
306.094	82.26
306.308	55.64
306.522	98.64
306.736	69.97
306.95	61.78
307.164	69.97
307.379	24.92
307.593	35.16
307.807	72.02
308.021	86.36
308.235	67.92
308.449	22.87
308.663	55.64
308.877	67.92
309.091	65.88
309.305	33.11
309.519	12.63
309.733	57.68
309.947	20.82
310.161	55.64
310.374	96.6
310.588	80.21
310.802	-44.71
311.016	78.16
311.23	106.84
311.444	16.73
311.658	31.06
311.872	69.97
312.085	37.2
312.299	112.98
312.513	74.07
312.727	90.45
312.941	90.45
313.154	78.16
313.368	102.74
313.582	88.4
313.796	-28.33
314.009	74.07
314.223	-9.9
314.437	47.44
314.651	72.02
314.864	16.73
315.078	49.49
315.292	37.2
315.505	-7.85
315.719	16.73
315.933	8.53
316.146	49.49
316.36	4.44
316.573	63.83
316.787	24.92
317.001	12.63
317.214	-18.09
317.428	16.73
317.641	-46.76
317.855	57.68
318.068	31.06
318.282	51.54
318.495	86.36
318.709	29.01
318.922	-34.47
319.136	61.78
319.349	53.59
319.563	-3.75
319.776	61.78
319.99	29.01
320.203	76.12
320.417	12.63
320.63	12.63
320.843	121.17
321.057	121.17
321.27	6.49
321.483	4.44
321.697	86.36
321.91	24.92
322.124	20.82
322.337	4.44
322.55	53.59
322.763	-28.33
322.977	24.92
323.19	45.4
323.403	115.03
323.617	45.4
323.83	53.59
324.043	12.63
324.256	-18.09
324.469	12.63
324.683	82.26
324.896	37.2
325.109	-81.58
325.322	-24.23
325.535	55.64
325.748	-20.14
325.962	24.92
326.175	-3.75
326.388	37.2
326.601	37.2
326.814	-24.23
327.027	41.3
327.24	65.88
327.453	-50.86
327.666	74.07
327.879	31.06
328.092	12.63
328.305	67.92
328.518	22.87
328.731	-24.23
328.944	90.45
329.157	45.4
329.37	-44.71
329.583	39.25
329.796	82.26
330.009	4.44
330.222	67.92
330.435	-34.47
330.648	6.49
330.861	-16.04
331.073	104.79
331.286	74.07
331.499	51.54
331.712	-16.04
331.925	53.59
332.138	53.59
332.35	135.51
332.563	-65.19
332.776	78.16
332.989	-77.48
333.202	61.78
333.414	-20.14
333.627	98.64
333.84	33.11
334.053	55.64
334.265	16.73
334.478	-40.62
334.691	4.44
334.903	72.02
335.116	35.16
335.329	135.51
335.541	37.2
335.754	10.58
335.966	-24.23
336.179	20.82
336.392	72.02
336.604	22.87
336.817	74.07
337.029	96.6
337.242	78.16
337.454	76.12
337.667	61.78
337.88	98.64
338.092	45.4
338.305	67.92
338.517	41.3
338.729	4.44
338.942	110.93
339.154	0.34
339.367	78.16
339.579	88.4
339.792	94.55
340.004	63.83
340.217	57.68
340.429	110.93
340.641	-50.86
340.854	24.92
341.066	-28.33
341.278	69.97
341.491	74.07
341.703	57.68
341.915	-9.9
342.128	8.53
342.34	92.5
342.552	-5.8
342.764	41.3
342.977	49.49
343.189	-9.9
343.401	57.68
343.613	-34.47
343.826	29.01
344.038	18.77
344.25	96.6
344.462	-26.28
344.674	61.78
344.886	69.97
345.099	61.78
345.311	59.73
345.523	14.68
345.735	20.82
345.947	39.25
346.159	33.11
346.371	37.2
346.583	51.54
346.795	119.12
347.007	-28.33
347.219	57.68
347.431	18.77
347.643	65.88
347.855	6.49
348.067	135.51
348.279	39.25
348.491	78.16
348.703	84.31
348.915	-9.9
349.127	8.53
349.339	67.92
349.551	14.68
349.763	82.26
349.975	-1.71
350.187	86.36
350.399	57.68
350.61	4.44
350.822	4.44
351.034	55.64
351.246	22.87
351.458	49.49
351.669	-16.04
351.881	88.4
352.093	65.88
352.305	-34.47
352.517	-28.33
352.728	51.54
352.94	-18.09
353.152	33.11
353.363	26.96
353.575	-18.09
353.787	119.12
353.999	92.5
354.21	78.16
354.422	18.77
354.633	45.4
354.845	39.25
355.057	29.01
355.268	37.2
355.48	-26.28
355.692	24.92
355.903	8.53
356.115	-5.8
356.326	22.87
356.538	24.92
356.749	143.7
356.961	88.4
357.172	14.68
357.384	20.82
357.595	90.45
357.807	49.49
358.018	18.77
358.23	31.06
358.441	96.6
358.653	-3.75
358.864	72.02
359.075	-11.95
359.287	-42.67
359.498	37.2
359.709	-5.8
359.921	-7.85
360.132	-11.95
360.344	37.2
360.555	72.02
360.766	84.31
360.977	-48.81
361.189	14.68
361.4	22.87
361.611	98.64
361.823	65.88
362.034	20.82
362.245	49.49
362.456	-7.85
362.667	22.87
362.879	53.59
363.09	88.4
363.301	53.59
363.512	33.11
363.723	29.01
363.935	59.73
364.146	98.64
364.357	45.4
364.568	43.35
364.779	37.2
364.99	143.7
365.201	-11.95
365.412	102.74
365.623	43.35
365.834	-24.23
366.045	115.03
366.256	88.4
366.467	33.11
366.678	76.12
366.889	14.68
367.1	-36.52
367.311	20.82
367.522	63.83
367.733	12.63
367.944	20.82
368.155	-36.52
368.366	69.97
368.577	100.69
368.788	39.25
368.999	22.87
369.209	61.78
369.42	14.68
369.631	39.25
369.842	65.88
370.053	33.11
370.264	86.36
370.474	55.64
370.685	35.16
370.896	-34.47
371.107	47.44
371.317	31.06
371.528	6.49
371.739	51.54
371.95	69.97
372.16	86.36
372.371	37.2
372.582	61.78
372.792	90.45
373.003	74.07
373.214	119.12
373.424	35.16
373.635	33.11
373.846	33.11
374.056	-61.1
374.267	-42.67
374.477	4.44
374.688	-3.75
374.898	4.44
375.109	147.8
375.319	78.16
375.53	78.16
375.74	65.88
375.951	49.49
376.161	29.01
376.372	80.21
376.582	69.97
376.793	72.02
377.003	29.01
377.214	2.39
377.424	80.21
377.635	90.45
377.845	22.87
378.055	127.32
378.266	31.06
378.476	94.55
378.686	29.01
378.897	39.25
379.107	18.77
379.317	55.64
379.528	20.82
379.738	22.87
379.948	12.63
380.158	22.87
380.369	2.39
380.579	37.2
380.789	8.53
380.999	51.54
381.21	80.21
381.42	121.17
381.63	49.49
381.84	160.08
382.05	41.3
382.261	115.03
382.471	65.88
382.681	8.53
382.891	82.26
383.101	37.2
383.311	78.16
383.521	72.02
383.731	47.44
383.941	33.11
384.151	100.69
384.361	14.68
384.571	88.4
384.781	-26.28
384.991	69.97
385.201	63.83
385.411	112.98
385.621	55.64
385.831	61.78
386.041	112.98
386.251	6.49
386.461	104.79
386.671	74.07
386.881	39.25
387.091	24.92
387.301	92.5
387.511	31.06
387.72	47.44
387.93	16.73
388.14	45.4
388.35	82.26
388.56	41.3
388.769	139.6
388.979	69.97
389.189	69.97
389.399	49.49
389.609	0.34
389.818	37.2
390.028	43.35
390.238	12.63
390.447	2.39
390.657	65.88
390.867	31.06
391.076	-7.85
391.286	86.36
391.496	72.02
391.705	47.44
391.915	57.68
392.125	78.16
392.334	53.59
392.544	112.98
392.753	35.16
392.963	4.44
393.172	78.16
393.382	20.82
393.591	72.02
393.801	74.07
394.01	123.22
394.22	49.49
394.429	45.4
394.639	74.07
394.848	31.06
395.058	55.64
395.267	35.16
395.477	37.2
395.686	72.02
395.895	110.93
396.105	115.03
396.314	106.84
396.524	129.36
396.733	82.26
396.942	100.69
397.152	47.44
397.361	92.5
397.57	12.63
397.78	119.12
397.989	61.78
398.198	121.17
398.407	94.55
398.617	104.79
398.826	63.83
399.035	145.75
399.244	12.63
399.453	125.27
399.663	131.41
399.872	127.32
400.081	80.21
400.29	69.97
400.499	104.79
400.708	63.83
400.917	-3.75
401.127	37.2
401.336	22.87
401.545	196.95
401.754	117.08
401.963	94.55
402.172	149.84
402.381	104.79
402.59	145.75
402.799	129.36
403.008	69.97
403.217	96.6
403.426	110.93
403.635	94.55
403.844	96.6
404.053	137.56
404.262	41.3
404.471	139.6
404.68	153.94
404.888	129.36
405.097	88.4
405.306	201.04
405.515	164.18
405.724	155.99
405.933	139.6
406.142	176.47
406.35	178.51
406.559	149.84
406.768	106.84
406.977	131.41
407.185	209.23
407.394	211.28
407.603	176.47
407.812	227.67
408.02	244.05
408.229	211.28
408.438	258.39
408.646	223.57
408.855	244.05
409.064	278.87
409.272	260.43
409.481	260.43
409.69	246.1
409.898	260.43
410.107	229.71
410.315	315.73
410.524	328.02
410.733	368.98
410.941	266.58
411.15	332.11
411.358	332.11
411.567	432.46
411.775	274.77
411.984	397.65
412.192	397.65
412.401	332.11
412.609	424.27
412.818	418.13
413.026	448.85
413.234	524.62
413.443	452.94
413.651	450.89
413.86	475.47
414.068	493.9
414.276	586.06
414.485	547.15
414.693	606.54
414.901	741.71
415.11	661.84
415.318	618.83
415.526	692.55
415.734	616.78
415.943	717.13
416.151	708.94
416.359	710.99
416.567	676.17
416.776	786.76
416.984	782.67
417.192	854.34
417.4	823.62
417.608	819.53
417.817	946.5
418.025	940.36
418.233	975.17
418.441	987.46
418.649	1014.09
418.857	1091.91
419.065	1190.21
419.273	1214.79
419.481	1130.82
419.689	1235.27
419.897	1331.52
420.105	1315.14
420.313	1409.34
420.521	1503.55
420.729	1366.34
420.937	1466.69
421.145	1470.78
421.353	1577.28
421.561	1759.55
421.769	1745.21
421.977	1775.93
422.185	1818.94
422.393	1880.38
422.601	1888.57
422.809	1863.99
423.017	1950.01
423.224	2097.46
423.432	2224.44
423.64	2232.63
423.848	2414.9
424.056	2310.45
424.263	2523.44
424.471	2507.06
424.679	2505.01
424.887	2578.73
425.094	2736.43
425.302	2824.49
425.51	2834.73
425.718	2883.88
425.925	2924.84
426.133	3123.49
426.341	3219.75
426.548	3277.09
426.756	3451.17
426.964	3496.22
427.171	3537.18
427.379	3748.12
427.586	3709.21
427.794	3891.48
428.001	4018.46
428.209	4231.44
428.417	4200.73
428.624	4477.2
428.832	4653.33
429.039	4509.97
429.247	4544.78
429.454	4858.12
429.662	5099.78
429.869	4700.43
430.076	5175.56
430.284	5107.98
430.491	5237
430.699	5640.45
430.906	5456.13
431.114	5576.96
431.321	5900.54
431.528	5787.9
431.736	6467.83
431.943	6512.88
432.15	6373.62
432.358	6537.46
432.565	6803.69
432.772	6805.74
432.979	7264.49
433.187	7334.12
433.394	7356.65
433.601	7801.05
433.808	7936.22
434.016	7799.01
434.223	8075.48
434.43	8577.23
434.637	8440.02
434.844	8995.02
435.052	9003.21
435.259	9033.93
435.466	9212.1
435.673	9081.03
435.88	9670.85
436.087	10105.02
436.294	10143.93
436.501	9961.66
436.708	10156.22
436.915	10401.97
437.122	11042.99
437.329	10819.76
437.537	11210.92
437.743	11663.52
437.95	11450.53
438.157	12085.4
438.364	12136.6
438.571	12380.31
438.778	12396.7
438.985	13465.74
439.192	13035.66
439.399	13514.89
439.606	12986.51
439.813	13734.02
440.02	14839.92
440.227	14426.23
440.433	14231.68
440.64	14667.89
440.847	14663.8
441.054	14913.65
441.261	15804.52
441.467	15794.28
441.674	16042.08
441.881	16656.47
442.088	16685.14
442.294	16437.34
442.501	17119.31
442.708	17119.31
442.914	18200.64
443.121	18716.73
443.328	18153.54
443.534	19554.35
443.741	18718.78
443.948	18718.78
444.154	19785.77
444.361	19535.92
444.568	19863.59
444.774	20289.57
444.981	20297.76
445.187	20887.57
445.394	21594.12
445.6	21342.22
445.807	23492.59
446.013	22360.06
446.22	22904.82
446.426	23635.95
446.633	23834.6
446.839	24457.18
447.046	23635.95
447.252	24778.72
447.459	24874.97
447.665	24883.16
447.871	26554.3
448.078	27035.58
448.284	25853.9
448.491	26513.34
448.697	27627.44
448.903	28215.21
449.11	28002.22
449.316	27326.39
449.522	28301.22
449.728	28757.92
449.935	28759.97
450.141	28972.96
450.347	29808.53
450.553	28805.02
450.76	29349.78
450.966	30199.69
451.172	29722.51
451.378	30670.72
451.584	29628.31
451.791	30584.71
451.997	30965.63
452.203	31270.78
452.409	31264.63
452.615	30846.85
452.821	29867.92
453.027	29753.23
453.233	31528.82
453.44	30404.49
453.646	30297.99
453.852	30556.04
454.058	30881.66
454.264	29972.36
454.47	30625.67
454.676	30171.02
454.882	30982.01
455.088	28225.45
455.294	28911.52
455.5	29054.87
455.705	29474.71
455.911	28420
456.117	27852.72
456.323	27783.09
456.529	26173.38
456.735	27262.9
456.941	26548.16
457.147	25878.47
457.352	25497.55
457.558	25016.28
457.764	25288.66
457.97	24879.07
458.176	24217.57
458.381	24147.94
458.587	22892.54
458.793	23173.11
458.999	21915.65
459.204	23705.58
459.41	22695.93
459.616	21405.71
459.821	21368.85
460.027	21198.87
460.233	20504.6
460.438	19916.84
460.644	20236.32
460.85	19200.05
461.055	18884.66
461.261	18704.44
461.466	17397.84
461.672	16904.28
461.878	18268.22
462.083	16994.39
462.289	16785.49
462.494	16490.59
462.7	15804.52
462.905	15368.3
463.111	15741.03
463.316	15945.83
463.522	15448.17
463.727	15603.82
463.932	15390.83
464.138	15306.86
464.343	15257.71
464.549	14864.5
464.754	15532.14
464.959	15118.45
465.165	15042.67
465.37	14440.57
465.575	14211.2
465.781	14809.2
465.986	15048.82
466.191	14162.05
466.397	14121.09
466.602	13369.48
466.807	13768.84
467.012	13760.64
467.218	13625.48
467.423	13658.24
467.628	13553.8
467.833	14192.76
468.038	13736.07
468.244	13267.08
468.449	13674.63
468.654	13383.82
468.859	13457.54
469.064	13168.78
469.269	12826.77
469.474	12947.6
469.679	13066.38
469.885	12746.9
470.09	12820.63
470.295	12853.39
470.5	12521.62
470.705	12468.38
470.91	12226.71
471.115	11858.08
471.32	12202.14
471.525	12230.81
471.73	11944.1
471.935	11735.2
472.139	11534.5
472.344	11632.8
472.549	11520.17
472.754	11321.51
472.959	11208.87
473.164	11010.22
473.369	10821.81
473.574	11180.2
473.778	10920.11
473.983	10891.44
474.188	11047.08
474.393	10533.04
474.598	10678.45
474.802	10340.54
475.007	10336.44
475.212	10420.41
475.417	10137.79
475.621	9957.57
475.826	10082.49
476.031	9846.98
476.235	9689.28
476.44	9808.06
476.645	9531.59
476.849	9394.37
477.054	9568.45
477.259	9302.22
477.463	9259.21
477.668	9074.89
477.872	9162.95
478.077	9040.08
478.282	8911.05
478.486	8732.88
478.691	8761.55
478.895	8657.11
479.1	8788.18
479.304	8495.32
479.509	8499.41
479.713	8566.99
479.918	8333.53
480.122	8204.5
480.326	8542.42
480.531	8335.57
480.735	8294.61
480.94	8003.8
481.144	8446.16
481.348	8179.93
481.553	8214.74
481.757	7913.69
481.961	8085.72
482.166	8220.89
482.37	8014.04
482.574	7971.04
482.778	8063.19
482.983	7999.71
483.187	8048.86
483.391	8034.52
483.595	7987.42
483.8	8020.19
484.004	7934.17
484.208	7966.94
484.412	8089.82
484.616	8016.09
484.821	7993.56
485.025	7807.2
485.229	7997.66
485.433	7835.87
485.637	8104.15
485.841	7942.36
486.045	7817.44
486.249	7950.56
486.453	7739.62
486.657	7946.46
486.861	8077.53
487.065	7776.48
487.269	8020.19
487.473	7973.08
487.677	8157.4
487.881	8028.38
488.085	7942.36
488.289	7971.04
488.493	7985.37
488.697	8007.9
488.901	8057.05
489.105	8059.1
489.309	8130.78
489.512	7844.06
489.716	8065.24
489.92	8003.8
490.124	8136.92
490.328	8210.65
490.531	8138.97
490.735	8171.74
490.939	8098.01
491.143	8263.9
491.346	8280.28
491.55	8399.06
491.754	8188.12
491.958	8257.75
492.161	8143.07
492.365	8329.43
492.569	8329.43
492.772	8343.77
492.976	8376.53
493.18	8546.51
493.383	8487.12
493.587	8978.64
493.79	8771.79
493.994	8519.89
494.197	8814.8
494.401	8972.49
494.605	8794.32
494.808	8782.03
495.012	8827.09
495.215	9031.88
495.419	9140.43
495.622	9023.69
495.825	9091.27
496.029	9171.15
496.232	9373.89
496.436	9232.58
496.639	9574.6
496.843	9527.49
497.046	9609.41
497.249	9875.65
497.453	9795.78
497.656	9932.99
497.859	9965.76
498.063	10084.54
498.266	10264.76
498.469	10371.26
498.673	10381.49
498.876	10379.45
499.079	10608.82
499.282	10764.47
499.485	10995.89
499.689	11036.84
499.892	11063.47
500.095	11022.51
500.298	11319.46
500.501	11184.3
500.705	11571.36
500.908	11559.08
501.111	11733.15
501.314	11860.13
501.517	12083.36
501.72	12077.21
501.923	12206.24
502.126	12605.59
502.329	12490.9
502.532	12783.76
502.735	12652.69
502.938	12914.83
503.141	12951.7
503.344	13201.55
503.547	13230.22
503.75	13201.55
503.953	13867.14
504.156	13865.09
504.359	13869.19
504.562	14000.26
504.765	14196.86
504.968	14217.34
505.17	14506.1
505.373	14440.57
505.576	14805.11
505.779	14811.25
505.982	14915.7
506.185	15270
506.387	15081.58
506.59	15364.2
506.793	15601.77
506.996	15485.03
507.198	16001.12
507.401	16177.25
507.604	16027.74
507.807	16584.79
508.009	16609.37
508.212	16767.06
508.415	16918.61
508.617	17102.93
508.82	17174.61
509.022	17289.29
509.225	17494.09
509.428	17803.33
509.63	17950.79
509.833	17856.58
510.035	18309.18
510.238	18231.36
510.44	18559.03
510.643	18698.3
510.845	18855.99
511.048	18919.48
511.25	19140.66
511.453	19398.7
511.655	20088.87
511.858	19550.25
512.06	19853.35
512.262	19992.61
512.465	20164.64
512.667	20686.87
512.87	20725.79
513.072	20819.99
513.274	21243.92
513.477	21368.85
513.679	21499.92
513.881	21811.21
514.084	21747.72
514.286	21809.16
514.488	22384.64
514.69	22736.89
514.893	22900.73
515.095	22710.27
515.297	23064.57
515.499	23267.31
515.701	23461.87
515.904	23951.34
516.106	23756.78
516.308	24029.16
516.51	24299.49
516.712	24350.69
516.914	24578.01
517.116	24954.84
517.318	25135.06
517.52	25159.64
517.722	24944.6
517.925	25753.55
518.127	26079.18
518.329	26466.24
518.531	26036.17
518.733	26220.49
518.935	26859.45
519.136	26802.11
519.338	26974.14
519.54	26900.41
519.742	27359.16
519.944	27117.5
520.146	28219.3
520.348	28092.33
520.55	28411.81
520.752	28333.99
520.954	28817.31
521.155	28655.52
521.357	29343.64
521.559	29448.08
521.761	29693.84
521.963	29794.19
522.164	29888.4
522.366	29718.42
522.568	30271.37
522.77	30564.23
522.971	30738.3
523.173	30510.98
523.375	30672.77
523.576	31127.42
523.778	31346.55
523.98	31422.33
524.181	31778.67
524.383	31577.97
524.584	31833.97
524.786	32055.15
524.988	32034.67
525.189	32075.63
525.391	32513.89
525.592	32450.41
525.794	32708.45
525.995	32604
526.197	32946.01
526.398	32958.3
526.6	33480.53
526.801	33242.97
527.003	33435.48
527.204	33822.55
527.406	33914.7
527.607	33605.46
527.808	33750.87
528.01	33349.46
528.211	34017.1
528.412	34492.23
528.614	34469.7
528.815	34053.97
529.016	34750.28
529.218	34195.28
529.419	34795.33
529.62	34295.63
529.822	34662.21
530.023	34752.32
530.224	34813.76
530.425	34991.94
530.626	34441.03
530.828	34146.12
531.029	35422.01
531.23	34721.6
531.431	34594.63
531.632	34787.14
531.833	35227.45
532.035	35223.36
532.236	35227.45
532.437	35436.34
532.638	34846.53
532.839	35415.86
533.04	35428.15
533.241	35061.57
533.442	35522.36
533.643	35389.24
533.844	35266.36
534.045	35456.82
534.246	35268.41
534.447	35651.38
534.648	35489.59
534.849	35399.48
535.05	35200.83
535.251	35471.16
535.451	35041.09
535.652	35395.39
535.853	35231.55
536.054	35551.03
536.255	35497.78
536.456	35360.57
536.657	35784.5
536.857	35080
537.058	35163.96
537.259	35852.08
537.46	35249.98
537.66	35436.34
537.861	35436.34
538.062	35344.19
538.263	35514.17
538.463	35233.6
538.664	35467.06
538.865	35329.85
539.065	35624.76
539.266	35039.04
539.466	35585.85
539.667	35225.4
539.868	35917.62
540.068	35675.96
540.269	34901.82
540.469	35217.21
540.67	35428.15
540.87	35215.16
541.071	35456.82
541.271	35456.82
541.472	35110.72
541.672	35452.73
541.873	35129.15
542.073	34942.78
542.274	35540.79
542.474	35192.64
542.675	34932.54
542.875	35444.54
543.075	35325.75
543.276	34959.17
543.476	35335.99
543.676	34867.01
543.877	35202.88
544.077	35094.33
544.277	35159.87
544.478	35383.1
544.678	35434.3
544.878	35141.44
545.078	35176.25
545.279	34912.06
545.479	34996.03
545.679	35055.42
545.879	34854.72
546.079	35077.95
546.28	34791.23
546.48	34793.28
546.68	35075.9
546.88	34991.94
547.08	35178.3
547.28	34580.29
547.48	34479.94
547.68	34961.22
547.88	35049.28
548.081	35274.56
548.281	34836.29
548.481	34887.49
548.681	35430.2
548.881	35069.76
549.081	34735.94
549.28	34735.94
549.48	35059.52
549.68	35020.61
549.88	35686.2
550.08	34490.18
550.28	35125.05
550.48	35028.8
550.68	34971.46
550.88	34809.67
551.08	34740.04
551.279	34860.87
551.479	34324.3
551.679	34733.89
551.879	34895.68
552.079	34611.01
552.278	34715.46
552.478	34740.04
552.678	34821.95
552.878	35082.05
553.077	34660.16
553.277	34185.04
553.477	34791.23
553.676	34115.4
553.876	34557.77
554.076	34586.44
554.275	34535.24
554.475	33947.47
554.674	34232.14
554.874	34465.61
555.074	34072.4
555.273	34570.05
555.473	34299.72
555.672	34086.73
555.872	34324.3
556.071	34019.15
556.271	34367.3
556.47	34408.26
556.67	34182.99
556.869	34371.4
557.068	33963.86
557.268	33816.4
557.467	33636.18
557.667	34193.23
557.866	33916.75
558.065	33972.05
558.265	33787.73
558.464	33511.25
558.663	33943.38
558.863	33433.43
559.062	33978.19
559.261	33173.34
559.461	33521.49
559.66	33419.1
559.859	33437.53
560.058	33214.3
560.258	33767.25
560.457	33109.85
560.656	33509.21
560.855	32780.13
561.054	33339.22
561.253	32837.47
561.453	33052.51
561.652	33421.14
561.851	33587.03
562.05	33105.76
562.249	32784.23
562.448	33197.91
562.647	33058.65
562.846	32980.83
563.045	32927.58
563.244	32833.38
563.443	33029.98
563.642	32835.42
563.841	32595.81
564.04	32157.55
564.239	32737.12
564.438	32206.7
564.637	32507.75
564.836	32632.68
565.035	32042.86
565.234	32431.97
565.432	32317.29
565.631	31983.47
565.83	32350.06
566.029	32085.87
566.228	31887.21
566.427	31829.87
566.625	31862.64
566.824	31526.77
567.023	31969.13
567.222	31197.05
567.42	31997.81
567.619	31647.6
567.818	31203.19
568.016	31344.5
568.215	31813.49
568.414	31309.69
568.612	31631.22
568.811	31557.49
569.01	31340.41
569.208	30670.72
569.407	31426.42
569.605	30914.43
569.804	30984.06
570.002	30670.72
570.201	31180.67
570.4	30934.91
570.598	30654.34
570.797	30533.51
570.995	31154.04
571.193	30164.87
571.392	30521.22
571.59	30349.19
571.789	30496.64
571.987	30418.82
572.186	30066.57
572.384	30244.74
572.582	30285.7
572.781	30105.48
572.979	29992.84
573.177	29966.22
573.376	30328.71
573.574	29525.91
573.772	29736.85
573.971	29546.39
574.169	29835.15
574.367	29386.64
574.565	29775.76
574.763	29325.21
574.962	29308.82
575.16	29122.46
575.358	29159.32
575.556	28891.04
575.754	29398.93
575.952	28821.41
576.151	28903.32
576.349	28940.19
576.547	28665.76
576.745	28637.09
576.943	28870.56
577.141	28632.99
577.339	28813.21
577.537	28401.57
577.735	28415.91
577.933	28415.91
578.131	28731.29
578.329	28270.5
578.527	28331.94
578.725	28071.85
578.923	28407.72
579.121	27840.43
579.319	27678.64
579.516	27994.03
579.714	27934.64
579.912	27639.73
580.11	27740.08
580.308	27762.61
580.506	27475.89
580.704	26980.28
580.901	27518.9
581.099	27738.03
581.297	27191.22
581.495	27463.6
581.692	27518.9
581.89	26675.13
582.088	27326.39
582.285	26984.38
582.483	27359.16
582.681	26978.23
582.878	26914.75
583.076	26494.91
583.274	26873.79
583.471	26539.97
583.669	26558.4
583.866	26349.51
584.064	26603.46
584.262	26337.22
584.459	26470.34
584.657	25974.73
584.854	26161.09
585.052	26085.32
585.249	25925.58
585.447	26105.8
585.644	25683.92
585.841	25544.66
586.039	26019.78
586.236	25442.26
586.434	25661.39
586.631	25409.49
586.828	25501.65
587.026	25585.61
587.223	25159.64
587.42	25382.87
587.618	25391.06
587.815	24889.31
588.012	24772.57
588.21	24965.08
588.407	25333.71
588.604	24971.22
588.801	24836.06
588.999	25022.42
589.196	24786.91
589.393	24739.8
589.59	24565.73
589.787	24770.52
589.984	24168.42
590.182	23867.37
590.379	24168.42
590.576	24143.84
590.773	24117.22
590.97	24072.17
591.167	24197.09
591.364	24084.45
591.561	23861.23
591.758	23439.34
591.955	23576.56
592.152	23990.25
592.349	23594.99
592.546	23384.05
592.743	23693.29
592.94	23242.74
593.137	23650.28
593.334	23498.73
593.531	23054.33
593.727	23265.27
593.924	23146.48
594.121	22884.34
594.318	23246.83
594.515	22697.98
594.712	22984.69
594.908	22910.97
595.105	22923.26
595.302	22720.51
595.499	22806.52
595.696	22564.86
595.892	22472.7
596.089	22501.37
596.286	22622.2
596.482	22235.14
596.679	21886.98
596.876	22390.78
597.072	21958.66
597.269	22173.7
597.466	22079.49
597.662	21852.17
597.859	21813.26
598.055	21979.14
598.252	21702.67
598.448	21960.71
598.645	21448.72
598.841	21461.01
599.038	21497.87
599.234	21321.74
599.431	21391.37
599.627	21305.36
599.824	21497.87
600.02	21184.53
600.217	21172.24
600.413	21280.78
600.609	21194.77
600.806	20752.41
601.002	21153.81
601.198	20715.55
601.395	20738.07
601.591	20652.06
601.787	20396.06
601.984	20641.82
602.18	20817.94
602.376	20463.65
602.572	20387.87
602.769	20289.57
602.965	20162.59
603.161	20295.71
603.357	20193.31
603.553	20240.42
603.75	19898.41
603.946	19767.34
604.142	19888.17
604.338	19781.67
604.534	19785.77
604.73	19648.55
604.926	19548.2
605.122	19697.7
605.318	19355.69
605.514	19632.17
605.71	19494.96
605.906	19386.41
606.102	19314.73
606.298	19396.65
606.494	19501.1
606.69	19226.67
606.886	19079.22
607.082	19079.22
607.278	19208.24
607.474	19204.14
607.67	18948.15
607.866	18718.78
608.062	19019.83
608.257	18733.11
608.453	18708.54
608.649	18964.53
608.845	18698.3
609.041	18741.3
609.236	18798.65
609.432	18606.14
609.628	18692.15
609.824	18608.19
610.019	18444.35
610.215	18559.03
610.411	18556.99
610.606	18329.66
610.802	18458.68
610.998	18374.72
611.193	18344
611.389	18307.13
611.584	18243.65
611.78	18176.06
611.976	18088
612.171	18413.63
612.367	18221.12
612.562	17784.9
612.758	17641.54
612.953	18067.52
613.149	18083.91
613.344	17985.6
613.539	18157.63
613.735	17936.45
613.93	17897.54
614.126	17600.58
614.321	17723.46
614.517	17809.48
614.712	17608.78
614.907	17766.47
615.103	17752.13
615.298	17543.24
615.493	17395.79
615.688	17533
615.884	17627.21
616.079	17387.6
616.274	17379.4
616.47	17395.79
616.665	17485.9
616.86	17240.14
617.055	17229.9
617.25	17014.87
617.445	17440.84
617.641	17254.48
617.836	17291.34
618.031	16861.27
618.226	17168.46
618.421	16834.64
618.616	17240.14
618.811	16679
619.006	16836.69
619.201	16552.02
619.396	16697.43
619.591	16517.21
619.786	16625.75
619.981	16392.28
620.176	16406.62
620.371	16423
620.566	16515.16
620.761	16449.63
620.956	16384.09
621.151	16080.99
621.346	16146.53
621.541	15806.56
621.735	16099.42
621.93	15749.22
622.125	16003.17
622.32	15446.12
622.515	15601.77
622.709	15569
622.904	15118.45
623.099	15353.96
623.294	15265.9
623.488	15061.1
623.683	15429.74
623.878	15075.44
624.072	15200.37
624.267	14887.03
624.462	14952.56
624.656	14684.28
624.851	15110.25
625.046	14235.77
625.24	14592.12
625.435	14459
625.629	14401.66
625.824	14246.01
626.018	14286.97
626.213	13807.75
626.407	14190.72
626.602	13985.92
626.796	13965.44
626.991	13961.34
627.185	13774.98
627.38	13932.67
627.574	13873.28
627.768	13668.48
627.963	13486.22
628.157	13351.05
628.352	13443.21
628.546	13414.54
628.74	13361.29
628.935	13156.49
629.129	13117.58
629.323	12937.36
629.517	12822.67
629.712	13015.18
629.906	12679.32
630.1	12386.46
630.294	12603.54
630.489	12613.78
630.683	12816.53
630.877	12447.9
631.071	12341.4
631.265	12525.72
631.459	12312.73
631.653	12218.52
631.848	12492.95
632.042	12114.08
632.236	12023.97
632.43	11800.74
632.624	11964.57
632.818	11858.08
633.012	11610.28
633.206	11636.9
633.4	11862.18
633.594	11604.13
633.788	11800.74
633.982	11526.31
634.176	11622.56
634.369	11227.31
634.563	11468.97
634.757	11430.05
634.951	11407.53
635.145	11198.63
635.339	11133.1
635.533	11219.11
635.726	11092.14
635.92	10752.18
636.114	10793.14
636.308	10760.37
636.501	10916.01
636.695	10944.69
636.889	10834.1
637.083	10741.94
637.276	10561.72
637.47	10487.99
637.664	10336.44
637.857	10514.61
638.051	10332.34
638.244	10365.11
638.438	10176.7
638.632	10076.35
638.825	10062.01
639.019	9963.71
639.212	10006.72
639.406	10279.1
639.599	10092.73
639.793	9875.65
639.986	9746.62
640.18	9980.09
640.373	9777.34
640.567	9781.44
640.76	9736.38
640.954	9466.05
641.147	9535.68
641.34	9466.05
641.534	9566.4
641.727	9328.84
641.92	9179.34
642.114	9236.68
642.307	9457.86
642.5	9195.72
642.694	9171.15
642.887	8958.16
643.08	9171.15
643.273	8974.54
643.467	9076.94
643.66	8796.37
643.853	8847.57
644.046	8847.57
644.239	8839.37
644.432	8765.65
644.626	8630.48
644.819	8820.94
645.012	8818.89
645.205	8655.06
645.398	8667.35
645.591	8517.84
645.784	8460.5
645.977	8317.14
646.17	8372.44
646.363	8241.37
646.556	8089.82
646.749	8116.44
646.942	8288.47
647.135	8007.9
647.328	8034.52
647.521	8130.78
647.714	7876.83
647.907	7870.69
648.099	7921.88
648.292	7887.07
648.485	7911.64
648.678	7837.92
648.871	7704.8
649.064	7610.59
649.256	7766.24
649.449	7655.65
649.642	7495.91
649.835	7516.39
650.027	7557.35
650.22	7446.76
650.413	7274.73
650.605	7389.41
650.798	7215.34
650.991	7360.74
651.183	7379.17
651.376	7172.33
651.568	7139.56
651.761	7164.14
651.954	7196.9
652.146	7157.99
652.339	7264.49
652.531	6947.05
652.724	7016.68
652.916	7002.35
653.109	6877.42
653.301	6934.76
653.494	6951.15
653.686	6807.79
653.879	6838.51
654.071	6916.33
654.263	6775.02
654.456	6768.88
654.648	6840.56
654.84	6713.58
655.033	6738.16
655.225	6562.03
655.417	6502.64
655.61	6572.27
655.802	6527.22
655.994	6373.62
656.186	6465.78
656.379	6455.54
656.571	6439.16
656.763	6238.45
656.955	6310.13
657.148	6263.03
657.34	6215.93
657.532	6181.11
657.724	6205.69
657.916	6172.92
658.108	6109.43
658.3	6025.47
658.492	5949.69
658.684	6115.58
658.876	5910.78
659.068	5865.72
659.26	5927.16
659.452	5964.03
659.644	5837.05
659.836	5863.68
660.028	5796.09
660.22	5644.54
660.412	5701.89
660.604	5771.52
660.796	5646.59
660.988	5685.5
661.18	5640.45
661.372	5613.82
661.563	5536
661.755	5509.38
661.947	5570.82
662.139	5595.39
662.331	5456.13
662.522	5271.81
662.714	5370.12
662.906	5361.92
663.097	5460.23
663.289	5226.76
663.481	5316.87
663.673	5230.85
663.864	5241.09
664.056	5218.57
664.247	5267.72
664.439	5032.2
664.631	5343.49
664.822	5157.13
665.014	5155.08
665.205	4995.34
665.397	5091.59
665.588	5034.25
665.78	5054.73
665.971	4964.62
666.163	4909.32
666.354	5128.46
666.546	4845.84
666.737	4806.92
666.929	4817.16
667.12	4886.79
667.311	4829.45
667.503	4776.2
667.694	4763.92
667.885	4776.2
668.077	4831.5
668.268	4751.63
668.459	4772.11
668.651	4696.33
668.842	4544.78
669.033	4690.19
669.224	4677.9
669.416	4485.39
669.607	4628.75
669.798	4528.4
669.989	4612.37
670.18	4569.36
670.371	4438.29
670.563	4370.71
670.754	4495.63
670.945	4559.12
671.136	4559.12
671.327	4403.47
671.518	4325.65
671.709	4509.97
671.9	4540.69
672.091	4346.13
672.282	4292.88
672.473	4241.68
672.664	4368.66
672.855	4260.12
673.046	4149.53
673.237	4342.04
673.428	4190.49
673.619	4217.11
673.809	4086.04
674	4122.9
674.191	4282.64
674.382	4165.91
674.573	4022.55
674.764	4178.2
674.954	4120.85
675.145	4038.94
675.336	4073.75
675.527	4047.13
675.717	4194.58
675.908	3985.69
676.099	4098.33
676.289	3938.59
676.48	3871
676.671	3946.78
676.861	3907.87
677.052	3977.5
677.243	3856.67
677.433	3899.67
677.624	3928.35
677.814	3842.33
678.005	3766.56
678.195	3936.54
678.386	4008.22
678.576	3887.39
678.767	3868.95
678.957	3778.84
679.148	3873.05
679.338	3905.82
679.529	3918.11
679.719	3803.42
679.909	3817.76
680.1	3834.14
680.29	3719.45
680.481	3748.12
680.671	3664.16
680.861	3846.43
681.052	3715.36
681.242	3684.64
681.432	3733.79
681.622	3690.78
681.813	3703.07
682.003	3717.4
682.193	3719.45
682.383	3764.51
682.573	3608.86
682.764	3647.77
682.954	3694.88
683.144	3641.63
683.334	3658.01
683.524	3531.04
683.714	3748.12
683.904	3592.48
684.094	3649.82
684.284	3668.25
684.474	3610.91
684.664	3535.14
684.854	3543.33
685.044	3559.71
685.234	3488.03
685.424	3580.19
685.614	3543.33
685.804	3576.09
685.994	3526.94
686.184	3592.48
686.374	3553.57
686.564	3455.26
686.753	3426.59
686.943	3356.96
687.133	3412.26
687.323	3305.76
687.513	3369.25
687.702	3283.24
687.892	3363.11
688.082	3320.1
688.272	3406.11
688.461	3225.89
688.651	3365.15
688.841	3348.77
689.03	3250.47
689.22	3219.75
689.41	3234.08
689.599	3275.04
689.789	3139.88
689.979	3227.94
690.168	3301.67
690.358	3060.01
690.547	3096.87
690.737	3029.29
690.926	3096.87
691.116	3006.76
691.305	3115.3
691.495	3057.96
691.684	3068.2
691.874	3123.49
692.063	3021.1
692.252	3014.95
692.442	3021.1
692.631	2978.09
692.82	3031.34
693.01	2988.33
693.199	3072.29
693.388	3029.29
693.578	3012.9
693.767	3012.9
693.956	2937.13
694.146	2887.98
694.335	2789.67
694.524	2920.74
694.713	2922.79
694.902	2883.88
695.092	2957.61
695.281	2795.82
695.47	2748.72
695.659	2707.76
695.848	2761
696.037	2830.63
696.226	2683.18
696.415	2855.21
696.604	2801.96
696.793	2830.63
696.982	2773.29
697.171	2724.14
697.36	2756.91
697.549	2746.67
697.738	2570.54
697.927	2730.28
698.116	2660.65
698.305	2824.49
698.494	2773.29
698.683	2642.22
698.872	2781.48
699.061	2644.27
699.25	2662.7
699.438	2623.79
699.627	2670.89
699.816	2668.84
700.005	2552.11
700.193	2619.69
700.382	2634.03
700.571	2617.65
700.76	2646.32
700.948	2674.99
701.137	2605.36
701.326	2593.07
701.514	2490.67
701.703	2566.45
701.892	2513.2
702.08	2640.17
702.269	2474.29
702.457	2578.73
702.646	2488.62
702.834	2513.2
703.023	2578.73
703.212	2531.63
703.4	2472.24
703.589	2462
703.777	2640.17
703.965	2416.94
704.154	2429.23
704.342	2533.68
704.531	2408.75
704.719	2445.62
704.907	2627.89
705.096	2502.96
705.284	2408.75
705.472	2500.91
705.661	2511.15
705.849	2556.21
706.037	2449.71
706.226	2418.99
706.414	2535.73
706.602	2447.66
706.79	2505.01
706.979	2437.42
707.167	2408.75
707.355	2453.81
707.543	2482.48
707.731	2421.04
707.919	2447.66
708.107	2470.19
708.296	2412.85
708.484	2365.75
708.672	2441.52
708.86	2445.62
709.048	2535.73
709.236	2384.18
709.424	2525.49
709.612	2482.48
709.8	2406.7
709.988	2480.43
710.176	2543.92
710.364	2363.7
710.551	2439.47
710.739	2447.66
710.927	2511.15
711.115	2421.04
711.303	2402.61
711.491	2451.76
711.679	2390.32
711.866	2459.95
712.054	2347.31
712.242	2380.08
712.43	2363.7
712.617	2240.82
712.805	2382.13
712.993	2300.21
713.181	2304.31
713.368	2421.04
713.556	2343.22
713.744	2367.79
713.931	2457.9
714.119	2298.16
714.306	2359.6
714.494	2347.31
714.682	2339.12
714.869	2398.51
715.057	2275.63
715.244	2267.44
715.432	2396.46
715.619	2378.03
715.807	2421.04
715.994	2347.31
716.182	2408.75
716.369	2437.42
716.556	2423.09
716.744	2296.11
716.931	2281.78
717.119	2371.89
717.306	2304.31
717.493	2232.63
717.681	2285.87
717.868	2406.7
718.055	2357.55
718.242	2265.39
718.43	2326.83
718.617	2359.6
718.804	2380.08
718.991	2429.23
719.179	2308.4
719.366	2371.89
719.553	2347.31
719.74	2244.92
719.927	2273.59
720.114	2302.26
720.301	2165.04
720.488	2289.97
720.676	2253.11
720.863	2347.31
721.05	2269.49
721.237	2285.87
721.424	2404.66
721.611	2332.98
721.798	2257.2
721.985	2214.2
722.172	2384.18
722.358	2277.68
722.545	2365.75
722.732	2285.87
722.919	2359.6
723.106	2242.87
723.293	2330.93
723.48	2242.87
723.667	2228.53
723.853	2298.16
724.04	2330.93
724.227	2466.1
724.414	2316.59
724.6	2294.07
724.787	2275.63
724.974	2249.01
725.161	2246.96
725.347	2195.76
725.534	2312.5
725.72	2322.74
725.907	2351.41
726.094	2398.51
726.28	2294.07
726.467	2369.84
726.653	2341.17
726.84	2306.35
727.027	2308.4
727.213	2326.83
727.4	2216.24
727.586	2242.87
727.773	2259.25
727.959	2199.86
728.145	2318.64
728.332	2187.57
728.518	2199.86
728.705	2240.82
728.891	2261.3
729.077	2257.2
729.264	2273.59
729.45	2326.83
729.636	2382.13
729.823	2193.72
730.009	2224.44
730.195	2332.98
730.382	2308.4
730.568	2201.91
730.754	2109.75
730.94	2257.2
731.126	2406.7
731.313	2265.39
731.499	2201.91
731.685	2234.68
731.871	2404.66
732.057	2187.57
732.243	2259.25
732.429	2255.15
732.615	2306.35
732.801	2246.96
732.987	2396.46
733.173	2193.72
733.359	2277.68
733.545	2330.93
733.731	2216.24
733.917	2341.17
734.103	2296.11
734.289	2177.33
734.475	2281.78
734.661	2306.35
734.847	2201.91
735.033	2259.25
735.219	2169.14
735.404	2281.78
735.59	2279.73
735.776	2257.2
735.962	2343.22
736.148	2281.78
736.333	2165.04
736.519	2244.92
736.705	2281.78
736.89	2119.99
737.076	2158.9
737.262	2185.52
737.447	2179.38
737.633	2113.85
737.819	2191.67
738.004	2150.71
738.19	2111.8
738.375	2126.13
738.561	2070.84
738.747	2154.8
738.932	2175.28
739.118	2208.05
739.303	2183.48
739.489	2195.76
739.674	2146.61
739.859	2027.83
740.045	2206
740.23	2152.76
740.416	2074.93
740.601	2056.5
740.786	2152.76
740.972	2081.08
741.157	2101.56
741.342	1978.68
741.528	1970.49
741.713	2183.48
741.898	2072.89
742.084	2079.03
742.269	2038.07
742.454	2046.26
742.639	2097.46
742.824	2103.61
743.01	2031.93
743.195	2089.27
743.38	2029.88
743.565	1995.06
743.75	1923.38
743.935	1882.42
744.12	2056.5
744.305	1982.78
744.49	2011.45
744.675	1988.92
744.86	1915.19
745.045	1929.53
745.23	1925.43
745.415	1958.2
745.6	1859.9
745.785	1866.04
745.97	2005.3
746.155	1868.09
746.34	1825.08
746.525	1794.36
746.71	1773.88
746.895	1847.61
747.079	1808.7
747.264	1882.42
747.449	1810.75
747.634	1823.03
747.819	1792.31
748.003	1851.71
748.188	1714.49
748.373	1786.17
748.557	1782.07
748.742	1694.01
748.927	1780.03
749.111	1749.31
749.296	1708.35
749.481	1771.83
749.665	1784.12
749.85	1712.44
750.034	1710.4
750.219	1655.1
750.404	1720.64
750.588	1700.16
750.773	1567.04
750.957	1583.42
751.141	1569.09
751.326	1562.94
751.51	1481.02
751.695	1579.33
751.879	1515.84
752.064	1585.47
752.248	1556.8
752.432	1513.79
752.617	1452.35
752.801	1542.46
752.985	1476.93
753.17	1495.36
753.354	1519.93
753.538	1372.48
753.722	1388.86
753.907	1495.36
754.091	1356.1
754.275	1442.11
754.459	1390.91
754.643	1380.67
754.828	1519.93
755.012	1519.93
755.196	1364.29
755.38	1333.57
755.564	1376.58
755.748	1311.04
755.932	1390.91
756.116	1272.13
756.3	1349.95
756.484	1298.75
756.668	1284.42
756.852	1274.18
757.036	1229.12
757.22	1276.23
757.404	1245.51
757.588	1227.07
757.772	1222.98
757.956	1175.88
758.14	1247.55
758.323	1210.69
758.507	1235.27
758.691	1151.3
758.875	1241.41
759.059	1184.07
759.242	1126.72
759.426	1057.09
759.61	1220.93
759.794	1120.58
759.977	1153.35
760.161	1153.35
760.345	1134.92
760.528	1163.59
760.712	1139.01
760.895	1081.67
761.079	1055.05
761.263	1046.85
761.446	1112.39
761.63	1102.15
761.813	1024.33
761.997	1028.42
762.18	1155.4
762.364	1155.4
762.547	1085.76
762.731	1016.13
762.914	960.84
763.098	1053
763.281	1022.28
763.464	1057.09
763.648	999.75
763.831	1069.38
764.015	987.46
764.198	962.89
764.381	1053
764.564	1106.24
764.748	915.78
764.931	997.7
765.114	938.31
765.297	1030.47
765.481	837.96
765.664	948.55
765.847	979.27
766.03	1046.85
766.213	1032.52
766.397	952.65
766.58	932.17
766.763	844.1
766.946	915.78
767.129	885.06
767.312	880.97
767.495	874.82
767.678	913.74
767.861	913.74
768.044	919.88
768.227	858.44
768.41	876.87
768.593	864.58
768.776	921.93
768.959	751.95
769.142	844.1
769.324	803.15
769.507	819.53
769.69	835.91
769.873	788.81
770.056	856.39
770.239	926.02
770.421	905.54
770.604	844.1
770.787	837.96
770.97	848.2
771.152	833.86
771.335	760.14
771.518	794.95
771.7	872.78
771.883	813.38
772.066	710.99
772.248	829.77
772.431	790.86
772.613	823.62
772.796	799.05
772.978	842.06
773.161	762.19
773.343	725.32
773.526	717.13
773.708	805.19
773.891	776.52
774.073	766.28
774.256	725.32
774.438	753.99
774.621	598.35
774.803	758.09
774.985	676.17
775.168	749.9
775.35	688.46
775.532	715.08
775.715	721.23
775.897	700.75
776.079	706.89
776.261	702.79
776.444	610.64
776.626	645.45
776.808	680.27
776.99	627.02
777.173	727.37
777.355	637.26
777.537	667.98
777.719	594.25
777.901	637.26
778.083	670.03
778.265	618.83
778.447	692.55
778.629	588.11
778.811	610.64
778.993	588.11
779.175	545.1
779.357	604.49
779.539	610.64
779.721	588.11
779.903	555.34
780.085	612.68
780.267	620.88
780.449	588.11
780.631	555.34
780.812	614.73
780.994	612.68
781.176	536.91
781.358	530.77
781.54	536.91
781.721	557.39
781.903	491.85
782.085	500.05
782.267	561.48
782.448	516.43
782.63	512.33
782.812	463.18
782.993	434.51
783.175	446.8
783.357	479.57
783.538	536.91
783.72	442.7
783.901	579.92
784.083	424.27
784.264	498
784.446	454.99
784.627	407.89
784.809	381.26
784.99	418.13
785.172	465.23
785.353	414.03
785.535	385.36
785.716	432.46
785.897	422.22
786.079	457.04
786.26	418.13
786.441	397.65
786.623	397.65
786.804	418.13
786.985	440.65
787.167	446.8
787.348	358.74
787.529	393.55
787.71	457.04
787.891	414.03
788.073	397.65
788.254	385.36
788.435	450.89
788.616	416.08
788.797	364.88
788.978	340.3
789.159	414.03
789.34	358.74
789.522	383.31
789.703	285.01
789.884	418.13
790.065	317.78
790.246	432.46
790.427	307.54
790.607	323.92
790.788	373.07
790.969	438.61
791.15	319.82
791.331	401.74
791.512	348.5
791.693	336.21
791.874	344.4
792.054	278.87
792.235	360.78
792.416	297.3
792.597	282.96
792.778	295.25
792.958	375.12
793.139	428.37
793.32	285.01
793.5	393.55
793.681	340.3
793.862	303.44
794.042	397.65
794.223	352.59
794.404	272.72
794.584	282.96
794.765	285.01
794.945	358.74
795.126	250.19
795.306	352.59
795.487	307.54
795.667	213.33
795.848	299.34
796.028	260.43
796.209	313.68
796.389	336.21
796.57	205.14
796.75	211.28
796.93	270.67
797.111	186.71
797.291	285.01
797.471	270.67
797.652	270.67
797.832	235.86
798.012	321.87
798.192	213.33
798.373	213.33
798.553	242
798.733	272.72
798.913	246.1
799.093	354.64
799.274	289.1
799.454	219.47
799.634	225.62
799.814	350.54
799.994	325.97
800.174	242
800.354	207.19
800.534	262.48
800.714	213.33
800.894	291.15
801.074	237.91
801.254	201.04
801.434	196.95
801.614	274.77
801.794	229.71
801.974	715.08
802.154	209.23
802.334	160.08
802.514	229.71
802.693	131.41
802.873	239.95
803.053	205.14
803.233	246.1
803.413	201.04
803.592	223.57
803.772	282.96
803.952	190.8
804.131	291.15
804.311	364.88
804.491	303.44
804.67	121.17
804.85	184.66
805.03	272.72
805.209	203.09
805.389	143.7
805.568	135.51
805.748	207.19
805.928	225.62
806.107	115.03
806.287	100.69
806.466	188.75
806.646	209.23
806.825	209.23
807.004	233.81
807.184	209.23
807.363	194.9
807.543	203.09
807.722	170.32
807.901	194.9
808.081	209.23
808.26	192.85
808.439	217.43
808.619	180.56
808.798	155.99
808.977	133.46
809.156	162.13
809.336	176.47
809.515	254.29
809.694	166.23
809.873	178.51
810.052	170.32
810.231	164.18
810.411	151.89
810.59	123.22
810.769	194.9
810.948	205.14
811.127	106.84
811.306	123.22
811.485	192.85
811.664	143.7
811.843	135.51
812.022	143.7
812.201	153.94
812.38	162.13
812.559	129.36
812.737	182.61
812.916	82.26
813.095	127.32
813.274	80.21
813.453	115.03
813.632	155.99
813.811	151.89
813.989	170.32
814.168	182.61
814.347	168.27
814.526	174.42
814.704	176.47
814.883	151.89
815.062	78.16
815.24	151.89
815.419	127.32
815.598	139.6
815.776	45.4
815.955	229.71
816.133	80.21
816.312	137.56
816.49	180.56
816.669	145.75
816.847	137.56
817.026	143.7
817.204	125.27
817.383	186.71
817.561	158.03
817.74	162.13
817.918	143.7
818.097	78.16
818.275	131.41
818.453	121.17
818.632	135.51
818.81	172.37
818.988	115.03
819.167	72.02
819.345	110.93
819.523	155.99
819.701	86.36
819.879	147.8
820.058	151.89
820.236	53.59
820.414	147.8
820.592	57.68
820.77	145.75
820.948	84.31
821.127	61.78
821.305	151.89
821.483	31.06
821.661	115.03
821.839	112.98
822.017	115.03
822.195	55.64
822.373	137.56
822.551	53.59
822.729	190.8
822.907	37.2
823.085	139.6
823.262	96.6
823.44	90.45
823.618	143.7
823.796	80.21
823.974	53.59
824.152	78.16
824.329	135.51
824.507	37.2
824.685	102.74
824.863	102.74
825.04	119.12
825.218	98.64
825.396	94.55
825.574	135.51
825.751	43.35
825.929	104.79
826.107	43.35
826.284	43.35
826.462	127.32
826.639	57.68
826.817	63.83
826.994	186.71
827.172	55.64
827.349	168.27
827.527	131.41
827.704	147.8
827.882	110.93
828.059	72.02
828.237	102.74
828.414	57.68
828.591	123.22
828.769	94.55
828.946	20.82
829.124	106.84
829.301	123.22
829.478	53.59
829.655	65.88
829.833	102.74
830.01	8.53
830.187	127.32
830.364	43.35
830.542	117.08
830.719	94.55
830.896	72.02
831.073	131.41
831.25	102.74
831.427	74.07
831.604	57.68
831.782	82.26
831.959	82.26
832.136	12.63
832.313	78.16
832.49	37.2
832.667	72.02
832.844	110.93
833.021	176.47
833.198	51.54
833.374	170.32
833.551	80.21
833.728	94.55
833.905	35.16
834.082	94.55
834.259	57.68
834.436	98.64
834.612	8.53
834.789	31.06
834.966	43.35
835.143	135.51
835.319	-5.8
835.496	78.16
835.673	61.78
835.85	49.49
836.026	51.54
836.203	49.49
836.38	63.83
836.556	49.49
836.733	45.4
836.909	94.55
837.086	72.02
837.262	29.01
837.439	53.59
837.616	51.54
837.792	53.59
837.968	129.36
838.145	59.73
838.321	82.26
838.498	104.79
838.674	104.79
838.851	119.12
839.027	86.36
839.203	26.96
839.38	45.4
839.556	88.4
839.732	123.22
839.909	88.4
840.085	94.55
840.261	26.96
840.437	65.88
840.614	0.34
840.79	72.02
840.966	119.12
841.142	69.97
841.318	-1.71
841.494	61.78
841.671	18.77
841.847	45.4
842.023	80.21
842.199	33.11
842.375	69.97
842.551	41.3
842.727	6.49
842.903	94.55
843.079	80.21
843.255	29.01
843.431	98.64
843.607	47.44
843.783	-18.09
843.959	-20.14
844.134	-7.85
844.31	61.78
844.486	2.39
844.662	20.82
844.838	14.68
845.013	127.32
845.189	47.44
845.365	78.16
845.541	76.12
845.716	31.06
845.892	33.11
846.068	86.36
846.244	43.35
846.419	133.46
846.595	31.06
846.77	80.21
846.946	45.4
847.122	-20.14
847.297	-20.14
847.473	72.02
847.648	29.01
847.824	39.25
847.999	45.4
848.175	-3.75
848.35	41.3
848.526	22.87
848.701	35.16
848.876	37.2
849.052	55.64
849.227	74.07
849.403	45.4
849.578	119.12
849.753	16.73
849.929	53.59
850.104	-65.19
850.279	80.21
850.454	-9.9
850.63	55.64
850.805	104.79
850.98	39.25
851.155	-44.71
851.33	125.27
851.505	-3.75
851.681	121.17
851.856	33.11
852.031	49.49
852.206	55.64
852.381	55.64
852.556	-9.9
852.731	4.44
852.906	29.01
853.081	29.01
853.256	-9.9
853.431	86.36
853.606	24.92
853.781	-11.95
853.956	72.02
854.131	20.82
854.305	-1.71
854.48	37.2
854.655	37.2
854.83	-7.85
855.005	65.88
855.18	14.68
855.354	63.83
855.529	92.5
855.704	-18.09
855.879	65.88
856.053	10.58
856.228	119.12
856.403	-24.23
856.577	49.49
856.752	-52.91
856.926	12.63
857.101	39.25
857.276	-28.33
857.45	59.73
857.625	90.45
857.799	-38.57
857.974	31.06
858.148	90.45
858.323	61.78
858.497	-3.75
858.672	-20.14
858.846	-9.9
859.02	53.59
859.195	12.63
859.369	41.3
859.543	55.64
859.718	39.25
859.892	-13.99
860.066	-1.71
860.241	20.82
860.415	31.06
860.589	37.2
860.763	-36.52
860.938	76.12
861.112	8.53
861.286	8.53
861.46	20.82
861.634	12.63
861.808	53.59
861.982	-48.81
862.157	24.92
862.331	53.59
862.505	18.77
862.679	-3.75
862.853	35.16
863.027	49.49
863.201	61.78
863.375	-9.9
863.549	41.3
863.722	72.02
863.896	35.16
864.07	-67.24
864.244	41.3
864.418	-5.8
864.592	45.4
864.766	37.2
864.939	-16.04
865.113	-16.04
865.287	-20.14
865.461	-50.86
865.634	96.6
865.808	22.87
865.982	22.87
866.156	-20.14
866.329	2.39
866.503	12.63
866.676	14.68
866.85	37.2
867.024	22.87
867.197	6.49
867.371	-32.43
867.544	31.06
867.718	90.45
867.891	69.97
868.065	-7.85
868.238	8.53
868.412	78.16
868.585	14.68
868.759	-3.75
868.932	20.82
869.105	12.63
869.279	-50.86
869.452	-36.52
869.625	88.4
869.799	-3.75
869.972	-50.86
870.145	55.64
870.319	-59.05
870.492	16.73
870.665	4.44
870.838	-9.9
871.011	0.34
871.185	-61.1
871.358	53.59
871.531	29.01
871.704	-61.1
871.877	-1.71
872.05	22.87
872.223	-26.28
872.396	29.01
872.569	-18.09
872.742	45.4
872.915	98.64
873.088	74.07
873.261	29.01
873.434	-36.52
873.607	10.58
873.78	24.92
873.953	2.39
874.126	-3.75
874.299	39.25
874.471	-11.95
874.644	43.35
874.817	82.26
874.99	37.2
875.163	74.07
875.335	4.44
875.508	18.77
875.681	55.64
875.853	-22.19
876.026	16.73
876.199	-3.75
876.371	0.34
876.544	35.16
876.717	47.44
876.889	20.82
877.062	0.34
877.234	-52.91
877.407	39.25
877.579	6.49
877.752	14.68
877.924	16.73
878.097	4.44
878.269	24.92
878.442	37.2
878.614	94.55
878.786	35.16
878.959	47.44
879.131	-20.14
879.303	-44.71
879.476	20.82
879.648	61.78
879.82	-11.95
879.993	14.68
880.165	16.73
880.337	12.63
880.509	-1.71
880.681	84.31
880.854	47.44
881.026	-16.04
881.198	29.01
881.37	-22.19
881.542	0.34
881.714	-32.43
881.886	20.82
882.058	24.92
882.23	80.21
882.402	-42.67
882.574	45.4
882.746	-5.8
882.918	53.59
883.09	41.3
883.262	41.3
883.434	33.11
883.606	2.39
883.778	-20.14
883.95	47.44
884.122	0.34
884.293	94.55
884.465	-20.14
884.637	61.78
884.809	-77.48
884.98	-11.95
885.152	29.01
885.324	20.82
885.496	-50.86
885.667	10.58
885.839	20.82
886.011	104.79
886.182	-30.38
886.354	20.82
886.525	16.73
886.697	4.44
886.869	0.34
887.04	-9.9
887.212	6.49
887.383	88.4
887.555	-50.86
887.726	20.82
887.897	6.49
888.069	14.68
888.24	78.16
888.412	22.87
888.583	8.53
888.754	-24.23
888.926	2.39
889.097	-16.04
889.268	-28.33
889.44	-54.95
889.611	-30.38
889.782	-1.71
889.953	-32.43
890.125	-9.9
890.296	-54.95
890.467	-7.85
890.638	-30.38
890.809	4.44
890.98	6.49
891.151	39.25
891.323	86.36
891.494	14.68
891.665	31.06
891.836	8.53
892.007	-28.33
892.178	53.59
892.349	20.82
892.52	31.06
892.691	61.78
892.862	16.73
893.032	47.44
893.203	14.68
893.374	24.92
893.545	57.68
893.716	-11.95
893.887	61.78
894.057	8.53
894.228	12.63
894.399	20.82
894.57	20.82
894.74	0.34
894.911	-11.95
895.082	-20.14
895.253	-1.71
895.423	51.54
895.594	72.02
895.764	-28.33
895.935	24.92
896.106	31.06
896.276	53.59
896.447	-7.85
896.617	82.26
896.788	14.68
896.958	55.64
897.129	-36.52
897.299	-28.33
897.47	14.68
897.64	-24.23
897.81	12.63
897.981	-3.75
898.151	-69.29
898.322	57.68
898.492	47.44
898.662	6.49
898.832	-22.19
899.003	-61.1
899.173	12.63
899.343	20.82
899.513	-16.04
