Data from USB4F104151__249__14-22-35-801.txt Node

Date: Thu Mar 13 14:22:35 EDT 2025
User: louis
Spectrometer: USB4F10415
Trigger mode: 4
Integration Time (sec): 2.000000E-2
Scans to average: 1
Electric dark correction enabled: true
Nonlinearity correction enabled: false
Boxcar width: 0
XAxis mode: Wavelengths
Number of Pixels in Spectrum: 3648
>>>>>Begin Spectral Data<<<<<
178.204	-83.63
178.424	-83.63
178.644	-83.63
178.864	-116.39
179.084	-32.43
179.304	-18.09
179.524	-28.33
179.744	16.73
179.964	-3.75
180.184	18.77
180.404	-44.71
180.624	4.44
180.844	-1.71
181.064	2.39
181.283	12.63
181.503	61.78
181.723	-20.14
181.943	-1.71
182.163	63.83
182.383	53.59
182.602	55.64
182.822	51.54
183.042	-9.9
183.262	51.54
183.482	-9.9
183.701	37.2
183.921	45.4
184.141	41.3
184.361	74.07
184.58	-67.24
184.8	-16.04
185.02	41.3
185.239	22.87
185.459	-36.52
185.679	96.6
185.898	-22.19
186.118	16.73
186.338	-20.14
186.557	4.44
186.777	-59.05
186.997	53.59
187.216	43.35
187.436	84.31
187.655	-9.9
187.875	69.97
188.095	10.58
188.314	55.64
188.534	12.63
188.753	45.4
188.973	14.68
189.192	90.45
189.412	53.59
189.631	-7.85
189.851	-85.67
190.07	-34.47
190.29	-3.75
190.509	16.73
190.729	-93.87
190.948	39.25
191.168	135.51
191.387	29.01
191.607	22.87
191.826	72.02
192.045	6.49
192.265	16.73
192.484	26.96
192.704	43.35
192.923	-34.47
193.142	133.46
193.362	-26.28
193.581	57.68
193.8	45.4
194.02	135.51
194.239	12.63
194.458	4.44
194.678	-69.29
194.897	57.68
195.116	37.2
195.335	26.96
195.555	51.54
195.774	12.63
195.993	24.92
196.212	-9.9
196.432	45.4
196.651	0.34
196.87	-3.75
197.089	82.26
197.308	-32.43
197.528	-1.71
197.747	47.44
197.966	72.02
198.185	37.2
198.404	47.44
198.623	-20.14
198.842	61.78
199.062	45.4
199.281	53.59
199.5	22.87
199.719	-44.71
199.938	8.53
200.157	69.97
200.376	8.53
200.595	-3.75
200.814	43.35
201.033	22.87
201.252	24.92
201.471	12.63
201.69	0.34
201.909	74.07
202.128	4.44
202.347	-24.23
202.566	-13.99
202.785	8.53
203.004	100.69
203.223	82.26
203.442	31.06
203.661	-13.99
203.879	55.64
204.098	24.92
204.317	29.01
204.536	78.16
204.755	-1.71
204.974	37.2
205.193	24.92
205.411	72.02
205.63	39.25
205.849	41.3
206.068	33.11
206.287	4.44
206.505	74.07
206.724	69.97
206.943	14.68
207.162	-20.14
207.381	-7.85
207.599	-24.23
207.818	84.31
208.037	10.58
208.255	2.39
208.474	20.82
208.693	-18.09
208.911	45.4
209.13	20.82
209.349	45.4
209.567	123.22
209.786	45.4
210.005	26.96
210.223	-1.71
210.442	12.63
210.661	-7.85
210.879	-20.14
211.098	41.3
211.316	20.82
211.535	39.25
211.753	0.34
211.972	63.83
212.191	55.64
212.409	29.01
212.628	78.16
212.846	22.87
213.065	37.2
213.283	57.68
213.502	-50.86
213.72	53.59
213.938	35.16
214.157	-5.8
214.375	-36.52
214.594	88.4
214.812	22.87
215.031	-3.75
215.249	6.49
215.467	24.92
215.686	80.21
215.904	0.34
216.122	100.69
216.341	4.44
216.559	26.96
216.778	24.92
216.996	20.82
217.214	14.68
217.432	0.34
217.651	-18.09
217.869	-11.95
218.087	16.73
218.306	47.44
218.524	69.97
218.742	49.49
218.96	12.63
219.179	12.63
219.397	78.16
219.615	31.06
219.833	20.82
220.051	72.02
220.27	63.83
220.488	20.82
220.706	16.73
220.924	88.4
221.142	-77.48
221.36	16.73
221.578	4.44
221.796	12.63
222.015	102.74
222.233	-26.28
222.451	61.78
222.669	-9.9
222.887	57.68
223.105	18.77
223.323	94.55
223.541	74.07
223.759	-32.43
223.977	41.3
224.195	69.97
224.413	8.53
224.631	-28.33
224.849	61.78
225.067	96.6
225.285	33.11
225.503	12.63
225.721	-26.28
225.939	43.35
226.157	102.74
226.375	145.75
226.592	55.64
226.81	-7.85
227.028	-9.9
227.246	4.44
227.464	37.2
227.682	12.63
227.9	57.68
228.117	-34.47
228.335	0.34
228.553	102.74
228.771	45.4
228.989	-11.95
229.206	20.82
229.424	29.01
229.642	41.3
229.86	22.87
230.077	86.36
230.295	39.25
230.513	53.59
230.731	69.97
230.948	90.45
231.166	78.16
231.384	-69.29
231.601	-22.19
231.819	90.45
232.037	16.73
232.254	35.16
232.472	29.01
232.689	-9.9
232.907	31.06
233.125	-1.71
233.342	14.68
233.56	4.44
233.777	61.78
233.995	-54.95
234.213	14.68
234.43	78.16
234.648	61.78
234.865	-24.23
235.083	88.4
235.3	41.3
235.518	12.63
235.735	55.64
235.953	-20.14
236.17	45.4
236.388	106.84
236.605	-9.9
236.822	-26.28
237.04	33.11
237.257	43.35
237.475	-11.95
237.692	80.21
237.909	4.44
238.127	-11.95
238.344	-18.09
238.562	20.82
238.779	-20.14
238.996	-11.95
239.214	12.63
239.431	69.97
239.648	37.2
239.865	115.03
240.083	72.02
240.3	57.68
240.517	-63.15
240.735	-40.62
240.952	12.63
241.169	37.2
241.386	45.4
241.603	-69.29
241.821	-34.47
242.038	78.16
242.255	-11.95
242.472	-65.19
242.689	0.34
242.907	20.82
243.124	-9.9
243.341	-16.04
243.558	-1.71
243.775	8.53
243.992	-65.19
244.209	-20.14
244.426	67.92
244.643	-22.19
244.86	0.34
245.078	53.59
245.295	29.01
245.512	37.2
245.729	12.63
245.946	-16.04
246.163	110.93
246.38	86.36
246.597	-32.43
246.814	96.6
247.031	20.82
247.248	29.01
247.464	80.21
247.681	10.58
247.898	39.25
248.115	-5.8
248.332	-77.48
248.549	31.06
248.766	65.88
248.983	82.26
249.2	-7.85
249.417	47.44
249.633	43.35
249.85	20.82
250.067	29.01
250.284	-16.04
250.501	-20.14
250.717	18.77
250.934	8.53
251.151	-57
251.368	31.06
251.585	-16.04
251.801	37.2
252.018	29.01
252.235	39.25
252.451	69.97
252.668	-1.71
252.885	16.73
253.102	18.77
253.318	14.68
253.535	80.21
253.752	12.63
253.968	20.82
254.185	12.63
254.401	55.64
254.618	-11.95
254.835	35.16
255.051	88.4
255.268	6.49
255.484	37.2
255.701	78.16
255.917	-34.47
256.134	-42.67
256.351	37.2
256.567	12.63
256.784	45.4
257	6.49
257.217	8.53
257.433	74.07
257.65	-1.71
257.866	-30.38
258.082	29.01
258.299	16.73
258.515	-50.86
258.732	14.68
258.948	69.97
259.165	-36.52
259.381	18.77
259.597	29.01
259.814	51.54
260.03	-28.33
260.246	41.3
260.463	110.93
260.679	43.35
260.895	16.73
261.112	67.92
261.328	6.49
261.544	24.92
261.761	121.17
261.977	-32.43
262.193	-52.91
262.409	24.92
262.626	78.16
262.842	20.82
263.058	-7.85
263.274	59.73
263.49	22.87
263.707	59.73
263.923	20.82
264.139	4.44
264.355	47.44
264.571	14.68
264.787	45.4
265.004	20.82
265.22	4.44
265.436	-26.28
265.652	8.53
265.868	-3.75
266.084	-32.43
266.3	31.06
266.516	-16.04
266.732	12.63
266.948	49.49
267.164	37.2
267.38	78.16
267.596	78.16
267.812	51.54
268.028	84.31
268.244	4.44
268.46	63.83
268.676	45.4
268.892	-16.04
269.108	-1.71
269.324	24.92
269.54	-7.85
269.756	88.4
269.972	14.68
270.188	4.44
270.403	20.82
270.619	86.36
270.835	63.83
271.051	-16.04
271.267	18.77
271.483	10.58
271.698	55.64
271.914	39.25
272.13	-28.33
272.346	-7.85
272.562	39.25
272.777	69.97
272.993	31.06
273.209	-34.47
273.425	53.59
273.64	-1.71
273.856	94.55
274.072	31.06
274.287	4.44
274.503	115.03
274.719	69.97
274.934	-3.75
275.15	12.63
275.366	69.97
275.581	-26.28
275.797	-7.85
276.012	22.87
276.228	-3.75
276.444	6.49
276.659	31.06
276.875	18.77
277.09	-1.71
277.306	-61.1
277.521	24.92
277.737	-26.28
277.952	-34.47
278.168	78.16
278.383	-5.8
278.599	53.59
278.814	0.34
279.03	24.92
279.245	-26.28
279.461	16.73
279.676	51.54
279.892	-48.81
280.107	16.73
280.322	-34.47
280.538	121.17
280.753	29.01
280.969	-9.9
281.184	4.44
281.399	102.74
281.615	47.44
281.83	78.16
282.045	-52.91
282.26	-52.91
282.476	22.87
282.691	-3.75
282.906	137.56
283.122	18.77
283.337	47.44
283.552	8.53
283.767	0.34
283.983	39.25
284.198	-46.76
284.413	22.87
284.628	-28.33
284.843	20.82
285.058	-20.14
285.274	98.64
285.489	-11.95
285.704	16.73
285.919	33.11
286.134	39.25
286.349	39.25
286.564	-54.95
286.779	47.44
286.995	72.02
287.21	-42.67
287.425	61.78
287.64	6.49
287.855	-61.1
288.07	-20.14
288.285	16.73
288.5	49.49
288.715	72.02
288.93	57.68
289.145	22.87
289.36	88.4
289.575	20.82
289.79	61.78
290.004	0.34
290.219	65.88
290.434	20.82
290.649	45.4
290.864	4.44
291.079	-22.19
291.294	55.64
291.509	31.06
291.724	-32.43
291.938	20.82
292.153	61.78
292.368	33.11
292.583	-13.99
292.798	24.92
293.012	-36.52
293.227	-11.95
293.442	129.36
293.657	45.4
293.871	55.64
294.086	-1.71
294.301	92.5
294.516	-38.57
294.73	0.34
294.945	-11.95
295.16	12.63
295.374	16.73
295.589	-22.19
295.804	-13.99
296.018	102.74
296.233	94.55
296.447	31.06
296.662	-32.43
296.877	20.82
297.091	26.96
297.306	4.44
297.52	90.45
297.735	102.74
297.949	94.55
298.164	4.44
298.378	-28.33
298.593	55.64
298.807	-95.91
299.022	72.02
299.236	8.53
299.451	37.2
299.665	-11.95
299.88	-30.38
300.094	22.87
300.309	29.01
300.523	63.83
300.737	-26.28
300.952	8.53
301.166	57.68
301.381	16.73
301.595	6.49
301.809	4.44
302.024	63.83
302.238	-38.57
302.452	35.16
302.667	-46.76
302.881	86.36
303.095	49.49
303.309	12.63
303.524	51.54
303.738	-3.75
303.952	-3.75
304.166	-32.43
304.381	-3.75
304.595	69.97
304.809	-13.99
305.023	-3.75
305.237	49.49
305.452	39.25
305.666	-57
305.88	47.44
306.094	129.36
306.308	37.2
306.522	33.11
306.736	63.83
306.95	24.92
307.164	94.55
307.379	39.25
307.593	76.12
307.807	88.4
308.021	37.2
308.235	59.73
308.449	37.2
308.663	14.68
308.877	74.07
309.091	-22.19
309.305	51.54
309.519	6.49
309.733	0.34
309.947	-11.95
310.161	33.11
310.374	-59.05
310.588	16.73
310.802	-44.71
311.016	-11.95
311.23	-36.52
311.444	37.2
311.658	72.02
311.872	20.82
312.085	78.16
312.299	117.08
312.513	29.01
312.727	104.79
312.941	-24.23
313.154	53.59
313.368	-11.95
313.582	-20.14
313.796	-1.71
314.009	24.92
314.223	45.4
314.437	78.16
314.651	-13.99
314.864	-20.14
315.078	14.68
315.292	-36.52
315.505	24.92
315.719	35.16
315.933	104.79
316.146	24.92
316.36	-77.48
316.573	76.12
316.787	-20.14
317.001	53.59
317.214	0.34
317.428	35.16
317.641	-22.19
317.855	39.25
318.068	-20.14
318.282	86.36
318.495	76.12
318.709	55.64
318.922	12.63
319.136	61.78
319.349	74.07
319.563	-26.28
319.776	61.78
319.99	0.34
320.203	-7.85
320.417	12.63
320.63	10.58
320.843	119.12
321.057	-20.14
321.27	24.92
321.483	16.73
321.697	16.73
321.91	78.16
322.124	-1.71
322.337	86.36
322.55	-3.75
322.763	29.01
322.977	57.68
323.19	-18.09
323.403	0.34
323.617	55.64
323.83	20.82
324.043	14.68
324.256	29.01
324.469	102.74
324.683	20.82
324.896	12.63
325.109	2.39
325.322	37.2
325.535	39.25
325.748	4.44
325.962	78.16
326.175	6.49
326.388	10.58
326.601	74.07
326.814	49.49
327.027	10.58
327.24	69.97
327.453	-24.23
327.666	67.92
327.879	-11.95
328.092	18.77
328.305	10.58
328.518	47.44
328.731	29.01
328.944	-26.28
329.157	-28.33
329.37	-28.33
329.583	12.63
329.796	94.55
330.009	-3.75
330.222	-20.14
330.435	-11.95
330.648	-11.95
330.861	24.92
331.073	8.53
331.286	39.25
331.499	41.3
331.712	31.06
331.925	49.49
332.138	37.2
332.35	47.44
332.563	49.49
332.776	112.98
332.989	-11.95
333.202	43.35
333.414	29.01
333.627	29.01
333.84	16.73
334.053	74.07
334.265	4.44
334.478	-61.1
334.691	86.36
334.903	-5.8
335.116	-34.47
335.329	20.82
335.541	57.68
335.754	61.78
335.966	-3.75
336.179	74.07
336.392	69.97
336.604	-34.47
336.817	24.92
337.029	14.68
337.242	8.53
337.454	53.59
337.667	33.11
337.88	69.97
338.092	-20.14
338.305	61.78
338.517	16.73
338.729	22.87
338.942	108.88
339.154	4.44
339.367	-18.09
339.579	61.78
339.792	-3.75
340.004	2.39
340.217	41.3
340.429	51.54
340.641	-40.62
340.854	-34.47
341.066	22.87
341.278	49.49
341.491	98.64
341.703	31.06
341.915	-5.8
342.128	0.34
342.34	47.44
342.552	59.73
342.764	12.63
342.977	53.59
343.189	16.73
343.401	22.87
343.613	16.73
343.826	39.25
344.038	39.25
344.25	55.64
344.462	16.73
344.674	18.77
344.886	35.16
345.099	4.44
345.311	104.79
345.523	22.87
345.735	-3.75
345.947	37.2
346.159	29.01
346.371	78.16
346.583	29.01
346.795	86.36
347.007	0.34
347.219	69.97
347.431	-44.71
347.643	61.78
347.855	55.64
348.067	86.36
348.279	-11.95
348.491	43.35
348.703	57.68
348.915	39.25
349.127	22.87
349.339	31.06
349.551	33.11
349.763	92.5
349.975	-20.14
350.187	33.11
350.399	0.34
350.61	10.58
350.822	-3.75
351.034	-20.14
351.246	53.59
351.458	-3.75
351.669	37.2
351.881	31.06
352.093	39.25
352.305	59.73
352.517	4.44
352.728	53.59
352.94	-40.62
353.152	6.49
353.363	26.96
353.575	51.54
353.787	0.34
353.999	24.92
354.21	102.74
354.422	20.82
354.633	-11.95
354.845	-36.52
355.057	41.3
355.268	33.11
355.48	16.73
355.692	112.98
355.903	12.63
356.115	31.06
356.326	12.63
356.538	29.01
356.749	49.49
356.961	86.36
357.172	106.84
357.384	31.06
357.595	67.92
357.807	4.44
358.018	47.44
358.23	20.82
358.441	106.84
358.653	94.55
358.864	-7.85
359.075	-1.71
359.287	4.44
359.498	78.16
359.709	69.97
359.921	33.11
360.132	-1.71
360.344	88.4
360.555	-16.04
360.766	59.73
360.977	61.78
361.189	53.59
361.4	29.01
361.611	2.39
361.823	108.88
362.034	39.25
362.245	2.39
362.456	102.74
362.667	61.78
362.879	12.63
363.09	29.01
363.301	41.3
363.512	88.4
363.723	29.01
363.935	20.82
364.146	53.59
364.357	29.01
364.568	-3.75
364.779	88.4
364.99	12.63
365.201	8.53
365.412	88.4
365.623	78.16
365.834	74.07
366.045	47.44
366.256	61.78
366.467	92.5
366.678	37.2
366.889	6.49
367.1	-9.9
367.311	12.63
367.522	88.4
367.733	74.07
367.944	33.11
368.155	16.73
368.366	53.59
368.577	39.25
368.788	53.59
368.999	51.54
369.209	41.3
369.42	80.21
369.631	80.21
369.842	35.16
370.053	-22.19
370.264	6.49
370.474	61.78
370.685	4.44
370.896	-42.67
371.107	119.12
371.317	61.78
371.528	4.44
371.739	72.02
371.95	72.02
372.16	69.97
372.371	106.84
372.582	29.01
372.792	29.01
373.003	57.68
373.214	82.26
373.424	20.82
373.635	16.73
373.846	45.4
374.056	72.02
374.267	96.6
374.477	94.55
374.688	31.06
374.898	47.44
375.109	-16.04
375.319	61.78
375.53	-9.9
375.74	14.68
375.951	45.4
376.161	22.87
376.372	63.83
376.582	45.4
376.793	37.2
377.003	-9.9
377.214	31.06
377.424	-28.33
377.635	37.2
377.845	29.01
378.055	67.92
378.266	14.68
378.476	61.78
378.686	20.82
378.897	-3.75
379.107	41.3
379.317	45.4
379.528	55.64
379.738	96.6
379.948	18.77
380.158	33.11
380.369	90.45
380.579	88.4
380.789	88.4
380.999	94.55
381.21	41.3
381.42	133.46
381.63	4.44
381.84	37.2
382.05	96.6
382.261	69.97
382.471	-26.28
382.681	-3.75
382.891	98.64
383.101	-26.28
383.311	6.49
383.521	-34.47
383.731	90.45
383.941	55.64
384.151	57.68
384.361	37.2
384.571	55.64
384.781	98.64
384.991	88.4
385.201	43.35
385.411	72.02
385.621	24.92
385.831	20.82
386.041	24.92
386.251	-9.9
386.461	84.31
386.671	-1.71
386.881	29.01
387.091	78.16
387.301	33.11
387.511	53.59
387.72	53.59
387.93	61.78
388.14	14.68
388.35	-40.62
388.56	55.64
388.769	31.06
388.979	12.63
389.189	16.73
389.399	49.49
389.609	-3.75
389.818	94.55
390.028	90.45
390.238	69.97
390.447	8.53
390.657	22.87
390.867	10.58
391.076	26.96
391.286	4.44
391.496	72.02
391.705	45.4
391.915	147.8
392.125	33.11
392.334	16.73
392.544	135.51
392.753	69.97
392.963	43.35
393.172	26.96
393.382	20.82
393.591	69.97
393.801	20.82
394.01	41.3
394.22	53.59
394.429	53.59
394.639	94.55
394.848	22.87
395.058	127.32
395.267	-42.67
395.477	16.73
395.686	29.01
395.895	104.79
396.105	33.11
396.314	20.82
396.524	57.68
396.733	151.89
396.942	96.6
397.152	20.82
397.361	86.36
397.57	33.11
397.78	98.64
397.989	139.6
398.198	74.07
398.407	16.73
398.617	90.45
398.826	129.36
399.035	39.25
399.244	86.36
399.453	43.35
399.663	49.49
399.872	37.2
400.081	39.25
400.29	115.03
400.499	78.16
400.708	57.68
400.917	94.55
401.127	45.4
401.336	-24.23
401.545	196.95
401.754	153.94
401.963	110.93
402.172	61.78
402.381	29.01
402.59	18.77
402.799	61.78
403.008	84.31
403.217	96.6
403.426	90.45
403.635	127.32
403.844	98.64
404.053	121.17
404.262	6.49
404.471	112.98
404.68	49.49
404.888	92.5
405.097	121.17
405.306	43.35
405.515	141.65
405.724	119.12
405.933	164.18
406.142	121.17
406.35	139.6
406.559	121.17
406.768	147.8
406.977	94.55
407.185	176.47
407.394	96.6
407.603	84.31
407.812	127.32
408.02	168.27
408.229	160.08
408.438	63.83
408.646	94.55
408.855	90.45
409.064	121.17
409.272	172.37
409.481	209.23
409.69	174.42
409.898	151.89
410.107	176.47
410.315	178.51
410.524	242
410.733	235.86
410.941	260.43
411.15	203.09
411.358	278.87
411.567	317.78
411.775	276.82
411.984	272.72
412.192	252.24
412.401	291.15
412.609	311.63
412.818	356.69
413.026	381.26
413.234	366.93
413.443	287.06
413.651	282.96
413.86	430.41
414.068	436.56
414.276	377.17
414.485	414.03
414.693	463.18
414.901	491.85
415.11	414.03
415.318	414.03
415.526	461.13
415.734	446.8
415.943	522.57
416.151	532.81
416.359	557.39
416.567	520.53
416.776	536.91
416.984	659.79
417.192	694.6
417.4	661.84
417.608	620.88
417.817	643.4
418.025	788.81
418.233	790.86
418.441	749.9
418.649	751.95
418.857	831.82
419.065	872.78
419.273	823.62
419.481	831.82
419.689	973.13
419.897	1036.61
420.105	1053
420.313	993.61
420.521	1106.24
420.729	1122.63
420.937	1098.05
421.145	1071.43
421.353	1208.64
421.561	1298.75
421.769	1177.92
421.977	1296.71
422.185	1325.38
422.393	1407.3
422.601	1462.59
422.809	1425.73
423.017	1431.87
423.224	1569.09
423.432	1601.85
423.64	1507.65
423.848	1833.27
424.056	1743.16
424.263	1890.62
424.471	1939.77
424.679	1890.62
424.887	1995.06
425.094	2066.74
425.302	2015.54
425.51	2081.08
425.718	2267.44
425.925	2257.2
426.133	2242.87
426.341	2437.42
426.548	2554.16
426.756	2466.1
426.964	2607.41
427.171	2703.66
427.379	2785.58
427.586	2847.02
427.794	2994.47
428.001	3017
428.209	3211.56
428.417	3186.98
428.624	3359.01
428.832	3338.53
429.039	3381.54
429.247	3268.9
429.454	3639.58
429.662	3827.99
429.869	3674.4
430.076	3784.99
430.284	3649.82
430.491	3881.24
430.699	4198.68
430.906	4038.94
431.114	4309.27
431.321	4342.04
431.528	4389.14
431.736	4763.92
431.943	4946.19
432.15	4682
432.358	4921.61
432.565	5095.69
432.772	4985.1
432.979	5253.38
433.187	5333.25
433.394	5443.84
433.601	5779.71
433.808	5888.25
434.016	5779.71
434.223	6140.15
434.43	6492.4
434.637	6392.05
434.844	6629.62
435.052	6818.03
435.259	6639.86
435.466	6893.8
435.673	6639.86
435.88	7031.02
436.087	7352.55
436.294	7782.62
436.501	7481.57
436.708	7370.98
436.915	7952.6
437.122	8030.43
437.329	7753.95
437.537	8270.04
437.743	8610
437.95	8460.5
438.157	8843.47
438.364	8956.11
438.571	9203.91
438.778	9124.04
438.985	10092.73
439.192	9744.58
439.399	9797.82
439.606	9701.57
439.813	10363.06
440.02	10948.78
440.227	10930.35
440.433	10516.66
440.64	10881.2
440.847	10584.24
441.054	11016.37
441.261	11704.48
441.467	11628.71
441.674	11940
441.881	12353.69
442.088	12472.47
442.294	12267.67
442.501	12478.61
442.708	12636.31
442.914	13250.7
443.121	13856.9
443.328	13367.43
443.534	14340.22
443.741	13807.75
443.948	13590.66
444.154	14803.06
444.361	14846.07
444.568	14571.64
444.774	14741.62
444.981	14499.96
445.187	15179.89
445.394	15659.11
445.6	15716.45
445.807	17193.04
446.013	16683.09
446.22	16767.06
446.426	17420.36
446.633	17670.22
446.839	18290.75
447.046	17659.98
447.252	18313.28
447.459	18755.64
447.665	18161.73
447.871	19126.32
448.078	20154.4
448.284	19206.19
448.491	19607.59
448.697	20260.9
448.903	20582.43
449.11	20893.72
449.316	20617.24
449.522	20899.86
449.728	21483.53
449.935	21377.04
450.141	21557.26
450.347	22081.54
450.553	21309.46
450.76	21618.7
450.966	22571
451.172	22032.39
451.378	22753.27
451.584	22077.44
451.791	23029.75
451.997	22611.96
452.203	23087.09
452.409	23142.39
452.615	22923.26
452.821	22300.67
453.027	21917.7
453.233	22982.65
453.44	22231.04
453.646	22429.7
453.852	22876.15
454.058	22992.89
454.264	22171.65
454.47	22636.54
454.676	22022.15
454.882	23207.92
455.088	20992.02
455.294	21422.09
455.5	21547.02
455.705	21868.55
455.911	20865.05
456.117	20754.46
456.323	20381.73
456.529	19193.9
456.735	20385.82
456.941	19750.95
457.147	19470.38
457.352	18634.81
457.558	18647.1
457.764	18595.9
457.97	18536.51
458.176	18102.34
458.381	17942.6
458.587	17176.66
458.793	17193.04
458.999	16050.27
459.204	17281.1
459.41	16756.82
459.616	15919.2
459.821	15560.81
460.027	15732.84
460.233	15450.22
460.438	14868.59
460.644	14817.4
460.85	14119.04
461.055	13701.25
461.261	14030.98
461.466	12990.61
461.672	12566.68
461.878	13389.96
462.083	12511.38
462.289	12249.24
462.494	12335.26
462.7	11493.54
462.905	11149.48
463.111	11788.45
463.316	11520.17
463.522	11337.9
463.727	11385
463.932	11278.51
464.138	11348.14
464.343	11272.36
464.549	11143.34
464.754	11514.02
464.959	11407.53
465.165	11145.39
465.37	10754.23
465.575	10543.28
465.781	11024.56
465.986	10805.42
466.191	10412.21
466.397	10311.86
466.602	9855.17
466.807	10162.36
467.012	10336.44
467.218	10262.71
467.423	10176.7
467.628	10272.95
467.833	10195.13
468.038	10023.1
468.244	9578.69
468.449	10395.83
468.654	9885.89
468.859	9998.52
469.064	9806.02
469.269	9414.85
469.474	9343.17
469.679	9758.91
469.885	9486.53
470.09	9543.88
470.295	9384.13
470.5	9099.47
470.705	9203.91
470.91	9007.31
471.115	8900.81
471.32	9203.91
471.525	9097.42
471.73	8847.57
471.935	8671.44
472.139	8544.47
472.344	8741.07
472.549	8511.7
472.754	8476.88
472.959	8155.35
473.164	8106.2
473.369	8089.82
473.574	8218.84
473.778	8274.14
473.983	8198.36
474.188	8274.14
474.393	7733.47
474.598	7782.62
474.802	7772.38
475.007	7614.69
475.212	7723.23
475.417	7450.85
475.621	7270.63
475.826	7477.48
476.031	7106.79
476.235	7033.07
476.44	7221.48
476.645	7020.78
476.849	7041.26
477.054	7012.59
477.259	7049.45
477.463	6858.99
477.668	6553.84
477.872	6873.32
478.077	6609.14
478.282	6547.7
478.486	6551.79
478.691	6336.76
478.895	6484.21
479.1	6564.08
479.304	6381.81
479.509	6271.22
479.713	6385.91
479.918	6201.59
480.122	6131.96
480.326	6215.93
480.531	6220.02
480.735	6033.66
480.94	6183.16
481.144	6172.92
481.348	5886.2
481.553	5972.22
481.757	5722.37
481.961	5980.41
482.166	6121.72
482.37	6043.9
482.574	5955.83
482.778	6091
482.983	6037.75
483.187	5888.25
483.391	5847.29
483.595	5888.25
483.8	5861.63
484.004	5853.44
484.208	6021.37
484.412	5894.4
484.616	5830.91
484.821	5984.51
485.025	5789.95
485.229	5955.83
485.433	5777.66
485.637	5837.05
485.841	5943.55
486.045	5849.34
486.249	5820.67
486.453	5849.34
486.657	5988.6
486.861	5988.6
487.065	5757.18
487.269	5957.88
487.473	5781.76
487.677	6002.94
487.881	5935.35
488.085	5789.95
488.289	5943.55
488.493	5773.57
488.697	5998.84
488.901	5906.68
489.105	5976.31
489.309	6009.08
489.512	5751.04
489.716	6047.99
489.92	5992.7
490.124	5976.31
490.328	6027.51
490.531	5984.51
490.735	6021.37
490.939	5878.01
491.143	5994.75
491.346	6115.58
491.55	6131.96
491.754	6095.1
491.958	6134.01
492.161	6234.36
492.365	6271.22
492.569	6385.91
492.772	6349.04
492.976	6312.18
493.18	6344.95
493.383	6383.86
493.587	6510.83
493.79	6525.17
493.994	6418.68
494.197	6443.25
494.401	6535.41
494.605	6531.31
494.808	6590.7
495.012	6762.73
495.215	6844.65
495.419	6787.31
495.622	6873.32
495.825	6732.01
496.029	6742.25
496.232	6942.96
496.436	6998.25
496.639	7327.97
496.843	6768.88
497.046	7254.25
497.249	7188.71
497.453	7119.08
497.656	7383.27
497.859	7325.93
498.063	7420.13
498.266	7631.07
498.469	7518.43
498.673	7569.63
498.876	7844.06
499.079	7893.21
499.282	7839.97
499.485	8114.39
499.689	8237.27
499.892	8130.78
500.095	8235.22
500.298	8499.41
500.501	8378.58
500.705	8476.88
500.908	8769.74
501.111	8757.46
501.314	8839.37
501.517	8755.41
501.72	8820.94
501.923	8880.33
502.126	9302.22
502.329	9388.23
502.532	9246.92
502.735	9574.6
502.938	9580.74
503.141	9576.64
503.344	9756.86
503.547	9994.43
503.75	10031.29
503.953	10176.7
504.156	10016.96
504.359	10150.07
504.562	10094.78
504.765	10424.5
504.968	10424.5
505.17	10676.4
505.373	10844.34
505.576	10944.69
505.779	10956.97
505.982	11122.86
506.185	11231.4
506.387	11374.76
506.59	11387.05
506.793	11518.12
506.996	11649.19
507.198	11802.79
507.401	11638.95
507.604	12032.16
507.807	12396.7
508.009	12341.4
508.212	12189.85
508.415	12425.37
508.617	12654.74
508.82	12636.31
509.022	12603.54
509.225	13123.73
509.428	12869.78
509.63	13226.12
509.833	13342.86
510.035	13551.75
510.238	13506.7
510.44	13631.62
510.643	14078.08
510.845	14000.26
511.048	13996.16
511.25	14254.2
511.453	14370.94
511.655	14864.5
511.858	14823.54
512.06	14895.22
512.262	14958.71
512.465	14778.48
512.667	15241.32
512.87	15167.6
513.072	15462.51
513.274	15468.65
513.477	16031.84
513.679	15722.6
513.881	15937.63
514.084	16232.54
514.286	16408.67
514.488	16570.46
514.69	16824.4
514.893	16877.65
515.095	16918.61
515.297	17223.76
515.499	17254.48
515.701	17481.8
515.904	17608.78
516.106	17612.87
516.308	17641.54
516.51	18032.71
516.712	18239.55
516.914	18120.77
517.116	18755.64
517.318	18495.55
517.52	18706.49
517.722	18978.87
517.925	19177.52
518.127	19347.5
518.329	19419.18
518.531	19329.07
518.733	19697.7
518.935	19882.02
519.136	20004.9
519.338	20074.53
519.54	19994.66
519.742	20387.87
519.944	20166.69
520.146	20992.02
520.348	21110.8
520.55	21026.84
520.752	20971.54
520.954	21647.37
521.155	21360.66
521.357	21657.61
521.559	21915.65
521.761	22188.03
521.963	21936.13
522.164	22292.48
522.366	22390.78
522.568	22679.55
522.77	22753.27
522.971	23320.56
523.173	23039.99
523.375	23031.8
523.576	22976.5
523.778	23091.19
523.98	23678.96
524.181	23388.14
524.383	23539.69
524.584	23973.86
524.786	23971.82
524.988	23838.7
525.189	24043.49
525.391	24362.98
525.592	24379.36
525.794	24692.7
525.995	24694.75
526.197	24391.65
526.398	24958.94
526.6	25038.81
526.801	24895.45
527.003	25399.25
527.204	25321.43
527.406	25313.24
527.607	25647.05
527.808	25554.9
528.01	25110.49
528.211	25583.57
528.412	26134.47
528.614	26036.17
528.815	26050.5
529.016	25933.77
529.218	26021.83
529.419	26003.4
529.62	26058.7
529.822	25954.25
530.023	26167.24
530.224	26183.62
530.425	26486.72
530.626	26218.44
530.828	25978.82
531.029	26347.46
531.23	26501.06
531.431	26466.24
531.632	26533.82
531.833	26755.01
532.035	26701.76
532.236	26519.49
532.437	26830.78
532.638	26861.5
532.839	26761.15
533.04	26830.78
533.241	26486.72
533.442	26818.49
533.643	26924.99
533.844	26519.49
534.045	26435.52
534.246	26423.23
534.447	26709.95
534.648	26656.7
534.849	27025.34
535.05	26599.36
535.251	26900.41
535.451	26677.18
535.652	26521.54
535.853	26806.2
536.054	26828.73
536.255	26935.23
536.456	26298.31
536.657	27121.59
536.857	26582.98
537.058	26539.97
537.259	26927.03
537.46	26894.27
537.66	26685.37
537.861	26535.87
538.062	26896.31
538.263	26836.92
538.463	26644.41
538.664	26712
538.865	26738.62
539.065	27080.63
539.266	26517.44
539.466	26800.06
539.667	26542.02
539.868	27107.26
540.068	26732.48
540.269	26800.06
540.469	26832.83
540.67	26824.64
540.87	26890.17
541.071	26615.74
541.271	26714.05
541.472	26476.48
541.672	26740.67
541.873	26341.32
542.073	26189.77
542.274	26849.21
542.474	26554.3
542.675	26787.77
542.875	26595.26
543.075	26193.86
543.276	26490.82
543.476	26709.95
543.676	26398.66
543.877	26662.85
544.077	26531.78
544.277	26216.39
544.478	26771.39
544.678	26525.63
544.878	26826.68
545.078	26472.39
545.279	26296.26
545.479	26326.98
545.679	26535.87
545.879	26423.23
546.079	26568.64
546.28	26322.88
546.48	26423.23
546.68	26273.73
546.88	26271.68
547.08	26230.73
547.28	26470.34
547.48	25913.29
547.68	26146.76
547.88	26150.85
548.081	26740.67
548.281	26116.04
548.481	26296.26
548.681	26619.84
548.881	26564.54
549.081	26369.99
549.28	26247.11
549.48	26509.25
549.68	26392.51
549.88	26771.39
550.08	26458.05
550.28	26255.3
550.48	26159.05
550.68	26410.95
550.88	25921.48
551.08	26691.52
551.279	26095.56
551.479	26021.83
551.679	26281.92
551.879	25993.16
552.079	26318.79
552.278	25980.87
552.478	26089.42
552.678	26214.34
552.878	26347.46
553.077	26410.95
553.277	26040.26
553.477	26267.59
553.676	26017.74
553.876	25935.82
554.076	26277.83
554.275	25911.24
554.475	25817.04
554.674	26113.99
554.874	26085.32
555.074	25946.06
555.273	26124.23
555.473	26068.94
555.672	25776.08
555.872	26038.22
556.071	25857.99
556.271	25970.63
556.47	25602
556.67	25968.59
556.869	25698.25
557.068	26048.46
557.268	25415.63
557.467	25520.08
557.667	25296.85
557.866	25366.48
558.065	25917.39
558.265	25655.25
558.464	25352.15
558.663	25759.69
558.863	25231.32
559.062	25757.64
559.261	25057.24
559.461	25491.41
559.66	25194.45
559.859	25137.11
560.058	25370.58
560.258	25307.09
560.457	25010.14
560.656	25280.47
560.855	24924.12
561.054	25079.77
561.253	25141.21
561.453	25253.84
561.652	25221.08
561.851	25139.16
562.05	25063.38
562.249	24805.34
562.448	24965.08
562.647	25092.05
562.846	24592.35
563.045	24928.22
563.244	24819.67
563.443	24672.22
563.642	24539.1
563.841	24428.51
564.04	24524.77
564.239	24762.33
564.438	24299.49
564.637	24207.33
564.836	24395.75
565.035	24061.93
565.234	24455.14
565.432	24195.04
565.631	24205.28
565.83	24272.87
566.029	24178.66
566.228	24002.54
566.427	23709.68
566.625	24027.11
566.824	23263.22
567.023	24145.89
567.222	23556.08
567.42	23998.44
567.619	23527.41
567.818	23695.34
568.016	23437.3
568.215	23713.77
568.414	23128.05
568.612	23683.05
568.811	23334.9
569.01	23484.4
569.208	23169.01
569.407	23506.93
569.605	23193.59
569.804	23103.48
570.002	22986.74
570.201	23177.2
570.4	22720.51
570.598	22913.02
570.797	22982.65
570.995	22941.69
571.193	22554.62
571.392	22812.67
571.59	22489.09
571.789	22618.11
571.987	22392.83
572.186	22525.95
572.384	22532.09
572.582	22620.16
572.781	22781.95
572.979	22171.65
573.177	22415.36
573.376	22249.47
573.574	22097.92
573.772	22171.65
573.971	22218.75
574.169	22036.49
574.367	21848.07
574.565	21848.07
574.763	21577.74
574.962	21714.95
575.16	21387.28
575.358	21635.08
575.556	21432.33
575.754	21528.59
575.952	21288.98
576.151	21504.01
576.349	21352.46
576.547	21276.69
576.745	21188.63
576.943	21200.91
577.141	21450.77
577.339	21450.77
577.537	20912.15
577.735	21010.45
577.933	21149.71
578.131	21032.98
578.329	20717.59
578.527	20572.19
578.725	20772.89
578.923	20930.58
579.121	20488.22
579.319	20580.38
579.516	20758.55
579.714	20508.7
579.912	20662.3
580.11	20461.6
580.308	20424.73
580.506	20289.57
580.704	20133.92
580.901	20326.43
581.099	20209.7
581.297	20035.62
581.495	20125.73
581.692	20209.7
581.89	19783.72
582.088	19978.28
582.285	19769.38
582.483	19968.04
582.681	19537.96
582.878	19873.83
583.076	19855.4
583.274	19660.84
583.471	19423.28
583.669	19460.14
583.866	19265.58
584.064	19798.06
584.262	19157.04
584.459	19724.33
584.657	19202.1
584.854	19312.69
585.052	18911.28
585.249	19093.55
585.447	19071.03
585.644	18759.74
585.841	19030.07
586.039	19079.22
586.236	18853.94
586.434	18864.18
586.631	18683.96
586.828	18688.06
587.026	18735.16
587.223	18706.49
587.42	18618.43
587.618	18536.51
587.815	18456.64
588.012	18235.46
588.21	18190.4
588.407	18419.77
588.604	18153.54
588.801	18292.8
588.999	18131.01
589.196	18026.56
589.393	18067.52
589.59	17930.31
589.787	17883.2
589.984	17911.88
590.182	17707.08
590.379	17784.9
590.576	17551.43
590.773	17901.64
590.97	17758.28
591.167	17479.75
591.364	17184.85
591.561	17670.22
591.758	17152.08
591.955	17317.97
592.152	17234
592.349	17070.16
592.546	17150.03
592.743	17010.77
592.94	16918.61
593.137	17068.11
593.334	17084.5
593.531	16842.84
593.727	16793.69
593.924	17008.72
594.121	16621.66
594.318	16830.55
594.515	16599.13
594.712	16857.17
594.908	16701.53
595.105	16545.88
595.302	16384.09
595.499	16640.09
595.696	16455.77
595.892	16140.38
596.089	16396.38
596.286	16316.51
596.482	16152.67
596.679	16109.66
596.876	16259.17
597.072	16371.8
597.269	16091.23
597.466	15822.95
597.662	16029.79
597.859	15732.84
598.055	16013.41
598.252	15622.25
598.448	15747.17
598.645	15677.54
598.841	15724.65
599.038	15691.88
599.234	15675.49
599.431	15458.41
599.627	15489.13
599.824	15550.57
600.02	15401.07
600.217	15390.83
600.413	15503.46
600.609	15458.41
600.806	15267.95
601.002	15167.6
601.198	15243.37
601.395	15007.86
601.591	15087.73
601.787	14934.13
601.984	14919.79
602.18	14809.2
602.376	15026.29
602.572	14794.87
602.769	14674.04
602.965	14686.33
603.161	14860.4
603.357	14659.7
603.553	14561.4
603.75	14624.89
603.946	14575.73
604.142	14626.93
604.338	14415.99
604.534	14315.64
604.73	14301.31
604.926	14133.37
605.122	14358.65
605.318	14227.58
605.514	14194.81
605.71	14235.77
605.906	14022.78
606.102	14043.26
606.298	14311.55
606.494	14112.89
606.69	14168.19
606.886	13916.29
607.082	13807.75
607.278	13944.96
607.474	13824.13
607.67	13801.6
607.866	13789.31
608.062	13992.06
608.257	14022.78
608.453	13965.44
608.649	13701.25
608.845	13432.97
609.041	13699.2
609.236	13932.67
609.432	13353.1
609.628	13633.67
609.824	13578.37
610.019	13449.35
610.215	13531.27
610.411	13486.22
610.606	13619.33
610.802	13324.43
610.998	13439.11
611.193	13301.9
611.389	13011.09
611.584	13262.99
611.78	13095.05
611.976	13039.76
612.171	13297.8
612.367	13248.65
612.562	13283.47
612.758	12972.18
612.953	13078.67
613.149	13197.45
613.344	13062.29
613.539	13154.44
613.735	13062.29
613.93	13074.57
614.126	12898.45
614.321	13056.14
614.517	12959.89
614.712	12955.79
614.907	12734.61
615.103	12808.34
615.298	13029.52
615.493	12867.73
615.688	12648.6
615.884	13021.33
616.079	12759.19
616.274	12695.7
616.47	12687.51
616.665	12744.85
616.86	12552.34
617.055	12685.46
617.25	12523.67
617.445	12572.82
617.641	12521.62
617.836	12519.57
618.031	12376.22
618.226	12406.94
618.421	12165.28
618.616	12292.25
618.811	12099.74
619.006	12456.09
619.201	12120.22
619.396	12279.96
619.591	11989.15
619.786	12222.62
619.981	11962.53
620.176	11899.04
620.371	11899.04
620.566	12013.73
620.761	11927.71
620.956	11722.91
621.151	11778.21
621.346	11647.14
621.541	11661.48
621.735	11765.92
621.93	11653.28
622.125	11391.14
622.32	11235.5
622.515	11303.08
622.709	11251.88
622.904	11255.98
623.099	10995.89
623.294	11155.63
623.488	10899.63
623.683	10903.73
623.878	10698.93
624.072	10852.53
624.267	10768.56
624.462	10842.29
624.656	10621.11
624.851	10647.73
625.046	10559.67
625.24	10485.94
625.435	10508.47
625.629	10438.84
625.824	10500.28
626.018	10254.52
626.213	10109.12
626.407	10205.37
626.602	10055.87
626.796	10205.37
626.991	10113.21
627.185	10043.58
627.38	9984.19
627.574	9965.76
627.768	9793.73
627.963	9859.26
628.157	9611.46
628.352	9760.96
628.546	9619.65
628.74	9801.92
628.935	9443.53
629.129	9470.15
629.323	9412.81
629.517	9226.44
629.712	9081.03
629.906	9289.93
630.1	9089.23
630.294	9142.47
630.489	9052.36
630.683	9240.78
630.877	8978.64
631.071	8984.78
631.265	9003.21
631.459	8712.4
631.653	8886.48
631.848	9031.88
632.042	8683.73
632.236	8653.01
632.43	8630.48
632.624	8681.68
632.818	8595.67
633.012	8491.22
633.206	8403.16
633.4	8421.59
633.594	8435.92
633.788	8423.64
633.982	8513.75
634.176	8300.76
634.369	8296.66
634.563	8280.28
634.757	8278.23
634.951	8390.87
635.145	8222.94
635.339	7962.84
635.533	7995.61
635.726	7966.94
635.92	7913.69
636.114	7930.08
636.308	7870.69
636.501	8079.58
636.695	7778.53
636.889	7743.71
637.083	7624.93
637.276	7487.72
637.47	7518.43
637.664	7612.64
637.857	7428.32
638.051	7540.96
638.244	7522.53
638.438	7500
638.632	7493.86
638.825	7225.58
639.019	7323.88
639.212	7295.21
639.406	7114.98
639.599	7196.9
639.793	7168.23
639.986	7051.5
640.18	7000.3
640.373	6994.15
640.567	6961.39
640.76	7026.92
640.954	6955.24
641.147	6998.25
641.34	6998.25
641.534	6734.06
641.727	6828.27
641.92	6762.73
642.114	6748.4
642.307	6791.41
642.5	6709.49
642.694	6430.96
642.887	6656.24
643.08	6590.7
643.273	6600.94
643.467	6390
643.66	6394.1
643.853	6299.89
644.046	6451.44
644.239	6260.98
644.432	6361.33
644.626	6189.3
644.819	6131.96
645.012	6164.73
645.205	6103.29
645.398	6140.15
645.591	6164.73
645.784	5982.46
645.977	5820.67
646.17	6037.75
646.363	5923.07
646.556	5824.76
646.749	5869.82
646.942	5792
647.135	5687.55
647.328	5882.11
647.521	5730.56
647.714	5722.37
647.907	5726.46
648.099	5595.39
648.292	5703.93
648.485	5730.56
648.678	5591.3
648.871	5622.02
649.064	5662.97
649.256	5568.77
649.449	5497.09
649.642	5431.55
649.835	5386.5
650.027	5579.01
650.22	5374.21
650.413	5454.08
650.605	5374.21
650.798	5234.95
650.991	5255.43
651.183	5308.68
651.376	5249.29
651.568	5153.03
651.761	5189.89
651.954	5265.67
652.146	5083.4
652.339	5058.82
652.531	4919.56
652.724	4903.18
652.916	4919.56
653.109	4989.19
653.301	5050.63
653.494	4981
653.686	4892.94
653.879	4905.23
654.071	4868.36
654.263	4784.4
654.456	4811.02
654.648	4847.88
654.84	4768.01
655.033	4722.96
655.225	4739.34
655.417	4761.87
655.61	4696.33
655.802	4780.3
655.994	4552.98
656.186	4565.26
656.379	4704.53
656.571	4509.97
656.763	4428.05
656.955	4477.2
657.148	4507.92
657.34	4593.94
657.532	4380.95
657.724	4538.64
657.916	4331.8
658.108	4276.5
658.3	4307.22
658.492	4352.27
658.684	4225.3
658.876	4198.68
659.068	4151.57
659.26	4268.31
659.452	4256.02
659.644	4186.39
659.836	4108.57
660.028	4133.14
660.22	4174.1
660.412	4065.56
660.604	4120.85
660.796	4151.57
660.988	4163.86
661.18	3934.49
661.372	4092.18
661.563	4053.27
661.755	4022.55
661.947	3993.88
662.139	3887.39
662.331	4010.26
662.522	3774.75
662.714	3895.58
662.906	3971.35
663.097	3918.11
663.289	3897.63
663.481	3842.33
663.673	3725.6
663.864	3707.16
664.056	3784.99
664.247	3766.56
664.439	3764.51
664.631	3827.99
664.822	3684.64
665.014	3701.02
665.205	3604.77
665.397	3592.48
665.588	3549.47
665.78	3449.12
665.971	3641.63
666.163	3739.93
666.354	3447.07
666.546	3543.33
666.737	3488.03
666.929	3397.92
667.12	3463.46
667.311	3533.09
667.503	3510.56
667.694	3451.17
667.885	3522.85
668.077	3397.92
668.268	3316
668.459	3485.98
668.651	3449.12
668.842	3408.16
669.033	3338.53
669.224	3232.04
669.416	3477.79
669.607	3283.24
669.798	3287.33
669.989	3365.15
670.18	3322.15
670.371	3268.9
670.563	3176.74
670.754	3279.14
670.945	3244.32
671.136	3254.56
671.327	3146.02
671.518	3318.05
671.709	3033.38
671.9	3250.47
672.091	3229.99
672.282	3166.5
672.473	3193.12
672.664	3232.04
672.855	3121.45
673.046	3111.21
673.237	3117.35
673.428	3072.29
673.619	3105.06
673.809	3070.25
674	3035.43
674.191	3045.67
674.382	2969.9
674.573	2994.47
674.764	2949.42
674.954	3084.58
675.145	2883.88
675.336	2939.18
675.527	2992.42
675.717	3068.2
675.908	2953.51
676.099	2971.94
676.289	2978.09
676.48	3039.53
676.671	3060.01
676.861	2957.61
677.052	2961.7
677.243	3049.77
677.433	2883.88
677.624	2851.11
677.814	3027.24
678.005	2900.27
678.195	2890.03
678.386	2887.98
678.576	2666.8
678.767	2937.13
678.957	2806.06
679.148	2799.91
679.338	2832.68
679.529	2904.36
679.719	2879.79
679.909	2849.07
680.1	2705.71
680.29	2939.18
680.481	2822.44
680.671	2838.83
680.861	2789.67
681.052	2879.79
681.242	2787.63
681.432	2912.55
681.622	2814.25
681.813	2691.37
682.003	2822.44
682.193	2674.99
682.383	2836.78
682.573	2783.53
682.764	2890.03
682.954	2781.48
683.144	2758.96
683.334	2703.66
683.524	2740.52
683.714	2799.91
683.904	2791.72
684.094	2701.61
684.284	2687.28
684.474	2756.91
684.664	2693.42
684.854	2697.52
685.044	2808.11
685.234	2767.15
685.424	2597.17
685.614	2670.89
685.804	2713.9
685.994	2613.55
686.184	2638.13
686.374	2664.75
686.564	2625.84
686.753	2687.28
686.943	2609.45
687.133	2642.22
687.323	2627.89
687.513	2595.12
687.702	2515.25
687.892	2535.73
688.082	2595.12
688.272	2445.62
688.461	2636.08
688.651	2599.21
688.841	2537.77
689.03	2498.86
689.22	2466.1
689.41	2562.35
689.599	2388.27
689.789	2490.67
689.979	2472.24
690.168	2441.52
690.358	2486.58
690.547	2373.94
690.737	2462
690.926	2474.29
691.116	2425.14
691.305	2347.31
691.495	2519.34
691.684	2400.56
691.874	2431.28
692.063	2365.75
692.252	2459.95
692.442	2357.55
692.631	2388.27
692.82	2384.18
693.01	2292.02
693.199	2273.59
693.388	2183.48
693.578	2257.2
693.767	2257.2
693.956	2169.14
694.146	2275.63
694.335	2210.1
694.524	2206
694.713	2287.92
694.902	2199.86
695.092	2326.83
695.281	2210.1
695.47	2191.67
695.659	2175.28
695.848	2144.56
696.037	2277.68
696.226	2167.09
696.415	2109.75
696.604	2216.24
696.793	2173.24
696.982	2117.94
697.171	2148.66
697.36	2103.61
697.549	2115.89
697.738	2191.67
697.927	2097.46
698.116	2101.56
698.305	2134.32
698.494	2150.71
698.683	2154.8
698.872	2093.37
699.061	2210.1
699.25	2167.09
699.438	2093.37
699.627	2070.84
699.816	2115.89
700.005	2056.5
700.193	2163
700.382	2216.24
700.571	2189.62
700.76	1950.01
700.948	2056.5
701.137	2103.61
701.326	2185.52
701.514	1978.68
701.703	2126.13
701.892	2029.88
702.08	2054.45
702.269	2124.08
702.457	2093.37
702.646	2085.17
702.834	2013.49
703.023	2087.22
703.212	2081.08
703.4	2179.38
703.589	2142.52
703.777	1943.86
703.965	2036.02
704.154	2029.88
704.342	2060.6
704.531	2119.99
704.719	2015.54
704.907	2070.84
705.096	2072.89
705.284	1958.2
705.472	2115.89
705.661	2036.02
705.849	2056.5
706.037	2126.13
706.226	2048.31
706.414	2050.36
706.602	1972.54
706.79	2093.37
706.979	2046.26
707.167	2105.65
707.355	2109.75
707.543	2113.85
707.731	2064.69
707.919	2017.59
708.107	2003.25
708.296	2027.83
708.484	2009.4
708.672	1986.87
708.86	2150.71
709.048	1990.97
709.236	2056.5
709.424	1978.68
709.612	2023.73
709.8	2005.3
709.988	2019.64
710.176	1993.01
710.364	1958.2
710.551	2017.59
710.739	2046.26
710.927	2011.45
711.115	1931.58
711.303	2081.08
711.491	2111.8
711.679	2044.21
711.866	1958.2
712.054	2003.25
712.242	1933.62
712.43	2066.74
712.617	1968.44
712.805	1999.16
712.993	2003.25
713.181	1993.01
713.368	2062.65
713.556	2064.69
713.744	1999.16
713.931	2062.65
714.119	2036.02
714.306	2027.83
714.494	2009.4
714.682	1921.34
714.869	1945.91
715.057	2054.45
715.244	2105.65
715.432	1962.3
715.619	1982.78
715.807	1982.78
715.994	1950.01
716.182	1915.19
716.369	1984.82
716.556	1995.06
716.744	1978.68
716.931	1972.54
717.119	2109.75
717.306	2060.6
717.493	2040.12
717.681	1976.63
717.868	1999.16
718.055	1925.43
718.242	2068.79
718.43	1995.06
718.617	1929.53
718.804	1972.54
718.991	2036.02
719.179	1995.06
719.366	1988.92
719.553	1964.34
719.74	1997.11
719.927	2060.6
720.114	1980.73
720.301	1980.73
720.488	2060.6
720.676	2054.45
720.863	1978.68
721.05	2031.93
721.237	2027.83
721.424	2031.93
721.611	1966.39
721.798	2001.21
721.985	1995.06
722.172	1950.01
722.358	1972.54
722.545	2052.41
722.732	1954.1
722.919	1937.72
723.106	1855.8
723.293	1945.91
723.48	1896.76
723.667	1964.34
723.853	1966.39
724.04	1986.87
724.227	1995.06
724.414	2042.17
724.6	1974.58
724.787	1896.76
724.974	1986.87
725.161	1982.78
725.347	2027.83
725.534	1974.58
725.72	1888.57
725.907	1933.62
726.094	2046.26
726.28	1917.24
726.467	2068.79
726.653	1896.76
726.84	1886.52
727.027	2056.5
727.213	1966.39
727.4	1945.91
727.586	2013.49
727.773	1958.2
727.959	1956.15
728.145	1972.54
728.332	1954.1
728.518	1970.49
728.705	1937.72
728.891	2103.61
729.077	2044.21
729.264	1960.25
729.45	1919.29
729.636	1919.29
729.823	1974.58
730.009	1923.38
730.195	1872.18
730.382	1974.58
730.568	1913.14
730.754	1839.42
730.94	1896.76
731.126	1990.97
731.313	1980.73
731.499	1933.62
731.685	1941.82
731.871	2056.5
732.057	1945.91
732.243	1941.82
732.429	1900.86
732.615	1863.99
732.801	2015.54
732.987	1947.96
733.173	1884.47
733.359	1962.3
733.545	1950.01
733.731	1794.36
733.917	1898.81
734.103	1831.23
734.289	1868.09
734.475	1892.66
734.661	1970.49
734.847	1861.94
735.033	1917.24
735.219	1976.63
735.404	1962.3
735.59	1892.66
735.776	1970.49
735.962	1945.91
736.148	1939.77
736.333	1937.72
736.519	1915.19
736.705	2015.54
736.89	1915.19
737.076	1880.38
737.262	1798.46
737.447	1892.66
737.633	1788.22
737.819	1941.82
738.004	1945.91
738.19	1847.61
738.375	1833.27
738.561	1898.81
738.747	1923.38
738.932	1771.83
739.118	1831.23
739.303	1810.75
739.489	1794.36
739.674	1806.65
739.859	1782.07
740.045	1847.61
740.23	1831.23
740.416	1691.96
740.601	1827.13
740.786	1831.23
740.972	1765.69
741.157	1786.17
741.342	1802.55
741.528	1790.27
741.713	1773.88
741.898	1765.69
742.084	1782.07
742.269	1808.7
742.454	1753.4
742.639	1755.45
742.824	1677.63
743.01	1823.03
743.195	1816.89
743.38	1737.02
743.565	1798.46
743.75	1839.42
743.935	1653.05
744.12	1773.88
744.305	1714.49
744.49	1644.86
744.675	1583.42
744.86	1667.39
745.045	1730.87
745.23	1585.47
745.415	1601.85
745.6	1726.78
745.785	1571.13
745.97	1632.57
746.155	1651
746.34	1706.3
746.525	1659.2
746.71	1599.8
746.895	1610.04
747.079	1505.6
747.264	1632.57
747.449	1587.52
747.634	1487.17
747.819	1448.26
748.003	1474.88
748.188	1476.93
748.373	1579.33
748.557	1556.8
748.742	1407.3
748.927	1462.59
749.111	1372.48
749.296	1395.01
749.481	1440.06
749.665	1497.41
749.85	1491.26
750.034	1435.97
750.219	1462.59
750.404	1413.44
750.588	1472.83
750.773	1372.48
750.957	1478.97
751.141	1341.76
751.326	1319.23
751.51	1374.53
751.695	1364.29
751.879	1325.38
752.064	1315.14
752.248	1392.96
752.432	1298.75
752.617	1274.18
752.801	1388.86
752.985	1278.27
753.17	1354.05
753.354	1233.22
753.538	1315.14
753.722	1243.46
753.907	1249.6
754.091	1208.64
754.275	1218.88
754.459	1186.12
754.643	1167.68
754.828	1143.11
755.012	1233.22
755.196	1098.05
755.38	1210.69
755.564	1102.15
755.748	1069.38
755.932	1139.01
756.116	1210.69
756.3	1071.43
756.484	1132.87
756.668	1081.67
756.852	1026.37
757.036	1089.86
757.22	1102.15
757.404	1098.05
757.588	989.51
757.772	1046.85
757.956	999.75
758.14	991.56
758.323	1087.81
758.507	1022.28
758.691	921.93
758.875	1012.04
759.059	1071.43
759.242	993.61
759.426	1003.85
759.61	964.93
759.794	962.89
759.977	991.56
760.161	1018.18
760.345	995.65
760.528	973.13
760.712	938.31
760.895	905.54
761.079	962.89
761.263	872.78
761.446	921.93
761.63	958.79
761.813	950.6
761.997	782.67
762.18	805.19
762.364	880.97
762.547	762.19
762.731	876.87
762.914	889.16
763.098	899.4
763.281	844.1
763.464	799.05
763.648	821.58
763.831	848.2
764.015	786.76
764.198	897.35
764.381	897.35
764.564	897.35
764.748	833.86
764.931	848.2
765.114	835.91
765.297	819.53
765.481	794.95
765.664	799.05
765.847	700.75
766.03	708.94
766.213	690.51
766.397	782.67
766.58	710.99
766.763	799.05
766.946	776.52
767.129	751.95
767.312	721.23
767.495	764.23
767.678	831.82
767.861	758.09
768.044	766.28
768.227	790.86
768.41	659.79
768.593	694.6
768.776	831.82
768.959	708.94
769.142	710.99
769.324	799.05
769.507	745.8
769.69	694.6
769.873	708.94
770.056	749.9
770.239	713.03
770.421	782.67
770.604	731.47
770.787	727.37
770.97	700.75
771.152	620.88
771.335	610.64
771.518	741.71
771.7	713.03
771.883	751.95
772.066	590.16
772.248	643.4
772.431	680.27
772.613	645.45
772.796	545.1
772.978	686.41
773.161	629.07
773.343	717.13
773.526	694.6
773.708	670.03
773.891	665.93
774.073	586.06
774.256	651.6
774.438	674.12
774.621	622.92
774.803	620.88
774.985	541.01
775.168	610.64
775.35	602.44
775.532	557.39
775.715	569.68
775.897	606.54
776.079	545.1
776.261	512.33
776.444	555.34
776.626	500.05
776.808	541.01
776.99	573.77
777.173	579.92
777.355	487.76
777.537	573.77
777.719	571.72
777.901	493.9
778.083	573.77
778.265	516.43
778.447	598.35
778.629	524.62
778.811	504.14
778.993	461.13
779.175	504.14
779.357	498
779.539	522.57
779.721	467.28
779.903	463.18
780.085	487.76
780.267	487.76
780.449	545.1
780.631	454.99
780.812	481.61
780.994	502.09
781.176	475.47
781.358	414.03
781.54	426.32
781.721	526.67
781.903	381.26
782.085	377.17
782.267	414.03
782.448	473.42
782.63	440.65
782.812	422.22
782.993	409.94
783.175	424.27
783.357	375.12
783.538	420.17
783.72	358.74
783.901	407.89
784.083	391.5
784.264	430.41
784.446	438.61
784.627	364.88
784.809	368.98
784.99	309.58
785.172	287.06
785.353	487.76
785.535	305.49
785.716	377.17
785.897	319.82
786.079	375.12
786.26	303.44
786.441	375.12
786.623	295.25
786.804	305.49
786.985	299.34
787.167	342.35
787.348	303.44
787.529	364.88
787.71	348.5
787.891	381.26
788.073	334.16
788.254	229.71
788.435	340.3
788.616	352.59
788.797	334.16
788.978	342.35
789.159	250.19
789.34	282.96
789.522	297.3
789.703	268.63
789.884	385.36
790.065	201.04
790.246	350.54
790.427	303.44
790.607	325.97
790.788	278.87
790.969	262.48
791.15	235.86
791.331	276.82
791.512	219.47
791.693	227.67
791.874	217.43
792.054	346.45
792.235	250.19
792.416	223.57
792.597	229.71
792.778	237.91
792.958	233.81
793.139	244.05
793.32	309.58
793.5	194.9
793.681	323.92
793.862	239.95
794.042	227.67
794.223	229.71
794.404	233.81
794.584	246.1
794.765	160.08
794.945	227.67
795.126	229.71
795.306	225.62
795.487	260.43
795.667	242
795.848	254.29
796.028	233.81
796.209	233.81
796.389	203.09
796.57	242
796.75	215.38
796.93	246.1
797.111	186.71
797.291	160.08
797.471	160.08
797.652	160.08
797.832	248.15
798.012	233.81
798.192	135.51
798.373	147.8
798.553	254.29
798.733	231.76
798.913	192.85
799.093	244.05
799.274	190.8
799.454	268.63
799.634	244.05
799.814	272.72
799.994	158.03
800.174	170.32
800.354	246.1
800.534	141.65
800.714	287.06
800.894	131.41
801.074	178.51
801.254	190.8
801.434	258.39
801.614	258.39
801.794	139.6
801.974	770.38
802.154	174.42
802.334	209.23
802.514	121.17
802.693	110.93
802.873	168.27
803.053	137.56
803.233	227.67
803.413	174.42
803.592	162.13
803.772	151.89
803.952	104.79
804.131	96.6
804.311	219.47
804.491	184.66
804.67	182.61
804.85	121.17
805.03	166.23
805.209	184.66
805.389	180.56
805.568	94.55
805.748	106.84
805.928	160.08
806.107	239.95
806.287	237.91
806.466	178.51
806.646	137.56
806.825	184.66
807.004	102.74
807.184	135.51
807.363	135.51
807.543	112.98
807.722	194.9
807.901	184.66
808.081	229.71
808.26	82.26
808.439	147.8
808.619	117.08
808.798	176.47
808.977	127.32
809.156	182.61
809.336	168.27
809.515	149.84
809.694	123.22
809.873	180.56
810.052	170.32
810.231	168.27
810.411	201.04
810.59	151.89
810.769	65.88
810.948	115.03
811.127	80.21
811.306	88.4
811.485	102.74
811.664	219.47
811.843	86.36
812.022	147.8
812.201	98.64
812.38	112.98
812.559	176.47
812.737	110.93
812.916	78.16
813.095	147.8
813.274	127.32
813.453	78.16
813.632	108.88
813.811	164.18
813.989	86.36
814.168	65.88
814.347	153.94
814.526	86.36
814.704	127.32
814.883	184.66
815.062	96.6
815.24	94.55
815.419	78.16
815.598	137.56
815.776	69.97
815.955	123.22
816.133	139.6
816.312	112.98
816.49	108.88
816.669	121.17
816.847	108.88
817.026	117.08
817.204	110.93
817.383	69.97
817.561	96.6
817.74	145.75
817.918	88.4
818.097	65.88
818.275	55.64
818.453	135.51
818.632	135.51
818.81	168.27
818.988	6.49
819.167	51.54
819.345	86.36
819.523	78.16
819.701	137.56
819.879	96.6
820.058	84.31
820.236	84.31
820.414	12.63
820.592	102.74
820.77	137.56
820.948	135.51
821.127	86.36
821.305	102.74
821.483	162.13
821.661	176.47
821.839	22.87
822.017	104.79
822.195	110.93
822.373	84.31
822.551	65.88
822.729	69.97
822.907	37.2
823.085	127.32
823.262	78.16
823.44	74.07
823.618	72.02
823.796	47.44
823.974	57.68
824.152	57.68
824.329	63.83
824.507	110.93
824.685	96.6
824.863	86.36
825.04	67.92
825.218	98.64
825.396	41.3
825.574	67.92
825.751	65.88
825.929	102.74
826.107	-9.9
826.284	112.98
826.462	49.49
826.639	4.44
826.817	84.31
826.994	29.01
827.172	108.88
827.349	76.12
827.527	102.74
827.704	90.45
827.882	135.51
828.059	-24.23
828.237	90.45
828.414	135.51
828.591	65.88
828.769	94.55
828.946	47.44
829.124	51.54
829.301	100.69
829.478	53.59
829.655	37.2
829.833	90.45
830.01	49.49
830.187	145.75
830.364	55.64
830.542	96.6
830.719	88.4
830.896	88.4
831.073	12.63
831.25	90.45
831.427	67.92
831.604	98.64
831.782	63.83
831.959	63.83
832.136	-1.71
832.313	112.98
832.49	188.75
832.667	78.16
832.844	86.36
833.021	108.88
833.198	82.26
833.374	22.87
833.551	119.12
833.728	47.44
833.905	149.84
834.082	35.16
834.259	6.49
834.436	141.65
834.612	-52.91
834.789	22.87
834.966	29.01
835.143	63.83
835.319	45.4
835.496	-3.75
835.673	22.87
835.85	16.73
836.026	53.59
836.203	74.07
836.38	65.88
836.556	-3.75
836.733	72.02
836.909	59.73
837.086	12.63
837.262	20.82
837.439	12.63
837.616	67.92
837.792	102.74
837.968	12.63
838.145	-48.81
838.321	53.59
838.498	53.59
838.674	55.64
838.851	12.63
839.027	16.73
839.203	102.74
839.38	47.44
839.556	57.68
839.732	110.93
839.909	-26.28
840.085	90.45
840.261	8.53
840.437	-5.8
840.614	37.2
840.79	24.92
840.966	88.4
841.142	43.35
841.318	-36.52
841.494	61.78
841.671	69.97
841.847	53.59
842.023	4.44
842.199	14.68
842.375	94.55
842.551	53.59
842.727	-16.04
842.903	61.78
843.079	33.11
843.255	90.45
843.431	82.26
843.607	102.74
843.783	29.01
843.959	49.49
844.134	16.73
844.31	72.02
844.486	6.49
844.662	61.78
844.838	63.83
845.013	49.49
845.189	4.44
845.365	129.36
845.541	14.68
845.716	16.73
845.892	47.44
846.068	49.49
846.244	-44.71
846.419	57.68
846.595	4.44
846.77	47.44
846.946	57.68
847.122	20.82
847.297	33.11
847.473	37.2
847.648	-26.28
847.824	102.74
847.999	51.54
848.175	47.44
848.35	12.63
848.526	8.53
848.701	65.88
848.876	53.59
849.052	31.06
849.227	82.26
849.403	-34.47
849.578	65.88
849.753	-20.14
849.929	61.78
850.104	20.82
850.279	92.5
850.454	84.31
850.63	102.74
850.805	119.12
850.98	53.59
851.155	-63.15
851.33	69.97
851.505	-13.99
851.681	45.4
851.856	72.02
852.031	72.02
852.206	72.02
852.381	-24.23
852.556	33.11
852.731	29.01
852.906	67.92
853.081	10.58
853.256	72.02
853.431	22.87
853.606	-36.52
853.781	20.82
853.956	-30.38
854.131	53.59
854.305	6.49
854.48	-59.05
854.655	-9.9
854.83	102.74
855.005	6.49
855.18	29.01
855.354	4.44
855.529	26.96
855.704	10.58
855.879	-26.28
856.053	29.01
856.228	29.01
856.403	8.53
856.577	69.97
856.752	47.44
856.926	14.68
857.101	69.97
857.276	18.77
857.45	-7.85
857.625	49.49
857.799	80.21
857.974	4.44
858.148	-28.33
858.323	-42.67
858.497	4.44
858.672	53.59
858.846	-77.48
859.02	-20.14
859.195	-75.43
859.369	45.4
859.543	53.59
859.718	33.11
859.892	24.92
860.066	16.73
860.241	14.68
860.415	4.44
860.589	-52.91
860.763	-11.95
860.938	-16.04
861.112	33.11
861.286	45.4
861.46	12.63
861.634	4.44
861.808	29.01
861.982	4.44
862.157	61.78
862.331	47.44
862.505	-50.86
862.679	4.44
862.853	-16.04
863.027	20.82
863.201	20.82
863.375	-3.75
863.549	4.44
863.722	12.63
863.896	80.21
864.07	-65.19
864.244	24.92
864.418	63.83
864.592	35.16
864.766	39.25
864.939	14.68
865.113	22.87
865.287	119.12
865.461	-3.75
865.634	82.26
865.808	4.44
865.982	-42.67
866.156	-69.29
866.329	-13.99
866.503	-3.75
866.676	78.16
866.85	20.82
867.024	39.25
867.197	-26.28
867.371	20.82
867.544	4.44
867.718	-36.52
867.891	-61.1
868.065	61.78
868.238	43.35
868.412	106.84
868.585	16.73
868.759	-28.33
868.932	18.77
869.105	37.2
869.279	37.2
869.452	4.44
869.625	26.96
869.799	-28.33
869.972	31.06
870.145	6.49
870.319	-11.95
870.492	-61.1
870.665	20.82
870.838	26.96
871.011	-22.19
871.185	29.01
871.358	20.82
871.531	33.11
871.704	12.63
871.877	29.01
872.05	24.92
872.223	-46.76
872.396	-32.43
872.569	41.3
872.742	-3.75
872.915	-26.28
873.088	49.49
873.261	-18.09
873.434	57.68
873.607	-28.33
873.78	69.97
873.953	-26.28
874.126	20.82
874.299	20.82
874.471	-7.85
874.644	-3.75
874.817	37.2
874.99	72.02
875.163	10.58
875.335	53.59
875.508	-59.05
875.681	49.49
875.853	112.98
876.026	53.59
876.199	72.02
876.371	4.44
876.544	-9.9
876.717	31.06
876.889	12.63
877.062	24.92
877.234	-32.43
877.407	20.82
877.579	2.39
877.752	80.21
877.924	102.74
878.097	-40.62
878.269	-30.38
878.442	26.96
878.614	-54.95
878.786	-7.85
878.959	-32.43
879.131	10.58
879.303	-16.04
879.476	29.01
879.648	55.64
879.82	39.25
879.993	63.83
880.165	33.11
880.337	-65.19
880.509	0.34
880.681	-59.05
880.854	-61.1
881.026	-3.75
881.198	57.68
881.37	-44.71
881.542	22.87
881.714	-9.9
881.886	-9.9
882.058	-9.9
882.23	14.68
882.402	35.16
882.574	-18.09
882.746	43.35
882.918	26.96
883.09	10.58
883.262	12.63
883.434	-38.57
883.606	12.63
883.778	-18.09
883.95	72.02
884.122	-67.24
884.293	20.82
884.465	94.55
884.637	33.11
884.809	-3.75
884.98	0.34
885.152	55.64
885.324	49.49
885.496	45.4
885.667	29.01
885.839	-20.14
886.011	33.11
886.182	41.3
886.354	45.4
886.525	-7.85
886.697	65.88
886.869	14.68
887.04	53.59
887.212	61.78
887.383	47.44
887.555	-61.1
887.726	47.44
887.897	-13.99
888.069	72.02
888.24	63.83
888.412	-50.86
888.583	53.59
888.754	47.44
888.926	12.63
889.097	-11.95
889.268	31.06
889.44	-36.52
889.611	0.34
889.782	-11.95
889.953	0.34
890.125	78.16
890.296	-93.87
890.467	-44.71
890.638	31.06
890.809	10.58
890.98	0.34
891.151	-16.04
891.323	12.63
891.494	6.49
891.665	-61.1
891.836	-9.9
892.007	-24.23
892.178	110.93
892.349	-44.71
892.52	-28.33
892.691	4.44
892.862	76.12
893.032	-32.43
893.203	-48.81
893.374	12.63
893.545	-13.99
893.716	10.58
893.887	4.44
894.057	-16.04
894.228	-26.28
894.399	-50.86
894.57	14.68
894.74	0.34
894.911	24.92
895.082	35.16
895.253	-22.19
895.423	-13.99
895.594	55.64
895.764	14.68
895.935	-40.62
896.106	0.34
896.276	31.06
896.447	22.87
896.617	-13.99
896.788	-13.99
896.958	-69.29
897.129	12.63
897.299	6.49
897.47	65.88
897.64	-3.75
897.81	-32.43
897.981	-26.28
898.151	31.06
898.322	12.63
898.492	6.49
898.662	4.44
898.832	-69.29
899.003	35.16
899.173	-3.75
899.343	20.82
899.513	14.68
