Data from USB4F104151__204__14-20-38-943.txt Node

Date: Thu Mar 13 14:20:38 EDT 2025
User: louis
Spectrometer: USB4F10415
Trigger mode: 4
Integration Time (sec): 2.000000E-2
Scans to average: 1
Electric dark correction enabled: true
Nonlinearity correction enabled: false
Boxcar width: 0
XAxis mode: Wavelengths
Number of Pixels in Spectrum: 3648
>>>>>Begin Spectral Data<<<<<
178.204	-88.75
178.424	-88.75
178.644	-88.75
178.864	-137.9
179.084	-156.33
179.304	-58.03
179.524	48.47
179.744	66.9
179.964	-84.65
180.184	48.47
180.404	-0.68
180.624	11.61
180.844	13.65
181.064	30.04
181.283	3.41
181.503	-2.73
181.723	-76.46
181.943	-27.31
182.163	25.94
182.383	97.62
182.602	7.51
182.822	64.85
183.042	27.99
183.262	62.8
183.482	75.09
183.701	42.32
183.921	27.99
184.141	13.65
184.361	91.48
184.58	75.09
184.8	-60.07
185.02	40.28
185.239	79.19
185.459	52.56
185.679	52.56
185.898	13.65
186.118	71
186.338	38.23
186.557	54.61
186.777	7.51
186.997	1.37
187.216	13.65
187.436	40.28
187.655	62.8
187.875	32.08
188.095	17.75
188.314	48.47
188.534	13.65
188.753	17.75
188.973	89.43
189.192	19.8
189.412	-19.11
189.631	11.61
189.851	54.61
190.07	7.51
190.29	21.85
190.509	-15.02
190.729	83.28
190.948	103.76
191.168	62.8
191.387	32.08
191.607	36.18
191.826	34.13
192.045	-0.68
192.265	-15.02
192.484	-27.31
192.704	17.75
192.923	30.04
193.142	54.61
193.362	27.99
193.581	87.38
193.8	17.75
194.02	66.9
194.239	-47.79
194.458	-53.93
194.678	13.65
194.897	66.9
195.116	-45.74
195.335	56.66
195.555	64.85
195.774	9.56
195.993	118.1
196.212	5.46
196.432	-25.26
196.651	32.08
196.87	-39.59
197.089	105.81
197.308	-17.07
197.528	83.28
197.747	44.37
197.966	-39.59
198.185	42.32
198.404	64.85
198.623	56.66
198.842	73.04
199.062	48.47
199.281	30.04
199.5	17.75
199.719	-10.92
199.938	17.75
200.157	7.51
200.376	56.66
200.595	111.96
200.814	-12.97
201.033	-19.11
201.252	122.2
201.471	62.8
201.69	15.7
201.909	83.28
202.128	5.46
202.347	-33.45
202.566	15.7
202.785	30.04
203.004	-43.69
203.223	89.43
203.442	5.46
203.661	23.89
203.879	46.42
204.098	91.48
204.317	23.89
204.536	17.75
204.755	38.23
204.974	79.19
205.193	21.85
205.411	81.24
205.63	-25.26
205.849	48.47
206.068	5.46
206.287	36.18
206.505	48.47
206.724	-10.92
206.943	-60.07
207.162	5.46
207.381	42.32
207.599	-6.83
207.818	48.47
208.037	40.28
208.255	30.04
208.474	75.09
208.693	68.95
208.911	25.94
209.13	23.89
209.349	13.65
209.567	99.67
209.786	89.43
210.005	15.7
210.223	40.28
210.442	-27.31
210.661	38.23
210.879	52.56
211.098	68.95
211.316	99.67
211.535	54.61
211.753	23.89
211.972	62.8
212.191	-15.02
212.409	1.37
212.628	-17.07
212.846	13.65
213.065	77.14
213.283	89.43
213.502	-10.92
213.72	99.67
213.938	-23.21
214.157	7.51
214.375	17.75
214.594	30.04
214.812	21.85
215.031	71
215.249	21.85
215.467	56.66
215.686	32.08
215.904	62.8
216.122	46.42
216.341	7.51
216.559	81.24
216.778	30.04
216.996	21.85
217.214	5.46
217.432	40.28
217.651	-19.11
217.869	46.42
218.087	-2.73
218.306	21.85
218.524	1.37
218.742	-19.11
218.96	-29.35
219.179	-17.07
219.397	23.89
219.615	-29.35
219.833	38.23
220.051	21.85
220.27	58.71
220.488	54.61
220.706	77.14
220.924	23.89
221.142	21.85
221.36	25.94
221.578	32.08
221.796	-2.73
222.015	-27.31
222.233	-25.26
222.451	-8.87
222.669	3.41
222.887	38.23
223.105	7.51
223.323	25.94
223.541	15.7
223.759	42.32
223.977	3.41
224.195	9.56
224.413	17.75
224.631	44.37
224.849	21.85
225.067	50.52
225.285	-27.31
225.503	-35.5
225.721	21.85
225.939	50.52
226.157	7.51
226.375	17.75
226.592	30.04
226.81	13.65
227.028	64.85
227.246	42.32
227.464	38.23
227.682	13.65
227.9	77.14
228.117	68.95
228.335	7.51
228.553	87.38
228.771	56.66
228.989	30.04
229.206	30.04
229.424	-53.93
229.642	7.51
229.86	27.99
230.077	-10.92
230.295	81.24
230.513	7.51
230.731	-43.69
230.948	30.04
231.166	-27.31
231.384	83.28
231.601	44.37
231.819	64.85
232.037	1.37
232.254	5.46
232.472	46.42
232.689	50.52
232.907	9.56
233.125	23.89
233.342	32.08
233.56	5.46
233.777	3.41
233.995	103.76
234.213	27.99
234.43	15.7
234.648	66.9
234.865	11.61
235.083	73.04
235.3	-35.5
235.518	30.04
235.735	79.19
235.953	62.8
236.17	-2.73
236.388	42.32
236.605	19.8
236.822	62.8
237.04	23.89
237.257	44.37
237.475	15.7
237.692	5.46
237.909	-8.87
238.127	46.42
238.344	62.8
238.562	32.08
238.779	21.85
238.996	-43.69
239.214	40.28
239.431	-12.97
239.648	30.04
239.865	83.28
240.083	-23.21
240.3	27.99
240.517	50.52
240.735	85.33
240.952	3.41
241.169	-51.88
241.386	42.32
241.603	34.13
241.821	68.95
242.038	7.51
242.255	56.66
242.472	32.08
242.689	13.65
242.907	56.66
243.124	-51.88
243.341	97.62
243.558	-27.31
243.775	-0.68
243.992	-35.5
244.209	9.56
244.426	54.61
244.643	54.61
244.86	27.99
245.078	54.61
245.295	79.19
245.512	105.81
245.729	-25.26
245.946	36.18
246.163	56.66
246.38	36.18
246.597	13.65
246.814	40.28
247.031	-23.21
247.248	62.8
247.464	38.23
247.681	5.46
247.898	75.09
248.115	30.04
248.332	-8.87
248.549	62.8
248.766	71
248.983	34.13
249.2	64.85
249.417	13.65
249.633	75.09
249.85	1.37
250.067	97.62
250.284	-10.92
250.501	27.99
250.717	46.42
250.934	-35.5
251.151	42.32
251.368	15.7
251.585	-0.68
251.801	-27.31
252.018	27.99
252.235	25.94
252.451	-35.5
252.668	5.46
252.885	27.99
253.102	9.56
253.318	34.13
253.535	-47.79
253.752	56.66
253.968	-19.11
254.185	48.47
254.401	34.13
254.618	48.47
254.835	-37.55
255.051	62.8
255.268	3.41
255.484	99.67
255.701	-10.92
255.917	13.65
256.134	-15.02
256.351	50.52
256.567	62.8
256.784	32.08
257	-37.55
257.217	50.52
257.433	50.52
257.65	48.47
257.866	30.04
258.082	73.04
258.299	46.42
258.515	25.94
258.732	32.08
258.948	-10.92
259.165	23.89
259.381	17.75
259.597	71
259.814	-8.87
260.03	21.85
260.246	13.65
260.463	56.66
260.679	-6.83
260.895	23.89
261.112	50.52
261.328	-19.11
261.544	-23.21
261.761	120.15
261.977	21.85
262.193	79.19
262.409	5.46
262.626	36.18
262.842	34.13
263.058	38.23
263.274	46.42
263.49	5.46
263.707	5.46
263.923	5.46
264.139	34.13
264.355	23.89
264.571	27.99
264.787	71
265.004	79.19
265.22	73.04
265.436	30.04
265.652	58.71
265.868	1.37
266.084	5.46
266.3	-2.73
266.516	-27.31
266.732	13.65
266.948	48.47
267.164	-2.73
267.38	62.8
267.596	107.86
267.812	58.71
268.028	7.51
268.244	19.8
268.46	3.41
268.676	66.9
268.892	-8.87
269.108	-19.11
269.324	132.44
269.54	46.42
269.756	30.04
269.972	-27.31
270.188	9.56
270.403	-15.02
270.619	46.42
270.835	48.47
271.051	11.61
271.267	21.85
271.483	17.75
271.698	-4.78
271.914	79.19
272.13	-8.87
272.346	-0.68
272.562	46.42
272.777	30.04
272.993	46.42
273.209	27.99
273.425	30.04
273.64	1.37
273.856	-51.88
274.072	19.8
274.287	15.7
274.503	38.23
274.719	32.08
274.934	3.41
275.15	9.56
275.366	101.72
275.581	-10.92
275.797	7.51
276.012	-23.21
276.228	75.09
276.444	-2.73
276.659	21.85
276.875	13.65
277.09	75.09
277.306	-2.73
277.521	44.37
277.737	-0.68
277.952	42.32
278.168	30.04
278.383	50.52
278.599	7.51
278.814	50.52
279.03	81.24
279.245	40.28
279.461	-43.69
279.676	87.38
279.892	17.75
280.107	17.75
280.322	54.61
280.538	77.14
280.753	32.08
280.969	58.71
281.184	38.23
281.399	71
281.615	13.65
281.83	-21.16
282.045	13.65
282.26	97.62
282.476	23.89
282.691	95.57
282.906	-21.16
283.122	-82.6
283.337	-4.78
283.552	48.47
283.767	-17.07
283.983	48.47
284.198	7.51
284.413	68.95
284.628	27.99
284.843	40.28
285.058	46.42
285.274	-60.07
285.489	-8.87
285.704	48.47
285.919	-25.26
286.134	5.46
286.349	87.38
286.564	7.51
286.779	54.61
286.995	30.04
287.21	-53.93
287.425	91.48
287.64	101.72
287.855	1.37
288.07	17.75
288.285	91.48
288.5	21.85
288.715	97.62
288.93	91.48
289.145	1.37
289.36	21.85
289.575	-17.07
289.79	38.23
290.004	38.23
290.219	97.62
290.434	38.23
290.649	21.85
290.864	27.99
291.079	-15.02
291.294	21.85
291.509	50.52
291.724	-29.35
291.938	38.23
292.153	111.96
292.368	-2.73
292.583	-17.07
292.798	38.23
293.012	116.05
293.227	-17.07
293.442	71
293.657	5.46
293.871	146.77
294.086	54.61
294.301	48.47
294.516	9.56
294.73	25.94
294.945	-35.5
295.16	54.61
295.374	142.68
295.589	46.42
295.804	-17.07
296.018	68.95
296.233	30.04
296.447	9.56
296.662	-29.35
296.877	17.75
297.091	7.51
297.306	83.28
297.52	85.33
297.735	5.46
297.949	-8.87
298.164	25.94
298.378	7.51
298.593	38.23
298.807	-10.92
299.022	44.37
299.236	5.46
299.451	38.23
299.665	11.61
299.88	40.28
300.094	17.75
300.309	97.62
300.523	79.19
300.737	54.61
300.952	9.56
301.166	58.71
301.381	79.19
301.595	-10.92
301.809	3.41
302.024	15.7
302.238	50.52
302.452	13.65
302.667	62.8
302.881	30.04
303.095	48.47
303.309	-39.59
303.524	13.65
303.738	58.71
303.952	95.57
304.166	42.32
304.381	-76.46
304.595	27.99
304.809	32.08
305.023	68.95
305.237	13.65
305.452	-19.11
305.666	44.37
305.88	52.56
306.094	5.46
306.308	95.57
306.522	42.32
306.736	66.9
306.95	-55.98
307.164	11.61
307.379	40.28
307.593	15.7
307.807	15.7
308.021	48.47
308.235	21.85
308.449	64.85
308.663	52.56
308.877	107.86
309.091	62.8
309.305	81.24
309.519	-0.68
309.733	56.66
309.947	-21.16
310.161	91.48
310.374	68.95
310.588	81.24
310.802	46.42
311.016	48.47
311.23	34.13
311.444	62.8
311.658	-25.26
311.872	21.85
312.085	30.04
312.299	111.96
312.513	101.72
312.727	-19.11
312.941	9.56
313.154	21.85
313.368	32.08
313.582	79.19
313.796	19.8
314.009	5.46
314.223	50.52
314.437	46.42
314.651	75.09
314.864	73.04
315.078	-21.16
315.292	-107.18
315.505	13.65
315.719	5.46
315.933	62.8
316.146	71
316.36	-45.74
316.573	17.75
316.787	120.15
317.001	-2.73
317.214	21.85
317.428	15.7
317.641	71
317.855	9.56
318.068	91.48
318.282	-21.16
318.495	75.09
318.709	-43.69
318.922	34.13
319.136	81.24
319.349	101.72
319.563	56.66
319.776	62.8
319.99	38.23
320.203	32.08
320.417	21.85
320.63	-10.92
320.843	21.85
321.057	99.67
321.27	13.65
321.483	79.19
321.697	64.85
321.91	34.13
322.124	64.85
322.337	34.13
322.55	71
322.763	21.85
322.977	38.23
323.19	73.04
323.403	62.8
323.617	118.1
323.83	136.53
324.043	46.42
324.256	44.37
324.469	83.28
324.683	64.85
324.896	7.51
325.109	21.85
325.322	-2.73
325.535	95.57
325.748	46.42
325.962	38.23
326.175	42.32
326.388	101.72
326.601	19.8
326.814	54.61
327.027	36.18
327.24	111.96
327.453	-47.79
327.666	62.8
327.879	79.19
328.092	75.09
328.305	23.89
328.518	73.04
328.731	-19.11
328.944	38.23
329.157	7.51
329.37	1.37
329.583	17.75
329.796	89.43
330.009	7.51
330.222	85.33
330.435	58.71
330.648	52.56
330.861	46.42
331.073	42.32
331.286	42.32
331.499	3.41
331.712	60.76
331.925	56.66
332.138	23.89
332.35	46.42
332.563	46.42
332.776	87.38
332.989	-47.79
333.202	9.56
333.414	30.04
333.627	-41.64
333.84	46.42
334.053	-6.83
334.265	71
334.478	-2.73
334.691	40.28
334.903	103.76
335.116	50.52
335.329	-15.02
335.541	52.56
335.754	91.48
335.966	50.52
336.179	60.76
336.392	11.61
336.604	89.43
336.817	36.18
337.029	38.23
337.242	30.04
337.454	46.42
337.667	7.51
337.88	87.38
338.092	58.71
338.305	-17.07
338.517	1.37
338.729	34.13
338.942	15.7
339.154	-25.26
339.367	87.38
339.579	50.52
339.792	134.48
340.004	91.48
340.217	36.18
340.429	136.53
340.641	79.19
340.854	-25.26
341.066	75.09
341.278	32.08
341.491	87.38
341.703	5.46
341.915	-8.87
342.128	34.13
342.34	-19.11
342.552	-27.31
342.764	40.28
342.977	75.09
343.189	56.66
343.401	-6.83
343.613	-0.68
343.826	75.09
344.038	3.41
344.25	52.56
344.462	5.46
344.674	21.85
344.886	5.46
345.099	40.28
345.311	97.62
345.523	58.71
345.735	-64.17
345.947	23.89
346.159	54.61
346.371	38.23
346.583	107.86
346.795	128.34
347.007	103.76
347.219	56.66
347.431	30.04
347.643	73.04
347.855	5.46
348.067	89.43
348.279	56.66
348.491	5.46
348.703	54.61
348.915	83.28
349.127	58.71
349.339	21.85
349.551	23.89
349.763	87.38
349.975	62.8
350.187	36.18
350.399	68.95
350.61	48.47
350.822	89.43
351.034	128.34
351.246	-6.83
351.458	5.46
351.669	62.8
351.881	107.86
352.093	89.43
352.305	73.04
352.517	-33.45
352.728	111.96
352.94	36.18
353.152	111.96
353.363	58.71
353.575	30.04
353.787	75.09
353.999	116.05
354.21	73.04
354.422	62.8
354.633	52.56
354.845	54.61
355.057	-12.97
355.268	54.61
355.48	75.09
355.692	21.85
355.903	25.94
356.115	58.71
356.326	23.89
356.538	140.63
356.749	50.52
356.961	111.96
357.172	-23.21
357.384	-15.02
357.595	87.38
357.807	48.47
358.018	62.8
358.23	30.04
358.441	107.86
358.653	68.95
358.864	23.89
359.075	46.42
359.287	79.19
359.498	148.82
359.709	40.28
359.921	32.08
360.132	62.8
360.344	-8.87
360.555	71
360.766	71
360.977	66.9
361.189	87.38
361.4	95.57
361.611	109.91
361.823	38.23
362.034	87.38
362.245	40.28
362.456	3.41
362.667	34.13
362.879	93.52
363.09	-8.87
363.301	40.28
363.512	71
363.723	-51.88
363.935	89.43
364.146	40.28
364.357	48.47
364.568	83.28
364.779	44.37
364.99	-21.16
365.201	46.42
365.412	71
365.623	38.23
365.834	68.95
366.045	19.8
366.256	38.23
366.467	66.9
366.678	46.42
366.889	5.46
367.1	79.19
367.311	42.32
367.522	40.28
367.733	79.19
367.944	21.85
368.155	5.46
368.366	99.67
368.577	-10.92
368.788	89.43
368.999	-2.73
369.209	1.37
369.42	83.28
369.631	56.66
369.842	71
370.053	79.19
370.264	58.71
370.474	46.42
370.685	46.42
370.896	34.13
371.107	99.67
371.317	71
371.528	25.94
371.739	130.39
371.95	56.66
372.16	83.28
372.371	62.8
372.582	-10.92
372.792	50.52
373.003	5.46
373.214	-0.68
373.424	79.19
373.635	30.04
373.846	46.42
374.056	38.23
374.267	91.48
374.477	120.15
374.688	40.28
374.898	-2.73
375.109	48.47
375.319	30.04
375.53	89.43
375.74	30.04
375.951	62.8
376.161	52.56
376.372	46.42
376.582	42.32
376.793	79.19
377.003	124.24
377.214	46.42
377.424	13.65
377.635	50.52
377.845	48.47
378.055	79.19
378.266	50.52
378.476	77.14
378.686	87.38
378.897	71
379.107	-0.68
379.317	95.57
379.528	64.85
379.738	122.2
379.948	42.32
380.158	38.23
380.369	36.18
380.579	95.57
380.789	-35.5
380.999	91.48
381.21	114
381.42	40.28
381.63	7.51
381.84	120.15
382.05	87.38
382.261	138.58
382.471	50.52
382.681	13.65
382.891	152.92
383.101	138.58
383.311	89.43
383.521	52.56
383.731	120.15
383.941	40.28
384.151	75.09
384.361	54.61
384.571	122.2
384.781	62.8
384.991	154.96
385.201	58.71
385.411	64.85
385.621	87.38
385.831	46.42
386.041	52.56
386.251	71
386.461	87.38
386.671	116.05
386.881	48.47
387.091	79.19
387.301	71
387.511	56.66
387.72	62.8
387.93	62.8
388.14	66.9
388.35	48.47
388.56	87.38
388.769	95.57
388.979	109.91
389.189	87.38
389.399	62.8
389.609	30.04
389.818	118.1
390.028	66.9
390.238	128.34
390.447	89.43
390.657	79.19
390.867	58.71
391.076	81.24
391.286	122.2
391.496	116.05
391.705	23.89
391.915	71
392.125	105.81
392.334	7.51
392.544	111.96
392.753	95.57
392.963	71
393.172	81.24
393.382	54.61
393.591	165.2
393.801	85.33
394.01	177.49
394.22	79.19
394.429	73.04
394.639	71
394.848	89.43
395.058	99.67
395.267	138.58
395.477	79.19
395.686	71
395.895	163.15
396.105	97.62
396.314	105.81
396.524	62.8
396.733	107.86
396.942	87.38
397.152	62.8
397.361	185.68
397.57	54.61
397.78	122.2
397.989	140.63
398.198	161.11
398.407	148.82
398.617	75.09
398.826	150.87
399.035	105.81
399.244	111.96
399.453	101.72
399.663	81.24
399.872	62.8
400.081	111.96
400.29	140.63
400.499	107.86
400.708	97.62
400.917	146.77
401.127	161.11
401.336	124.24
401.545	136.53
401.754	177.49
401.963	197.97
402.172	109.91
402.381	62.8
402.59	124.24
402.799	87.38
403.008	107.86
403.217	142.68
403.426	161.11
403.635	179.54
403.844	253.27
404.053	120.15
404.262	116.05
404.471	234.83
404.68	150.87
404.888	283.99
405.097	154.96
405.306	216.4
405.515	259.41
405.724	116.05
405.933	230.74
406.142	226.64
406.35	224.59
406.559	171.35
406.768	271.7
406.977	333.14
407.185	261.46
407.394	200.02
407.603	283.99
407.812	296.27
408.02	275.79
408.229	310.61
408.438	302.42
408.646	318.8
408.855	318.8
409.064	351.57
409.272	261.46
409.481	398.67
409.69	275.79
409.898	431.44
410.107	431.44
410.315	484.69
410.524	482.64
410.733	423.25
410.941	466.25
411.15	572.75
411.358	472.4
411.567	503.12
411.775	533.84
411.984	462.16
412.192	597.32
412.401	597.32
412.609	615.76
412.818	601.42
413.026	691.53
413.234	669
413.443	630.09
413.651	783.69
413.86	793.93
414.068	746.83
414.276	920.9
414.485	865.61
414.693	820.55
414.901	970.05
415.11	888.14
415.318	787.79
415.526	1008.97
415.734	1078.6
415.943	976.2
416.151	1006.92
416.359	1099.08
416.567	1039.69
416.776	1094.98
416.984	1217.86
417.192	1316.16
417.4	1277.25
417.608	1350.98
417.817	1428.8
418.025	1400.13
418.233	1623.36
418.441	1496.38
418.649	1594.69
418.857	1660.22
419.065	1735.99
419.273	1709.37
419.481	1779
419.689	1924.41
419.897	1938.74
420.105	1989.94
420.313	1977.66
420.521	2145.59
420.729	2102.58
420.937	2186.55
421.145	2340.15
421.353	2366.77
421.561	2522.41
421.769	2590
421.977	2741.55
422.185	2686.25
422.393	2696.49
422.601	2960.68
422.809	2913.58
423.017	3142.95
423.224	3179.81
423.432	3134.76
423.64	3226.92
423.848	3378.47
424.056	3405.09
424.263	3693.85
424.471	3781.92
424.679	3683.61
424.887	4078.87
425.094	4193.56
425.302	4062.49
425.51	4308.24
425.718	4379.92
425.925	4496.66
426.133	4683.02
426.341	4846.86
426.548	5027.08
426.756	5143.81
426.964	5133.57
427.171	5516.55
427.379	5639.42
427.586	5717.25
427.794	5860.6
428.001	6132.98
428.209	6477.04
428.417	6212.85
428.624	6833.39
428.832	6653.17
429.039	6561.01
429.247	6821.1
429.454	7171.3
429.662	7898.33
429.869	7353.57
430.076	7947.48
430.284	7714.02
430.491	8058.07
430.699	8459.48
430.906	8482
431.114	8400.09
431.321	8748.24
431.528	8826.06
431.736	9600.19
431.943	9972.93
432.15	9792.7
432.358	9598.15
432.565	10241.21
432.772	10310.84
432.979	10859.7
433.187	10982.57
433.394	10974.38
433.601	12016.8
433.808	11908.26
434.016	11674.79
434.223	12055.71
434.43	13083.79
434.637	12819.6
434.844	13649.03
435.052	13841.54
435.259	13847.68
435.466	13728.9
435.673	13567.11
435.88	14652.53
436.087	15170.67
436.294	15291.5
436.501	15015.02
436.708	15320.17
436.915	16028.77
437.122	16643.16
437.329	16491.61
437.537	16905.3
437.743	17333.32
437.95	17241.17
438.157	18050.11
438.364	18570.3
438.571	18426.94
438.778	18793.53
438.985	20550.68
439.192	19577.9
439.399	20208.67
439.606	19737.64
439.813	20732.95
440.02	22166.53
440.227	21566.48
440.433	21562.38
440.64	22281.22
440.847	22316.03
441.054	22694.91
441.261	24110.05
441.467	23921.64
441.674	24302.56
441.881	25107.41
442.088	24812.51
442.294	24765.4
442.501	25514.96
442.708	25881.55
442.914	26524.61
443.121	27818.92
443.328	27241.4
443.534	29178.78
443.741	28509.09
443.948	27765.68
444.154	30149.51
444.361	30006.16
444.568	29977.48
444.774	29965.2
444.981	30251.91
445.187	31073.15
445.394	32582.5
445.6	32217.96
445.807	35068.73
446.013	33278.81
446.22	34173.77
446.426	35353.4
446.633	36141.87
446.839	36952.87
447.046	35437.37
447.252	37438.23
447.459	37266.2
447.665	37538.58
447.871	38740.74
448.078	40358.64
448.284	38621.96
448.491	39576.31
448.697	41212.64
448.903	41738.97
449.11	42158.8
449.316	41304.8
449.522	42060.5
449.728	43104.96
449.935	43307.71
450.141	43481.79
450.347	44284.59
450.553	43027.14
450.76	43201.22
450.966	44681.9
451.172	44534.45
451.378	45281.95
451.584	44542.64
451.791	45712.03
451.997	45435.55
452.203	45972.12
452.409	46107.29
452.615	46232.21
452.821	44341.94
453.027	44049.08
453.233	46197.4
453.44	44026.55
453.646	45050.53
453.852	45507.23
454.058	45949.59
454.264	44456.62
454.47	45398.69
454.676	43909.82
454.882	45683.36
455.088	41677.53
455.294	42891.97
455.5	43141.83
455.705	43184.83
455.911	42134.23
456.117	41546.46
456.323	40407.79
456.529	38441.74
456.735	40159.98
456.941	39203.58
457.147	38515.47
457.352	37516.06
457.558	36760.36
457.764	37063.46
457.97	36356.91
458.176	35586.87
458.381	35824.43
458.587	33807.19
458.793	33954.64
458.999	32256.87
459.204	34562.89
459.41	33512.28
459.616	31058.81
459.821	31474.55
460.027	31060.86
460.233	30706.56
460.438	29207.45
460.644	29361.05
460.85	27952.04
461.055	27567.02
461.261	27407.28
461.466	25347.03
461.672	24685.53
461.878	26549.18
462.083	24929.24
462.289	24245.22
462.494	24308.71
462.7	22940.66
462.905	22207.49
463.111	23309.3
463.316	23479.28
463.522	22895.61
463.727	22825.98
463.932	22907.9
464.138	22430.72
464.343	22653.95
464.549	21845
464.754	22625.28
464.959	22557.69
465.165	22313.98
465.37	21586.96
465.575	20743.19
465.781	21560.33
465.986	21668.87
466.191	21072.92
466.397	20470.81
466.602	19371.05
466.807	20505.63
467.012	20151.33
467.218	20386.85
467.423	19688.49
467.628	20059.17
467.833	21083.16
468.038	20171.81
468.244	19428.4
468.449	20493.34
468.654	19735.59
468.859	19276.85
469.064	19225.65
469.269	18873.4
469.474	18764.85
469.679	19280.94
469.885	18496.57
470.09	18854.97
470.295	18748.47
470.5	17994.82
470.705	18334.78
470.91	17945.67
471.115	17617.99
471.32	17947.72
471.525	17790.02
471.73	17564.75
471.935	17308.75
472.139	16827.48
472.344	17177.68
472.549	17038.42
472.754	16481.37
472.959	16475.23
473.164	16000.1
473.369	16141.41
473.574	16634.97
473.778	16120.93
473.983	16024.67
474.188	16221.28
474.393	15463.53
474.598	15344.75
474.802	15426.67
475.007	15230.06
475.212	15219.82
475.417	14871.67
475.621	14730.36
475.826	14822.52
476.031	14267.52
476.235	14167.17
476.44	14283.9
476.645	13939.84
476.849	14070.91
477.054	13958.27
477.259	13679.75
477.463	13765.76
477.668	13229.2
477.872	13454.47
478.077	13188.24
478.282	12889.23
478.486	12891.28
478.691	12604.57
478.895	12432.54
479.1	12465.3
479.304	12543.13
479.509	12217.5
479.713	12598.42
479.918	12250.27
480.122	12194.97
480.326	12272.79
480.531	12414.1
480.735	12057.76
480.94	11871.39
481.144	12244.12
481.348	11842.72
481.553	11916.45
481.757	11508.9
481.961	11842.72
482.166	11926.69
482.37	11932.83
482.574	11517.09
482.778	11799.71
482.983	11830.43
483.187	11721.89
483.391	11609.25
483.595	11773.09
483.8	11601.06
484.004	11631.78
484.208	11715.75
484.412	11869.34
484.616	11930.78
484.821	11664.55
485.025	11586.72
485.229	11777.19
485.433	11699.36
485.637	11629.73
485.841	11703.46
486.045	11472.04
486.249	11601.06
486.453	11349.16
486.657	11801.76
486.861	11764.9
487.065	11369.64
487.269	11709.6
487.473	11420.84
487.677	11728.03
487.881	11938.98
488.085	11629.73
488.289	11719.84
488.493	11629.73
488.697	11601.06
488.901	11664.55
489.105	11775.14
489.309	11752.61
489.512	11744.42
489.716	11797.67
489.92	11781.28
490.124	11654.31
490.328	12121.24
490.531	11842.72
490.735	11764.9
490.939	11846.82
491.143	11723.94
491.346	11945.12
491.55	12022.94
491.754	12254.36
491.958	11963.55
492.161	11963.55
492.365	12201.12
492.569	12121.24
492.772	12338.33
492.976	12321.95
493.18	12375.19
493.383	12674.2
493.587	12506.26
493.79	12727.44
493.994	12532.89
494.197	12805.27
494.401	12801.17
494.605	13005.97
494.808	13169.8
495.012	12852.37
495.215	13104.27
495.419	13325.45
495.622	13270.15
495.825	13456.52
496.029	13575.3
496.232	13642.89
496.436	13558.92
496.639	14136.45
496.843	13802.63
497.046	14115.97
497.249	14236.8
497.453	14363.77
497.656	14374.01
497.859	14728.31
498.063	14810.23
498.266	15193.2
498.469	14947.44
498.673	14857.33
498.876	15410.28
499.079	15699.05
499.282	15471.72
499.485	15918.18
499.689	15770.72
499.892	16116.83
500.095	16192.61
500.298	16620.63
500.501	16448.6
500.705	16735.32
500.908	17159.25
501.111	17032.27
501.314	17247.31
501.517	17683.53
501.72	17857.6
501.923	17577.03
502.126	18189.38
502.329	18510.91
502.532	18383.93
502.735	18412.6
502.938	18766.9
503.141	19010.61
503.344	19067.95
503.547	19280.94
503.75	19426.35
503.953	19944.49
504.156	19948.58
504.359	20290.59
504.562	20249.63
504.765	20636.7
504.968	20999.19
505.17	20943.89
505.373	21115.92
505.576	21404.69
505.779	21640.2
505.982	21750.79
506.185	22010.89
506.387	22207.49
506.59	22885.37
506.793	23118.84
506.996	23028.73
507.198	23301.11
507.401	23262.19
507.604	23790.57
507.807	24007.65
508.009	24124.39
508.212	24335.33
508.415	24560.61
508.617	25199.57
508.82	25123.8
509.022	24865.75
509.225	25744.33
509.428	25899.98
509.63	25985.99
509.833	26088.39
510.035	26999.74
510.238	26807.23
510.44	26903.48
510.643	27362.23
510.845	27382.71
511.048	27780.01
511.25	27839.4
511.453	28021.67
511.655	28918.68
511.858	28648.35
512.06	29025.18
512.262	29209.5
512.465	29217.69
512.667	29479.83
512.87	30145.42
513.072	30088.07
513.274	30606.21
513.477	30858.11
513.679	30954.36
513.881	31495.03
514.084	31976.3
514.286	31986.54
514.488	32269.16
514.69	32832.35
514.893	32492.39
515.095	33137.5
515.297	33035.1
515.499	33612.63
515.701	33792.85
515.904	34335.56
516.106	34491.21
516.308	34538.31
516.51	34904.9
516.712	35128.13
516.914	35515.19
517.116	35793.72
517.318	36072.24
517.52	35820.34
517.722	36410.15
517.925	36977.44
518.127	36948.77
518.329	37444.38
518.531	36922.15
518.733	37993.23
518.935	38150.93
519.136	38343.44
519.338	38703.88
519.54	38908.68
519.742	39322.37
519.944	39645.94
520.146	39936.76
520.348	39924.47
520.55	40409.84
520.752	40452.84
520.954	41317.09
521.155	40874.73
521.357	41288.42
521.559	41642.71
521.761	42572.49
521.963	42156.75
522.164	42490.57
522.366	42658.51
522.568	43145.92
522.77	43260.61
522.971	43885.24
523.173	43436.73
523.375	43610.81
523.576	44032.69
523.778	43821.75
523.98	44729
524.181	44446.38
524.383	44731.05
524.584	45619.87
524.786	45449.89
524.988	45249.19
525.189	45558.43
525.391	45576.86
525.592	45990.55
525.794	46138.01
525.995	46181.01
526.197	46437.01
526.398	46365.33
526.6	47112.84
526.801	46713.48
527.003	47260.29
527.204	47059.59
527.406	47708.8
527.607	47417.99
527.808	47637.12
528.01	47194.76
528.211	47557.25
528.412	48173.69
528.614	47798.91
528.815	48056.95
529.016	48622.19
529.218	48056.95
529.419	48278.13
529.62	48628.34
529.822	48341.62
530.023	48233.08
530.224	48376.44
530.425	48263.8
530.626	48505.46
530.828	47944.31
531.029	49549.92
531.23	48251.51
531.431	48831.08
531.632	48861.8
531.833	48751.21
532.035	48732.78
532.236	49121.9
532.437	49050.22
532.638	48425.59
532.839	49451.62
533.04	49250.92
533.241	48734.83
533.442	49609.31
533.643	48761.45
533.844	49269.35
534.045	49384.04
534.246	48636.53
534.447	49298.02
534.648	48925.29
534.849	49531.49
535.05	49121.9
535.251	49146.47
535.451	48857.71
535.652	48917.1
535.853	48925.29
536.054	49089.13
536.255	49291.88
536.456	48609.9
536.657	49613.41
536.857	49177.19
537.058	48931.43
537.259	49414.76
537.46	49252.97
537.66	49031.79
537.861	48941.67
538.062	48976.49
538.263	48958.06
538.463	49068.65
538.664	48892.52
538.865	49416.8
539.065	49556.07
539.266	48880.24
539.466	49576.54
539.667	48863.85
539.868	49408.61
540.068	48880.24
540.269	48898.67
540.469	49525.35
540.67	48917.1
540.87	49252.97
541.071	48841.32
541.271	48945.77
541.472	48990.83
541.672	48478.83
541.873	48968.3
542.073	47839.87
542.274	49588.83
542.474	48720.49
542.675	48347.76
542.875	49076.84
543.075	48822.89
543.276	48433.78
543.476	48777.84
543.676	48380.53
543.877	48849.52
544.077	49013.35
544.277	48607.86
544.478	48437.87
544.678	48351.86
544.878	48552.56
545.078	49054.31
545.279	48159.35
545.479	47729.28
545.679	48796.27
545.879	48646.77
546.079	48632.43
546.28	48265.84
546.48	48407.15
546.68	48376.44
546.88	48454.26
547.08	48335.48
547.28	48722.54
547.48	47856.25
547.68	48548.46
547.88	48183.93
548.081	48392.82
548.281	48388.72
548.481	47981.18
548.681	47831.68
548.881	48614
549.081	47819.39
549.28	47737.47
549.48	47956.6
549.68	48040.57
549.88	48523.89
550.08	47860.35
550.28	48411.25
550.48	47917.69
550.68	48392.82
550.88	47950.46
551.08	48149.11
551.279	48294.52
551.479	47811.2
551.679	47884.92
551.879	47950.46
552.079	48183.93
552.278	47729.28
552.478	48001.66
552.678	47934.07
552.878	48292.47
553.077	47993.46
553.277	47739.52
553.477	48347.76
553.676	47860.35
553.876	47882.87
554.076	47764.09
554.275	47325.83
554.475	47442.56
554.674	47684.22
554.874	47620.73
555.074	47557.25
555.273	47727.23
555.473	47934.07
555.672	47475.33
555.872	47770.24
556.071	47399.55
556.271	47735.42
556.47	47254.15
556.67	47262.34
556.869	46987.91
557.068	47569.54
557.268	46969.48
557.467	47293.06
557.667	47661.69
557.866	47159.94
558.065	47422.08
558.265	47063.69
558.464	46762.64
558.663	47526.53
558.863	46695.05
559.062	47442.56
559.261	46457.49
559.461	46893.71
559.66	46557.84
559.859	46807.69
560.058	46652.05
560.258	47028.87
560.457	45918.87
560.656	46867.08
560.855	46248.6
561.054	46686.86
561.253	46105.24
561.453	46389.91
561.652	46457.49
561.851	46836.36
562.05	45922.97
562.249	46140.05
562.448	46840.46
562.647	45992.6
562.846	46310.03
563.045	45828.76
563.244	45742.75
563.443	45982.36
563.642	45425.31
563.841	45675.16
564.04	45656.73
564.239	46015.13
564.438	45247.14
564.637	45873.82
564.836	45525.66
565.035	45046.44
565.234	45439.65
565.432	45064.87
565.631	44876.46
565.83	45146.79
566.029	44878.5
566.228	44964.52
566.427	44905.13
566.625	44292.79
566.824	44204.72
567.023	44980.9
567.222	44174
567.42	44868.26
567.619	44102.32
567.818	44389.04
568.016	44147.38
568.215	44739.24
568.414	44196.53
568.612	44669.61
568.811	44268.21
569.01	44403.38
569.208	43236.03
569.407	44278.45
569.605	43477.69
569.804	43801.27
570.002	43502.27
570.201	43643.58
570.4	43080.39
570.598	43193.03
570.797	43254.47
570.995	43326.14
571.193	43068.1
571.392	43262.66
571.59	43145.92
571.789	42623.69
571.987	42765
572.186	42672.84
572.384	42425.04
572.582	42822.34
572.781	42822.34
572.979	42134.23
573.177	42310.35
573.376	42664.65
573.574	41872.09
573.772	42541.77
573.971	41859.8
574.169	41763.54
574.367	41405.15
574.565	41954.01
574.763	41771.74
574.962	41700.06
575.16	41442.01
575.358	41231.07
575.556	40606.44
575.754	41642.71
575.952	41069.28
576.151	41259.74
576.349	40704.74
576.547	40919.78
576.745	40809.19
576.943	40989.41
577.141	40784.61
577.339	40762.09
577.537	40102.64
577.735	40518.38
577.933	39914.23
578.131	40684.26
578.329	39901.94
578.527	40033.01
578.725	39742.2
578.923	40215.28
579.121	39813.88
579.319	40008.43
579.516	39955.19
579.714	39516.92
579.912	39717.62
580.11	39006.98
580.308	39555.83
580.506	39009.03
580.704	38619.91
580.901	39140.1
581.099	39379.71
581.297	38888.2
581.495	38505.23
581.692	38869.76
581.89	38216.46
582.088	38759.17
582.285	38513.42
582.483	38726.41
582.681	38593.29
582.878	38189.84
583.076	37784.34
583.274	38269.71
583.471	37608.22
583.669	38064.91
583.866	37507.86
584.064	38040.34
584.262	37557.02
584.459	37575.45
584.657	37290.78
584.854	37481.24
585.052	36952.87
585.249	37202.72
585.447	37002.02
585.644	36885.28
585.841	37002.02
586.039	37229.34
586.236	36477.74
586.434	36379.43
586.631	36772.64
586.828	36539.18
587.026	36223.79
587.223	36440.87
587.42	36035.38
587.618	36225.84
587.815	36029.23
588.012	35937.07
588.21	35701.56
588.407	36055.86
588.604	35558.2
588.801	35760.95
588.999	35302.2
589.196	35500.86
589.393	35255.1
589.59	35312.44
589.787	35085.12
589.984	34927.42
590.182	34476.87
590.379	35130.17
590.576	34605.89
590.773	34730.82
590.97	34421.58
591.167	34599.75
591.364	34446.15
591.561	34556.74
591.758	34274.12
591.955	33999.69
592.152	34231.11
592.349	33698.64
592.546	34065.23
592.743	33532.76
592.94	33520.47
593.137	33870.67
593.334	34138.96
593.531	33270.62
593.727	33250.14
593.924	33356.63
594.121	33168.22
594.318	33196.89
594.515	32877.41
594.712	33291.1
594.908	32633.7
595.105	33377.11
595.302	32424.81
595.499	32852.83
595.696	32394.09
595.892	32033.64
596.089	32633.7
596.286	32559.97
596.482	31925.1
596.679	31925.1
596.876	32107.37
597.072	31814.51
597.269	32033.64
597.466	31710.07
597.662	31419.25
597.859	31798.13
598.055	31517.56
598.252	31550.32
598.448	31241.08
598.645	31077.24
598.841	31259.51
599.038	30864.25
599.234	31073.15
599.431	30714.75
599.627	30643.07
599.824	30634.88
600.02	30313.35
600.217	30532.48
600.413	30606.21
600.609	30030.73
600.806	29961.1
601.002	30141.32
601.198	30178.18
601.395	29877.13
601.591	30016.4
601.787	30016.4
601.984	29535.12
602.18	30032.78
602.376	29647.76
602.572	29399.96
602.769	29244.31
602.965	29121.43
603.161	29473.68
603.357	29012.89
603.553	28865.44
603.75	29229.98
603.946	28494.75
604.142	29176.73
604.338	28482.47
604.534	28437.41
604.73	28668.83
604.926	28658.59
605.122	28957.6
605.318	28476.32
605.514	28220.33
605.71	28300.2
605.906	28367.78
606.102	27816.88
606.298	28144.55
606.494	28341.16
606.69	28031.91
606.886	28027.82
607.082	27737.01
607.278	27843.5
607.474	27229.11
607.67	27849.64
607.866	27325.36
608.062	27501.49
608.257	27343.8
608.453	27325.36
608.649	27411.38
608.845	27231.16
609.041	27255.73
609.236	27368.37
609.432	27016.12
609.628	27118.52
609.824	27147.19
610.019	26776.51
610.215	27042.74
610.411	27167.67
610.606	26524.61
610.802	26987.45
610.998	26840
611.193	26561.47
611.389	26518.46
611.584	26383.3
611.78	26381.25
611.976	26508.22
612.171	26448.83
612.367	26442.69
612.562	26145.73
612.758	26002.38
612.953	25766.86
613.149	26381.25
613.344	25756.62
613.539	26160.07
613.735	26061.77
613.93	26174.41
614.126	25584.59
614.321	26008.52
614.517	26055.62
614.712	25942.99
614.907	25580.49
615.103	25936.84
615.298	25594.83
615.493	25603.02
615.688	25289.68
615.884	25676.75
616.079	25088.98
616.274	25465.81
616.47	25181.14
616.665	25654.22
616.86	25326.55
617.055	24959.96
617.25	24943.58
617.445	25191.38
617.641	24472.54
617.836	24994.78
618.031	24726.49
618.226	24761.31
618.421	24636.38
618.616	24595.42
618.811	24394.72
619.006	24863.71
619.201	24189.92
619.396	24544.22
619.591	24038.37
619.786	24116.2
619.981	23886.82
620.176	24280.03
620.371	23725.04
620.566	24026.09
620.761	23780.33
620.956	23841.77
621.151	23055.35
621.346	23567.34
621.541	22987.77
621.735	23182.32
621.93	22891.51
622.125	22967.29
622.32	22631.42
622.515	22799.35
622.709	22529.02
622.904	22524.93
623.099	22338.56
623.294	22492.16
623.488	22238.21
623.683	22023.17
623.878	21793.8
624.072	21728.27
624.267	21943.3
624.462	21679.11
624.656	21462.03
624.851	21595.15
625.046	21337.1
625.24	21242.9
625.435	21191.7
625.629	20980.76
625.824	20732.95
626.018	20653.08
626.213	20440.09
626.407	20507.68
626.602	20089.89
626.796	20487.2
626.991	20233.25
627.185	19950.63
627.38	19958.82
627.574	19909.67
627.768	19772.46
627.963	19809.32
628.157	19649.58
628.352	19469.36
628.546	18998.32
628.74	19385.39
628.935	18910.26
629.129	19291.18
629.323	19051.57
629.517	19078.19
629.712	18621.5
629.906	18715.7
630.1	18400.32
630.294	18641.98
630.489	18568.25
630.683	18418.75
630.877	18000.96
631.071	18185.28
631.265	18371.65
631.459	17908.8
631.653	17818.69
631.848	17843.27
632.042	17689.67
632.236	17755.21
632.43	17540.17
632.624	17638.47
632.818	17218.64
633.012	17038.42
633.206	16954.45
633.4	17103.95
633.594	16897.11
633.788	16964.69
633.982	16770.13
634.176	16800.85
634.369	16675.93
634.563	16653.4
634.757	16544.86
634.951	16522.33
635.145	16520.28
635.339	16323.68
635.533	16071.78
635.726	15973.47
635.92	15819.88
636.114	15971.43
636.308	16020.58
636.501	15660.13
636.695	15692.9
636.889	15668.33
637.083	15653.99
637.276	15234.16
637.47	15441
637.664	15285.36
637.857	15135.85
638.051	15236.2
638.244	14894.19
638.438	15103.09
638.632	14898.29
638.825	14681.21
639.019	14763.12
639.212	14582.9
639.406	14468.22
639.599	14703.73
639.793	14525.56
639.986	14177.41
640.18	14380.15
640.373	14105.73
640.567	14349.43
640.76	14113.92
640.954	13821.06
641.147	13689.99
641.34	14103.68
641.534	14089.34
641.727	13878.4
641.92	13685.89
642.114	13704.32
642.307	13440.14
642.5	13501.58
642.694	12954.77
642.887	13194.38
643.08	13655.17
643.273	13241.48
643.467	13341.83
643.66	12694.68
643.853	12799.12
644.046	12733.59
644.239	13044.88
644.432	12911.76
644.626	12676.24
644.819	12713.11
645.012	12752.02
645.205	12469.4
645.398	12571.8
645.591	12047.52
645.784	12260.51
645.977	12137.63
646.17	12092.57
646.363	12031.13
646.556	11957.41
646.749	11902.11
646.942	11865.25
647.135	11824.29
647.328	11703.46
647.521	11885.73
647.714	11603.11
647.907	11484.33
648.099	11451.56
648.292	11410.6
648.485	11580.58
648.678	11213.99
648.871	11416.74
649.064	11207.85
649.256	11469.99
649.449	11111.6
649.642	11189.42
649.835	11199.66
650.027	11066.54
650.22	10859.7
650.413	10974.38
650.605	10615.99
650.798	10861.74
650.991	10704.05
651.183	10620.08
651.376	10566.84
651.568	10509.49
651.761	10548.4
651.954	10443.96
652.146	10534.07
652.339	10357.94
652.531	10249.4
652.724	10263.74
652.916	10151.1
653.109	9970.88
653.301	10165.43
653.494	10134.71
653.686	9839.81
653.879	9819.33
654.071	9755.84
654.263	9630.91
654.456	9688.26
654.648	9936.06
654.84	9610.43
655.033	9579.72
655.225	9821.38
655.417	9571.52
655.61	9405.64
655.802	9555.14
655.994	9180.36
656.186	9485.51
656.379	9190.6
656.571	9299.14
656.763	8920.27
656.955	9245.9
657.148	9108.68
657.34	8996.04
657.532	9133.26
657.724	8772.82
657.916	9014.48
658.108	8811.73
658.3	8733.9
658.492	8799.44
658.684	8643.79
658.876	8643.79
659.068	8619.22
659.26	8549.59
659.452	8738
659.644	8512.72
659.836	8639.7
660.028	8344.79
660.22	8361.17
660.412	8477.91
660.604	8172.76
660.796	8187.1
660.988	8238.3
661.18	8281.3
661.372	8142.04
661.563	8090.84
661.755	7986.4
661.947	8082.65
662.139	7873.76
662.331	7998.68
662.522	7781.6
662.714	7941.34
662.906	7861.47
663.097	7759.07
663.289	7716.06
663.481	7646.43
663.673	7599.33
663.864	7617.76
664.056	7501.03
664.247	7541.99
664.439	7492.84
664.631	7437.54
664.822	7304.42
665.014	7247.08
665.205	7249.13
665.397	7353.57
665.588	7359.72
665.78	7292.13
665.971	7238.89
666.163	7261.41
666.354	7105.77
666.546	7083.24
666.737	6927.6
666.929	7152.87
667.12	7136.49
667.311	6929.64
667.503	6913.26
667.694	6921.45
667.885	6798.57
668.077	6968.56
668.268	6774
668.459	6692.08
668.651	6669.55
668.842	6745.33
669.033	6665.46
669.224	6620.4
669.416	6644.98
669.607	6845.68
669.798	6653.17
669.989	6518
670.18	6497.52
670.371	6550.77
670.563	6460.66
670.754	6309.11
670.945	6149.37
671.136	6444.28
671.327	6405.36
671.518	6284.53
671.709	6202.61
671.9	6354.16
672.091	6216.95
672.282	6212.85
672.473	6073.59
672.664	6329.59
672.855	6026.49
673.046	5983.48
673.237	6233.33
673.428	6202.61
673.619	5868.8
673.809	6010.11
674	5829.88
674.191	6030.59
674.382	5870.84
674.573	5909.76
674.764	5879.04
674.954	5919.99
675.145	5702.91
675.336	5813.5
675.527	5840.12
675.717	5756.16
675.908	5682.43
676.099	5723.39
676.289	5793.02
676.48	5805.31
676.671	5602.56
676.861	5717.25
677.052	5526.78
677.243	5647.62
677.433	5514.5
677.624	5600.51
677.814	5534.98
678.005	5541.12
678.195	5455.11
678.386	5444.87
678.576	5592.32
678.767	5508.35
678.957	5494.02
679.148	5231.88
679.338	5332.23
679.529	5428.48
679.719	5270.79
679.909	5457.15
680.1	5299.46
680.29	5315.84
680.481	5401.86
680.671	5309.7
680.861	5328.13
681.052	5223.69
681.242	5240.07
681.432	5186.82
681.622	5078.28
681.813	5168.39
682.003	5199.11
682.193	5092.62
682.383	5154.05
682.573	5135.62
682.764	5068.04
682.954	5059.85
683.144	5149.96
683.334	4922.63
683.524	4971.79
683.714	5065.99
683.904	4853
684.094	5123.34
684.284	4979.98
684.474	5002.51
684.664	4988.17
684.854	4949.26
685.044	4932.87
685.234	4740.37
685.424	4818.19
685.614	4865.29
685.804	4723.98
685.994	4807.95
686.184	4773.13
686.374	4693.26
686.564	4848.91
686.753	4711.69
686.943	4658.45
687.133	4766.99
687.323	4607.25
687.513	4691.21
687.702	4709.65
687.892	4648.21
688.082	4521.23
688.272	4633.87
688.461	4805.9
688.651	4599.06
688.841	4594.96
689.03	4355.35
689.22	4431.12
689.41	4449.55
689.599	4422.93
689.789	4523.28
689.979	4457.75
690.168	4429.07
690.358	4480.27
690.547	4359.44
690.737	4355.35
690.926	4234.52
691.116	4187.41
691.305	4443.41
691.495	4144.41
691.684	4211.99
691.874	4242.71
692.063	4224.28
692.252	4267.28
692.442	4185.37
692.631	4181.27
692.82	4052.25
693.01	4035.86
693.199	4117.78
693.388	4060.44
693.578	4025.62
693.767	3949.85
693.956	3800.35
694.146	4044.06
694.335	3906.84
694.524	4037.91
694.713	3968.28
694.902	3872.03
695.092	3902.75
695.281	3970.33
695.47	3947.8
695.659	3767.58
695.848	3839.26
696.037	3790.11
696.226	3749.15
696.415	3716.38
696.604	3835.16
696.793	3798.3
696.982	3749.15
697.171	3796.25
697.36	3708.19
697.549	3806.49
697.738	3732.76
697.927	3716.38
698.116	3704.09
698.305	3820.83
698.494	3695.9
698.683	3728.67
698.872	3613.98
699.061	3560.74
699.25	3587.36
699.438	3749.15
699.627	3616.03
699.816	3650.85
700.005	3753.24
700.193	3536.16
700.382	3757.34
700.571	3675.42
700.76	3693.85
700.948	3626.27
701.137	3577.12
701.326	3642.65
701.514	3478.82
701.703	3521.82
701.892	3458.34
702.08	3472.67
702.269	3546.4
702.457	3413.28
702.646	3468.58
702.834	3448.1
703.023	3372.32
703.212	3534.11
703.4	3388.71
703.589	3519.78
703.777	3347.75
703.965	3360.03
704.154	3403.04
704.342	3360.03
704.531	3282.21
704.719	3364.13
704.907	3310.88
705.096	3282.21
705.284	3341.6
705.472	3294.5
705.661	3341.6
705.849	3226.92
706.037	3290.4
706.226	3335.46
706.414	3364.13
706.602	3298.6
706.79	3380.51
706.979	3220.77
707.167	3147.05
707.355	3173.67
707.543	3314.98
707.731	3384.61
707.919	3306.79
708.107	3145
708.296	3165.48
708.484	3341.6
708.672	3235.11
708.86	3214.63
709.048	3185.96
709.236	3263.78
709.424	3167.53
709.612	3241.25
709.8	3044.65
709.988	3077.41
710.176	3114.28
710.364	3114.28
710.551	3173.67
710.739	3034.41
710.927	3214.63
711.115	3114.28
711.303	3120.42
711.491	3058.98
711.679	3097.89
711.866	2962.73
712.054	3196.2
712.242	3052.84
712.43	3077.41
712.617	3083.56
712.805	3063.08
712.993	2925.86
713.181	2835.75
713.368	3024.17
713.556	3114.28
713.744	2995.5
713.931	3056.93
714.119	3032.36
714.306	2981.16
714.494	2952.49
714.682	2882.86
714.869	2956.58
715.057	2872.62
715.244	2895.15
715.432	2983.21
715.619	2934.06
715.807	2923.82
715.994	2972.97
716.182	2985.26
716.369	2999.59
716.556	2868.52
716.744	2942.25
716.931	2880.81
717.119	2882.86
717.306	2805.03
717.493	2893.1
717.681	2907.43
717.868	2819.37
718.055	2874.67
718.242	2807.08
718.43	2780.46
718.617	2856.23
718.804	2800.94
718.991	2897.19
719.179	2905.39
719.366	2815.27
719.553	2766.12
719.74	2837.8
719.927	2714.92
720.114	2749.74
720.301	2696.49
720.488	2815.27
720.676	2784.55
720.863	2854.19
721.05	2811.18
721.237	2749.74
721.424	2743.6
721.611	2676.01
721.798	2710.83
721.985	2727.21
722.172	2618.67
722.358	2651.44
722.545	2745.64
722.732	2802.99
722.919	2667.82
723.106	2702.64
723.293	2700.59
723.48	2798.89
723.667	2676.01
723.853	2663.72
724.04	2667.82
724.227	2690.35
724.414	2563.37
724.6	2569.52
724.787	2682.16
724.974	2602.29
725.161	2745.64
725.347	2700.59
725.534	2557.23
725.72	2680.11
725.907	2624.81
726.094	2618.67
726.28	2563.37
726.467	2546.99
726.653	2688.3
726.84	2684.2
727.027	2565.42
727.213	2557.23
727.4	2659.63
727.586	2577.71
727.773	2563.37
727.959	2442.54
728.145	2692.4
728.332	2534.7
728.518	2528.56
728.705	2579.76
728.891	2549.04
729.077	2610.48
729.264	2592.05
729.45	2579.76
729.636	2540.85
729.823	2409.78
730.009	2553.13
730.195	2604.33
730.382	2544.94
730.568	2452.78
730.754	2520.37
730.94	2565.42
731.126	2463.02
731.313	2522.41
731.499	2444.59
731.685	2415.92
731.871	2381.11
732.057	2522.41
732.243	2563.37
732.429	2487.6
732.615	2483.5
732.801	2479.41
732.987	2460.98
733.173	2479.41
733.359	2538.8
733.545	2434.35
733.731	2467.12
733.917	2497.84
734.103	2420.02
734.289	2549.04
734.475	2442.54
734.661	2516.27
734.847	2471.22
735.033	2389.3
735.219	2413.87
735.404	2272.56
735.59	2290.99
735.776	2356.53
735.962	2463.02
736.148	2430.26
736.333	2391.34
736.519	2356.53
736.705	2377.01
736.89	2323.76
737.076	2366.77
737.262	2286.9
737.447	2434.35
737.633	2342.19
737.819	2293.04
738.004	2325.81
738.19	2307.38
738.375	2258.23
738.561	2323.76
738.747	2325.81
738.932	2422.06
739.118	2299.19
739.303	2299.19
739.489	2356.53
739.674	2180.4
739.859	2315.57
740.045	2192.69
740.23	2217.27
740.416	2159.92
740.601	2180.4
740.786	2227.51
740.972	2196.79
741.157	2106.68
741.342	2155.83
741.528	2192.69
741.713	2252.08
741.898	2190.64
742.084	2229.56
742.269	2247.99
742.454	2223.41
742.639	2086.2
742.824	2221.36
743.01	2106.68
743.195	2080.05
743.38	2125.11
743.565	2092.34
743.75	2022.71
743.935	2069.81
744.12	2159.92
744.305	1981.75
744.49	1969.46
744.675	1991.99
744.86	2000.18
745.045	2020.66
745.23	1959.22
745.415	1973.56
745.6	1957.18
745.785	1932.6
745.97	1934.65
746.155	1996.09
746.34	2016.57
746.525	1905.98
746.71	1867.06
746.895	1908.02
747.079	1811.77
747.264	1795.39
747.449	1930.55
747.634	1881.4
747.819	2000.18
748.003	1811.77
748.188	1893.69
748.373	1817.91
748.557	1856.83
748.742	1840.44
748.927	1834.3
749.111	1824.06
749.296	1758.52
749.481	1787.19
749.665	1758.52
749.85	1684.8
750.034	1746.23
750.219	1725.76
750.404	1674.56
750.588	1733.95
750.773	1680.7
750.957	1580.35
751.141	1525.05
751.326	1615.16
751.51	1606.97
751.695	1647.93
751.879	1537.34
752.064	1578.3
752.248	1586.49
752.432	1606.97
752.617	1647.93
752.801	1525.05
752.985	1561.92
753.17	1555.77
753.354	1459.52
753.538	1561.92
753.722	1520.96
753.907	1447.23
754.091	1428.8
754.275	1404.22
754.459	1436.99
754.643	1492.29
754.828	1408.32
755.012	1414.46
755.196	1365.31
755.38	1375.55
755.564	1465.66
755.748	1357.12
755.932	1465.66
756.116	1332.55
756.3	1230.15
756.484	1316.16
756.668	1383.74
756.852	1262.91
757.036	1238.34
757.22	1361.22
757.404	1279.3
757.588	1269.06
757.772	1262.91
757.956	1357.12
758.14	1285.44
758.323	1238.34
758.507	1191.24
758.691	1260.87
758.875	1170.76
759.059	1252.67
759.242	1289.54
759.426	1299.78
759.61	1193.28
759.794	1129.8
759.977	1230.15
760.161	1267.01
760.345	1195.33
760.528	1164.61
760.712	1244.48
760.895	1176.9
761.079	1041.73
761.263	1088.84
761.446	1127.75
761.63	1082.69
761.813	1150.28
761.997	1039.69
762.18	1086.79
762.364	1013.06
762.547	1054.02
762.731	1021.25
762.914	1064.26
763.098	1045.83
763.281	1051.97
763.464	986.44
763.648	1041.73
763.831	1029.45
764.015	996.68
764.198	1072.45
764.381	1031.49
764.564	1088.84
764.748	1054.02
764.931	943.43
765.114	1027.4
765.297	996.68
765.481	933.19
765.664	1006.92
765.847	996.68
766.03	949.57
766.213	968.01
766.397	945.48
766.58	982.34
766.763	1006.92
766.946	908.62
767.129	873.8
767.312	865.61
767.495	937.29
767.678	961.86
767.861	898.38
768.044	908.62
768.227	959.81
768.41	898.38
768.593	906.57
768.776	769.35
768.959	914.76
769.142	875.85
769.324	890.18
769.507	793.93
769.69	896.33
769.873	892.23
770.056	894.28
770.239	935.24
770.421	834.89
770.604	828.74
770.787	869.7
770.97	857.42
771.152	757.07
771.335	828.74
771.518	853.32
771.7	853.32
771.883	834.89
772.066	828.74
772.248	886.09
772.431	828.74
772.613	857.42
772.796	832.84
772.978	908.62
773.161	761.16
773.343	769.35
773.526	767.31
773.708	761.16
773.891	793.93
774.073	800.07
774.256	724.3
774.438	795.98
774.621	738.63
774.803	740.68
774.985	703.82
775.168	730.44
775.35	744.78
775.532	730.44
775.715	701.77
775.897	738.63
776.079	701.77
776.261	687.43
776.444	709.96
776.626	703.82
776.808	714.06
776.99	761.16
777.173	630.09
777.355	644.43
777.537	605.52
777.719	652.62
777.901	728.39
778.083	642.38
778.265	554.32
778.447	761.16
778.629	613.71
778.811	709.96
778.993	732.49
779.175	722.25
779.357	626
779.539	544.08
779.721	652.62
779.903	654.67
780.085	585.04
780.267	628.04
780.449	636.24
780.631	607.56
780.812	607.56
780.994	554.32
781.176	466.25
781.358	554.32
781.54	611.66
781.721	585.04
781.903	529.74
782.085	550.22
782.267	562.51
782.448	531.79
782.63	417.1
782.812	546.13
782.993	472.4
783.175	531.79
783.357	449.87
783.538	542.03
783.72	609.61
783.901	423.25
784.083	482.64
784.264	482.64
784.446	570.7
784.627	451.92
784.809	521.55
784.99	466.25
785.172	458.06
785.353	441.68
785.535	490.83
785.716	386.38
785.897	447.82
786.079	441.68
786.26	402.77
786.441	492.88
786.623	400.72
786.804	417.1
786.985	394.58
787.167	365.9
787.348	382.29
787.529	490.83
787.71	484.69
787.891	415.06
788.073	400.72
788.254	333.14
788.435	460.11
788.616	439.63
788.797	326.99
788.978	376.14
789.159	388.43
789.34	382.29
789.522	382.29
789.703	365.9
789.884	347.47
790.065	431.44
790.246	427.34
790.427	431.44
790.607	374.1
790.788	351.57
790.969	324.94
791.15	429.39
791.331	267.6
791.512	370
791.693	378.19
791.874	408.91
792.054	302.42
792.235	431.44
792.416	337.23
792.597	378.19
792.778	392.53
792.958	324.94
793.139	308.56
793.32	329.04
793.5	312.66
793.681	365.9
793.862	341.33
794.042	251.22
794.223	326.99
794.404	263.51
794.584	292.18
794.765	312.66
794.945	312.66
795.126	238.93
795.306	275.79
795.487	296.27
795.667	283.99
795.848	341.33
796.028	247.12
796.209	290.13
796.389	296.27
796.57	261.46
796.75	234.83
796.93	189.78
797.111	257.36
797.291	224.59
797.471	296.27
797.652	259.41
797.832	271.7
798.012	255.31
798.192	308.56
798.373	236.88
798.553	283.99
798.733	306.51
798.913	265.55
799.093	179.54
799.274	275.79
799.454	288.08
799.634	247.12
799.814	333.14
799.994	324.94
800.174	283.99
800.354	222.55
800.534	230.74
800.714	255.31
800.894	210.26
801.074	202.07
801.254	214.35
801.434	316.75
801.614	275.79
801.794	259.41
801.974	806.22
802.154	197.97
802.334	210.26
802.514	243.03
802.693	234.83
802.873	152.92
803.053	275.79
803.233	185.68
803.413	185.68
803.592	251.22
803.772	111.96
803.952	296.27
804.131	195.92
804.311	169.3
804.491	300.37
804.67	222.55
804.85	195.92
805.03	187.73
805.209	253.27
805.389	218.45
805.568	308.56
805.748	140.63
805.928	185.68
806.107	132.44
806.287	128.34
806.466	193.87
806.646	187.73
806.825	210.26
807.004	212.31
807.184	191.83
807.363	210.26
807.543	232.79
807.722	222.55
807.901	265.55
808.081	187.73
808.26	154.96
808.439	210.26
808.619	173.39
808.798	152.92
808.977	167.25
809.156	259.41
809.336	206.16
809.515	202.07
809.694	189.78
809.873	150.87
810.052	132.44
810.231	222.55
810.411	75.09
810.59	193.87
810.769	146.77
810.948	208.21
811.127	60.76
811.306	157.01
811.485	193.87
811.664	197.97
811.843	152.92
812.022	134.48
812.201	138.58
812.38	210.26
812.559	152.92
812.737	157.01
812.916	157.01
813.095	144.72
813.274	214.35
813.453	165.2
813.632	187.73
813.811	200.02
813.989	109.91
814.168	109.91
814.347	120.15
814.526	183.63
814.704	138.58
814.883	195.92
815.062	165.2
815.24	152.92
815.419	193.87
815.598	161.11
815.776	30.04
815.955	208.21
816.133	116.05
816.312	114
816.49	150.87
816.669	103.76
816.847	187.73
817.026	128.34
817.204	197.97
817.383	128.34
817.561	128.34
817.74	171.35
817.918	109.91
818.097	128.34
818.275	116.05
818.453	171.35
818.632	185.68
818.81	13.65
818.988	101.72
819.167	103.76
819.345	122.2
819.523	73.04
819.701	30.04
819.879	95.57
820.058	138.58
820.236	124.24
820.414	128.34
820.592	89.43
820.77	144.72
820.948	87.38
821.127	99.67
821.305	185.68
821.483	179.54
821.661	124.24
821.839	183.63
822.017	21.85
822.195	136.53
822.373	99.67
822.551	124.24
822.729	177.49
822.907	157.01
823.085	105.81
823.262	62.8
823.44	54.61
823.618	150.87
823.796	103.76
823.974	103.76
824.152	101.72
824.329	161.11
824.507	128.34
824.685	130.39
824.863	132.44
825.04	122.2
825.218	105.81
825.396	103.76
825.574	97.62
825.751	103.76
825.929	122.2
826.107	116.05
826.284	101.72
826.462	111.96
826.639	124.24
826.817	99.67
826.994	103.76
827.172	81.24
827.349	132.44
827.527	134.48
827.704	146.77
827.882	142.68
828.059	146.77
828.237	40.28
828.414	71
828.591	97.62
828.769	44.37
828.946	146.77
829.124	144.72
829.301	138.58
829.478	46.42
829.655	99.67
829.833	83.28
830.01	120.15
830.187	89.43
830.364	73.04
830.542	54.61
830.719	58.71
830.896	161.11
831.073	107.86
831.25	136.53
831.427	58.71
831.604	91.48
831.782	60.76
831.959	66.9
832.136	128.34
832.313	89.43
832.49	114
832.667	150.87
832.844	116.05
833.021	103.76
833.198	48.47
833.374	91.48
833.551	46.42
833.728	1.37
833.905	40.28
834.082	40.28
834.259	75.09
834.436	75.09
834.612	-33.45
834.789	73.04
834.966	58.71
835.143	152.92
835.319	38.23
835.496	32.08
835.673	66.9
835.85	144.72
836.026	46.42
836.203	62.8
836.38	134.48
836.556	34.13
836.733	73.04
836.909	56.66
837.086	-10.92
837.262	30.04
837.439	54.61
837.616	32.08
837.792	87.38
837.968	30.04
838.145	5.46
838.321	40.28
838.498	73.04
838.674	120.15
838.851	91.48
839.027	77.14
839.203	5.46
839.38	79.19
839.556	95.57
839.732	132.44
839.909	15.7
840.085	3.41
840.261	85.33
840.437	13.65
840.614	-66.22
840.79	79.19
840.966	46.42
841.142	23.89
841.318	38.23
841.494	83.28
841.671	46.42
841.847	-17.07
842.023	13.65
842.199	48.47
842.375	144.72
842.551	23.89
842.727	58.71
842.903	40.28
843.079	1.37
843.255	68.95
843.431	79.19
843.607	-10.92
843.783	-103.08
843.959	103.76
844.134	60.76
844.31	79.19
844.486	66.9
844.662	87.38
844.838	54.61
845.013	23.89
845.189	183.63
845.365	-2.73
845.541	-25.26
845.716	99.67
845.892	122.2
846.068	9.56
846.244	1.37
846.419	136.53
846.595	19.8
846.77	48.47
846.946	21.85
847.122	103.76
847.297	-4.78
847.473	30.04
847.648	-60.07
847.824	19.8
847.999	-19.11
848.175	68.95
848.35	1.37
848.526	79.19
848.701	77.14
848.876	62.8
849.052	13.65
849.227	38.23
849.403	-10.92
849.578	1.37
849.753	13.65
849.929	-2.73
850.104	56.66
850.279	-10.92
850.454	91.48
850.63	1.37
850.805	64.85
850.98	13.65
851.155	56.66
851.33	105.81
851.505	-33.45
851.681	58.71
851.856	-10.92
852.031	73.04
852.206	68.95
852.381	60.76
852.556	64.85
852.731	42.32
852.906	32.08
853.081	95.57
853.256	17.75
853.431	3.41
853.606	9.56
853.781	52.56
853.956	5.46
854.131	38.23
854.305	114
854.48	13.65
854.655	-10.92
854.83	40.28
855.005	1.37
855.18	89.43
855.354	17.75
855.529	79.19
855.704	97.62
855.879	44.37
856.053	66.9
856.228	11.61
856.403	134.48
856.577	68.95
856.752	7.51
856.926	13.65
857.101	13.65
857.276	-39.59
857.45	-10.92
857.625	5.46
857.799	87.38
857.974	-31.4
858.148	-55.98
858.323	5.46
858.497	56.66
858.672	42.32
858.846	56.66
859.02	36.18
859.195	-15.02
859.369	44.37
859.543	42.32
859.718	-21.16
859.892	83.28
860.066	21.85
860.241	46.42
860.415	-6.83
860.589	38.23
860.763	9.56
860.938	103.76
861.112	79.19
861.286	32.08
861.46	-8.87
861.634	62.8
861.808	73.04
861.982	48.47
862.157	-60.07
862.331	-2.73
862.505	-43.69
862.679	58.71
862.853	13.65
863.027	-10.92
863.201	15.7
863.375	42.32
863.549	36.18
863.722	46.42
863.896	21.85
864.07	-49.83
864.244	-41.64
864.418	3.41
864.592	13.65
864.766	36.18
864.939	50.52
865.113	-43.69
865.287	71
865.461	-35.5
865.634	75.09
865.808	42.32
865.982	-23.21
866.156	19.8
866.329	-19.11
866.503	-19.11
866.676	-31.4
866.85	25.94
867.024	-6.83
867.197	48.47
867.371	30.04
867.544	-35.5
867.718	17.75
867.891	-0.68
868.065	36.18
868.238	23.89
868.412	81.24
868.585	38.23
868.759	5.46
868.932	3.41
869.105	89.43
869.279	-49.83
869.452	73.04
869.625	7.51
869.799	-6.83
869.972	-25.26
870.145	-76.46
870.319	23.89
870.492	34.13
870.665	64.85
870.838	3.41
871.011	25.94
871.185	34.13
871.358	-8.87
871.531	11.61
871.704	40.28
871.877	46.42
872.05	5.46
872.223	-27.31
872.396	62.8
872.569	-27.31
872.742	9.56
872.915	50.52
873.088	15.7
873.261	-2.73
873.434	50.52
873.607	13.65
873.78	-35.5
873.953	32.08
874.126	34.13
874.299	-4.78
874.471	-27.31
874.644	-35.5
874.817	25.94
874.99	21.85
875.163	-8.87
875.335	23.89
875.508	38.23
875.681	9.56
875.853	-31.4
876.026	83.28
876.199	5.46
876.371	56.66
876.544	-74.41
876.717	-8.87
876.889	21.85
877.062	-47.79
877.234	-0.68
877.407	17.75
877.579	-31.4
877.752	38.23
877.924	42.32
878.097	58.71
878.269	-35.5
878.442	42.32
878.614	79.19
878.786	-55.98
878.959	48.47
879.131	-15.02
879.303	15.7
879.476	81.24
879.648	9.56
879.82	-10.92
879.993	1.37
880.165	-2.73
880.337	-10.92
880.509	11.61
880.681	-35.5
880.854	-43.69
881.026	42.32
881.198	62.8
881.37	-58.03
881.542	91.48
881.714	17.75
881.886	-15.02
882.058	38.23
882.23	13.65
882.402	7.51
882.574	15.7
882.746	5.46
882.918	36.18
883.09	48.47
883.262	46.42
883.434	-23.21
883.606	-2.73
883.778	-49.83
883.95	-45.74
884.122	-2.73
884.293	34.13
884.465	38.23
884.637	30.04
884.809	-49.83
884.98	30.04
885.152	32.08
885.324	44.37
885.496	30.04
885.667	-10.92
885.839	7.51
886.011	68.95
886.182	19.8
886.354	-6.83
886.525	-10.92
886.697	105.81
886.869	38.23
887.04	30.04
887.212	21.85
887.383	5.46
887.555	-8.87
887.726	13.65
887.897	-27.31
888.069	87.38
888.24	54.61
888.412	-43.69
888.583	-55.98
888.754	34.13
888.926	-47.79
889.097	13.65
889.268	-27.31
889.44	-27.31
889.611	21.85
889.782	-68.27
889.953	85.33
890.125	23.89
890.296	-51.88
890.467	-25.26
890.638	-53.93
890.809	-35.5
890.98	23.89
891.151	21.85
891.323	23.89
891.494	9.56
891.665	-15.02
891.836	-4.78
892.007	11.61
892.178	32.08
892.349	-12.97
892.52	5.46
892.691	17.75
892.862	13.65
893.032	-6.83
893.203	-4.78
893.374	38.23
893.545	-8.87
893.716	7.51
893.887	46.42
894.057	-60.07
894.228	5.46
894.399	-105.13
894.57	19.8
894.74	-2.73
894.911	40.28
895.082	46.42
895.253	-29.35
895.423	30.04
895.594	40.28
895.764	64.85
895.935	30.04
896.106	-4.78
896.276	-35.5
896.447	79.19
896.617	-43.69
896.788	-8.87
896.958	-0.68
897.129	-17.07
897.299	-25.26
897.47	21.85
897.64	62.8
897.81	25.94
897.981	-35.5
898.151	-4.78
898.322	83.28
898.492	-41.64
898.662	-17.07
898.832	15.7
899.003	19.8
899.173	-21.16
899.343	-17.07
899.513	-31.4
